Data from 2938774__Reflection_01.txt Node
Date: Fri Mar 13 14:19:49 EDT 2015
User: robert
Spectrometer: USB4E03002
Autoset integration time: false
Trigger mode: 4
Integration Time (sec): 1.000000E-1
Scans to average: 10
Electric dark correction enabled: false
Nonlinearity correction enabled: false
Boxcar width: 5
Stray light correction enabled: false
XAxis mode: Wavelengths
Stop averaging: false
Number of Pixels in Spectrum: 3648
>>>>>Begin Spectral Data<<<<<
177.575	-278.47
177.794	-602.74
178.014	-1914.81
178.233	1011.94
178.452	2116.22
178.672	486.93
178.891	431.1
179.11	2378.26
179.33	-537.31
179.549	-223.81
179.768	-1183.33
179.987	526.87
180.207	1614.81
180.426	532.31
180.645	-568.57
180.864	-219.35
181.084	9.84
181.303	-58.88
181.522	-593.62
181.741	2613.33
181.96	190.16
182.179	157.56
182.398	124.84
182.618	112.68
182.837	165.68
183.056	192.24
183.275	160.46
183.494	136.75
183.713	144.22
183.932	114.86
184.151	95.14
184.37	103.07
184.589	128.65
184.808	208.89
185.027	91.23
185.246	33.06
185.465	-16.71
185.684	-20.75
185.903	11.99
186.122	14.39
186.341	13.76
186.56	13.74
186.779	-16.49
186.998	0
187.216	20.28
187.435	-105.08
187.654	29.74
187.873	30.05
188.092	39.73
188.311	-5.78
188.53	45.67
188.748	298.44
188.967	-158.33
189.186	99.28
189.405	159.71
189.623	83.33
189.842	112.32
190.061	138.22
190.28	209.45
190.498	153.48
190.717	125.52
190.936	140.41
191.154	106.48
191.373	132
191.592	125.49
191.81	91.23
192.029	97.09
192.248	57.83
192.466	72.27
192.685	53.01
192.904	53.89
193.122	45.79
193.341	37.63
193.559	106.25
193.778	54.84
193.996	79.1
194.215	1160
194.433	200
194.652	218.92
194.87	231.91
195.089	5340
195.307	676.92
195.526	-138.32
195.744	602.13
195.963	172.13
196.181	171.9
196.399	138.67
196.618	101.8
196.836	157.86
197.055	247.4
197.273	410.99
197.491	847.06
197.71	748.15
197.928	283.24
198.146	297.46
198.365	322.67
198.583	343.94
198.801	-82.53
199.019	-95.52
199.238	-56.69
199.456	-45.61
199.674	-55.3
199.892	-76.02
200.111	-1.83
200.329	16.87
200.547	-8.38
200.765	-111.37
200.983	-57.2
201.202	37.38
201.42	141.67
201.638	-204.35
201.856	95.88
202.074	148.78
202.292	50.53
202.51	134.88
202.728	98.3
202.946	182.55
203.165	306.35
203.383	21600
203.601	201.41
203.819	221.78
204.037	117.65
204.255	91.24
204.473	63.57
204.691	134.25
204.909	26.13
205.127	33.89
205.345	-11.54
205.562	-48.49
205.78	-1.24
205.998	-4.31
206.216	10.95
206.434	8.59
206.652	34.9
206.87	51.45
207.088	45.75
207.306	70.16
207.523	30.71
207.741	28.67
207.959	31.62
208.177	32.2
208.395	17.36
208.612	25.47
208.83	18.01
209.048	-74.9
209.266	-1110
209.483	1270.59
209.701	1276
209.919	-214.06
210.136	-2000
210.354	194.44
210.572	184.15
210.79	-83.18
211.007	-24.91
211.225	25.42
211.442	23.48
211.66	25.39
211.878	21.94
212.095	138.64
212.313	167.51
212.53	146.01
212.748	114
212.966	88.45
213.183	97.69
213.401	101.67
213.618	69.67
213.836	86.12
214.053	113.4
214.271	142.45
214.488	34.47
214.705	19.29
214.923	22.18
215.14	35.24
215.358	48.03
215.575	49.28
215.793	47.88
216.01	61.62
216.227	56.25
216.445	55.65
216.662	40.81
216.879	44.17
217.097	47.16
217.314	54.22
217.531	47.08
217.749	39.5
217.966	36.13
218.183	34.55
218.4	8.61
218.618	19.06
218.835	12.65
219.052	11.94
219.269	10.7
219.487	-0.81
219.704	6.61
219.921	-3.98
220.138	3.46
220.355	10.6
220.572	-1.59
220.79	0.14
221.007	-11.42
221.224	-17.1
221.441	-14.44
221.658	-5.65
221.875	5.09
222.092	4.27
222.309	14.97
222.526	8.79
222.743	3.54
222.96	18.14
223.177	22.99
223.394	22.87
223.611	29.92
223.828	32.11
224.045	29.92
224.262	35.61
224.479	32.59
224.696	28.67
224.913	31.27
225.13	30.09
225.347	30.19
225.564	26.41
225.781	31.12
225.997	24.71
226.214	21.99
226.431	20.58
226.648	13.06
226.865	13.27
227.082	12.72
227.298	12.55
227.515	11.1
227.732	9.09
227.949	8.13
228.165	7.5
228.382	7.67
228.599	7.82
228.816	7.19
229.032	7
229.249	6.21
229.466	6.26
229.682	5.68
229.899	5.62
230.116	5.88
230.332	6.6
230.549	5.76
230.765	5.48
230.982	6.27
231.199	6.6
231.415	7.49
231.632	7.46
231.848	7.74
232.065	5.93
232.281	6.73
232.498	5.88
232.714	5.12
232.931	6.29
233.147	7.04
233.364	5.2
233.58	4.71
233.797	5.02
234.013	5.98
234.23	4.31
234.446	6.31
234.662	4.86
234.879	4.45
235.095	5.46
235.312	4.3
235.528	3.95
235.744	1.89
235.961	3.83
236.177	3.88
236.393	4
236.61	6.38
236.826	5.48
237.042	6.2
237.258	4.93
237.475	4.1
237.691	3.39
237.907	3.16
238.123	5.67
238.339	4.1
238.556	2.18
238.772	3.6
238.988	1.53
239.204	2.26
239.42	2.64
239.636	4.82
239.853	4.71
240.069	6.75
240.285	7.16
240.501	7.78
240.717	8.21
240.933	8.66
241.149	8.14
241.365	7.95
241.581	7.72
241.797	7.84
242.013	8.21
242.229	8.76
242.445	7.97
242.661	8.01
242.877	7.73
243.093	7.8
243.309	7.68
243.525	7.38
243.741	7.76
243.957	8.26
244.173	8.3
244.388	7.83
244.604	7.36
244.82	8.04
245.036	7.73
245.252	7.01
245.468	6.96
245.683	7.39
245.899	7.12
246.115	7.05
246.331	6.66
246.547	6.62
246.762	6.49
246.978	6.43
247.194	6.26
247.409	6.46
247.625	6.54
247.841	6.29
248.057	6.13
248.272	6.36
248.488	6.61
248.703	6.63
248.919	6.52
249.135	6.36
249.35	6.68
249.566	6.22
249.782	5.94
249.997	6.25
250.213	6.73
250.428	7.13
250.644	6.45
250.859	5.67
251.075	6.56
251.29	6.1
251.506	7.02
251.721	6.54
251.937	6.47
252.152	5.96
252.368	6.27
252.583	6.27
252.798	5.62
253.014	6.42
253.229	6.6
253.445	5.58
253.66	5.98
253.875	5.6
254.091	5.11
254.306	5.63
254.521	6.72
254.737	6.53
254.952	6.68
255.167	6.3
255.383	5.75
255.598	5.72
255.813	6.16
256.028	5.84
256.244	4.67
256.459	5.64
256.674	4.8
256.889	4.34
257.104	3.41
257.32	3.51
257.535	3.65
257.75	3.99
257.965	4.32
258.18	4.27
258.395	4.26
258.61	4.92
258.826	4.58
259.041	4.91
259.256	4.59
259.471	4.45
259.686	4.17
259.901	4.05
260.116	3.88
260.331	4.04
260.546	3.72
260.761	3.81
260.976	3.6
261.191	3.66
261.406	3.37
261.621	3.55
261.836	3.73
262.05	3.38
262.265	3.41
262.48	2.89
262.695	2.26
262.91	1.92
263.125	1.62
263.34	1.22
263.555	1.16
263.769	1.44
263.984	0.97
264.199	0.84
264.414	1.22
264.629	1.91
264.843	2.97
265.058	2.74
265.273	3.71
265.488	4.06
265.702	4.64
265.917	4.25
266.132	4.44
266.346	4.76
266.561	5.43
266.776	5.44
266.99	5.26
267.205	4.82
267.42	5.18
267.634	5.14
267.849	4.84
268.063	4.7
268.278	5.12
268.492	4.67
268.707	4.57
268.922	3.47
269.136	4.12
269.351	4.03
269.565	4.49
269.78	4.29
269.994	4.56
270.209	4.45
270.423	4.1
270.637	3.81
270.852	4.04
271.066	4.27
271.281	4.7
271.495	4.26
271.709	3.95
271.924	3.46
272.138	3.62
272.353	3.51
272.567	3.67
272.781	3.76
272.996	3.62
273.21	3.65
273.424	3.56
273.638	3.39
273.853	3.16
274.067	3.41
274.281	3.97
274.495	3.73
274.71	3.7
274.924	3.95
275.138	4.18
275.352	4.66
275.566	4.55
275.781	4.12
275.995	4.75
276.209	4.74
276.423	4.87
276.637	4.08
276.851	4.15
277.065	4.22
277.279	4.31
277.493	4.04
277.707	3.8
277.921	3.62
278.135	3.95
278.349	3.49
278.563	4.29
278.777	4.42
278.991	5.03
279.205	5.07
279.419	4.85
279.633	4.43
279.847	4.5
280.061	4.15
280.275	4.51
280.489	4.84
280.703	4.98
280.917	4.44
281.131	4.08
281.344	3.78
281.558	3.46
281.772	3.59
281.986	3.6
282.2	3.4
282.414	3.6
282.627	3.49
282.841	3.08
283.055	2.85
283.269	2.73
283.482	2.8
283.696	2.82
283.91	2.61
284.123	2.51
284.337	2.77
284.551	2.98
284.764	2.96
284.978	2.85
285.192	2.82
285.405	2.64
285.619	2.53
285.833	2.49
286.046	2.25
286.26	2.85
286.473	2.99
286.687	2.66
286.9	2.72
287.114	2.81
287.327	2.85
287.541	2.8
287.754	3
287.968	3.21
288.181	3.56
288.395	4.08
288.608	4.17
288.822	4.11
289.035	4.26
289.248	3.84
289.462	3.99
289.675	3.89
289.889	4.45
290.102	4.48
290.315	4.51
290.529	4.42
290.742	4.25
290.955	3.82
291.169	4.16
291.382	4.32
291.595	4.42
291.808	4.22
292.022	4.35
292.235	3.63
292.448	3.71
292.661	3.52
292.875	3.32
293.088	3.67
293.301	3.79
293.514	3.52
293.727	4
293.94	4.23
294.153	4.14
294.367	3.98
294.58	3.97
294.793	3.82
295.006	4.23
295.219	4.26
295.432	3.8
295.645	4
295.858	3.61
296.071	3.15
296.284	3.02
296.497	3.16
296.71	3.43
296.923	3.95
297.136	4.03
297.349	3.86
297.562	4.09
297.775	4.48
297.988	4.67
298.201	5.14
298.414	5.29
298.626	5.29
298.839	5.18
299.052	4.95
299.265	4.59
299.478	4.7
299.691	4.81
299.903	4.74
300.116	4.67
300.329	4.3
300.542	4.14
300.755	4.1
300.967	4.2
301.18	4.41
301.393	4.93
301.605	5.32
301.818	5.39
302.031	5.4
302.243	5.17
302.456	4.97
302.669	5.23
302.881	5.27
303.094	5.1
303.307	5.22
303.519	5.1
303.732	5.09
303.944	4.5
304.157	4.25
304.37	4.3
304.582	4.25
304.795	4.2
305.007	4.35
305.22	4.04
305.432	3.91
305.645	3.94
305.857	4.27
306.069	4.32
306.282	4.59
306.494	4.72
306.707	4.21
306.919	4.31
307.132	4.53
307.344	4.36
307.556	5.06
307.769	5.49
307.981	5.61
308.193	5.34
308.406	5.03
308.618	5.27
308.83	5.23
309.043	5.7
309.255	5.8
309.467	5.9
309.679	5.33
309.892	4.75
310.104	4.87
310.316	4.71
310.528	4.83
310.74	4.98
310.953	4.74
311.165	4.87
311.377	4.7
311.589	4.93
311.801	4.78
312.013	5.2
312.225	5.38
312.437	5.38
312.649	5.42
312.862	5.5
313.074	5.48
313.286	5.77
313.498	5.31
313.71	5.58
313.922	5.22
314.134	5.39
314.346	5.25
314.558	5.74
314.77	5.8
314.982	5.68
315.193	5.55
315.405	5.62
315.617	5.58
315.829	6.1
316.041	6.17
316.253	6
316.465	6.27
316.677	6.83
316.888	6.64
317.1	6.38
317.312	6.75
317.524	6.87
317.736	6.73
317.947	6.8
318.159	7.17
318.371	7.25
318.583	7.65
318.794	7.83
319.006	7.67
319.218	7.36
319.43	7.45
319.641	7.92
319.853	8.26
320.064	8.16
320.276	8.28
320.488	7.87
320.699	7.99
320.911	8.19
321.123	7.53
321.334	7.1
321.546	7.4
321.757	7.18
321.969	6.25
322.18	6.44
322.392	6.79
322.603	6.47
322.815	6.53
323.026	6.66
323.238	6.67
323.449	6.65
323.661	6.69
323.872	6.79
324.083	7.01
324.295	7.62
324.506	7.61
324.718	7.59
324.929	7.6
325.14	7.33
325.352	7.26
325.563	7.04
325.774	7.12
325.986	7.52
326.197	7.5
326.408	8.09
326.62	8.09
326.831	7.84
327.042	7.65
327.253	7.95
327.464	8.64
327.676	8.7
327.887	8.92
328.098	9.19
328.309	9.06
328.52	9.3
328.732	9.21
328.943	9.48
329.154	9.41
329.365	9.66
329.576	9.49
329.787	9.34
329.998	9.07
330.209	9.12
330.42	9.33
330.631	9.57
330.842	9.45
331.053	9.43
331.264	8.88
331.475	9.09
331.686	9.22
331.897	9.58
332.108	9.73
332.319	10.34
332.53	10.47
332.741	10.55
332.952	10.65
333.163	10.51
333.374	10.02
333.585	10.18
333.795	10.29
334.006	10.33
334.217	10.46
334.428	10.35
334.639	10.08
334.849	9.72
335.06	9.5
335.271	9.52
335.482	9.95
335.692	10.13
335.903	10.4
336.114	10.54
336.325	10.58
336.535	10.41
336.746	10.56
336.957	10.52
337.167	11
337.378	11.2
337.589	11
337.799	10.6
338.01	10.76
338.22	10.77
338.431	10.18
338.642	9.78
338.852	9.51
339.063	9.28
339.273	9.17
339.484	8.94
339.694	8.62
339.905	8.8
340.115	8.99
340.326	8.87
340.536	8.66
340.746	9.12
340.957	9.7
341.167	9.99
341.378	9.97
341.588	9.98
341.799	9.71
342.009	9.36
342.219	8.93
342.43	8.74
342.64	8.81
342.85	8.81
343.061	8.51
343.271	8.26
343.481	7.86
343.691	7.73
343.902	7.82
344.112	8.04
344.322	8.31
344.532	8.34
344.743	8.66
344.953	8.57
345.163	8.76
345.373	8.85
345.583	8.86
345.793	8.93
346.004	8.87
346.214	8.7
346.424	8.89
346.634	9.27
346.844	9.33
347.054	8.95
347.264	8.9
347.474	8.6
347.684	8.61
347.894	8.85
348.104	9.19
348.314	9.39
348.524	9.26
348.734	9.15
348.944	8.97
349.154	9.45
349.364	9.46
349.574	9.27
349.784	9.64
349.994	9.62
350.204	9.5
350.413	9.41
350.623	9.46
350.833	9.44
351.043	9.16
351.253	9.1
351.463	8.94
351.672	8.87
351.882	9.48
352.092	9.18
352.302	9.35
352.511	9.23
352.721	9.1
352.931	9.22
353.141	9.28
353.35	9.55
353.56	9.46
353.77	9.27
353.979	9.38
354.189	8.99
354.399	8.96
354.608	8.9
354.818	8.97
355.027	9
355.237	8.87
355.447	9.02
355.656	8.82
355.866	8.96
356.075	8.92
356.285	8.89
356.494	8.75
356.704	8.68
356.913	8.73
357.123	8.63
357.332	8.45
357.542	8.34
357.751	8.28
357.96	8.31
358.17	8.15
358.379	8.1
358.589	7.95
358.798	8.27
359.007	8.26
359.217	8.46
359.426	8.58
359.635	8.74
359.845	8.74
360.054	8.62
360.263	8.66
360.472	8.64
360.682	8.71
360.891	8.85
361.1	8.65
361.309	8.68
361.519	8.38
361.728	8.29
361.937	8.22
362.146	8.28
362.355	8.31
362.564	8.3
362.774	8.4
362.983	8.4
363.192	8.52
363.401	8.41
363.61	8.48
363.819	8.49
364.028	8.4
364.237	8.25
364.446	8.11
364.655	8.12
364.864	8.29
365.073	8.08
365.282	8.13
365.491	7.77
365.7	7.96
365.909	7.94
366.118	8.06
366.327	8
366.536	8.17
366.745	8.02
366.954	7.88
367.162	7.6
367.371	7.69
367.58	7.5
367.789	7.67
367.998	7.43
368.207	7.29
368.415	6.96
368.624	6.86
368.833	6.97
369.042	7.23
369.25	7.5
369.459	7.4
369.668	7.29
369.877	7.35
370.085	7.26
370.294	7.53
370.503	7.84
370.711	7.95
370.92	8.14
371.129	7.88
371.337	7.8
371.546	7.62
371.754	7.98
371.963	8.11
372.171	8.28
372.38	8.36
372.589	8.25
372.797	8.11
373.006	8.06
373.214	7.87
373.423	7.96
373.631	8.08
373.84	8.16
374.048	7.73
374.256	7.82
374.465	7.8
374.673	7.94
374.882	7.88
375.09	7.74
375.298	8.15
375.507	8.17
375.715	8.03
375.923	7.9
376.132	8.03
376.34	8.12
376.548	8.06
376.757	7.91
376.965	7.73
377.173	7.56
377.381	7.44
377.59	7.21
377.798	7.51
378.006	7.64
378.214	7.73
378.423	7.57
378.631	7.76
378.839	7.47
379.047	7.63
379.255	7.61
379.463	7.72
379.671	7.66
379.879	7.63
380.088	7.51
380.296	7.48
380.504	7.28
380.712	7.41
380.92	7.23
381.128	7.4
381.336	7.16
381.544	7.29
381.752	7.08
381.96	7.39
382.168	7.48
382.376	7.43
382.584	7.45
382.791	7.31
382.999	7.24
383.207	7.37
383.415	7.3
383.623	7.28
383.831	7.11
384.039	7.64
384.247	7.37
384.454	7.26
384.662	7.28
384.87	7.14
385.078	7.32
385.285	7.12
385.493	7.01
385.701	7.06
385.909	6.97
386.116	7.13
386.324	6.84
386.532	6.95
386.739	6.94
386.947	6.9
387.155	7
387.362	6.94
387.57	6.94
387.778	7.11
387.985	7.27
388.193	7.4
388.4	7.02
388.608	7.04
388.816	6.96
389.023	6.9
389.231	6.88
389.438	6.79
389.646	6.83
389.853	6.85
390.061	6.66
390.268	6.48
390.475	6.41
390.683	6.55
390.89	6.32
391.098	6.35
391.305	6.38
391.512	6.19
391.72	6.33
391.927	6.28
392.135	6.31
392.342	6.08
392.549	6.1
392.756	5.97
392.964	5.89
393.171	5.97
393.378	5.84
393.586	5.89
393.793	5.98
394	5.86
394.207	5.91
394.414	5.97
394.622	6.04
394.829	5.87
395.036	5.99
395.243	5.99
395.45	6.03
395.657	6.04
395.864	5.94
396.072	5.77
396.279	5.87
396.486	5.56
396.693	5.68
396.9	5.75
397.107	5.83
397.314	5.69
397.521	5.74
397.728	5.73
397.935	5.91
398.142	5.89
398.349	5.91
398.556	5.78
398.763	5.92
398.97	5.48
399.177	5.46
399.383	5.47
399.59	5.58
399.797	5.56
400.004	5.48
400.211	5.42
400.418	5.44
400.625	5.64
400.831	5.45
401.038	5.57
401.245	5.74
401.452	5.84
401.658	5.75
401.865	5.67
402.072	5.66
402.279	5.64
402.485	5.54
402.692	5.53
402.899	5.4
403.105	5.64
403.312	5.51
403.519	5.54
403.725	5.51
403.932	5.64
404.138	5.71
404.345	5.79
404.552	5.73
404.758	5.69
404.965	5.48
405.171	5.46
405.378	5.34
405.584	5.34
405.791	5.39
405.997	5.27
406.204	5.17
406.41	5.22
406.617	5.22
406.823	5.41
407.029	5.37
407.236	5.44
407.442	5.45
407.649	5.48
407.855	5.47
408.061	5.34
408.268	5.22
408.474	5.21
408.68	5
408.887	4.95
409.093	4.83
409.299	4.99
409.505	4.93
409.712	4.89
409.918	4.87
410.124	4.92
410.33	5.06
410.537	5.24
410.743	5.31
410.949	5.24
411.155	5.25
411.361	5.32
411.567	5.15
411.773	5.37
411.98	5.33
412.186	5.21
412.392	5.22
412.598	5.03
412.804	4.86
413.01	4.61
413.216	4.82
413.422	4.61
413.628	4.71
413.834	4.86
414.04	4.61
414.246	4.61
414.452	4.77
414.658	4.77
414.864	4.75
415.07	4.8
415.275	4.84
415.481	4.8
415.687	4.96
415.893	4.83
416.099	4.67
416.305	4.8
416.511	4.79
416.716	4.72
416.922	4.64
417.128	4.71
417.334	4.76
417.539	4.74
417.745	4.69
417.951	4.63
418.157	4.61
418.362	4.64
418.568	4.62
418.774	4.63
418.979	4.65
419.185	4.68
419.391	4.58
419.596	4.57
419.802	4.68
420.008	4.63
420.213	4.69
420.419	4.68
420.624	4.62
420.83	4.67
421.035	4.65
421.241	4.62
421.446	4.55
421.652	4.61
421.857	4.58
422.063	4.49
422.268	4.56
422.474	4.54
422.679	4.53
422.885	4.6
423.09	4.51
423.295	4.59
423.501	4.65
423.706	4.65
423.911	4.65
424.117	4.67
424.322	4.7
424.527	4.65
424.733	4.6
424.938	4.57
425.143	4.58
425.349	4.48
425.554	4.36
425.759	4.24
425.964	4.27
426.169	4.23
426.375	4.2
426.58	4.14
426.785	4.09
426.99	4.08
427.195	4.22
427.4	4.19
427.605	4.36
427.811	4.43
428.016	4.54
428.221	4.54
428.426	4.45
428.631	4.51
428.836	4.56
429.041	4.63
429.246	4.53
429.451	4.48
429.656	4.53
429.861	4.5
430.066	4.52
430.271	4.38
430.476	4.32
430.681	4.34
430.886	4.29
431.09	4.32
431.295	4.44
431.5	4.57
431.705	4.47
431.91	4.41
432.115	4.41
432.32	4.42
432.524	4.46
432.729	4.56
432.934	4.53
433.139	4.45
433.343	4.42
433.548	4.3
433.753	4.3
433.958	4.32
434.162	4.29
434.367	4.26
434.572	4.18
434.776	4.19
434.981	4.14
435.186	4.22
435.39	4.29
435.595	4.3
435.799	4.34
436.004	4.24
436.209	4.16
436.413	4.22
436.618	4.28
436.822	4.25
437.027	4.24
437.231	4.16
437.436	4.16
437.64	4.2
437.845	4.24
438.049	4.24
438.253	4.29
438.458	4.39
438.662	4.28
438.867	4.31
439.071	4.3
439.275	4.32
439.48	4.34
439.684	4.38
439.888	4.32
440.093	4.21
440.297	4.21
440.501	4.16
440.706	4.1
440.91	4.19
441.114	4.14
441.318	4.25
441.523	4.23
441.727	4.3
441.931	4.18
442.135	4.19
442.339	4.25
442.543	4.25
442.748	4.29
442.952	4.32
443.156	4.24
443.36	4.26
443.564	4.15
443.768	4.18
443.972	4.08
444.176	4.16
444.38	4.19
444.584	4.26
444.788	4.29
444.992	4.33
445.196	4.26
445.4	4.36
445.604	4.31
445.808	4.38
446.012	4.27
446.216	4.41
446.42	4.36
446.624	4.3
446.828	4.22
447.032	4.11
447.235	4.08
447.439	4.08
447.643	4.01
447.847	4.08
448.051	3.98
448.254	4.1
448.458	3.95
448.662	4
448.866	4.05
449.069	4.12
449.273	4.17
449.477	4.2
449.681	4.23
449.884	4.27
450.088	4.29
450.292	4.36
450.495	4.44
450.699	4.48
450.902	4.52
451.106	4.42
451.31	4.48
451.513	4.51
451.717	4.41
451.92	4.41
452.124	4.41
452.327	4.27
452.531	4.32
452.734	4.16
452.938	4.17
453.141	4.08
453.345	4.15
453.548	3.99
453.752	3.89
453.955	3.99
454.158	4.03
454.362	4.01
454.565	4.02
454.769	3.91
454.972	3.95
455.175	4.06
455.379	4.11
455.582	4.14
455.785	4.2
455.988	4.3
456.192	4.29
456.395	4.24
456.598	4.32
456.801	4.43
457.005	4.56
457.208	4.53
457.411	4.43
457.614	4.31
457.817	4.18
458.021	4.17
458.224	4.21
458.427	4.25
458.63	4.18
458.833	4.13
459.036	3.98
459.239	3.93
459.442	3.91
459.645	3.94
459.848	4
460.051	4.08
460.254	4.06
460.457	4.02
460.66	3.96
460.863	4
461.066	3.98
461.269	4.12
461.472	4.14
461.675	4.25
461.878	4.23
462.081	4.23
462.284	4.28
462.486	4.26
462.689	4.35
462.892	4.35
463.095	4.38
463.298	4.43
463.5	4.37
463.703	4.4
463.906	4.32
464.109	4.34
464.311	4.29
464.514	4.21
464.717	4.21
464.92	4.14
465.122	4.1
465.325	4.11
465.528	4.07
465.73	3.98
465.933	3.92
466.135	3.88
466.338	3.87
466.541	3.97
466.743	3.92
466.946	4.02
467.148	4.02
467.351	3.98
467.553	4.05
467.756	4.03
467.958	4.05
468.161	4.07
468.363	4.12
468.566	4.06
468.768	3.98
468.971	4.04
469.173	4
469.375	4.06
469.578	4.24
469.78	4.16
469.983	4.23
470.185	4.31
470.387	4.32
470.59	4.32
470.792	4.36
470.994	4.45
471.196	4.42
471.399	4.43
471.601	4.42
471.803	4.32
472.005	4.37
472.208	4.33
472.41	4.38
472.612	4.31
472.814	4.3
473.016	4.3
473.218	4.28
473.421	4.32
473.623	4.29
473.825	4.22
474.027	4.31
474.229	4.27
474.431	4.28
474.633	4.28
474.835	4.37
475.037	4.35
475.239	4.51
475.441	4.47
475.643	4.49
475.845	4.51
476.047	4.5
476.249	4.43
476.451	4.5
476.653	4.46
476.855	4.38
477.057	4.34
477.258	4.37
477.46	4.22
477.662	4.23
477.864	4.19
478.066	4.12
478.268	4.19
478.469	4.24
478.671	4.11
478.873	4.17
479.075	4.15
479.276	4.16
479.478	4.19
479.68	4.24
479.882	4.28
480.083	4.27
480.285	4.34
480.487	4.37
480.688	4.29
480.89	4.41
481.091	4.36
481.293	4.44
481.495	4.42
481.696	4.38
481.898	4.42
482.099	4.35
482.301	4.38
482.502	4.37
482.704	4.32
482.905	4.33
483.107	4.31
483.308	4.31
483.51	4.26
483.711	4.27
483.913	4.26
484.114	4.22
484.315	4.21
484.517	4.22
484.718	4.18
484.92	4.17
485.121	4.13
485.322	4.14
485.524	4.16
485.725	4.16
485.926	4.14
486.127	4.13
486.329	4.14
486.53	4.15
486.731	4.14
486.932	4.16
487.134	4.17
487.335	4.23
487.536	4.19
487.737	4.14
487.938	4.16
488.139	4.16
488.341	4.17
488.542	4.16
488.743	4.15
488.944	4.15
489.145	4.15
489.346	4.15
489.547	4.12
489.748	4.15
489.949	4.16
490.15	4.13
490.351	4.14
490.552	4.18
490.753	4.2
490.954	4.2
491.155	4.18
491.356	4.15
491.557	4.15
491.758	4.13
491.959	4.08
492.159	4.1
492.36	4.14
492.561	4.14
492.762	4.1
492.963	4.09
493.164	4.11
493.364	4.12
493.565	4.13
493.766	4.14
493.967	4.19
494.167	4.2
494.368	4.23
494.569	4.23
494.769	4.25
494.97	4.36
495.171	4.39
495.371	4.33
495.572	4.34
495.773	4.41
495.973	4.41
496.174	4.36
496.375	4.38
496.575	4.43
496.776	4.39
496.976	4.39
497.177	4.27
497.377	4.25
497.578	4.32
497.778	4.39
497.979	4.37
498.179	4.37
498.38	4.43
498.58	4.47
498.78	4.4
498.981	4.52
499.181	4.45
499.382	4.49
499.582	4.52
499.782	4.5
499.983	4.39
500.183	4.44
500.383	4.38
500.584	4.31
500.784	4.27
500.984	4.28
501.184	4.19
501.385	4.3
501.585	4.38
501.785	4.38
501.985	4.45
502.185	4.53
502.386	4.66
502.586	4.69
502.786	4.71
502.986	4.78
503.186	4.81
503.386	4.77
503.586	4.73
503.786	4.71
503.987	4.74
504.187	4.68
504.387	4.64
504.587	4.53
504.787	4.56
504.987	4.6
505.187	4.65
505.387	4.66
505.587	4.72
505.786	4.75
505.986	4.77
506.186	4.75
506.386	4.75
506.586	4.89
506.786	4.97
506.986	5.06
507.186	5.06
507.386	5.1
507.585	5.08
507.785	5.09
507.985	5.16
508.185	5.2
508.384	5.24
508.584	5.27
508.784	5.18
508.984	5.17
509.183	5.11
509.383	5.22
509.583	5.24
509.782	5.25
509.982	5.35
510.182	5.3
510.381	5.38
510.581	5.41
510.781	5.4
510.98	5.42
511.18	5.4
511.379	5.52
511.579	5.5
511.778	5.47
511.978	5.51
512.177	5.4
512.377	5.49
512.576	5.46
512.776	5.44
512.975	5.48
513.175	5.59
513.374	5.56
513.573	5.58
513.773	5.57
513.972	5.65
514.172	5.7
514.371	5.83
514.57	5.8
514.77	5.76
514.969	5.75
515.168	5.85
515.367	5.85
515.567	6.03
515.766	5.95
515.965	5.98
516.164	5.99
516.364	5.99
516.563	5.95
516.762	5.99
516.961	6.01
517.16	6.1
517.359	6.16
517.559	6.2
517.758	6.17
517.957	6.24
518.156	6.26
518.355	6.22
518.554	6.26
518.753	6.32
518.952	6.36
519.151	6.41
519.35	6.41
519.549	6.39
519.748	6.39
519.947	6.43
520.146	6.5
520.345	6.49
520.544	6.6
520.743	6.62
520.942	6.68
521.141	6.74
521.339	6.79
521.538	6.78
521.737	6.87
521.936	6.88
522.135	6.88
522.333	6.87
522.532	6.93
522.731	6.91
522.93	6.96
523.129	6.92
523.327	6.92
523.526	6.91
523.725	6.98
523.923	7.02
524.122	7.07
524.321	7.14
524.519	7.17
524.718	7.25
524.917	7.32
525.115	7.32
525.314	7.34
525.512	7.39
525.711	7.44
525.909	7.45
526.108	7.49
526.306	7.5
526.505	7.55
526.703	7.56
526.902	7.58
527.1	7.57
527.299	7.64
527.497	7.68
527.696	7.66
527.894	7.64
528.092	7.63
528.291	7.62
528.489	7.61
528.688	7.58
528.886	7.6
529.084	7.58
529.283	7.6
529.481	7.54
529.679	7.55
529.877	7.57
530.076	7.59
530.274	7.64
530.472	7.65
530.67	7.68
530.869	7.77
531.067	7.8
531.265	7.85
531.463	7.9
531.661	8.02
531.859	8.09
532.057	8.1
532.255	8.15
532.454	8.23
532.652	8.25
532.85	8.27
533.048	8.27
533.246	8.28
533.444	8.3
533.642	8.33
533.84	8.31
534.038	8.31
534.236	8.33
534.434	8.35
534.632	8.35
534.83	8.38
535.027	8.44
535.225	8.47
535.423	8.55
535.621	8.59
535.819	8.65
536.017	8.68
536.215	8.69
536.412	8.77
536.61	8.84
536.808	8.84
537.006	8.89
537.203	8.93
537.401	8.95
537.599	9
537.797	8.99
537.994	8.99
538.192	9.12
538.39	9.18
538.587	9.21
538.785	9.25
538.983	9.43
539.18	9.55
539.378	9.71
539.575	9.87
539.773	9.9
539.97	10.01
540.168	10.14
540.366	10.2
540.563	10.27
540.761	10.34
540.958	10.43
541.155	10.41
541.353	10.44
541.55	10.43
541.748	10.43
541.945	10.48
542.143	10.52
542.34	10.49
542.537	10.53
542.735	10.55
542.932	10.62
543.129	10.64
543.327	10.71
543.524	10.75
543.721	10.86
543.919	10.97
544.116	11.1
544.313	11.32
544.51	11.49
544.708	11.61
544.905	11.81
545.102	11.94
545.299	12.07
545.496	12.22
545.693	12.42
545.891	12.46
546.088	12.48
546.285	12.47
546.482	12.44
546.679	12.43
546.876	12.4
547.073	12.32
547.27	12.28
547.467	12.23
547.664	12.24
547.861	12.13
548.058	12.1
548.255	12.11
548.452	12.17
548.649	12.16
548.846	12.14
549.043	12.17
549.24	12.22
549.437	12.31
549.633	12.37
549.83	12.3
550.027	12.41
550.224	12.62
550.421	12.66
550.618	12.68
550.814	12.69
551.011	12.82
551.208	12.9
551.405	12.82
551.601	12.88
551.798	12.92
551.995	12.98
552.191	13.01
552.388	12.83
552.585	12.9
552.781	12.9
552.978	12.91
553.175	12.91
553.371	12.88
553.568	12.96
553.764	12.98
553.961	13
554.157	13.06
554.354	13.07
554.55	13.28
554.747	13.43
554.943	13.48
555.14	13.57
555.336	13.65
555.533	13.79
555.729	13.92
555.926	13.93
556.122	14.03
556.318	14
556.515	14.1
556.711	14.01
556.907	13.71
557.104	13.77
557.3	13.85
557.496	13.93
557.693	13.92
557.889	14.07
558.085	14.09
558.281	14.07
558.478	14.25
558.674	14.25
558.87	14.36
559.066	14.62
559.262	14.75
559.459	14.78
559.655	14.68
559.851	14.79
560.047	14.83
560.243	14.89
560.439	15.01
560.635	15.07
560.831	15.24
561.027	15.31
561.223	15.47
561.419	15.57
561.615	15.61
561.811	15.85
562.007	15.83
562.203	15.9
562.399	16.02
562.595	16.13
562.791	16.17
562.987	16.15
563.183	16.36
563.379	16.51
563.575	16.45
563.771	16.57
563.966	16.58
564.162	16.76
564.358	16.8
564.554	16.76
564.75	16.74
564.945	16.83
565.141	16.84
565.337	16.72
565.533	16.74
565.728	16.87
565.924	16.9
566.12	16.98
566.315	17.03
566.511	17.13
566.707	17.21
566.902	17.3
567.098	17.3
567.293	17.39
567.489	17.61
567.684	17.52
567.88	17.6
568.076	17.65
568.271	17.8
568.467	17.74
568.662	17.78
568.858	17.8
569.053	17.78
569.248	17.91
569.444	18.02
569.639	17.95
569.835	18.16
570.03	18.19
570.225	18.23
570.421	18.15
570.616	18.13
570.812	18.21
571.007	18.33
571.202	18.46
571.397	18.46
571.593	18.4
571.788	18.54
571.983	18.45
572.178	18.51
572.374	18.6
572.569	18.7
572.764	18.95
572.959	18.89
573.154	18.91
573.35	18.99
573.545	19.18
573.74	19.33
573.935	19.33
574.13	19.36
574.325	19.36
574.52	19.37
574.715	19.4
574.91	19.42
575.105	19.56
575.3	19.75
575.495	19.8
575.69	19.8
575.885	20
576.08	20.18
576.275	20.43
576.47	20.7
576.665	20.96
576.86	21.06
577.055	21.2
577.25	21.35
577.444	21.49
577.639	21.66
577.834	21.83
578.029	21.89
578.224	21.92
578.418	22.01
578.613	22.07
578.808	21.9
579.003	22.12
579.197	22.15
579.392	22.19
579.587	22.12
579.781	22.18
579.976	22.15
580.171	22.19
580.365	22.18
580.56	22.31
580.755	22.3
580.949	22.41
581.144	22.41
581.338	22.66
581.533	22.65
581.727	22.82
581.922	22.75
582.116	22.83
582.311	22.72
582.505	22.83
582.7	22.78
582.894	22.87
583.089	22.94
583.283	23.11
583.478	23.14
583.672	23.3
583.866	23.09
584.061	23.25
584.255	23.24
584.449	23.39
584.644	23.54
584.838	23.74
585.032	23.79
585.226	24.12
585.421	24.09
585.615	24.1
585.809	24.16
586.003	24.47
586.198	24.46
586.392	24.58
586.586	24.71
586.78	24.66
586.974	24.6
587.168	24.55
587.363	24.32
587.557	24.35
587.751	24.11
587.945	24.1
588.139	24.13
588.333	24.1
588.527	24.04
588.721	23.97
588.915	23.88
589.109	23.62
589.303	23.66
589.497	23.68
589.691	23.69
589.885	23.83
590.079	23.87
590.273	23.71
590.466	23.8
590.66	23.96
590.854	23.9
591.048	24.1
591.242	24.35
591.436	24.4
591.629	24.57
591.823	24.56
592.017	24.68
592.211	24.62
592.404	24.88
592.598	24.9
592.792	24.77
592.986	24.92
593.179	24.8
593.373	24.84
593.567	24.85
593.76	24.8
593.954	24.76
594.147	24.71
594.341	24.73
594.535	24.57
594.728	24.57
594.922	24.64
595.115	24.45
595.309	24.36
595.502	24.24
595.696	24.1
595.889	24.01
596.083	23.99
596.276	23.87
596.47	23.88
596.663	23.76
596.856	23.63
597.05	23.62
597.243	23.74
597.437	23.9
597.63	23.95
597.823	24.11
598.017	24.19
598.21	24.26
598.403	24.4
598.596	24.4
598.79	24.68
598.983	24.9
599.176	24.94
599.369	24.97
599.563	24.97
599.756	25.08
599.949	24.99
600.142	24.93
600.335	24.96
600.528	24.95
600.722	24.91
600.915	24.78
601.108	24.73
601.301	24.76
601.494	24.65
601.687	24.61
601.88	24.49
602.073	24.49
602.266	24.5
602.459	24.48
602.652	24.33
602.845	24.32
603.038	24.3
603.231	24.11
603.424	23.9
603.617	23.94
603.809	23.84
604.002	23.87
604.195	23.87
604.388	23.83
604.581	23.76
604.774	23.89
604.966	23.94
605.159	24.09
605.352	24.33
605.545	24.59
605.737	24.73
605.93	24.94
606.123	25.08
606.316	25.08
606.508	25.27
606.701	25.49
606.894	25.7
607.086	25.89
607.279	25.97
607.471	26.12
607.664	26.29
607.857	26.65
608.049	27.06
608.242	27.53
608.434	28.43
608.627	29.44
608.819	30.52
609.012	31.74
609.204	33.18
609.397	34.76
609.589	36.36
609.782	38.2
609.974	39.99
610.166	41.85
610.359	43.66
610.551	45.28
610.743	46.54
610.936	47.92
611.128	48.78
611.32	49.3
611.513	49.44
611.705	49.55
611.897	49.26
612.09	48.72
612.282	48.18
612.474	47.47
612.666	46.39
612.858	45.61
613.051	44.3
613.243	43.26
613.435	42.33
613.627	41.51
613.819	40.74
614.011	39.88
614.203	39.19
614.395	38.27
614.588	37.37
614.78	36.67
614.972	35.85
615.164	35.22
615.356	34.69
615.548	33.97
615.74	33.35
615.932	32.67
616.124	31.98
616.315	31.53
616.507	31.09
616.699	30.68
616.891	30.24
617.083	29.83
617.275	29.78
617.467	29.54
617.659	29.45
617.85	29.23
618.042	29.02
618.234	29.11
618.426	29.03
618.618	28.73
618.809	28.81
619.001	28.87
619.193	28.86
619.384	28.5
619.576	28.32
619.768	28.29
619.959	28.4
620.151	28.25
620.343	28.26
620.534	28.06
620.726	28.04
620.917	28
621.109	28.3
621.301	28.41
621.492	28.4
621.684	28.32
621.875	28.28
622.067	28.19
622.258	28.56
622.45	28.63
622.641	28.59
622.832	28.95
623.024	28.8
623.215	28.61
623.407	28.55
623.598	28.68
623.789	28.83
623.981	28.96
624.172	29.02
624.363	28.98
624.555	28.77
624.746	28.74
624.937	28.48
625.129	28.51
625.32	28.3
625.511	28.23
625.702	28.22
625.893	28.23
626.085	28.01
626.276	27.89
626.467	27.77
626.658	27.85
626.849	27.74
627.04	27.78
627.231	27.75
627.422	27.77
627.614	27.73
627.805	27.72
627.996	27.66
628.187	28.07
628.378	28.3
628.569	28.42
628.76	28.61
628.951	29.02
629.142	29.25
629.332	29.51
629.523	29.85
629.714	30.07
629.905	30.27
630.096	30.65
630.287	30.57
630.478	30.62
630.669	30.76
630.859	30.64
631.05	30.57
631.241	30.59
631.432	30.53
631.623	30.29
631.813	30
632.004	29.76
632.195	29.4
632.385	29.1
632.576	28.82
632.767	28.48
632.957	28.25
633.148	28.01
633.339	27.73
633.529	27.52
633.72	27.34
633.91	27.21
634.101	27.07
634.292	26.85
634.482	26.84
634.673	26.76
634.863	26.73
635.054	26.81
635.244	26.76
635.435	26.71
635.625	26.55
635.815	26.7
636.006	26.8
636.196	26.78
636.387	26.78
636.577	26.74
636.767	26.63
636.958	26.59
637.148	26.59
637.338	26.54
637.529	26.46
637.719	26.63
637.909	26.61
638.099	26.65
638.29	26.66
638.48	26.66
638.67	26.65
638.86	26.88
639.05	26.91
639.241	26.94
639.431	27.23
639.621	27.13
639.811	27.05
640.001	27.03
640.191	27.12
640.381	27.29
640.571	27.51
640.761	27.43
640.951	27.25
641.141	27.68
641.331	27.8
641.521	27.62
641.711	27.95
641.901	27.92
642.091	28.02
642.281	27.98
642.471	27.75
642.661	27.61
642.851	27.67
643.041	27.86
643.231	27.51
643.42	27.29
643.61	27.02
643.8	26.94
643.99	26.97
644.18	26.87
644.369	27.05
644.559	27.13
644.749	27.19
644.939	27.23
645.128	27.29
645.318	27.25
645.508	27.32
645.697	27.52
645.887	27.4
646.076	27.44
646.266	27.26
646.456	27.04
646.645	27.16
646.835	27.28
647.024	27.36
647.214	27.25
647.403	27.38
647.593	27.53
647.782	27.56
647.972	27.7
648.161	27.72
648.351	27.94
648.54	28.12
648.73	28.26
648.919	28.34
649.108	28.24
649.298	28.57
649.487	28.65
649.677	28.41
649.866	28.33
650.055	28.29
650.244	28.3
650.434	28.28
650.623	28.17
650.812	27.94
651.002	27.69
651.191	27.92
651.38	27.55
651.569	27.37
651.758	27.46
651.947	27.44
652.137	27.45
652.326	27.43
652.515	27.24
652.704	27.33
652.893	27.57
653.082	27.65
653.271	27.62
653.46	27.59
653.649	27.77
653.838	27.96
654.027	28.18
654.216	28.07
654.405	28.01
654.594	28.16
654.783	28.01
654.972	27.68
655.161	27.65
655.35	27.41
655.539	27.63
655.728	27.33
655.916	27.26
656.105	26.87
656.294	26.98
656.483	27.17
656.672	26.99
656.86	26.84
657.049	26.93
657.238	26.9
657.427	26.93
657.615	26.84
657.804	26.97
657.993	26.69
658.181	26.81
658.37	26.55
658.559	26.26
658.747	26.25
658.936	26.4
659.125	26.54
659.313	26.68
659.502	26.62
659.69	26.57
659.879	26.68
660.067	26.89
660.256	26.94
660.444	27.11
660.633	27.4
660.821	27.56
661.01	27.66
661.198	27.68
661.387	27.63
661.575	27.86
661.763	28.02
661.952	28.06
662.14	28.14
662.328	28.25
662.517	28.45
662.705	28.26
662.893	28.34
663.082	28.31
663.27	28.27
663.458	28.34
663.646	28.45
663.834	28.58
664.023	28.47
664.211	28.37
664.399	28.3
664.587	28.13
664.775	28.35
664.963	28.46
665.152	28.49
665.34	28.52
665.528	28.14
665.716	28.22
665.904	28.29
666.092	28.09
666.28	28
666.468	27.99
666.656	28.17
666.844	28.15
667.032	28.14
667.22	28.31
667.408	28.27
667.596	28.53
667.784	28.22
667.971	28.09
668.159	28.17
668.347	28.16
668.535	28.11
668.723	28.13
668.911	28.14
669.098	28.12
669.286	27.85
669.474	27.99
669.662	28.21
669.849	28.37
670.037	28.3
670.225	28.29
670.413	28.36
670.6	28.74
670.788	28.76
670.976	28.58
671.163	28.57
671.351	28.71
671.538	28.71
671.726	28.6
671.913	28.65
672.101	28.96
672.289	29.01
672.476	29.06
672.664	28.86
672.851	28.91
673.039	28.9
673.226	28.78
673.413	28.75
673.601	28.67
673.788	28.52
673.976	28.51
674.163	28.41
674.35	28.61
674.538	28.55
674.725	28.62
674.912	28.23
675.1	28.4
675.287	28.5
675.474	28.43
675.662	28.43
675.849	28.54
676.036	28.48
676.223	28.18
676.411	27.98
676.598	27.94
676.785	27.87
676.972	28.18
677.159	28.11
677.346	28.16
677.533	28.36
677.721	28.47
677.908	28.33
678.095	28.17
678.282	28.16
678.469	27.85
678.656	27.91
678.843	27.99
679.03	27.92
679.217	28
679.404	28
679.591	27.81
679.778	27.51
679.964	27.52
680.151	27.56
680.338	27.59
680.525	27.81
680.712	27.83
680.899	27.98
681.086	28.05
681.272	27.85
681.459	27.82
681.646	27.62
681.833	27.67
682.02	27.82
682.206	27.93
682.393	27.92
682.58	28.07
682.766	28.02
682.953	27.93
683.14	28.1
683.326	28.53
683.513	28.78
683.7	29.29
683.886	29.64
684.073	29.78
684.259	29.71
684.446	29.79
684.632	30.04
684.819	30.05
685.005	30.4
685.192	30.41
685.378	30.26
685.565	30.31
685.751	30.18
685.938	30.11
686.124	30.22
686.31	30.08
686.497	30.54
686.683	30.44
686.87	30.56
687.056	30.08
687.242	29.65
687.429	29.85
687.615	29.76
687.801	29.86
687.987	29.81
688.174	29.59
688.36	29.85
688.546	29.23
688.732	29.24
688.918	29.41
689.105	29.45
689.291	29.58
689.477	29.47
689.663	29.24
689.849	29.02
690.035	29.34
690.221	29.72
690.407	29.77
690.593	30
690.779	29.96
690.965	29.8
691.151	29.83
691.337	30.02
691.523	29.93
691.709	30.39
691.895	30.69
692.081	30.37
692.267	29.95
692.453	30.21
692.639	30.23
692.825	30.56
693.011	30.88
693.196	31.04
693.382	30.91
693.568	31.1
693.754	30.89
693.94	30.93
694.125	31.03
694.311	30.84
694.497	30.4
694.682	30.51
694.868	30.24
695.054	30.03
695.239	29.85
695.425	30.05
695.611	29.84
695.796	29.56
695.982	29.22
696.168	28.98
696.353	29.16
696.539	29.14
696.724	29.04
696.91	28.61
697.095	28.33
697.281	28.23
697.466	28.28
697.652	28.19
697.837	28.22
698.023	28.03
698.208	28.01
698.393	27.9
698.579	27.83
698.764	27.81
698.949	27.99
699.135	28.05
699.32	28.04
699.505	27.86
699.691	27.93
699.876	27.84
700.061	28.09
700.246	28.03
700.432	28.25
700.617	28.19
700.802	28.29
700.987	28.7
701.172	28.79
701.358	29.27
701.543	29.32
701.728	29.38
701.913	29.71
702.098	29.91
702.283	30.32
702.468	30.06
702.653	31
702.838	31.45
703.023	31.26
703.208	31.58
703.393	31.66
703.578	31.97
703.763	32.17
703.948	32.42
704.133	32.89
704.318	33.22
704.503	34.11
704.688	34.1
704.873	34.49
705.057	35.31
705.242	35.85
705.427	36.42
705.612	36.64
705.797	37.58
705.981	38.02
706.166	38.51
706.351	38.82
706.536	39.36
706.72	39.3
706.905	39.51
707.09	39.68
707.274	39.71
707.459	39.36
707.644	40.03
707.828	39.73
708.013	39.74
708.197	39.63
708.382	39.78
708.567	39.36
708.751	39.26
708.936	38.77
709.12	38.49
709.305	38.25
709.489	38.51
709.673	38.22
709.858	38.19
710.042	38.16
710.227	37.96
710.411	37.79
710.596	37.44
710.78	37.75
710.964	37.63
711.149	37.54
711.333	37.63
711.517	37.16
711.702	37.1
711.886	36.9
712.07	36.73
712.254	36.58
712.438	36.34
712.623	36.12
712.807	35.6
712.991	35.7
713.175	35.53
713.359	35.16
713.544	34.91
713.728	34.54
713.912	34.18
714.096	33.83
714.28	33.62
714.464	33.41
714.648	33
714.832	33.08
715.016	32.36
715.2	31.56
715.384	31.51
715.568	31.46
715.752	31.31
715.936	31.2
716.12	30.9
716.304	30.13
716.488	30.01
716.671	30.48
716.855	30.19
717.039	30.41
717.223	30.71
717.407	30.59
717.59	30.24
717.774	30.01
717.958	29.82
718.142	29.84
718.325	30.88
718.509	30.73
718.693	30.27
718.877	30.12
719.06	30.25
719.244	30.17
719.428	30.26
719.611	30.61
719.795	30.75
719.978	30.6
720.162	30.55
720.345	30.13
720.529	30.22
720.713	30.55
720.896	30.73
721.08	30.44
721.263	30.48
721.446	29.82
721.63	29.71
721.813	29.63
721.997	30.22
722.18	30.09
722.364	30.46
722.547	30.41
722.73	30.4
722.914	30.49
723.097	30.62
723.28	30.68
723.464	31.14
723.647	31.34
723.83	31.29
724.013	31.54
724.197	31.95
724.38	31.94
724.563	32.01
724.746	31.89
724.929	31.35
725.112	31.7
725.296	31.72
725.479	31.61
725.662	31.57
725.845	31.76
726.028	31.23
726.211	31.07
726.394	30.3
726.577	30.43
726.76	30.29
726.943	30.78
727.126	30.28
727.309	30.66
727.492	30.69
727.675	30.65
727.858	30.76
728.041	30.79
728.224	31.04
728.407	31.08
728.589	31.31
728.772	31.52
728.955	31.51
729.138	31.17
729.321	30.54
729.503	30.37
729.686	30.21
729.869	29.78
730.052	29.94
730.234	29.55
730.417	29.92
730.6	29.25
730.782	29.29
730.965	29
731.148	29.65
731.33	29.91
731.513	30.21
731.695	30.4
731.878	30.67
732.061	30.47
732.243	31.09
732.426	31.11
732.608	31.49
732.791	31.65
732.973	31.9
733.156	32.15
733.338	32.11
733.52	32.38
733.703	32.49
733.885	32.81
734.068	32.66
734.25	32.37
734.432	32.48
734.615	32.76
734.797	33.16
734.979	33.22
735.162	32.66
735.344	32.7
735.526	32.91
735.708	32.81
735.891	32.7
736.073	33.4
736.255	33.66
736.437	33.61
736.619	33.06
736.802	32.76
736.984	33.03
737.166	33.41
737.348	34
737.53	32.94
737.712	32.99
737.894	32.81
738.076	32.54
738.258	32.46
738.44	32.61
738.622	33.14
738.804	32.84
738.986	32.18
739.168	32.48
739.35	31.9
739.532	32.78
739.714	32.51
739.896	32.7
740.078	32.58
740.259	32.11
740.441	32.52
740.623	32.27
740.805	32.5
740.987	33.19
741.168	32.99
741.35	33.7
741.532	33.92
741.714	35.12
741.895	35.21
742.077	35.76
742.259	36.31
742.44	35.62
742.622	36.02
742.804	35.63
742.985	35.77
743.167	36
743.348	35.58
743.53	34.91
743.711	34.29
743.893	34.75
744.075	34.64
744.256	34.99
744.438	35.41
744.619	34.98
744.8	36.25
744.982	36.27
745.163	36.08
745.345	36.57
745.526	36.72
745.707	37.19
745.889	36.94
746.07	37.01
746.252	36.49
746.433	36.61
746.614	37.15
746.795	36.35
746.977	36.11
747.158	36.17
747.339	36.18
747.52	36.27
747.702	36.11
747.883	36.57
748.064	36.28
748.245	36.54
748.426	35.98
748.607	36.25
748.788	36.36
748.97	36.49
749.151	36.38
749.332	36.34
749.513	36.61
749.694	36.32
749.875	35.79
750.056	36.07
750.237	36.64
750.418	37.27
750.599	36.93
750.78	36.71
750.96	36.47
751.141	37.12
751.322	36.84
751.503	37.08
751.684	36.27
751.865	36.58
752.046	35.74
752.226	35
752.407	34.22
752.588	34.17
752.769	34.74
752.949	35.15
753.13	34.72
753.311	34.79
753.492	34.58
753.672	35.52
753.853	34.63
754.034	35.91
754.214	36.4
754.395	37.38
754.575	36.72
754.756	36.01
754.937	35.73
755.117	35.89
755.298	35.5
755.478	35.29
755.659	35.17
755.839	35.84
756.02	35.2
756.2	35.36
756.381	34.84
756.561	35.39
756.741	35.9
756.922	35.77
757.102	35.35
757.283	36.02
757.463	35.33
757.643	35.35
757.823	35.02
758.004	34.23
758.184	33.49
758.364	32.62
758.545	32.66
758.725	31.67
758.905	31.27
759.085	30.28
759.265	29.07
759.446	29.18
759.626	28.56
759.806	28.1
759.986	28.12
760.166	28.15
760.346	28.39
760.526	27.95
760.706	28.28
760.886	28.68
761.066	29.22
761.246	28.84
761.426	28.9
761.606	29.01
761.786	28.37
761.966	28.55
762.146	28.13
762.326	27.86
762.506	27.89
762.686	27.53
762.866	27.65
763.046	27.47
763.225	28.09
763.405	27.72
763.585	27.68
763.765	27.92
763.945	28.18
764.124	28.7
764.304	28.69
764.484	28.77
764.664	29.18
764.843	29.12
765.023	29.72
765.203	30.07
765.382	30.77
765.562	31.31
765.741	32.08
765.921	32.21
766.101	32.11
766.28	33.06
766.46	33.67
766.639	34.22
766.819	34.63
766.998	34.21
767.178	33.89
767.357	34.08
767.537	34.16
767.716	34.14
767.896	34.62
768.075	35.09
768.254	35.29
768.434	35.96
768.613	35.58
768.792	34.6
768.972	35.63
769.151	35.83
769.33	36.34
769.51	36.82
769.689	37.46
769.868	37.25
770.047	36.85
770.226	36.86
770.406	35.98
770.585	36.19
770.764	37.54
770.943	36.87
771.122	37.34
771.301	37.37
771.48	37.2
771.66	36.75
771.839	37.42
772.018	38
772.197	38.32
772.376	38.35
772.555	38.6
772.734	38.21
772.913	38.68
773.092	38.8
773.271	38
773.449	37.97
773.628	38.44
773.807	38.48
773.986	38.6
774.165	38.59
774.344	38.77
774.523	38.78
774.701	38.26
774.88	38.4
775.059	38
775.238	39.19
775.417	38.9
775.595	38.89
775.774	38.8
775.953	37.83
776.131	37.35
776.31	37.35
776.489	37.36
776.667	38.67
776.846	38.89
777.025	39.6
777.203	40
777.382	40.9
777.56	40.75
777.739	40.48
777.917	41.24
778.096	40.76
778.274	40.69
778.453	40.79
778.631	40.46
778.81	40.51
778.988	40.67
779.166	40.25
779.345	39.39
779.523	39.28
779.702	39.18
779.88	39.58
780.058	40.81
780.237	40.42
780.415	41.09
780.593	40.73
780.771	40.23
780.95	40.28
781.128	39.53
781.306	40.07
781.484	40.85
781.662	40.66
781.841	39.99
782.019	39.48
782.197	40.17
782.375	38.87
782.553	39.94
782.731	40
782.909	39.47
783.087	40.02
783.265	40.49
783.443	39.46
783.621	40.11
783.799	40.54
783.977	40.67
784.155	40.62
784.333	41.72
784.511	40.46
784.689	40.36
784.867	40.08
785.045	39.77
785.223	38.68
785.4	38.42
785.578	38.3
785.756	37.78
785.934	37.19
786.112	36.19
786.289	36.46
786.467	36.91
786.645	36.9
786.823	35.88
787	35.14
787.178	34.91
787.356	35.03
787.533	34.67
787.711	34.75
787.889	35.19
788.066	35.25
788.244	34.58
788.421	33.96
788.599	33.78
788.776	34.44
788.954	35.31
789.131	35.71
789.309	36.15
789.486	35
789.664	36.1
789.841	36.25
790.019	37.14
790.196	36.39
790.373	37.05
790.551	37.35
790.728	38.33
790.906	37.48
791.083	38.05
791.26	38.21
791.437	38.91
791.615	37.74
791.792	36.95
791.969	36.83
792.146	37.27
792.324	37.53
792.501	37.78
792.678	37.23
792.855	38.59
793.032	38.32
793.209	37.86
793.387	38.88
793.564	38.95
793.741	40.29
793.918	40.11
794.095	40.58
794.272	41.37
794.449	40.42
794.626	40.57
794.803	40.2
794.98	39.31
795.157	39.31
795.334	38.53
795.511	37.56
795.688	37.22
795.864	37.44
796.041	38.15
796.218	36.37
796.395	36.61
796.572	36.37
796.749	35.67
796.925	35.13
797.102	33.53
797.279	32.73
797.456	33.6
797.632	33.32
797.809	32.29
797.986	31.89
798.162	32.76
798.339	32.66
798.516	32.35
798.692	32.96
798.869	34.51
799.046	35.59
799.222	36.22
799.399	36.72
799.575	36.53
799.752	37.62
799.928	38.12
800.105	37.28
800.281	38.29
800.458	38.5
800.634	38.96
800.811	37.07
800.987	38.57
801.163	38.53
801.34	37.8
801.516	37.31
801.692	37.19
801.869	36.07
802.045	36.44
802.221	35.06
802.398	34.23
802.574	33.88
802.75	36.42
802.926	35.13
803.103	36.81
803.279	37.83
803.455	38.33
803.631	37.52
803.807	37.88
803.983	39.5
804.16	39.97
804.336	39.69
804.512	39
804.688	38.01
804.864	37.91
805.04	37.02
805.216	35.65
805.392	35.99
805.568	36.02
805.744	35.96
805.92	34.11
806.096	34.56
806.272	36.37
806.448	36.87
806.623	37.16
806.799	37.92
806.975	37.89
807.151	38.1
807.327	37.72
807.503	38.14
807.678	38.87
807.854	39.21
808.03	39.62
808.206	38.08
808.381	39.04
808.557	37.99
808.733	38.17
808.908	36.65
809.084	36.18
809.26	36.07
809.435	36.88
809.611	36.08
809.787	37.82
809.962	37.4
810.138	37.89
810.313	37.52
810.489	38.48
810.664	36.74
810.84	38.61
811.015	40.28
811.191	41.14
811.366	39.72
811.542	39.51
811.717	37.59
811.892	37.93
812.068	38.41
812.243	37.49
812.419	36.72
812.594	37.5
812.769	36.69
812.944	35.35
813.12	35.18
813.295	35.85
813.47	34.93
813.645	35.38
813.821	34.8
813.996	34.44
814.171	34.08
814.346	33.44
814.521	33.08
814.697	33.28
814.872	32.78
815.047	32.95
815.222	32.53
815.397	33.24
815.572	32.51
815.747	32.01
815.922	32.34
816.097	32.7
816.272	33.83
816.447	34.91
816.622	35.76
816.797	36.43
816.972	35.94
817.147	34.9
817.322	35.79
817.496	35.3
817.671	35.67
817.846	35.45
818.021	34.65
818.196	33.28
818.371	32.96
818.545	32.11
818.72	31.32
818.895	31.55
819.069	31.82
819.244	30.58
819.419	30.66
819.594	29.61
819.768	28.83
819.943	29.16
820.117	29.45
820.292	28.92
820.467	28.5
820.641	27.99
820.816	27.05
820.99	26.55
821.165	26.05
821.339	25.73
821.514	25.52
821.688	25.15
821.863	24.62
822.037	24.33
822.212	23.98
822.386	23.73
822.56	23.37
822.735	23.24
822.909	23.13
823.084	23.12
823.258	23.07
823.432	22.96
823.606	23.01
823.781	23.22
823.955	23.14
824.129	23.43
824.303	23.49
824.478	23.99
824.652	24.39
824.826	24.56
825	24.48
825.174	24.73
825.348	25.51
825.523	25.93
825.697	25.71
825.871	25.91
826.045	26.08
826.219	25.75
826.393	25.31
826.567	24.94
826.741	25.34
826.915	25.72
827.089	25.8
827.263	25.22
827.437	24.89
827.611	25.36
827.784	25.41
827.958	24.59
828.132	24.81
828.306	25.04
828.48	25.29
828.654	25.03
828.827	25.15
829.001	24.61
829.175	24.85
829.349	24.97
829.522	24.59
829.696	24.92
829.87	26.01
830.044	27.63
830.217	28.34
830.391	28.61
830.565	29.64
830.738	29.85
830.912	30.91
831.085	30.94
831.259	32.47
831.432	31.76
831.606	32.31
831.779	32.04
831.953	30.37
832.126	29.41
832.3	29.85
832.473	28.64
832.647	28.22
832.82	28.05
832.994	27.87
833.167	26.79
833.34	26.21
833.514	26.06
833.687	25.95
833.86	25.5
834.034	26.23
834.207	25.71
834.38	26.26
834.553	26.51
834.727	26.69
834.9	26.48
835.073	26.62
835.246	28.17
835.419	28.25
835.593	28.16
835.766	29.36
835.939	30.11
836.112	31.65
836.285	31.89
836.458	31.91
836.631	31.74
836.804	33.34
836.977	34.6
837.15	34.49
837.323	34.41
837.496	36.14
837.669	36.61
837.842	35.77
838.015	33.48
838.188	33.62
838.361	33.79
838.533	36.37
838.706	36.08
838.879	36.55
839.052	36.15
839.225	35.79
839.398	36.15
839.57	34.89
839.743	35.14
839.916	35.69
840.088	33.44
840.261	34.27
840.434	32.69
840.607	32.14
840.779	31.38
840.952	31.71
841.124	31.96
841.297	31.7
841.47	31.07
841.642	30.77
841.815	31.13
841.987	34.96
842.16	33.54
842.332	32.11
842.505	32.91
842.677	34.98
842.85	35.29
843.022	36.52
843.194	37.15
843.367	41.35
843.539	42.76
843.712	43.04
843.884	44.7
844.056	48.42
844.229	52.54
844.401	53.65
844.573	53.22
844.745	55.7
844.918	56.77
845.09	56.82
845.262	54.52
845.434	51.89
845.606	52.17
845.779	46.74
845.951	45.4
846.123	43.34
846.295	42.54
846.467	38.89
846.639	36.31
846.811	37.17
846.983	35.47
847.155	34.15
847.327	34.23
847.499	31.91
847.671	35.32
847.843	34.08
848.015	35.46
848.187	36.44
848.359	38.23
848.531	37.62
848.703	36.34
848.875	38.44
849.047	38.85
849.218	39.91
849.39	38.83
849.562	38.94
849.734	38.91
849.905	40.18
850.077	41.16
850.249	38.19
850.421	40.81
850.592	43.82
850.764	41.74
850.936	44.49
851.107	43.69
851.279	45.01
851.451	45.5
851.622	46.92
851.794	45.53
851.965	38.88
852.137	37.26
852.308	33.14
852.48	30.01
852.651	32.53
852.823	28.87
852.994	32.72
853.166	37.58
853.337	35.23
853.509	35.6
853.68	32.89
853.851	40.53
854.023	47.52
854.194	47.59
854.365	47.85
854.537	44.85
854.708	47.07
854.879	43.02
855.05	39.73
855.222	43.13
855.393	41.59
855.564	47.08
855.735	41.44
855.906	40.16
856.078	45.01
856.249	45.72
856.42	47.07
856.591	49.97
856.762	53.66
856.933	50.84
857.104	49.29
857.275	53.04
857.446	53.61
857.617	56.5
857.788	55.51
857.959	56.08
858.13	56.68
858.301	59.25
858.472	53.38
858.643	51.12
858.814	51.16
858.985	49.76
859.155	42
859.326	42.08
859.497	41.06
859.668	43.26
859.839	40.59
860.009	38.08
860.18	38.14
860.351	39.53
860.522	41.31
860.692	43.78
860.863	42.85
861.034	44.88
861.204	41.93
861.375	40.36
861.546	32.34
861.716	32.95
861.887	36.17
862.057	37.69
862.228	41.66
862.398	39.47
862.569	43.52
862.739	46.29
862.91	48.69
863.08	53.26
863.251	58.59
863.421	64.07
863.592	60.34
863.762	59.7
863.932	57.24
864.103	55.81
864.273	53.06
864.443	50.38
864.614	49.69
864.784	45.32
864.954	40.59
865.125	33.93
865.295	34.09
865.465	32.97
865.635	32.11
865.805	30.05
865.976	27.6
866.146	34.07
866.316	32.17
866.486	35.74
866.656	39.44
866.826	36.63
866.996	36.64
867.166	37.74
867.336	38.49
867.506	41.82
867.676	38.77
867.846	39.64
868.016	36.51
868.186	39.43
868.356	35.12
868.526	34.66
868.696	35.36
868.866	33.95
869.036	34.09
869.206	35.53
869.376	36.52
869.545	35.23
869.715	39.86
869.885	37.25
870.055	36
870.224	36.58
870.394	33.64
870.564	41.77
870.734	46
870.903	43.34
871.073	45.88
871.243	41.57
871.412	48.11
871.582	42.31
871.751	45.86
871.921	43.34
872.091	45.01
872.26	47.98
872.43	44.73
872.599	41.09
872.769	39.5
872.938	37.43
873.108	36.03
873.277	32.8
873.446	34.47
873.616	32.77
873.785	31.07
873.955	30.27
874.124	27.98
874.293	23.77
874.463	23.64
874.632	26.22
874.801	25.08
874.971	25.08
875.14	26.47
875.309	28.59
875.478	28.85
875.647	34.17
875.817	32.94
875.986	40.14
876.155	41.43
876.324	40.95
876.493	41.52
876.662	42.1
876.831	42.29
877	42.66
877.17	42.39
877.339	42.84
877.508	43.56
877.677	48.21
877.846	41.17
878.015	42.38
878.184	45.94
878.352	44.76
878.521	38.8
878.69	41.98
878.859	42.01
879.028	42.9
879.197	41.79
879.366	37.34
879.534	33.14
879.703	31.71
879.872	30.17
880.041	27.78
880.21	28.34
880.378	29.23
880.547	27.08
880.716	25.03
880.884	22.62
881.053	21.09
881.222	21.09
881.39	20.56
881.559	21.52
881.727	21.27
881.896	21.06
882.065	19.9
882.233	19.99
882.402	19.77
882.57	20.19
882.739	20.35
882.907	20.91
883.076	21.52
883.244	21.56
883.412	21
883.581	21.38
883.749	21.58
883.918	22.04
884.086	21.38
884.254	22.5
884.423	22.8
884.591	23.11
884.759	23.18
884.927	22.93
885.096	23.24
885.264	24.57
885.432	25.02
885.6	25.66
885.769	26.33
885.937	27.41
886.105	27.52
886.273	26.91
886.441	29.31
886.609	31.23
886.777	32.01
886.945	33.6
887.113	34.85
887.281	33.42
887.449	32.03
887.617	31.67
887.785	31.43
887.953	32.21
888.121	34.88
888.289	32.32
888.457	32.26
888.625	30.72
888.793	32.96
888.961	25.68
889.129	30.88
889.296	32.3
889.464	34.34
889.632	36.37
889.8	33.84
889.967	30.26
890.135	31.25
