Data from 2938727__Reflection_01.txt Node
Date: Sun Mar 15 19:30:31 EDT 2015
User: robert
Spectrometer: USB4E03002
Autoset integration time: false
Trigger mode: 4
Integration Time (sec): 1.000000E-1
Scans to average: 10
Electric dark correction enabled: false
Nonlinearity correction enabled: false
Boxcar width: 5
Stray light correction enabled: false
XAxis mode: Wavelengths
Stop averaging: false
Number of Pixels in Spectrum: 3648
>>>>>Begin Spectral Data<<<<<
177.575	-617.5
177.794	-18500
178.014	532.81
178.233	-2762.5
178.452	-434
178.672	-146.67
178.891	21.54
179.11	74.09
179.33	58.96
179.549	33.33
179.768	60
179.987	228.57
180.207	248.05
180.426	1377.14
180.645	1557.14
180.864	-7116.67
181.084	-243.52
181.303	-49.56
181.522	-7.56
181.741	-64.71
181.96	-60.17
182.179	-120.24
182.398	176.27
182.618	-39.64
182.837	-26.61
183.056	-130.73
183.275	-190.58
183.494	-10.57
183.713	14.33
183.932	0.82
184.151	-115.73
184.37	-29.63
184.589	-55.13
184.808	-79.22
185.027	44.85
185.246	8.84
185.465	36.3
185.684	20.33
185.903	21.15
186.122	-22.29
186.341	9.45
186.56	4.1
186.779	-3.25
186.998	-30.09
187.216	2.82
187.435	-68.06
187.654	-154.35
187.873	-333.8
188.092	422.86
188.311	-95.79
188.53	51.22
188.748	3.85
188.967	25.09
189.186	38.75
189.405	71.97
189.623	105.77
189.842	42.16
190.061	41.82
190.28	67.03
190.498	77.9
190.717	113.6
190.936	48.97
191.154	71.54
191.373	82.04
191.592	105.03
191.81	28.9
192.029	-3.73
192.248	28
192.466	26.69
192.685	-55.23
192.904	-97.05
193.122	-144.84
193.341	-86.73
193.559	-148.74
193.778	-163.71
193.996	-43.57
194.215	-58.87
194.433	-34.79
194.652	-46.97
194.87	-70.51
195.089	5.62
195.307	-20.66
195.526	-52.79
195.744	-104.85
195.963	-148.15
196.181	-683.33
196.399	-419.28
196.618	1440
196.836	787.5
197.055	-334.85
197.273	-184.21
197.491	-405.19
197.71	784.62
197.928	-507.14
198.146	151.25
198.365	-1900
198.583	-150
198.801	-438.89
199.019	0
199.238	-35.37
199.456	-49.5
199.674	-66.77
199.892	-88.63
200.111	-300
200.329	-27.58
200.547	21.55
200.765	6.15
200.983	0
201.202	-0.7
201.42	-9.22
201.638	7.89
201.856	42.53
202.074	86.71
202.292	90.18
202.51	105.18
202.728	99.21
202.946	67.81
203.165	71.99
203.383	57.94
203.601	51.14
203.819	107.65
204.037	118.25
204.255	40.85
204.473	9.36
204.691	-25.93
204.909	-28.73
205.127	-2.03
205.345	2.34
205.562	29.1
205.78	25.19
205.998	43.96
206.216	23.29
206.434	20.73
206.652	33.39
206.87	23.56
207.088	37.88
207.306	47.75
207.523	40.58
207.741	47.96
207.959	-23.51
208.177	2.89
208.395	-39.09
208.612	-72.61
208.83	-136.75
209.048	-49.07
209.266	-11.48
209.483	-133.76
209.701	-124.59
209.919	-136.77
210.136	-16.38
210.354	-7.77
210.572	-65.25
210.79	-82.89
211.007	-107.22
211.225	-85.84
211.442	-115.8
211.66	-76.87
211.878	-24.24
212.095	20.39
212.313	-15.91
212.53	-49.73
212.748	-60.08
212.966	-16.08
213.183	-2.86
213.401	10.44
213.618	13.45
213.836	28.01
214.053	29.15
214.271	15.37
214.488	-13.38
214.705	22.84
214.923	28.45
215.14	33.43
215.358	30.97
215.575	27.18
215.793	3.39
216.01	7.22
216.227	-4.87
216.445	-9.9
216.662	-13.15
216.879	-6.46
217.097	1.8
217.314	13.71
217.531	1.98
217.749	2.25
217.966	-53.09
218.183	-72.59
218.4	-41.85
218.618	-38.13
218.835	-43.46
219.052	-47.45
219.269	-52.44
219.487	-59.71
219.704	-49.24
219.921	-46.4
220.138	-38.78
220.355	-12.17
220.572	-3.26
220.79	-19.74
221.007	-10.39
221.224	-1.75
221.441	-15.71
221.658	-22.57
221.875	-15.47
222.092	-20.25
222.309	-11
222.526	-12.31
222.743	-6.51
222.96	-3.54
223.177	2.06
223.394	1.45
223.611	-5.7
223.828	-0.06
224.045	3.15
224.262	3.51
224.479	3.84
224.696	-0.5
224.913	8.57
225.13	2.17
225.347	-4.97
225.564	-6.51
225.781	-13.88
225.997	-18.5
226.214	-9
226.431	-4.19
226.648	-3.72
226.865	-4.99
227.082	-3.45
227.298	-6.06
227.515	-3.28
227.732	-0.96
227.949	-0.64
228.165	2.18
228.382	3.49
228.599	3
228.816	2.41
229.032	3.01
229.249	2.95
229.466	1.92
229.682	1.69
229.899	1.66
230.116	1.54
230.332	1.44
230.549	-0.23
230.765	-0.83
230.982	-1.5
231.199	-1.09
231.415	-2.44
231.632	-2.01
231.848	-2.74
232.065	-1.82
232.281	-3.37
232.498	-3.24
232.714	-1.09
232.931	-1.37
233.147	-0.09
233.364	-1.59
233.58	-1.1
233.797	-1.8
234.013	-0.44
234.23	1.11
234.446	-1.04
234.662	-0.15
234.879	-1.61
235.095	-5.24
235.312	-3.19
235.528	-3.35
235.744	-2.4
235.961	-3.09
236.177	-3.37
236.393	-4.65
236.61	-4.76
236.826	-3.42
237.042	-1.28
237.258	1.04
237.475	5.42
237.691	4.72
237.907	3.62
238.123	2.82
238.339	2.13
238.556	4.96
238.772	5.04
238.988	5.77
239.204	6.48
239.42	5.13
239.636	5.93
239.853	4.72
240.069	2.46
240.285	4.08
240.501	4.91
240.717	6.34
240.933	5.95
241.149	5.48
241.365	5.71
241.581	4.69
241.797	4.48
242.013	3.44
242.229	3.32
242.445	4.43
242.661	4.4
242.877	4.04
243.093	3.37
243.309	2.32
243.525	2.83
243.741	2.35
243.957	3.06
244.173	3.6
244.388	4.66
244.604	4.66
244.82	4.17
245.036	4.22
245.252	5.37
245.468	5.65
245.683	6.26
245.899	5.76
246.115	5.09
246.331	5.5
246.547	5.63
246.762	5.63
246.978	5.41
247.194	5.65
247.409	5.73
247.625	5.92
247.841	6.01
248.057	5.77
248.272	5.86
248.488	6.19
248.703	5.85
248.919	5.25
249.135	4.93
249.35	4.93
249.566	4.86
249.782	4.77
249.997	2.97
250.213	2.47
250.428	2.67
250.644	3.16
250.859	2.97
251.075	2.52
251.29	2.64
251.506	2.46
251.721	3.87
251.937	3.09
252.152	2.69
252.368	3.35
252.583	3.31
252.798	3.17
253.014	2.79
253.229	3.05
253.445	2.72
253.66	3.04
253.875	2.93
254.091	1.97
254.306	2.35
254.521	1.06
254.737	1.06
254.952	0.3
255.167	0.4
255.383	1
255.598	0.79
255.813	1.79
256.028	1.47
256.244	1.28
256.459	-0.1
256.674	-0.15
256.889	0.18
257.104	-0.1
257.32	1.21
257.535	1.66
257.75	1.19
257.965	1.25
258.18	1.81
258.395	2.01
258.61	3.08
258.826	3.71
259.041	3.69
259.256	4.2
259.471	4.24
259.686	4.07
259.901	3.77
260.116	3.68
260.331	3.74
260.546	3.45
260.761	3.36
260.976	2.84
261.191	2.34
261.406	2.54
261.621	2.2
261.836	1.77
262.05	1.72
262.265	1.56
262.48	1.3
262.695	1.02
262.91	1.39
263.125	1.4
263.34	1.28
263.555	2.03
263.769	1.71
263.984	1.21
264.199	1.96
264.414	2.16
264.629	1.89
264.843	1.95
265.058	2.77
265.273	2.41
265.488	2.62
265.702	2.86
265.917	2.66
266.132	2.27
266.346	2.45
266.561	3.12
266.776	2.81
266.99	3.3
267.205	3.51
267.42	2.82
267.634	2.56
267.849	2.54
268.063	2.53
268.278	2.71
268.492	3.11
268.707	3.46
268.922	3.14
269.136	2.5
269.351	2.48
269.565	2.95
269.78	3.31
269.994	3.77
270.209	4.01
270.423	4.14
270.637	3.91
270.852	4.29
271.066	3.98
271.281	4.07
271.495	4.36
271.709	4.04
271.924	3.95
272.138	3.53
272.353	3.25
272.567	2.97
272.781	2.9
272.996	2.69
273.21	2.1
273.424	1.81
273.638	1.27
273.853	1.21
274.067	1.38
274.281	0.97
274.495	1.13
274.71	1.33
274.924	1.09
275.138	0.68
275.352	1.42
275.566	1.57
275.781	2.01
275.995	2.39
276.209	2.28
276.423	2.23
276.637	1.98
276.851	1.44
277.065	1.48
277.279	1.54
277.493	1.94
277.707	0.77
277.921	0.67
278.135	0.44
278.349	-0.08
278.563	0.25
278.777	-0.11
278.991	0.44
279.205	1.65
279.419	1.39
279.633	1.66
279.847	1.58
280.061	2.23
280.275	2
280.489	2.27
280.703	2.32
280.917	2.13
281.131	2.54
281.344	2.34
281.558	1.98
281.772	1.66
281.986	2.02
282.2	1.78
282.414	2.06
282.627	2.57
282.841	2.59
283.055	2.49
283.269	2.8
283.482	2.79
283.696	2.52
283.91	2.56
284.123	3.03
284.337	2.91
284.551	2.91
284.764	2.55
284.978	2.25
285.192	1.94
285.405	2.22
285.619	1.82
285.833	1.93
286.046	2.12
286.26	1.73
286.473	1.55
286.687	1.34
286.9	1.72
287.114	1.95
287.327	2.02
287.541	2.41
287.754	2.2
287.968	2.11
288.181	1.98
288.395	2.62
288.608	3.4
288.822	3.68
289.035	3.85
289.248	3.39
289.462	3.59
289.675	3.82
289.889	3.97
290.102	4.29
290.315	4.71
290.529	4.78
290.742	4.63
290.955	4.45
291.169	4.36
291.382	4.47
291.595	4.71
291.808	4.57
292.022	4.1
292.235	3.8
292.448	3.48
292.661	3.05
292.875	2.93
293.088	2.72
293.301	2.6
293.514	2.24
293.727	1.59
293.94	1.81
294.153	1.68
294.367	1.99
294.58	2.28
294.793	2.43
295.006	2.9
295.219	2.94
295.432	3.18
295.645	3.38
295.858	4.02
296.071	4.69
296.284	4.66
296.497	4.85
296.71	5
296.923	5.18
297.136	5.31
297.349	5.15
297.562	5.25
297.775	5.01
297.988	5.02
298.201	4.7
298.414	4.29
298.626	4.57
298.839	4.33
299.052	4.48
299.265	4.42
299.478	4.3
299.691	4.48
299.903	4.74
300.116	4.72
300.329	4.76
300.542	5.08
300.755	5.26
300.967	5.09
301.18	5.42
301.393	5.33
301.605	4.93
301.818	5.24
302.031	4.94
302.243	4.41
302.456	4.89
302.669	4.51
302.881	4.14
303.094	4.08
303.307	3.85
303.519	3.85
303.732	3.94
303.944	4.06
304.157	4.2
304.37	4.89
304.582	5.26
304.795	4.97
305.007	5.34
305.22	5.88
305.432	6.11
305.645	6.62
305.857	6.55
306.069	6.47
306.282	6.62
306.494	6.78
306.707	6.06
306.919	5.96
307.132	6.24
307.344	6.59
307.556	6.67
307.769	6.85
307.981	6.62
308.193	6.47
308.406	6.63
308.618	6.58
308.83	6.42
309.043	6.58
309.255	6.79
309.467	6.76
309.679	6.66
309.892	6.33
310.104	5.94
310.316	6.01
310.528	6.21
310.74	6.31
310.953	6.42
311.165	6.13
311.377	6.28
311.589	6.27
311.801	6.32
312.013	6.14
312.225	6.44
312.437	7
312.649	6.86
312.862	6.87
313.074	6.88
313.286	6.94
313.498	7.3
313.71	7.51
313.922	7.59
314.134	7.62
314.346	7.86
314.558	7.18
314.77	6.86
314.982	7.2
315.193	7.55
315.405	7.24
315.617	7.55
315.829	7.56
316.041	7.63
316.253	7.48
316.465	7.31
316.677	7.47
316.888	7.9
317.1	7.48
317.312	7.13
317.524	6.46
317.736	7.04
317.947	6.42
318.159	6.69
318.371	6.32
318.583	6.87
318.794	6.77
319.006	6.4
319.218	6.68
319.43	7.31
319.641	8.03
319.853	8.35
320.064	8.1
320.276	8.35
320.488	8.09
320.699	8.27
320.911	8.1
321.123	8.11
321.334	7.51
321.546	7.59
321.757	6.92
321.969	6.52
322.18	6.15
322.392	6.15
322.603	6.02
322.815	6.39
323.026	6.39
323.238	5.88
323.449	6.03
323.661	7.03
323.872	7.16
324.083	7.43
324.295	7.49
324.506	7.89
324.718	8.13
324.929	8.76
325.14	8.34
325.352	8.54
325.563	9.23
325.774	9.36
325.986	9.27
326.197	9.21
326.408	9.18
326.62	9.23
326.831	9.31
327.042	9.06
327.253	9.28
327.464	9.38
327.676	9.53
327.887	9.7
328.098	9.8
328.309	9.98
328.52	10.05
328.732	10.67
328.943	10.51
329.154	10.33
329.365	10.48
329.576	9.71
329.787	9.83
329.998	9.76
330.209	8.82
330.42	9.07
330.631	9.07
330.842	9.29
331.053	8.63
331.264	8.87
331.475	9.23
331.686	9.09
331.897	9.41
332.108	9.25
332.319	9.43
332.53	10.11
332.741	10.06
332.952	10.15
333.163	9.98
333.374	10.16
333.585	10.05
333.795	10.07
334.006	10.03
334.217	10.22
334.428	10.38
334.639	9.79
334.849	9.25
335.06	9.35
335.271	9.13
335.482	9.15
335.692	9.41
335.903	9.16
336.114	9.06
336.325	9.15
336.535	8.9
336.746	8.98
336.957	9.5
337.167	9.59
337.378	8.94
337.589	9.1
337.799	8.98
338.01	9.08
338.22	9.44
338.431	9.92
338.642	10.05
338.852	9.96
339.063	9.87
339.273	9.19
339.484	9.07
339.694	9.64
339.905	9.26
340.115	9.73
340.326	9.51
340.536	9.4
340.746	8.76
340.957	8.35
341.167	8.51
341.378	8.83
341.588	9.44
341.799	9.53
342.009	9.1
342.219	9.42
342.43	9.42
342.64	9.34
342.85	9.14
343.061	9.52
343.271	9.68
343.481	9.7
343.691	9.41
343.902	9.49
344.112	9.8
344.322	10.1
344.532	9.92
344.743	9.51
344.953	9.69
345.163	10.18
345.373	9.9
345.583	9.79
345.793	9.59
346.004	9.37
346.214	9.14
346.424	9.04
346.634	8.85
346.844	8.85
347.054	8.65
347.264	8.93
347.474	8.57
347.684	8.49
347.894	8.66
348.104	8.78
348.314	8.76
348.524	8.84
348.734	8.71
348.944	8.93
349.154	9.06
349.364	9.11
349.574	8.4
349.784	8.28
349.994	8.57
350.204	8.69
350.413	8.59
350.623	9.09
350.833	9.02
351.043	9.08
351.253	8.7
351.463	8.05
351.672	8.16
351.882	8.25
352.092	8.53
352.302	8.58
352.511	8.29
352.721	8.2
352.931	7.88
353.141	7.75
353.35	7.66
353.56	7.82
353.77	8.31
353.979	8.62
354.189	8.76
354.399	8.76
354.608	8.41
354.818	8.51
355.027	8.85
355.237	8.74
355.447	8.8
355.656	8.85
355.866	8.86
356.075	8.95
356.285	8.51
356.494	8.47
356.704	8.05
356.913	8.33
357.123	8.24
357.332	8.31
357.542	8.33
357.751	8.38
357.96	8.49
358.17	8.49
358.379	8.49
358.589	8.58
358.798	8.73
359.007	8.98
359.217	8.79
359.426	8.9
359.635	8.79
359.845	9.09
360.054	8.87
360.263	8.52
360.472	8.4
360.682	8.37
360.891	8.38
361.1	8.29
361.309	8.2
361.519	8.18
361.728	8.34
361.937	8.24
362.146	8.01
362.355	8.05
362.564	8.41
362.774	8.38
362.983	8.24
363.192	8.21
363.401	8.24
363.61	8.36
363.819	8.5
364.028	8.3
364.237	8.29
364.446	8.22
364.655	8.39
364.864	8
365.073	8.15
365.282	8.3
365.491	8.23
365.7	8.12
365.909	8.16
366.118	8.16
366.327	7.94
366.536	7.88
366.745	8.03
366.954	7.62
367.162	7.72
367.371	7.62
367.58	7.3
367.789	7.53
367.998	7.41
368.207	7.44
368.415	7.51
368.624	7.58
368.833	7.56
369.042	7.28
369.25	7.54
369.459	7.3
369.668	7.37
369.877	7.81
370.085	7.64
370.294	8.04
370.503	7.9
370.711	7.73
370.92	7.96
371.129	7.99
371.337	8.15
371.546	8.28
371.754	8.39
371.963	8.11
372.171	7.5
372.38	7.37
372.589	6.84
372.797	6.87
373.006	6.88
373.214	6.7
373.423	6.5
373.631	6.39
373.84	6.36
374.048	6.62
374.256	6.66
374.465	7.03
374.673	7.25
374.882	7.46
375.09	7.28
375.298	7.09
375.507	7.15
375.715	7.05
375.923	7.11
376.132	6.82
376.34	6.59
376.548	6.51
376.757	6.63
376.965	6.74
377.173	6.78
377.381	6.73
377.59	6.79
377.798	6.65
378.006	7.03
378.214	7.05
378.423	7.25
378.631	7.26
378.839	7.69
379.047	7.37
379.255	7.05
379.463	6.97
379.671	7.1
379.879	7.12
380.088	7.22
380.296	6.95
380.504	6.88
380.712	7.06
380.92	6.92
381.128	6.67
381.336	6.84
381.544	7.07
381.752	7.16
381.96	7.02
382.168	7.03
382.376	7.02
382.584	7.14
382.791	7.29
382.999	6.93
383.207	6.82
383.415	6.63
383.623	6.92
383.831	6.79
384.039	6.88
384.247	7.01
384.454	6.85
384.662	6.99
384.87	6.95
385.078	6.99
385.285	7.07
385.493	7.26
385.701	7.37
385.909	7.12
386.116	7.12
386.324	7.1
386.532	6.84
386.739	6.89
386.947	6.71
387.155	6.57
387.362	6.43
387.57	6.54
387.778	6.27
387.985	6.42
388.193	6.36
388.4	6.54
388.608	6.26
388.816	6.48
389.023	6.53
389.231	6.47
389.438	6.47
389.646	6.41
389.853	6.32
390.061	6.59
390.268	6.56
390.475	6.51
390.683	6.06
390.89	6.07
391.098	6.06
391.305	6.07
391.512	6.11
391.72	6.15
391.927	6.23
392.135	6.2
392.342	6.22
392.549	6.11
392.756	6.26
392.964	6.32
393.171	6.3
393.378	6.21
393.586	6.19
393.793	6.2
394	6.08
394.207	5.95
394.414	5.99
394.622	6.03
394.829	6.08
395.036	5.88
395.243	5.82
395.45	5.96
395.657	5.83
395.864	5.8
396.072	5.62
396.279	5.78
396.486	5.96
396.693	5.94
396.9	5.77
397.107	5.95
397.314	5.86
397.521	6.02
397.728	6.03
397.935	6.23
398.142	6.21
398.349	6.34
398.556	6.25
398.763	6.17
398.97	6.15
399.177	6.16
399.383	5.99
399.59	6.14
399.797	6.15
400.004	6.06
400.211	6.02
400.418	6.06
400.625	5.9
400.831	5.92
401.038	6.03
401.245	5.99
401.452	6.13
401.658	6.04
401.865	6.05
402.072	6
402.279	5.99
402.485	5.9
402.692	5.77
402.899	5.71
403.105	5.57
403.312	5.3
403.519	5.37
403.725	5.3
403.932	5.27
404.138	5.36
404.345	5.55
404.552	5.63
404.758	5.65
404.965	5.69
405.171	6
405.378	6.29
405.584	6.25
405.791	6.33
405.997	6.28
406.204	6.35
406.41	6.23
406.617	6
406.823	6.03
407.029	5.91
407.236	6
407.442	5.93
407.649	5.88
407.855	6.2
408.061	6.12
408.268	6.25
408.474	6.33
408.68	6.52
408.887	6.84
409.093	6.87
409.299	7.07
409.505	7.15
409.712	6.95
409.918	6.87
410.124	6.53
410.33	6.46
410.537	6.51
410.743	6.63
410.949	6.52
411.155	6.26
411.361	6.06
411.567	6.01
411.773	5.93
411.98	6.17
412.186	6.13
412.392	6.37
412.598	6.45
412.804	6.36
413.01	6.06
413.216	5.91
413.422	6.07
413.628	6.02
413.834	6.02
414.04	6.02
414.246	6.09
414.452	6.31
414.658	6.37
414.864	6.14
415.07	6.08
415.275	6.12
415.481	6.12
415.687	6
415.893	6.09
416.099	5.96
416.305	5.93
416.511	5.92
416.716	5.78
416.922	5.75
417.128	5.92
417.334	6
417.539	6.08
417.745	6.18
417.951	6.24
418.157	6.35
418.362	6.45
418.568	6.44
418.774	6.41
418.979	6.4
419.185	6.35
419.391	6.38
419.596	6.45
419.802	6.41
420.008	6.51
420.213	6.56
420.419	6.56
420.624	6.59
420.83	6.68
421.035	6.69
421.241	6.64
421.446	6.73
421.652	6.8
421.857	6.76
422.063	6.8
422.268	6.79
422.474	6.69
422.679	6.69
422.885	6.71
423.09	6.6
423.295	6.59
423.501	6.61
423.706	6.59
423.911	6.57
424.117	6.56
424.322	6.59
424.527	6.51
424.733	6.55
424.938	6.56
425.143	6.62
425.349	6.7
425.554	6.69
425.759	6.67
425.964	6.72
426.169	6.71
426.375	6.7
426.58	6.75
426.785	6.75
426.99	6.97
427.195	7.01
427.4	6.97
427.605	6.97
427.811	7.03
428.016	7.06
428.221	7.08
428.426	7.08
428.631	7.04
428.836	6.89
429.041	7
429.246	6.75
429.451	6.76
429.656	6.63
429.861	6.6
430.066	6.6
430.271	6.68
430.476	6.67
430.681	6.57
430.886	6.7
431.09	6.79
431.295	6.78
431.5	6.83
431.705	6.8
431.91	6.89
432.115	6.92
432.32	6.94
432.524	6.93
432.729	6.93
432.934	7.05
433.139	7.02
433.343	6.94
433.548	6.9
433.753	6.8
433.958	6.78
434.162	6.95
434.367	7.08
434.572	7.06
434.776	7.17
434.981	7.09
435.186	7.14
435.39	7.19
435.595	7.31
435.799	7.29
436.004	7.57
436.209	7.51
436.413	7.41
436.618	7.31
436.822	7.34
437.027	7.28
437.231	7.36
437.436	7.23
437.64	7.25
437.845	7.32
438.049	7.38
438.253	7.21
438.458	7.34
438.662	7.25
438.867	7.22
439.071	7.22
439.275	7.26
439.48	7.27
439.684	7.23
439.888	7.06
440.093	6.95
440.297	7.04
440.501	7.06
440.706	7.06
440.91	7.14
441.114	7.12
441.318	7.11
441.523	7.05
441.727	6.99
441.931	7.13
442.135	7.28
442.339	7.33
442.543	7.32
442.748	7.29
442.952	7.24
443.156	7.14
443.36	7.2
443.564	7.27
443.768	7.36
443.972	7.45
444.176	7.39
444.38	7.31
444.584	7.42
444.788	7.39
444.992	7.48
445.196	7.49
445.4	7.58
445.604	7.62
445.808	7.54
446.012	7.56
446.216	7.46
446.42	7.49
446.624	7.58
446.828	7.44
447.032	7.48
447.235	7.47
447.439	7.43
447.643	7.41
447.847	7.44
448.051	7.53
448.254	7.46
448.458	7.45
448.662	7.47
448.866	7.41
449.069	7.56
449.273	7.55
449.477	7.53
449.681	7.57
449.884	7.59
450.088	7.42
450.292	7.27
450.495	7.27
450.699	7.27
450.902	7.12
451.106	7.15
451.31	7.04
451.513	6.96
451.717	6.96
451.92	6.99
452.124	6.94
452.327	6.98
452.531	7
452.734	7.05
452.938	7.27
453.141	7.28
453.345	7.13
453.548	7.08
453.752	7.08
453.955	7.02
454.158	6.97
454.362	7.13
454.565	7.11
454.769	7.22
454.972	7.17
455.175	6.98
455.379	7
455.582	7.07
455.785	7.23
455.988	7.16
456.192	7.24
456.395	7.26
456.598	7.12
456.801	7.22
457.005	7.07
457.208	7.06
457.411	7.21
457.614	7.22
457.817	7.32
458.021	7.31
458.224	7.38
458.427	7.43
458.63	7.55
458.833	7.57
459.036	7.52
459.239	7.51
459.442	7.5
459.645	7.42
459.848	7.45
460.051	7.4
460.254	7.46
460.457	7.48
460.66	7.39
460.863	7.31
461.066	7.25
461.269	7.29
461.472	7.32
461.675	7.33
461.878	7.39
462.081	7.37
462.284	7.49
462.486	7.26
462.689	7.13
462.892	7.2
463.095	7.21
463.298	7.23
463.5	7.23
463.703	7.18
463.906	7.05
464.109	6.98
464.311	6.89
464.514	6.86
464.717	6.88
464.92	6.94
465.122	6.99
465.325	6.97
465.528	6.97
465.73	6.97
465.933	7.03
466.135	7.23
466.338	7.42
466.541	7.53
466.743	7.45
466.946	7.6
467.148	7.61
467.351	7.48
467.553	7.45
467.756	7.55
467.958	7.46
468.161	7.47
468.363	7.39
468.566	7.23
468.768	7.23
468.971	7.3
469.173	7.21
469.375	7.2
469.578	7.25
469.78	7.48
469.983	7.53
470.185	7.6
470.387	7.74
470.59	7.73
470.792	7.62
470.994	7.7
471.196	7.78
471.399	7.88
471.601	7.94
471.803	7.93
472.005	7.81
472.208	7.68
472.41	7.52
472.612	7.4
472.814	7.4
473.016	7.62
473.218	7.5
473.421	7.45
473.623	7.44
473.825	7.44
474.027	7.41
474.229	7.33
474.431	7.18
474.633	7.35
474.835	7.42
475.037	7.46
475.239	7.38
475.441	7.36
475.643	7.24
475.845	7.25
476.047	7.26
476.249	7.27
476.451	7.36
476.653	7.54
476.855	7.49
477.057	7.53
477.258	7.48
477.46	7.48
477.662	7.6
477.864	7.64
478.066	7.67
478.268	7.68
478.469	7.63
478.671	7.55
478.873	7.5
479.075	7.43
479.276	7.43
479.478	7.54
479.68	7.55
479.882	7.49
480.083	7.52
480.285	7.51
480.487	7.49
480.688	7.59
480.89	7.62
481.091	7.71
481.293	7.83
481.495	7.8
481.696	7.77
481.898	7.84
482.099	7.83
482.301	7.85
482.502	7.8
482.704	7.75
482.905	7.75
483.107	7.76
483.308	7.73
483.51	7.72
483.711	7.73
483.913	7.74
484.114	7.71
484.315	7.69
484.517	7.67
484.718	7.7
484.92	7.71
485.121	7.65
485.322	7.64
485.524	7.63
485.725	7.64
485.926	7.61
486.127	7.59
486.329	7.61
486.53	7.61
486.731	7.59
486.932	7.54
487.134	7.57
487.335	7.63
487.536	7.63
487.737	7.66
487.938	7.6
488.139	7.59
488.341	7.58
488.542	7.54
488.743	7.56
488.944	7.64
489.145	7.7
489.346	7.69
489.547	7.67
489.748	7.67
489.949	7.69
490.15	7.73
490.351	7.78
490.552	7.81
490.753	7.84
490.954	7.78
491.155	7.76
491.356	7.75
491.557	7.76
491.758	7.79
491.959	7.78
492.159	7.78
492.36	7.78
492.561	7.75
492.762	7.69
492.963	7.69
493.164	7.73
493.364	7.72
493.565	7.64
493.766	7.64
493.967	7.62
494.167	7.61
494.368	7.61
494.569	7.55
494.769	7.5
494.97	7.52
495.171	7.55
495.371	7.57
495.572	7.59
495.773	7.62
495.973	7.58
496.174	7.59
496.375	7.64
496.575	7.64
496.776	7.75
496.976	7.82
497.177	7.87
497.377	7.85
497.578	7.83
497.778	7.74
497.979	7.77
498.179	7.74
498.38	7.74
498.58	7.77
498.78	7.76
498.981	7.67
499.181	7.62
499.382	7.59
499.582	7.56
499.782	7.58
499.983	7.54
500.183	7.55
500.383	7.61
500.584	7.59
500.784	7.51
500.984	7.48
501.184	7.65
501.385	7.69
501.585	7.67
501.785	7.76
501.985	7.84
502.185	7.92
502.386	8.03
502.586	7.99
502.786	7.99
502.986	8.09
503.186	8.09
503.386	8.05
503.586	8.05
503.786	8.11
503.987	8.01
504.187	7.93
504.387	8
504.587	7.9
504.787	7.94
504.987	7.92
505.187	7.88
505.387	7.98
505.587	7.93
505.786	7.96
505.986	8.03
506.186	8.13
506.386	8.12
506.586	8.12
506.786	8.17
506.986	8.29
507.186	8.38
507.386	8.39
507.585	8.36
507.785	8.4
507.985	8.45
508.185	8.37
508.384	8.41
508.584	8.55
508.784	8.57
508.984	8.61
509.183	8.53
509.383	8.54
509.583	8.56
509.782	8.49
509.982	8.45
510.182	8.46
510.381	8.48
510.581	8.5
510.781	8.46
510.98	8.49
511.18	8.45
511.379	8.48
511.579	8.49
511.778	8.57
511.978	8.62
512.177	8.7
512.377	8.71
512.576	8.78
512.776	8.76
512.975	8.73
513.175	8.76
513.374	8.77
513.573	8.83
513.773	8.85
513.972	8.77
514.172	8.84
514.371	9.01
514.57	9.07
514.77	9.08
514.969	9.14
515.168	9.2
515.367	9.15
515.567	9.26
515.766	9.33
515.965	9.37
516.164	9.48
516.364	9.48
516.563	9.43
516.762	9.45
516.961	9.53
517.16	9.54
517.359	9.56
517.559	9.69
517.758	9.78
517.957	9.81
518.156	9.83
518.355	9.81
518.554	9.92
518.753	9.9
518.952	9.87
519.151	9.96
519.35	9.93
519.549	10.04
519.748	10
519.947	9.97
520.146	9.97
520.345	10.09
520.544	10.15
520.743	10.15
520.942	10.23
521.141	10.28
521.339	10.17
521.538	10.35
521.737	10.28
521.936	10.34
522.135	10.26
522.333	10.27
522.532	10.31
522.731	10.43
522.93	10.48
523.129	10.49
523.327	10.6
523.526	10.7
523.725	10.67
523.923	10.76
524.122	10.75
524.321	10.93
524.519	11.03
524.718	11.08
524.917	11.06
525.115	11.12
525.314	11.16
525.512	11.22
525.711	11.22
525.909	11.26
526.108	11.29
526.306	11.38
526.505	11.43
526.703	11.45
526.902	11.45
527.1	11.55
527.299	11.61
527.497	11.68
527.696	11.73
527.894	11.77
528.092	11.86
528.291	11.92
528.489	11.99
528.688	12.01
528.886	12.06
529.084	12.1
529.283	12.07
529.481	12.05
529.679	12.11
529.877	12.14
530.076	12.23
530.274	12.25
530.472	12.27
530.67	12.33
530.869	12.37
531.067	12.43
531.265	12.5
531.463	12.62
531.661	12.72
531.859	12.76
532.057	12.8
532.255	12.83
532.454	12.91
532.652	12.97
532.85	12.93
533.048	13
533.246	12.98
533.444	13.04
533.642	13.02
533.84	13.02
534.038	13.03
534.236	13.08
534.434	13.11
534.632	13.16
534.83	13.19
535.027	13.3
535.225	13.35
535.423	13.46
535.621	13.54
535.819	13.63
536.017	13.75
536.215	13.82
536.412	13.86
536.61	13.94
536.808	13.94
537.006	13.96
537.203	14.02
537.401	14.11
537.599	14.27
537.797	14.17
537.994	14.21
538.192	14.28
538.39	14.35
538.587	14.43
538.785	14.46
538.983	14.49
539.18	14.67
539.378	14.76
539.575	14.76
539.773	14.71
539.97	14.9
540.168	15.03
540.366	14.98
540.563	14.98
540.761	15.04
540.958	15.12
541.155	15.2
541.353	15.19
541.55	15.18
541.748	15.19
541.945	15.25
542.143	15.25
542.34	15.23
542.537	15.31
542.735	15.41
542.932	15.44
543.129	15.44
543.327	15.42
543.524	15.52
543.721	15.61
543.919	15.65
544.116	15.71
544.313	15.86
544.51	15.91
544.708	16
544.905	15.98
545.102	16.08
545.299	16.21
545.496	16.28
545.693	16.31
545.891	16.37
546.088	16.45
546.285	16.45
546.482	16.42
546.679	16.49
546.876	16.45
547.073	16.49
547.27	16.43
547.467	16.37
547.664	16.45
547.861	16.4
548.058	16.41
548.255	16.43
548.452	16.49
548.649	16.55
548.846	16.64
549.043	16.63
549.24	16.77
549.437	16.88
549.633	16.95
549.83	16.92
550.027	16.94
550.224	17.04
550.421	17.09
550.618	17.11
550.814	17.05
551.011	17
551.208	17.09
551.405	17.07
551.601	17.08
551.798	17.1
551.995	17.16
552.191	17.24
552.388	17.27
552.585	17.27
552.781	17.12
552.978	17.27
553.175	17.31
553.371	17.35
553.568	17.38
553.764	17.54
553.961	17.43
554.157	17.47
554.354	17.59
554.55	17.54
554.747	17.59
554.943	17.79
555.14	17.7
555.336	17.73
555.533	17.76
555.729	17.82
555.926	17.88
556.122	18.14
556.318	18.25
556.515	18.18
556.711	18.12
556.907	18.1
557.104	18.12
557.3	18.21
557.496	18.24
557.693	18.16
557.889	18.19
558.085	18.04
558.281	17.97
558.478	17.99
558.674	18.12
558.87	18.23
559.066	18.33
559.262	18.47
559.459	18.47
559.655	18.58
559.851	18.98
560.047	19.02
560.243	18.99
560.439	19.13
560.635	19.17
560.831	19.11
561.027	19.16
561.223	19.09
561.419	19.09
561.615	19.27
561.811	19.29
562.007	19.14
562.203	19.28
562.399	19.39
562.595	19.39
562.791	19.46
562.987	19.74
563.183	19.73
563.379	20.01
563.575	19.99
563.771	20.04
563.966	20.09
564.162	20.08
564.358	20.02
564.554	20.16
564.75	20.12
564.945	20.1
565.141	20.06
565.337	20.23
565.533	20.19
565.728	20.2
565.924	20.26
566.12	20.37
566.315	20.49
566.511	20.55
566.707	20.5
566.902	20.58
567.098	20.68
567.293	20.62
567.489	20.68
567.684	20.72
567.88	20.73
568.076	20.73
568.271	20.74
568.467	20.85
568.662	20.98
568.858	21.07
569.053	21.1
569.248	21.16
569.444	21.3
569.639	21.32
569.835	21.44
570.03	21.68
570.225	21.71
570.421	21.72
570.616	21.74
570.812	21.66
571.007	21.66
571.202	21.72
571.397	21.75
571.593	21.84
571.788	21.86
571.983	21.9
572.178	21.92
572.374	21.94
572.569	22.05
572.764	21.99
572.959	21.96
573.154	21.99
573.35	22.03
573.545	22.06
573.74	22.06
573.935	22.12
574.13	22.17
574.325	22.16
574.52	22.17
574.715	22.2
574.91	22.28
575.105	22.34
575.3	22.39
575.495	22.44
575.69	22.38
575.885	22.23
576.08	22.35
576.275	22.16
576.47	22.1
576.665	22.22
576.86	22.21
577.055	22.27
577.25	22.36
577.444	22.46
577.639	22.5
577.834	22.76
578.029	22.92
578.224	22.78
578.418	23.1
578.613	23.23
578.808	23.33
579.003	23.36
579.197	23.27
579.392	23.44
579.587	23.47
579.781	23.51
579.976	23.42
580.171	23.41
580.365	23.65
580.56	23.56
580.755	23.62
580.949	23.71
581.144	23.53
581.338	23.77
581.533	23.83
581.727	23.82
581.922	23.81
582.116	23.92
582.311	23.97
582.505	24.04
582.7	24
582.894	23.91
583.089	23.85
583.283	24.15
583.478	23.98
583.672	23.77
583.866	23.8
584.061	23.99
584.255	24.15
584.449	24.38
584.644	24.23
584.838	24.42
585.032	24.52
585.226	24.62
585.421	24.63
585.615	24.75
585.809	24.96
586.003	25.15
586.198	25.08
586.392	25.08
586.586	25.18
586.78	25.3
586.974	25.23
587.168	25.33
587.363	25.28
587.557	25.16
587.751	25.11
587.945	25.06
588.139	24.85
588.333	24.93
588.527	24.86
588.721	24.65
588.915	24.56
589.109	24.49
589.303	24.28
589.497	24.16
589.691	24.42
589.885	24.36
590.079	24.31
590.273	24.43
590.466	24.36
590.66	24.3
590.854	24.48
591.048	24.58
591.242	24.85
591.436	24.96
591.629	25.04
591.823	24.97
592.017	25.15
592.211	25.36
592.404	25.32
592.598	25.31
592.792	25.44
592.986	25.34
593.179	25.31
593.373	25.28
593.567	25.49
593.76	25.59
593.954	25.57
594.147	25.6
594.341	25.69
594.535	25.76
594.728	25.91
594.922	25.82
595.115	25.64
595.309	25.71
595.502	25.69
595.696	25.67
595.889	25.4
596.083	25.55
596.276	25.56
596.47	25.43
596.663	25.43
596.856	25.42
597.05	25.46
597.243	25.64
597.437	25.55
597.63	25.54
597.823	25.55
598.017	25.76
598.21	25.55
598.403	25.5
598.596	25.6
598.79	25.58
598.983	25.59
599.176	25.54
599.369	25.55
599.563	25.62
599.756	25.65
599.949	25.7
600.142	25.61
600.335	25.69
600.528	25.8
600.722	25.82
600.915	25.94
601.108	25.96
601.301	26.12
601.494	26.29
601.687	26.19
601.88	26.26
602.073	26.34
602.266	26.48
602.459	26.5
602.652	26.45
602.845	26.48
603.038	26.35
603.231	26.29
603.424	26.16
603.617	26.02
603.809	26.22
604.002	26.11
604.195	25.96
604.388	25.92
604.581	26
604.774	25.94
604.966	25.84
605.159	25.98
605.352	26.05
605.545	26.16
605.737	26.32
605.93	26.3
606.123	26.54
606.316	26.69
606.508	26.86
606.701	26.94
606.894	27.04
607.086	27.05
607.279	27.17
607.471	27.31
607.664	27.39
607.857	27.36
608.049	27.38
608.242	27.24
608.434	27.38
608.627	27.65
608.819	27.96
609.012	28.47
609.204	29.06
609.397	29.57
609.589	30.03
609.782	30.65
609.974	31.35
610.166	32
610.359	32.79
610.551	33.21
610.743	33.67
610.936	34.14
611.128	34.29
611.32	34.51
611.513	34.39
611.705	34.38
611.897	34.12
612.09	33.91
612.282	33.78
612.474	33.35
612.666	33.3
612.858	33.02
613.051	32.64
613.243	32.56
613.435	32.11
613.627	32.07
613.819	31.92
614.011	32.1
614.203	31.75
614.395	31.42
614.588	31.36
614.78	30.84
614.972	30.56
615.164	30.33
615.356	29.85
615.548	29.74
615.74	29.35
615.932	29.12
616.124	28.71
616.315	28.47
616.507	28.37
616.699	27.91
616.891	28.07
617.083	27.97
617.275	27.68
617.467	27.49
617.659	27.29
617.85	27.42
618.042	27.15
618.234	26.94
618.426	27.02
618.618	26.9
618.809	27.03
619.001	26.92
619.193	26.76
619.384	27
619.576	27.43
619.768	27.56
619.959	27.29
620.151	27.5
620.343	27.53
620.534	27.39
620.726	27.41
620.917	27.58
621.109	27.73
621.301	27.75
621.492	27.6
621.684	27.24
621.875	27.31
622.067	27.5
622.258	27.48
622.45	27.33
622.641	27.52
622.832	27.52
623.024	27.48
623.215	27.26
623.407	27.09
623.598	27.44
623.789	27.7
623.981	27.66
624.172	27.56
624.363	27.55
624.555	27.78
624.746	27.79
624.937	27.87
625.129	27.84
625.32	27.83
625.511	28
625.702	27.71
625.893	27.48
626.085	27.35
626.276	27.33
626.467	27.32
626.658	27.32
626.849	27.37
627.04	27.28
627.231	27.39
627.422	27.55
627.614	27.54
627.805	27.51
627.996	27.53
628.187	27.82
628.378	27.98
628.569	28.33
628.76	28.16
628.951	28.09
629.142	28.17
629.332	28.24
629.523	28.29
629.714	28.35
629.905	28.6
630.096	28.91
630.287	28.69
630.478	28.55
630.669	28.21
630.859	28.43
631.05	28.35
631.241	28.38
631.432	28.34
631.623	28.13
631.813	28.16
632.004	28
632.195	27.68
632.385	27.63
632.576	27.56
632.767	27.64
632.957	27.52
633.148	27.47
633.339	27.32
633.529	27.15
633.72	27.3
633.91	27.25
634.101	27.22
634.292	27.5
634.482	27.43
634.673	27.44
634.863	27.21
635.054	27.13
635.244	27.39
635.435	27.28
635.625	27.03
635.815	27.02
636.006	27.11
636.196	27
636.387	26.76
636.577	26.83
636.767	26.8
636.958	27.05
637.148	27.06
637.338	26.97
637.529	27.26
637.719	27.55
637.909	27.57
638.099	27.47
638.29	27.29
638.48	27.19
638.67	27.1
638.86	27.23
639.05	26.98
639.241	26.88
639.431	26.39
639.621	26.15
639.811	26.17
640.001	25.88
640.191	25.81
640.381	25.94
640.571	26.14
640.761	26.17
640.951	26.07
641.141	26.2
641.331	26.52
641.521	26.84
641.711	26.69
641.901	26.47
642.091	26.78
642.281	26.75
642.471	26.83
642.661	26.77
642.851	26.84
643.041	26.87
643.231	26.89
643.42	26.82
643.61	26.77
643.8	26.86
643.99	27.04
644.18	26.84
644.369	26.96
644.559	26.76
644.749	26.94
644.939	27
645.128	27.03
645.318	27.07
645.508	26.99
645.697	27.11
645.887	27.37
646.076	27.36
646.266	27.47
646.456	27.52
646.645	27.67
646.835	27.55
647.024	27.57
647.214	27.52
647.403	27.21
647.593	27.41
647.782	27.57
647.972	27.57
648.161	27.45
648.351	27.23
648.54	27.15
648.73	27.47
648.919	27.46
649.108	27.55
649.298	27.83
649.487	27.88
649.677	27.76
649.866	27.54
650.055	27.39
650.244	27.49
650.434	27.57
650.623	27.48
650.812	27.16
651.002	27.26
651.191	27.28
651.38	27.06
651.569	27.16
651.758	27.23
651.947	27.47
652.137	27.43
652.326	27.55
652.515	27.29
652.704	27.26
652.893	27.23
653.082	27.11
653.271	26.98
653.46	27.03
653.649	27.17
653.838	27.07
654.027	26.78
654.216	26.83
654.405	26.71
654.594	27.08
654.783	26.98
654.972	27.12
655.161	26.96
655.35	27.05
655.539	26.94
655.728	26.76
655.916	26.69
656.105	26.79
656.294	26.78
656.483	26.74
656.672	26.89
656.86	26.97
657.049	27.01
657.238	27.39
657.427	27.36
657.615	27.32
657.804	27.13
657.993	27.27
658.181	27.09
658.37	27.17
658.559	27.09
658.747	27.14
658.936	27.28
659.125	27.36
659.313	27.2
659.502	27.27
659.69	27.32
659.879	27.48
660.067	27.41
660.256	27.37
660.444	27.22
660.633	27.24
660.821	26.94
661.01	26.95
661.198	26.93
661.387	26.76
661.575	26.67
661.763	26.72
661.952	26.83
662.14	26.7
662.328	26.96
662.517	26.98
662.705	26.92
662.893	26.97
663.082	26.71
663.27	26.54
663.458	26.91
663.646	26.9
663.834	26.9
664.023	26.85
664.211	27.02
664.399	27.4
664.587	27.56
664.775	27.82
664.963	28.02
665.152	28.32
665.34	28.35
665.528	28.31
665.716	28.08
665.904	27.81
666.092	27.53
666.28	27.22
666.468	26.85
666.656	26.77
666.844	26.62
667.032	26.2
667.22	26.12
667.408	25.94
667.596	25.74
667.784	25.7
667.971	26.01
668.159	26.3
668.347	26.37
668.535	26.56
668.723	26.2
668.911	26.35
669.098	26.49
669.286	26.31
669.474	26.43
669.662	26.31
669.849	26.58
670.037	26.46
670.225	26.54
670.413	26.65
670.6	26.26
670.788	26.63
670.976	26.59
671.163	26.75
671.351	26.65
671.538	26.75
671.726	26.81
671.913	26.87
672.101	26.9
672.289	26.67
672.476	26.64
672.664	26.62
672.851	26.85
673.039	26.95
673.226	26.85
673.413	27.15
673.601	27.02
673.788	27.05
673.976	27.03
674.163	27
674.35	27.02
674.538	26.84
674.725	26.93
674.912	26.82
675.1	26.49
675.287	26.63
675.474	26.61
675.662	26.56
675.849	26.82
676.036	26.63
676.223	26.88
676.411	27.06
676.598	27.31
676.785	27.17
676.972	27.13
677.159	26.98
677.346	26.86
677.533	26.86
677.721	26.9
677.908	26.59
678.095	26.63
678.282	26.45
678.469	26.43
678.656	26.31
678.843	26.62
679.03	26.55
679.217	26.88
679.404	27
679.591	26.85
679.778	27.06
679.964	27.02
680.151	26.96
680.338	27.01
680.525	27.08
680.712	27.14
680.899	27.09
681.086	27.08
681.272	26.93
681.459	26.89
681.646	27.13
681.833	27.1
682.02	27.28
682.206	27.4
682.393	27.23
682.58	27.15
682.766	27.16
682.953	27.17
683.14	27.19
683.326	26.99
683.513	26.83
683.7	26.55
683.886	26.17
684.073	26.24
684.259	26.03
684.446	26.09
684.632	25.79
684.819	25.92
685.005	26.12
685.192	26.09
685.378	26.46
685.565	26.65
685.751	27.1
685.938	27.27
686.124	27.33
686.31	27.42
686.497	27.46
686.683	27.7
686.87	27.83
687.056	27.52
687.242	27.5
687.429	27.54
687.615	27.74
687.801	27.29
687.987	27.35
688.174	27
688.36	26.98
688.546	27.37
688.732	27.3
688.918	26.92
689.105	26.72
689.291	26.93
689.477	26.79
689.663	26.37
689.849	26.27
690.035	26.44
690.221	26.72
690.407	26.64
690.593	26.16
690.779	25.95
690.965	26.46
691.151	26.65
691.337	26.51
691.523	26.51
691.709	26.72
691.895	26.85
692.081	26.75
692.267	26.59
692.453	26.66
692.639	26.67
692.825	26.83
693.011	26.27
693.196	26.4
693.382	26.2
693.568	26.02
693.754	26.13
693.94	26.13
694.125	26.03
694.311	26.13
694.497	26.05
694.682	25.98
694.868	25.88
695.054	25.93
695.239	25.7
695.425	25.9
695.611	26.18
695.796	26.09
695.982	26.08
696.168	26.15
696.353	26.18
696.539	26.42
696.724	26.45
696.91	26.61
697.095	26.82
697.281	26.85
697.466	26.68
697.652	26.7
697.837	26.72
698.023	26.71
698.208	26.46
698.393	26.43
698.579	26.49
698.764	26.65
698.949	26.53
699.135	26.55
699.32	26.66
699.505	26.86
699.691	26.96
699.876	26.68
700.061	26.74
700.246	26.97
700.432	26.9
700.617	26.88
700.802	26.48
700.987	26.56
701.172	25.84
701.358	25.85
701.543	25.47
701.728	25.48
701.913	25.62
702.098	25.77
702.283	25.71
702.468	25.84
702.653	25.8
702.838	26.12
703.023	26.3
703.208	26.96
703.393	26.86
703.578	27.54
703.763	27.23
703.948	27.47
704.133	27.9
704.318	27.9
704.503	27.89
704.688	27.85
704.873	28.29
705.057	28.24
705.242	28.3
705.427	28.73
705.612	28.83
705.797	28.93
705.981	29.1
706.166	28.8
706.351	28.78
706.536	28.79
706.72	28.85
706.905	28.69
707.09	28.67
707.274	28.77
707.459	28.34
707.644	28.22
707.828	28.4
708.013	28.14
708.197	28.08
708.382	28.35
708.567	28.41
708.751	28.13
708.936	27.99
709.12	28.21
709.305	28.26
709.489	28.37
709.673	28.51
709.858	28.39
710.042	28.81
710.227	28.83
710.411	28.66
710.596	28.69
710.78	28.79
710.964	29.06
711.149	29.1
711.333	28.99
711.517	29.05
711.702	28.88
711.886	29.14
712.07	28.89
712.254	28.45
712.438	28.37
712.623	27.81
712.807	28.16
712.991	27.39
713.175	26.96
713.359	26.87
713.544	27.16
713.728	26.81
713.912	26.32
714.096	26.17
714.28	26.5
714.464	26.23
714.648	26.64
714.832	25.83
715.016	26.24
715.2	25.97
715.384	26
715.568	25.43
715.752	25.32
715.936	25.44
716.12	25.3
716.304	24.71
716.488	24.85
716.671	24.65
716.855	25.18
717.039	25.42
717.223	25.4
717.407	24.88
717.59	24.9
717.774	24.68
717.958	24.5
718.142	24.21
718.325	24.92
718.509	25.26
718.693	25.03
718.877	24.93
719.06	24.82
719.244	25.26
719.428	25.33
719.611	25.48
719.795	26.34
719.978	26.59
720.162	26.34
720.345	26.16
720.529	26.13
720.713	26.37
720.896	26
721.08	25.81
721.263	25.44
721.446	25.83
721.63	25.53
721.813	25.06
721.997	24.87
722.18	25.79
722.364	25.61
722.547	25.47
722.73	26.01
722.914	26.28
723.097	26.22
723.28	26.31
723.464	25.77
723.647	26.11
723.83	26.08
724.013	25.85
724.197	25.31
724.38	25.25
724.563	25.24
724.746	24.59
724.929	24.58
725.112	24.23
725.296	24.56
725.479	24.75
725.662	24.55
725.845	23.63
726.028	23.6
726.211	23.95
726.394	23.65
726.577	23.59
726.76	24.6
726.943	24.43
727.126	25.03
727.309	24.36
727.492	25.04
727.675	24.8
727.858	25.26
728.041	25.67
728.224	25.76
728.407	26.06
728.589	26.65
728.772	25.74
728.955	25.78
729.138	25.38
729.321	25.79
729.503	25.41
729.686	25.26
729.869	25.4
730.052	25.18
730.234	25.07
730.417	24.8
730.6	23.62
730.782	23.67
730.965	23.34
731.148	23.56
731.33	23.58
731.513	23.63
731.695	23.88
731.878	23.75
732.061	24.17
732.243	24.43
732.426	25.04
732.608	25.64
732.791	25.98
732.973	26.54
733.156	26.4
733.338	26.74
733.52	27.15
733.703	26.83
733.885	26.69
734.068	26.17
734.25	25.86
734.432	25.35
734.615	25.29
734.797	25.17
734.979	24.89
735.162	24.69
735.344	24.38
735.526	23.54
735.708	24.18
735.891	24.66
736.073	24.86
736.255	24.78
736.437	24.77
736.619	24.5
736.802	24.36
736.984	24.16
737.166	24.41
737.348	24.32
737.53	24.59
737.712	24.32
737.894	24.22
738.076	24.28
738.258	24.38
738.44	24.36
738.622	24.25
738.804	24.31
738.986	24.36
739.168	24.32
739.35	24.31
739.532	23.87
739.714	23.68
739.896	22.89
740.078	22.75
740.259	22.91
740.441	23.18
740.623	23.5
740.805	23.47
740.987	23.99
741.168	23.34
741.35	23.16
741.532	23.98
741.714	23.98
741.895	24.74
742.077	24.58
742.259	24.14
742.44	23.94
742.622	23.5
742.804	23.49
742.985	23.17
743.167	24.06
743.348	24.33
743.53	24.34
743.711	25.12
743.893	25.27
744.075	25.2
744.256	24.83
744.438	24.49
744.619	25.22
744.8	25.18
744.982	25.08
745.163	25
745.345	25.27
745.526	25.04
745.707	24.44
745.889	24.41
746.07	23.67
746.252	24.82
746.433	24.9
746.614	23.76
746.795	23.57
746.977	24.14
747.158	23.87
747.339	23.37
747.52	22.67
747.702	22.46
747.883	22.05
748.064	22.92
748.245	22.14
748.426	21.84
748.607	22.56
748.788	22.55
748.97	21.86
749.151	20.88
749.332	20.94
749.513	21.53
749.694	20.74
749.875	20.36
750.056	20.42
750.237	20.74
750.418	21.62
750.599	21.46
750.78	21.28
750.96	20.91
751.141	22.11
751.322	21.6
751.503	21.53
751.684	22.3
751.865	22.82
752.046	22.36
752.226	21.21
752.407	21.12
752.588	21.59
752.769	21.15
752.949	21.34
753.13	20.98
753.311	22.7
753.492	22.38
753.672	21.36
753.853	21.73
754.034	22.27
754.214	23.32
754.395	22.94
754.575	22.52
754.756	22.8
754.937	22.89
755.117	23.06
755.298	22
755.478	22.48
755.659	23.91
755.839	24.08
756.02	23.67
756.2	23.22
756.381	24.09
756.561	23.49
756.741	24.43
756.922	23.97
757.102	23.8
757.283	23.98
757.463	23.64
757.643	23.38
757.823	23.42
758.004	23.78
758.184	24.09
758.364	23.28
758.545	23.65
758.725	23.03
758.905	24.08
759.085	24.47
759.265	24.43
759.446	25.42
759.626	25.27
759.806	24.66
759.986	24.44
760.166	24.7
760.346	25.92
760.526	26.52
760.706	27.12
760.886	26.33
761.066	26.32
761.246	25.89
761.426	24.93
761.606	24.44
761.786	24.61
761.966	25.03
762.146	24.54
762.326	24.29
762.506	24.13
762.686	23.55
762.866	23.62
763.046	23.33
763.225	23.67
763.405	23.91
763.585	24.12
763.765	23.99
763.945	23.41
764.124	23.97
764.304	23.24
764.484	22.79
764.664	23
764.843	23.13
765.023	23.24
765.203	23.2
765.382	23.23
765.562	23.28
765.741	23.27
765.921	23.18
766.101	22.37
766.28	22.22
766.46	22.11
766.639	22.14
766.819	22.25
766.998	21.47
767.178	21.19
767.357	21.1
767.537	20.59
767.716	20.87
767.896	21.04
768.075	21.39
768.254	21.08
768.434	21.58
768.613	21.05
768.792	20.61
768.972	21.19
769.151	20.61
769.33	20.4
769.51	21.58
769.689	20.36
769.868	21.05
770.047	20.69
770.226	20.83
770.406	20.69
770.585	20.58
770.764	20.15
770.943	20.68
771.122	21.36
771.301	21.68
771.48	20.85
771.66	21.54
771.839	20.57
772.018	19.77
772.197	20.83
772.376	21.35
772.555	22.07
772.734	22.7
772.913	22.21
773.092	22.26
773.271	21
773.449	21.02
773.628	21.3
773.807	21.7
773.986	22.54
774.165	22.28
774.344	21.13
774.523	20.71
774.701	20.25
774.88	21.23
775.059	20.46
775.238	20.67
775.417	21.01
775.595	21.76
775.774	21.14
775.953	21.42
776.131	20.29
776.31	20.29
776.489	20.46
776.667	21.18
776.846	20.34
777.025	20.93
777.203	21.78
777.382	21.38
777.56	19.58
777.739	20.79
777.917	19.85
778.096	20.27
778.274	21.32
778.453	21.63
778.631	21.67
778.81	20.78
778.988	21.04
779.166	21.22
779.345	21.02
779.523	23.36
779.702	22.44
779.88	23.45
780.058	23.59
780.237	23.37
780.415	22.37
780.593	21.94
780.771	22.2
780.95	21.35
781.128	20.27
781.306	21.39
781.484	20.74
781.662	21.7
781.841	21.09
782.019	22.54
782.197	22.73
782.375	23.32
782.553	22.46
782.731	21.72
782.909	22.72
783.087	24.57
783.265	23.34
783.443	21.91
783.621	21.61
783.799	21.49
783.977	19.94
784.155	19.46
784.333	18.88
784.511	19.99
784.689	21.03
784.867	21.15
785.045	19.89
785.223	20.89
785.4	21.86
785.578	21.68
785.756	22.8
785.934	23.84
786.112	23.09
786.289	24.2
786.467	22.96
786.645	23.01
786.823	22.17
787	21.84
787.178	21.69
787.356	21.17
787.533	21.25
787.711	20.89
787.889	19.4
788.066	19.33
788.244	18.43
788.421	19.41
788.599	19.32
788.776	18.71
788.954	18.4
789.131	18.95
789.309	19.4
789.486	19.37
789.664	18.98
789.841	19.68
790.019	20.93
790.196	21.47
790.373	21.05
790.551	20.71
790.728	20.89
790.906	20.78
791.083	20.14
791.26	20.71
791.437	19.7
791.615	18.68
791.792	18.71
791.969	17.27
792.146	16.99
792.324	16.93
792.501	17.55
792.678	19.44
792.855	19.58
793.032	18.82
793.209	18.99
793.387	20.01
793.564	20.44
793.741	20.19
793.918	20.72
794.095	19.55
794.272	19.43
794.449	19.58
794.626	19.1
794.803	20.21
794.98	19.66
795.157	19.19
795.334	18.53
795.511	19.45
795.688	19.85
795.864	19.33
796.041	20.68
796.218	21.58
796.395	21.65
796.572	21.81
796.749	22.98
796.925	24.45
797.102	24.27
797.279	23.92
797.456	23.88
797.632	23.87
797.809	23.62
797.986	23.2
798.162	22.62
798.339	22.25
798.516	21.72
798.692	19.12
798.869	19.16
799.046	18.86
799.222	19.95
799.399	20.2
799.575	20.67
799.752	22.67
799.928	22.22
800.105	22.55
800.281	23.44
800.458	23.57
800.634	25.98
800.811	25.59
800.987	24.98
801.163	23.95
801.34	23.27
801.516	22.7
801.692	20.62
801.869	21.47
802.045	22.04
802.221	21.14
802.398	19.16
802.574	18.26
802.75	16.42
802.926	17.1
803.103	17.03
803.279	16.7
803.455	18.17
803.631	19.32
803.807	19.18
803.983	18.68
804.16	20.03
804.336	21.37
804.512	20.64
804.688	22.92
804.864	23.87
805.04	23.46
805.216	25.05
805.392	22.7
805.568	23.15
805.744	22.84
805.92	22.88
806.096	23.19
806.272	23.05
806.448	22.25
806.623	20.87
806.799	18.69
806.975	19.93
807.151	19.04
807.327	19.64
807.503	20.33
807.678	20.65
807.854	19.5
808.03	18.55
808.206	18.96
808.381	19.26
808.557	19.56
808.733	21.2
808.908	19.6
809.084	19.21
809.26	19.98
809.435	18.05
809.611	17.38
809.787	17.93
809.962	17.89
810.138	18.27
810.313	19.21
810.489	19.38
810.664	18.38
810.84	21.2
811.015	21.5
811.191	21.34
811.366	21.31
811.542	22.58
811.717	23.73
811.892	22.91
812.068	22.97
812.243	21.11
812.419	20.77
812.594	21.19
812.769	19.98
812.944	19.4
813.12	18.91
813.295	19.39
813.47	19.46
813.645	17.97
813.821	17.34
813.996	16.53
814.171	19.06
814.346	19.62
814.521	20.35
814.697	20.29
814.872	21.23
815.047	23.07
815.222	23.03
815.397	22.15
815.572	21.18
815.747	22.57
815.922	23.6
816.097	22.25
816.272	21.87
816.447	19.9
816.622	19.47
816.797	20.71
816.972	18.21
817.147	18.06
817.322	18.38
817.496	19.74
817.671	20.96
817.846	21.77
818.021	24.08
818.196	24.17
818.371	24.83
818.545	25.18
818.72	24.19
818.895	23.97
819.069	24.71
819.244	25.34
819.419	26.02
819.594	25.32
819.768	24.28
819.943	22.16
820.117	22.81
820.292	23.41
820.467	23.54
820.641	23.46
820.816	23.82
820.99	23.61
821.165	22.9
821.339	22.4
821.514	22.04
821.688	22.19
821.863	22.16
822.037	22.33
822.212	21.85
822.386	21.98
822.56	21.72
822.735	22.14
822.909	22.32
823.084	22.31
823.258	22.3
823.432	22.35
823.606	22.31
823.781	22.56
823.955	22.28
824.129	22.84
824.303	22.54
824.478	22.6
824.652	21.66
824.826	20.89
825	21.35
825.174	21.25
825.348	21.13
825.523	20.34
825.697	20.35
825.871	19.72
826.045	19.57
826.219	19.36
826.393	19.89
826.567	20.33
826.741	20.93
826.915	20.39
827.089	20.51
827.263	20.2
827.437	20.54
827.611	20.41
827.784	20.92
827.958	20.69
828.132	20.93
828.306	20.31
828.48	20.26
828.654	20.1
828.827	19.79
829.001	19.65
829.175	19.64
829.349	19.46
829.522	19.08
829.696	18.67
829.87	18.07
830.044	16.59
830.217	17.42
830.391	17.27
830.565	17.22
830.738	17.81
830.912	19.49
831.085	19.92
831.259	20.6
831.432	20.45
831.606	21.25
831.779	21.63
831.953	23.71
832.126	22.21
832.3	22.02
832.473	21.22
832.647	21.04
832.82	20.36
832.994	18.97
833.167	19.67
833.34	20.03
833.514	19.94
833.687	19.94
833.86	19.14
834.034	19.98
834.207	20.15
834.38	20.99
834.553	21.49
834.727	20.67
834.9	22.09
835.073	21.19
835.246	20.82
835.419	21.18
835.593	21.55
835.766	22.43
835.939	21.93
836.112	22.16
836.285	21.23
836.458	19.52
836.631	19.45
836.804	18.83
836.977	18.81
837.15	18.32
837.323	16.59
837.496	15.85
837.669	13.9
837.842	13.94
838.015	10.53
838.188	12.17
838.361	12.95
838.533	15.1
838.706	13.53
838.879	13.11
839.052	13.23
839.225	12.66
839.398	14.93
839.57	15.94
839.743	15.23
839.916	17.54
840.088	16.97
840.261	18.56
840.434	16.34
840.607	17.16
840.779	18.21
840.952	18.57
841.124	19.01
841.297	15.85
841.47	15.45
841.642	17.21
841.815	16.42
841.987	14.29
842.16	12.71
842.332	13.3
842.505	12.09
842.677	10.81
842.85	11.27
843.022	12.25
843.194	13.82
843.367	12.31
843.539	11.17
843.712	12.52
843.884	14.57
844.056	12.3
844.229	13.84
844.401	15.07
844.573	15.42
844.745	13.22
844.918	10.58
845.09	14.66
845.262	14.78
845.434	13.5
845.606	12.27
845.779	10.32
845.951	11.72
846.123	12.6
846.295	13.71
846.467	16.28
846.639	20.73
846.811	20.21
846.983	18.36
847.155	23.36
847.327	22.67
847.499	25.71
847.671	25.59
847.843	27.24
848.015	25.89
848.187	26.94
848.359	24.63
848.531	24.28
848.703	27.67
848.875	26.57
849.047	25.25
849.218	27.95
849.39	29.59
849.562	31.61
849.734	32.17
849.905	32.3
850.077	36.82
850.249	37.34
850.421	39.51
850.592	39.31
850.764	40.36
850.936	37.48
851.107	34.05
851.279	30.6
851.451	25.99
851.622	27.73
851.794	29.67
851.965	25.64
852.137	27.45
852.308	22.33
852.48	23.02
852.651	24.99
852.823	23.14
852.994	23.93
853.166	24.86
853.337	20.5
853.509	16.22
853.68	11.14
853.851	17.92
854.023	16.06
854.194	16.7
854.365	14.96
854.537	12.49
854.708	21.7
854.879	18.57
855.05	16.22
855.222	18.95
855.393	22.01
855.564	23.17
855.735	13.48
855.906	12.2
856.078	11.61
856.249	8.43
856.42	8.43
856.591	0.41
856.762	-0.4
856.933	4.86
857.104	14.4
857.275	18.45
857.446	19.65
857.617	23.1
857.788	27.69
857.959	26.85
858.13	35.09
858.301	33.31
858.472	40.04
858.643	42.32
858.814	38.38
858.985	39.96
859.155	33.51
859.326	36.47
859.497	33.64
859.668	28.35
859.839	30.03
860.009	19.55
860.18	21.02
860.351	13.59
860.522	12.69
860.692	10.81
860.863	7.59
861.034	11.61
861.204	6.39
861.375	7.89
861.546	10.17
861.716	10.93
861.887	20.72
862.057	19.38
862.228	21.68
862.398	18.99
862.569	20.29
862.739	20.27
862.91	19.44
863.08	18.33
863.251	17.12
863.421	15.19
863.592	17.19
863.762	14.98
863.932	14.66
864.103	10.05
864.273	16.49
864.443	19.46
864.614	19.42
864.784	14.36
864.954	15.61
865.125	14.55
865.295	14.72
865.465	12.98
865.635	12.29
865.805	11.45
865.976	19.75
866.146	17.96
866.316	17.28
866.486	17.27
866.656	19.8
866.826	24.23
866.996	20.37
867.166	26.42
867.336	26.36
867.506	29.68
867.676	30.18
867.846	24.63
868.016	30.25
868.186	30.12
868.356	28.59
868.526	27.61
868.696	23.42
868.866	30.81
869.036	32.07
869.206	33.29
869.376	27.17
869.545	32.39
869.715	32.52
869.885	25.86
870.055	23.02
870.224	22.77
870.394	28.1
870.564	26.77
870.734	26.27
870.903	21.01
871.073	17.5
871.243	18.89
871.412	16.24
871.582	15.45
871.751	14.72
871.921	15.53
872.091	9.58
872.26	3.89
872.43	7.1
872.599	9.54
872.769	13.46
872.938	17.94
873.108	18.8
873.277	16.79
873.446	12.96
873.616	14.32
873.785	15.16
873.955	22.29
874.124	20.97
874.293	18.22
874.463	15.02
874.632	13.65
874.801	12.87
874.971	15.13
875.14	15.54
875.309	18.81
875.478	21.64
875.647	17.99
875.817	20.85
875.986	21.33
876.155	24.93
876.324	24.62
876.493	19.03
876.662	16.92
876.831	14.6
877	13.97
877.17	5.89
877.339	2.91
877.508	9.14
877.677	5.94
877.846	10.34
878.015	10.7
878.184	6.47
878.352	8.54
878.521	6.39
878.69	1.39
878.859	4.12
879.028	14.18
879.197	10.52
879.366	8.41
879.534	7.73
879.703	7.46
879.872	6.66
880.041	9.57
880.21	11.93
880.378	11.22
880.547	13.15
880.716	14.19
880.884	14.38
881.053	16.18
881.222	16.47
881.39	17.68
881.559	17.9
881.727	17.93
881.896	17.87
882.065	17.53
882.233	18.49
882.402	19.03
882.57	19.15
882.739	19.03
882.907	19.66
883.076	19.52
883.244	19.69
883.412	19.99
883.581	20.98
883.749	21.79
883.918	21.33
884.086	21.26
884.254	21.37
884.423	21
884.591	20.93
884.759	19.76
884.927	20.74
885.096	19.36
885.264	19.78
885.432	18.16
885.6	16.6
885.769	18.93
885.937	17.1
886.105	14.75
886.273	13.16
886.441	11.81
886.609	11.59
886.777	9.92
886.945	7.06
887.113	2.09
887.281	1.57
887.449	3.17
887.617	3.22
887.785	6.57
887.953	10.23
888.121	7.6
888.289	6.77
888.457	8.91
888.625	11.56
888.793	14.07
888.961	16.84
889.129	19.01
889.296	14.9
889.464	11.5
889.632	11.06
889.8	6.13
889.967	14.55
890.135	16.9
