Data from 2938845__Reflection_03.txt Node
Date: Wed Mar 11 14:15:16 EDT 2015
User: robert
Spectrometer: USB4E03002
Autoset integration time: false
Trigger mode: 4
Integration Time (sec): 1.000000E-1
Scans to average: 10
Electric dark correction enabled: false
Nonlinearity correction enabled: false
Boxcar width: 5
Stray light correction enabled: false
XAxis mode: Wavelengths
Stop averaging: false
Number of Pixels in Spectrum: 3648
>>>>>Begin Spectral Data<<<<<
177.575	-722.22
177.794	481.25
178.014	127.4
178.233	155.88
178.452	83.21
178.672	25
178.891	24.32
179.11	33.55
179.33	34.64
179.549	27.81
179.768	40.87
179.987	-9.59
180.207	8.27
180.426	62.78
180.645	114.83
180.864	80.7
181.084	88.3
181.303	-35.71
181.522	-43.36
181.741	-122.49
181.96	-190.78
182.179	-603.45
182.398	-380
182.618	556.04
182.837	887.69
183.056	1595.74
183.275	267.86
183.494	202.85
183.713	280.61
183.932	160.68
184.151	136.26
184.37	166.33
184.589	284.11
184.808	320.44
185.027	-697.62
185.246	-84.44
185.465	46.49
185.684	21.06
185.903	-20.46
186.122	3.39
186.341	15.27
186.56	5.85
186.779	7.54
186.998	15.93
187.216	28.89
187.435	27.61
187.654	9.04
187.873	2.06
188.092	18.27
188.311	23.15
188.53	28.58
188.748	22.17
188.967	30.51
189.186	36.77
189.405	39.13
189.623	41.39
189.842	32.22
190.061	46.98
190.28	49.27
190.498	35.88
190.717	46.63
190.936	34.42
191.154	31.32
191.373	33.13
191.592	10.57
191.81	6.5
192.029	-20.71
192.248	-29.79
192.466	-84.89
192.685	-120.33
192.904	-160.07
193.122	-135.24
193.341	-341.26
193.559	-322
193.778	-596.3
193.996	-191.04
194.215	-145.12
194.433	-49.51
194.652	-37
194.87	-56.16
195.089	-31.85
195.307	-9.89
195.526	-48.46
195.744	15.85
195.963	27.74
196.181	38.8
196.399	36.52
196.618	44.79
196.836	68.12
197.055	71.91
197.273	81.99
197.491	94.1
197.71	106.85
197.928	87.06
198.146	68.09
198.365	60.17
198.583	40.73
198.801	42.97
199.019	34.42
199.238	30.18
199.456	32.65
199.674	17.36
199.892	45.04
200.111	48.92
200.329	44.42
200.547	53
200.765	55.83
200.983	41.17
201.202	46.91
201.42	55
201.638	44.25
201.856	24.25
202.074	16.71
202.292	-24.74
202.51	-55.03
202.728	-68.93
202.946	-63.33
203.165	-96.08
203.383	-58.18
203.601	-125.7
203.819	-171.78
204.037	-220.5
204.255	-115.02
204.473	-142.28
204.691	-113.1
204.909	-108.74
205.127	-125
205.345	-157.37
205.562	-109.14
205.78	-101.72
205.998	-124.02
206.216	-123.9
206.434	-35.71
206.652	-25.07
206.87	-7.96
207.088	18.28
207.306	11.75
207.523	23.31
207.741	21.06
207.959	31.82
208.177	25.81
208.395	22.83
208.612	12.33
208.83	0.8
209.048	-0.43
209.266	13.92
209.483	-36.75
209.701	-45.11
209.919	-14.39
210.136	-7.94
210.354	0
210.572	3.89
210.79	4.8
211.007	-11.17
211.225	-11.95
211.442	-8.88
211.66	-26.94
211.878	-14.12
212.095	6.91
212.313	-25.44
212.53	-22.55
212.748	-13.38
212.966	-12.62
213.183	-18.87
213.401	-0.69
213.618	-4.94
213.836	9.1
214.053	8.48
214.271	3.2
214.488	-7.51
214.705	-2.74
214.923	-14.58
215.14	-44.6
215.358	-42.44
215.575	-24.09
215.793	-23.05
216.01	-23.04
216.227	-25.39
216.445	-14.73
216.662	-9.65
216.879	-3.46
217.097	7.8
217.314	12.64
217.531	21.08
217.749	17.11
217.966	18.09
218.183	16.89
218.4	7.44
218.618	-1.38
218.835	3.94
219.052	2.21
219.269	0.07
219.487	-0.89
219.704	-1.41
219.921	4.82
220.138	11.7
220.355	5.25
220.572	-0.49
220.79	9.53
221.007	9.43
221.224	-3.26
221.441	-2.97
221.658	1.43
221.875	0
222.092	6.44
222.309	0.79
222.526	0.71
222.743	-1.87
222.96	-1.24
223.177	-2.36
223.394	-4.57
223.611	-0.67
223.828	3.92
224.045	5.71
224.262	5.54
224.479	6.96
224.696	12.44
224.913	17.43
225.13	20
225.347	17.25
225.564	15.14
225.781	15.92
225.997	16.56
226.214	15.18
226.431	14.57
226.648	12.94
226.865	10.1
227.082	9.09
227.298	7.55
227.515	5.88
227.732	5.76
227.949	5.98
228.165	5.87
228.382	5.42
228.599	5.78
228.816	5.47
229.032	5.8
229.249	5.47
229.466	4.55
229.682	3.72
229.899	4.13
230.116	4.78
230.332	4.28
230.549	3.8
230.765	3.26
230.982	2.97
231.199	2.31
231.415	2.53
231.632	2.89
231.848	2.62
232.065	3.42
232.281	2.97
232.498	1.82
232.714	0.8
232.931	1.7
233.147	2.57
233.364	1.67
233.58	2.01
233.797	1.34
234.013	1.68
234.23	2.34
234.446	1.96
234.662	1.62
234.879	1.34
235.095	2.93
235.312	3.59
235.528	1.77
235.744	2.56
235.961	2.63
236.177	2
236.393	1.78
236.61	2.81
236.826	3.72
237.042	4.03
237.258	3.11
237.475	2.17
237.691	0.59
237.907	2.49
238.123	0.47
238.339	1.64
238.556	2.04
238.772	2.4
238.988	1.7
239.204	0.88
239.42	1.97
239.636	4.37
239.853	4.69
240.069	4.37
240.285	4.25
240.501	6.16
240.717	5.53
240.933	4.97
241.149	4.77
241.365	4.48
241.581	4.14
241.797	3.51
242.013	3.43
242.229	3.78
242.445	4.02
242.661	3.87
242.877	3.24
243.093	2.84
243.309	2.63
243.525	2.91
243.741	3.46
243.957	3.35
244.173	3.47
244.388	3.29
244.604	2.72
244.82	1.75
245.036	1.71
245.252	2.11
245.468	2.7
245.683	3.36
245.899	3.23
246.115	3.06
246.331	3.2
246.547	3.21
246.762	3.24
246.978	3.2
247.194	3.64
247.409	4.01
247.625	3.97
247.841	3.63
248.057	3.69
248.272	3.49
248.488	3.52
248.703	4.17
248.919	4.25
249.135	4.45
249.35	4.8
249.566	4.97
249.782	4.88
249.997	4.6
250.213	5.09
250.428	4.77
250.644	4.97
250.859	4.71
251.075	4.41
251.29	4.59
251.506	4.72
251.721	5.07
251.937	4.97
252.152	5
252.368	5.32
252.583	5.58
252.798	5.46
253.014	5.96
253.229	6.12
253.445	6.06
253.66	5.73
253.875	5.53
254.091	4.49
254.306	4.53
254.521	4.28
254.737	4.39
254.952	3.95
255.167	3.91
255.383	3.54
255.598	3.2
255.813	2.64
256.028	3.44
256.244	3.49
256.459	3.8
256.674	3.47
256.889	2.95
257.104	2.99
257.32	2.46
257.535	2.2
257.75	2.09
257.965	2.52
258.18	2.27
258.395	2.42
258.61	2.21
258.826	2.47
259.041	2.65
259.256	2.73
259.471	2.7
259.686	3
259.901	3.28
260.116	3.35
260.331	3.23
260.546	3.52
260.761	3.24
260.976	3.18
261.191	3.12
261.406	3.22
261.621	3.28
261.836	3.34
262.05	2.69
262.265	2.24
262.48	2.05
262.695	1.63
262.91	1.13
263.125	1.02
263.34	1.31
263.555	1.22
263.769	0.6
263.984	0.12
264.199	-0.66
264.414	0.39
264.629	0.49
264.843	0.56
265.058	1.33
265.273	1.22
265.488	1.12
265.702	1
265.917	1.7
266.132	1.9
266.346	2.28
266.561	2.59
266.776	2.54
266.99	2.64
267.205	2.11
267.42	2
267.634	1.96
267.849	2.28
268.063	2.34
268.278	1.91
268.492	2.32
268.707	2.22
268.922	1.98
269.136	1.6
269.351	1.5
269.565	1.75
269.78	1.83
269.994	1.99
270.209	2.11
270.423	2.14
270.637	2.48
270.852	2.1
271.066	2.43
271.281	2.7
271.495	2.93
271.709	2.76
271.924	3.16
272.138	3.08
272.353	3.12
272.567	3.09
272.781	3.14
272.996	2.65
273.21	2.81
273.424	2.91
273.638	2.86
273.853	3.17
274.067	3.71
274.281	3.84
274.495	3.58
274.71	3.56
274.924	3.4
275.138	3.5
275.352	4.01
275.566	4.06
275.781	3.69
275.995	3.55
276.209	3.41
276.423	3.11
276.637	2.74
276.851	2.99
277.065	3.16
277.279	3.03
277.493	3.11
277.707	3.05
277.921	3.15
278.135	3.1
278.349	3.08
278.563	2.71
278.777	2.65
278.991	2.62
279.205	2.84
279.419	2.69
279.633	3.14
279.847	3.27
280.061	2.98
280.275	3.1
280.489	2.98
280.703	3.26
280.917	3.72
281.131	3.69
281.344	3.84
281.558	3.71
281.772	3.59
281.986	3.32
282.2	2.94
282.414	2.93
282.627	2.48
282.841	2.57
283.055	2.68
283.269	2.68
283.482	2.83
283.696	2.73
283.91	2.5
284.123	2.53
284.337	2.53
284.551	2.72
284.764	2.73
284.978	2.85
285.192	2.93
285.405	2.77
285.619	2.51
285.833	2.43
286.046	2.61
286.26	2.84
286.473	2.93
286.687	2.88
286.9	2.96
287.114	3.21
287.327	3.31
287.541	3.29
287.754	3.26
287.968	3.3
288.181	3.38
288.395	3.08
288.608	2.92
288.822	2.73
289.035	2.68
289.248	2.56
289.462	2.36
289.675	2.36
289.889	2.27
290.102	2.39
290.315	2.27
290.529	2.45
290.742	2.65
290.955	2.58
291.169	2.81
291.382	3.16
291.595	3.09
291.808	3.4
292.022	3.17
292.235	2.94
292.448	2.79
292.661	3.04
292.875	2.55
293.088	2.67
293.301	2.7
293.514	2.59
293.727	2.42
293.94	2.63
294.153	2.43
294.367	2.78
294.58	3.28
294.793	3.28
295.006	2.93
295.219	3.13
295.432	2.96
295.645	3.08
295.858	3.12
296.071	2.93
296.284	3.03
296.497	2.84
296.71	2.92
296.923	2.86
297.136	2.8
297.349	2.95
297.562	3.04
297.775	3.15
297.988	3.2
298.201	3.16
298.414	3.55
298.626	3.3
298.839	3.37
299.052	3.39
299.265	3.37
299.478	3.6
299.691	3.8
299.903	3.72
300.116	3.58
300.329	3.6
300.542	3.64
300.755	3.58
300.967	4.05
301.18	4.17
301.393	3.87
301.605	4.41
301.818	4.53
302.031	4.77
302.243	4.98
302.456	5.22
302.669	5.2
302.881	5.41
303.094	5.36
303.307	4.99
303.519	5.1
303.732	5.22
303.944	4.65
304.157	4.69
304.37	4.46
304.582	4.31
304.795	4.17
305.007	4.14
305.22	4.51
305.432	4.75
305.645	5.22
305.857	5.09
306.069	5.27
306.282	5.63
306.494	5.71
306.707	5.84
306.919	6.4
307.132	6.17
307.344	6.37
307.556	5.82
307.769	5.35
307.981	5.06
308.193	5.27
308.406	5.4
308.618	5.4
308.83	5.2
309.043	5.1
309.255	4.82
309.467	4.85
309.679	4.75
309.892	5
310.104	5.53
310.316	5.53
310.528	5.68
310.74	5.48
310.953	5.37
311.165	5.41
311.377	5.6
311.589	5.51
311.801	5.77
312.013	5.91
312.225	5.65
312.437	5.55
312.649	5.76
312.862	5.57
313.074	5.88
313.286	5.74
313.498	5.84
313.71	5.82
313.922	6
314.134	5.97
314.346	5.98
314.558	6.39
314.77	6.05
314.982	5.9
315.193	5.83
315.405	5.54
315.617	5.6
315.829	5.27
316.041	5.24
316.253	4.95
316.465	5.05
316.677	4.98
316.888	4.99
317.1	5.37
317.312	5.5
317.524	5.81
317.736	5.62
317.947	6
318.159	6.7
318.371	6.27
318.583	6.71
318.794	6.61
319.006	6.77
319.218	6.74
319.43	6.28
319.641	6.14
319.853	5.6
320.064	5.93
320.276	5.79
320.488	5.37
320.699	5.69
320.911	5.94
321.123	5.99
321.334	5.75
321.546	5.84
321.757	6.15
321.969	6.4
322.18	6.97
322.392	6.9
322.603	6.66
322.815	6.8
323.026	6.8
323.238	6.46
323.449	6.71
323.661	6.93
323.872	6.98
324.083	7.07
324.295	7.22
324.506	7.04
324.718	7
324.929	7.03
325.14	6.99
325.352	7.04
325.563	7.42
325.774	7.16
325.986	6.79
326.197	6.78
326.408	6.52
326.62	6.31
326.831	6.66
327.042	6.81
327.253	7.09
327.464	7.02
327.676	7.21
327.887	6.98
328.098	7.19
328.309	7.64
328.52	7.32
328.732	7.39
328.943	7.52
329.154	7.41
329.365	7.51
329.576	7.78
329.787	7.96
329.998	7.83
330.209	8.01
330.42	7.92
330.631	7.78
330.842	8.26
331.053	8.31
331.264	8.2
331.475	8.17
331.686	8.36
331.897	8.13
332.108	7.96
332.319	8.18
332.53	8.02
332.741	8.15
332.952	8.13
333.163	8.13
333.374	8.41
333.585	8.44
333.795	8.42
334.006	8.41
334.217	8.39
334.428	8.76
334.639	8.78
334.849	8.83
335.06	8.83
335.271	8.81
335.482	8.92
335.692	8.53
335.903	8.51
336.114	8.57
336.325	8.41
336.535	8.34
336.746	8.14
336.957	8.13
337.167	7.99
337.378	7.82
337.589	8.31
337.799	7.97
338.01	8.26
338.22	8.46
338.431	8.41
338.642	8.33
338.852	8.23
339.063	8.32
339.273	8.11
339.484	8.24
339.694	8.46
339.905	8.09
340.115	8.33
340.326	8.58
340.536	8.34
340.746	8.49
340.957	8.41
341.167	8.81
341.378	8.86
341.588	9.01
341.799	9.05
342.009	8.98
342.219	8.94
342.43	9.07
342.64	8.83
342.85	8.67
343.061	8.69
343.271	8.81
343.481	8.59
343.691	8.57
343.902	8.78
344.112	8.85
344.322	8.85
344.532	8.82
344.743	8.53
344.953	8.41
345.163	8.81
345.373	8.79
345.583	8.86
345.793	8.96
346.004	8.95
346.214	8.38
346.424	8.4
346.634	8.37
346.844	8.45
347.054	8.48
347.264	8.28
347.474	7.96
347.684	7.95
347.894	7.83
348.104	7.46
348.314	7.2
348.524	7.61
348.734	7.47
348.944	7.56
349.154	7.58
349.364	7.45
349.574	7.9
349.784	8.06
349.994	7.91
350.204	7.97
350.413	8.2
350.623	8.27
350.833	8.17
351.043	7.75
351.253	7.62
351.463	7.88
351.672	7.91
351.882	7.96
352.092	7.9
352.302	7.85
352.511	7.99
352.721	7.91
352.931	8.07
353.141	7.98
353.35	8.35
353.56	8.44
353.77	8.3
353.979	8.48
354.189	8.32
354.399	8.14
354.608	8.44
354.818	8.35
355.027	8.66
355.237	8.44
355.447	8.46
355.656	8.38
355.866	7.92
356.075	7.9
356.285	7.93
356.494	8.13
356.704	8.48
356.913	8.58
357.123	8.45
357.332	8.25
357.542	8.32
357.751	8.46
357.96	8.51
358.17	8.76
358.379	8.75
358.589	8.37
358.798	8.26
359.007	8.01
359.217	7.77
359.426	8.11
359.635	8.19
359.845	8.21
360.054	8.11
360.263	8.21
360.472	8.23
360.682	8.06
360.891	8.43
361.1	8.43
361.309	8.44
361.519	8.31
361.728	8.08
361.937	8.04
362.146	8.16
362.355	8.2
362.564	8.15
362.774	8.24
362.983	8.37
363.192	8.34
363.401	8.44
363.61	8.64
363.819	8.61
364.028	8.63
364.237	8.48
364.446	8.57
364.655	8.58
364.864	8.58
365.073	8.53
365.282	8.61
365.491	8.6
365.7	8.14
365.909	8
366.118	8.02
366.327	8.16
366.536	8.34
366.745	7.96
366.954	7.84
367.162	7.86
367.371	7.6
367.58	7.37
367.789	7.43
367.998	7.56
368.207	7.41
368.415	7.31
368.624	7.1
368.833	7.09
369.042	7.17
369.25	7.13
369.459	6.94
369.668	7.28
369.877	7.31
370.085	7.01
370.294	7.21
370.503	7.13
370.711	7.09
370.92	7
371.129	6.97
371.337	6.95
371.546	6.78
371.754	6.76
371.963	6.67
372.171	6.46
372.38	6.45
372.589	6.13
372.797	6.21
373.006	6.37
373.214	6.52
373.423	6.45
373.631	6.33
373.84	6.68
374.048	6.74
374.256	6.9
374.465	6.92
374.673	7.03
374.882	7.17
375.09	7.18
375.298	7.09
375.507	6.84
375.715	6.84
375.923	6.81
376.132	6.43
376.34	6.39
376.548	6.09
376.757	6.22
376.965	6.17
377.173	6.24
377.381	6.15
377.59	6.17
377.798	6.39
378.006	6.46
378.214	6.72
378.423	6.92
378.631	6.89
378.839	7.01
379.047	7.02
379.255	7.05
379.463	6.83
379.671	6.84
379.879	6.74
380.088	6.66
380.296	6.56
380.504	6.5
380.712	6.47
380.92	6.36
381.128	6.15
381.336	6.26
381.544	6.29
381.752	6.44
381.96	6.48
382.168	6.5
382.376	6.23
382.584	6.23
382.791	6.05
382.999	5.76
383.207	5.89
383.415	6.04
383.623	5.64
383.831	5.55
384.039	5.63
384.247	5.39
384.454	5.62
384.662	5.84
384.87	5.84
385.078	5.88
385.285	6.13
385.493	6.01
385.701	5.81
385.909	6.15
386.116	6.05
386.324	5.92
386.532	6.14
386.739	5.89
386.947	5.81
387.155	5.79
387.362	5.76
387.57	5.59
387.778	5.64
387.985	5.74
388.193	5.65
388.4	5.49
388.608	5.44
388.816	5.46
389.023	5.38
389.231	5.31
389.438	5.18
389.646	5.14
389.853	5.26
390.061	5.22
390.268	5.11
390.475	5.07
390.683	5.38
390.89	5.25
391.098	5.02
391.305	5.17
391.512	5.06
391.72	5.16
391.927	5.07
392.135	5.02
392.342	5.05
392.549	5.06
392.756	5.03
392.964	4.91
393.171	5.1
393.378	5.23
393.586	5.14
393.793	5.21
394	5.05
394.207	5.18
394.414	5.25
394.622	5.16
394.829	5.13
395.036	5.07
395.243	5.06
395.45	4.99
395.657	5.03
395.864	5.06
396.072	5.04
396.279	5.24
396.486	5.1
396.693	5.09
396.9	5.14
397.107	5.15
397.314	5.3
397.521	5.22
397.728	5.05
397.935	5.1
398.142	5.05
398.349	5.09
398.556	4.91
398.763	4.91
398.97	4.92
399.177	4.99
399.383	5.03
399.59	4.97
399.797	5.06
400.004	5.18
400.211	4.96
400.418	4.95
400.625	5.12
400.831	5.23
401.038	5.13
401.245	5.12
401.452	4.94
401.658	5.22
401.865	4.96
402.072	4.84
402.279	4.78
402.485	4.83
402.692	4.81
402.899	4.63
403.105	4.64
403.312	4.82
403.519	4.8
403.725	4.92
403.932	4.66
404.138	4.67
404.345	4.78
404.552	4.69
404.758	4.69
404.965	4.76
405.171	4.7
405.378	4.82
405.584	4.71
405.791	4.65
405.997	4.77
406.204	4.79
406.41	4.92
406.617	4.79
406.823	4.86
407.029	4.93
407.236	4.91
407.442	5.06
407.649	4.96
407.855	4.97
408.061	5.01
408.268	4.95
408.474	4.81
408.68	4.87
408.887	4.9
409.093	4.96
409.299	4.85
409.505	4.71
409.712	4.56
409.918	4.58
410.124	4.73
410.33	4.68
410.537	4.58
410.743	4.76
410.949	4.68
411.155	4.62
411.361	4.67
411.567	4.8
411.773	4.89
411.98	4.96
412.186	4.82
412.392	4.74
412.598	4.97
412.804	4.85
413.01	4.8
413.216	4.88
413.422	4.97
413.628	4.8
413.834	4.56
414.04	4.63
414.246	4.64
414.452	4.7
414.658	4.63
414.864	4.45
415.07	4.55
415.275	4.55
415.481	4.64
415.687	4.61
415.893	4.75
416.099	4.77
416.305	4.72
416.511	4.66
416.716	4.63
416.922	4.65
417.128	4.61
417.334	4.72
417.539	4.7
417.745	4.64
417.951	4.72
418.157	4.67
418.362	4.71
418.568	4.67
418.774	4.63
418.979	4.63
419.185	4.61
419.391	4.6
419.596	4.51
419.802	4.5
420.008	4.44
420.213	4.37
420.419	4.33
420.624	4.36
420.83	4.35
421.035	4.39
421.241	4.45
421.446	4.43
421.652	4.51
421.857	4.55
422.063	4.57
422.268	4.57
422.474	4.55
422.679	4.6
422.885	4.55
423.09	4.61
423.295	4.59
423.501	4.48
423.706	4.53
423.911	4.46
424.117	4.44
424.322	4.51
424.527	4.57
424.733	4.69
424.938	4.65
425.143	4.62
425.349	4.6
425.554	4.63
425.759	4.72
425.964	4.63
426.169	4.65
426.375	4.57
426.58	4.43
426.785	4.33
426.99	4.31
427.195	4.33
427.4	4.35
427.605	4.33
427.811	4.34
428.016	4.22
428.221	4.35
428.426	4.33
428.631	4.46
428.836	4.55
429.041	4.63
429.246	4.5
429.451	4.52
429.656	4.64
429.861	4.61
430.066	4.59
430.271	4.62
430.476	4.63
430.681	4.51
430.886	4.49
431.09	4.37
431.295	4.34
431.5	4.36
431.705	4.36
431.91	4.25
432.115	4.32
432.32	4.43
432.524	4.47
432.729	4.32
432.934	4.36
433.139	4.37
433.343	4.49
433.548	4.47
433.753	4.5
433.958	4.51
434.162	4.58
434.367	4.54
434.572	4.46
434.776	4.5
434.981	4.63
435.186	4.64
435.39	4.62
435.595	4.58
435.799	4.61
436.004	4.54
436.209	4.51
436.413	4.38
436.618	4.44
436.822	4.53
437.027	4.43
437.231	4.39
437.436	4.47
437.64	4.51
437.845	4.5
438.049	4.45
438.253	4.47
438.458	4.48
438.662	4.57
438.867	4.54
439.071	4.49
439.275	4.52
439.48	4.56
439.684	4.5
439.888	4.45
440.093	4.48
440.297	4.5
440.501	4.51
440.706	4.48
440.91	4.51
441.114	4.49
441.318	4.46
441.523	4.49
441.727	4.51
441.931	4.52
442.135	4.54
442.339	4.5
442.543	4.46
442.748	4.43
442.952	4.43
443.156	4.32
443.36	4.32
443.564	4.34
443.768	4.32
443.972	4.24
444.176	4.26
444.38	4.18
444.584	4.16
444.788	4.16
444.992	4.19
445.196	4.25
445.4	4.3
445.604	4.38
445.808	4.36
446.012	4.33
446.216	4.28
446.42	4.31
446.624	4.37
446.828	4.36
447.032	4.38
447.235	4.37
447.439	4.36
447.643	4.34
447.847	4.24
448.051	4.21
448.254	4.2
448.458	4.22
448.662	4.27
448.866	4.31
449.069	4.38
449.273	4.42
449.477	4.43
449.681	4.41
449.884	4.45
450.088	4.55
450.292	4.66
450.495	4.72
450.699	4.85
450.902	4.81
451.106	4.78
451.31	4.7
451.513	4.74
451.717	4.76
451.92	4.73
452.124	4.76
452.327	4.74
452.531	4.66
452.734	4.59
452.938	4.51
453.141	4.42
453.345	4.41
453.548	4.53
453.752	4.47
453.955	4.38
454.158	4.42
454.362	4.39
454.565	4.32
454.769	4.32
454.972	4.46
455.175	4.54
455.379	4.54
455.582	4.48
455.785	4.33
455.988	4.38
456.192	4.48
456.395	4.47
456.598	4.41
456.801	4.5
457.005	4.57
457.208	4.58
457.411	4.43
457.614	4.5
457.817	4.62
458.021	4.66
458.224	4.56
458.427	4.44
458.63	4.37
458.833	4.41
459.036	4.33
459.239	4.28
459.442	4.24
459.645	4.22
459.848	4.26
460.051	4.17
460.254	4.19
460.457	4.18
460.66	4.24
460.863	4.26
461.066	4.22
461.269	4.23
461.472	4.27
461.675	4.22
461.878	4.24
462.081	4.12
462.284	4.16
462.486	4.12
462.689	4.21
462.892	4.19
463.095	4.22
463.298	4.33
463.5	4.41
463.703	4.32
463.906	4.22
464.109	4.22
464.311	4.24
464.514	4.17
464.717	4.15
464.92	4.03
465.122	4.04
465.325	4.01
465.528	3.9
465.73	3.9
465.933	3.87
466.135	3.98
466.338	4.08
466.541	4.04
466.743	4.02
466.946	4
467.148	4.14
467.351	4.18
467.553	4.21
467.756	4.28
467.958	4.27
468.161	4.26
468.363	4.22
468.566	4.13
468.768	4.18
468.971	4.28
469.173	4.3
469.375	4.16
469.578	4.16
469.78	4.16
469.983	4.17
470.185	4.06
470.387	4.16
470.59	4.16
470.792	4.22
470.994	4.29
471.196	4.26
471.399	4.37
471.601	4.44
471.803	4.38
472.005	4.38
472.208	4.36
472.41	4.44
472.612	4.39
472.814	4.43
473.016	4.49
473.218	4.4
473.421	4.46
473.623	4.29
473.825	4.36
474.027	4.38
474.229	4.34
474.431	4.34
474.633	4.39
474.835	4.39
475.037	4.35
475.239	4.36
475.441	4.35
475.643	4.3
475.845	4.41
476.047	4.36
476.249	4.37
476.451	4.39
476.653	4.45
476.855	4.36
477.057	4.35
477.258	4.32
477.46	4.26
477.662	4.29
477.864	4.29
478.066	4.3
478.268	4.3
478.469	4.27
478.671	4.33
478.873	4.22
479.075	4.27
479.276	4.31
479.478	4.31
479.68	4.28
479.882	4.32
480.083	4.32
480.285	4.3
480.487	4.27
480.688	4.27
480.89	4.26
481.091	4.28
481.293	4.26
481.495	4.27
481.696	4.33
481.898	4.35
482.099	4.28
482.301	4.29
482.502	4.28
482.704	4.31
482.905	4.29
483.107	4.28
483.308	4.32
483.51	4.3
483.711	4.28
483.913	4.3
484.114	4.29
484.315	4.31
484.517	4.32
484.718	4.32
484.92	4.29
485.121	4.29
485.322	4.27
485.524	4.23
485.725	4.25
485.926	4.23
486.127	4.19
486.329	4.18
486.53	4.16
486.731	4.16
486.932	4.15
487.134	4.17
487.335	4.17
487.536	4.17
487.737	4.17
487.938	4.17
488.139	4.16
488.341	4.16
488.542	4.2
488.743	4.22
488.944	4.22
489.145	4.21
489.346	4.23
489.547	4.27
489.748	4.32
489.949	4.36
490.15	4.37
490.351	4.43
490.552	4.41
490.753	4.41
490.954	4.41
491.155	4.42
491.356	4.46
491.557	4.44
491.758	4.43
491.959	4.4
492.159	4.4
492.36	4.4
492.561	4.37
492.762	4.38
492.963	4.38
493.164	4.38
493.364	4.41
493.565	4.43
493.766	4.44
493.967	4.45
494.167	4.51
494.368	4.47
494.569	4.48
494.769	4.48
494.97	4.55
495.171	4.51
495.371	4.5
495.572	4.45
495.773	4.37
495.973	4.37
496.174	4.39
496.375	4.37
496.575	4.44
496.776	4.48
496.976	4.57
497.177	4.52
497.377	4.58
497.578	4.55
497.778	4.56
497.979	4.5
498.179	4.56
498.38	4.59
498.58	4.62
498.78	4.58
498.981	4.5
499.181	4.36
499.382	4.41
499.582	4.4
499.782	4.43
499.983	4.43
500.183	4.51
500.383	4.42
500.584	4.4
500.784	4.36
500.984	4.37
501.184	4.46
501.385	4.57
501.585	4.62
501.785	4.62
501.985	4.65
502.185	4.76
502.386	4.84
502.586	4.95
502.786	5
502.986	4.98
503.186	5
503.386	5.03
503.586	5.06
503.786	5.04
503.987	5.09
504.187	5.04
504.387	5.02
504.587	4.94
504.787	4.95
504.987	5.01
505.187	5.06
505.387	5.15
505.587	5.15
505.786	5.13
505.986	5.18
506.186	5.17
506.386	5.25
506.586	5.28
506.786	5.35
506.986	5.26
507.186	5.21
507.386	5.29
507.585	5.18
507.785	5.26
507.985	5.33
508.185	5.31
508.384	5.39
508.584	5.49
508.784	5.45
508.984	5.5
509.183	5.63
509.383	5.61
509.583	5.61
509.782	5.67
509.982	5.68
510.182	5.68
510.381	5.73
510.581	5.75
510.781	5.66
510.98	5.73
511.18	5.8
511.379	5.79
511.579	5.83
511.778	5.86
511.978	5.96
512.177	5.96
512.377	6.08
512.576	6.11
512.776	6.06
512.975	6.19
513.175	6.25
513.374	6.23
513.573	6.32
513.773	6.4
513.972	6.46
514.172	6.43
514.371	6.38
514.57	6.27
514.77	6.29
514.969	6.35
515.168	6.42
515.367	6.46
515.567	6.56
515.766	6.61
515.965	6.62
516.164	6.67
516.364	6.79
516.563	6.93
516.762	7.13
516.961	7.27
517.16	7.33
517.359	7.33
517.559	7.43
517.758	7.42
517.957	7.4
518.156	7.45
518.355	7.47
518.554	7.48
518.753	7.58
518.952	7.56
519.151	7.61
519.35	7.67
519.549	7.75
519.748	7.78
519.947	7.92
520.146	8.04
520.345	8.21
520.544	8.29
520.743	8.42
520.942	8.5
521.141	8.59
521.339	8.63
521.538	8.73
521.737	8.76
521.936	8.78
522.135	8.79
522.333	8.83
522.532	8.79
522.731	8.9
522.93	8.96
523.129	9.02
523.327	9.08
523.526	9.16
523.725	9.17
523.923	9.25
524.122	9.35
524.321	9.46
524.519	9.48
524.718	9.62
524.917	9.68
525.115	9.73
525.314	9.77
525.512	9.87
525.711	9.87
525.909	9.98
526.108	10.11
526.306	10.16
526.505	10.25
526.703	10.4
526.902	10.45
527.1	10.53
527.299	10.57
527.497	10.66
527.696	10.69
527.894	10.81
528.092	10.87
528.291	10.9
528.489	10.99
528.688	11.03
528.886	11.08
529.084	11.14
529.283	11.19
529.481	11.26
529.679	11.32
529.877	11.37
530.076	11.43
530.274	11.48
530.472	11.57
530.67	11.64
530.869	11.72
531.067	11.81
531.265	11.86
531.463	11.97
531.661	12.07
531.859	12.13
532.057	12.26
532.255	12.34
532.454	12.43
532.652	12.48
532.85	12.53
533.048	12.58
533.246	12.64
533.444	12.74
533.642	12.81
533.84	12.88
534.038	12.95
534.236	12.94
534.434	12.99
534.632	13.07
534.83	13.16
535.027	13.26
535.225	13.37
535.423	13.39
535.621	13.46
535.819	13.53
536.017	13.62
536.215	13.65
536.412	13.78
536.61	13.81
536.808	13.9
537.006	13.88
537.203	13.92
537.401	13.99
537.599	14.09
537.797	14.12
537.994	14.17
538.192	14.18
538.39	14.3
538.587	14.41
538.785	14.55
538.983	14.58
539.18	14.65
539.378	14.72
539.575	14.78
539.773	14.88
539.97	14.98
540.168	15.05
540.366	15.11
540.563	15.14
540.761	15.21
540.958	15.27
541.155	15.3
541.353	15.4
541.55	15.42
541.748	15.46
541.945	15.46
542.143	15.47
542.34	15.48
542.537	15.56
542.735	15.61
542.932	15.66
543.129	15.67
543.327	15.74
543.524	15.8
543.721	15.98
543.919	16.08
544.116	16.18
544.313	16.32
544.51	16.46
544.708	16.55
544.905	16.7
545.102	16.78
545.299	16.9
545.496	17.05
545.693	17.1
545.891	17.09
546.088	17.12
546.285	17.13
546.482	17.12
546.679	17.11
546.876	17.15
547.073	17.11
547.27	17.07
547.467	17.04
547.664	16.97
547.861	17.01
548.058	16.95
548.255	16.98
548.452	16.97
548.649	17.03
548.846	17.03
549.043	17.07
549.24	17.06
549.437	17.16
549.633	17.3
549.83	17.3
550.027	17.27
550.224	17.33
550.421	17.33
550.618	17.34
550.814	17.34
551.011	17.4
551.208	17.4
551.405	17.52
551.601	17.46
551.798	17.29
551.995	17.38
552.191	17.48
552.388	17.46
552.585	17.42
552.781	17.42
552.978	17.48
553.175	17.5
553.371	17.52
553.568	17.55
553.764	17.55
553.961	17.62
554.157	17.53
554.354	17.53
554.55	17.54
554.747	17.56
554.943	17.67
555.14	17.65
555.336	17.7
555.533	17.75
555.729	17.54
555.926	17.52
556.122	17.5
556.318	17.52
556.515	17.48
556.711	17.5
556.907	17.46
557.104	17.38
557.3	17.31
557.496	17.17
557.693	17.09
557.889	17.31
558.085	17.45
558.281	17.54
558.478	17.63
558.674	17.71
558.87	17.8
559.066	17.81
559.262	17.9
559.459	18.03
559.655	18.04
559.851	18.11
560.047	18.06
560.243	18.12
560.439	18.08
560.635	17.97
560.831	17.93
561.027	17.95
561.223	18.09
561.419	18.12
561.615	18.08
561.811	18.16
562.007	18.09
562.203	18.04
562.399	17.96
562.595	18.02
562.791	18.21
562.987	18.21
563.183	18.15
563.379	18.07
563.575	18.11
563.771	18.06
563.966	18.04
564.162	18.09
564.358	18.16
564.554	18.24
564.75	18.25
564.945	18.21
565.141	18.21
565.337	18.29
565.533	18.38
565.728	18.37
565.924	18.44
566.12	18.45
566.315	18.48
566.511	18.47
566.707	18.44
566.902	18.44
567.098	18.48
567.293	18.48
567.489	18.5
567.684	18.41
567.88	18.38
568.076	18.49
568.271	18.64
568.467	18.55
568.662	18.5
568.858	18.51
569.053	18.48
569.248	18.5
569.444	18.54
569.639	18.55
569.835	18.57
570.03	18.64
570.225	18.59
570.421	18.54
570.616	18.64
570.812	18.77
571.007	18.74
571.202	18.72
571.397	18.62
571.593	18.65
571.788	18.66
571.983	18.84
572.178	18.84
572.374	18.87
572.569	18.91
572.764	18.88
572.959	18.82
573.154	18.84
573.35	18.9
573.545	19
573.74	19.03
573.935	19.05
574.13	18.91
574.325	18.87
574.52	18.94
574.715	18.91
574.91	19.02
575.105	19.11
575.3	19.18
575.495	19.19
575.69	19.23
575.885	19.2
576.08	19.09
576.275	19.21
576.47	19.26
576.665	19.17
576.86	19.15
577.055	19.07
577.25	19
577.444	18.94
577.639	19.02
577.834	19.06
578.029	19.07
578.224	19.23
578.418	19.04
578.613	19.13
578.808	19.26
579.003	19.35
579.197	19.39
579.392	19.48
579.587	19.53
579.781	19.52
579.976	19.37
580.171	19.51
580.365	19.46
580.56	19.66
580.755	19.66
580.949	19.56
581.144	19.48
581.338	19.5
581.533	19.53
581.727	19.44
581.922	19.45
582.116	19.52
582.311	19.46
582.505	19.4
582.7	19.25
582.894	19.18
583.089	19.21
583.283	19.2
583.478	19.23
583.672	19.29
583.866	19.47
584.061	19.5
584.255	19.52
584.449	19.57
584.644	19.73
584.838	19.9
585.032	19.95
585.226	19.98
585.421	20.08
585.615	20.18
585.809	20.13
586.003	20.13
586.198	20.07
586.392	20.08
586.586	20.22
586.78	20.23
586.974	20.3
587.168	20.43
587.363	20.36
587.557	20.41
587.751	20.22
587.945	20.28
588.139	20.28
588.333	20.34
588.527	20.31
588.721	20.12
588.915	20.1
589.109	20.09
589.303	20.1
589.497	20.11
589.691	20
589.885	20.07
590.079	20.02
590.273	20.06
590.466	20.19
590.66	20.24
590.854	20.42
591.048	20.4
591.242	20.33
591.436	20.29
591.629	20.43
591.823	20.52
592.017	20.65
592.211	20.82
592.404	20.77
592.598	20.58
592.792	20.63
592.986	20.48
593.179	20.52
593.373	20.52
593.567	20.49
593.76	20.37
593.954	20.33
594.147	20.26
594.341	20.17
594.535	20.1
594.728	20.18
594.922	20.27
595.115	20.3
595.309	20.28
595.502	20.38
595.696	20.4
595.889	20.34
596.083	20.36
596.276	20.3
596.47	20.27
596.663	20.3
596.856	20.3
597.05	20.19
597.243	20.23
597.437	20.36
597.63	20.23
597.823	20.21
598.017	20.36
598.21	20.53
598.403	20.68
598.596	20.71
598.79	20.79
598.983	20.79
599.176	20.85
599.369	20.9
599.563	20.73
599.756	20.8
599.949	20.88
600.142	20.73
600.335	20.58
600.528	20.45
600.722	20.37
600.915	20.4
601.108	20.28
601.301	20.28
601.494	20.33
601.687	20.3
601.88	20.25
602.073	20.12
602.266	20.21
602.459	20.14
602.652	20.19
602.845	20.33
603.038	20.27
603.231	20.32
603.424	20.34
603.617	20.19
603.809	20.34
604.002	20.43
604.195	20.52
604.388	20.5
604.581	20.69
604.774	20.77
604.966	20.75
605.159	20.76
605.352	20.84
605.545	20.85
605.737	20.94
605.93	20.92
606.123	20.89
606.316	20.92
606.508	20.86
606.701	20.8
606.894	20.92
607.086	20.96
607.279	21.18
607.471	21.27
607.664	21.27
607.857	21.44
608.049	21.64
608.242	21.83
608.434	22.01
608.627	22.39
608.819	22.55
609.012	22.65
609.204	22.97
609.397	23.2
609.589	23.6
609.782	24.12
609.974	24.57
610.166	24.92
610.359	25.37
610.551	25.83
610.743	26.19
610.936	26.45
611.128	26.73
611.32	26.86
611.513	26.94
611.705	27.12
611.897	26.98
612.09	26.8
612.282	26.55
612.474	26.44
612.666	26.21
612.858	26
613.051	25.86
613.243	25.73
613.435	25.46
613.627	25.45
613.819	25.16
614.011	25.15
614.203	24.97
614.395	24.82
614.588	24.57
614.78	24.43
614.972	24.02
615.164	23.81
615.356	23.72
615.548	23.65
615.74	23.41
615.932	23.23
616.124	23.05
616.315	22.91
616.507	23.01
616.699	22.9
616.891	22.64
617.083	22.65
617.275	22.72
617.467	22.56
617.659	22.48
617.85	22.25
618.042	22.15
618.234	22
618.426	21.98
618.618	21.74
618.809	21.77
619.001	21.76
619.193	21.74
619.384	21.67
619.576	21.68
619.768	21.75
619.959	21.95
620.151	21.97
620.343	22.02
620.534	22
620.726	22.03
620.917	21.87
621.109	21.98
621.301	22.09
621.492	22.06
621.684	22.07
621.875	21.92
622.067	21.89
622.258	21.82
622.45	21.84
622.641	21.82
622.832	21.8
623.024	22.04
623.215	22.01
623.407	21.97
623.598	21.96
623.789	21.79
623.981	21.86
624.172	21.74
624.363	21.83
624.555	21.77
624.746	21.89
624.937	21.97
625.129	21.99
625.32	21.83
625.511	21.86
625.702	21.91
625.893	22.02
626.085	22.07
626.276	22.15
626.467	22.2
626.658	22.09
626.849	22.14
627.04	22.09
627.231	21.9
627.422	22.09
627.614	22.23
627.805	22.29
627.996	22.18
628.187	22.13
628.378	22.21
628.569	22.26
628.76	22.44
628.951	22.3
629.142	22.5
629.332	22.63
629.523	22.63
629.714	22.35
629.905	22.36
630.096	22.59
630.287	22.75
630.478	22.71
630.669	22.57
630.859	22.52
631.05	22.56
631.241	22.46
631.432	22.41
631.623	22.31
631.813	22.44
632.004	22.42
632.195	22.3
632.385	22.1
632.576	22.15
632.767	22.22
632.957	22.26
633.148	22.23
633.339	21.93
633.529	21.83
633.72	21.84
633.91	21.88
634.101	21.83
634.292	21.95
634.482	21.98
634.673	22.05
634.863	21.98
635.054	21.93
635.244	22.01
635.435	22.34
635.625	22.36
635.815	22.33
636.006	22.29
636.196	22.18
636.387	22.06
636.577	22.23
636.767	22.09
636.958	22.1
637.148	22.14
637.338	22.14
637.529	22.13
637.719	22.21
637.909	22.19
638.099	22.2
638.29	22.04
638.48	22.1
638.67	21.91
638.86	21.81
639.05	21.95
639.241	21.85
639.431	21.8
639.621	21.63
639.811	21.6
640.001	21.76
640.191	21.83
640.381	22.24
640.571	22.25
640.761	22.27
640.951	22.24
641.141	22.15
641.331	22.16
641.521	22.26
641.711	22.31
641.901	22.41
642.091	22.36
642.281	22.33
642.471	22.36
642.661	22.33
642.851	22.43
643.041	22.37
643.231	22.33
643.42	22.42
643.61	22.3
643.8	22.29
643.99	22.15
644.18	22.13
644.369	22.24
644.559	22
644.749	22.05
644.939	21.86
645.128	22.11
645.318	22.18
645.508	22.26
645.697	22.27
645.887	22.27
646.076	22.25
646.266	22.28
646.456	22.16
646.645	22.13
646.835	21.98
647.024	22.08
647.214	22.03
647.403	21.96
647.593	21.83
647.782	21.85
647.972	21.95
648.161	21.87
648.351	21.79
648.54	21.86
648.73	22.13
648.919	22.26
649.108	22.5
649.298	22.38
649.487	22.38
649.677	22.56
649.866	22.54
650.055	22.44
650.244	22.73
650.434	22.93
650.623	22.96
650.812	22.8
651.002	22.8
651.191	22.67
651.38	22.85
651.569	22.91
651.758	22.81
651.947	22.8
652.137	22.87
652.326	22.79
652.515	22.55
652.704	22.53
652.893	22.71
653.082	22.86
653.271	22.65
653.46	22.59
653.649	22.67
653.838	22.68
654.027	22.66
654.216	22.76
654.405	22.88
654.594	23.02
654.783	23
654.972	23
655.161	22.98
655.35	23.05
655.539	23.07
655.728	22.96
655.916	22.91
656.105	22.85
656.294	22.69
656.483	22.59
656.672	22.43
656.86	22.36
657.049	22.33
657.238	22.2
657.427	22.3
657.615	22.3
657.804	22.16
657.993	22.26
658.181	22.29
658.37	22.41
658.559	22.43
658.747	22.57
658.936	22.51
659.125	22.53
659.313	22.47
659.502	22.48
659.69	22.55
659.879	22.81
660.067	22.94
660.256	23.04
660.444	22.79
660.633	22.69
660.821	22.74
661.01	22.91
661.198	22.87
661.387	23
661.575	23.06
661.763	22.9
661.952	22.83
662.14	22.73
662.328	22.93
662.517	23.28
662.705	23.4
662.893	23.32
663.082	23.73
663.27	23.94
663.458	23.99
663.646	24.06
663.834	24.28
664.023	24.24
664.211	24.06
664.399	23.85
664.587	23.53
664.775	23.63
664.963	23.5
665.152	22.92
665.34	22.78
665.528	22.97
665.716	22.58
665.904	22.57
666.092	22.73
666.28	22.79
666.468	22.82
666.656	22.94
666.844	22.79
667.032	23.05
667.22	23.11
667.408	23.07
667.596	22.93
667.784	23.1
667.971	23.33
668.159	23.22
668.347	23.13
668.535	23.23
668.723	23.43
668.911	23.56
669.098	23.32
669.286	23.45
669.474	23.3
669.662	23.36
669.849	23.42
670.037	23.22
670.225	23.29
670.413	23.49
670.6	23.39
670.788	23.24
670.976	23.28
671.163	23.56
671.351	23.57
671.538	23.61
671.726	23.47
671.913	23.3
672.101	23.24
672.289	23.31
672.476	23.1
672.664	22.91
672.851	23.02
673.039	23.08
673.226	22.93
673.413	22.88
673.601	22.77
673.788	22.83
673.976	23.16
674.163	23.31
674.35	23.39
674.538	23.47
674.725	23.73
674.912	23.7
675.1	23.63
675.287	23.5
675.474	23.52
675.662	23.84
675.849	23.67
676.036	23.52
676.223	23.2
676.411	23.28
676.598	23.28
676.785	23.21
676.972	23.08
677.159	23.14
677.346	23.37
677.533	23.48
677.721	23.37
677.908	23.6
678.095	23.66
678.282	23.7
678.469	23.24
678.656	23.45
678.843	23.52
679.03	23.49
679.217	23.37
679.404	23.21
679.591	23.27
679.778	23.36
679.964	23.34
680.151	23.41
680.338	23.72
680.525	23.91
680.712	23.87
680.899	23.9
681.086	24.01
681.272	24.18
681.459	24.28
681.646	24.17
681.833	24.26
682.02	24.11
682.206	24.08
682.393	23.8
682.58	23.92
682.766	23.81
682.953	23.97
683.14	24.22
683.326	24.09
683.513	24.26
683.7	24.17
683.886	24.05
684.073	24.08
684.259	24.27
684.446	24.37
684.632	24.45
684.819	24.43
685.005	24.25
685.192	24.16
685.378	24.27
685.565	24.22
685.751	24.42
685.938	24.37
686.124	24.29
686.31	24.12
686.497	24.39
686.683	24.17
686.87	24.33
687.056	24.33
687.242	24.2
687.429	24.13
687.615	24.2
687.801	24.13
687.987	24.21
688.174	24.43
688.36	24.5
688.546	24.43
688.732	24.31
688.918	24.21
689.105	24.37
689.291	24.3
689.477	24.16
689.663	23.84
689.849	23.93
690.035	23.99
690.221	23.68
690.407	23.8
690.593	23.72
690.779	23.95
690.965	24.17
691.151	24.04
691.337	24.17
691.523	24.52
691.709	24.68
691.895	24.68
692.081	24.64
692.267	24.95
692.453	25.11
692.639	25.02
692.825	24.9
693.011	24.68
693.196	24.63
693.382	24.42
693.568	24.43
693.754	24.77
693.94	24.47
694.125	24.53
694.311	24.61
694.497	24.26
694.682	24.22
694.868	24.38
695.054	24.5
695.239	24.19
695.425	24.32
695.611	24.03
695.796	24.29
695.982	24.56
696.168	24.48
696.353	24.37
696.539	24.36
696.724	24.51
696.91	24.61
697.095	24.53
697.281	24.81
697.466	24.75
697.652	24.91
697.837	24.41
698.023	24.31
698.208	24.3
698.393	24.6
698.579	24.56
698.764	24.52
698.949	24.52
699.135	24.51
699.32	24.62
699.505	24.62
699.691	24.56
699.876	24.81
700.061	25.06
700.246	25.3
700.432	25.11
700.617	25.3
700.802	25.1
700.987	25.04
701.172	25.22
701.358	25.29
701.543	25.53
701.728	25.65
701.913	25.84
702.098	25.54
702.283	25.25
702.468	25.27
702.653	25.07
702.838	25.27
703.023	24.97
703.208	24.88
703.393	24.67
703.578	24.89
703.763	24.9
703.948	24.67
704.133	25.19
704.318	25.68
704.503	25.72
704.688	25.85
704.873	26.17
705.057	26.54
705.242	27.03
705.427	27.12
705.612	27.34
705.797	27.08
705.981	27.25
706.166	27.33
706.351	27.04
706.536	27.36
706.72	27.94
706.905	27.89
707.09	27.85
707.274	27.78
707.459	27.82
707.644	27.81
707.828	28.36
708.013	28.58
708.197	28.2
708.382	28.32
708.567	28.18
708.751	27.72
708.936	27.38
709.12	27.76
709.305	27.43
709.489	27.58
709.673	27.24
709.858	27.19
710.042	26.75
710.227	26.67
710.411	26.51
710.596	26.36
710.78	26.49
710.964	26.72
711.149	26.55
711.333	26.69
711.517	26.6
711.702	26.79
711.886	26.73
712.07	26.7
712.254	26.85
712.438	26.86
712.623	27.26
712.807	27.05
712.991	26.88
713.175	26.65
713.359	26.36
713.544	26.29
713.728	26.03
713.912	25.57
714.096	25.82
714.28	25.41
714.464	25.24
714.648	24.83
714.832	24.72
715.016	24.8
715.2	25.22
715.384	25.38
715.568	25.38
715.752	25.52
715.936	25.78
716.12	25.54
716.304	25.78
716.488	25.86
716.671	25.83
716.855	25.88
717.039	25.87
717.223	25.52
717.407	25.42
717.59	25.47
717.774	25.15
717.958	24.92
718.142	24.75
718.325	24.81
718.509	24.83
718.693	24.83
718.877	24.64
719.06	24.57
719.244	24.36
719.428	24.13
719.611	23.95
719.795	24.06
719.978	24.34
720.162	24.51
720.345	24.7
720.529	24.73
720.713	24.4
720.896	25.31
721.08	25.24
721.263	25.48
721.446	25.91
721.63	26.05
721.813	25.92
721.997	26
722.18	26.01
722.364	25.55
722.547	25.51
722.73	25.48
722.914	24.79
723.097	24.91
723.28	24.78
723.464	24.95
723.647	24.77
723.83	24.89
724.013	24.83
724.197	24.98
724.38	25.01
724.563	25.08
724.746	25.5
724.929	25.9
725.112	26.01
725.296	26.37
725.479	26.05
725.662	26.11
725.845	26.09
726.028	26.15
726.211	26.14
726.394	26.28
726.577	26.39
726.76	26.65
726.943	26.29
727.126	26.25
727.309	25.77
727.492	26.1
727.675	26.08
727.858	25.96
728.041	25.92
728.224	25.67
728.407	25.39
728.589	25.08
728.772	24.54
728.955	24.87
729.138	24.59
729.321	24.9
729.503	24.46
729.686	24.43
729.869	24.65
730.052	24.58
730.234	24.44
730.417	24.79
730.6	24.91
730.782	24.89
730.965	24.8
731.148	25.01
731.33	25.04
731.513	24.96
731.695	25.15
731.878	25
732.061	25.33
732.243	25.39
732.426	25.17
732.608	25.26
732.791	25.23
732.973	24.96
733.156	25.06
733.338	24.7
733.52	25.03
733.703	24.98
733.885	25.44
734.068	25.54
734.25	25.95
734.432	26.31
734.615	26.34
734.797	26.63
734.979	26.7
735.162	26.98
735.344	27.28
735.526	27.05
735.708	26.87
735.891	26.67
736.073	26.64
736.255	26
736.437	25.89
736.619	26.21
736.802	26.58
736.984	26.52
737.166	26.12
737.348	26.24
737.53	26.84
737.712	27.17
737.894	26.94
738.076	26.59
738.258	27.38
738.44	27.64
738.622	27.34
738.804	26.92
738.986	27.05
739.168	27.23
739.35	27.37
739.532	27.15
739.714	27.19
739.896	27.26
740.078	27.46
740.259	27.02
740.441	26.46
740.623	26.26
740.805	26.94
740.987	26.8
741.168	26.99
741.35	26.88
741.532	26.64
741.714	26.55
741.895	26.57
742.077	26.21
742.259	26.53
742.44	26.83
742.622	27
742.804	26.53
742.985	26.82
743.167	26.57
743.348	26.39
743.53	26.73
743.711	26.64
743.893	27.04
744.075	27.44
744.256	26.93
744.438	26.92
744.619	27.09
744.8	27.08
744.982	27.24
745.163	27.05
745.345	27.08
745.526	27.05
745.707	27.35
745.889	26.82
746.07	26.99
746.252	27.88
746.433	27.59
746.614	27.47
746.795	27.72
746.977	27.62
747.158	28.04
747.339	28.32
747.52	27.75
747.702	27.89
747.883	27.77
748.064	27.44
748.245	27.04
748.426	27.69
748.607	27.84
748.788	27.44
748.97	27.26
749.151	27.21
749.332	26.88
749.513	27.19
749.694	27.08
749.875	27.45
750.056	27.78
750.237	27.85
750.418	27.62
750.599	27.03
750.78	26.85
750.96	26.97
751.141	26.94
751.322	27.77
751.503	27.61
751.684	27.6
751.865	27.31
752.046	27.17
752.226	26.91
752.407	27.19
752.588	27.15
752.769	27.73
752.949	27.48
753.13	27.02
753.311	26.59
753.492	26.87
753.672	26.59
753.853	27.15
754.034	26.63
754.214	26.98
754.395	26.53
754.575	27.37
754.756	27.33
754.937	27.4
755.117	27.61
755.298	27.37
755.478	27.52
755.659	27.57
755.839	26.98
756.02	27.3
756.2	27.45
756.381	27.14
756.561	27.06
756.741	26.95
756.922	27.31
757.102	27.81
757.283	27.48
757.463	27.57
757.643	28.36
757.823	28.73
758.004	28.32
758.184	28.33
758.364	28.75
758.545	28.68
758.725	28.22
758.905	27.87
759.085	27.03
759.265	27.22
759.446	26.72
759.626	26.05
759.806	25.61
759.986	25.55
760.166	25.63
760.346	25.29
760.526	25.31
760.706	25.91
760.886	25.7
761.066	25.88
761.246	26.16
761.426	26.27
761.606	25.6
761.786	26.14
761.966	26.37
762.146	25.82
762.326	25.44
762.506	25.37
762.686	25.1
762.866	25.39
763.046	25.45
763.225	25.12
763.405	25.3
763.585	25.72
763.765	25.56
763.945	25.81
764.124	25.66
764.304	26.29
764.484	26.38
764.664	26.53
764.843	26.69
765.023	26.76
765.203	27.47
765.382	27.53
765.562	27.2
765.741	27.5
765.921	27.15
766.101	27.26
766.28	26.81
766.46	26.69
766.639	26.93
766.819	27.2
766.998	27.48
767.178	27.08
767.357	27.06
767.537	27.76
767.716	27.55
767.896	28.34
768.075	29.2
768.254	29.75
768.434	29.8
768.613	29.34
768.792	28.53
768.972	28.46
769.151	28.38
769.33	27.88
769.51	28.08
769.689	27.66
769.868	27.05
770.047	26.56
770.226	25.87
770.406	25.91
770.585	26.44
770.764	27.18
770.943	27.19
771.122	26.65
771.301	27.28
771.48	27.19
771.66	27.92
771.839	28.04
772.018	28.53
772.197	28.32
772.376	28.38
772.555	27.96
772.734	27.28
772.913	27.25
773.092	28.21
773.271	28.01
773.449	27.44
773.628	26.69
773.807	26.55
773.986	25.91
774.165	26.54
774.344	26.62
774.523	26.22
774.701	26.25
774.88	26.29
775.059	26.06
775.238	26.06
775.417	26.65
775.595	27.5
775.774	27.53
775.953	27.66
776.131	28.21
776.31	27.98
776.489	27.57
776.667	28.51
776.846	28.4
777.025	28.56
777.203	29.28
777.382	28.89
777.56	28.28
777.739	28.63
777.917	28.33
778.096	28.66
778.274	28.55
778.453	29.75
778.631	28.87
778.81	28.73
778.988	28.34
779.166	28.25
779.345	28.75
779.523	29.42
779.702	29.83
779.88	30.02
780.058	29.22
780.237	28.9
780.415	28.49
780.593	28.85
780.771	28.27
780.95	28.22
781.128	27.81
781.306	27.98
781.484	27.89
781.662	26.68
781.841	26.87
782.019	25.99
782.197	26.84
782.375	26.54
782.553	25.8
782.731	26.69
782.909	26.88
783.087	27.16
783.265	26.84
783.443	27.52
783.621	27.62
783.799	27.87
783.977	29.02
784.155	28.85
784.333	29.69
784.511	30.3
784.689	30.06
784.867	30.07
785.045	29.6
785.223	29.61
785.4	28.12
785.578	29.1
785.756	29
785.934	29.2
786.112	29.35
786.289	28.01
786.467	28.14
786.645	28.38
786.823	28.07
787	27.73
787.178	27.81
787.356	27.72
787.533	26.89
787.711	26.07
787.889	25.96
788.066	26.29
788.244	26.68
788.421	27.04
788.599	27.27
788.776	27.38
788.954	27.63
789.131	27.67
789.309	28.47
789.486	29.2
789.664	30.34
789.841	29.99
790.019	29.13
790.196	29.39
790.373	29.87
790.551	30.11
790.728	30.02
790.906	29.79
791.083	29.78
791.26	29.3
791.437	29.05
791.615	28.42
791.792	28.63
791.969	28.58
792.146	28.23
792.324	27.14
792.501	26.11
792.678	25.8
792.855	26.69
793.032	26.66
793.209	27.38
793.387	27
793.564	26.92
793.741	26.98
793.918	27.01
794.095	27.45
794.272	28.37
794.449	29.24
794.626	29
794.803	29.4
794.98	28.4
795.157	26.41
795.334	27.4
795.511	27.08
795.688	27.53
795.864	28.16
796.041	28.7
796.218	27.39
796.395	27.26
796.572	27.29
796.749	26.66
796.925	26.55
797.102	28.11
797.279	26.93
797.456	26.84
797.632	25.99
797.809	25.72
797.986	25.36
798.162	26.43
798.339	26.72
798.516	28.02
798.692	27.91
798.869	29.02
799.046	28.94
799.222	29.42
799.399	30.17
799.575	29.95
799.752	30.5
799.928	30.12
800.105	30.18
800.281	30.09
800.458	29.72
800.634	29.75
800.811	29.33
800.987	29.37
801.163	29.12
801.34	28.92
801.516	28.67
801.692	28.41
801.869	28.16
802.045	27.13
802.221	28.02
802.398	27.81
802.574	28.2
802.75	28.38
802.926	28.83
803.103	28.5
803.279	27.42
803.455	28.21
803.631	27.6
803.807	27.7
803.983	27.76
804.16	28.31
804.336	27.75
804.512	28.65
804.688	27.65
804.864	26.21
805.04	26.06
805.216	27.04
805.392	27.45
805.568	26.19
805.744	25.92
805.92	26.49
806.096	24.74
806.272	25
806.448	23.05
806.623	24.31
806.799	25.76
806.975	26.48
807.151	26.49
807.327	27.22
807.503	26.73
807.678	27.13
807.854	26.58
808.03	27.31
808.206	27.09
808.381	27.36
808.557	27.34
808.733	26.75
808.908	26.1
809.084	25.39
809.26	25.85
809.435	29.09
809.611	28.58
809.787	28.83
809.962	27.13
810.138	28.36
810.313	28.65
810.489	28.56
810.664	27.85
810.84	28.43
811.015	29.27
811.191	27.6
811.366	27.27
811.542	27.78
811.717	27.87
811.892	28.66
812.068	27.39
812.243	26.99
812.419	27.38
812.594	28.14
812.769	28.48
812.944	27.4
813.12	28.08
813.295	26.39
813.47	25.91
813.645	25.94
813.821	26.34
813.996	26.57
814.171	26.97
814.346	26.74
814.521	26.67
814.697	26.01
814.872	26.51
815.047	26.26
815.222	28.2
815.397	28.2
815.572	27.24
815.747	25.76
815.922	27.36
816.097	27
816.272	27.28
816.447	27.39
816.622	28.05
816.797	27.7
816.972	27.88
817.147	26.2
817.322	25.54
817.496	26.5
817.671	27.15
817.846	25.25
818.021	25.17
818.196	24.06
818.371	24.38
818.545	23.77
818.72	24.14
818.895	24.87
819.069	25.42
819.244	25.97
819.419	25.81
819.594	25.56
819.768	25.6
819.943	25.76
820.117	27.08
820.292	26.63
820.467	26.91
820.641	27.29
820.816	26.35
820.99	26.29
821.165	27.03
821.339	26.98
821.514	27.09
821.688	26.76
821.863	26.83
822.037	26.34
822.212	26.13
822.386	26.19
822.56	26.34
822.735	26.55
822.909	26.38
823.084	26.17
823.258	26.24
823.432	26.38
823.606	26.6
823.781	26.41
823.955	26.84
824.129	27.07
824.303	27.16
824.478	27.25
824.652	26.94
824.826	27.41
825	27.55
825.174	27.16
825.348	27.16
825.523	26.73
825.697	27.19
825.871	26.36
826.045	26.36
826.219	26.23
826.393	26.19
826.567	26.51
826.741	26.27
826.915	25.81
827.089	26.51
827.263	26.01
827.437	26.71
827.611	26.7
827.784	26.76
827.958	27.12
828.132	27.27
828.306	26.99
828.48	27.16
828.654	27.06
828.827	27.4
829.001	27.42
829.175	27.79
829.349	27.8
829.522	27.95
829.696	28.12
829.87	27.67
830.044	26.95
830.217	26.63
830.391	26.74
830.565	26.23
830.738	26.71
830.912	26.45
831.085	26.73
831.259	27.08
831.432	26.94
831.606	26.82
831.779	27.13
831.953	26.78
832.126	27.19
832.3	26.29
832.473	27.4
832.647	27.02
832.82	26.98
832.994	27.33
833.167	27
833.34	26.53
833.514	27.01
833.687	26.37
833.86	27.06
834.034	26.84
834.207	27.19
834.38	27.01
834.553	27.07
834.727	27.22
834.9	26.84
835.073	26.01
835.246	25.77
835.419	25.8
835.593	25.53
835.766	25.12
835.939	25.13
836.112	24.89
836.285	24.78
836.458	25.04
836.631	24.13
836.804	23.57
836.977	25.92
837.15	26.71
837.323	26.53
837.496	27.45
837.669	26.6
837.842	26.9
838.015	26.94
838.188	27.91
838.361	27.15
838.533	28.31
838.706	28.66
838.879	27.33
839.052	28.69
839.225	28.31
839.398	28.89
839.57	29.61
839.743	30.85
839.916	30.9
840.088	30.79
840.261	30.99
840.434	31.26
840.607	31.31
840.779	30.38
840.952	27.89
841.124	29.56
841.297	28.37
841.47	29.69
841.642	27.7
841.815	29.3
841.987	29.2
842.16	27.77
842.332	28.1
842.505	28.46
842.677	30.53
842.85	31.68
843.022	29.42
843.194	30.68
843.367	29.35
843.539	30.93
843.712	29.21
843.884	27.45
844.056	29.04
844.229	26.86
844.401	26.92
844.573	25.61
844.745	25.73
844.918	26.99
845.09	26.67
845.262	28.63
845.434	26.21
845.606	23.62
845.779	25.55
845.951	26.64
846.123	29.43
846.295	31.4
846.467	32.54
846.639	33.38
846.811	31.37
846.983	31.54
847.155	32.47
847.327	30.68
847.499	33.83
847.671	33.07
847.843	34.46
848.015	30.81
848.187	29.02
848.359	28.54
848.531	27.59
848.703	26.56
848.875	23.82
849.047	20.24
849.218	21.84
849.39	22.08
849.562	20
849.734	19.9
849.905	20.94
850.077	19.36
850.249	18.97
850.421	17.87
850.592	22.5
850.764	27.89
850.936	31.1
851.107	32.42
851.279	33.59
851.451	35.55
851.622	31.77
851.794	33.47
851.965	36.67
852.137	34.81
852.308	33.66
852.48	31.78
852.651	30.83
852.823	27.31
852.994	25.36
853.166	24.22
853.337	23.71
853.509	24.87
853.68	26.45
853.851	25.99
854.023	26.48
854.194	27.78
854.365	27.29
854.537	25.79
854.708	25.08
854.879	24.38
855.05	24.24
855.222	22.8
855.393	22.98
855.564	17.66
855.735	13.4
855.906	13.53
856.078	13.44
856.249	11.44
856.42	11.06
856.591	14.84
856.762	17.75
856.933	18.08
857.104	16.89
857.275	16.88
857.446	20.2
857.617	22.66
857.788	25.93
857.959	26.48
858.13	28.29
858.301	27.61
858.472	24.74
858.643	25.5
858.814	25.55
858.985	28.14
859.155	31.49
859.326	30.47
859.497	34.11
859.668	30.38
859.839	30.27
860.009	30.15
860.18	31.94
860.351	32.94
860.522	30.96
860.692	32.18
860.863	30.77
861.034	29.43
861.204	27.98
861.375	22.85
861.546	26.58
861.716	29.43
861.887	29.83
862.057	31.82
862.228	30.09
862.398	28.4
862.569	29.92
862.739	28.58
862.91	26.4
863.08	25.81
863.251	23.97
863.421	20.73
863.592	16.14
863.762	16.14
863.932	11.82
864.103	10.73
864.273	11.1
864.443	7.68
864.614	8.27
864.784	6.35
864.954	7.98
865.125	12.29
865.295	9.72
865.465	10
865.635	9.45
865.805	10.32
865.976	14.2
866.146	17.57
866.316	16.87
866.486	20.36
866.656	16.94
866.826	15.54
866.996	15.02
867.166	21.03
867.336	17.27
867.506	16.13
867.676	17.76
867.846	15.61
868.016	16.58
868.186	19.13
868.356	14.92
868.526	22.69
868.696	25.46
868.866	25.96
869.036	22.53
869.206	26.28
869.376	29.19
869.545	29.88
869.715	30.15
869.885	29.07
870.055	32.94
870.224	33.8
870.394	28.45
870.564	28.06
870.734	26.6
870.903	27.53
871.073	28.48
871.243	27.91
871.412	26.69
871.582	29
871.751	30.03
871.921	21.9
872.091	23.24
872.26	23.11
872.43	23.68
872.599	27.59
872.769	30.16
872.938	26.65
873.108	24.27
873.277	25.73
873.446	25.4
873.616	23
873.785	29.93
873.955	30.12
874.124	31.04
874.293	30.59
874.463	30.16
874.632	25.46
874.801	29.78
874.971	29.23
875.14	27.32
875.309	26.18
875.478	28.61
875.647	24.18
875.817	24.98
875.986	22.41
876.155	20.85
876.324	17.93
876.493	22.65
876.662	22.68
876.831	23.51
877	22.39
877.17	24.58
877.339	23.67
877.508	22.47
877.677	21.28
877.846	26.36
878.015	28.67
878.184	26.75
878.352	26.17
878.521	22.1
878.69	22.87
878.859	20.32
879.028	17.24
879.197	18.06
879.366	20.32
879.534	20.35
879.703	19.84
879.872	20.35
880.041	20.62
880.21	21.03
880.378	22.2
880.547	22.3
880.716	25.29
880.884	25.93
881.053	26.26
881.222	26.03
881.39	26.07
881.559	26.45
881.727	27.08
881.896	26.94
882.065	26.85
882.233	26.89
882.402	26.92
882.57	26.8
882.739	26.74
882.907	26.08
883.076	26.17
883.244	26.06
883.412	25.56
883.581	25.09
883.749	25.56
883.918	25.52
884.086	25.37
884.254	24.78
884.423	24.43
884.591	24.05
884.759	25.04
884.927	25.41
885.096	24.29
885.264	24.1
885.432	23.99
885.6	23.05
885.769	22.43
885.937	23.57
886.105	24.69
886.273	25.39
886.441	26.07
886.609	26.15
886.777	25.02
886.945	28.13
887.113	30.68
887.281	30.07
887.449	30.59
887.617	31.04
887.785	29.91
887.953	31.16
888.121	28.71
888.289	27.73
888.457	26.21
888.625	25.6
888.793	25.96
888.961	22.86
889.129	25.23
889.296	25.66
889.464	25.99
889.632	26.83
889.8	24.83
889.967	25.49
890.135	28.91
