Data from 2938794__Reflection_02.txt Node
Date: Fri Mar 13 10:51:01 EDT 2015
User: robert
Spectrometer: USB4E03002
Autoset integration time: false
Trigger mode: 4
Integration Time (sec): 1.000000E-1
Scans to average: 10
Electric dark correction enabled: false
Nonlinearity correction enabled: false
Boxcar width: 5
Stray light correction enabled: false
XAxis mode: Wavelengths
Stop averaging: false
Number of Pixels in Spectrum: 3648
>>>>>Begin Spectral Data<<<<<
177.575	127.5
177.794	2042.86
178.014	304.35
178.233	220.88
178.452	175.32
178.672	153.54
178.891	160.22
179.11	136.61
179.33	123.65
179.549	107.51
179.768	97.93
179.987	185.29
180.207	90.57
180.426	91.18
180.645	167.31
180.864	402.44
181.084	-105.22
181.303	-149.44
181.522	-76.84
181.741	-266.22
181.96	-148.3
182.179	-48.18
182.398	-32.13
182.618	-18.18
182.837	-27.61
183.056	17.29
183.275	20.65
183.494	22.22
183.713	35.78
183.932	21.47
184.151	13.95
184.37	21.55
184.589	14.21
184.808	32.12
185.027	35.94
185.246	-13.71
185.465	-227.35
185.684	-69.07
185.903	-7.88
186.122	-91.62
186.341	-158.82
186.56	25
186.779	-37.35
186.998	50.57
187.216	154.69
187.435	42.47
187.654	-33.47
187.873	-30.11
188.092	39.13
188.311	84.62
188.53	80.25
188.748	-212.5
188.967	133.33
189.186	102.33
189.405	76.51
189.623	81.37
189.842	-55.32
190.061	-48.46
190.28	-86.96
190.498	64.71
190.717	76.15
190.936	40
191.154	57
191.373	123.49
191.592	216.86
191.81	177.62
192.029	171.6
192.248	199.2
192.466	353.52
192.685	1678.57
192.904	140.31
193.122	598.18
193.341	-60.8
193.559	-8.89
193.778	2.32
193.996	35.27
194.215	11.16
194.433	11.16
194.652	14.64
194.87	-50.36
195.089	-24.59
195.307	4.81
195.526	0.29
195.744	-13.68
195.963	-15.16
196.181	-1.34
196.399	-30.32
196.618	-2.39
196.836	-19.23
197.055	-44.85
197.273	-55.54
197.491	-101.63
197.71	-123.56
197.928	-161.18
198.146	-200.96
198.365	-1912.5
198.583	1032.08
198.801	309.09
199.019	333.59
199.238	770
199.456	-166.44
199.674	-91.03
199.892	-60.27
200.111	-41.2
200.329	-106.75
200.547	-41.7
200.765	-32.18
200.983	-44.29
201.202	-58.47
201.42	-89.44
201.638	-67.68
201.856	-195.92
202.074	-221.02
202.292	508.06
202.51	-1737.5
202.728	-1237.93
202.946	557.14
203.165	546.25
203.383	-823.08
203.601	-202.96
203.819	-614.55
204.037	-143.53
204.255	-158.4
204.473	-226.27
204.691	-100.5
204.909	-87
205.127	-66.08
205.345	-70.24
205.562	-98.71
205.78	-131.17
205.998	-171.06
206.216	-82.67
206.434	-151.71
206.652	-50
206.87	-68.19
207.088	-78.3
207.306	-126.64
207.523	-91.78
207.741	-66.38
207.959	-56.35
208.177	-89.09
208.395	-100
208.612	-141.92
208.83	-57.03
209.048	-69.4
209.266	-105.24
209.483	-131.58
209.701	-112.16
209.919	-203.03
210.136	-149.78
210.354	-59.55
210.572	-42.06
210.79	-7.66
211.007	-28.97
211.225	-42.07
211.442	-67.59
211.66	-6.55
211.878	22.14
212.095	-11.89
212.313	51.06
212.53	-2
212.748	50.73
212.966	88.03
213.183	199.4
213.401	217.86
213.618	-427.27
213.836	1629.41
214.053	832.26
214.271	-1003.85
214.488	-16.91
214.705	-1.58
214.923	-21.4
215.14	-25.57
215.358	-33.92
215.575	-27.17
215.793	-26.06
216.01	-78.6
216.227	-82.98
216.445	-79.89
216.662	-120.08
216.879	-214.01
217.097	-189.86
217.314	-151.11
217.531	-115.06
217.749	-84.98
217.966	-59.16
218.183	-48.23
218.4	-36.21
218.618	-37.06
218.835	-52.58
219.052	-33.55
219.269	-18.59
219.487	-7.7
219.704	-4.01
219.921	0.2
220.138	5.46
220.355	-4.36
220.572	-2.58
220.79	-6.4
221.007	4.58
221.224	9.48
221.441	3.87
221.658	4.83
221.875	0
222.092	1.53
222.309	3.35
222.526	-5.52
222.743	-10.47
222.96	-12.19
223.177	-6.06
223.394	-9.94
223.611	-10.8
223.828	-8.29
224.045	-9.29
224.262	-15.89
224.479	-14.77
224.696	-13.31
224.913	-10.79
225.13	-3.1
225.347	-0.21
225.564	0.88
225.781	1.31
225.997	-0.35
226.214	-2.65
226.431	-3.19
226.648	-1.45
226.865	-0.43
227.082	1.71
227.298	2.14
227.515	0.06
227.732	-0.3
227.949	-0.06
228.165	-0.22
228.382	0.29
228.599	1.78
228.816	1.81
229.032	1.39
229.249	1.02
229.466	0.58
229.682	0.89
229.899	2.36
230.116	1.84
230.332	1.5
230.549	1.94
230.765	2.91
230.982	1.6
231.199	1.76
231.415	3.18
231.632	3.27
231.848	2.84
232.065	1.94
232.281	0.29
232.498	-1.05
232.714	-2.44
232.931	-3.26
233.147	-4.78
233.364	-4.2
233.58	-3.42
233.797	-4.08
234.013	-4.25
234.23	-4.01
234.446	-2.99
234.662	-3.02
234.879	-1.65
235.095	-1.06
235.312	0.39
235.528	1.7
235.744	1.22
235.961	0.84
236.177	0.93
236.393	1.09
236.61	2.33
236.826	1.45
237.042	1.49
237.258	2.67
237.475	3.67
237.691	3.52
237.907	4.16
238.123	3.09
238.339	3.43
238.556	4.05
238.772	3.03
238.988	1.2
239.204	1.68
239.42	2.4
239.636	2.79
239.853	2.49
240.069	1.32
240.285	0.65
240.501	1.98
240.717	2.17
240.933	1.19
241.149	1.21
241.365	2
241.581	2.02
241.797	2
242.013	1.72
242.229	1.84
242.445	2.09
242.661	2.55
242.877	2.36
243.093	1.88
243.309	2.26
243.525	2.52
243.741	1.74
243.957	1.3
244.173	1.52
244.388	1.23
244.604	0.67
244.82	0.82
245.036	0.12
245.252	0.18
245.468	0.62
245.683	0.86
245.899	0.65
246.115	1.26
246.331	1.77
246.547	1.86
246.762	1.87
246.978	2.11
247.194	2.15
247.409	2.22
247.625	1.9
247.841	1.86
248.057	1.77
248.272	1.9
248.488	1.7
248.703	1.35
248.919	1.21
249.135	1.14
249.35	1.3
249.566	0.96
249.782	0.48
249.997	0.92
250.213	0.61
250.428	0.68
250.644	0.9
250.859	0.84
251.075	1
251.29	1.49
251.506	1.51
251.721	1.08
251.937	1.43
252.152	1.58
252.368	1.5
252.583	1.18
252.798	1.04
253.014	1.1
253.229	1.05
253.445	0.78
253.66	-0.33
253.875	-0.33
254.091	0.48
254.306	-0.19
254.521	0.81
254.737	1.74
254.952	1.71
255.167	1.69
255.383	1.27
255.598	1.53
255.813	1.37
256.028	1.58
256.244	1.05
256.459	0.22
256.674	-0.08
256.889	-1.27
257.104	-1.05
257.32	-0.46
257.535	-1.13
257.75	-0.87
257.965	-0.21
258.18	0.63
258.395	0.49
258.61	0.83
258.826	0.62
259.041	1.17
259.256	1.38
259.471	1.01
259.686	0.99
259.901	1.12
260.116	1.14
260.331	0.95
260.546	0.85
260.761	0.85
260.976	0.78
261.191	0.52
261.406	0.01
261.621	-0.01
261.836	-0.34
262.05	-0.43
262.265	-0.32
262.48	-0.57
262.695	-0.71
262.91	-1.18
263.125	-1.41
263.34	-1.89
263.555	-0.87
263.769	-0.3
263.984	-0.61
264.199	-0.35
264.414	-0.51
264.629	-0.63
264.843	-0.17
265.058	-0.28
265.273	-0.24
265.488	-0.18
265.702	0.23
265.917	0.13
266.132	0.09
266.346	0.05
266.561	0.33
266.776	0.58
266.99	0.71
267.205	0.23
267.42	0.01
267.634	-0.29
267.849	0.34
268.063	0.35
268.278	0.02
268.492	0.11
268.707	0.5
268.922	0.15
269.136	0.6
269.351	0.42
269.565	0.37
269.78	0.45
269.994	0.31
270.209	0.01
270.423	-0.25
270.637	-0.29
270.852	-0.36
271.066	-0.63
271.281	-0.28
271.495	-0.51
271.709	-0.54
271.924	-0.39
272.138	-0.42
272.353	-0.11
272.567	0.17
272.781	0.46
272.996	0.34
273.21	0.44
273.424	0.34
273.638	0.04
273.853	-0.04
274.067	0.23
274.281	0.29
274.495	0.7
274.71	0.88
274.924	0.67
275.138	0.59
275.352	0.33
275.566	0.35
275.781	0.07
275.995	0.27
276.209	0.35
276.423	0.25
276.637	0.47
276.851	0.72
277.065	0.49
277.279	0.41
277.493	0.24
277.707	1.01
277.921	0.56
278.135	1.01
278.349	0.59
278.563	0.71
278.777	0.71
278.991	0.53
279.205	0.09
279.419	-0.01
279.633	-0.4
279.847	0.22
280.061	0.42
280.275	-0.03
280.489	0.02
280.703	0.71
280.917	0.33
281.131	0.53
281.344	0.59
281.558	0.53
281.772	1.05
281.986	1.31
282.2	1.19
282.414	0.93
282.627	1.36
282.841	1.26
283.055	1.26
283.269	1.57
283.482	1.38
283.696	1.52
283.91	1.88
284.123	1.19
284.337	1.03
284.551	1.16
284.764	0.98
284.978	1.01
285.192	1.36
285.405	1.58
285.619	1.4
285.833	1.56
286.046	1.44
286.26	1.36
286.473	1.83
286.687	1.95
286.9	1.58
287.114	1.82
287.327	1.81
287.541	1.66
287.754	1.22
287.968	1.49
288.181	1.41
288.395	1.4
288.608	1.42
288.822	1.34
289.035	1.16
289.248	0.97
289.462	0.84
289.675	0.84
289.889	0.97
290.102	1.21
290.315	1.02
290.529	1.11
290.742	1.15
290.955	1.06
291.169	1.34
291.382	1.43
291.595	1.88
291.808	2.09
292.022	2.62
292.235	2.75
292.448	2.42
292.661	2.65
292.875	2.68
293.088	2.67
293.301	2.67
293.514	2.43
293.727	2.7
293.94	2.74
294.153	2.74
294.367	2.55
294.58	2.26
294.793	2.66
295.006	2.59
295.219	2.47
295.432	2.71
295.645	2.94
295.858	3.12
296.071	3
296.284	2.92
296.497	2.83
296.71	2.77
296.923	3.35
297.136	3.47
297.349	3.31
297.562	3.43
297.775	3.12
297.988	3.27
298.201	3.3
298.414	3.58
298.626	3.65
298.839	3.68
299.052	3.74
299.265	3.31
299.478	3.21
299.691	3.82
299.903	3.83
300.116	4.21
300.329	3.98
300.542	3.67
300.755	3.66
300.967	3.88
301.18	3.91
301.393	4
301.605	3.89
301.818	3.96
302.031	3.51
302.243	3.56
302.456	3.56
302.669	3.83
302.881	3.85
303.094	4.18
303.307	4.17
303.519	4.4
303.732	4.67
303.944	4.64
304.157	4.55
304.37	4.48
304.582	4.67
304.795	4.77
305.007	4.76
305.22	5.27
305.432	4.82
305.645	4.65
305.857	4.8
306.069	4.82
306.282	4.79
306.494	4.89
306.707	5.26
306.919	5.34
307.132	5.23
307.344	5.01
307.556	4.83
307.769	5.14
307.981	5.52
308.193	5.52
308.406	5.19
308.618	5.34
308.83	5.43
309.043	5.35
309.255	5.05
309.467	5.11
309.679	4.95
309.892	4.99
310.104	4.88
310.316	4.65
310.528	4.47
310.74	4.47
310.953	4.24
311.165	4.13
311.377	4.3
311.589	4.66
311.801	4.71
312.013	4.8
312.225	4.66
312.437	4.64
312.649	4.79
312.862	5
313.074	5.27
313.286	5.59
313.498	5.83
313.71	5.4
313.922	5.21
314.134	5.46
314.346	5.68
314.558	5.94
314.77	6.21
314.982	5.96
315.193	5.76
315.405	5.86
315.617	5.93
315.829	5.78
316.041	6.16
316.253	6.02
316.465	5.63
316.677	5.88
316.888	5.69
317.1	5.55
317.312	5.97
317.524	6.55
317.736	6.39
317.947	6.86
318.159	6.96
318.371	6.8
318.583	7.06
318.794	7.52
319.006	7.48
319.218	7.59
319.43	7.62
319.641	7.51
319.853	7.21
320.064	7.64
320.276	7.02
320.488	7.22
320.699	7.15
320.911	7.19
321.123	6.94
321.334	6.25
321.546	6.15
321.757	6.24
321.969	6.74
322.18	7.09
322.392	6.95
322.603	7.51
322.815	7.2
323.026	7.63
323.238	7.34
323.449	7.36
323.661	8.12
323.872	8.58
324.083	8.45
324.295	7.82
324.506	7.7
324.718	7.74
324.929	7.92
325.14	8.07
325.352	8.12
325.563	8.83
325.774	9.11
325.986	9.17
326.197	9.09
326.408	9.62
326.62	10.24
326.831	10.49
327.042	10.82
327.253	11.21
327.464	11.82
327.676	11.95
327.887	11.95
328.098	12.35
328.309	12.53
328.52	12.82
328.732	12.97
328.943	13.36
329.154	13.89
329.365	14.12
329.576	14.17
329.787	14.44
329.998	15.53
330.209	15.73
330.42	15.96
330.631	16.26
330.842	16.62
331.053	16.98
331.264	17.24
331.475	17.24
331.686	17.37
331.897	17.53
332.108	17.6
332.319	17.36
332.53	17.5
332.741	17.74
332.952	17.93
333.163	17.89
333.374	17.95
333.585	18.18
333.795	18.32
334.006	18.23
334.217	18.21
334.428	18.53
334.639	18.61
334.849	18.87
335.06	18.88
335.271	18.9
335.482	19.43
335.692	19.48
335.903	19.39
336.114	19.18
336.325	19.59
336.535	19.83
336.746	19.46
336.957	19.43
337.167	19.43
337.378	19.53
337.589	19.88
337.799	19.74
338.01	19.74
338.22	19.76
338.431	20.17
338.642	19.73
338.852	19.82
339.063	20.02
339.273	20.3
339.484	20.13
339.694	19.9
339.905	19.55
340.115	19.38
340.326	19.14
340.536	19.14
340.746	18.96
340.957	19.32
341.167	19.18
341.378	19.14
341.588	18.91
341.799	19.09
342.009	19.03
342.219	19.2
342.43	19.27
342.64	19.74
342.85	19.72
343.061	19.59
343.271	19.71
343.481	19.74
343.691	19.8
343.902	19.94
344.112	19.88
344.322	19.93
344.532	19.87
344.743	19.91
344.953	19.57
345.163	19.26
345.373	19.32
345.583	18.94
345.793	19.11
346.004	19
346.214	18.93
346.424	18.9
346.634	19.07
346.844	19.07
347.054	19.21
347.264	19.15
347.474	19.34
347.684	19.63
347.894	19.81
348.104	19.71
348.314	19.78
348.524	19.64
348.734	19.88
348.944	19.99
349.154	19.9
349.364	19.83
349.574	19.93
349.784	20.18
349.994	19.92
350.204	19.82
350.413	19.56
350.623	19.55
350.833	19.34
351.043	19.22
351.253	18.92
351.463	18.82
351.672	18.9
351.882	18.8
352.092	18.35
352.302	18.07
352.511	18.36
352.721	18.63
352.931	18.66
353.141	18.91
353.35	18.87
353.56	18.97
353.77	19.05
353.979	18.71
354.189	18.82
354.399	19.22
354.608	19.54
354.818	19.02
355.027	18.88
355.237	18.82
355.447	18.92
355.656	18.98
355.866	18.94
356.075	19.11
356.285	19.46
356.494	19.66
356.704	19.61
356.913	19.51
357.123	19.81
357.332	19.84
357.542	19.76
357.751	19.57
357.96	19.53
358.17	19.69
358.379	19.51
358.589	19.6
358.798	19.4
359.007	19.4
359.217	19.5
359.426	19.36
359.635	19.3
359.845	19.48
360.054	19.51
360.263	19.45
360.472	19.21
360.682	19.01
360.891	18.79
361.1	18.6
361.309	18.47
361.519	18.62
361.728	18.62
361.937	18.57
362.146	18.37
362.355	18.35
362.564	18.47
362.774	18.46
362.983	18.54
363.192	18.54
363.401	18.66
363.61	18.85
363.819	18.74
364.028	18.86
364.237	18.99
364.446	19.01
364.655	19.25
364.864	18.83
365.073	18.78
365.282	18.76
365.491	18.55
365.7	18.28
365.909	17.8
366.118	17.79
366.327	17.89
366.536	17.9
366.745	17.82
366.954	17.45
367.162	17.68
367.371	17.76
367.58	17.97
367.789	18.11
367.998	18.33
368.207	18.47
368.415	18.28
368.624	18.1
368.833	17.91
369.042	18.06
369.25	18.08
369.459	18.11
369.668	18.03
369.877	17.73
370.085	17.67
370.294	17.73
370.503	17.83
370.711	17.73
370.92	17.53
371.129	17.38
371.337	17.11
371.546	17.2
371.754	17.13
371.963	17.04
372.171	17.12
372.38	17.21
372.589	17.01
372.797	17.06
373.006	17.1
373.214	17.1
373.423	17.17
373.631	17.14
373.84	17.1
374.048	16.93
374.256	17.04
374.465	16.9
374.673	16.66
374.882	16.9
375.09	16.94
375.298	16.75
375.507	16.76
375.715	16.75
375.923	16.94
376.132	16.7
376.34	16.6
376.548	16.47
376.757	16.54
376.965	16.67
377.173	16.36
377.381	15.96
377.59	16.25
377.798	16.08
378.006	16
378.214	15.77
378.423	15.83
378.631	15.92
378.839	15.87
379.047	15.63
379.255	15.43
379.463	15.66
379.671	15.7
379.879	15.32
380.088	15.35
380.296	15.36
380.504	15.3
380.712	15.12
380.92	15.05
381.128	15.16
381.336	15.32
381.544	15
381.752	14.72
381.96	14.71
382.168	14.74
382.376	14.8
382.584	14.62
382.791	14.72
382.999	14.69
383.207	14.52
383.415	14.53
383.623	14.4
383.831	14.43
384.039	14.48
384.247	14.62
384.454	14.49
384.662	14.56
384.87	14.58
385.078	14.49
385.285	14.57
385.493	14.64
385.701	14.37
385.909	14.35
386.116	14.51
386.324	14.4
386.532	14.23
386.739	14.25
386.947	14.04
387.155	14.28
387.362	14.21
387.57	14.04
387.778	13.87
387.985	14
388.193	13.94
388.4	13.74
388.608	13.88
388.816	14.07
389.023	14.18
389.231	14.18
389.438	13.92
389.646	14.04
389.853	14.11
390.061	14.19
390.268	14.13
390.475	14.04
390.683	14.22
390.89	14.01
391.098	13.92
391.305	13.86
391.512	13.84
391.72	13.89
391.927	13.81
392.135	13.92
392.342	13.9
392.549	13.84
392.756	13.92
392.964	13.79
393.171	14.03
393.378	13.96
393.586	13.9
393.793	13.76
394	13.6
394.207	13.71
394.414	13.51
394.622	13.38
394.829	13.43
395.036	13.36
395.243	13.41
395.45	13.15
395.657	13.16
395.864	13.08
396.072	12.97
396.279	13.16
396.486	12.96
396.693	13.05
396.9	13.11
397.107	13.01
397.314	13.1
397.521	13.13
397.728	13.16
397.935	13.05
398.142	12.99
398.349	13.25
398.556	13.14
398.763	13.14
398.97	12.93
399.177	13.04
399.383	12.99
399.59	13.01
399.797	12.9
400.004	12.8
400.211	12.97
400.418	13.03
400.625	12.92
400.831	12.85
401.038	12.88
401.245	13.09
401.452	13.08
401.658	13.21
401.865	13.15
402.072	13.19
402.279	13.19
402.485	12.8
402.692	12.71
402.899	12.84
403.105	12.86
403.312	12.76
403.519	12.55
403.725	12.52
403.932	12.39
404.138	12.3
404.345	12.37
404.552	12.28
404.758	12.41
404.965	12.34
405.171	12.41
405.378	12.48
405.584	12.55
405.791	12.72
405.997	12.63
406.204	12.67
406.41	12.59
406.617	12.35
406.823	12.52
407.029	12.54
407.236	12.72
407.442	12.61
407.649	12.62
407.855	12.64
408.061	12.68
408.268	12.73
408.474	12.88
408.68	13.14
408.887	13.24
409.093	13.21
409.299	13.21
409.505	13.07
409.712	12.98
409.918	12.88
410.124	12.87
410.33	12.84
410.537	12.72
410.743	12.61
410.949	12.64
411.155	12.67
411.361	12.69
411.567	12.79
411.773	12.85
411.98	12.97
412.186	12.9
412.392	13.02
412.598	12.94
412.804	13.05
413.01	12.94
413.216	12.81
413.422	12.75
413.628	12.8
413.834	12.71
414.04	12.72
414.246	12.63
414.452	12.62
414.658	12.39
414.864	12.31
415.07	12.4
415.275	12.36
415.481	12.43
415.687	12.43
415.893	12.29
416.099	12.24
416.305	12.22
416.511	12.27
416.716	12.33
416.922	12.42
417.128	12.46
417.334	12.31
417.539	12.45
417.745	12.33
417.951	12.37
418.157	12.4
418.362	12.5
418.568	12.58
418.774	12.51
418.979	12.49
419.185	12.47
419.391	12.5
419.596	12.54
419.802	12.49
420.008	12.57
420.213	13.18
420.419	13.2
420.624	13.2
420.83	13.15
421.035	13.19
421.241	13.22
421.446	13.2
421.652	13.14
421.857	13.15
422.063	13.11
422.268	13
422.474	12.43
422.679	12.39
422.885	12.3
423.09	12.32
423.295	12.23
423.501	12.21
423.706	12.26
423.911	12.27
424.117	12.21
424.322	12.23
424.527	12.23
424.733	12.23
424.938	12.21
425.143	12.18
425.349	12.12
425.554	12.14
425.759	12.17
425.964	12.19
426.169	12.19
426.375	12.22
426.58	12.21
426.785	12.22
426.99	12.2
427.195	12.33
427.4	12.34
427.605	12.33
427.811	12.41
428.016	12.37
428.221	12.43
428.426	12.43
428.631	12.48
428.836	12.48
429.041	12.53
429.246	12.43
429.451	12.28
429.656	12.32
429.861	12.46
430.066	12.26
430.271	12.19
430.476	12.02
430.681	12.13
430.886	12.17
431.09	12.19
431.295	12.26
431.5	12.39
431.705	12.4
431.91	12.49
432.115	12.46
432.32	12.59
432.524	12.55
432.729	12.64
432.934	12.58
433.139	12.53
433.343	12.47
433.548	12.49
433.753	12.56
433.958	12.57
434.162	12.59
434.367	12.64
434.572	12.64
434.776	12.68
434.981	12.65
435.186	12.77
435.39	12.76
435.595	12.88
435.799	12.78
436.004	12.75
436.209	12.8
436.413	12.73
436.618	12.62
436.822	12.71
437.027	12.73
437.231	12.69
437.436	12.61
437.64	12.69
437.845	12.69
438.049	12.77
438.253	12.7
438.458	12.77
438.662	12.85
438.867	12.92
439.071	12.91
439.275	12.96
439.48	12.96
439.684	12.93
439.888	12.93
440.093	12.91
440.297	12.93
440.501	12.95
440.706	12.95
440.91	12.89
441.114	12.83
441.318	12.86
441.523	12.9
441.727	12.93
441.931	12.99
442.135	13.05
442.339	13.03
442.543	13.08
442.748	13.04
442.952	12.99
443.156	12.97
443.36	13
443.564	12.89
443.768	12.86
443.972	12.85
444.176	12.85
444.38	12.73
444.584	12.75
444.788	12.66
444.992	12.67
445.196	12.68
445.4	12.77
445.604	12.81
445.808	12.81
446.012	12.81
446.216	12.85
446.42	12.86
446.624	12.88
446.828	12.85
447.032	12.85
447.235	12.88
447.439	12.89
447.643	12.87
447.847	12.78
448.051	12.82
448.254	12.76
448.458	12.67
448.662	12.68
448.866	12.66
449.069	12.73
449.273	12.79
449.477	12.71
449.681	12.64
449.884	12.59
450.088	12.71
450.292	12.66
450.495	12.59
450.699	12.49
450.902	12.34
451.106	12.34
451.31	12.29
451.513	12.2
451.717	12.27
451.92	12.28
452.124	12.24
452.327	12.19
452.531	12.24
452.734	12.39
452.938	12.54
453.141	12.62
453.345	12.68
453.548	12.65
453.752	12.59
453.955	12.53
454.158	12.56
454.362	12.61
454.565	12.6
454.769	12.53
454.972	12.44
455.175	12.47
455.379	12.52
455.582	12.39
455.785	12.45
455.988	12.5
456.192	12.53
456.395	12.44
456.598	12.48
456.801	12.6
457.005	12.66
457.208	12.71
457.411	12.73
457.614	12.7
457.817	12.8
458.021	12.76
458.224	12.77
458.427	12.84
458.63	12.85
458.833	12.7
459.036	12.62
459.239	12.57
459.442	12.53
459.645	12.42
459.848	12.44
460.051	12.42
460.254	12.45
460.457	12.52
460.66	12.51
460.863	12.55
461.066	12.69
461.269	12.67
461.472	12.76
461.675	12.81
461.878	12.94
462.081	12.87
462.284	12.83
462.486	12.78
462.689	12.74
462.892	12.72
463.095	12.66
463.298	12.65
463.5	12.74
463.703	12.72
463.906	12.77
464.109	12.66
464.311	12.63
464.514	12.62
464.717	12.67
464.92	12.64
465.122	12.71
465.325	12.83
465.528	12.8
465.73	12.84
465.933	12.8
466.135	12.77
466.338	12.67
466.541	12.77
466.743	12.82
466.946	12.81
467.148	12.86
467.351	12.83
467.553	12.78
467.756	12.7
467.958	12.6
468.161	12.72
468.363	12.76
468.566	12.89
468.768	12.9
468.971	12.97
469.173	12.97
469.375	12.98
469.578	12.98
469.78	12.96
469.983	13.01
470.185	13.08
470.387	13.09
470.59	13.13
470.792	13.13
470.994	13.16
471.196	13.14
471.399	13.2
471.601	13.17
471.803	13.15
472.005	13.17
472.208	13.24
472.41	13.27
472.612	13.31
472.814	13.29
473.016	13.31
473.218	13.36
473.421	13.33
473.623	13.27
473.825	13.25
474.027	13.34
474.229	13.35
474.431	13.39
474.633	13.31
474.835	13.25
475.037	13.33
475.239	13.3
475.441	13.26
475.643	13.33
475.845	13.33
476.047	13.32
476.249	13.23
476.451	13.22
476.653	13.22
476.855	13.19
477.057	13.13
477.258	13.03
477.46	13.08
477.662	13.17
477.864	13.08
478.066	13.17
478.268	13.24
478.469	13.19
478.671	13.21
478.873	13.24
479.075	13.21
479.276	13.21
479.478	13.22
479.68	13.26
479.882	13.16
480.083	13.23
480.285	13.2
480.487	13.14
480.688	13.16
480.89	13.1
481.091	13.03
481.293	13.06
481.495	13.02
481.696	13.01
481.898	12.94
482.099	12.94
482.301	12.89
482.502	12.92
482.704	12.93
482.905	12.95
483.107	12.92
483.308	12.89
483.51	12.87
483.711	12.91
483.913	12.9
484.114	12.94
484.315	12.95
484.517	12.95
484.718	12.91
484.92	12.91
485.121	12.88
485.322	12.95
485.524	12.98
485.725	12.99
485.926	12.97
486.127	12.95
486.329	12.91
486.53	12.86
486.731	12.89
486.932	12.88
487.134	12.87
487.335	12.86
487.536	12.82
487.737	12.83
487.938	12.85
488.139	12.86
488.341	12.92
488.542	12.92
488.743	12.91
488.944	12.9
489.145	12.95
489.346	12.99
489.547	13.02
489.748	13.06
489.949	13.06
490.15	13.03
490.351	13.03
490.552	13.03
490.753	13.08
490.954	13.16
491.155	13.15
491.356	13.13
491.557	13.12
491.758	13.16
491.959	13.15
492.159	13.16
492.36	13.21
492.561	13.19
492.762	13.2
492.963	13.18
493.164	13.14
493.364	13.18
493.565	13.17
493.766	13.14
493.967	13.07
494.167	13.15
494.368	13.19
494.569	13.22
494.769	13.32
494.97	13.33
495.171	13.42
495.371	13.5
495.572	13.47
495.773	13.46
495.973	13.59
496.174	13.64
496.375	13.6
496.575	13.65
496.776	13.74
496.976	13.74
497.177	13.69
497.377	13.6
497.578	13.66
497.778	13.75
497.979	13.82
498.179	13.81
498.38	13.84
498.58	13.87
498.78	13.83
498.981	13.77
499.181	13.73
499.382	13.83
499.582	13.95
499.782	13.92
499.983	13.96
500.183	14.07
500.383	14.01
500.584	14.02
500.784	14.03
500.984	14.08
501.184	14.12
501.385	14.2
501.585	14.24
501.785	14.3
501.985	14.32
502.185	14.33
502.386	14.34
502.586	14.37
502.786	14.41
502.986	14.42
503.186	14.45
503.386	14.5
503.586	14.55
503.786	14.5
503.987	14.51
504.187	14.53
504.387	14.58
504.587	14.68
504.787	14.73
504.987	14.9
505.187	14.91
505.387	14.99
505.587	15
505.786	15.02
505.986	15.12
506.186	15.15
506.386	15.31
506.586	15.36
506.786	15.4
506.986	15.57
507.186	15.54
507.386	15.66
507.585	15.68
507.785	15.76
507.985	15.88
508.185	15.86
508.384	15.9
508.584	15.92
508.784	16.02
508.984	16.11
509.183	16.18
509.383	16.2
509.583	16.33
509.782	16.4
509.982	16.47
510.182	16.48
510.381	16.68
510.581	16.82
510.781	16.78
510.98	16.88
511.18	16.83
511.379	16.85
511.579	16.99
511.778	17.05
511.978	17.12
512.177	17.3
512.377	17.36
512.576	17.38
512.776	17.41
512.975	17.57
513.175	17.62
513.374	17.73
513.573	17.84
513.773	17.96
513.972	18.09
514.172	18.26
514.371	18.35
514.57	18.55
514.77	18.73
514.969	18.77
515.168	18.93
515.367	19.05
515.567	19.27
515.766	19.31
515.965	19.39
516.164	19.39
516.364	19.43
516.563	19.38
516.762	19.41
516.961	19.46
517.16	19.62
517.359	19.74
517.559	19.9
517.758	19.96
517.957	20.03
518.156	20.11
518.355	20.22
518.554	20.25
518.753	20.38
518.952	20.47
519.151	20.53
519.35	20.66
519.549	20.73
519.748	20.74
519.947	20.85
520.146	21.02
520.345	21.12
520.544	21.19
520.743	21.34
520.942	21.5
521.141	21.6
521.339	21.76
521.538	21.8
521.737	21.94
521.936	22.07
522.135	22.2
522.333	22.26
522.532	22.38
522.731	22.59
522.93	22.69
523.129	22.76
523.327	22.95
523.526	23.11
523.725	23.27
523.923	23.3
524.122	23.43
524.321	23.51
524.519	23.68
524.718	23.68
524.917	23.76
525.115	23.9
525.314	24.01
525.512	24.09
525.711	24.11
525.909	24.22
526.108	24.34
526.306	24.38
526.505	24.44
526.703	24.5
526.902	24.63
527.1	24.66
527.299	24.75
527.497	24.84
527.696	24.89
527.894	25.01
528.092	25.07
528.291	25.12
528.489	25.22
528.688	25.33
528.886	25.45
529.084	25.51
529.283	25.65
529.481	25.77
529.679	25.85
529.877	25.98
530.076	26.08
530.274	26.18
530.472	26.32
530.67	26.42
530.869	26.49
531.067	26.51
531.265	26.69
531.463	26.79
531.661	26.79
531.859	26.94
532.057	27.03
532.255	27.08
532.454	27.12
532.652	27.11
532.85	27.16
533.048	27.26
533.246	27.4
533.444	27.45
533.642	27.51
533.84	27.59
534.038	27.64
534.236	27.67
534.434	27.77
534.632	27.88
534.83	28.06
535.027	28.14
535.225	28.17
535.423	28.23
535.621	28.29
535.819	28.34
536.017	28.44
536.215	28.43
536.412	28.5
536.61	28.54
536.808	28.59
537.006	28.66
537.203	28.8
537.401	28.94
537.599	29.03
537.797	29.13
537.994	29.28
538.192	29.31
538.39	29.42
538.587	29.54
538.785	29.67
538.983	29.82
539.18	29.88
539.378	29.96
539.575	30.06
539.773	30.14
539.97	30.19
540.168	30.25
540.366	30.39
540.563	30.49
540.761	30.51
540.958	30.54
541.155	30.6
541.353	30.7
541.55	30.72
541.748	30.75
541.945	30.75
542.143	30.84
542.34	30.92
542.537	30.95
542.735	31.03
542.932	31.11
543.129	31.3
543.327	31.36
543.524	31.47
543.721	31.63
543.919	31.77
544.116	31.98
544.313	32.16
544.51	32.31
544.708	32.45
544.905	32.65
545.102	32.87
545.299	32.84
545.496	32.98
545.693	33
545.891	33.08
546.088	33.13
546.285	33.16
546.482	33.08
546.679	33.07
546.876	33.04
547.073	32.98
547.27	32.84
547.467	32.84
547.664	32.75
547.861	32.77
548.058	32.73
548.255	32.75
548.452	32.65
548.649	32.65
548.846	32.56
549.043	32.57
549.24	32.61
549.437	32.74
549.633	32.78
549.83	32.86
550.027	32.83
550.224	32.69
550.421	32.61
550.618	32.63
550.814	32.61
551.011	32.67
551.208	32.73
551.405	32.63
551.601	32.62
551.798	32.55
551.995	32.55
552.191	32.59
552.388	32.7
552.585	32.63
552.781	32.6
552.978	32.69
553.175	32.64
553.371	32.65
553.568	32.64
553.764	32.53
553.961	32.55
554.157	32.46
554.354	32.52
554.55	32.54
554.747	32.67
554.943	32.81
555.14	32.8
555.336	32.85
555.533	32.91
555.729	32.99
555.926	32.99
556.122	33.09
556.318	33.19
556.515	33.01
556.711	33.05
556.907	32.97
557.104	32.91
557.3	32.96
557.496	32.97
557.693	32.89
557.889	32.8
558.085	32.98
558.281	33.05
558.478	33.04
558.674	33.07
558.87	33
559.066	33.05
559.262	33.1
559.459	33.07
559.655	33.04
559.851	33.04
560.047	33.18
560.243	33.17
560.439	33.13
560.635	33.2
560.831	33.31
561.027	33.36
561.223	33.38
561.419	33.33
561.615	33.29
561.811	33.41
562.007	33.43
562.203	33.52
562.399	33.55
562.595	33.42
562.791	33.46
562.987	33.48
563.183	33.54
563.379	33.5
563.575	33.6
563.771	33.7
563.966	33.64
564.162	33.67
564.358	33.5
564.554	33.46
564.75	33.67
564.945	33.58
565.141	33.53
565.337	33.58
565.533	33.6
565.728	33.57
565.924	33.55
566.12	33.45
566.315	33.41
566.511	33.49
566.707	33.54
566.902	33.46
567.098	33.53
567.293	33.59
567.489	33.57
567.684	33.62
567.88	33.57
568.076	33.58
568.271	33.78
568.467	33.86
568.662	33.86
568.858	33.81
569.053	33.92
569.248	33.97
569.444	34.03
569.639	33.86
569.835	33.99
570.03	34
570.225	33.96
570.421	33.88
570.616	33.81
570.812	33.76
571.007	33.88
571.202	33.77
571.397	33.75
571.593	33.6
571.788	33.72
571.983	33.73
572.178	33.8
572.374	33.95
572.569	33.96
572.764	34.07
572.959	34.23
573.154	34.14
573.35	34.21
573.545	34.29
573.74	34.46
573.935	34.43
574.13	34.34
574.325	34.41
574.52	34.41
574.715	34.51
574.91	34.56
575.105	34.52
575.3	34.63
575.495	34.64
575.69	34.6
575.885	34.6
576.08	34.74
576.275	34.8
576.47	34.97
576.665	35.02
576.86	35.03
577.055	35.04
577.25	35.19
577.444	35.18
577.639	35.3
577.834	35.37
578.029	35.41
578.224	35.6
578.418	35.65
578.613	35.56
578.808	35.58
579.003	35.59
579.197	35.69
579.392	35.48
579.587	35.46
579.781	35.38
579.976	35.55
580.171	35.75
580.365	35.75
580.56	35.75
580.755	35.76
580.949	35.7
581.144	35.84
581.338	35.73
581.533	35.88
581.727	36.06
581.922	36.12
582.116	36.14
582.311	36.04
582.505	35.97
582.7	36.11
582.894	36.1
583.089	36.14
583.283	36.02
583.478	36.09
583.672	36.18
583.866	36.16
584.061	36.3
584.255	36.11
584.449	36.16
584.644	36.19
584.838	36.21
585.032	36.21
585.226	36.36
585.421	36.7
585.615	36.88
585.809	36.81
586.003	36.9
586.198	36.78
586.392	37.01
586.586	37.01
586.78	36.97
586.974	36.96
587.168	37
587.363	36.97
587.557	36.78
587.751	36.67
587.945	36.55
588.139	36.42
588.333	36.56
588.527	36.47
588.721	36.43
588.915	36.5
589.109	36.41
589.303	36.42
589.497	36.34
589.691	36.31
589.885	36.26
590.079	36.46
590.273	36.54
590.466	36.44
590.66	36.39
590.854	36.51
591.048	36.54
591.242	36.68
591.436	36.84
591.629	36.94
591.823	37.07
592.017	37.29
592.211	37.2
592.404	37.31
592.598	37.36
592.792	37.55
592.986	37.53
593.179	37.48
593.373	37.54
593.567	37.42
593.76	37.29
593.954	37.22
594.147	37.09
594.341	37.18
594.535	37.13
594.728	37.17
594.922	37.02
595.115	37.02
595.309	37.06
595.502	37.07
595.696	37.15
595.889	37.32
596.083	37.29
596.276	37.33
596.47	37.46
596.663	37.34
596.856	37.35
597.05	37.42
597.243	37.37
597.437	37.54
597.63	37.53
597.823	37.45
598.017	37.48
598.21	37.53
598.403	37.6
598.596	37.45
598.79	37.66
598.983	37.75
599.176	37.83
599.369	37.93
599.563	37.86
599.756	37.88
599.949	38.05
600.142	37.93
600.335	38.08
600.528	38.03
600.722	38.18
600.915	38.22
601.108	38.21
601.301	38.22
601.494	38.22
601.687	38.09
601.88	38.03
602.073	37.86
602.266	37.97
602.459	37.84
602.652	37.87
602.845	37.79
603.038	37.73
603.231	37.57
603.424	37.59
603.617	37.55
603.809	37.54
604.002	37.57
604.195	37.66
604.388	37.65
604.581	37.67
604.774	37.69
604.966	37.71
605.159	37.69
605.352	37.81
605.545	37.89
605.737	37.97
605.93	38.1
606.123	38.31
606.316	38.38
606.508	38.4
606.701	38.53
606.894	38.59
607.086	38.67
607.279	38.81
607.471	39.02
607.664	39.16
607.857	39.4
608.049	39.67
608.242	39.93
608.434	40.43
608.627	41.03
608.819	41.64
609.012	42.36
609.204	43.39
609.397	44.34
609.589	45.28
609.782	46.27
609.974	47.33
610.166	48.42
610.359	49.36
610.551	50.21
610.743	50.88
610.936	51.55
611.128	52.19
611.32	52.44
611.513	52.57
611.705	52.62
611.897	52.37
612.09	52.03
612.282	51.45
612.474	50.98
612.666	50.57
612.858	50.13
613.051	49.78
613.243	49.05
613.435	48.54
613.627	48.26
613.819	47.74
614.011	47.38
614.203	46.92
614.395	46.48
614.588	46.07
614.78	45.54
614.972	45.15
615.164	44.6
615.356	44.31
615.548	43.85
615.74	43.38
615.932	43.03
616.124	42.84
616.315	42.69
616.507	42.58
616.699	42.32
616.891	41.93
617.083	41.91
617.275	41.66
617.467	41.53
617.659	41.37
617.85	41.14
618.042	40.88
618.234	40.63
618.426	40.4
618.618	40.38
618.809	40.32
619.001	40.49
619.193	40.32
619.384	40.44
619.576	40.49
619.768	40.6
619.959	40.64
620.151	40.79
620.343	40.76
620.534	40.92
620.726	40.79
620.917	40.81
621.109	40.95
621.301	41.07
621.492	41.1
621.684	41.04
621.875	40.86
622.067	40.83
622.258	41.15
622.45	41.22
622.641	41.15
622.832	41.65
623.024	41.85
623.215	41.62
623.407	41.7
623.598	41.54
623.789	41.49
623.981	41.51
624.172	41.66
624.363	41.41
624.555	41.37
624.746	41.33
624.937	41.06
625.129	41.01
625.32	41.16
625.511	41.02
625.702	41.04
625.893	41.11
626.085	41.14
626.276	41.02
626.467	41.11
626.658	41.1
626.849	41.14
627.04	40.86
627.231	40.92
627.422	40.75
627.614	40.87
627.805	40.97
627.996	40.9
628.187	41.07
628.378	41.11
628.569	41.14
628.76	41.21
628.951	41.22
629.142	41.66
629.332	41.63
629.523	41.86
629.714	41.96
629.905	42.26
630.096	42.38
630.287	42.37
630.478	42.3
630.669	42.37
630.859	42.49
631.05	42.47
631.241	42.25
631.432	42.15
631.623	42.02
631.813	41.75
632.004	41.44
632.195	41.18
632.385	41.08
632.576	41.23
632.767	41.06
632.957	41.05
633.148	40.93
633.339	40.99
633.529	40.95
633.72	40.91
633.91	40.88
634.101	40.85
634.292	41.1
634.482	40.96
634.673	41.06
634.863	40.98
635.054	40.75
635.244	40.83
635.435	40.77
635.625	40.69
635.815	40.59
636.006	40.65
636.196	40.58
636.387	40.37
636.577	40.45
636.767	40.22
636.958	40.2
637.148	40.23
637.338	40.23
637.529	40.3
637.719	40.35
637.909	40.46
638.099	40.31
638.29	40.29
638.48	40.65
638.67	40.6
638.86	40.58
639.05	40.71
639.241	40.78
639.431	40.9
639.621	40.89
639.811	40.98
640.001	41.02
640.191	41.32
640.381	41.21
640.571	41
640.761	40.98
640.951	41.09
641.141	40.92
641.331	40.91
641.521	40.94
641.711	40.8
641.901	40.81
642.091	40.84
642.281	40.67
642.471	40.85
642.661	40.77
642.851	40.73
643.041	40.77
643.231	40.98
643.42	40.97
643.61	40.99
643.8	41.03
643.99	40.93
644.18	40.83
644.369	41.02
644.559	41.05
644.749	41.19
644.939	41.33
645.128	41.27
645.318	40.86
645.508	40.86
645.697	40.65
645.887	40.61
646.076	40.71
646.266	40.83
646.456	40.8
646.645	40.6
646.835	40.48
647.024	40.64
647.214	40.62
647.403	40.79
647.593	40.67
647.782	40.92
647.972	41.12
648.161	41.05
648.351	40.96
648.54	40.73
648.73	41.03
648.919	40.88
649.108	40.83
649.298	41.03
649.487	41.11
649.677	41.33
649.866	41.26
650.055	41.25
650.244	41.54
650.434	41.63
650.623	41.92
650.812	41.73
651.002	41.85
651.191	41.94
651.38	41.76
651.569	42.01
651.758	42.22
651.947	42.27
652.137	42.06
652.326	41.83
652.515	41.83
652.704	41.49
652.893	41.73
653.082	41.84
653.271	41.7
653.46	41.81
653.649	41.8
653.838	41.53
654.027	41.48
654.216	41.55
654.405	41.8
654.594	41.78
654.783	41.85
654.972	41.54
655.161	41.39
655.35	41.33
655.539	41.27
655.728	41.09
655.916	41.09
656.105	40.92
656.294	40.85
656.483	40.55
656.672	40.54
656.86	40.69
657.049	40.68
657.238	40.77
657.427	40.72
657.615	40.67
657.804	40.63
657.993	40.59
658.181	40.67
658.37	40.51
658.559	40.76
658.747	40.98
658.936	40.89
659.125	40.93
659.313	41.17
659.502	41.44
659.69	41.4
659.879	41.3
660.067	41.34
660.256	41.39
660.444	41.56
660.633	41.41
660.821	41.22
661.01	41.39
661.198	41.46
661.387	41.21
661.575	41.14
661.763	41.1
661.952	41.45
662.14	41.53
662.328	41.43
662.517	41.49
662.705	41.42
662.893	41.42
663.082	41.29
663.27	41.37
663.458	41.45
663.646	41.2
663.834	41.34
664.023	41.1
664.211	41.23
664.399	41.47
664.587	41.32
664.775	41.49
664.963	41.74
665.152	42.01
665.34	41.92
665.528	42.3
665.716	42.34
665.904	42.13
666.092	42.42
666.28	42.33
666.468	42.19
666.656	42.32
666.844	42.28
667.032	42.12
667.22	41.97
667.408	42.07
667.596	41.8
667.784	41.95
667.971	42.19
668.159	41.95
668.347	42.15
668.535	42.19
668.723	42.39
668.911	42.37
669.098	42.4
669.286	42.57
669.474	42.49
669.662	42.38
669.849	42.42
670.037	42.34
670.225	42.18
670.413	42.11
670.6	42.26
670.788	41.94
670.976	41.97
671.163	41.87
671.351	41.58
671.538	41.85
671.726	41.99
671.913	41.74
672.101	41.7
672.289	41.83
672.476	41.48
672.664	41.28
672.851	41.62
673.039	41.37
673.226	41.23
673.413	41.27
673.601	40.97
673.788	41.15
673.976	41.24
674.163	41.2
674.35	41.33
674.538	41.55
674.725	41.94
674.912	41.67
675.1	42.01
675.287	42.07
675.474	42.05
675.662	42.42
675.849	42.32
676.036	42.31
676.223	42.48
676.411	42.46
676.598	42.61
676.785	42.3
676.972	42.61
677.159	42.31
677.346	42.48
677.533	42.76
677.721	42.65
677.908	42.21
678.095	42.14
678.282	41.97
678.469	41.92
678.656	41.94
678.843	41.86
679.03	41.9
679.217	42.14
679.404	42.15
679.591	41.86
679.778	41.73
679.964	42.01
680.151	42.2
680.338	42.44
680.525	42.7
680.712	42.53
680.899	42.65
681.086	42.46
681.272	42.51
681.459	42.26
681.646	42.67
681.833	42.66
682.02	42.88
682.206	42.85
682.393	42.68
682.58	42.3
682.766	42.49
682.953	42.64
683.14	42.66
683.326	42.67
683.513	43.18
683.7	42.85
683.886	42.84
684.073	42.55
684.259	42.4
684.446	42.61
684.632	42.95
684.819	42.95
685.005	42.71
685.192	42.63
685.378	42.67
685.565	42.24
685.751	42.32
685.938	42.35
686.124	42.16
686.31	42.39
686.497	42.12
686.683	42
686.87	41.77
687.056	41.79
687.242	41.94
687.429	41.87
687.615	41.96
687.801	41.89
687.987	42
688.174	42.25
688.36	42.48
688.546	42.7
688.732	42.61
688.918	42.51
689.105	42.63
689.291	42.8
689.477	42.74
689.663	42.69
689.849	42.41
690.035	42.26
690.221	42.34
690.407	41.69
690.593	41.74
690.779	41.86
690.965	41.82
691.151	41.79
691.337	41.58
691.523	41.8
691.709	41.96
691.895	42.21
692.081	42.56
692.267	42.65
692.453	43.17
692.639	43.43
692.825	43.57
693.011	43.71
693.196	43.58
693.382	43.59
693.568	43.31
693.754	43.11
693.94	43.06
694.125	42.93
694.311	42.76
694.497	42.57
694.682	42.01
694.868	41.88
695.054	41.86
695.239	42.17
695.425	42.32
695.611	42.56
695.796	42.44
695.982	42.07
696.168	41.62
696.353	41.5
696.539	41.23
696.724	41.07
696.91	41.23
697.095	41.13
697.281	40.74
697.466	40.66
697.652	40.55
697.837	40.47
698.023	40.95
698.208	41.11
698.393	41.27
698.579	41.53
698.764	41.92
698.949	41.73
699.135	41.83
699.32	42.1
699.505	42.11
699.691	42.21
699.876	42.57
700.061	42.62
700.246	42.78
700.432	42.81
700.617	42.62
700.802	42.43
700.987	42.43
701.172	42.57
701.358	42.66
701.543	42.62
701.728	42.59
701.913	42.66
702.098	42.58
702.283	42.72
702.468	42.83
702.653	43.3
702.838	43.47
703.023	43.79
703.208	43.74
703.393	43.96
703.578	44.18
703.763	44.52
703.948	44.78
704.133	44.66
704.318	44.59
704.503	44.6
704.688	44.76
704.873	45.06
705.057	45.12
705.242	45.5
705.427	45.3
705.612	45.6
705.797	45.61
705.981	45.53
706.166	46.01
706.351	46.18
706.536	46.39
706.72	46.22
706.905	46.31
707.09	46.3
707.274	46.41
707.459	46.54
707.644	46.34
707.828	46.38
708.013	46.49
708.197	46.67
708.382	46.72
708.567	46.75
708.751	46.83
708.936	46.37
709.12	46.36
709.305	46.03
709.489	46.03
709.673	46.05
709.858	45.72
710.042	45.73
710.227	45.55
710.411	45.55
710.596	45.4
710.78	45.29
710.964	45.54
711.149	45.73
711.333	45.56
711.517	45.54
711.702	45.55
711.886	45.44
712.07	45.33
712.254	45.18
712.438	44.89
712.623	44.93
712.807	44.88
712.991	44.9
713.175	44.5
713.359	44.55
713.544	44.63
713.728	44.58
713.912	44.47
714.096	43.97
714.28	43.5
714.464	43.47
714.648	42.7
714.832	42.53
715.016	42.31
715.2	42.34
715.384	42.34
715.568	41.91
715.752	41.85
715.936	41.91
716.12	41.79
716.304	42.16
716.488	42.29
716.671	42.8
716.855	42.88
717.039	42.64
717.223	42.47
717.407	42.22
717.59	42.09
717.774	41.8
717.958	41.85
718.142	42.08
718.325	41.95
718.509	41.71
718.693	41.66
718.877	41.98
719.06	42.01
719.244	42.13
719.428	42.28
719.611	42.57
719.795	42.4
719.978	42.69
720.162	42.46
720.345	42.41
720.529	42.67
720.713	42.48
720.896	41.78
721.08	42.29
721.263	42.27
721.446	42.53
721.63	42.28
721.813	42.79
721.997	42.32
722.18	42.92
722.364	43.27
722.547	42.76
722.73	42.77
722.914	43.11
723.097	42.24
723.28	42.34
723.464	42.34
723.647	42.98
723.83	42.34
724.013	42.41
724.197	42.38
724.38	41.86
724.563	42.26
724.746	41.99
724.929	41.33
725.112	41.15
725.296	40.61
725.479	40.34
725.662	40.13
725.845	40.45
726.028	40.6
726.211	40.37
726.394	40.3
726.577	40.47
726.76	40.75
726.943	40.87
727.126	40.84
727.309	41.12
727.492	41.18
727.675	41.14
727.858	41.25
728.041	40.82
728.224	40.75
728.407	40.93
728.589	40.56
728.772	40.56
728.955	41.19
729.138	41.68
729.321	41.24
729.503	41.08
729.686	40.51
729.869	40.39
730.052	40.48
730.234	40.42
730.417	40.48
730.6	40.59
730.782	40.66
730.965	40.47
731.148	40.06
731.33	40.48
731.513	40.71
731.695	41.01
731.878	41.05
732.061	40.93
732.243	40.81
732.426	40.81
732.608	40.87
732.791	40.69
732.973	40.81
733.156	41.51
733.338	41.48
733.52	41.2
733.703	40.94
733.885	40.63
734.068	41.13
734.25	41.56
734.432	41.89
734.615	41.57
734.797	41.76
734.979	41.7
735.162	41.57
735.344	41.37
735.526	42.02
735.708	42.62
735.891	42.97
736.073	43.12
736.255	43.04
736.437	42.51
736.619	43.01
736.802	42.83
736.984	42.68
737.166	43.1
737.348	43.79
737.53	43.31
737.712	43.01
737.894	43.3
738.076	42.85
738.258	42.29
738.44	42.57
738.622	42.42
738.804	42.62
738.986	42.82
739.168	42.39
739.35	41.84
739.532	42.08
739.714	42.16
739.896	42.04
740.078	42.27
740.259	42.5
740.441	42.06
740.623	42.53
740.805	42.64
740.987	42.32
741.168	42.12
741.35	42.39
741.532	42.52
741.714	42.54
741.895	42.43
742.077	42.42
742.259	42.83
742.44	43.13
742.622	42.22
742.804	41.93
742.985	42.38
743.167	42.6
743.348	42.43
743.53	42.62
743.711	42.73
743.893	43
744.075	42.46
744.256	42.35
744.438	42.47
744.619	43.32
744.8	43.14
744.982	42.91
745.163	42.46
745.345	42.88
745.526	42.19
745.707	42.14
745.889	42.24
746.07	42.76
746.252	42.58
746.433	42.52
746.614	41.88
746.795	42.04
746.977	41.78
747.158	41.66
747.339	41.49
747.52	41.8
747.702	41.47
747.883	41.26
748.064	41.38
748.245	41.74
748.426	41.76
748.607	42.37
748.788	42.54
748.97	43.14
749.151	43.8
749.332	43.62
749.513	43.31
749.694	43.83
749.875	43.73
750.056	43.84
750.237	44.32
750.418	44.25
750.599	43.87
750.78	43.66
750.96	43.72
751.141	43.55
751.322	44.12
751.503	43.97
751.684	43.14
751.865	42.92
752.046	42.65
752.226	41.81
752.407	41.73
752.588	41.15
752.769	41.17
752.949	40.69
753.13	40.29
753.311	39.19
753.492	39.36
753.672	40.31
753.853	40.63
754.034	40.68
754.214	40.85
754.395	41
754.575	42.11
754.756	42.58
754.937	42.38
755.117	42.67
755.298	43.53
755.478	43.91
755.659	43.51
755.839	43.37
756.02	43.3
756.2	42.69
756.381	42.58
756.561	41.46
756.741	40.66
756.922	40.79
757.102	40.38
757.283	40.38
757.463	40.08
757.643	39.42
757.823	38.94
758.004	38.6
758.184	39.44
758.364	39.15
758.545	39.09
758.725	39.29
758.905	39.16
759.085	39.33
759.265	38.72
759.446	38.57
759.626	39.14
759.806	39.22
759.986	39.26
760.166	38.58
760.346	38.24
760.526	38.4
760.706	38.2
760.886	38.19
761.066	38.32
761.246	38.97
761.426	38.8
761.606	38.79
761.786	38.6
761.966	38.43
762.146	37.71
762.326	38.11
762.506	38.16
762.686	37.99
762.866	37.73
763.046	37.85
763.225	37.39
763.405	37.11
763.585	36.95
763.765	37.43
763.945	37.47
764.124	38.22
764.304	38.22
764.484	38.33
764.664	38.85
764.843	38.88
765.023	38.65
765.203	39
765.382	39.38
765.562	40.02
765.741	39.77
765.921	40.02
766.101	40.02
766.28	40.3
766.46	40.21
766.639	39.93
766.819	40.43
766.998	40.22
767.178	40.17
767.357	40.79
767.537	40.25
767.716	40.6
767.896	40.78
768.075	40.87
768.254	41.14
768.434	41.38
768.613	41.78
768.792	41.61
768.972	41.69
769.151	42.23
769.33	42.07
769.51	41.74
769.689	41.87
769.868	42.07
770.047	41.52
770.226	41.16
770.406	41.16
770.585	41.61
770.764	41.37
770.943	42
771.122	40.94
771.301	40.79
771.48	40.76
771.66	40.3
771.839	39.44
772.018	40.8
772.197	40.01
772.376	39.94
772.555	39.9
772.734	40.26
772.913	40.39
773.092	40.78
773.271	40.63
773.449	40.95
773.628	41.6
773.807	42.54
773.986	41.75
774.165	43.61
774.344	43.08
774.523	42.43
774.701	43.22
774.88	42.68
775.059	43.22
775.238	42.35
775.417	42.46
775.595	41.76
775.774	41.48
775.953	40.95
776.131	39.85
776.31	39.9
776.489	40.57
776.667	40.22
776.846	40.84
777.025	40.75
777.203	41.98
777.382	42.13
777.56	42.09
777.739	41.71
777.917	41.51
778.096	42.66
778.274	43.26
778.453	42.16
778.631	41.87
778.81	41.37
778.988	40.45
779.166	40.17
779.345	39.95
779.523	39.96
779.702	40.9
779.88	41.79
780.058	40.59
780.237	40.95
780.415	41.48
780.593	41.59
780.771	41.61
780.95	42.31
781.128	42.15
781.306	42.76
781.484	42.9
781.662	41.96
781.841	41.31
782.019	40.36
782.197	40.14
782.375	39.9
782.553	39.59
782.731	40.18
782.909	40.61
783.087	41.44
783.265	40.61
783.443	39.88
783.621	40.58
783.799	41.42
783.977	42.39
784.155	42.47
784.333	42.17
784.511	41.48
784.689	41.95
784.867	41.76
785.045	40.84
785.223	41.36
785.4	41.54
785.578	41.16
785.756	41.33
785.934	41.02
786.112	41.08
786.289	40.5
786.467	41.04
786.645	40.21
786.823	39.37
787	39.1
787.178	38.35
787.356	38.51
787.533	37.8
787.711	37.66
787.889	37.47
788.066	36.51
788.244	37.05
788.421	36.92
788.599	36.45
788.776	37.69
788.954	38.74
789.131	38.47
789.309	38.87
789.486	39.87
789.664	39.86
789.841	39.87
790.019	39.92
790.196	40.29
790.373	39.6
790.551	40.49
790.728	39.16
790.906	37.62
791.083	39.34
791.26	38.78
791.437	38.08
791.615	37.83
791.792	38.43
791.969	39.36
792.146	39.13
792.324	40.93
792.501	40.3
792.678	40.54
792.855	41.08
793.032	39.87
793.209	40.08
793.387	39.44
793.564	38.63
793.741	38.24
793.918	37.79
794.095	38.16
794.272	37.27
794.449	36.73
794.626	36.37
794.803	37.38
794.98	37.72
795.157	37.57
795.334	38.45
795.511	39.11
795.688	39
795.864	38.45
796.041	38.18
796.218	38.31
796.395	38.93
796.572	38.5
796.749	37.49
796.925	37.52
797.102	38.01
797.279	37.98
797.456	37.11
797.632	36.96
797.809	37.64
797.986	36.79
798.162	37.55
798.339	36.89
798.516	37.64
798.692	37.34
798.869	37.22
799.046	36.45
799.222	35.32
799.399	36.49
799.575	37.19
799.752	38.26
799.928	39.53
800.105	39.64
800.281	40.41
800.458	40.69
800.634	40.93
800.811	40.8
800.987	40.78
801.163	41.09
801.34	40.96
801.516	40.9
801.692	39.17
801.869	38.65
802.045	37.47
802.221	37.28
802.398	37.22
802.574	37.64
802.75	37.55
802.926	38.31
803.103	38.24
803.279	37.15
803.455	36.12
803.631	37.26
803.807	37.6
803.983	38.36
804.16	37.67
804.336	36.09
804.512	34.87
804.688	35.66
804.864	34.21
805.04	34.56
805.216	34.05
805.392	34.97
805.568	34.85
805.744	34.69
805.92	32.35
806.096	33.57
806.272	34.88
806.448	35.5
806.623	34.76
806.799	35.83
806.975	35.56
807.151	36.44
807.327	36.69
807.503	36.9
807.678	36.61
807.854	37.5
808.03	37.49
808.206	39.14
808.381	38.98
808.557	38.57
808.733	40.19
808.908	41.63
809.084	41.12
809.26	40.33
809.435	39.69
809.611	39.87
809.787	40.04
809.962	40.1
810.138	38.75
810.313	39.86
810.489	40.21
810.664	37.63
810.84	36.46
811.015	36.15
811.191	35.88
811.366	36.36
811.542	35.8
811.717	36.47
811.892	35.44
812.068	35.7
812.243	35.38
812.419	35.53
812.594	36.99
812.769	38.27
812.944	38.63
813.12	38.51
813.295	36.07
813.47	35.95
813.645	33.76
813.821	33.92
813.996	32.56
814.171	32.49
814.346	32.59
814.521	31.52
814.697	30.07
814.872	31.08
815.047	31.94
815.222	33.37
815.397	32.86
815.572	35.21
815.747	34.95
815.922	35.49
816.097	35.56
816.272	34.04
816.447	34.38
816.622	36.45
816.797	35.49
816.972	34.42
817.147	34.98
817.322	34.9
817.496	33.81
817.671	34.54
817.846	34.42
818.021	33.28
818.196	34.5
818.371	35.11
818.545	33.08
818.72	34.26
818.895	36.28
819.069	35.03
819.244	35.74
819.419	35.21
819.594	35.57
819.768	34.98
819.943	35.38
820.117	34.4
820.292	33.5
820.467	33.21
820.641	33.41
820.816	32.28
820.99	33.09
821.165	32.81
821.339	33.1
821.514	32.98
821.688	33.49
821.863	33.24
822.037	33.3
822.212	33.31
822.386	33.56
822.56	33.53
822.735	33.75
822.909	33.61
823.084	33.6
823.258	33.57
823.432	33.62
823.606	33.29
823.781	33.55
823.955	33.55
824.129	33.69
824.303	33.72
824.478	33.26
824.652	33.41
824.826	33.17
825	33.34
825.174	33.54
825.348	33.38
825.523	33.2
825.697	33.06
825.871	33.07
826.045	33.01
826.219	32.87
826.393	33.41
826.567	32.84
826.741	33.28
826.915	33.1
827.089	32.82
827.263	32.27
827.437	32.96
827.611	32.98
827.784	33.27
827.958	33.52
828.132	33.65
828.306	33.6
828.48	33.74
828.654	33.41
828.827	34.03
829.001	34.06
829.175	35.5
829.349	35.41
829.522	35.06
829.696	35.13
829.87	34.31
830.044	34.26
830.217	34.13
830.391	34.04
830.565	33.77
830.738	33.44
830.912	34.18
831.085	32.54
831.259	32.22
831.432	33.24
831.606	33.63
831.779	33.63
831.953	33.85
832.126	33.05
832.3	32.62
832.473	32.9
832.647	32.37
832.82	32.61
832.994	32.98
833.167	33.47
833.34	33.36
833.514	32.94
833.687	33.46
833.86	32.84
834.034	33.43
834.207	33.62
834.38	34.11
834.553	34.56
834.727	34.59
834.9	34.29
835.073	34.52
835.246	33.96
835.419	34.82
835.593	35.01
835.766	35.32
835.939	35.17
836.112	35.76
836.285	35.12
836.458	34.99
836.631	34.41
836.804	35.56
836.977	34.96
837.15	35.55
837.323	33.82
837.496	33.26
837.669	33.12
837.842	33.16
838.015	32.82
838.188	33.58
838.361	33.51
838.533	33.16
838.706	33.13
838.879	32.54
839.052	33.26
839.225	33.36
839.398	33.36
839.57	33.9
839.743	32.66
839.916	33.74
840.088	33.97
840.261	34.13
840.434	35.2
840.607	34.46
840.779	33.37
840.952	32.5
841.124	32.59
841.297	33.84
841.47	34.48
841.642	36.26
841.815	35.33
841.987	35.88
842.16	37.95
842.332	38.13
842.505	38.23
842.677	39.63
842.85	41.65
843.022	40.93
843.194	39.97
843.367	40.25
843.539	39.35
843.712	39.23
843.884	38.34
844.056	32.27
844.229	31.56
844.401	30.69
844.573	32.63
844.745	31.83
844.918	33.97
845.09	33.41
845.262	31.43
845.434	32.73
845.606	36.85
845.779	38.08
845.951	39.37
846.123	38.18
846.295	39.86
846.467	37.33
846.639	39.27
846.811	36.55
846.983	37.29
847.155	39.01
847.327	37.5
847.499	35.19
847.671	34.4
847.843	36.24
848.015	38.96
848.187	37.78
848.359	36.99
848.531	33.61
848.703	34.11
848.875	35.55
849.047	32.95
849.218	32.97
849.39	28.24
849.562	25.76
849.734	24.05
849.905	19.71
850.077	18.63
850.249	21.07
850.421	22.64
850.592	26.7
850.764	27.32
850.936	22.6
851.107	25.67
851.279	29.89
851.451	32.08
851.622	34.38
851.794	37.07
851.965	41
852.137	39.02
852.308	36.54
852.48	33.24
852.651	31.2
852.823	37.05
852.994	32.53
853.166	30.61
853.337	29.58
853.509	29.95
853.68	30.06
853.851	25.25
854.023	28.72
854.194	26.15
854.365	25.03
854.537	25.03
854.708	19.9
854.879	23.84
855.05	24.25
855.222	26.53
855.393	26.43
855.564	27.87
855.735	31.74
855.906	30.59
856.078	34.13
856.249	37.98
856.42	37.69
856.591	43.25
856.762	40.37
856.933	42.1
857.104	42.75
857.275	43.99
857.446	42.59
857.617	42.39
857.788	43.24
857.959	41.68
858.13	37.64
858.301	38.31
858.472	38.96
858.643	39.69
858.814	37.63
858.985	34.28
859.155	31.94
859.326	35.58
859.497	31.14
859.668	29.12
859.839	30.69
860.009	29.72
860.18	27.82
860.351	26.82
860.522	26.97
860.692	24.42
860.863	21.36
861.034	22.58
861.204	21.18
861.375	27.44
861.546	27.47
861.716	25.39
861.887	30.42
862.057	27.21
862.228	29.12
862.398	29.42
862.569	30.34
862.739	35.74
862.91	36.11
863.08	31.99
863.251	28.08
863.421	24.92
863.592	26.7
863.762	24.81
863.932	29.7
864.103	28.72
864.273	26.19
864.443	24.29
864.614	25.21
864.784	21.64
864.954	25.77
865.125	23.4
865.295	24.59
865.465	26.25
865.635	30.45
865.805	30.48
865.976	30.7
866.146	28.87
866.316	34.33
866.486	34.7
866.656	39.72
866.826	37.19
866.996	43.32
867.166	43.23
867.336	41.59
867.506	37.92
867.676	38.53
867.846	39.6
868.016	41.71
868.186	33.59
868.356	27.99
868.526	24.21
868.696	23.51
868.866	25.6
869.036	24.68
869.206	23.7
869.376	24.05
869.545	20.56
869.715	19.32
869.885	21.14
870.055	25.83
870.224	24.37
870.394	28
870.564	25.42
870.734	23.06
870.903	25.22
871.073	25.97
871.243	29.39
871.412	35.18
871.582	34.93
871.751	33.34
871.921	35.59
872.091	39.37
872.26	34.43
872.43	38.14
872.599	33.52
872.769	37.48
872.938	38.02
873.108	32.72
873.277	25.66
873.446	23.74
873.616	27.15
873.785	26.61
873.955	26.84
874.124	31.24
874.293	28.39
874.463	32.43
874.632	25.92
874.801	23.44
874.971	28.4
875.14	30.55
875.309	30.22
875.478	28.05
875.647	23.15
875.817	23.18
875.986	20.62
876.155	26.74
876.324	22.63
876.493	25.33
876.662	25.1
876.831	21.63
877	22.7
877.17	23.56
877.339	25.44
877.508	28.2
877.677	28.75
877.846	24.74
878.015	24.23
878.184	25.03
878.352	29.53
878.521	31.87
878.69	34.33
878.859	37.39
879.028	34.33
879.197	32.04
879.366	30.96
879.534	28.67
879.703	33.79
879.872	30.53
880.041	29.68
880.21	27.15
880.378	27.27
880.547	26.43
880.716	25.76
880.884	26.75
881.053	26.77
881.222	27.28
881.39	27.17
881.559	26.47
881.727	26.41
881.896	27.81
882.065	28.04
882.233	27.74
882.402	27.67
882.57	27.73
882.739	28.47
882.907	28.18
883.076	28.14
883.244	28.51
883.412	28.37
883.581	29.02
883.749	28.65
883.918	28.61
884.086	28.9
884.254	29.06
884.423	28.31
884.591	28.21
884.759	28.37
884.927	28.91
885.096	27.34
885.264	26.5
885.432	26.59
885.6	24.49
885.769	24.05
885.937	23.53
886.105	24.12
886.273	25.99
886.441	24.61
886.609	24.86
886.777	22.89
886.945	23.33
887.113	24.31
887.281	21.75
887.449	23.86
887.617	23.97
887.785	21.88
887.953	21.08
888.121	20.61
888.289	18.01
888.457	17.72
888.625	17.13
888.793	21.67
888.961	21.88
889.129	24.75
889.296	25.86
889.464	24.89
889.632	26.98
889.8	26.61
889.967	27.1
890.135	30.55
