Data from 2938813__Reflection_01.txt Node
Date: Thu Mar 12 16:16:18 EDT 2015
User: robert
Spectrometer: USB4E03002
Autoset integration time: false
Trigger mode: 4
Integration Time (sec): 1.000000E-1
Scans to average: 10
Electric dark correction enabled: false
Nonlinearity correction enabled: false
Boxcar width: 5
Stray light correction enabled: false
XAxis mode: Wavelengths
Stop averaging: false
Number of Pixels in Spectrum: 3648
>>>>>Begin Spectral Data<<<<<
177.575	-3142.86
177.794	-2483.08
178.014	-1475
178.233	-6700
178.452	3161.54
178.672	-8741.94
178.891	-1419.37
179.11	-1387.05
179.33	-1672.29
179.549	-2010.14
179.768	-14904.55
179.987	-11282.14
180.207	-1881.82
180.426	5140.63
180.645	-3405.15
180.864	-2736.44
181.084	5207.81
181.303	1956
181.522	10837.5
181.741	0
181.96	79825
182.179	-11622.22
182.398	-6656
182.618	3438.95
182.837	-4156.76
183.056	-5235.59
183.275	-5101.64
183.494	-9603.03
183.713	5247.54
183.932	2128.97
184.151	2061.74
184.37	838.74
184.589	754.59
184.808	641.77
185.027	479.76
185.246	542.33
185.465	427.43
185.684	478.13
185.903	524.85
186.122	667.25
186.341	729.08
186.56	671.4
186.779	786.5
186.998	1088.15
187.216	1002.11
187.435	1687.67
187.654	1328.67
187.873	1903.54
188.092	1588.61
188.311	1111.08
188.53	859.26
188.748	729.75
188.967	786.58
189.186	1505.33
189.405	836.32
189.623	821.48
189.842	919.29
190.061	861.8
190.28	922.54
190.498	967.72
190.717	2031.33
190.936	2643.33
191.154	1776.54
191.373	1597
191.592	2686.32
191.81	-99366.67
192.029	-2172.06
192.248	-1155.6
192.466	-875.78
192.685	-1281.97
192.904	-1048.9
193.122	-867.3
193.341	-995.83
193.559	-954.93
193.778	-808.13
193.996	-4480
194.215	8002.63
194.433	1028.93
194.652	619.01
194.87	533.49
195.089	640.29
195.307	735.96
195.526	551.52
195.744	528.53
195.963	508.6
196.181	538.05
196.399	580.11
196.618	587.24
196.836	809.31
197.055	1325.43
197.273	999.68
197.491	786.41
197.71	520.43
197.928	530.05
198.146	545.09
198.365	875.83
198.583	967.45
198.801	1057.1
199.019	1270.92
199.238	932.9
199.456	706.94
199.674	872.08
199.892	978.03
200.111	1188.14
200.329	946.26
200.547	731.3
200.765	633.21
200.983	615.84
201.202	546.9
201.42	492.12
201.638	599.43
201.856	662.37
202.074	542.88
202.292	504.04
202.51	930.09
202.728	1019.37
202.946	1470.35
203.165	922.25
203.383	934.74
203.601	1008.04
203.819	1453.95
204.037	1133.33
204.255	847.74
204.473	1089.85
204.691	4216.67
204.909	859.76
205.127	1008.48
205.345	670.96
205.562	468.92
205.78	495.84
205.998	440.37
206.216	397.4
206.434	387.98
206.652	400.83
206.87	363.93
207.088	363.78
207.306	320.53
207.523	294.29
207.741	309.44
207.959	501.44
208.177	450.2
208.395	470.18
208.612	463.62
208.83	519.1
209.048	622.84
209.266	658.45
209.483	432.63
209.701	454.3
209.919	513.56
210.136	656.14
210.354	500.8
210.572	463.65
210.79	424.06
211.007	479.79
211.225	432.83
211.442	347.64
211.66	325.57
211.878	330.32
212.095	225.5
212.313	214.97
212.53	216.42
212.748	198.01
212.966	189.99
213.183	197.08
213.401	193.6
213.618	202.72
213.836	220.36
214.053	223.14
214.271	257.22
214.488	415.22
214.705	409.26
214.923	346.42
215.14	347.01
215.358	351.51
215.575	394.77
215.793	330.99
216.01	312.45
216.227	297.1
216.445	310
216.662	279.92
216.879	264.88
217.097	263.93
217.314	282.35
217.531	288.16
217.749	283.55
217.966	241.76
218.183	250.58
218.4	251.07
218.618	270.16
218.835	255.58
219.052	248.58
219.269	242.86
219.487	232.75
219.704	231.98
219.921	242.76
220.138	235.97
220.355	234.34
220.572	223.18
220.79	214.18
221.007	200.33
221.224	199.57
221.441	212.44
221.658	213.34
221.875	195.64
222.092	170.08
222.309	151.76
222.526	152.73
222.743	161.77
222.96	148.34
223.177	146.16
223.394	140.13
223.611	138.35
223.828	126.9
224.045	127.49
224.262	122.93
224.479	117.92
224.696	116.45
224.913	107.9
225.13	100.29
225.347	99.8
225.564	95.08
225.781	86.88
225.997	79.63
226.214	72.62
226.431	67.04
226.648	64.93
226.865	59.9
227.082	54.15
227.298	48.16
227.515	43.54
227.732	39.78
227.949	35.08
228.165	31.71
228.382	30.13
228.599	27.94
228.816	25.73
229.032	23.86
229.249	22.67
229.466	21.69
229.682	21.9
229.899	22.23
230.116	21.95
230.332	22.78
230.549	24.17
230.765	24.57
230.982	25.66
231.199	26.06
231.415	28.4
231.632	29.04
231.848	29.88
232.065	31.07
232.281	32.61
232.498	33.32
232.714	33.27
232.931	34.55
233.147	33.8
233.364	32.92
233.58	33.03
233.797	31.46
234.013	32.7
234.23	32.76
234.446	30.72
234.662	29.66
234.879	30.41
235.095	31.57
235.312	31.48
235.528	33.49
235.744	35.16
235.961	37.4
236.177	38.02
236.393	37.85
236.61	38.24
236.826	40
237.042	39.95
237.258	40.19
237.475	39.84
237.691	39.11
237.907	39.06
238.123	38.73
238.339	38.09
238.556	38.43
238.772	38.29
238.988	38.91
239.204	37.71
239.42	36.99
239.636	35.67
239.853	33.15
240.069	31.28
240.285	29.14
240.501	26.86
240.717	24.59
240.933	22.96
241.149	20.95
241.365	19.91
241.581	19.14
241.797	18.27
242.013	16.98
242.229	16.48
242.445	16.35
242.661	15.92
242.877	15.87
243.093	16.34
243.309	16.65
243.525	17.56
243.741	18.25
243.957	18.21
244.173	18.28
244.388	19.59
244.604	20.16
244.82	19.66
245.036	19.56
245.252	18.93
245.468	18.24
245.683	17.45
245.899	16.47
246.115	15.06
246.331	14.42
246.547	13.77
246.762	12.96
246.978	12.52
247.194	12.55
247.409	12.21
247.625	12.28
247.841	12.05
248.057	11.89
248.272	11.64
248.488	11.62
248.703	11.96
248.919	12.66
249.135	13.32
249.35	13.75
249.566	14.82
249.782	15.5
249.997	15.99
250.213	16.57
250.428	17.21
250.644	17.9
250.859	17.74
251.075	18.27
251.29	17.97
251.506	17.95
251.721	18.02
251.937	17.48
252.152	17.43
252.368	17.6
252.583	17.81
252.798	17.82
253.014	18.49
253.229	18.99
253.445	19.59
253.66	20.95
253.875	21.27
254.091	22.68
254.306	23.75
254.521	24.23
254.737	25.55
254.952	24.91
255.167	24.47
255.383	23.97
255.598	24.17
255.813	22.84
256.028	20.99
256.244	20.69
256.459	19.7
256.674	18.65
256.889	18.01
257.104	16.4
257.32	17.19
257.535	17.21
257.75	16.4
257.965	15.92
258.18	15.4
258.395	14.62
258.61	13.46
258.826	12.51
259.041	11.68
259.256	11.37
259.471	10.88
259.686	10.12
259.901	9.71
260.116	9.46
260.331	9.06
260.546	9.04
260.761	9.25
260.976	9.58
261.191	9.9
261.406	10.21
261.621	10.05
261.836	10.43
262.05	10.79
262.265	11.73
262.48	12.22
262.695	12.93
262.91	13.24
263.125	13.02
263.34	13.21
263.555	13.5
263.769	14.18
263.984	15.2
264.199	15.46
264.414	15.86
264.629	15.55
264.843	15.59
265.058	16.44
265.273	16.28
265.488	16.56
265.702	16.2
265.917	15.89
266.132	15.94
266.346	15.4
266.561	14.97
266.776	14.67
266.99	13.67
267.205	13.98
267.42	13.61
267.634	13.41
267.849	13.41
268.063	12.86
268.278	12.66
268.492	12.46
268.707	12.41
268.922	12.4
269.136	12.45
269.351	13.24
269.565	12.3
269.78	11.9
269.994	11.52
270.209	11.48
270.423	11.84
270.637	11.63
270.852	11.02
271.066	10.85
271.281	10.59
271.495	10.46
271.709	10.4
271.924	10.62
272.138	10.28
272.353	10.54
272.567	10.5
272.781	10.99
272.996	11.42
273.21	11.59
273.424	11.88
273.638	12.42
273.853	12.91
274.067	12.83
274.281	13.18
274.495	13.92
274.71	13.68
274.924	13.85
275.138	13.15
275.352	13.3
275.566	13.58
275.781	14.22
275.995	14.14
276.209	13.92
276.423	14.01
276.637	13.5
276.851	12.92
277.065	13.38
277.279	13.18
277.493	13.41
277.707	13.27
277.921	12.8
278.135	11.94
278.349	11.71
278.563	12.18
278.777	12.41
278.991	13.14
279.205	13.1
279.419	13.28
279.633	13.58
279.847	13.66
280.061	13.45
280.275	13.65
280.489	13.55
280.703	13.8
280.917	13.27
281.131	12.63
281.344	12.23
281.558	12.1
281.772	11.55
281.986	11.39
282.2	11.12
282.414	10.92
282.627	10.88
282.841	10.72
283.055	10.46
283.269	10.36
283.482	10.4
283.696	10.05
283.91	10.05
284.123	9.84
284.337	9.48
284.551	9.25
284.764	9.16
284.978	8.94
285.192	8.94
285.405	8.55
285.619	8.44
285.833	8.73
286.046	8.92
286.26	9.13
286.473	9.22
286.687	9.54
286.9	9.79
287.114	9.91
287.327	10.04
287.541	10.09
287.754	10.5
287.968	11.12
288.181	10.79
288.395	10.6
288.608	10.36
288.822	10.66
289.035	10.23
289.248	9.99
289.462	9.69
289.675	9.84
289.889	9.82
290.102	9.85
290.315	9.31
290.529	9.45
290.742	9.47
290.955	9.44
291.169	9.41
291.382	10.01
291.595	10.46
291.808	10.62
292.022	10.52
292.235	10.63
292.448	10.84
292.661	10.95
292.875	11.08
293.088	11.45
293.301	11.88
293.514	11.95
293.727	11.39
293.94	11.13
294.153	11.39
294.367	11.51
294.58	11.25
294.793	10.92
295.006	11.13
295.219	11.02
295.432	10.84
295.645	10.62
295.858	10.35
296.071	10.19
296.284	9.91
296.497	9.77
296.71	9.6
296.923	9.69
297.136	9.73
297.349	9.55
297.562	9.45
297.775	9.45
297.988	9.34
298.201	9.69
298.414	9.86
298.626	10.18
298.839	10.4
299.052	10.68
299.265	10.88
299.478	11
299.691	11.19
299.903	11.48
300.116	11.71
300.329	12.17
300.542	12.41
300.755	12.91
300.967	12.98
301.18	12.8
301.393	12.77
301.605	12.89
301.818	13.11
302.031	13.31
302.243	13.41
302.456	13.91
302.669	13.92
302.881	13.55
303.094	13.53
303.307	13.66
303.519	13.65
303.732	13.82
303.944	13.87
304.157	13.72
304.37	13.68
304.582	13.59
304.795	13.31
305.007	13.42
305.22	13.79
305.432	13.69
305.645	13.89
305.857	14.05
306.069	14.16
306.282	14.51
306.494	14.77
306.707	14.8
306.919	14.89
307.132	14.93
307.344	15.07
307.556	14.94
307.769	14.79
307.981	14.45
308.193	14.26
308.406	14.28
308.618	13.93
308.83	13.95
309.043	13.77
309.255	13.58
309.467	13.56
309.679	13.29
309.892	13.16
310.104	12.79
310.316	13.04
310.528	13.2
310.74	13.17
310.953	13.29
311.165	13.19
311.377	13.01
311.589	13.2
311.801	12.86
312.013	13.01
312.225	13.28
312.437	13.76
312.649	13.78
312.862	14.14
313.074	14.09
313.286	14.53
313.498	14.59
313.71	15.1
313.922	15.36
314.134	16
314.346	15.75
314.558	15.76
314.77	16.13
314.982	16.42
315.193	16.28
315.405	16.45
315.617	15.84
315.829	15.88
316.041	15.89
316.253	15.84
316.465	16.03
316.677	16.59
316.888	16.83
317.1	16.75
317.312	16.45
317.524	16.63
317.736	17.11
317.947	17.37
318.159	17.57
318.371	17.91
318.583	17.97
318.794	18.21
319.006	18.29
319.218	18.12
319.43	18.27
319.641	18.76
319.853	18.59
320.064	18.15
320.276	18.5
320.488	18.93
320.699	19.15
320.911	19.26
321.123	19.34
321.334	19.06
321.546	19.09
321.757	19.09
321.969	18.51
322.18	18.52
322.392	18.07
322.603	18.29
322.815	17.98
323.026	17.6
323.238	17.64
323.449	17.31
323.661	16.41
323.872	16.37
324.083	16.5
324.295	16.94
324.506	16.88
324.718	16.93
324.929	16.72
325.14	16.68
325.352	16.46
325.563	16.23
325.774	16.26
325.986	17.17
326.197	17.32
326.408	17.2
326.62	17.08
326.831	17.09
327.042	17.86
327.253	17.94
327.464	18
327.676	18.27
327.887	18.85
328.098	18.83
328.309	19.18
328.52	19.18
328.732	19.23
328.943	19.33
329.154	19.88
329.365	19.4
329.576	19.42
329.787	19.65
329.998	19.79
330.209	19.63
330.42	19.97
330.631	19.72
330.842	19.8
331.053	19.88
331.264	19.98
331.475	19.79
331.686	19.98
331.897	19.93
332.108	19.79
332.319	19.52
332.53	19.45
332.741	19.1
332.952	19.01
333.163	18.95
333.374	18.84
333.585	18.51
333.795	18.49
334.006	18.12
334.217	18.39
334.428	18.45
334.639	18.74
334.849	18.37
335.06	18.23
335.271	18.27
335.482	18.56
335.692	18.64
335.903	18.77
336.114	18.99
336.325	19.41
336.535	19.42
336.746	19.36
336.957	19.33
337.167	19.97
337.378	20.59
337.589	20.69
337.799	20.59
338.01	20.68
338.22	20.6
338.431	20.84
338.642	20.82
338.852	20.55
339.063	20.58
339.273	20.63
339.484	20.29
339.694	19.99
339.905	20.03
340.115	19.71
340.326	19.67
340.536	20.07
340.746	19.69
340.957	19.61
341.167	20.09
341.378	20.17
341.588	20.02
341.799	19.72
342.009	19.46
342.219	19.52
342.43	20.13
342.64	19.82
342.85	19.37
343.061	18.96
343.271	18.87
343.481	18.31
343.691	18.22
343.902	18.01
344.112	18.27
344.322	18.42
344.532	18.04
344.743	17.41
344.953	17.86
345.163	17.71
345.373	18
345.583	17.94
345.793	17.95
346.004	17.88
346.214	18.11
346.424	18.14
346.634	18.16
346.844	18.25
347.054	18.37
347.264	18.04
347.474	18.46
347.684	18.51
347.894	18.49
348.104	18.36
348.314	18.13
348.524	18.18
348.734	18.04
348.944	17.78
349.154	17.88
349.364	18.05
349.574	18.25
349.784	18.17
349.994	18.06
350.204	18.2
350.413	18.18
350.623	18.36
350.833	18.15
351.043	17.85
351.253	18.06
351.463	18.17
351.672	17.85
351.882	17.78
352.092	17.57
352.302	17.5
352.511	17.39
352.721	17.62
352.931	17.55
353.141	17.59
353.35	17.97
353.56	17.98
353.77	17.66
353.979	17.49
354.189	17.49
354.399	17.74
354.608	17.87
354.818	17.78
355.027	17.71
355.237	17.63
355.447	17.71
355.656	17.27
355.866	16.92
356.075	16.96
356.285	17.19
356.494	17.02
356.704	16.45
356.913	16.22
357.123	16.27
357.332	16.05
357.542	16.09
357.751	15.92
357.96	16.29
358.17	16.45
358.379	16.38
358.589	16.3
358.798	16.2
359.007	16.52
359.217	16.34
359.426	16.01
359.635	16.23
359.845	16.17
360.054	16.16
360.263	15.92
360.472	15.95
360.682	16.04
360.891	15.94
361.1	15.81
361.309	15.73
361.519	15.72
361.728	15.87
361.937	15.56
362.146	15.55
362.355	15.54
362.564	15.44
362.774	15.18
362.983	14.94
363.192	14.82
363.401	14.67
363.61	14.44
363.819	14.65
364.028	14.62
364.237	14.8
364.446	14.75
364.655	14.55
364.864	14.68
365.073	14.96
365.282	15.09
365.491	14.89
365.7	15.31
365.909	15.49
366.118	15.24
366.327	15.18
366.536	15.08
366.745	15.07
366.954	15.2
367.162	15.27
367.371	15
367.58	15.05
367.789	15.11
367.998	14.77
368.207	14.85
368.415	14.73
368.624	15.01
368.833	15.15
369.042	15.08
369.25	15.22
369.459	15.17
369.668	15.21
369.877	15.15
370.085	15.18
370.294	15.09
370.503	14.88
370.711	14.84
370.92	14.65
371.129	14.46
371.337	14.23
371.546	14.04
371.754	14.21
371.963	14.23
372.171	14.01
372.38	13.97
372.589	13.85
372.797	14.02
373.006	14.12
373.214	13.8
373.423	13.98
373.631	14.13
373.84	14.12
374.048	13.8
374.256	13.65
374.465	13.73
374.673	13.67
374.882	13.99
375.09	14.07
375.298	13.91
375.507	13.94
375.715	13.74
375.923	13.49
376.132	13.1
376.34	12.92
376.548	12.68
376.757	12.66
376.965	12.98
377.173	12.78
377.381	12.59
377.59	12.71
377.798	12.56
378.006	12.39
378.214	12.45
378.423	12.79
378.631	12.82
378.839	13.04
379.047	12.83
379.255	12.71
379.463	12.9
379.671	12.86
379.879	12.82
380.088	12.8
380.296	12.77
380.504	12.85
380.712	12.65
380.92	12.56
381.128	12.48
381.336	12.64
381.544	12.51
381.752	12.36
381.96	12.18
382.168	12.19
382.376	12.38
382.584	12.3
382.791	12.16
382.999	12.14
383.207	12.46
383.415	12.66
383.623	12.29
383.831	11.95
384.039	12.01
384.247	12.1
384.454	11.89
384.662	11.65
384.87	11.73
385.078	11.62
385.285	11.57
385.493	11.09
385.701	10.96
385.909	11.29
386.116	11.48
386.324	11.34
386.532	11.08
386.739	11.13
386.947	11.16
387.155	11.18
387.362	11.3
387.57	11.34
387.778	11.39
387.985	11.26
388.193	11.14
388.4	11.02
388.608	11.03
388.816	11.11
389.023	11.13
389.231	10.94
389.438	10.83
389.646	10.74
389.853	10.69
390.061	10.52
390.268	10.45
390.475	10.28
390.683	10.23
390.89	10.15
391.098	10.31
391.305	10.08
391.512	10.1
391.72	10.03
391.927	9.98
392.135	9.77
392.342	9.93
392.549	9.91
392.756	9.93
392.964	9.76
393.171	9.87
393.378	9.68
393.586	9.85
393.793	9.93
394	9.88
394.207	9.75
394.414	9.94
394.622	9.94
394.829	10.06
395.036	10.14
395.243	10.32
395.45	10.14
395.657	10.04
395.864	10.01
396.072	9.82
396.279	9.87
396.486	9.94
396.693	9.88
396.9	9.65
397.107	9.34
397.314	9.51
397.521	9.55
397.728	9.43
397.935	9.33
398.142	9.15
398.349	9.38
398.556	9.24
398.763	9.32
398.97	9.32
399.177	9.43
399.383	9.66
399.59	9.44
399.797	9.46
400.004	9.63
400.211	9.81
400.418	10.16
400.625	10.26
400.831	10.41
401.038	10.33
401.245	10.35
401.452	10.5
401.658	10.38
401.865	10.3
402.072	10.42
402.279	10.37
402.485	10.5
402.692	10.1
402.899	9.94
403.105	9.83
403.312	9.75
403.519	9.69
403.725	9.69
403.932	9.75
404.138	9.71
404.345	9.33
404.552	9.22
404.758	9.19
404.965	9.34
405.171	9.26
405.378	9.28
405.584	9.4
405.791	9.35
405.997	9.18
406.204	9.04
406.41	8.95
406.617	9.17
406.823	9.2
407.029	9
407.236	8.94
407.442	9.04
407.649	8.99
407.855	9.01
408.061	9.01
408.268	9.04
408.474	9.01
408.68	9.33
408.887	9.25
409.093	9.26
409.299	9.17
409.505	9.18
409.712	9.11
409.918	9.24
410.124	9.24
410.33	9.18
410.537	9.16
410.743	9.28
410.949	9.09
411.155	9.14
411.361	9.14
411.567	9.14
411.773	9.12
411.98	9.11
412.186	9.1
412.392	8.98
412.598	9.1
412.804	9.01
413.01	8.84
413.216	8.8
413.422	8.81
413.628	8.78
413.834	8.91
414.04	8.84
414.246	8.8
414.452	8.72
414.658	8.66
414.864	8.57
415.07	8.57
415.275	8.72
415.481	8.78
415.687	8.8
415.893	8.64
416.099	8.5
416.305	8.42
416.511	8.28
416.716	8.31
416.922	8.28
417.128	8.2
417.334	8.18
417.539	8
417.745	7.88
417.951	7.79
418.157	7.81
418.362	7.81
418.568	7.77
418.774	7.73
418.979	7.66
419.185	7.65
419.391	7.59
419.596	7.55
419.802	7.51
420.008	7.41
420.213	6.66
420.419	6.65
420.624	6.62
420.83	6.64
421.035	6.7
421.241	6.64
421.446	6.62
421.652	6.67
421.857	6.67
422.063	6.8
422.268	6.9
422.474	7.53
422.679	7.5
422.885	7.53
423.09	7.44
423.295	7.37
423.501	7.38
423.706	7.39
423.911	7.33
424.117	7.3
424.322	7.23
424.527	7.18
424.733	7.11
424.938	7.17
425.143	7.17
425.349	7.26
425.554	7.28
425.759	7.36
425.964	7.4
426.169	7.42
426.375	7.51
426.58	7.46
426.785	7.54
426.99	7.73
427.195	7.75
427.4	7.76
427.605	7.91
427.811	8.03
428.016	7.92
428.221	7.99
428.426	8
428.631	7.98
428.836	8.08
429.041	8.04
429.246	8.01
429.451	8.03
429.656	8.05
429.861	7.84
430.066	7.83
430.271	7.95
430.476	7.81
430.681	7.86
430.886	7.78
431.09	7.85
431.295	7.76
431.5	7.79
431.705	7.82
431.91	7.68
432.115	7.84
432.32	7.74
432.524	7.67
432.729	7.57
432.934	7.62
433.139	7.66
433.343	7.52
433.548	7.48
433.753	7.44
433.958	7.48
434.162	7.46
434.367	7.29
434.572	7.38
434.776	7.28
434.981	7.33
435.186	7.2
435.39	7.14
435.595	7.25
435.799	7.28
436.004	7.4
436.209	7.29
436.413	7.49
436.618	7.65
436.822	7.66
437.027	7.6
437.231	7.67
437.436	7.78
437.64	7.88
437.845	7.89
438.049	7.99
438.253	7.82
438.458	7.76
438.662	7.72
438.867	7.64
439.071	7.49
439.275	7.54
439.48	7.48
439.684	7.43
439.888	7.38
440.093	7.32
440.297	7.14
440.501	7.21
440.706	7.17
440.91	7.17
441.114	7.08
441.318	7.09
441.523	7.19
441.727	7.23
441.931	7.18
442.135	7.17
442.339	7.2
442.543	7.35
442.748	7.31
442.952	7.41
443.156	7.38
443.36	7.52
443.564	7.65
443.768	7.54
443.972	7.62
444.176	7.64
444.38	7.62
444.584	7.6
444.788	7.63
444.992	7.6
445.196	7.49
445.4	7.43
445.604	7.33
445.808	7.29
446.012	7.26
446.216	7.15
446.42	7.15
446.624	7.11
446.828	7.01
447.032	6.89
447.235	6.86
447.439	6.85
447.643	6.82
447.847	6.9
448.051	6.86
448.254	6.88
448.458	6.92
448.662	6.99
448.866	7.03
449.069	7.09
449.273	7.25
449.477	7.33
449.681	7.29
449.884	7.45
450.088	7.45
450.292	7.46
450.495	7.56
450.699	7.66
450.902	7.53
451.106	7.52
451.31	7.64
451.513	7.46
451.717	7.45
451.92	7.5
452.124	7.55
452.327	7.49
452.531	7.56
452.734	7.5
452.938	7.3
453.141	7.33
453.345	7.4
453.548	7.27
453.752	7.38
453.955	7.43
454.158	7.44
454.362	7.41
454.565	7.45
454.769	7.56
454.972	7.51
455.175	7.61
455.379	7.69
455.582	7.81
455.785	7.89
455.988	7.85
456.192	7.84
456.395	7.86
456.598	7.71
456.801	7.75
457.005	7.63
457.208	7.7
457.411	7.68
457.614	7.58
457.817	7.5
458.021	7.35
458.224	7.41
458.427	7.34
458.63	7.37
458.833	7.46
459.036	7.39
459.239	7.33
459.442	7.26
459.645	7.25
459.848	7.19
460.051	7.16
460.254	7.25
460.457	7.18
460.66	7.16
460.863	7.17
461.066	7.13
461.269	7.13
461.472	7.18
461.675	7.26
461.878	7.34
462.081	7.5
462.284	7.46
462.486	7.45
462.689	7.46
462.892	7.54
463.095	7.55
463.298	7.61
463.5	7.61
463.703	7.65
463.906	7.68
464.109	7.58
464.311	7.62
464.514	7.56
464.717	7.7
464.92	7.78
465.122	7.77
465.325	7.68
465.528	7.62
465.73	7.6
465.933	7.53
466.135	7.54
466.338	7.64
466.541	7.58
466.743	7.62
466.946	7.43
467.148	7.36
467.351	7.35
467.553	7.43
467.756	7.54
467.958	7.6
468.161	7.59
468.363	7.56
468.566	7.51
468.768	7.58
468.971	7.57
469.173	7.71
469.375	7.81
469.578	7.76
469.78	7.67
469.983	7.65
470.185	7.7
470.387	7.77
470.59	7.73
470.792	7.77
470.994	7.78
471.196	7.86
471.399	7.86
471.601	7.84
471.803	7.87
472.005	7.96
472.208	7.82
472.41	7.79
472.612	7.85
472.814	7.83
473.016	7.81
473.218	7.74
473.421	7.73
473.623	7.81
473.825	7.73
474.027	7.77
474.229	7.8
474.431	7.91
474.633	7.91
474.835	7.79
475.037	7.89
475.239	8.02
475.441	7.97
475.643	7.99
475.845	7.91
476.047	7.98
476.249	7.92
476.451	7.83
476.653	7.78
476.855	7.77
477.057	7.77
477.258	7.75
477.46	7.45
477.662	7.47
477.864	7.44
478.066	7.33
478.268	7.28
478.469	7.29
478.671	7.28
478.873	7.26
479.075	7.24
479.276	7.22
479.478	7.24
479.68	7.34
479.882	7.32
480.083	7.25
480.285	7.27
480.487	7.25
480.688	7.24
480.89	7.19
481.091	7.08
481.293	6.99
481.495	6.95
481.696	6.85
481.898	6.78
482.099	6.71
482.301	6.64
482.502	6.54
482.704	6.44
482.905	6.33
483.107	6.29
483.308	6.24
483.51	6.2
483.711	6.15
483.913	6.11
484.114	6.08
484.315	6.01
484.517	6.01
484.718	6.02
484.92	6.03
485.121	6.08
485.322	6.07
485.524	6.13
485.725	6.15
485.926	6.21
486.127	6.25
486.329	6.25
486.53	6.33
486.731	6.34
486.932	6.35
487.134	6.34
487.335	6.33
487.536	6.32
487.737	6.3
487.938	6.3
488.139	6.26
488.341	6.24
488.542	6.27
488.743	6.24
488.944	6.26
489.145	6.24
489.346	6.29
489.547	6.31
489.748	6.34
489.949	6.35
490.15	6.38
490.351	6.37
490.552	6.43
490.753	6.41
490.954	6.46
491.155	6.45
491.356	6.48
491.557	6.46
491.758	6.5
491.959	6.51
492.159	6.51
492.36	6.56
492.561	6.59
492.762	6.6
492.963	6.67
493.164	6.66
493.364	6.7
493.565	6.74
493.766	6.77
493.967	6.73
494.167	6.82
494.368	6.94
494.569	6.92
494.769	6.92
494.97	6.91
495.171	6.94
495.371	7.05
495.572	7.13
495.773	7.13
495.973	7.17
496.174	7.26
496.375	7.28
496.575	7.3
496.776	7.38
496.976	7.46
497.177	7.48
497.377	7.49
497.578	7.49
497.778	7.46
497.979	7.48
498.179	7.61
498.38	7.58
498.58	7.6
498.78	7.61
498.981	7.63
499.181	7.71
499.382	7.91
499.582	7.93
499.782	7.94
499.983	8.01
500.183	8.05
500.383	8.02
500.584	8.1
500.784	8.16
500.984	8.3
501.184	8.22
501.385	8.22
501.585	8.16
501.785	8.21
501.985	8.34
502.185	8.4
502.386	8.46
502.586	8.42
502.786	8.53
502.986	8.54
503.186	8.49
503.386	8.56
503.586	8.59
503.786	8.56
503.987	8.6
504.187	8.5
504.387	8.46
504.587	8.5
504.787	8.55
504.987	8.43
505.187	8.42
505.387	8.46
505.587	8.56
505.786	8.6
505.986	8.67
506.186	8.67
506.386	8.8
506.586	8.86
506.786	8.88
506.986	8.9
507.186	9.02
507.386	9.06
507.585	9.03
507.785	9.03
507.985	8.99
508.185	8.96
508.384	9.06
508.584	9.11
508.784	9.14
508.984	9.14
509.183	9.27
509.383	9.32
509.583	9.34
509.782	9.3
509.982	9.41
510.182	9.51
510.381	9.52
510.581	9.62
510.781	9.62
510.98	9.71
511.18	9.78
511.379	9.76
511.579	9.78
511.778	9.86
511.978	10.16
512.177	10.22
512.377	10.28
512.576	10.5
512.776	10.45
512.975	10.51
513.175	10.61
513.374	10.73
513.573	10.91
513.773	11.01
513.972	11.14
514.172	11.11
514.371	11.08
514.57	11.19
514.77	11.25
514.969	11.37
515.168	11.52
515.367	11.52
515.567	11.67
515.766	11.68
515.965	11.78
516.164	11.79
516.364	11.9
516.563	11.97
516.762	11.96
516.961	11.95
517.16	11.97
517.359	11.97
517.559	12.04
517.758	12.02
517.957	12.14
518.156	12.14
518.355	12.22
518.554	12.28
518.753	12.32
518.952	12.44
519.151	12.54
519.35	12.7
519.549	12.74
519.748	12.87
519.947	13
520.146	12.99
520.345	13.08
520.544	13.23
520.743	13.33
520.942	13.64
521.141	13.77
521.339	13.97
521.538	14.07
521.737	14.34
521.936	14.39
522.135	14.47
522.333	14.7
522.532	14.94
522.731	15.03
522.93	15.18
523.129	15.21
523.327	15.3
523.526	15.32
523.725	15.44
523.923	15.41
524.122	15.46
524.321	15.54
524.519	15.5
524.718	15.47
524.917	15.56
525.115	15.6
525.314	15.62
525.512	15.63
525.711	15.68
525.909	15.73
526.108	15.89
526.306	16.03
526.505	16.13
526.703	16.29
526.902	16.39
527.1	16.38
527.299	16.45
527.497	16.49
527.696	16.58
527.894	16.63
528.092	16.67
528.291	16.65
528.489	16.7
528.688	16.71
528.886	16.71
529.084	16.78
529.283	16.88
529.481	16.91
529.679	17.02
529.877	17.09
530.076	17.19
530.274	17.28
530.472	17.41
530.67	17.52
530.869	17.74
531.067	17.91
531.265	18.01
531.463	18.13
531.661	18.28
531.859	18.35
532.057	18.41
532.255	18.44
532.454	18.51
532.652	18.58
532.85	18.63
533.048	18.59
533.246	18.62
533.444	18.65
533.642	18.7
533.84	18.72
534.038	18.81
534.236	18.94
534.434	19
534.632	19.11
534.83	19.19
535.027	19.3
535.225	19.43
535.423	19.51
535.621	19.62
535.819	19.72
536.017	19.83
536.215	19.83
536.412	19.85
536.61	20
536.808	20.06
537.006	20.17
537.203	20.19
537.401	20.26
537.599	20.37
537.797	20.48
537.994	20.5
538.192	20.62
538.39	20.73
538.587	20.86
538.785	20.92
538.983	20.98
539.18	21.07
539.378	21.18
539.575	21.28
539.773	21.33
539.97	21.36
540.168	21.46
540.366	21.48
540.563	21.46
540.761	21.44
540.958	21.49
541.155	21.48
541.353	21.51
541.55	21.53
541.748	21.53
541.945	21.53
542.143	21.55
542.34	21.54
542.537	21.53
542.735	21.61
542.932	21.67
543.129	21.67
543.327	21.78
543.524	21.84
543.721	22
543.919	22.16
544.116	22.3
544.313	22.43
544.51	22.64
544.708	22.91
544.905	23.04
545.102	23.22
545.299	23.41
545.496	23.51
545.693	23.54
545.891	23.54
546.088	23.55
546.285	23.57
546.482	23.55
546.679	23.47
546.876	23.39
547.073	23.37
547.27	23.4
547.467	23.28
547.664	23.31
547.861	23.35
548.058	23.31
548.255	23.33
548.452	23.4
548.649	23.49
548.846	23.61
549.043	23.79
549.24	23.82
549.437	23.9
549.633	24.01
549.83	24.12
550.027	24.23
550.224	24.24
550.421	24.37
550.618	24.38
550.814	24.43
551.011	24.5
551.208	24.37
551.405	24.39
551.601	24.26
551.798	24.31
551.995	24.33
552.191	24.3
552.388	24.42
552.585	24.34
552.781	24.35
552.978	24.43
553.175	24.36
553.371	24.47
553.568	24.52
553.764	24.64
553.961	24.73
554.157	24.69
554.354	24.68
554.55	24.75
554.747	24.8
554.943	24.87
555.14	24.86
555.336	24.93
555.533	24.85
555.729	24.87
555.926	24.85
556.122	24.81
556.318	24.82
556.515	24.85
556.711	24.64
556.907	24.61
557.104	24.6
557.3	24.55
557.496	24.41
557.693	24.49
557.889	24.57
558.085	24.67
558.281	24.72
558.478	24.73
558.674	24.77
558.87	24.97
559.066	25.02
559.262	25.08
559.459	25.21
559.655	25.39
559.851	25.31
560.047	25.3
560.243	25.37
560.439	25.28
560.635	25.27
560.831	25.23
561.027	25.21
561.223	25.2
561.419	25.17
561.615	25.17
561.811	25.13
562.007	25.15
562.203	25.21
562.399	25.19
562.595	25.37
562.791	25.41
562.987	25.59
563.183	25.6
563.379	25.69
563.575	25.76
563.771	25.79
563.966	25.76
564.162	25.82
564.358	25.91
564.554	25.76
564.75	25.63
564.945	25.68
565.141	25.65
565.337	25.72
565.533	25.59
565.728	25.58
565.924	25.54
566.12	25.58
566.315	25.6
566.511	25.4
566.707	25.47
566.902	25.57
567.098	25.52
567.293	25.53
567.489	25.55
567.684	25.58
567.88	25.6
568.076	25.62
568.271	25.64
568.467	25.62
568.662	25.73
568.858	25.81
569.053	25.69
569.248	25.68
569.444	25.68
569.639	25.57
569.835	25.73
570.03	25.63
570.225	25.58
570.421	25.53
570.616	25.58
570.812	25.67
571.007	25.52
571.202	25.62
571.397	25.54
571.593	25.61
571.788	25.74
571.983	25.6
572.178	25.61
572.374	25.72
572.569	25.77
572.764	25.86
572.959	25.74
573.154	25.89
573.35	25.88
573.545	26.05
573.74	25.92
573.935	25.91
574.13	26.05
574.325	26.12
574.52	26.19
574.715	26.22
574.91	26.08
575.105	26.12
575.3	26.08
575.495	26.22
575.69	26.23
575.885	26.34
576.08	26.4
576.275	26.48
576.47	26.62
576.665	26.63
576.86	26.8
577.055	26.98
577.25	27.11
577.444	27.13
577.639	27.13
577.834	27.24
578.029	27.35
578.224	27.23
578.418	27.36
578.613	27.35
578.808	27.44
579.003	27.42
579.197	27.51
579.392	27.64
579.587	27.83
579.781	27.87
579.976	27.88
580.171	27.9
580.365	28.05
580.56	27.93
580.755	28.08
580.949	28.1
581.144	28.03
581.338	27.95
581.533	27.96
581.727	28.04
581.922	28.07
582.116	28.13
582.311	28.07
582.505	28.23
582.7	28.27
582.894	28.19
583.089	28.03
583.283	28.24
583.478	28.38
583.672	28.32
583.866	28.3
584.061	28.3
584.255	28.23
584.449	28.3
584.644	28.33
584.838	28.3
585.032	28.27
585.226	28.38
585.421	28.31
585.615	28.28
585.809	28.48
586.003	28.48
586.198	28.61
586.392	28.75
586.586	28.81
586.78	28.7
586.974	28.81
587.168	28.87
587.363	28.97
587.557	28.97
587.751	28.99
587.945	28.95
588.139	28.92
588.333	28.85
588.527	28.82
588.721	28.73
588.915	28.81
589.109	28.75
589.303	28.62
589.497	28.61
589.691	28.46
589.885	28.54
590.079	28.44
590.273	28.63
590.466	28.73
590.66	28.77
590.854	28.96
591.048	29
591.242	29.14
591.436	29.32
591.629	29.41
591.823	29.64
592.017	29.63
592.211	29.65
592.404	29.52
592.598	29.51
592.792	29.48
592.986	29.43
593.179	29.33
593.373	29.21
593.567	29.19
593.76	29.19
593.954	29.16
594.147	29.13
594.341	29.17
594.535	29.13
594.728	29.03
594.922	29.14
595.115	29.06
595.309	29.04
595.502	29.11
595.696	29.07
595.889	28.92
596.083	28.9
596.276	28.88
596.47	28.92
596.663	28.95
596.856	28.94
597.05	28.94
597.243	29
597.437	29
597.63	28.92
597.823	28.98
598.017	29.16
598.21	29.28
598.403	29.31
598.596	29.33
598.79	29.37
598.983	29.58
599.176	29.65
599.369	29.71
599.563	29.98
599.756	30.08
599.949	30.06
600.142	29.99
600.335	29.95
600.528	29.95
600.722	30.12
600.915	30.21
601.108	30.25
601.301	30.26
601.494	30.34
601.687	30.1
601.88	30.07
602.073	30.05
602.266	30.17
602.459	30.18
602.652	30.09
602.845	29.81
603.038	29.64
603.231	29.4
603.424	29.22
603.617	29.11
603.809	29.15
604.002	29.16
604.195	29.16
604.388	29.01
604.581	29.02
604.774	29.16
604.966	29.11
605.159	29.3
605.352	29.36
605.545	29.42
605.737	29.46
605.93	29.6
606.123	29.7
606.316	29.74
606.508	29.87
606.701	29.91
606.894	29.97
607.086	30.45
607.279	30.32
607.471	30.64
607.664	30.81
607.857	31.07
608.049	31.15
608.242	31.27
608.434	31.8
608.627	32.1
608.819	32.43
609.012	32.85
609.204	33.11
609.397	33.81
609.589	34.4
609.782	34.98
609.974	35.48
610.166	36.25
610.359	37.05
610.551	37.51
610.743	38
610.936	38.45
611.128	38.71
611.32	38.92
611.513	39.04
611.705	38.88
611.897	38.88
612.09	38.68
612.282	38.35
612.474	37.82
612.666	37.49
612.858	37.36
613.051	37.19
613.243	36.96
613.435	36.79
613.627	36.39
613.819	36.27
614.011	36.26
614.203	36.14
614.395	36
614.588	35.9
614.78	35.56
614.972	35.31
615.164	35.09
615.356	34.87
615.548	34.73
615.74	34.77
615.932	34.49
616.124	34.15
616.315	34.08
616.507	34.02
616.699	33.83
616.891	33.87
617.083	33.77
617.275	33.53
617.467	33.5
617.659	33.42
617.85	33.38
618.042	33.32
618.234	33.25
618.426	33.19
618.618	33.05
618.809	32.9
619.001	32.68
619.193	32.67
619.384	32.72
619.576	32.78
619.768	32.63
619.959	32.39
620.151	32.49
620.343	32.42
620.534	32.43
620.726	32.47
620.917	32.76
621.109	32.91
621.301	33.02
621.492	33.01
621.684	32.95
621.875	33.05
622.067	33.16
622.258	32.99
622.45	33.26
622.641	33.26
622.832	33.21
623.024	33.18
623.215	33.2
623.407	33.01
623.598	33.08
623.789	33.01
623.981	33.02
624.172	33.04
624.363	33.27
624.555	32.92
624.746	32.85
624.937	32.73
625.129	32.67
625.32	32.56
625.511	32.46
625.702	32.41
625.893	32.48
626.085	32.5
626.276	32.4
626.467	32.28
626.658	32.41
626.849	32.42
627.04	32.3
627.231	32.24
627.422	32.3
627.614	32.37
627.805	32.42
627.996	32.56
628.187	32.62
628.378	32.69
628.569	32.89
628.76	32.97
628.951	32.92
629.142	33.3
629.332	33.54
629.523	33.63
629.714	33.72
629.905	33.7
630.096	33.62
630.287	33.7
630.478	33.7
630.669	33.62
630.859	33.68
631.05	33.65
631.241	33.58
631.432	33.36
631.623	33.36
631.813	33.28
632.004	33.23
632.195	33.07
632.385	32.93
632.576	32.97
632.767	32.95
632.957	32.83
633.148	32.91
633.339	32.86
633.529	32.87
633.72	32.52
633.91	32.52
634.101	32.59
634.292	32.46
634.482	32.39
634.673	32.46
634.863	32.35
635.054	32.27
635.244	32.18
635.435	32.1
635.625	32.16
635.815	32.51
636.006	32.53
636.196	32.5
636.387	32.65
636.577	32.68
636.767	32.54
636.958	32.48
637.148	32.62
637.338	32.8
637.529	32.76
637.719	32.74
637.909	32.57
638.099	32.53
638.29	32.62
638.48	32.54
638.67	32.58
638.86	32.81
639.05	32.62
639.241	32.77
639.431	32.81
639.621	32.8
639.811	32.7
640.001	32.83
640.191	32.9
640.381	32.99
640.571	33.12
640.761	33.07
640.951	32.95
641.141	33.34
641.331	33.17
641.521	33.32
641.711	33.55
641.901	33.52
642.091	33.46
642.281	33.36
642.471	33.37
642.661	33.61
642.851	33.89
643.041	33.84
643.231	33.85
643.42	33.94
643.61	33.62
643.8	33.44
643.99	33.52
644.18	33.72
644.369	33.91
644.559	33.86
644.749	33.48
644.939	33.27
645.128	33.22
645.318	32.97
645.508	32.99
645.697	32.96
645.887	33.01
646.076	32.88
646.266	32.87
646.456	32.76
646.645	32.87
646.835	33.01
647.024	32.9
647.214	33.1
647.403	33.23
647.593	33.03
647.782	33.29
647.972	33.35
648.161	33.88
648.351	33.79
648.54	33.93
648.73	33.66
648.919	33.75
649.108	33.78
649.298	33.65
649.487	33.44
649.677	33.46
649.866	33.45
650.055	33.64
650.244	33.57
650.434	33.52
650.623	33.33
650.812	33.62
651.002	33.35
651.191	33.51
651.38	33.47
651.569	33.75
651.758	33.75
651.947	33.64
652.137	33.48
652.326	33.33
652.515	33.55
652.704	33.48
652.893	33.4
653.082	33.58
653.271	33.44
653.46	33.65
653.649	33.69
653.838	33.79
654.027	33.9
654.216	34.1
654.405	34.17
654.594	34.13
654.783	34.34
654.972	34.39
655.161	34.59
655.35	34.53
655.539	34.31
655.728	34.19
655.916	34.1
656.105	34.15
656.294	33.92
656.483	33.72
656.672	33.44
656.86	33.46
657.049	33.3
657.238	33.08
657.427	33.03
657.615	33.04
657.804	33.16
657.993	33.16
658.181	32.94
658.37	32.8
658.559	32.59
658.747	32.73
658.936	32.38
659.125	32.59
659.313	32.43
659.502	32.61
659.69	32.71
659.879	32.46
660.067	32.41
660.256	32.42
660.444	32.61
660.633	32.74
660.821	32.59
661.01	32.84
661.198	32.48
661.387	32.87
661.575	32.92
661.763	32.92
661.952	33.2
662.14	33.47
662.328	33.75
662.517	33.97
662.705	34.23
662.893	34.28
663.082	34.72
663.27	35.12
663.458	35.08
663.646	35.31
663.834	35.33
664.023	35.44
664.211	35.29
664.399	35.16
664.587	34.96
664.775	34.96
664.963	35.34
665.152	35.07
665.34	35
665.528	34.78
665.716	34.55
665.904	34.94
666.092	34.86
666.28	34.88
666.468	34.91
666.656	34.97
666.844	34.98
667.032	34.79
667.22	34.86
667.408	34.98
667.596	35.02
667.784	34.93
667.971	34.56
668.159	34.5
668.347	34.3
668.535	34.38
668.723	34.32
668.911	34.18
669.098	34.22
669.286	34.13
669.474	33.74
669.662	33.86
669.849	33.96
670.037	33.96
670.225	34.11
670.413	34.45
670.6	34.23
670.788	33.98
670.976	34.19
671.163	33.85
671.351	33.64
671.538	33.64
671.726	34.01
671.913	33.88
672.101	33.94
672.289	33.82
672.476	33.74
672.664	34.27
672.851	34.4
673.039	34.39
673.226	34.65
673.413	35.08
673.601	35.47
673.788	35.18
673.976	35.29
674.163	35.33
674.35	35.52
674.538	35.48
674.725	35.14
674.912	35.45
675.1	35.29
675.287	35.61
675.474	35.45
675.662	35.25
675.849	35.18
676.036	35.28
676.223	35.19
676.411	35.03
676.598	34.84
676.785	34.88
676.972	34.61
677.159	34.7
677.346	34.32
677.533	34.09
677.721	34.16
677.908	34.02
678.095	33.95
678.282	33.88
678.469	33.78
678.656	33.92
678.843	33.65
679.03	33.79
679.217	33.79
679.404	33.84
679.591	33.98
679.778	34.04
679.964	34.19
680.151	33.96
680.338	34.03
680.525	34.06
680.712	34.19
680.899	34.56
681.086	34.43
681.272	34.49
681.459	34.45
681.646	34.34
681.833	34.12
682.02	34.12
682.206	34.32
682.393	34.39
682.58	34.37
682.766	34.2
682.953	33.85
683.14	33.99
683.326	34.18
683.513	34.58
683.7	34.74
683.886	34.75
684.073	34.54
684.259	34.54
684.446	34.75
684.632	34.99
684.819	35.14
685.005	35.29
685.192	35.29
685.378	35.43
685.565	35.06
685.751	35.11
685.938	35.44
686.124	35.96
686.31	35.93
686.497	35.78
686.683	35.67
686.87	35.68
687.056	35.48
687.242	35.34
687.429	34.94
687.615	35.09
687.801	35.2
687.987	34.9
688.174	34.5
688.36	34.63
688.546	34.55
688.732	34.41
688.918	34.39
689.105	34.71
689.291	34.9
689.477	34.71
689.663	34.56
689.849	34.18
690.035	34.45
690.221	34.57
690.407	34.52
690.593	34.47
690.779	34.82
690.965	34.71
691.151	34.67
691.337	34.64
691.523	34.96
691.709	35.28
691.895	35.75
692.081	35.61
692.267	35.7
692.453	35.73
692.639	35.88
692.825	35.67
693.011	35.81
693.196	36
693.382	36.16
693.568	36.02
693.754	36.05
693.94	35.76
694.125	35.8
694.311	35.99
694.497	35.82
694.682	35.88
694.868	36.01
695.054	36.07
695.239	36.07
695.425	35.7
695.611	35.82
695.796	35.85
695.982	36.05
696.168	35.77
696.353	35.31
696.539	35.19
696.724	34.72
696.91	34.45
697.095	34.13
697.281	33.89
697.466	33.76
697.652	33.59
697.837	33.27
698.023	33.28
698.208	33.38
698.393	33.35
698.579	33.63
698.764	33.79
698.949	33.86
699.135	34.09
699.32	33.88
699.505	33.94
699.691	33.72
699.876	33.79
700.061	33.56
700.246	33.48
700.432	33.77
700.617	33.42
700.802	33.43
700.987	33.26
701.172	32.71
701.358	32.98
701.543	33.41
701.728	33.68
701.913	33.98
702.098	34.54
702.283	34.87
702.468	35.09
702.653	35.74
702.838	36.03
703.023	36.72
703.208	37.65
703.393	37.92
703.578	38
703.763	38.64
703.948	38.55
704.133	38.64
704.318	38.95
704.503	38.94
704.688	38.93
704.873	38.69
705.057	38.46
705.242	38.06
705.427	38.35
705.612	38.54
705.797	38.75
705.981	38.8
706.166	38.77
706.351	38.58
706.536	38.87
706.72	38.87
706.905	39.04
707.09	38.95
707.274	39.06
707.459	38.92
707.644	38.88
707.828	38.55
708.013	38.54
708.197	38.61
708.382	38.4
708.567	38.21
708.751	37.96
708.936	37.68
709.12	37.83
709.305	37.82
709.489	37.8
709.673	37.45
709.858	37.35
710.042	37.46
710.227	37.19
710.411	37.41
710.596	37.41
710.78	37.83
710.964	38.19
711.149	38.36
711.333	38.44
711.517	38.43
711.702	38.42
711.886	38.67
712.07	38.52
712.254	38.25
712.438	38.32
712.623	38.16
712.807	37.76
712.991	37.65
713.175	37.27
713.359	37.18
713.544	37.12
713.728	37.25
713.912	36.98
714.096	36.97
714.28	37.31
714.464	37.19
714.648	36.69
714.832	36.9
715.016	37
715.2	36.87
715.384	37.14
715.568	37.14
715.752	37.02
715.936	37.06
716.12	36.81
716.304	36.73
716.488	36.15
716.671	36.47
716.855	36.18
717.039	35.96
717.223	35.9
717.407	35.3
717.59	35.31
717.774	35.29
717.958	35.43
718.142	35.72
718.325	35.78
718.509	36.28
718.693	36.38
718.877	35.94
719.06	36.06
719.244	36.67
719.428	37.03
719.611	37.21
719.795	38.36
719.978	38.62
720.162	38.47
720.345	38.81
720.529	38.93
720.713	39.07
720.896	39.7
721.08	39.62
721.263	39.48
721.446	39.82
721.63	39.76
721.813	38.48
721.997	38.17
722.18	38.37
722.364	38.3
722.547	38.21
722.73	38.54
722.914	38.26
723.097	38.65
723.28	38.74
723.464	38.58
723.647	38.45
723.83	38.61
724.013	38.47
724.197	38.49
724.38	38.28
724.563	38.04
724.746	37.67
724.929	38.37
725.112	38.75
725.296	38.46
725.479	38.42
725.662	38.33
725.845	38.64
726.028	38.74
726.211	38.9
726.394	38.51
726.577	38.84
726.76	39.26
726.943	38.53
727.126	38.31
727.309	38.35
727.492	38.16
727.675	38.3
727.858	38.17
728.041	38.05
728.224	38.26
728.407	38.44
728.589	38.66
728.772	38.32
728.955	38.2
729.138	37.83
729.321	37.35
729.503	37.5
729.686	37.33
729.869	36.76
730.052	37.06
730.234	36.61
730.417	36.49
730.6	35.68
730.782	35.52
730.965	35.91
731.148	36.04
731.33	36.38
731.513	36.15
731.695	35.96
731.878	36.2
732.061	36.06
732.243	36.52
732.426	36.55
732.608	37.25
732.791	37.58
732.973	37.96
733.156	38.1
733.338	38.4
733.52	38.65
733.703	38.82
733.885	39
734.068	38.93
734.25	38.48
734.432	38.47
734.615	38.72
734.797	38.57
734.979	38.38
735.162	38.51
735.344	37.98
735.526	37.97
735.708	38.32
735.891	39.08
736.073	38.98
736.255	39.08
736.437	39.08
736.619	39.11
736.802	39.17
736.984	39.44
737.166	39.36
737.348	40.13
737.53	40.43
737.712	40.15
737.894	39.87
738.076	40.23
738.258	40.43
738.44	40.11
738.622	39.91
738.804	39.97
738.986	39.5
739.168	39.41
739.35	39.1
739.532	39.39
739.714	39.57
739.896	39.22
740.078	39.23
740.259	39.04
740.441	40.26
740.623	40.21
740.805	40.11
740.987	40.56
741.168	40.73
741.35	41.4
741.532	40.71
741.714	41.01
741.895	41.48
742.077	41.45
742.259	41.9
742.44	41.12
742.622	41.57
742.804	41.67
742.985	41.81
743.167	41.83
743.348	41.84
743.53	41.87
743.711	41.74
743.893	41.24
744.075	41.35
744.256	41.19
744.438	41.96
744.619	41.79
744.8	41.74
744.982	41.31
745.163	41.28
745.345	40.54
745.526	41.84
745.707	41.36
745.889	41.71
746.07	41.87
746.252	42.02
746.433	41.79
746.614	41.77
746.795	42.09
746.977	42.59
747.158	42.2
747.339	42.52
747.52	41.6
747.702	42.05
747.883	41.57
748.064	41.42
748.245	41.15
748.426	40.98
748.607	40.8
748.788	40.26
748.97	39.7
749.151	39.92
749.332	40.25
749.513	40.74
749.694	40.7
749.875	41.09
750.056	41.03
750.237	40.98
750.418	40.51
750.599	40.2
750.78	40.05
750.96	40.57
751.141	40.65
751.322	39.97
751.503	39.51
751.684	39.5
751.865	39.11
752.046	38.78
752.226	39.55
752.407	40.34
752.588	40.93
752.769	41.98
752.949	42
753.13	42.49
753.311	42.78
753.492	42.57
753.672	42.58
753.853	42.49
754.034	42.2
754.214	41.87
754.395	41.95
754.575	41.57
754.756	41.16
754.937	41.67
755.117	41.71
755.298	41.84
755.478	42.34
755.659	42.71
755.839	43.62
756.02	44.21
756.2	43.36
756.381	43.22
756.561	43.36
756.741	43.58
756.922	43.03
757.102	42.57
757.283	42.94
757.463	42.19
757.643	42.08
757.823	41.17
758.004	41.28
758.184	42.21
758.364	41.91
758.545	41.98
758.725	41.6
758.905	40.83
759.085	40.35
759.265	39.63
759.446	39.43
759.626	39.42
759.806	39.85
759.986	40.13
760.166	39.52
760.346	39.52
760.526	39.15
760.706	39.66
760.886	39.82
761.066	40.08
761.246	39.84
761.426	40.79
761.606	40.33
761.786	39.81
761.966	38.61
762.146	38.46
762.326	38.07
762.506	37.65
762.686	36.64
762.866	36.62
763.046	36.33
763.225	36.56
763.405	35.34
763.585	35.24
763.765	35.74
763.945	36.03
764.124	35.74
764.304	36.1
764.484	36.54
764.664	36.93
764.843	36.98
765.023	36.87
765.203	37.01
765.382	37.58
765.562	38.09
765.741	37.53
765.921	37.79
766.101	38.28
766.28	38.02
766.46	38.11
766.639	38.51
766.819	38.55
766.998	39.52
767.178	39.44
767.357	39.89
767.537	39.89
767.716	41.48
767.896	41.77
768.075	42.04
768.254	42.74
768.434	44.03
768.613	43.86
768.792	44.64
768.972	44.43
769.151	44.17
769.33	44.15
769.51	44.8
769.689	43.61
769.868	43.38
770.047	43.81
770.226	43.97
770.406	42.57
770.585	42.74
770.764	42.25
770.943	43.01
771.122	44.14
771.301	44.74
771.48	44.73
771.66	45.38
771.839	45.72
772.018	45.64
772.197	44.67
772.376	44.79
772.555	45.32
772.734	46.06
772.913	45.74
773.092	45.07
773.271	45.41
773.449	44.89
773.628	44.17
773.807	45.01
773.986	45.02
774.165	45.74
774.344	46.71
774.523	46.77
774.701	46.3
774.88	46.98
775.059	47.34
775.238	47.76
775.417	48.59
775.595	49.32
775.774	48.55
775.953	49.07
776.131	49.03
776.31	48.43
776.489	48.49
776.667	48.65
776.846	48.54
777.025	48.08
777.203	47.14
777.382	46.41
777.56	45.46
777.739	45.71
777.917	45.23
778.096	45.94
778.274	45.95
778.453	45.79
778.631	46.69
778.81	45.68
778.988	45.83
779.166	46.18
779.345	46.19
779.523	47.2
779.702	47.03
779.88	47.97
780.058	47.02
780.237	47.19
780.415	47.02
780.593	46.39
780.771	46.69
780.95	48.47
781.128	48.26
781.306	48.41
781.484	48.57
781.662	48.78
781.841	49.17
782.019	49.54
782.197	48.32
782.375	47.52
782.553	47.12
782.731	47.58
782.909	46.32
783.087	46.89
783.265	46.39
783.443	46.48
783.621	46.68
783.799	46.12
783.977	46.76
784.155	48.62
784.333	50.03
784.511	50.57
784.689	49.72
784.867	50.51
785.045	51.24
785.223	52.95
785.4	52.04
785.578	52.77
785.756	52.9
785.934	52.04
786.112	51.44
786.289	50.49
786.467	49.89
786.645	50.15
786.823	48.66
787	47.69
787.178	46.48
787.356	47.39
787.533	45.86
787.711	45.17
787.889	45.4
788.066	44.65
788.244	44.01
788.421	44.48
788.599	44.05
788.776	44.83
788.954	44.24
789.131	44.18
789.309	44.01
789.486	45.6
789.664	45.59
789.841	45.66
790.019	46.45
790.196	47.94
790.373	47.8
790.551	49.25
790.728	49.43
790.906	50.32
791.083	52.48
791.26	52.52
791.437	52.35
791.615	52.08
791.792	52.49
791.969	53.1
792.146	52.27
792.324	51.76
792.501	51.64
792.678	52.11
792.855	52.42
793.032	50.44
793.209	51.34
793.387	50.36
793.564	50.6
793.741	50.6
793.918	49.96
794.095	49.9
794.272	50.76
794.449	50.26
794.626	50.39
794.803	49.81
794.98	49.76
795.157	49.14
795.334	48.87
795.511	48.87
795.688	48.63
795.864	48.55
796.041	48.39
796.218	47.77
796.395	48.76
796.572	47.98
796.749	47.95
796.925	46.92
797.102	46.96
797.279	47.37
797.456	48
797.632	48.2
797.809	48.88
797.986	50.14
798.162	50.67
798.339	49.65
798.516	50.81
798.692	51.24
798.869	52.77
799.046	52.66
799.222	52.48
799.399	52.8
799.575	52.58
799.752	52.02
799.928	52.12
800.105	52.2
800.281	52.54
800.458	51.79
800.634	52.21
800.811	51.77
800.987	52.38
801.163	53.04
801.34	52.6
801.516	53.24
801.692	53.5
801.869	52.89
802.045	53.55
802.221	53.06
802.398	53.61
802.574	53.71
802.75	54.24
802.926	53.53
803.103	53
803.279	53.07
803.455	51.82
803.631	51.96
803.807	52.13
803.983	52.6
804.16	53.2
804.336	52.35
804.512	52.33
804.688	52.41
804.864	52.72
805.04	52.73
805.216	53.06
805.392	54.74
805.568	55.85
805.744	56.47
805.92	55.85
806.096	55.91
806.272	57.89
806.448	57.52
806.623	56.89
806.799	57.03
806.975	58.34
807.151	59.2
807.327	58.85
807.503	57.48
807.678	57.28
807.854	56.61
808.03	56.88
808.206	56.74
808.381	57.1
808.557	57.12
808.733	56.02
808.908	54.94
809.084	55.29
809.26	55.49
809.435	56.13
809.611	57.17
809.787	57.65
809.962	58.83
810.138	57.31
810.313	57.84
810.489	58.52
810.664	58.68
810.84	60.44
811.015	58.59
811.191	57.66
811.366	57.5
811.542	56.46
811.717	56.03
811.892	55.18
812.068	56.04
812.243	54.3
812.419	54.14
812.594	53.37
812.769	53.1
812.944	54.88
813.12	55.42
813.295	55.01
813.47	54.02
813.645	53.42
813.821	52.81
813.996	50.44
814.171	52.24
814.346	51.96
814.521	53.99
814.697	52.52
814.872	51
815.047	51.66
815.222	52.15
815.397	52.76
815.572	54.16
815.747	53.57
815.922	55.31
816.097	54.48
816.272	55.98
816.447	54.89
816.622	56.67
816.797	57.63
816.972	56.76
817.147	57.59
817.322	58.84
817.496	57.88
817.671	57.94
817.846	58.57
818.021	57.57
818.196	55.03
818.371	55.96
818.545	53.86
818.72	52.84
818.895	51.81
819.069	50.01
819.244	48.68
819.419	47.72
819.594	46.77
819.768	44.53
819.943	44.85
820.117	44.23
820.292	42.45
820.467	40.8
820.641	38.16
820.816	37.75
820.99	36.33
821.165	35.17
821.339	33.94
821.514	33.19
821.688	32.65
821.863	31.42
822.037	30.56
822.212	29.96
822.386	29.28
822.56	29.57
822.735	29.04
822.909	29.02
823.084	29
823.258	29.1
823.432	28.88
823.606	28.86
823.781	29.05
823.955	29.55
824.129	29.92
824.303	31.01
824.478	31.68
824.652	32.38
824.826	32.79
825	33.38
825.174	34.23
825.348	35.02
825.523	35.36
825.697	36.11
825.871	36.49
826.045	36.77
826.219	36.43
826.393	35.49
826.567	36.06
826.741	36.16
826.915	35.85
827.089	35.52
827.263	35.48
827.437	35.8
827.611	35.32
827.784	35.61
827.958	35.7
828.132	35.84
828.306	36.34
828.48	36.34
828.654	35.82
828.827	35.89
829.001	36.81
829.175	38.32
829.349	39.49
829.522	40.47
829.696	41.5
829.87	43.08
830.044	44.94
830.217	46.19
830.391	46.11
830.565	48.69
830.738	51.13
830.912	51.2
831.085	51.7
831.259	50.98
831.432	50.36
831.606	49.73
831.779	47.81
831.953	47.1
832.126	46.14
832.3	46.09
832.473	45.92
832.647	43.99
832.82	44.01
832.994	42.28
833.167	42.23
833.34	42.38
833.514	41.6
833.687	41.49
833.86	40.72
834.034	41.54
834.207	40.73
834.38	40.01
834.553	40.18
834.727	39.44
834.9	39.58
835.073	39.35
835.246	39.88
835.419	40.42
835.593	40.87
835.766	42.1
835.939	41.65
836.112	43.51
836.285	44.97
836.458	45.56
836.631	46.96
836.804	48.66
836.977	49.11
837.15	50.26
837.323	51.51
837.496	51.87
837.669	51.44
837.842	52.66
838.015	54.78
838.188	55.61
838.361	57.52
838.533	59.46
838.706	60.5
838.879	61.78
839.052	63.08
839.225	62.45
839.398	65.72
839.57	68.99
839.743	68.79
839.916	66.86
840.088	65.29
840.261	66.64
840.434	65.96
840.607	64.52
840.779	63.88
840.952	63.75
841.124	65.32
841.297	62.96
841.47	62.57
841.642	62.04
841.815	62.53
841.987	64.85
842.16	63.28
842.332	64.31
842.505	68.06
842.677	70.26
842.85	71.03
843.022	73.28
843.194	73.36
843.367	72.32
843.539	73.27
843.712	75
843.884	75.06
844.056	76.77
844.229	78.41
844.401	78.82
844.573	77.78
844.745	79.63
844.918	76.53
845.09	82.37
845.262	84.13
845.434	86.35
845.606	86.06
845.779	89.16
845.951	88.14
846.123	88.38
846.295	85.31
846.467	86.45
846.639	86.56
846.811	89.45
846.983	90.12
847.155	89.03
847.327	91.52
847.499	93.49
847.671	92.6
847.843	94.56
848.015	93.53
848.187	97.78
848.359	101.15
848.531	96.47
848.703	98.6
848.875	96.24
849.047	99.63
849.218	100.52
849.39	100.76
849.562	101.03
849.734	104.75
849.905	107.57
850.077	104.73
850.249	106.34
850.421	113.3
850.592	110.01
850.764	111.72
850.936	109.14
851.107	108.11
851.279	106.58
851.451	106.81
851.622	105.02
851.794	106.85
851.965	106.31
852.137	109.59
852.308	107.41
852.48	108.36
852.651	109.5
852.823	110.82
852.994	110.52
853.166	110.85
853.337	114.64
853.509	113.18
853.68	108.62
853.851	110.71
854.023	106.15
854.194	103.94
854.365	107.44
854.537	104.69
854.708	104.18
854.879	103.48
855.05	107.08
855.222	105.56
855.393	104.59
855.564	106.9
855.735	105.26
855.906	105.68
856.078	106.22
856.249	102.19
856.42	100.94
856.591	105.14
856.762	104.61
856.933	101.23
857.104	98.25
857.275	97.79
857.446	95.21
857.617	92.28
857.788	90.14
857.959	92.65
858.13	95.85
858.301	100.05
858.472	95.34
858.643	98.75
858.814	99.09
858.985	95.81
859.155	99.73
859.326	105.22
859.497	109.08
859.668	117.65
859.839	113.15
860.009	115.58
860.18	117.6
860.351	121.51
860.522	122.88
860.692	125.1
860.863	138.3
861.034	131.82
861.204	124.64
861.375	122.08
861.546	112.87
861.716	114.69
861.887	114.57
862.057	113.81
862.228	112.11
862.398	110.61
862.569	108.98
862.739	105.85
862.91	109.49
863.08	112.44
863.251	113.59
863.421	119.15
863.592	121.51
863.762	117.23
863.932	114.29
864.103	116.09
864.273	113.31
864.443	115.42
864.614	112.21
864.784	107.99
864.954	106.08
865.125	105.14
865.295	104.38
865.465	102.69
865.635	104.8
865.805	110.29
865.976	109.04
866.146	111.29
866.316	108.51
866.486	111.64
866.656	112.95
866.826	119.72
866.996	118.6
867.166	119.07
867.336	118.06
867.506	117.47
867.676	116.88
867.846	121.86
868.016	120.27
868.186	127.35
868.356	127
868.526	125.59
868.696	123.1
868.866	122.82
869.036	127.54
869.206	131.04
869.376	134.38
869.545	133.45
869.715	131.89
869.885	135.91
870.055	125.21
870.224	127.67
870.394	126.78
870.564	127.28
870.734	129.71
870.903	125.62
871.073	116.51
871.243	110.35
871.412	103.87
871.582	101.16
871.751	100.99
871.921	102.96
872.091	101.07
872.26	96.39
872.43	93.01
872.599	93.19
872.769	93.99
872.938	100.67
873.108	103.47
873.277	106.1
873.446	107.7
873.616	101.19
873.785	98.55
873.955	100.22
874.124	105.74
874.293	109.46
874.463	112.02
874.632	108.96
874.801	109.85
874.971	109.59
875.14	108.18
875.309	104.45
875.478	108.71
875.647	111.01
875.817	107.38
875.986	110.4
876.155	103.15
876.324	103.42
876.493	104.58
876.662	102.08
876.831	99.19
877	104.19
877.17	104.88
877.339	104.77
877.508	103.3
877.677	104.34
877.846	100.63
878.015	105.09
878.184	99.8
878.352	98.24
878.521	95.18
878.69	100.11
878.859	99.84
879.028	99.41
879.197	98.28
879.366	97.61
879.534	93.29
879.703	88.31
879.872	83.56
880.041	79.1
880.21	72.22
880.378	67.48
880.547	60.74
880.716	54.59
880.884	51.25
881.053	47.33
881.222	45.17
881.39	44.04
881.559	41.84
881.727	40.43
881.896	39.75
882.065	38.73
882.233	37.91
882.402	38.04
882.57	37.53
882.739	37.75
882.907	37.94
883.076	38.09
883.244	37.41
883.412	37.91
883.581	38.04
883.749	37.99
883.918	39.31
884.086	40.3
884.254	40.95
884.423	42.58
884.591	43.85
884.759	45.34
884.927	45.72
885.096	47.61
885.264	49.29
885.432	53.54
885.6	56.04
885.769	57.9
885.937	59.2
886.105	58.94
886.273	62.35
886.441	64.63
886.609	66.34
886.777	69.33
886.945	74.07
887.113	79.86
887.281	79.17
887.449	81.9
887.617	87.21
887.785	93.33
887.953	99.49
888.121	98
888.289	98.4
888.457	101.89
888.625	104.93
888.793	104.59
888.961	101.04
889.129	105.43
889.296	107.38
889.464	108.17
889.632	106.47
889.8	105.35
889.967	110.73
890.135	110.42
