Data from 2938756__Reflection_01.txt Node
Date: Fri Mar 13 18:57:14 EDT 2015
User: robert
Spectrometer: USB4E03002
Autoset integration time: false
Trigger mode: 4
Integration Time (sec): 1.000000E-1
Scans to average: 10
Electric dark correction enabled: false
Nonlinearity correction enabled: false
Boxcar width: 5
Stray light correction enabled: false
XAxis mode: Wavelengths
Stop averaging: false
Number of Pixels in Spectrum: 3648
>>>>>Begin Spectral Data<<<<<
177.575	-32.95
177.794	-1000
178.014	36.21
178.233	41.89
178.452	14900
178.672	148.55
178.891	244.09
179.11	194.38
179.33	277.24
179.549	486.75
179.768	173.76
179.987	215.05
180.207	434.09
180.426	188.96
180.645	736.67
180.864	-153.33
181.084	-62.93
181.303	-54.69
181.522	-79.44
181.741	0.31
181.96	10.58
182.179	-10.43
182.398	-1.72
182.618	-42.7
182.837	-104.96
183.056	-97.88
183.275	-176.09
183.494	-64.1
183.713	-496.83
183.932	-390
184.151	19300
184.37	92.81
184.589	60.07
184.808	67.66
185.027	28.87
185.246	20.48
185.465	9.27
185.684	2.02
185.903	19.81
186.122	27.03
186.341	75.97
186.56	-638.46
186.779	17.76
186.998	36.41
187.216	49.72
187.435	43.94
187.654	50.1
187.873	32.06
188.092	27.79
188.311	28.32
188.53	43.22
188.748	38.03
188.967	7.24
189.186	31.21
189.405	62.75
189.623	63.12
189.842	111.54
190.061	117.37
190.28	65.9
190.498	51.04
190.717	54.58
190.936	52.07
191.154	73.28
191.373	36.06
191.592	68.31
191.81	-506.25
192.029	-477.5
192.248	-75.16
192.466	-6.15
192.685	-35.74
192.904	-173.37
193.122	-704.26
193.341	-850
193.559	-838.46
193.778	3218.18
193.996	271.71
194.215	280.22
194.433	337.38
194.652	520.83
194.87	8550
195.089	182.93
195.307	-41.94
195.526	16.67
195.744	24.21
195.963	20.17
196.181	52.73
196.399	63.54
196.618	64.43
196.836	84.01
197.055	104.37
197.273	39.79
197.491	-44.83
197.71	-25.61
197.928	-63.29
198.146	-16.67
198.365	-115.15
198.583	-192.71
198.801	-106.8
199.019	-19.34
199.238	-65.2
199.456	-78.55
199.674	-18.41
199.892	-44.53
200.111	-80.84
200.329	-45.06
200.547	-172.08
200.765	-34.65
200.983	-26.02
201.202	-30.6
201.42	-21.9
201.638	-38.13
201.856	-7.53
202.074	7.14
202.292	-19.24
202.51	-14.88
202.728	-1.41
202.946	-6.44
203.165	7.92
203.383	-211.34
203.601	-561.96
203.819	-99.74
204.037	-103.57
204.255	-72.65
204.473	-93.56
204.691	1.44
204.909	6.32
205.127	-28.12
205.345	30.6
205.562	12.94
205.78	-0.72
205.998	75.17
206.216	57.25
206.434	47.22
206.652	44.04
206.87	49.46
207.088	39.85
207.306	36.1
207.523	63.95
207.741	52.66
207.959	53.97
208.177	62.98
208.395	54.78
208.612	56.32
208.83	45.92
209.048	48.8
209.266	49.11
209.483	46.27
209.701	52.22
209.919	37.95
210.136	28.28
210.354	17.8
210.572	30.35
210.79	18.37
211.007	32.06
211.225	11.2
211.442	-10.38
211.66	10.7
211.878	6.65
212.095	-104.86
212.313	-255.68
212.53	-150
212.748	-138.86
212.966	-141.21
213.183	-167.75
213.401	-117.26
213.618	-111.61
213.836	-221.85
214.053	-530.05
214.271	-418.12
214.488	-35.88
214.705	-13.49
214.923	-11.61
215.14	-29.33
215.358	-27.61
215.575	-0.56
215.793	3.34
216.01	29.26
216.227	39.18
216.445	46.32
216.662	59.95
216.879	49.81
217.097	58.58
217.314	41.65
217.531	33.17
217.749	33.15
217.966	23.67
218.183	18.23
218.4	1.88
218.618	1.82
218.835	7.89
219.052	1.01
219.269	-9.6
219.487	-16.56
219.704	3.54
219.921	14.81
220.138	17.14
220.355	10.75
220.572	13.83
220.79	16.08
221.007	15.05
221.224	-3.47
221.441	-2.24
221.658	4.11
221.875	8.08
222.092	10.57
222.309	15.13
222.526	10.72
222.743	9.93
222.96	6.46
223.177	2.14
223.394	5.33
223.611	4.76
223.828	11.92
224.045	7.41
224.262	5.39
224.479	2.92
224.696	3.91
224.913	3.65
225.13	5.17
225.347	6.47
225.564	5.7
225.781	2.89
225.997	6.24
226.214	3.18
226.431	4.49
226.648	6.13
226.865	5.79
227.082	1.61
227.298	2.84
227.515	3.13
227.732	3.55
227.949	4.31
228.165	6.66
228.382	7.66
228.599	8.24
228.816	8.19
229.032	7.64
229.249	7.33
229.466	8.28
229.682	8.14
229.899	9.57
230.116	8.65
230.332	8.36
230.549	7.04
230.765	5.54
230.982	4.8
231.199	3.74
231.415	2.94
231.632	3.27
231.848	3.45
232.065	2.06
232.281	-0.59
232.498	0.4
232.714	0.38
232.931	0.68
233.147	1.8
233.364	2.58
233.58	2.81
233.797	2.33
234.013	1.29
234.23	0.41
234.446	1.26
234.662	0.57
234.879	-0.44
235.095	2.08
235.312	1.75
235.528	1.64
235.744	-0.2
235.961	0.23
236.177	1.49
236.393	3.19
236.61	3.15
236.826	4.47
237.042	6.16
237.258	6.49
237.475	5.62
237.691	5.47
237.907	3.48
238.123	5.87
238.339	5.03
238.556	4.07
238.772	1.89
238.988	2.63
239.204	3.7
239.42	3.64
239.636	4.84
239.853	5.39
240.069	6.2
240.285	6.84
240.501	7.42
240.717	6.84
240.933	7.05
241.149	7.68
241.365	7.47
241.581	6.98
241.797	6.67
242.013	6.43
242.229	5.6
242.445	5.33
242.661	5.48
242.877	4.66
243.093	5.16
243.309	5.2
243.525	5.18
243.741	5
243.957	5.05
244.173	5.42
244.388	5.92
244.604	5.37
244.82	5.47
245.036	5.44
245.252	5.37
245.468	5.76
245.683	5.25
245.899	5.29
246.115	5.37
246.331	4.96
246.547	4.93
246.762	4.65
246.978	5.05
247.194	4.8
247.409	4.87
247.625	4.87
247.841	4.68
248.057	4.81
248.272	4.94
248.488	4.9
248.703	4.79
248.919	4.34
249.135	4.29
249.35	4.51
249.566	4.51
249.782	5.03
249.997	4.98
250.213	5.08
250.428	5.21
250.644	4.96
250.859	4.93
251.075	4.96
251.29	4.79
251.506	4.82
251.721	4.38
251.937	4.51
252.152	3.78
252.368	3.97
252.583	3.79
252.798	4.51
253.014	4.29
253.229	4.2
253.445	4.85
253.66	5.51
253.875	6.07
254.091	6.74
254.306	7.4
254.521	7.62
254.737	8.24
254.952	8.33
255.167	8.59
255.383	6.97
255.598	6.72
255.813	5.64
256.028	4.86
256.244	4.07
256.459	2.66
256.674	2.3
256.889	2.61
257.104	1.95
257.32	2.13
257.535	0.62
257.75	1.9
257.965	1.31
258.18	1.91
258.395	2.47
258.61	2.51
258.826	2.98
259.041	2.85
259.256	3.14
259.471	3.3
259.686	3.28
259.901	3.72
260.116	3.79
260.331	3.88
260.546	4.12
260.761	4.06
260.976	3.98
261.191	4.01
261.406	4.02
261.621	3.49
261.836	3.1
262.05	2.81
262.265	2.62
262.48	2.38
262.695	3.13
262.91	2.49
263.125	2.69
263.34	2.96
263.555	2.93
263.769	3
263.984	3.52
264.199	3.94
264.414	4.54
264.629	4.32
264.843	4
265.058	3.94
265.273	4.21
265.488	4.38
265.702	4.09
265.917	3.41
266.132	3.38
266.346	3.22
266.561	2.98
266.776	2.98
266.99	3.51
267.205	3.12
267.42	2.91
267.634	3.24
267.849	3.15
268.063	3.6
268.278	4.07
268.492	3.85
268.707	4.18
268.922	4.45
269.136	4.24
269.351	3.78
269.565	4.06
269.78	4.12
269.994	3.81
270.209	3.3
270.423	2.94
270.637	2.93
270.852	3.35
271.066	2.95
271.281	3.13
271.495	2.75
271.709	2.79
271.924	2.85
272.138	2.62
272.353	2.81
272.567	2.97
272.781	3.18
272.996	3.04
273.21	2.88
273.424	3.06
273.638	2.99
273.853	3.43
274.067	3.74
274.281	3.41
274.495	3.52
274.71	3.1
274.924	3.08
275.138	2.95
275.352	3.18
275.566	3.14
275.781	2.98
275.995	2.53
276.209	2.6
276.423	1.85
276.637	2.33
276.851	3
277.065	2.77
277.279	2.38
277.493	2.41
277.707	1.95
277.921	1.72
278.135	1.98
278.349	2.12
278.563	2.04
278.777	2.77
278.991	2.45
279.205	1.94
279.419	2.22
279.633	2.79
279.847	2.57
280.061	2.81
280.275	3.21
280.489	3.24
280.703	3.68
280.917	3.45
281.131	3.04
281.344	3.22
281.558	3.04
281.772	2.73
281.986	2.84
282.2	2.81
282.414	3.03
282.627	3.11
282.841	2.94
283.055	2.74
283.269	2.73
283.482	2.7
283.696	3.09
283.91	2.63
284.123	2.82
284.337	2.83
284.551	2.94
284.764	2.63
284.978	2.58
285.192	2.3
285.405	2.25
285.619	2.48
285.833	2.99
286.046	3.16
286.26	3.61
286.473	3.8
286.687	3.71
286.9	3.76
287.114	4.04
287.327	4
287.541	4.63
287.754	4.63
287.968	4.61
288.181	4.36
288.395	4.03
288.608	3.98
288.822	4.06
289.035	3.64
289.248	3.59
289.462	3.27
289.675	3.02
289.889	2.68
290.102	2.65
290.315	2.24
290.529	1.91
290.742	1.89
290.955	2.38
291.169	2.32
291.382	2.56
291.595	3.13
291.808	3.35
292.022	3.93
292.235	4
292.448	3.99
292.661	4.29
292.875	4.57
293.088	4.43
293.301	3.95
293.514	3.58
293.727	3.81
293.94	3.16
294.153	3.4
294.367	3.02
294.58	3.28
294.793	3.74
295.006	3.62
295.219	3.56
295.432	3.39
295.645	3.36
295.858	3.79
296.071	3.68
296.284	4.06
296.497	3.88
296.71	4
296.923	3.79
297.136	3.64
297.349	3.76
297.562	3.87
297.775	4.15
297.988	4.28
298.201	4.42
298.414	4.48
298.626	4.24
298.839	3.99
299.052	4.02
299.265	4.19
299.478	4.12
299.691	4.32
299.903	4
300.116	3.83
300.329	3.8
300.542	3.57
300.755	3.79
300.967	4.03
301.18	4.48
301.393	4.33
301.605	4.33
301.818	4.17
302.031	4.28
302.243	4.4
302.456	4.42
302.669	3.94
302.881	3.86
303.094	3.63
303.307	3.29
303.519	3.26
303.732	3.24
303.944	3.33
304.157	3.34
304.37	3.15
304.582	3.34
304.795	3.41
305.007	4.04
305.22	3.86
305.432	4.14
305.645	4.18
305.857	4.46
306.069	4.8
306.282	4.76
306.494	5.14
306.707	5.31
306.919	5.62
307.132	5.63
307.344	5.87
307.556	5.64
307.769	5.5
307.981	5.61
308.193	5.32
308.406	5.31
308.618	5.28
308.83	4.91
309.043	5.03
309.255	5.05
309.467	4.94
309.679	4.65
309.892	4.98
310.104	4.92
310.316	4.85
310.528	5.15
310.74	5.12
310.953	5.02
311.165	5.19
311.377	5.22
311.589	5.15
311.801	5.46
312.013	5.48
312.225	5.51
312.437	5.64
312.649	5.51
312.862	5.39
313.074	5.24
313.286	5.32
313.498	5.64
313.71	5.43
313.922	5.37
314.134	5.15
314.346	5.39
314.558	5.49
314.77	5.9
314.982	6.16
315.193	5.96
315.405	6.34
315.617	6.69
315.829	6.5
316.041	6.86
316.253	7.08
316.465	7.26
316.677	7.06
316.888	6.54
317.1	6.15
317.312	6.4
317.524	6.21
317.736	5.78
317.947	5.2
318.159	4.93
318.371	4.55
318.583	3.95
318.794	4.19
319.006	4.73
319.218	5.43
319.43	5.53
319.641	5.34
319.853	5.59
320.064	6.37
320.276	6.58
320.488	6.88
320.699	6.75
320.911	7.06
321.123	7.48
321.334	7.23
321.546	6.82
321.757	6.59
321.969	6.39
322.18	6.02
322.392	5.84
322.603	5.75
322.815	5.88
323.026	6.08
323.238	6.38
323.449	5.42
323.661	5
323.872	5.26
324.083	5.27
324.295	5.38
324.506	5.86
324.718	5.63
324.929	6.2
325.14	6.18
325.352	6.43
325.563	6.39
325.774	6.51
325.986	6.86
326.197	7.04
326.408	7.45
326.62	7.76
326.831	7.73
327.042	7.86
327.253	7.28
327.464	7.64
327.676	7.64
327.887	7.76
328.098	7.96
328.309	7.85
328.52	8.05
328.732	7.97
328.943	7.62
329.154	7.76
329.365	7.4
329.576	8.04
329.787	7.9
329.998	8.29
330.209	8.58
330.42	8.92
330.631	8.99
330.842	9.13
331.053	9.07
331.264	9.32
331.475	9.38
331.686	9.7
331.897	9.51
332.108	9.53
332.319	9.16
332.53	9.04
332.741	8.75
332.952	8.88
333.163	8.14
333.374	8.33
333.585	8.28
333.795	8.43
334.006	8.01
334.217	8.1
334.428	7.92
334.639	8.25
334.849	8.01
335.06	8.5
335.271	8.56
335.482	8.6
335.692	8.3
335.903	8.14
336.114	7.98
336.325	8.45
336.535	8.31
336.746	8.55
336.957	8.07
337.167	7.99
337.378	7.6
337.589	7.47
337.799	7.39
338.01	7.57
338.22	7.88
338.431	7.93
338.642	8.02
338.852	8.24
339.063	7.82
339.273	8.3
339.484	8.37
339.694	8.56
339.905	8.71
340.115	9.12
340.326	9.09
340.536	8.96
340.746	8.77
340.957	8.45
341.167	8.28
341.378	8.54
341.588	8.32
341.799	8.26
342.009	8.2
342.219	8.22
342.43	8.27
342.64	8.4
342.85	8.42
343.061	8.71
343.271	8.6
343.481	8.75
343.691	9.02
343.902	9.23
344.112	9.32
344.322	9.47
344.532	9.38
344.743	9.17
344.953	8.99
345.163	9.18
345.373	8.97
345.583	9.21
345.793	9.17
346.004	8.76
346.214	8.4
346.424	8.39
346.634	8.41
346.844	8.6
347.054	8.38
347.264	8.42
347.474	8.66
347.684	8.81
347.894	8.9
348.104	8.84
348.314	8.73
348.524	9.08
348.734	9.18
348.944	8.93
349.154	8.63
349.364	8.75
349.574	8.87
349.784	8.63
349.994	8.47
350.204	8.55
350.413	8.28
350.623	8.33
350.833	7.97
351.043	8.06
351.253	7.95
351.463	8.28
351.672	8.28
351.882	8.2
352.092	8.08
352.302	8.23
352.511	8.06
352.721	8.34
352.931	8.47
353.141	8.64
353.35	8.51
353.56	8.46
353.77	7.92
353.979	8.07
354.189	7.68
354.399	7.68
354.608	7.23
354.818	7.06
355.027	6.99
355.237	6.98
355.447	6.77
355.656	6.89
355.866	7.03
356.075	7.27
356.285	7.47
356.494	7.68
356.704	7.79
356.913	8.24
357.123	8.44
357.332	8.35
357.542	8.24
357.751	8.26
357.96	8.05
358.17	8.15
358.379	7.96
358.589	7.8
358.798	7.91
359.007	7.68
359.217	7.55
359.426	7.47
359.635	7.48
359.845	7.65
360.054	7.52
360.263	7.52
360.472	7.26
360.682	7.36
360.891	7.26
361.1	7.23
361.309	7.18
361.519	6.95
361.728	6.93
361.937	6.77
362.146	6.59
362.355	6.65
362.564	6.57
362.774	6.86
362.983	6.73
363.192	6.65
363.401	6.55
363.61	6.65
363.819	6.93
364.028	7.01
364.237	7.21
364.446	7.12
364.655	7.29
364.864	7.37
365.073	6.98
365.282	7.29
365.491	7.47
365.7	7.67
365.909	7.8
366.118	7.78
366.327	7.6
366.536	7.67
366.745	7.8
366.954	7.78
367.162	7.94
367.371	7.99
367.58	7.55
367.789	7.4
367.998	7.13
368.207	7.13
368.415	6.88
368.624	6.95
368.833	6.84
369.042	6.83
369.25	6.65
369.459	6.47
369.668	6.39
369.877	6.56
370.085	6.55
370.294	6.56
370.503	6.29
370.711	6.56
370.92	6.59
371.129	6.43
371.337	6.54
371.546	6.78
371.754	6.65
371.963	6.75
372.171	6.65
372.38	6.94
372.589	6.99
372.797	7.03
373.006	7.02
373.214	6.88
373.423	7.1
373.631	7.39
373.84	7.18
374.048	7.16
374.256	7.29
374.465	7.42
374.673	7.19
374.882	7.18
375.09	7.3
375.298	7.19
375.507	7.36
375.715	7.2
375.923	6.77
376.132	6.81
376.34	6.8
376.548	6.53
376.757	6.53
376.965	6.5
377.173	6.23
377.381	6.07
377.59	5.83
377.798	5.68
378.006	5.75
378.214	5.86
378.423	5.71
378.631	5.71
378.839	5.86
379.047	5.78
379.255	5.67
379.463	5.95
379.671	5.79
379.879	5.98
380.088	6.13
380.296	6.01
380.504	5.88
380.712	5.68
380.92	5.55
381.128	5.37
381.336	5.15
381.544	5.28
381.752	4.99
381.96	5.17
382.168	5.24
382.376	5.13
382.584	5.18
382.791	5.11
382.999	5.59
383.207	5.78
383.415	5.7
383.623	5.8
383.831	5.69
384.039	6.02
384.247	6.04
384.454	5.86
384.662	5.82
384.87	5.82
385.078	5.65
385.285	5.43
385.493	5.49
385.701	5.54
385.909	5.65
386.116	5.71
386.324	5.71
386.532	5.64
386.739	5.61
386.947	5.57
387.155	5.43
387.362	5.55
387.57	5.35
387.778	5.21
387.985	5.26
388.193	5.1
388.4	5.03
388.608	4.7
388.816	4.68
389.023	4.89
389.231	4.89
389.438	5
389.646	5.21
389.853	5.33
390.061	5.16
390.268	5.14
390.475	5.09
390.683	5.05
390.89	5.09
391.098	4.91
391.305	4.61
391.512	4.55
391.72	4.53
391.927	4.47
392.135	4.32
392.342	4.3
392.549	4.15
392.756	4.19
392.964	4.2
393.171	4.25
393.378	4.37
393.586	4.43
393.793	4.59
394	4.59
394.207	4.34
394.414	4.36
394.622	4.36
394.829	4.43
395.036	4.32
395.243	4.4
395.45	4.51
395.657	4.34
395.864	4.42
396.072	4.15
396.279	4.09
396.486	4.33
396.693	4.45
396.9	4.56
397.107	4.6
397.314	4.72
397.521	4.56
397.728	4.38
397.935	4.49
398.142	4.24
398.349	4.33
398.556	4.42
398.763	4.28
398.97	4.23
399.177	4.32
399.383	4.36
399.59	4.31
399.797	4.44
400.004	4.33
400.211	4.31
400.418	4.47
400.625	4.59
400.831	4.44
401.038	4.45
401.245	4.56
401.452	4.5
401.658	4.54
401.865	4.54
402.072	4.2
402.279	4.14
402.485	4.17
402.692	4.22
402.899	4.27
403.105	4.3
403.312	4.32
403.519	4.32
403.725	4.24
403.932	4.08
404.138	4.07
404.345	4.3
404.552	4.36
404.758	4.31
404.965	4.32
405.171	4.04
405.378	3.99
405.584	3.95
405.791	3.88
405.997	3.82
406.204	3.79
406.41	3.86
406.617	3.87
406.823	3.85
407.029	4
407.236	3.95
407.442	4.12
407.649	4.27
407.855	4.3
408.061	4.15
408.268	4.13
408.474	4.31
408.68	4.34
408.887	4.22
409.093	4.26
409.299	4.13
409.505	4.1
409.712	4.01
409.918	3.89
410.124	3.86
410.33	4.04
410.537	4.18
410.743	4.13
410.949	4.13
411.155	4.2
411.361	4.16
411.567	4.08
411.773	4.02
411.98	3.99
412.186	4.05
412.392	4.2
412.598	4.16
412.804	4.07
413.01	4.19
413.216	4.08
413.422	4.05
413.628	4.12
413.834	4.21
414.04	4.25
414.246	4.32
414.452	4.26
414.658	4.04
414.864	3.99
415.07	3.99
415.275	3.85
415.481	3.87
415.687	3.88
415.893	3.91
416.099	3.9
416.305	3.94
416.511	4.04
416.716	4.08
416.922	4.23
417.128	4.27
417.334	4.29
417.539	4.24
417.745	4.17
417.951	4.18
418.157	4.12
418.362	4.15
418.568	4.26
418.774	4.14
418.979	4.12
419.185	4.16
419.391	4.04
419.596	4.04
419.802	4.03
420.008	4.1
420.213	4.09
420.419	4.14
420.624	4.1
420.83	3.97
421.035	4.02
421.241	4
421.446	3.95
421.652	4
421.857	4.02
422.063	3.99
422.268	4.02
422.474	3.97
422.679	3.97
422.885	3.87
423.09	3.95
423.295	4
423.501	4.01
423.706	3.97
423.911	4
424.117	4.01
424.322	4.09
424.527	4.05
424.733	4.12
424.938	4.11
425.143	4.24
425.349	4.14
425.554	4.05
425.759	3.98
425.964	4.07
426.169	4.04
426.375	3.96
426.58	3.9
426.785	3.93
426.99	3.87
427.195	3.84
427.4	3.76
427.605	3.74
427.811	3.79
428.016	3.98
428.221	3.88
428.426	3.89
428.631	3.97
428.836	4.09
429.041	4.07
429.246	4.07
429.451	4.16
429.656	4.16
429.861	4.26
430.066	4.23
430.271	4.08
430.476	4.13
430.681	4.03
430.886	4.03
431.09	4.04
431.295	3.94
431.5	4.02
431.705	4.01
431.91	4.08
432.115	4.14
432.32	4.19
432.524	4.29
432.729	4.27
432.934	4.29
433.139	4.35
433.343	4.35
433.548	4.49
433.753	4.49
433.958	4.44
434.162	4.44
434.367	4.37
434.572	4.33
434.776	4.26
434.981	4.28
435.186	4.29
435.39	4.27
435.595	4.19
435.799	4.1
436.004	4.04
436.209	4.05
436.413	4.12
436.618	4.24
436.822	4.39
437.027	4.39
437.231	4.36
437.436	4.41
437.64	4.42
437.845	4.47
438.049	4.46
438.253	4.53
438.458	4.55
438.662	4.44
438.867	4.36
439.071	4.23
439.275	4.33
439.48	4.35
439.684	4.41
439.888	4.44
440.093	4.52
440.297	4.54
440.501	4.48
440.706	4.53
440.91	4.6
441.114	4.66
441.318	4.73
441.523	4.67
441.727	4.69
441.931	4.68
442.135	4.63
442.339	4.53
442.543	4.52
442.748	4.56
442.952	4.48
443.156	4.32
443.36	4.34
443.564	4.37
443.768	4.37
443.972	4.37
444.176	4.3
444.38	4.34
444.584	4.42
444.788	4.47
444.992	4.49
445.196	4.5
445.4	4.56
445.604	4.52
445.808	4.42
446.012	4.41
446.216	4.4
446.42	4.47
446.624	4.44
446.828	4.33
447.032	4.31
447.235	4.26
447.439	4.31
447.643	4.36
447.847	4.36
448.051	4.46
448.254	4.5
448.458	4.43
448.662	4.4
448.866	4.46
449.069	4.54
449.273	4.57
449.477	4.67
449.681	4.54
449.884	4.49
450.088	4.52
450.292	4.46
450.495	4.45
450.699	4.5
450.902	4.46
451.106	4.35
451.31	4.19
451.513	4.15
451.717	4.05
451.92	4.08
452.124	4.11
452.327	4.02
452.531	3.95
452.734	3.89
452.938	3.98
453.141	4.02
453.345	4.12
453.548	4.29
453.752	4.26
453.955	4.24
454.158	4.31
454.362	4.28
454.565	4.34
454.769	4.44
454.972	4.51
455.175	4.44
455.379	4.41
455.582	4.29
455.785	4.27
455.988	4.31
456.192	4.45
456.395	4.37
456.598	4.3
456.801	4.35
457.005	4.36
457.208	4.33
457.411	4.4
457.614	4.45
457.817	4.5
458.021	4.56
458.224	4.55
458.427	4.51
458.63	4.6
458.833	4.69
459.036	4.57
459.239	4.54
459.442	4.5
459.645	4.48
459.848	4.5
460.051	4.48
460.254	4.44
460.457	4.45
460.66	4.43
460.863	4.39
461.066	4.38
461.269	4.51
461.472	4.47
461.675	4.5
461.878	4.45
462.081	4.43
462.284	4.46
462.486	4.39
462.689	4.37
462.892	4.38
463.095	4.3
463.298	4.36
463.5	4.37
463.703	4.38
463.906	4.37
464.109	4.36
464.311	4.38
464.514	4.29
464.717	4.33
464.92	4.33
465.122	4.36
465.325	4.44
465.528	4.27
465.73	4.21
465.933	4.08
466.135	4.14
466.338	4.2
466.541	4.21
466.743	4.33
466.946	4.35
467.148	4.41
467.351	4.29
467.553	4.3
467.756	4.41
467.958	4.36
468.161	4.56
468.363	4.54
468.566	4.6
468.768	4.54
468.971	4.54
469.173	4.45
469.375	4.51
469.578	4.64
469.78	4.66
469.983	4.68
470.185	4.65
470.387	4.55
470.59	4.52
470.792	4.49
470.994	4.51
471.196	4.52
471.399	4.56
471.601	4.44
471.803	4.36
472.005	4.39
472.208	4.36
472.41	4.44
472.612	4.52
472.814	4.58
473.016	4.67
473.218	4.58
473.421	4.57
473.623	4.63
473.825	4.77
474.027	4.78
474.229	4.84
474.431	4.81
474.633	4.79
474.835	4.74
475.037	4.72
475.239	4.72
475.441	4.8
475.643	4.85
475.845	4.88
476.047	4.75
476.249	4.75
476.451	4.72
476.653	4.77
476.855	4.77
477.057	4.72
477.258	4.7
477.46	4.56
477.662	4.56
477.864	4.5
478.066	4.51
478.268	4.59
478.469	4.59
478.671	4.56
478.873	4.52
479.075	4.4
479.276	4.42
479.478	4.38
479.68	4.37
479.882	4.37
480.083	4.41
480.285	4.36
480.487	4.31
480.688	4.32
480.89	4.34
481.091	4.38
481.293	4.51
481.495	4.59
481.696	4.61
481.898	4.65
482.099	4.67
482.301	4.65
482.502	4.7
482.704	4.68
482.905	4.69
483.107	4.69
483.308	4.69
483.51	4.67
483.711	4.64
483.913	4.64
484.114	4.6
484.315	4.6
484.517	4.57
484.718	4.53
484.92	4.57
485.121	4.55
485.322	4.51
485.524	4.49
485.725	4.5
485.926	4.48
486.127	4.46
486.329	4.51
486.53	4.49
486.731	4.52
486.932	4.51
487.134	4.48
487.335	4.5
487.536	4.55
487.737	4.56
487.938	4.53
488.139	4.54
488.341	4.56
488.542	4.56
488.743	4.57
488.944	4.56
489.145	4.59
489.346	4.62
489.547	4.6
489.748	4.58
489.949	4.64
490.15	4.7
490.351	4.73
490.552	4.76
490.753	4.75
490.954	4.77
491.155	4.8
491.356	4.79
491.557	4.78
491.758	4.79
491.959	4.82
492.159	4.78
492.36	4.78
492.561	4.75
492.762	4.69
492.963	4.73
493.164	4.72
493.364	4.8
493.565	4.85
493.766	4.8
493.967	4.79
494.167	4.79
494.368	4.86
494.569	4.88
494.769	4.92
494.97	4.96
495.171	4.95
495.371	4.91
495.572	4.83
495.773	4.79
495.973	4.88
496.174	4.95
496.375	4.96
496.575	4.92
496.776	4.85
496.976	4.88
497.177	4.96
497.377	4.98
497.578	5.03
497.778	5.03
497.979	5.02
498.179	4.99
498.38	4.95
498.58	4.96
498.78	4.91
498.981	4.99
499.181	4.92
499.382	4.83
499.582	4.84
499.782	4.78
499.983	4.74
500.183	4.88
500.383	4.91
500.584	4.99
500.784	4.96
500.984	5.03
501.184	5.03
501.385	5.14
501.585	5.3
501.785	5.3
501.985	5.38
502.185	5.48
502.386	5.49
502.586	5.49
502.786	5.51
502.986	5.54
503.186	5.6
503.386	5.61
503.586	5.6
503.786	5.52
503.987	5.54
504.187	5.53
504.387	5.58
504.587	5.54
504.787	5.61
504.987	5.69
505.187	5.73
505.387	5.7
505.587	5.81
505.786	5.8
505.986	5.83
506.186	5.88
506.386	5.88
506.586	5.97
506.786	5.95
506.986	5.87
507.186	5.82
507.386	5.88
507.585	5.92
507.785	5.91
507.985	5.97
508.185	6.03
508.384	6.07
508.584	6.18
508.784	6.17
508.984	6.25
509.183	6.4
509.383	6.4
509.583	6.4
509.782	6.38
509.982	6.32
510.182	6.34
510.381	6.39
510.581	6.43
510.781	6.47
510.98	6.53
511.18	6.47
511.379	6.46
511.579	6.49
511.778	6.56
511.978	6.67
512.177	6.72
512.377	6.73
512.576	6.72
512.776	6.74
512.975	6.69
513.175	6.66
513.374	6.75
513.573	6.75
513.773	6.78
513.972	6.78
514.172	6.75
514.371	6.9
514.57	6.95
514.77	7.02
514.969	7.04
515.168	7.02
515.367	7.04
515.567	7.05
515.766	7.15
515.965	7.21
516.164	7.22
516.364	7.27
516.563	7.28
516.762	7.42
516.961	7.46
517.16	7.52
517.359	7.79
517.559	7.9
517.758	7.96
517.957	7.97
518.156	8.1
518.355	8.09
518.554	8.16
518.753	8.17
518.952	8.14
519.151	8.16
519.35	8.2
519.549	8.14
519.748	8.13
519.947	8.23
520.146	8.31
520.345	8.27
520.544	8.47
520.743	8.51
520.942	8.62
521.141	8.68
521.339	8.73
521.538	8.78
521.737	8.81
521.936	8.88
522.135	8.86
522.333	8.84
522.532	8.94
522.731	8.98
522.93	9.13
523.129	9.21
523.327	9.28
523.526	9.35
523.725	9.4
523.923	9.49
524.122	9.51
524.321	9.6
524.519	9.74
524.718	9.78
524.917	9.78
525.115	9.77
525.314	9.79
525.512	9.83
525.711	9.91
525.909	9.93
526.108	9.95
526.306	10.02
526.505	10.06
526.703	10.12
526.902	10.16
527.1	10.23
527.299	10.27
527.497	10.3
527.696	10.33
527.894	10.38
528.092	10.47
528.291	10.5
528.489	10.55
528.688	10.56
528.886	10.56
529.084	10.58
529.283	10.59
529.481	10.64
529.679	10.65
529.877	10.72
530.076	10.69
530.274	10.69
530.472	10.75
530.67	10.77
530.869	10.87
531.067	10.95
531.265	11.03
531.463	11.12
531.661	11.22
531.859	11.33
532.057	11.39
532.255	11.45
532.454	11.51
532.652	11.55
532.85	11.61
533.048	11.63
533.246	11.68
533.444	11.68
533.642	11.7
533.84	11.7
534.038	11.74
534.236	11.81
534.434	11.93
534.632	11.98
534.83	12.05
535.027	12.15
535.225	12.24
535.423	12.29
535.621	12.4
535.819	12.48
536.017	12.58
536.215	12.66
536.412	12.67
536.61	12.76
536.808	12.83
537.006	12.9
537.203	12.9
537.401	12.96
537.599	13.02
537.797	13.1
537.994	13.18
538.192	13.2
538.39	13.26
538.587	13.32
538.785	13.31
538.983	13.41
539.18	13.55
539.378	13.61
539.575	13.62
539.773	13.73
539.97	13.77
540.168	13.8
540.366	13.91
540.563	13.94
540.761	14
540.958	14.05
541.155	14.07
541.353	14.03
541.55	14.1
541.748	14.16
541.945	14.19
542.143	14.25
542.34	14.32
542.537	14.32
542.735	14.41
542.932	14.49
543.129	14.59
543.327	14.68
543.524	14.84
543.721	14.94
543.919	15.07
544.116	15.22
544.313	15.33
544.51	15.47
544.708	15.57
544.905	15.72
545.102	15.86
545.299	15.97
545.496	16.07
545.693	16.16
545.891	16.2
546.088	16.23
546.285	16.24
546.482	16.23
546.679	16.21
546.876	16.25
547.073	16.25
547.27	16.19
547.467	16.14
547.664	16.1
547.861	16.06
548.058	16.13
548.255	16.12
548.452	16.13
548.649	16.22
548.846	16.26
549.043	16.35
549.24	16.32
549.437	16.47
549.633	16.51
549.83	16.58
550.027	16.6
550.224	16.6
550.421	16.66
550.618	16.65
550.814	16.61
551.011	16.61
551.208	16.64
551.405	16.77
551.601	16.66
551.798	16.74
551.995	16.79
552.191	16.81
552.388	16.84
552.585	16.88
552.781	16.93
552.978	17.02
553.175	17.05
553.371	17.03
553.568	16.99
553.764	17.04
553.961	17.16
554.157	17.18
554.354	17.29
554.55	17.32
554.747	17.43
554.943	17.44
555.14	17.38
555.336	17.49
555.533	17.57
555.729	17.63
555.926	17.72
556.122	17.71
556.318	17.75
556.515	17.83
556.711	18
556.907	17.95
557.104	17.97
557.3	18.04
557.496	17.93
557.693	17.88
557.889	17.86
558.085	17.86
558.281	17.86
558.478	17.85
558.674	17.84
558.87	17.67
559.066	17.78
559.262	17.8
559.459	17.9
559.655	18
559.851	18.11
560.047	18.16
560.243	18.22
560.439	18.29
560.635	18.38
560.831	18.45
561.027	18.61
561.223	18.58
561.419	18.7
561.615	18.74
561.811	18.78
562.007	18.74
562.203	18.78
562.399	18.85
562.595	18.91
562.791	18.88
562.987	18.81
563.183	18.72
563.379	18.82
563.575	18.91
563.771	19.01
563.966	19.04
564.162	19.09
564.358	19.15
564.554	19.1
564.75	19.12
564.945	19.27
565.141	19.37
565.337	19.42
565.533	19.42
565.728	19.45
565.924	19.4
566.12	19.51
566.315	19.61
566.511	19.61
566.707	19.77
566.902	19.65
567.098	19.64
567.293	19.55
567.489	19.58
567.684	19.74
567.88	19.61
568.076	19.71
568.271	19.77
568.467	19.75
568.662	19.89
568.858	19.76
569.053	19.93
569.248	20.03
569.444	20.24
569.639	20.25
569.835	20.2
570.03	20.34
570.225	20.32
570.421	20.3
570.616	20.3
570.812	20.31
571.007	20.33
571.202	20.49
571.397	20.58
571.593	20.46
571.788	20.57
571.983	20.52
572.178	20.54
572.374	20.56
572.569	20.56
572.764	20.58
572.959	20.62
573.154	20.74
573.35	20.68
573.545	20.64
573.74	20.77
573.935	20.72
574.13	20.83
574.325	20.79
574.52	20.81
574.715	20.84
574.91	21.02
575.105	20.98
575.3	21.1
575.495	21.09
575.69	21.14
575.885	21.11
576.08	21.21
576.275	21.27
576.47	21.44
576.665	21.62
576.86	21.54
577.055	21.46
577.25	21.52
577.444	21.42
577.639	21.49
577.834	21.61
578.029	21.76
578.224	21.86
578.418	21.71
578.613	21.7
578.808	21.69
579.003	21.96
579.197	22.11
579.392	22.14
579.587	22.24
579.781	22.29
579.976	22.23
580.171	22.18
580.365	22.14
580.56	22.29
580.755	22.27
580.949	22.41
581.144	22.33
581.338	22.38
581.533	22.48
581.727	22.43
581.922	22.5
582.116	22.62
582.311	22.59
582.505	22.66
582.7	22.75
582.894	22.75
583.089	22.77
583.283	22.83
583.478	22.78
583.672	22.93
583.866	23.1
584.061	22.98
584.255	22.87
584.449	23.13
584.644	23.15
584.838	23.27
585.032	23.32
585.226	23.27
585.421	23.26
585.615	23.41
585.809	23.26
586.003	23.25
586.198	23.53
586.392	23.65
586.586	23.65
586.78	23.66
586.974	23.55
587.168	23.6
587.363	23.6
587.557	23.65
587.751	23.53
587.945	23.52
588.139	23.36
588.333	23.18
588.527	23.22
588.721	22.99
588.915	22.93
589.109	23
589.303	23.24
589.497	23.22
589.691	23.22
589.885	23.21
590.079	23.37
590.273	23.58
590.466	23.68
590.66	23.61
590.854	23.75
591.048	23.86
591.242	23.89
591.436	23.81
591.629	23.9
591.823	23.97
592.017	24.04
592.211	23.99
592.404	24
592.598	24.07
592.792	24.14
592.986	24.09
593.179	24.02
593.373	23.82
593.567	23.79
593.76	23.54
593.954	23.47
594.147	23.39
594.341	23.29
594.535	23.25
594.728	23.16
594.922	23
595.115	22.98
595.309	23.04
595.502	23.28
595.696	23.24
595.889	23.4
596.083	23.45
596.276	23.5
596.47	23.49
596.663	23.44
596.856	23.35
597.05	23.46
597.243	23.59
597.437	23.64
597.63	23.5
597.823	23.59
598.017	23.65
598.21	23.59
598.403	23.51
598.596	23.59
598.79	23.68
598.983	23.84
599.176	23.88
599.369	23.91
599.563	23.95
599.756	24.06
599.949	24.16
600.142	24.06
600.335	24.2
600.528	24.36
600.722	24.34
600.915	24.36
601.108	24.31
601.301	24.29
601.494	24.25
601.687	24.27
601.88	24.16
602.073	23.83
602.266	23.86
602.459	23.83
602.652	23.8
602.845	23.97
603.038	23.99
603.231	23.86
603.424	23.96
603.617	23.88
603.809	23.72
604.002	23.73
604.195	23.87
604.388	23.96
604.581	23.95
604.774	24.04
604.966	23.9
605.159	23.8
605.352	23.96
605.545	23.73
605.737	23.81
605.93	23.85
606.123	24.03
606.316	24.01
606.508	23.96
606.701	23.97
606.894	23.94
607.086	24
607.279	24.18
607.471	24.31
607.664	24.62
607.857	24.84
608.049	25
608.242	25.23
608.434	25.61
608.627	26.03
608.819	26.6
609.012	27.18
609.204	27.93
609.397	28.59
609.589	29.38
609.782	30.19
609.974	30.89
610.166	31.87
610.359	32.67
610.551	33.49
610.743	34.21
610.936	34.68
611.128	35.18
611.32	35.37
611.513	35.51
611.705	35.46
611.897	35.25
612.09	35.03
612.282	34.78
612.474	34.36
612.666	33.92
612.858	33.43
613.051	33.08
613.243	32.55
613.435	32.23
613.627	31.85
613.819	31.52
614.011	31.17
614.203	30.81
614.395	30.3
614.588	29.93
614.78	29.6
614.972	29.17
615.164	28.83
615.356	28.43
615.548	28.01
615.74	27.72
615.932	27.12
616.124	26.96
616.315	26.72
616.507	26.54
616.699	26.36
616.891	26.05
617.083	25.87
617.275	25.74
617.467	25.6
617.659	25.54
617.85	25.41
618.042	25.48
618.234	25.52
618.426	25.47
618.618	25.5
618.809	25.49
619.001	25.59
619.193	25.58
619.384	25.55
619.576	25.53
619.768	25.5
619.959	25.55
620.151	25.75
620.343	25.46
620.534	25.4
620.726	25.46
620.917	25.58
621.109	25.45
621.301	25.73
621.492	25.62
621.684	25.67
621.875	25.85
622.067	25.8
622.258	25.89
622.45	26.02
622.641	26.11
622.832	26
623.024	25.72
623.215	25.87
623.407	25.71
623.598	25.9
623.789	25.9
623.981	25.78
624.172	25.87
624.363	25.65
624.555	25.87
624.746	25.91
624.937	25.88
625.129	25.96
625.32	25.84
625.511	25.75
625.702	25.68
625.893	25.74
626.085	25.77
626.276	25.8
626.467	25.85
626.658	25.88
626.849	25.84
627.04	25.99
627.231	26.04
627.422	26.01
627.614	26.06
627.805	26.06
627.996	26.01
628.187	25.89
628.378	25.83
628.569	25.8
628.76	25.81
628.951	25.95
629.142	26.02
629.332	25.95
629.523	26.16
629.714	26.36
629.905	26.51
630.096	26.71
630.287	26.91
630.478	27.11
630.669	27.2
630.859	27.12
631.05	26.89
631.241	26.89
631.432	26.99
631.623	26.7
631.813	26.53
632.004	26.32
632.195	26.15
632.385	26.05
632.576	25.78
632.767	25.75
632.957	25.75
633.148	25.82
633.339	25.59
633.529	25.43
633.72	25.47
633.91	25.35
634.101	25.21
634.292	25.02
634.482	24.95
634.673	25.01
634.863	24.85
635.054	24.71
635.244	24.74
635.435	24.78
635.625	24.71
635.815	24.77
636.006	24.87
636.196	24.99
636.387	25.18
636.577	25.11
636.767	25.04
636.958	25.12
637.148	25.14
637.338	25.21
637.529	25.27
637.719	25.46
637.909	25.42
638.099	25.38
638.29	25.27
638.48	25.29
638.67	25.25
638.86	25.22
639.05	25.2
639.241	25.28
639.431	25.07
639.621	25.1
639.811	24.89
640.001	24.7
640.191	24.6
640.381	24.72
640.571	24.66
640.761	24.79
640.951	24.81
641.141	24.73
641.331	24.64
641.521	24.68
641.711	24.63
641.901	24.86
642.091	25.32
642.281	25.43
642.471	25.75
642.661	25.76
642.851	25.7
643.041	25.7
643.231	25.7
643.42	25.53
643.61	25.67
643.8	25.58
643.99	25.59
644.18	25.24
644.369	25.17
644.559	24.97
644.749	24.85
644.939	25.09
645.128	25.14
645.318	25.19
645.508	25.33
645.697	25.2
645.887	25.35
646.076	25.27
646.266	25.53
646.456	25.51
646.645	25.36
646.835	25.42
647.024	25.27
647.214	25.24
647.403	25.47
647.593	25.53
647.782	25.66
647.972	25.56
648.161	25.42
648.351	25.36
648.54	25.34
648.73	25.43
648.919	25.56
649.108	25.56
649.298	25.82
649.487	25.52
649.677	25.35
649.866	25.29
650.055	25.31
650.244	25.53
650.434	25.46
650.623	25.6
650.812	25.66
651.002	25.6
651.191	25.78
651.38	25.6
651.569	25.87
651.758	25.99
651.947	26.02
652.137	26.04
652.326	25.99
652.515	26.12
652.704	26.2
652.893	26.29
653.082	26.26
653.271	26.24
653.46	26.21
653.649	26.08
653.838	26.12
654.027	26.18
654.216	26.14
654.405	26.19
654.594	26.14
654.783	25.89
654.972	25.7
655.161	25.72
655.35	25.66
655.539	25.65
655.728	25.66
655.916	25.57
656.105	25.63
656.294	25.67
656.483	25.44
656.672	25.66
656.86	25.8
657.049	25.93
657.238	25.88
657.427	25.69
657.615	25.86
657.804	25.84
657.993	26.05
658.181	25.82
658.37	25.78
658.559	25.92
658.747	25.68
658.936	25.63
659.125	25.82
659.313	25.8
659.502	25.99
659.69	25.76
659.879	25.82
660.067	25.61
660.256	25.73
660.444	25.77
660.633	25.78
660.821	25.95
661.01	26.2
661.198	25.96
661.387	26.03
661.575	26.14
661.763	26.24
661.952	26.18
662.14	26.32
662.328	26.2
662.517	26.24
662.705	26.36
662.893	26.32
663.082	26.17
663.27	26.23
663.458	26.24
663.646	26.2
663.834	26.2
664.023	26.23
664.211	26.45
664.399	26.47
664.587	26.52
664.775	26.49
664.963	26.41
665.152	26.25
665.34	26.24
665.528	26.21
665.716	25.92
665.904	25.94
666.092	25.95
666.28	25.88
666.468	26.22
666.656	26.02
666.844	26.08
667.032	25.96
667.22	25.86
667.408	25.95
667.596	25.94
667.784	26.18
667.971	26.1
668.159	26.18
668.347	25.93
668.535	25.61
668.723	25.53
668.911	25.24
669.098	25.29
669.286	25.35
669.474	25.19
669.662	25.18
669.849	25.1
670.037	25.4
670.225	25.29
670.413	25.36
670.6	25.54
670.788	25.76
670.976	26.04
671.163	26.33
671.351	26.39
671.538	26.42
671.726	26.7
671.913	26.5
672.101	26.48
672.289	26.53
672.476	26.51
672.664	26.51
672.851	26.69
673.039	26.62
673.226	26.33
673.413	26.45
673.601	26.38
673.788	26.42
673.976	26.53
674.163	26.53
674.35	26.41
674.538	26.43
674.725	26.42
674.912	26.32
675.1	26.17
675.287	26.12
675.474	26.12
675.662	26.3
675.849	26.23
676.036	26.42
676.223	26.39
676.411	26.6
676.598	26.42
676.785	26.32
676.972	26.21
677.159	26.17
677.346	26.5
677.533	26.38
677.721	25.97
677.908	25.94
678.095	25.85
678.282	25.84
678.469	25.91
678.656	26.17
678.843	26.28
679.03	26.24
679.217	26.34
679.404	26.35
679.591	26.43
679.778	26.82
679.964	26.81
680.151	26.85
680.338	26.82
680.525	26.7
680.712	26.75
680.899	26.86
681.086	26.84
681.272	26.86
681.459	26.75
681.646	26.66
681.833	26.59
682.02	26.66
682.206	26.63
682.393	26.39
682.58	26.55
682.766	26.46
682.953	26.33
683.14	26.49
683.326	26.57
683.513	26.57
683.7	26.72
683.886	26.8
684.073	26.53
684.259	26.67
684.446	27.01
684.632	27.03
684.819	26.96
685.005	27.04
685.192	27
685.378	26.81
685.565	26.9
685.751	27.22
685.938	27.1
686.124	27.12
686.31	26.84
686.497	26.69
686.683	26.53
686.87	26.3
687.056	26.05
687.242	26
687.429	26.19
687.615	25.92
687.801	25.77
687.987	25.91
688.174	26.13
688.36	26.32
688.546	26.32
688.732	26.39
688.918	26.37
689.105	26.66
689.291	26.67
689.477	26.74
689.663	26.93
689.849	26.73
690.035	26.24
690.221	26.02
690.407	26.07
690.593	26.21
690.779	26.21
690.965	26.6
691.151	26.63
691.337	26.71
691.523	26.88
691.709	26.96
691.895	27.05
692.081	27.43
692.267	27.69
692.453	27.69
692.639	27.78
692.825	27.64
693.011	27.71
693.196	27.45
693.382	27.43
693.568	27.36
693.754	27.28
693.94	27.12
694.125	26.9
694.311	26.85
694.497	26.49
694.682	26.04
694.868	26.31
695.054	26.23
695.239	26.37
695.425	26.31
695.611	26.02
695.796	25.75
695.982	26
696.168	26.04
696.353	25.76
696.539	25.88
696.724	26.19
696.91	26.04
697.095	25.84
697.281	25.75
697.466	25.91
697.652	26.03
697.837	26.34
698.023	26.2
698.208	26.18
698.393	26.38
698.579	26.46
698.764	26.35
698.949	26.24
699.135	26.33
699.32	26.25
699.505	26.11
699.691	26
699.876	25.88
700.061	25.98
700.246	26.12
700.432	25.84
700.617	25.76
700.802	25.77
700.987	25.83
701.172	25.75
701.358	25.8
701.543	25.94
701.728	26.01
701.913	25.94
702.098	25.83
702.283	25.95
702.468	26.18
702.653	26.44
702.838	26.61
703.023	26.81
703.208	27.13
703.393	27.18
703.578	27.26
703.763	27.47
703.948	27.38
704.133	27.61
704.318	27.42
704.503	27.61
704.688	27.7
704.873	27.82
705.057	28.05
705.242	28.45
705.427	28.77
705.612	28.84
705.797	29.09
705.981	29.39
706.166	29.74
706.351	30.36
706.536	30.42
706.72	30.39
706.905	30.58
707.09	30.79
707.274	30.39
707.459	30.67
707.644	31.01
707.828	31.2
708.013	31.22
708.197	31.09
708.382	30.7
708.567	30.92
708.751	31.15
708.936	31.07
709.12	30.64
709.305	30.69
709.489	30.1
709.673	29.54
709.858	28.97
710.042	29.01
710.227	29.16
710.411	29.12
710.596	28.69
710.78	28.8
710.964	28.73
711.149	28.44
711.333	28.56
711.517	28.78
711.702	28.99
711.886	28.9
712.07	28.79
712.254	28.45
712.438	28.39
712.623	28.44
712.807	28.17
712.991	28.11
713.175	28.49
713.359	28.02
713.544	27.85
713.728	27.75
713.912	28.01
714.096	27.66
714.28	27.14
714.464	27.13
714.648	27.41
714.832	26.94
715.016	26.59
715.2	26.38
715.384	26.65
715.568	26.64
715.752	26.73
715.936	26.47
716.12	26.43
716.304	26.87
716.488	26.59
716.671	26.16
716.855	26.37
717.039	26.16
717.223	26.06
717.407	26.02
717.59	25.93
717.774	25.74
717.958	25.81
718.142	25.82
718.325	25.82
718.509	25.55
718.693	25.54
718.877	25.49
719.06	26.09
719.244	26.02
719.428	26.12
719.611	26.15
719.795	26.29
719.978	25.98
720.162	26.35
720.345	26.36
720.529	26.74
720.713	27.12
720.896	27.22
721.08	26.78
721.263	26.9
721.446	26.66
721.63	26.85
721.813	26.6
721.997	26.92
722.18	27.06
722.364	27.01
722.547	27.32
722.73	26.86
722.914	26.68
723.097	26.91
723.28	26.78
723.464	26.92
723.647	26.94
723.83	26.57
724.013	26.48
724.197	25.94
724.38	25.76
724.563	25.9
724.746	26.26
724.929	26.32
725.112	26.22
725.296	26.77
725.479	26.75
725.662	26.65
725.845	27.07
726.028	26.79
726.211	27.19
726.394	27.13
726.577	27.05
726.76	26.89
726.943	26.99
727.126	27
727.309	26.4
727.492	26.12
727.675	26.13
727.858	26.07
728.041	26.34
728.224	26.23
728.407	26.66
728.589	26.41
728.772	26.57
728.955	26.38
729.138	26.34
729.321	26.76
729.503	26.74
729.686	26.91
729.869	27.16
730.052	27.13
730.234	26.95
730.417	26.65
730.6	26.64
730.782	26.65
730.965	27.03
731.148	27.16
731.33	26.8
731.513	26.92
731.695	26.41
731.878	26.34
732.061	26.53
732.243	26.97
732.426	27.14
732.608	27.23
732.791	27.17
732.973	26.82
733.156	26.73
733.338	26.76
733.52	26.83
733.703	27.17
733.885	27.01
734.068	26.95
734.25	26.39
734.432	26.15
734.615	26.11
734.797	26.23
734.979	26.45
735.162	25.74
735.344	25.96
735.526	25.83
735.708	26.1
735.891	25.89
736.073	25.61
736.255	26.11
736.437	26.37
736.619	27.2
736.802	26.31
736.984	26.17
737.166	26.82
737.348	26.85
737.53	27.35
737.712	26.75
737.894	27.53
738.076	27.76
738.258	27.81
738.44	27.91
738.622	27.17
738.804	27.9
738.986	27.84
739.168	28.54
739.35	28.44
739.532	28.3
739.714	28.37
739.896	28.19
740.078	28.14
740.259	27.63
740.441	27.16
740.623	27.21
740.805	27.43
740.987	27.66
741.168	26.97
741.35	27.36
741.532	27.21
741.714	27.22
741.895	26.86
742.077	27.43
742.259	28.37
742.44	28.19
742.622	28.24
742.804	27.48
742.985	27.24
743.167	27.42
743.348	26.86
743.53	27.12
743.711	27.3
743.893	27.5
744.075	27.14
744.256	26.72
744.438	27.32
744.619	27.35
744.8	27.64
744.982	27.91
745.163	27.44
745.345	27.46
745.526	27.35
745.707	27.65
745.889	27.68
746.07	27.93
746.252	27.53
746.433	27.59
746.614	27.31
746.795	27.46
746.977	27.67
747.158	28.29
747.339	28.72
747.52	28.62
747.702	28.34
747.883	28.71
748.064	28.3
748.245	28.44
748.426	28.32
748.607	28.61
748.788	28.68
748.97	28.81
749.151	28.65
749.332	28.15
749.513	28.14
749.694	27.91
749.875	27.32
750.056	27.55
750.237	27.74
750.418	27.87
750.599	27.52
750.78	27.58
750.96	27.55
751.141	27.72
751.322	28.1
751.503	28.31
751.684	29.2
751.865	28.8
752.046	27.95
752.226	27.64
752.407	27.4
752.588	27.11
752.769	27.03
752.949	26.39
753.13	26.04
753.311	25.79
753.492	25.4
753.672	24.76
753.853	25.03
754.034	25.58
754.214	25.79
754.395	25.92
754.575	26.13
754.756	26.31
754.937	26.75
755.117	27.85
755.298	28.1
755.478	27.89
755.659	28.37
755.839	29.16
756.02	29.31
756.2	29.22
756.381	29.49
756.561	29.19
756.741	29.01
756.922	29.24
757.102	27.98
757.283	28.23
757.463	28.43
757.643	27.36
757.823	27.4
758.004	27.61
758.184	27.44
758.364	26.85
758.545	27.25
758.725	27.19
758.905	26.58
759.085	27.42
759.265	26.69
759.446	27.59
759.626	28.14
759.806	27.53
759.986	26.68
760.166	26.56
760.346	27.12
760.526	26.5
760.706	25.88
760.886	26.17
761.066	25.43
761.246	25.42
761.426	24.69
761.606	24.85
761.786	24.67
761.966	25.28
762.146	25.99
762.326	25.23
762.506	25.49
762.686	25.79
762.866	25.48
763.046	25.79
763.225	25.87
763.405	26.04
763.585	25.83
763.765	26.03
763.945	26.11
764.124	25.71
764.304	25.88
764.484	26.19
764.664	26.65
764.843	27.09
765.023	26.74
765.203	26.84
765.382	26.42
765.562	26.39
765.741	26.44
765.921	25.97
766.101	26.05
766.28	26.36
766.46	26.11
766.639	26.12
766.819	26.17
766.998	26.48
767.178	26.82
767.357	27.08
767.537	27.51
767.716	27.18
767.896	27.21
768.075	27.58
768.254	27.89
768.434	28.26
768.613	27.76
768.792	27.87
768.972	27.93
769.151	27.52
769.33	27.44
769.51	27.13
769.689	27.83
769.868	28.42
770.047	27.68
770.226	26.57
770.406	27.29
770.585	27.66
770.764	27.13
770.943	27.3
771.122	28.05
771.301	28.26
771.48	28.42
771.66	27.78
771.839	28.05
772.018	28.3
772.197	29.45
772.376	28.22
772.555	28.65
772.734	29.26
772.913	29.23
773.092	29.23
773.271	28.58
773.449	28.62
773.628	28.7
773.807	28.3
773.986	28.48
774.165	29.02
774.344	29.97
774.523	29.39
774.701	28.57
774.88	29.19
775.059	28.04
775.238	28.69
775.417	29.1
775.595	29.6
775.774	29.47
775.953	28.82
776.131	27.59
776.31	27.19
776.489	27.2
776.667	27.55
776.846	26.6
777.025	27.49
777.203	27.8
777.382	26.57
777.56	26.12
777.739	26.34
777.917	27.15
778.096	26.96
778.274	26.79
778.453	26.73
778.631	26.54
778.81	26.86
778.988	26.74
779.166	26.33
779.345	27.49
779.523	27.17
779.702	27.15
779.88	27.04
780.058	28.02
780.237	28.17
780.415	28.79
780.593	28.46
780.771	27.91
780.95	28.66
781.128	29.39
781.306	28.64
781.484	28.89
781.662	28.67
781.841	28.74
782.019	28.85
782.197	29.15
782.375	28.86
782.553	30.13
782.731	31.08
782.909	30.17
783.087	29.67
783.265	30.81
783.443	31.43
783.621	31.13
783.799	30.21
783.977	30.09
784.155	29.72
784.333	29.28
784.511	28.94
784.689	28.37
784.867	28.74
785.045	28.39
785.223	27.54
785.4	27.08
785.578	27.57
785.756	27.9
785.934	27.42
786.112	26.9
786.289	27.42
786.467	26.47
786.645	25.94
786.823	25.76
787	25.81
787.178	24.99
787.356	25.69
787.533	25.42
787.711	25.58
787.889	25.57
788.066	27.53
788.244	27.51
788.421	27.49
788.599	27.37
788.776	27.13
788.954	27.74
789.131	28.26
789.309	27.22
789.486	26.85
789.664	27.59
789.841	27.4
790.019	25.39
790.196	24.84
790.373	25.23
790.551	26.22
790.728	25.41
790.906	25.72
791.083	25.72
791.26	26.2
791.437	27.02
791.615	26.25
791.792	25.99
791.969	26.25
792.146	27.69
792.324	28.53
792.501	27.69
792.678	29.37
792.855	28.55
793.032	29.22
793.209	28.84
793.387	29.51
793.564	30.35
793.741	30.44
793.918	30.19
794.095	29.38
794.272	28.64
794.449	29.16
794.626	28.6
794.803	28.41
794.98	27.28
795.157	27.61
795.334	26.2
795.511	25.93
795.688	25.44
795.864	25.74
796.041	25.28
796.218	25.35
796.395	25.1
796.572	24.77
796.749	24.25
796.925	25.14
797.102	24.63
797.279	25.66
797.456	25.45
797.632	26.56
797.809	27.49
797.986	28.36
798.162	28.29
798.339	28.82
798.516	28.71
798.692	29.91
798.869	28.86
799.046	28.67
799.222	29.08
799.399	28.49
799.575	28.19
799.752	28.31
799.928	27.45
800.105	27.46
800.281	27.39
800.458	27.28
800.634	26.62
800.811	27.3
800.987	27.82
801.163	27.75
801.34	27.74
801.516	27.05
801.692	26.07
801.869	25.8
802.045	25.8
802.221	26
802.398	26.9
802.574	26.61
802.75	26.62
802.926	26.66
803.103	26.84
803.279	28.54
803.455	28.26
803.631	27.59
803.807	28.03
803.983	28.22
804.16	27.8
804.336	25.64
804.512	25.43
804.688	27.1
804.864	27.1
805.04	27.05
805.216	24.77
805.392	25.81
805.568	26.51
805.744	24.98
805.92	23.21
806.096	23.69
806.272	25.57
806.448	24.74
806.623	23.1
806.799	23.33
806.975	22.8
807.151	23.23
807.327	23.85
807.503	24.61
807.678	27.73
807.854	29.58
808.03	28.28
808.206	27.78
808.381	29.69
808.557	29.69
808.733	29.33
808.908	28.49
809.084	30.15
809.26	29.02
809.435	27.91
809.611	26.05
809.787	24.76
809.962	25.76
810.138	25.72
810.313	25.02
810.489	24.75
810.664	25.46
810.84	26.51
811.015	25.69
811.191	27.48
811.366	27.2
811.542	26.89
811.717	28.04
811.892	27.86
812.068	26.9
812.243	25.72
812.419	26.45
812.594	26.94
812.769	26.84
812.944	26.13
813.12	24.03
813.295	24.29
813.47	24.65
813.645	25.11
813.821	25.94
813.996	28.04
814.171	28.43
814.346	27.37
814.521	25.82
814.697	25.92
814.872	26.87
815.047	26.48
815.222	26.43
815.397	25.75
815.572	25.85
815.747	24.67
815.922	23.34
816.097	23.4
816.272	24.29
816.447	24.22
816.622	23.46
816.797	23.35
816.972	23.76
817.147	24.14
817.322	24.28
817.496	23.73
817.671	23.99
817.846	23.38
818.021	23.73
818.196	24.06
818.371	25.59
818.545	25.16
818.72	25.65
818.895	26.15
819.069	26.04
819.244	25.61
819.419	24.99
819.594	23.91
819.768	24.14
819.943	24.84
820.117	24.45
820.292	23.86
820.467	24.3
820.641	23.77
820.816	24.19
820.99	24.13
821.165	24.34
821.339	24.49
821.514	25.01
821.688	25.01
821.863	25.03
822.037	25.01
822.212	25
822.386	24.98
822.56	25.09
822.735	24.86
822.909	25.01
823.084	24.94
823.258	24.89
823.432	24.76
823.606	24.98
823.781	24.9
823.955	24.99
824.129	25.04
824.303	24.96
824.478	24.97
824.652	25.18
824.826	24.43
825	24.79
825.174	24.74
825.348	24.91
825.523	24.47
825.697	24.39
825.871	24.22
826.045	23.89
826.219	24.4
826.393	24.22
826.567	24.28
826.741	25.43
826.915	25.47
827.089	25.53
827.263	25.83
827.437	25.83
827.611	25.98
827.784	26.09
827.958	26.26
828.132	25.95
828.306	25.75
828.48	25.78
828.654	25.6
828.827	25.86
829.001	26.05
829.175	25.46
829.349	25.86
829.522	26.01
829.696	26.11
829.87	26.04
830.044	25.93
830.217	27.01
830.391	27.8
830.565	28.05
830.738	28.29
830.912	27.98
831.085	28.24
831.259	27.27
831.432	25.96
831.606	25.57
831.779	25.94
831.953	25.54
832.126	23.97
832.3	22.14
832.473	21.86
832.647	21.21
832.82	21.47
832.994	21.78
833.167	22.36
833.34	23.38
833.514	23.57
833.687	23.91
833.86	24.79
834.034	25.95
834.207	26.2
834.38	26.1
834.553	25.81
834.727	25.01
834.9	25.42
835.073	25.33
835.246	25.36
835.419	25.06
835.593	24.83
835.766	24.48
835.939	23.95
836.112	24.53
836.285	24.29
836.458	24.87
836.631	25.93
836.804	25.22
836.977	25.18
837.15	24.83
837.323	25.18
837.496	25.72
837.669	24.14
837.842	23.08
838.015	21.79
838.188	21.43
838.361	18.61
838.533	19.69
838.706	18.9
838.879	19.01
839.052	18.82
839.225	19.91
839.398	18.04
839.57	21.03
839.743	21.74
839.916	22.79
840.088	23.96
840.261	26.79
840.434	26.95
840.607	27.61
840.779	27.59
840.952	26.84
841.124	26.1
841.297	27.76
841.47	25.29
841.642	26.78
841.815	26.66
841.987	27.12
842.16	26.58
842.332	25.92
842.505	25.73
842.677	27.4
842.85	27.71
843.022	28.32
843.194	27.3
843.367	29.99
843.539	28.06
843.712	24.95
843.884	22.8
844.056	23.84
844.229	22.35
844.401	22.18
844.573	23.05
844.745	24.4
844.918	23.61
845.09	23.96
845.262	25.22
845.434	24.47
845.606	32.43
845.779	34.5
845.951	32.79
846.123	30.38
846.295	29.77
846.467	25.08
846.639	23.55
846.811	24.23
846.983	25.37
847.155	21.57
847.327	24.46
847.499	22.91
847.671	23.24
847.843	22.75
848.015	24.26
848.187	25.87
848.359	32.26
848.531	32.22
848.703	30.77
848.875	31.61
849.047	31.77
849.218	26.72
849.39	24.67
849.562	24.62
849.734	26.81
849.905	29.04
850.077	29.55
850.249	28.34
850.421	30.2
850.592	30.37
850.764	29.19
850.936	26.77
851.107	30.42
851.279	31.4
851.451	32.97
851.622	30.31
851.794	32.08
851.965	31.62
852.137	26.86
852.308	23.73
852.48	25.16
852.651	22.86
852.823	27.16
852.994	29.65
853.166	26.54
853.337	23.67
853.509	21.84
853.68	19.14
853.851	18.28
854.023	23.32
854.194	27.93
854.365	28.84
854.537	32.77
854.708	32.55
854.879	29.46
855.05	28.81
855.222	31.03
855.393	29.07
855.564	28.25
855.735	26.13
855.906	23.06
856.078	21.23
856.249	16.93
856.42	13.14
856.591	10.72
856.762	10.64
856.933	14.62
857.104	12.43
857.275	20.65
857.446	23.39
857.617	26.8
857.788	29.05
857.959	26.93
858.13	31.15
858.301	35.63
858.472	35.49
858.643	34.87
858.814	36.29
858.985	36.5
859.155	29.35
859.326	25.34
859.497	24.69
859.668	22.69
859.839	23.99
860.009	22.32
860.18	22.57
860.351	21.21
860.522	21.33
860.692	17.63
860.863	15.14
861.034	17.39
861.204	16.82
861.375	15.89
861.546	17.88
861.716	15.07
861.887	14.86
862.057	12.83
862.228	14.82
862.398	12.36
862.569	15.33
862.739	19.92
862.91	18.55
863.08	18.44
863.251	17.7
863.421	20.31
863.592	21.44
863.762	24.77
863.932	22.9
864.103	30.5
864.273	33.03
864.443	29.28
864.614	27.15
864.784	29.71
864.954	29.44
865.125	32.16
865.295	31.38
865.465	30.59
865.635	29.56
865.805	31.31
865.976	25.25
866.146	22.9
866.316	23.94
866.486	29.54
866.656	29.4
866.826	32.54
866.996	34.76
867.166	32.99
867.336	35.23
867.506	30.45
867.676	29.73
867.846	30.18
868.016	27.89
868.186	31.38
868.356	22.2
868.526	18.28
868.696	17.93
868.866	17.32
869.036	18.51
869.206	17.86
869.376	25.52
869.545	27.25
869.715	27.08
869.885	26.8
870.055	25.19
870.224	25.25
870.394	29.58
870.564	29.57
870.734	25.93
870.903	22.62
871.073	23.46
871.243	21.95
871.412	22.92
871.582	22.9
871.751	30.2
871.921	29.25
872.091	29.02
872.26	28.09
872.43	28.56
872.599	30.42
872.769	32.82
872.938	35.52
873.108	34.23
873.277	34.18
873.446	34.49
873.616	31.27
873.785	33
873.955	40.55
874.124	35.04
874.293	36.91
874.463	36.36
874.632	38.44
874.801	38.47
874.971	38.74
875.14	36.23
875.309	37.77
875.478	35.78
875.647	34.14
875.817	27.34
875.986	29.41
876.155	26.61
876.324	21.2
876.493	17.39
876.662	12.38
876.831	12.3
877	11.51
877.17	9.34
877.339	10.24
877.508	11.95
877.677	14.86
877.846	19.65
878.015	20.86
878.184	23.58
878.352	24.52
878.521	25.32
878.69	26.94
878.859	29.93
879.028	27.47
879.197	27.39
879.366	29.82
879.534	31.11
879.703	28.1
879.872	27.42
880.041	27.93
880.21	28.26
880.378	28.72
880.547	26.03
880.716	24.71
880.884	26.46
881.053	26.37
881.222	24.76
881.39	23.54
881.559	23.11
881.727	22.87
881.896	22.69
882.065	22.5
882.233	21.57
882.402	21.92
882.57	22.12
882.739	21.39
882.907	20.75
883.076	20.67
883.244	20.53
883.412	21.72
883.581	21.89
883.749	22.29
883.918	22.46
884.086	23.17
884.254	22.54
884.423	22.39
884.591	21.89
884.759	22.66
884.927	22.15
885.096	22.72
885.264	21.96
885.432	21.27
885.6	20.09
885.769	17.08
885.937	15.68
886.105	17.25
886.273	13.83
886.441	15.13
886.609	12.42
886.777	14.18
886.945	13.45
887.113	10.71
887.281	7.59
887.449	11.22
887.617	13.42
887.785	13.73
887.953	13.39
888.121	17.88
888.289	14.55
888.457	19.41
888.625	17.17
888.793	17.84
888.961	18.71
889.129	20.95
889.296	13.33
889.464	14.43
889.632	15.64
889.8	12.3
889.967	10.13
890.135	14.36
