Data from 2938738__Reflection_03.txt Node
Date: Sun Mar 15 18:10:26 EDT 2015
User: robert
Spectrometer: USB4E03002
Autoset integration time: false
Trigger mode: 4
Integration Time (sec): 1.000000E-1
Scans to average: 10
Electric dark correction enabled: false
Nonlinearity correction enabled: false
Boxcar width: 5
Stray light correction enabled: false
XAxis mode: Wavelengths
Stop averaging: false
Number of Pixels in Spectrum: 3648
>>>>>Begin Spectral Data<<<<<
177.575	278.58
177.794	392.87
178.014	467.41
178.233	562.2
178.452	810.48
178.672	765.13
178.891	1022.39
179.11	952.34
179.33	1169.01
179.549	1241.83
179.768	3048.39
179.987	1508.33
180.207	738.87
180.426	661.86
180.645	607.17
180.864	487.32
181.084	593.55
181.303	589.16
181.522	717.51
181.741	710.53
181.96	883.15
182.179	859.86
182.398	1006.23
182.618	1249.32
182.837	1191.56
183.056	1038.07
183.275	1334.2
183.494	888.32
183.713	684.7
183.932	722.4
184.151	843.27
184.37	1057.45
184.589	1658.18
184.808	1295.37
185.027	1060.11
185.246	850.22
185.465	944.8
185.684	939.71
185.903	1064.58
186.122	1454.95
186.341	1669.79
186.56	935.63
186.779	626.72
186.998	559.95
187.216	586.92
187.435	604.36
187.654	725.09
187.873	736.47
188.092	598.74
188.311	599.72
188.53	604.59
188.748	520.84
188.967	508.04
189.186	561.47
189.405	506.19
189.623	580.47
189.842	668.06
190.061	692.5
190.28	693.28
190.498	1561.5
190.717	1364.68
190.936	1250.97
191.154	1363.31
191.373	-18385
191.592	-19180
191.81	-4318.39
192.029	-3980.65
192.248	-2971.07
192.466	-3154.24
192.685	3350.44
192.904	1093.16
193.122	993.8
193.341	1014.25
193.559	914.22
193.778	821.83
193.996	923.33
194.215	799.79
194.433	667.77
194.652	599.85
194.87	525.94
195.089	740.11
195.307	930.18
195.526	1304.58
195.744	1062.92
195.963	1670.33
196.181	5669.86
196.399	2778.38
196.618	2275.14
196.836	2527.44
197.055	4510.75
197.273	3720
197.491	2636.6
197.71	1497.35
197.928	818.16
198.146	859.87
198.365	666.06
198.583	477.78
198.801	587.36
199.019	671.43
199.238	513.96
199.456	560.58
199.674	616.08
199.892	687.55
200.111	657.58
200.329	735.71
200.547	830.75
200.765	1183.59
200.983	880.43
201.202	676.84
201.42	660.1
201.638	2008.06
201.856	1524.29
202.074	2662.96
202.292	2007.03
202.51	3962.37
202.728	15262.5
202.946	-8790.48
203.165	-4338.1
203.383	-2815.75
203.601	-2467.12
203.819	-1781.09
204.037	3074.58
204.255	1764.62
204.473	1677.43
204.691	1027.99
204.909	694.5
205.127	678.97
205.345	452.66
205.562	398.55
205.78	486.03
205.998	459.86
206.216	431.04
206.434	549.3
206.652	522.7
206.87	490.5
207.088	559.55
207.306	685.67
207.523	606.29
207.741	1062.97
207.959	819.89
208.177	598.85
208.395	555.82
208.612	580.73
208.83	595.13
209.048	575.98
209.266	709.12
209.483	730.46
209.701	714.26
209.919	793.87
210.136	530.25
210.354	524.61
210.572	616.62
210.79	478.22
211.007	454.39
211.225	445.81
211.442	557.72
211.66	465.7
211.878	436.1
212.095	369.66
212.313	337.73
212.53	375.25
212.748	357.56
212.966	374.05
213.183	432.17
213.401	395.56
213.618	371.68
213.836	382.55
214.053	409.1
214.271	450.35
214.488	521.75
214.705	606.11
214.923	552.98
215.14	1159.93
215.358	734.12
215.575	848.86
215.793	761.73
216.01	635.15
216.227	470.98
216.445	420.94
216.662	405.32
216.879	429.29
217.097	455.85
217.314	419.39
217.531	371.24
217.749	399.2
217.966	390.59
218.183	401.31
218.4	399.13
218.618	456.29
218.835	412.23
219.052	389.01
219.269	361.9
219.487	332.03
219.704	359.07
219.921	348.73
220.138	355.92
220.355	322.01
220.572	319.97
220.79	333.65
221.007	315.74
221.224	321.54
221.441	327.53
221.658	289.55
221.875	267.34
222.092	275.16
222.309	256.64
222.526	220.09
222.743	205.49
222.96	199.07
223.177	172.64
223.394	161.5
223.611	168.3
223.828	147.71
224.045	150.12
224.262	142.2
224.479	129.9
224.696	129.44
224.913	125.39
225.13	122.44
225.347	119.88
225.564	124.06
225.781	115.19
225.997	105.09
226.214	108.17
226.431	102.24
226.648	96.09
226.865	82.85
227.082	72.05
227.298	65.41
227.515	56.9
227.732	49.13
227.949	41.98
228.165	37.89
228.382	36.04
228.599	32.85
228.816	30.43
229.032	28.27
229.249	27.68
229.466	27.08
229.682	26.43
229.899	26.66
230.116	26.86
230.332	28.48
230.549	29.5
230.765	30.35
230.982	32.48
231.199	33.31
231.415	36.32
231.632	37.82
231.848	40.04
232.065	42.81
232.281	44.98
232.498	47.72
232.714	48.58
232.931	51.05
233.147	50.41
233.364	48.76
233.58	50.08
233.797	50.97
234.013	53.02
234.23	52.33
234.446	50.04
234.662	48.31
234.879	47.96
235.095	48.78
235.312	49.25
235.528	51.99
235.744	53.53
235.961	53.08
236.177	50.31
236.393	50.13
236.61	52.16
236.826	53.66
237.042	56.9
237.258	56.84
237.475	56.99
237.691	55.6
237.907	52.96
238.123	52.26
238.339	52.48
238.556	52.89
238.772	50.15
238.988	48.22
239.204	48.54
239.42	44.88
239.636	42.38
239.853	38.43
240.069	35.83
240.285	33.36
240.501	29.73
240.717	27.97
240.933	25.3
241.149	23.92
241.365	21.52
241.581	19.21
241.797	18.74
242.013	18.16
242.229	18.08
242.445	17.66
242.661	17.35
242.877	18.26
243.093	17.82
243.309	18.19
243.525	18.86
243.741	20.33
243.957	22.17
244.173	22.73
244.388	23.28
244.604	23.62
244.82	24.95
245.036	25.14
245.252	23.39
245.468	22.13
245.683	20.85
245.899	18.9
246.115	17.06
246.331	15.34
246.547	14.52
246.762	14.02
246.978	13.46
247.194	12.54
247.409	12.45
247.625	12.45
247.841	12.25
248.057	12.5
248.272	12.96
248.488	13.14
248.703	13.45
248.919	13.78
249.135	14.1
249.35	15.03
249.566	16.06
249.782	16.61
249.997	17.89
250.213	19.71
250.428	20.45
250.644	21.63
250.859	23.74
251.075	24.19
251.29	24.2
251.506	24.33
251.721	23.74
251.937	23.4
252.152	23.21
252.368	22.89
252.583	22.86
252.798	22.96
253.014	22.78
253.229	22.76
253.445	23.35
253.66	24.49
253.875	25.33
254.091	26.7
254.306	27.71
254.521	28.4
254.737	28.64
254.952	28.98
255.167	29.89
255.383	29.97
255.598	29.77
255.813	29.72
256.028	27.93
256.244	27.49
256.459	27.01
256.674	25.38
256.889	24.89
257.104	24.37
257.32	23.7
257.535	22.35
257.75	20.42
257.965	18.77
258.18	17.45
258.395	17.03
258.61	15.6
258.826	14.01
259.041	13.71
259.256	13.26
259.471	12.88
259.686	12.44
259.901	12.1
260.116	11.88
260.331	11.69
260.546	11.86
260.761	11.65
260.976	11.63
261.191	12.1
261.406	12.06
261.621	12.17
261.836	12.27
262.05	12.43
262.265	12.4
262.48	13.39
262.695	13.69
262.91	14.04
263.125	15.09
263.34	16.09
263.555	16.55
263.769	17.14
263.984	17.94
264.199	18.28
264.414	18.94
264.629	20.19
264.843	19.9
265.058	19.67
265.273	18.75
265.488	18.51
265.702	17.69
265.917	17.27
266.132	17.8
266.346	16.82
266.561	17
266.776	16.19
266.99	15.35
267.205	15.33
267.42	15.8
267.634	15.68
267.849	15.3
268.063	15.28
268.278	15.51
268.492	14.92
268.707	15.47
268.922	15.34
269.136	15.57
269.351	15.89
269.565	15.39
269.78	15.16
269.994	15.31
270.209	15.5
270.423	15.69
270.637	15.08
270.852	15.54
271.066	14.91
271.281	14.95
271.495	14.85
271.709	14.47
271.924	14.58
272.138	14
272.353	14.28
272.567	14.11
272.781	14.14
272.996	14.23
273.21	13.86
273.424	14.03
273.638	13.69
273.853	13.7
274.067	13.93
274.281	14.81
274.495	15.54
274.71	15.62
274.924	15.55
275.138	15.19
275.352	15.15
275.566	15.79
275.781	15.88
275.995	15.52
276.209	15.17
276.423	14.99
276.637	14.43
276.851	14.81
277.065	13.97
277.279	14.04
277.493	14.52
277.707	14.55
277.921	13.92
278.135	13.42
278.349	13.66
278.563	14.19
278.777	14.53
278.991	14.43
279.205	13.59
279.419	14.1
279.633	14.39
279.847	14.14
280.061	13.77
280.275	13.55
280.489	14.12
280.703	13.9
280.917	14.05
281.131	13.84
281.344	14.07
281.558	13.94
281.772	13.47
281.986	12.91
282.2	12.61
282.414	12.53
282.627	12.31
282.841	11.62
283.055	12.03
283.269	11.75
283.482	11.55
283.696	11.22
283.91	11.31
284.123	11.17
284.337	11.14
284.551	11.01
284.764	11.14
284.978	11.3
285.192	11.36
285.405	10.97
285.619	10.35
285.833	10.07
286.046	9.82
286.26	9.79
286.473	10.13
286.687	10.28
286.9	10.09
287.114	10.28
287.327	10.45
287.541	10.74
287.754	11.16
287.968	11.89
288.181	12.17
288.395	12.24
288.608	12.06
288.822	11.67
289.035	11.66
289.248	12.13
289.462	11.94
289.675	11.59
289.889	11.43
290.102	11.1
290.315	10.57
290.529	10.77
290.742	10.71
290.955	11.16
291.169	10.91
291.382	10.7
291.595	10.7
291.808	10.82
292.022	11.12
292.235	11.36
292.448	11.88
292.661	12.05
292.875	11.93
293.088	12.36
293.301	12.43
293.514	13.04
293.727	13.32
293.94	13.39
294.153	13.41
294.367	12.88
294.58	12.39
294.793	12.1
295.006	12.27
295.219	11.77
295.432	11.43
295.645	11.09
295.858	11.06
296.071	10.76
296.284	10.64
296.497	10.56
296.71	10.72
296.923	10.96
297.136	10.61
297.349	10.36
297.562	10.69
297.775	10.91
297.988	10.97
298.201	10.92
298.414	11.13
298.626	11.32
298.839	11.35
299.052	11.24
299.265	11.52
299.478	12.03
299.691	12.72
299.903	13
300.116	13.03
300.329	13.22
300.542	13.02
300.755	13.13
300.967	13.17
301.18	13.39
301.393	14.06
301.605	14.22
301.818	14.27
302.031	14.01
302.243	14.07
302.456	13.89
302.669	13.8
302.881	14.1
303.094	14.11
303.307	13.85
303.519	13.75
303.732	13.37
303.944	12.74
304.157	12.71
304.37	12.84
304.582	12.73
304.795	13.08
305.007	13.34
305.22	13.63
305.432	13.92
305.645	14.21
305.857	14.68
306.069	15.09
306.282	15.61
306.494	15.59
306.707	15.53
306.919	15.41
307.132	15.21
307.344	15.08
307.556	15.42
307.769	15.22
307.981	14.9
308.193	14.17
308.406	13.81
308.618	13.77
308.83	13.75
309.043	13.63
309.255	13.6
309.467	13.73
309.679	13.53
309.892	13.1
310.104	13.14
310.316	13.22
310.528	13.32
310.74	13.28
310.953	12.74
311.165	12.62
311.377	12.91
311.589	13.22
311.801	13.33
312.013	12.95
312.225	12.98
312.437	13.05
312.649	13.42
312.862	13.68
313.074	13.66
313.286	14.38
313.498	14.48
313.71	14.62
313.922	14.32
314.134	14.32
314.346	15.46
314.558	15.83
314.77	15.71
314.982	15.48
315.193	15.38
315.405	15.83
315.617	15.82
315.829	16.23
316.041	16.42
316.253	16.52
316.465	16.87
316.677	16.49
316.888	16.52
317.1	17.01
317.312	17.37
317.524	17.38
317.736	17.48
317.947	17.73
318.159	17.97
318.371	17.52
318.583	18.17
318.794	18.04
319.006	17.93
319.218	18.11
319.43	17.71
319.641	17.63
319.853	18.38
320.064	18.81
320.276	19.22
320.488	19.47
320.699	20
320.911	19.91
321.123	19.97
321.334	20.62
321.546	20.01
321.757	20.25
321.969	20.61
322.18	20.24
322.392	19.97
322.603	18.91
322.815	18.07
323.026	17.36
323.238	17.4
323.449	17.58
323.661	16.87
323.872	17.6
324.083	17.37
324.295	16.76
324.506	16.42
324.718	16.03
324.929	16.22
325.14	16.5
325.352	16.6
325.563	16.54
325.774	16.2
325.986	16.65
326.197	16.49
326.408	16.67
326.62	16.76
326.831	16.87
327.042	17.18
327.253	17.31
327.464	17.46
327.676	17.93
327.887	17.56
328.098	17.55
328.309	17.68
328.52	17.59
328.732	17.4
328.943	17.64
329.154	18.06
329.365	18.11
329.576	18.35
329.787	18.05
329.998	17.89
330.209	18.42
330.42	18.85
330.631	18.58
330.842	18.87
331.053	19.04
331.264	18.8
331.475	18.67
331.686	18.66
331.897	18.41
332.108	18.6
332.319	18.22
332.53	17.8
332.741	17.34
332.952	17.38
333.163	17.11
333.374	17.26
333.585	17.24
333.795	17.31
334.006	17.26
334.217	17.1
334.428	17.27
334.639	17.74
334.849	17.9
335.06	17.89
335.271	17.96
335.482	18.22
335.692	18.25
335.903	18.18
336.114	18.1
336.325	18.22
336.535	18.27
336.746	18.15
336.957	17.88
337.167	17.8
337.378	18.14
337.589	18.1
337.799	18
338.01	18.15
338.22	18.32
338.431	18.04
338.642	17.93
338.852	17.97
339.063	17.92
339.273	18.02
339.484	18.1
339.694	17.86
339.905	17.93
340.115	17.58
340.326	16.89
340.536	16.65
340.746	16.97
340.957	16.66
341.167	16.68
341.378	16.68
341.588	16.83
341.799	16.84
342.009	16.93
342.219	16.66
342.43	16.6
342.64	16.76
342.85	16.79
343.061	16.28
343.271	16.38
343.481	16.35
343.691	16.18
343.902	15.38
344.112	15.37
344.322	14.78
344.532	14.61
344.743	14.49
344.953	14.63
345.163	14.69
345.373	14.96
345.583	14.91
345.793	14.87
346.004	14.95
346.214	15.33
346.424	15.4
346.634	15.53
346.844	15.93
347.054	16.37
347.264	16.37
347.474	16.75
347.684	16.74
347.894	16.58
348.104	16.76
348.314	16.61
348.524	16.46
348.734	16.2
348.944	16.32
349.154	16.06
349.364	16.07
349.574	15.94
349.784	15.47
349.994	15.58
350.204	15.6
350.413	15.26
350.623	15.31
350.833	15.41
351.043	15.2
351.253	15.51
351.463	15.57
351.672	15.12
351.882	14.85
352.092	15.13
352.302	15.04
352.511	15.09
352.721	15.12
352.931	15.14
353.141	15.04
353.35	15.09
353.56	14.69
353.77	14.58
353.979	14.69
354.189	14.97
354.399	14.55
354.608	14.18
354.818	14.27
355.027	14.19
355.237	14.1
355.447	14.1
355.656	14.17
355.866	13.91
356.075	13.77
356.285	13.92
356.494	13.73
356.704	13.77
356.913	14.05
357.123	13.91
357.332	13.85
357.542	13.65
357.751	13.89
357.96	13.77
358.17	14.11
358.379	14.3
358.589	14.15
358.798	14.07
359.007	14.23
359.217	14.02
359.426	13.8
359.635	13.82
359.845	13.71
360.054	13.33
360.263	13.24
360.472	12.97
360.682	12.59
360.891	12.51
361.1	12.4
361.309	12.11
361.519	12.14
361.728	12
361.937	11.89
362.146	11.83
362.355	11.85
362.564	11.75
362.774	11.86
362.983	12.07
363.192	12.02
363.401	11.95
363.61	12.01
363.819	12.05
364.028	12.53
364.237	12.5
364.446	12.61
364.655	12.57
364.864	12.67
365.073	12.47
365.282	12.25
365.491	12.14
365.7	12.46
365.909	12.78
366.118	12.85
366.327	12.52
366.536	12.59
366.745	12.78
366.954	13.1
367.162	13.1
367.371	13.3
367.58	13.47
367.789	13.79
367.998	13.91
368.207	13.78
368.415	13.79
368.624	13.96
368.833	13.98
369.042	14.09
369.25	13.67
369.459	14.03
369.668	13.85
369.877	13.49
370.085	13.37
370.294	13.34
370.503	13.43
370.711	13.27
370.92	13.03
371.129	12.94
371.337	12.37
371.546	12.21
371.754	11.99
371.963	12.06
372.171	12.4
372.38	12.35
372.589	12.31
372.797	12.21
373.006	12.23
373.214	12.26
373.423	12.24
373.631	12.51
373.84	12.6
374.048	12.35
374.256	12.51
374.465	12.53
374.673	12.46
374.882	12.18
375.09	11.89
375.298	11.79
375.507	11.7
375.715	11.93
375.923	11.9
376.132	11.99
376.34	11.89
376.548	11.74
376.757	11.33
376.965	11.23
377.173	11.16
377.381	11.13
377.59	11.1
377.798	11.27
378.006	10.82
378.214	10.9
378.423	10.85
378.631	10.97
378.839	10.95
379.047	11.07
379.255	10.88
379.463	10.78
379.671	10.42
379.879	10.26
380.088	10.22
380.296	10.34
380.504	10.24
380.712	10.56
380.92	10.44
381.128	10.45
381.336	10.55
381.544	10.75
381.752	10.84
381.96	11.27
382.168	11.35
382.376	11.28
382.584	11.33
382.791	11.48
382.999	11.16
383.207	11.31
383.415	11.35
383.623	11.29
383.831	11.09
384.039	11.04
384.247	10.8
384.454	10.91
384.662	10.76
384.87	10.63
385.078	10.37
385.285	10.42
385.493	10.54
385.701	10.31
385.909	10.31
386.116	10.29
386.324	10.28
386.532	10.26
386.739	10.11
386.947	10.08
387.155	10.4
387.362	10.53
387.57	10.23
387.778	9.8
387.985	9.66
388.193	9.61
388.4	9.66
388.608	9.86
388.816	9.93
389.023	9.95
389.231	9.95
389.438	9.57
389.646	9.28
389.853	9.35
390.061	9.23
390.268	9.45
390.475	9.16
390.683	9.2
390.89	8.95
391.098	8.76
391.305	8.69
391.512	8.64
391.72	8.8
391.927	8.87
392.135	8.72
392.342	8.96
392.549	8.94
392.756	8.95
392.964	8.75
393.171	8.78
393.378	8.88
393.586	8.77
393.793	8.94
394	8.89
394.207	8.86
394.414	9.06
394.622	8.96
394.829	8.89
395.036	9.03
395.243	9.13
395.45	9.05
395.657	9.03
395.864	9.15
396.072	8.86
396.279	8.6
396.486	8.82
396.693	8.78
396.9	8.79
397.107	8.78
397.314	9.12
397.521	9.11
397.728	9.18
397.935	9.33
398.142	9.07
398.349	9.09
398.556	9.43
398.763	9.26
398.97	9.29
399.177	9.14
399.383	9.11
399.59	8.69
399.797	8.61
400.004	8.59
400.211	8.44
400.418	8.7
400.625	8.86
400.831	8.64
401.038	8.62
401.245	8.63
401.452	8.8
401.658	8.73
401.865	8.66
402.072	8.63
402.279	8.54
402.485	8.54
402.692	8.39
402.899	8.24
403.105	8.17
403.312	7.9
403.519	7.82
403.725	7.52
403.932	7.38
404.138	7.44
404.345	7.57
404.552	7.39
404.758	7.29
404.965	7.24
405.171	7.26
405.378	7.33
405.584	7.45
405.791	7.44
405.997	7.64
406.204	7.92
406.41	7.8
406.617	7.62
406.823	7.8
407.029	8.05
407.236	8.25
407.442	8.29
407.649	8.21
407.855	8.24
408.061	8.28
408.268	8.25
408.474	7.96
408.68	8.1
408.887	8.18
409.093	8.16
409.299	8.02
409.505	7.75
409.712	7.61
409.918	7.51
410.124	7.48
410.33	7.41
410.537	7.48
410.743	7.55
410.949	7.32
411.155	7.42
411.361	7.24
411.567	7.18
411.773	7.3
411.98	7.18
412.186	7.29
412.392	7.47
412.598	7.34
412.804	7.39
413.01	7.36
413.216	7.49
413.422	7.54
413.628	7.63
413.834	7.37
414.04	7.28
414.246	7.42
414.452	7.47
414.658	7.13
414.864	7.17
415.07	7.13
415.275	6.98
415.481	7.1
415.687	6.69
415.893	6.65
416.099	6.71
416.305	6.53
416.511	6.43
416.716	6.28
416.922	6.41
417.128	6.48
417.334	6.34
417.539	6.31
417.745	6.1
417.951	6.15
418.157	6.07
418.362	5.99
418.568	5.95
418.774	5.81
418.979	5.73
419.185	5.61
419.391	5.35
419.596	5.29
419.802	5.33
420.008	5.38
420.213	5.48
420.419	5.59
420.624	5.64
420.83	5.68
421.035	5.67
421.241	5.67
421.446	5.61
421.652	5.63
421.857	5.59
422.063	5.51
422.268	5.43
422.474	5.28
422.679	5.17
422.885	5.17
423.09	5.13
423.295	5.2
423.501	5.2
423.706	5.19
423.911	5.22
424.117	5.28
424.322	5.29
424.527	5.32
424.733	5.35
424.938	5.3
425.143	5.33
425.349	5.33
425.554	5.36
425.759	5.44
425.964	5.5
426.169	5.53
426.375	5.51
426.58	5.53
426.785	5.63
426.99	5.64
427.195	5.71
427.4	5.63
427.605	5.71
427.811	5.7
428.016	5.63
428.221	5.58
428.426	5.64
428.631	5.54
428.836	5.54
429.041	5.58
429.246	5.73
429.451	5.67
429.656	5.82
429.861	5.84
430.066	5.9
430.271	5.89
430.476	5.96
430.681	6
430.886	6.08
431.09	6.17
431.295	6.01
431.5	5.82
431.705	5.82
431.91	5.66
432.115	5.51
432.32	5.43
432.524	5.45
432.729	5.44
432.934	5.38
433.139	5.38
433.343	5.31
433.548	5.32
433.753	5.47
433.958	5.58
434.162	5.64
434.367	5.7
434.572	5.62
434.776	5.63
434.981	5.64
435.186	5.65
435.39	5.68
435.595	5.81
435.799	5.77
436.004	5.59
436.209	5.53
436.413	5.41
436.618	5.39
436.822	5.44
437.027	5.47
437.231	5.42
437.436	5.3
437.64	5.34
437.845	5.18
438.049	5.11
438.253	5.2
438.458	5.25
438.662	5.27
438.867	5.27
439.071	5.27
439.275	5.24
439.48	5.22
439.684	5.19
439.888	5.12
440.093	5.1
440.297	5.09
440.501	5.09
440.706	5
440.91	5.04
441.114	5.01
441.318	4.96
441.523	4.87
441.727	4.89
441.931	4.92
442.135	4.94
442.339	5.01
442.543	5.1
442.748	4.97
442.952	4.95
443.156	4.88
443.36	4.91
443.564	4.97
443.768	5.04
443.972	5
444.176	5.03
444.38	4.98
444.584	5
444.788	5
444.992	5.02
445.196	4.98
445.4	4.91
445.604	4.87
445.808	4.83
446.012	4.76
446.216	4.68
446.42	4.63
446.624	4.65
446.828	4.62
447.032	4.57
447.235	4.56
447.439	4.62
447.643	4.63
447.847	4.71
448.051	4.84
448.254	4.89
448.458	5.05
448.662	5.12
448.866	5.04
449.069	5.1
449.273	5.08
449.477	5.12
449.681	5.14
449.884	5.3
450.088	5.38
450.292	5.25
450.495	5.28
450.699	5.13
450.902	5.19
451.106	5.33
451.31	5.36
451.513	5.52
451.717	5.56
451.92	5.63
452.124	5.61
452.327	5.48
452.531	5.53
452.734	5.52
452.938	5.65
453.141	5.62
453.345	5.61
453.548	5.64
453.752	5.61
453.955	5.72
454.158	5.61
454.362	5.56
454.565	5.54
454.769	5.61
454.972	5.53
455.175	5.53
455.379	5.6
455.582	5.65
455.785	5.53
455.988	5.53
456.192	5.36
456.395	5.26
456.598	5.27
456.801	5.37
457.005	5.34
457.208	5.46
457.411	5.36
457.614	5.15
457.817	4.99
458.021	4.99
458.224	4.99
458.427	4.94
458.63	4.99
458.833	4.97
459.036	4.82
459.239	4.75
459.442	4.75
459.645	4.76
459.848	4.75
460.051	4.79
460.254	4.77
460.457	4.62
460.66	4.68
460.863	4.68
461.066	4.62
461.269	4.68
461.472	4.79
461.675	4.82
461.878	4.89
462.081	4.99
462.284	4.93
462.486	4.83
462.689	5
462.892	5.03
463.095	5.14
463.298	5.39
463.5	5.46
463.703	5.38
463.906	5.36
464.109	5.29
464.311	5.27
464.514	5.42
464.717	5.69
464.92	5.68
465.122	5.87
465.325	5.89
465.528	5.82
465.73	5.84
465.933	5.69
466.135	5.62
466.338	5.61
466.541	5.61
466.743	5.58
466.946	5.52
467.148	5.55
467.351	5.39
467.553	5.23
467.756	5.2
467.958	5.16
468.161	5.3
468.363	5.37
468.566	5.44
468.768	5.4
468.971	5.46
469.173	5.34
469.375	5.25
469.578	5.36
469.78	5.39
469.983	5.3
470.185	5.43
470.387	5.54
470.59	5.57
470.792	5.63
470.994	5.65
471.196	5.64
471.399	5.71
471.601	5.71
471.803	5.61
472.005	5.68
472.208	5.77
472.41	5.62
472.612	5.48
472.814	5.36
473.016	5.3
473.218	5.31
473.421	5.23
473.623	5.34
473.825	5.51
474.027	5.59
474.229	5.54
474.431	5.47
474.633	5.36
474.835	5.33
475.037	5.42
475.239	5.4
475.441	5.41
475.643	5.38
475.845	5.37
476.047	5.21
476.249	5.14
476.451	5.2
476.653	5.15
476.855	5.26
477.057	5.31
477.258	5.16
477.46	5.14
477.662	5.14
477.864	5.18
478.066	5.11
478.268	5.14
478.469	5.11
478.671	5.1
478.873	5.17
479.075	5.13
479.276	5.02
479.478	5.1
479.68	5.01
479.882	4.95
480.083	4.99
480.285	4.93
480.487	4.93
480.688	4.87
480.89	4.76
481.091	4.65
481.293	4.6
481.495	4.54
481.696	4.47
481.898	4.33
482.099	4.22
482.301	4.11
482.502	4.03
482.704	3.92
482.905	3.85
483.107	3.76
483.308	3.73
483.51	3.69
483.711	3.66
483.913	3.6
484.114	3.65
484.315	3.66
484.517	3.65
484.718	3.59
484.92	3.59
485.121	3.6
485.322	3.64
485.524	3.64
485.725	3.67
485.926	3.66
486.127	3.67
486.329	3.62
486.53	3.59
486.731	3.58
486.932	3.68
487.134	3.69
487.335	3.69
487.536	3.7
487.737	3.7
487.938	3.64
488.139	3.67
488.341	3.71
488.542	3.74
488.743	3.76
488.944	3.81
489.145	3.77
489.346	3.77
489.547	3.79
489.748	3.8
489.949	3.81
490.15	3.86
490.351	3.89
490.552	3.85
490.753	3.84
490.954	3.86
491.155	3.85
491.356	3.88
491.557	3.88
491.758	3.89
491.959	3.95
492.159	3.98
492.36	3.98
492.561	3.99
492.762	4.04
492.963	4.13
493.164	4.19
493.364	4.26
493.565	4.29
493.766	4.38
493.967	4.37
494.167	4.36
494.368	4.41
494.569	4.49
494.769	4.55
494.97	4.63
495.171	4.63
495.371	4.68
495.572	4.67
495.773	4.72
495.973	4.76
496.174	4.87
496.375	4.89
496.575	4.94
496.776	4.99
496.976	4.93
497.177	4.95
497.377	4.95
497.578	4.93
497.778	4.93
497.979	4.94
498.179	4.9
498.38	4.84
498.58	4.96
498.78	4.97
498.981	4.97
499.181	5.14
499.382	5.17
499.582	5.15
499.782	5.2
499.983	5.26
500.183	5.32
500.383	5.33
500.584	5.46
500.784	5.44
500.984	5.5
501.184	5.55
501.385	5.56
501.585	5.66
501.785	5.73
501.985	5.75
502.185	5.75
502.386	5.63
502.586	5.72
502.786	5.68
502.986	5.62
503.186	5.6
503.386	5.61
503.586	5.58
503.786	5.46
503.987	5.43
504.187	5.4
504.387	5.47
504.587	5.55
504.787	5.63
504.987	5.67
505.187	5.67
505.387	5.69
505.587	5.71
505.786	5.74
505.986	5.82
506.186	5.96
506.386	6.02
506.586	5.98
506.786	6.04
506.986	5.97
507.186	6.05
507.386	6.07
507.585	6.07
507.785	6.01
507.985	5.94
508.185	5.93
508.384	5.89
508.584	5.84
508.784	5.86
508.984	5.98
509.183	6.11
509.383	6.12
509.583	6.13
509.782	6.21
509.982	6.29
510.182	6.34
510.381	6.38
510.581	6.44
510.781	6.59
510.98	6.68
511.18	6.63
511.379	6.56
511.579	6.45
511.778	6.48
511.978	6.39
512.177	6.47
512.377	6.53
512.576	6.58
512.776	6.63
512.975	6.64
513.175	6.66
513.374	6.75
513.573	6.86
513.773	7.06
513.972	7.2
514.172	7.36
514.371	7.41
514.57	7.41
514.77	7.34
514.969	7.36
515.168	7.38
515.367	7.45
515.567	7.44
515.766	7.34
515.965	7.36
516.164	7.34
516.364	7.4
516.563	7.36
516.762	7.38
516.961	7.51
517.16	7.55
517.359	7.59
517.559	7.71
517.758	7.79
517.957	7.94
518.156	7.91
518.355	7.96
518.554	7.96
518.753	8.06
518.952	8.13
519.151	8.14
519.35	8.27
519.549	8.32
519.748	8.22
519.947	8.28
520.146	8.28
520.345	8.37
520.544	8.42
520.743	8.49
520.942	8.49
521.141	8.65
521.339	8.73
521.538	8.72
521.737	8.78
521.936	8.97
522.135	8.93
522.333	9.07
522.532	9.13
522.731	9.22
522.93	9.27
523.129	9.36
523.327	9.38
523.526	9.43
523.725	9.51
523.923	9.56
524.122	9.51
524.321	9.59
524.519	9.61
524.718	9.63
524.917	9.71
525.115	9.79
525.314	9.86
525.512	9.84
525.711	9.87
525.909	9.92
526.108	9.86
526.306	9.89
526.505	9.89
526.703	9.89
526.902	9.9
527.1	9.88
527.299	9.86
527.497	9.84
527.696	9.88
527.894	9.86
528.092	9.8
528.291	9.85
528.489	9.85
528.688	9.87
528.886	9.88
529.084	9.93
529.283	9.95
529.481	10.02
529.679	10.08
529.877	10.09
530.076	10.17
530.274	10.28
530.472	10.41
530.67	10.55
530.869	10.62
531.067	10.77
531.265	10.82
531.463	10.91
531.661	10.92
531.859	10.97
532.057	11.07
532.255	11.11
532.454	11.1
532.652	11.09
532.85	11.07
533.048	11.13
533.246	11.12
533.444	11.15
533.642	11.16
533.84	11.23
534.038	11.25
534.236	11.29
534.434	11.36
534.632	11.52
534.83	11.55
535.027	11.66
535.225	11.7
535.423	11.77
535.621	11.91
535.819	11.99
536.017	12.06
536.215	12.16
536.412	12.25
536.61	12.33
536.808	12.3
537.006	12.33
537.203	12.39
537.401	12.44
537.599	12.47
537.797	12.47
537.994	12.45
538.192	12.49
538.39	12.59
538.587	12.58
538.785	12.59
538.983	12.66
539.18	12.71
539.378	12.71
539.575	12.75
539.773	12.8
539.97	12.76
540.168	12.81
540.366	12.83
540.563	12.81
540.761	12.79
540.958	12.76
541.155	12.73
541.353	12.77
541.55	12.78
541.748	12.81
541.945	12.79
542.143	12.83
542.34	12.86
542.537	12.88
542.735	12.89
542.932	12.98
543.129	13.01
543.327	13.17
543.524	13.23
543.721	13.32
543.919	13.35
544.116	13.54
544.313	13.68
544.51	13.8
544.708	13.83
544.905	13.9
545.102	13.97
545.299	14.14
545.496	14.18
545.693	14.18
545.891	14.25
546.088	14.37
546.285	14.39
546.482	14.39
546.679	14.4
546.876	14.55
547.073	14.63
547.27	14.65
547.467	14.76
547.664	14.79
547.861	14.91
548.058	15.01
548.255	15.11
548.452	15.08
548.649	15.23
548.846	15.31
549.043	15.25
549.24	15.4
549.437	15.51
549.633	15.45
549.83	15.49
550.027	15.51
550.224	15.48
550.421	15.4
550.618	15.42
550.814	15.25
551.011	15.2
551.208	15.32
551.405	15.27
551.601	15.23
551.798	15.38
551.995	15.45
552.191	15.45
552.388	15.41
552.585	15.42
552.781	15.52
552.978	15.64
553.175	15.76
553.371	15.78
553.568	15.8
553.764	15.82
553.961	15.76
554.157	15.82
554.354	15.74
554.55	15.89
554.747	15.94
554.943	15.96
555.14	16.01
555.336	15.96
555.533	16
555.729	16
555.926	16.14
556.122	16.07
556.318	16.02
556.515	16.36
556.711	16.42
556.907	16.41
557.104	16.46
557.3	16.43
557.496	16.52
557.693	16.55
557.889	16.66
558.085	16.53
558.281	16.7
558.478	16.7
558.674	16.51
558.87	16.47
559.066	16.67
559.262	16.72
559.459	16.68
559.655	16.69
559.851	16.65
560.047	16.65
560.243	16.78
560.439	16.72
560.635	16.9
560.831	16.91
561.027	16.89
561.223	16.68
561.419	16.7
561.615	16.72
561.811	16.72
562.007	16.61
562.203	16.64
562.399	16.56
562.595	16.45
562.791	16.37
562.987	16.53
563.183	16.52
563.379	16.69
563.575	16.66
563.771	16.76
563.966	16.92
564.162	17.13
564.358	17.05
564.554	17.02
564.75	17.09
564.945	17.19
565.141	17.13
565.337	17.15
565.533	17.07
565.728	17.08
565.924	16.98
566.12	16.86
566.315	16.87
566.511	16.87
566.707	17.04
566.902	17.06
567.098	17.02
567.293	17
567.489	17.05
567.684	17.17
567.88	17.18
568.076	17.36
568.271	17.41
568.467	17.4
568.662	17.41
568.858	17.23
569.053	17.22
569.248	17.24
569.444	17.25
569.639	17.21
569.835	17.14
570.03	17.15
570.225	17.11
570.421	17.25
570.616	17.22
570.812	17.25
571.007	17.37
571.202	17.39
571.397	17.31
571.593	17.32
571.788	17.4
571.983	17.39
572.178	17.42
572.374	17.52
572.569	17.26
572.764	17.38
572.959	17.33
573.154	17.32
573.35	17.39
573.545	17.52
573.74	17.63
573.935	17.63
574.13	17.7
574.325	17.69
574.52	17.7
574.715	17.92
574.91	17.92
575.105	17.97
575.3	17.96
575.495	17.93
575.69	17.98
575.885	17.87
576.08	17.94
576.275	17.97
576.47	17.98
576.665	17.94
576.86	17.99
577.055	17.87
577.25	17.93
577.444	18.16
577.639	18.35
577.834	18.37
578.029	18.42
578.224	18.43
578.418	18.52
578.613	18.7
578.808	18.83
579.003	18.7
579.197	18.87
579.392	19.1
579.587	19.12
579.781	19.08
579.976	19.13
580.171	19.2
580.365	19.06
580.56	18.99
580.755	18.93
580.949	18.89
581.144	19.09
581.338	19.12
581.533	19.03
581.727	18.92
581.922	19.19
582.116	19.18
582.311	19.28
582.505	19.65
582.7	19.7
582.894	19.69
583.089	19.69
583.283	19.66
583.478	19.61
583.672	19.59
583.866	19.65
584.061	19.41
584.255	19.4
584.449	19.38
584.644	19.13
584.838	19.3
585.032	19.5
585.226	19.59
585.421	19.65
585.615	19.81
585.809	19.83
586.003	19.8
586.198	19.9
586.392	19.87
586.586	19.88
586.78	19.98
586.974	19.92
587.168	19.91
587.363	19.89
587.557	19.85
587.751	19.8
587.945	19.72
588.139	19.69
588.333	19.66
588.527	19.78
588.721	19.74
588.915	19.65
589.109	19.51
589.303	19.5
589.497	19.42
589.691	19.54
589.885	19.61
590.079	19.72
590.273	19.67
590.466	19.61
590.66	19.47
590.854	19.61
591.048	19.62
591.242	19.68
591.436	19.59
591.629	19.7
591.823	19.63
592.017	19.45
592.211	19.48
592.404	19.61
592.598	19.64
592.792	19.66
592.986	19.59
593.179	19.65
593.373	19.72
593.567	19.68
593.76	19.5
593.954	19.56
594.147	19.62
594.341	19.65
594.535	19.65
594.728	19.62
594.922	19.62
595.115	19.57
595.309	19.56
595.502	19.66
595.696	19.61
595.889	19.63
596.083	19.62
596.276	19.68
596.47	19.62
596.663	19.47
596.856	19.49
597.05	19.57
597.243	19.63
597.437	19.62
597.63	19.54
597.823	19.62
598.017	19.74
598.21	19.85
598.403	19.82
598.596	19.94
598.79	20.22
598.983	20.34
599.176	20.43
599.369	20.47
599.563	20.57
599.756	20.64
599.949	20.8
600.142	20.87
600.335	20.64
600.528	20.66
600.722	20.55
600.915	20.48
601.108	20.51
601.301	20.42
601.494	20.42
601.687	20.36
601.88	20.13
602.073	20.18
602.266	20.07
602.459	20.21
602.652	20.18
602.845	20.19
603.038	20.14
603.231	20.06
603.424	19.95
603.617	19.85
603.809	19.84
604.002	19.85
604.195	19.78
604.388	19.74
604.581	19.63
604.774	19.68
604.966	19.63
605.159	19.64
605.352	19.53
605.545	19.57
605.737	19.69
605.93	19.73
606.123	19.8
606.316	19.63
606.508	19.83
606.701	20.05
606.894	20.06
607.086	20.06
607.279	20.22
607.471	20.38
607.664	20.49
607.857	20.58
608.049	20.66
608.242	20.84
608.434	21.07
608.627	21.14
608.819	21.03
609.012	21.15
609.204	21.43
609.397	21.5
609.589	21.89
609.782	22.08
609.974	22.28
610.166	22.72
610.359	23.07
610.551	23.2
610.743	23.36
610.936	23.71
611.128	23.98
611.32	24.2
611.513	24.24
611.705	24.16
611.897	24.2
612.09	24.13
612.282	23.98
612.474	23.75
612.666	23.95
612.858	23.91
613.051	23.74
613.243	23.51
613.435	23.37
613.627	23.32
613.819	23.49
614.011	23.69
614.203	23.89
614.395	23.78
614.588	23.74
614.78	23.54
614.972	23.24
615.164	23.21
615.356	23.24
615.548	23.02
615.74	23.11
615.932	22.76
616.124	22.43
616.315	22.43
616.507	22.42
616.699	22.12
616.891	22.19
617.083	22.47
617.275	22.36
617.467	22.41
617.659	22.68
617.85	22.75
618.042	22.88
618.234	22.89
618.426	22.68
618.618	22.43
618.809	22.54
619.001	22.51
619.193	22.42
619.384	22.42
619.576	22.41
619.768	22.15
619.959	22.05
620.151	21.92
620.343	21.97
620.534	22.1
620.726	22.43
620.917	22.53
621.109	22.65
621.301	22.68
621.492	22.7
621.684	22.74
621.875	22.89
622.067	23.04
622.258	23.02
622.45	22.98
622.641	22.86
622.832	22.84
623.024	22.97
623.215	22.88
623.407	22.66
623.598	22.7
623.789	22.64
623.981	22.74
624.172	22.54
624.363	22.63
624.555	22.76
624.746	22.63
624.937	22.45
625.129	22.4
625.32	22.22
625.511	22.49
625.702	22.41
625.893	22.33
626.085	22.18
626.276	22.23
626.467	22.22
626.658	21.89
626.849	21.9
627.04	21.86
627.231	21.7
627.422	21.88
627.614	21.84
627.805	21.83
627.996	21.85
628.187	21.66
628.378	21.7
628.569	21.72
628.76	21.88
628.951	21.84
629.142	21.85
629.332	22.07
629.523	21.99
629.714	21.91
629.905	22.12
630.096	22.28
630.287	22.54
630.478	22.44
630.669	22.16
630.859	22.32
631.05	22.5
631.241	22.5
631.432	22.25
631.623	22.37
631.813	22.36
632.004	22.06
632.195	21.91
632.385	21.82
632.576	21.69
632.767	21.86
632.957	21.85
633.148	21.73
633.339	21.65
633.529	21.9
633.72	21.98
633.91	22.05
634.101	22.21
634.292	22.33
634.482	22.24
634.673	22.53
634.863	22.66
635.054	22.44
635.244	22.43
635.435	22.52
635.625	22.59
635.815	22.39
636.006	22.47
636.196	22.39
636.387	22.24
636.577	22.45
636.767	22.19
636.958	22.08
637.148	22.37
637.338	22.33
637.529	22.45
637.719	22.18
637.909	22.26
638.099	22.31
638.29	22.29
638.48	22.26
638.67	22.27
638.86	22.3
639.05	22.31
639.241	22.29
639.431	22.64
639.621	22.59
639.811	22.73
640.001	22.65
640.191	22.66
640.381	22.68
640.571	22.83
640.761	22.63
640.951	22.9
641.141	22.82
641.331	22.73
641.521	22.62
641.711	22.47
641.901	22.81
642.091	22.68
642.281	22.49
642.471	22.58
642.661	22.52
642.851	22.86
643.041	23.12
643.231	23.31
643.42	23.44
643.61	23.18
643.8	23.51
643.99	23.17
644.18	23.35
644.369	23.41
644.559	23.58
644.749	23.7
644.939	23.42
645.128	23.07
645.318	22.89
645.508	22.97
645.697	23.11
645.887	23.24
646.076	23.38
646.266	23.42
646.456	23.62
646.645	23.47
646.835	23.59
647.024	23.69
647.214	23.8
647.403	24.17
647.593	23.97
647.782	24.11
647.972	23.73
648.161	23.7
648.351	23.94
648.54	23.77
648.73	23.82
648.919	23.81
649.108	23.76
649.298	23.62
649.487	23.38
649.677	23.44
649.866	23.52
650.055	23.59
650.244	23.56
650.434	23.21
650.623	23.12
650.812	23.41
651.002	23.23
651.191	23.24
651.38	23.46
651.569	23.39
651.758	23.38
651.947	23.21
652.137	23.26
652.326	23.11
652.515	23.05
652.704	23.15
652.893	23
653.082	23.34
653.271	23.71
653.46	23.48
653.649	23.63
653.838	23.62
654.027	23.63
654.216	23.74
654.405	24.01
654.594	24.35
654.783	24.52
654.972	24.37
655.161	24.15
655.35	23.84
655.539	23.84
655.728	23.74
655.916	23.83
656.105	23.8
656.294	23.95
656.483	23.57
656.672	23.67
656.86	23.58
657.049	23.59
657.238	23.59
657.427	23.49
657.615	23.6
657.804	23.69
657.993	23.39
658.181	23.43
658.37	23.35
658.559	23.4
658.747	23.26
658.936	23.18
659.125	23.03
659.313	22.9
659.502	22.9
659.69	22.81
659.879	22.66
660.067	23.08
660.256	23.03
660.444	23.06
660.633	23.28
660.821	23.32
661.01	23.16
661.198	23.37
661.387	23.54
661.575	23.72
661.763	23.78
661.952	24.02
662.14	23.79
662.328	23.79
662.517	23.96
662.705	24.03
662.893	23.96
663.082	24.44
663.27	24.56
663.458	24.57
663.646	24.67
663.834	24.69
664.023	24.63
664.211	24.78
664.399	24.93
664.587	24.71
664.775	24.67
664.963	24.56
665.152	24.56
665.34	24.69
665.528	24.95
665.716	25.06
665.904	25.15
666.092	25.26
666.28	25.17
666.468	25.34
666.656	25.56
666.844	25.35
667.032	25.73
667.22	25.81
667.408	25.75
667.596	25.73
667.784	25.41
667.971	25.91
668.159	25.93
668.347	25.94
668.535	25.86
668.723	25.66
668.911	25.91
669.098	25.67
669.286	25.49
669.474	25.35
669.662	25.35
669.849	25.45
670.037	25.07
670.225	25.08
670.413	25.15
670.6	25.02
670.788	25
670.976	25.04
671.163	25.16
671.351	25.15
671.538	25.46
671.726	25.24
671.913	25.31
672.101	25.19
672.289	25.15
672.476	25.16
672.664	25.35
672.851	25.37
673.039	25.31
673.226	25.57
673.413	25.56
673.601	25.56
673.788	25.56
673.976	25.64
674.163	25.61
674.35	25.9
674.538	25.88
674.725	25.75
674.912	25.65
675.1	25.59
675.287	25.58
675.474	25.71
675.662	25.85
675.849	25.64
676.036	25.92
676.223	26
676.411	25.58
676.598	25.99
676.785	26.24
676.972	26.6
677.159	26.8
677.346	26.39
677.533	26.31
677.721	25.86
677.908	26.05
678.095	25.5
678.282	25.47
678.469	25.46
678.656	25.08
678.843	24.85
679.03	24.73
679.217	24.61
679.404	24.85
679.591	24.93
679.778	25.31
679.964	25.01
680.151	25.04
680.338	24.91
680.525	24.99
680.712	25.05
680.899	25.18
681.086	25.22
681.272	24.99
681.459	24.84
681.646	24.7
681.833	24.34
682.02	24.69
682.206	24.8
682.393	24.99
682.58	25.03
682.766	25.25
682.953	25.16
683.14	24.78
683.326	25.36
683.513	25.39
683.7	25.62
683.886	25.7
684.073	25.84
684.259	25.8
684.446	25.92
684.632	25.97
684.819	25.46
685.005	25.55
685.192	25.75
685.378	25.38
685.565	25.32
685.751	25.09
685.938	25.37
686.124	25.27
686.31	25.57
686.497	25.54
686.683	25.48
686.87	25.64
687.056	25.75
687.242	25.91
687.429	26.27
687.615	26.46
687.801	26.44
687.987	26.48
688.174	26.47
688.36	26.45
688.546	26.19
688.732	26.38
688.918	26.77
689.105	26.56
689.291	26.41
689.477	26.12
689.663	26.37
689.849	26.47
690.035	26.23
690.221	26.51
690.407	26.39
690.593	26.58
690.779	26.83
690.965	26.85
691.151	27.16
691.337	27.58
691.523	27.96
691.709	27.96
691.895	28.15
692.081	28.03
692.267	27.61
692.453	27.76
692.639	27.84
692.825	27.89
693.011	27.8
693.196	27.89
693.382	27.45
693.568	27.19
693.754	27.11
693.94	27.09
694.125	27.25
694.311	27.75
694.497	27.78
694.682	27.66
694.868	27.57
695.054	27.43
695.239	27
695.425	26.75
695.611	26.9
695.796	26.6
695.982	26.28
696.168	26.23
696.353	25.92
696.539	25.61
696.724	25.82
696.91	25.38
697.095	25.45
697.281	25.58
697.466	25.82
697.652	25.44
697.837	25.48
698.023	25.52
698.208	25.19
698.393	25.02
698.579	25.12
698.764	24.9
698.949	24.74
699.135	24.67
699.32	24.59
699.505	24.49
699.691	24.63
699.876	24.61
700.061	24.74
700.246	25.02
700.432	25.3
700.617	25.39
700.802	25.62
700.987	26.23
701.172	26.33
701.358	26.76
701.543	27.38
701.728	27.34
701.913	27.49
702.098	27.45
702.283	27.59
702.468	27.88
702.653	28.19
702.838	28.29
703.023	28.13
703.208	28.12
703.393	27.67
703.578	27.65
703.763	27.79
703.948	28.07
704.133	28.41
704.318	29.09
704.503	28.83
704.688	28.71
704.873	28.93
705.057	29.27
705.242	29.4
705.427	29.7
705.612	29.77
705.797	30.34
705.981	30.3
706.166	30.47
706.351	30.39
706.536	30.39
706.72	30.67
706.905	30.88
707.09	30.66
707.274	30.67
707.459	30.6
707.644	30.63
707.828	30.57
708.013	30.55
708.197	30.17
708.382	30.05
708.567	30.23
708.751	29.7
708.936	29.57
709.12	29.73
709.305	30.24
709.489	30.25
709.673	30.02
709.858	29.57
710.042	29.44
710.227	29.59
710.411	29.41
710.596	29.54
710.78	29.93
710.964	29.71
711.149	29.76
711.333	29.18
711.517	29.32
711.702	29.28
711.886	29.86
712.07	30.04
712.254	30.04
712.438	29.85
712.623	29.54
712.807	29.1
712.991	29.42
713.175	29.49
713.359	29.61
713.544	29.33
713.728	29.12
713.912	28.62
714.096	28.65
714.28	28.47
714.464	28.53
714.648	28.63
714.832	28.67
715.016	28.38
715.2	28.03
715.384	27.91
715.568	28.23
715.752	28.06
715.936	28.41
716.12	28.29
716.304	28.48
716.488	28.71
716.671	29.01
716.855	29.34
717.039	29.27
717.223	29.09
717.407	29.15
717.59	29.04
717.774	29.02
717.958	28.57
718.142	28.78
718.325	29.09
718.509	28.96
718.693	28.92
718.877	28.91
719.06	29.44
719.244	29.63
719.428	30.02
719.611	29.87
719.795	30.29
719.978	30.63
720.162	30.51
720.345	30.79
720.529	30.63
720.713	30.81
720.896	30.94
721.08	30.66
721.263	31.1
721.446	31.11
721.63	31.42
721.813	31.25
721.997	31.14
722.18	31.13
722.364	30.85
722.547	31.38
722.73	31.34
722.914	31.27
723.097	31.71
723.28	32.08
723.464	31.84
723.647	32.01
723.83	32.77
724.013	33.25
724.197	33.4
724.38	33.32
724.563	33.27
724.746	33.24
724.929	33.28
725.112	32.74
725.296	32.17
725.479	31.95
725.662	31.45
725.845	31.33
726.028	31.16
726.211	31.01
726.394	31.29
726.577	31.62
726.76	31.66
726.943	31.69
727.126	32.02
727.309	32.25
727.492	32.47
727.675	32.12
727.858	32
728.041	32.06
728.224	31.77
728.407	31.64
728.589	31.36
728.772	30.75
728.955	30.27
729.138	29.89
729.321	29.69
729.503	29.78
729.686	30.33
729.869	29.75
730.052	29.86
730.234	30.09
730.417	29.51
730.6	29.48
730.782	29.95
730.965	30.89
731.148	31.25
731.33	31.22
731.513	31.56
731.695	31.71
731.878	32.06
732.061	31.72
732.243	32.08
732.426	32.08
732.608	31.65
732.791	31.71
732.973	31.27
733.156	30.94
733.338	31.18
733.52	31.29
733.703	31.22
733.885	30.78
734.068	31.04
734.25	30.59
734.432	30.99
734.615	31.95
734.797	32.09
734.979	32.3
735.162	33.12
735.344	32.9
735.526	32.3
735.708	32.48
735.891	33.39
736.073	33.53
736.255	34.02
736.437	34.34
736.619	33.88
736.802	33.93
736.984	33.46
737.166	33.5
737.348	33.24
737.53	33.62
737.712	33.4
737.894	33.25
738.076	33.33
738.258	33.29
738.44	32.74
738.622	32.65
738.804	32.66
738.986	32.67
739.168	32.22
739.35	32.74
739.532	32.66
739.714	32.9
739.896	33.37
740.078	33.68
740.259	33.83
740.441	34.6
740.623	34.75
740.805	35.1
740.987	36.16
741.168	37.05
741.35	37.28
741.532	37.69
741.714	37.57
741.895	37.34
742.077	37.12
742.259	36.94
742.44	36.82
742.622	36.71
742.804	36.8
742.985	35.95
743.167	35.21
743.348	36.45
743.53	35.86
743.711	35.92
743.893	36.47
744.075	36.32
744.256	36.33
744.438	36.53
744.619	36.75
744.8	36.72
744.982	36.77
745.163	36.37
745.345	35.45
745.526	36.32
745.707	37.31
745.889	37.48
746.07	38.55
746.252	38.48
746.433	38.69
746.614	39.61
746.795	39.36
746.977	40.31
747.158	40.68
747.339	40.89
747.52	40.24
747.702	39.35
747.883	38.78
748.064	37.33
748.245	37.53
748.426	37.14
748.607	36.59
748.788	36.95
748.97	36.52
749.151	36.24
749.332	35.21
749.513	35.72
749.694	36.55
749.875	36.33
750.056	37.6
750.237	37.67
750.418	37.57
750.599	37.63
750.78	37.41
750.96	36.98
751.141	37.39
751.322	38.42
751.503	38.53
751.684	39.2
751.865	39.14
752.046	39.07
752.226	38.98
752.407	39.13
752.588	39.37
752.769	39.48
752.949	39.82
753.13	39.77
753.311	40.55
753.492	40.29
753.672	39.24
753.853	39.15
754.034	38.58
754.214	38.85
754.395	38.73
754.575	38.41
754.756	38.61
754.937	39.5
755.117	39.84
755.298	38.46
755.478	38.3
755.659	37.84
755.839	38.21
756.02	37.83
756.2	39.01
756.381	39.17
756.561	39.81
756.741	39.53
756.922	38.26
757.102	38.63
757.283	38.52
757.463	39.11
757.643	38.98
757.823	38.91
758.004	38.94
758.184	37.66
758.364	37.45
758.545	37.76
758.725	37.49
758.905	37.66
759.085	36.54
759.265	36.42
759.446	35.41
759.626	36.02
759.806	35.76
759.986	35.54
760.166	35.13
760.346	34.98
760.526	34.01
760.706	33.98
760.886	33.66
761.066	33.44
761.246	33.74
761.426	33.77
761.606	33.26
761.786	32.62
761.966	32.86
762.146	33.46
762.326	33.2
762.506	33.08
762.686	32.36
762.866	32.59
763.046	32.86
763.225	31.77
763.405	31.41
763.585	30.79
763.765	30.98
763.945	30.57
764.124	30.17
764.304	30.5
764.484	30.4
764.664	30.88
764.843	30.4
765.023	30.75
765.203	31.57
765.382	32.72
765.562	33.6
765.741	34.06
765.921	34.73
766.101	35.09
766.28	35.11
766.46	35.16
766.639	35.66
766.819	36.78
766.998	36.67
767.178	37.06
767.357	36.55
767.537	36.74
767.716	37.36
767.896	37.52
768.075	37.67
768.254	37.47
768.434	37.11
768.613	36.85
768.792	37.14
768.972	37.36
769.151	37.98
769.33	38.52
769.51	38.21
769.689	38.26
769.868	38.8
770.047	39.61
770.226	40.43
770.406	42
770.585	42.97
770.764	42.73
770.943	42.46
771.122	42.25
771.301	42.3
771.48	43.23
771.66	43.57
771.839	43.48
772.018	42.72
772.197	42.64
772.376	42.08
772.555	41.66
772.734	41.28
772.913	41.93
773.092	42.59
773.271	43.01
773.449	42.92
773.628	42.52
773.807	43.04
773.986	43.44
774.165	43.98
774.344	44.89
774.523	44.12
774.701	45.19
774.88	45.34
775.059	44.47
775.238	44.66
775.417	45.95
775.595	46.3
775.774	46.26
775.953	45.72
776.131	45.56
776.31	45.02
776.489	45.33
776.667	44.74
776.846	44.68
777.025	45.31
777.203	44.93
777.382	43.8
777.56	44.18
777.739	44.27
777.917	44.3
778.096	44.7
778.274	45
778.453	45.83
778.631	46.62
778.81	46.44
778.988	46.96
779.166	46.25
779.345	46.06
779.523	45.61
779.702	44.9
779.88	45.87
780.058	45.22
780.237	46.72
780.415	46.45
780.593	45.77
780.771	46.12
780.95	45.78
781.128	46.72
781.306	47.19
781.484	48.06
781.662	48.06
781.841	47.29
782.019	47.55
782.197	45.92
782.375	45.65
782.553	45.93
782.731	45.84
782.909	46.41
783.087	46.93
783.265	47.38
783.443	47.59
783.621	48.48
783.799	50.72
783.977	51.3
784.155	52.07
784.333	53.04
784.511	52.3
784.689	53.03
784.867	52.71
785.045	51.94
785.223	52.62
785.4	52.17
785.578	52.57
785.756	51.28
785.934	51.55
786.112	50.69
786.289	50.93
786.467	51.98
786.645	52.05
786.823	51.84
787	51.96
787.178	51.17
787.356	50.59
787.533	50.79
787.711	49.9
787.889	48.85
788.066	48.02
788.244	47.4
788.421	46.71
788.599	45.03
788.776	43.8
788.954	43.34
789.131	43.28
789.309	42.29
789.486	41.04
789.664	41.92
789.841	42.44
790.019	42.94
790.196	42.08
790.373	42.69
790.551	43.81
790.728	44.42
790.906	44.67
791.083	45.97
791.26	47.01
791.437	47.12
791.615	47.73
791.792	47.24
791.969	47.41
792.146	47.77
792.324	47.15
792.501	46.81
792.678	47.77
792.855	47.63
793.032	46.46
793.209	46.62
793.387	47.35
793.564	46.62
793.741	47.94
793.918	47.25
794.095	48.07
794.272	49.36
794.449	48.63
794.626	49.54
794.803	49.93
794.98	49.42
795.157	48.9
795.334	48.11
795.511	48.52
795.688	48.01
795.864	47.45
796.041	47.65
796.218	46.9
796.395	47.54
796.572	45.75
796.749	46.34
796.925	46.21
797.102	47.14
797.279	47.03
797.456	46.68
797.632	46.69
797.809	48.02
797.986	48.18
798.162	48.36
798.339	47.61
798.516	47.36
798.692	47.61
798.869	47.61
799.046	46.14
799.222	46.69
799.399	45.66
799.575	45.84
799.752	46.86
799.928	48.01
800.105	47.54
800.281	49.2
800.458	51.23
800.634	50.54
800.811	51.81
800.987	52.06
801.163	52.12
801.34	53.28
801.516	53.88
801.692	54.23
801.869	52.38
802.045	52.96
802.221	52.03
802.398	51.09
802.574	52.7
802.75	53.24
802.926	54.35
803.103	55.51
803.279	55.76
803.455	54.76
803.631	54.21
803.807	55.18
803.983	55.38
804.16	57.13
804.336	56.1
804.512	55.65
804.688	55.67
804.864	56.12
805.04	55.7
805.216	56
805.392	57.74
805.568	57.91
805.744	59.42
805.92	59.91
806.096	59.32
806.272	62.47
806.448	62.9
806.623	62.96
806.799	62.92
806.975	63.16
807.151	62.24
807.327	59.47
807.503	58.82
807.678	57.62
807.854	56.86
808.03	57
808.206	56.94
808.381	54.73
808.557	54.81
808.733	54.84
808.908	54.69
809.084	55.5
809.26	56.16
809.435	58.63
809.611	58.36
809.787	59.41
809.962	60.43
810.138	59.3
810.313	59.79
810.489	59.3
810.664	60.49
810.84	61.26
811.015	61.61
811.191	65.18
811.366	63.22
811.542	64.52
811.717	64.07
811.892	63.3
812.068	62.62
812.243	62.57
812.419	61.98
812.594	61.06
812.769	61.05
812.944	61.07
813.12	58.66
813.295	58.32
813.47	57.76
813.645	58.58
813.821	58.24
813.996	57.7
814.171	59.06
814.346	60.07
814.521	59.72
814.697	60.95
814.872	60.61
815.047	60.92
815.222	61.57
815.397	60.59
815.572	59.96
815.747	59.96
815.922	61.54
816.097	62
816.272	61.05
816.447	62.3
816.622	61.5
816.797	62.08
816.972	62.55
817.147	62.32
817.322	62.48
817.496	60.99
817.671	61.41
817.846	62.06
818.021	60.73
818.196	60.38
818.371	57.73
818.545	57.06
818.72	56.01
818.895	53.74
819.069	52.79
819.244	52.85
819.419	53.17
819.594	50.65
819.768	48.38
819.943	47.02
820.117	45.14
820.292	43.49
820.467	40.84
820.641	38.54
820.816	36.32
820.99	34.67
821.165	33.04
821.339	31.78
821.514	30.6
821.688	29.95
821.863	28.68
822.037	28.28
822.212	27.65
822.386	27.24
822.56	26.8
822.735	26.73
822.909	26.56
823.084	26.35
823.258	26.48
823.432	26.47
823.606	26.2
823.781	26.85
823.955	27.1
824.129	27.66
824.303	28.21
824.478	28.68
824.652	29.34
824.826	29.82
825	30.12
825.174	30.25
825.348	31.25
825.523	32.04
825.697	32.26
825.871	32.24
826.045	32.42
826.219	32.44
826.393	33.11
826.567	32.71
826.741	32.89
826.915	33.23
827.089	33.77
827.263	34.52
827.437	34.24
827.611	34.14
827.784	34.56
827.958	34.58
828.132	34.64
828.306	34.61
828.48	35.99
828.654	36.27
828.827	37.02
829.001	37.55
829.175	38.03
829.349	39.47
829.522	40.52
829.696	41.39
829.87	43.54
830.044	46.95
830.217	49.91
830.391	50.8
830.565	53.27
830.738	54.07
830.912	54.84
831.085	54.61
831.259	56.15
831.432	57.22
831.606	57.35
831.779	56.13
831.953	53.67
832.126	52.2
832.3	50.33
832.473	49.4
832.647	48.38
832.82	46.2
832.994	44.69
833.167	42.54
833.34	41.53
833.514	40.32
833.687	39.34
833.86	38.39
834.034	37.74
834.207	37.8
834.38	36.71
834.553	36.1
834.727	36.27
834.9	37.69
835.073	38.48
835.246	38.52
835.419	40.15
835.593	41.56
835.766	41.67
835.939	42.61
836.112	43.73
836.285	45.13
836.458	48.28
836.631	50.36
836.804	50.89
836.977	54.6
837.15	57.26
837.323	58.04
837.496	59.58
837.669	63.43
837.842	66.38
838.015	70.41
838.188	72.67
838.361	72.77
838.533	77.31
838.706	80.84
838.879	78.61
839.052	79.86
839.225	78.85
839.398	79.47
839.57	80.12
839.743	78.28
839.916	75.68
840.088	74.93
840.261	76.07
840.434	72.17
840.607	69.37
840.779	70.85
840.952	70.56
841.124	71.5
841.297	72.32
841.47	70.95
841.642	69.81
841.815	71.33
841.987	71.27
842.16	71.65
842.332	73.18
842.505	76.84
842.677	76.42
842.85	79.33
843.022	79.86
843.194	81.44
843.367	83.44
843.539	86.03
843.712	86.14
843.884	88.08
844.056	88.56
844.229	93.44
844.401	98.19
844.573	98.72
844.745	98.7
844.918	105.03
845.09	102.82
845.262	105.99
845.434	107.79
845.606	111.97
845.779	112.04
845.951	112.58
846.123	109.58
846.295	103.31
846.467	106.62
846.639	106.22
846.811	104.12
846.983	104.37
847.155	104.98
847.327	106
847.499	105.03
847.671	107.39
847.843	109.84
848.015	111.92
848.187	112.3
848.359	113.77
848.531	114.62
848.703	114.49
848.875	119.52
849.047	120.42
849.218	126.59
849.39	128.65
849.562	126.27
849.734	126.49
849.905	129.6
850.077	129.73
850.249	127.34
850.421	133.08
850.592	130.21
850.764	131.27
850.936	130.54
851.107	120.34
851.279	118.08
851.451	120.64
851.622	123.3
851.794	119.85
851.965	120.49
852.137	116.39
852.308	111.95
852.48	118.34
852.651	117.8
852.823	119.53
852.994	127.39
853.166	129.35
853.337	131.69
853.509	127.58
853.68	131.58
853.851	135.28
854.023	142.77
854.194	139.64
854.365	139.24
854.537	137.86
854.708	135.25
854.879	130.18
855.05	127.95
855.222	130.41
855.393	124.13
855.564	121.45
855.735	122.45
855.906	122.88
856.078	127.48
856.249	126.94
856.42	128.78
856.591	131.81
856.762	138.65
856.933	142.64
857.104	135.26
857.275	145.6
857.446	145.85
857.617	150.95
857.788	147.48
857.959	151.04
858.13	147.18
858.301	150.67
858.472	148.22
858.643	147.12
858.814	150.59
858.985	157.04
859.155	155.08
859.326	159.58
859.497	149.4
859.668	162.66
859.839	160.7
860.009	168.26
860.18	165.61
860.351	166.11
860.522	162.83
860.692	156.5
860.863	148.58
861.034	144.59
861.204	150.05
861.375	152.73
861.546	149.77
861.716	142.15
861.887	138.57
862.057	139.24
862.228	137.69
862.398	139.32
862.569	141.65
862.739	146.06
862.91	148.37
863.08	139.21
863.251	134.43
863.421	131.75
863.592	136.75
863.762	135.12
863.932	131.44
864.103	136.04
864.273	133.32
864.443	130.92
864.614	130.16
864.784	127.07
864.954	132.42
865.125	141.42
865.295	141.63
865.465	142.6
865.635	140.8
865.805	143.37
865.976	138.48
866.146	138.15
866.316	141.55
866.486	143.61
866.656	147.44
866.826	149.33
866.996	146.27
867.166	143.58
867.336	136.86
867.506	140.07
867.676	137.06
867.846	145.48
868.016	149.84
868.186	150.15
868.356	152.32
868.526	158.18
868.696	146.56
868.866	143.69
869.036	147.44
869.206	158.99
869.376	157.07
869.545	156
869.715	153.84
869.885	154.15
870.055	156.57
870.224	155.37
870.394	151.38
870.564	161.89
870.734	155.54
870.903	148.31
871.073	144.64
871.243	139.47
871.412	143.5
871.582	140.52
871.751	142.79
871.921	135.4
872.091	129.32
872.26	128.66
872.43	124.44
872.599	129.28
872.769	126.78
872.938	130
873.108	135.73
873.277	142.9
873.446	141.32
873.616	137.3
873.785	139.33
873.955	141.95
874.124	148.3
874.293	146.08
874.463	148.63
874.632	159.1
874.801	156.33
874.971	157.98
875.14	147.87
875.309	149.77
875.478	152.89
875.647	159.69
875.817	165.31
875.986	159.29
876.155	156.51
876.324	160.34
876.493	156.93
876.662	157.96
876.831	161.24
877	154.54
877.17	157.37
877.339	156.21
877.508	156
877.677	158.65
877.846	155.05
878.015	163.88
878.184	150.56
878.352	144.71
878.521	137.04
878.69	128.93
878.859	133.27
879.028	129.17
879.197	128.52
879.366	120.26
879.534	114.08
879.703	106.71
879.872	97.5
880.041	87.92
880.21	79.75
880.378	74.75
880.547	69.16
880.716	62.95
880.884	58.08
881.053	54.45
881.222	51.84
881.39	48.18
881.559	46.23
881.727	43.36
881.896	42.08
882.065	42.03
882.233	40.82
882.402	39.79
882.57	39.88
882.739	39.32
882.907	38.52
883.076	38.6
883.244	38.89
883.412	39.57
883.581	40.7
883.749	41.54
883.918	41.15
884.086	42.47
884.254	43.87
884.423	43.87
884.591	45.64
884.759	48.24
884.927	49.64
885.096	52.87
885.264	56.06
885.432	58.77
885.6	63.24
885.769	67.37
885.937	68.88
886.105	71.16
886.273	79.56
886.441	82.88
886.609	85.03
886.777	86.82
886.945	89.37
887.113	91.62
887.281	91.76
887.449	94.35
887.617	95.25
887.785	102.24
887.953	108.89
888.121	106.89
888.289	112.92
888.457	113.84
888.625	115.87
888.793	113.81
888.961	114.56
889.129	122.6
889.296	124.34
889.464	127.36
889.632	127.15
889.8	124.51
889.967	125.02
890.135	123.53
