Data from 2938763__Reflection_03.txt Node
Date: Fri Mar 13 16:41:57 EDT 2015
User: robert
Spectrometer: USB4E03002
Autoset integration time: false
Trigger mode: 4
Integration Time (sec): 1.000000E-1
Scans to average: 10
Electric dark correction enabled: false
Nonlinearity correction enabled: false
Boxcar width: 5
Stray light correction enabled: false
XAxis mode: Wavelengths
Stop averaging: false
Number of Pixels in Spectrum: 3648
>>>>>Begin Spectral Data<<<<<
177.575	-343.75
177.794	-2669.23
178.014	-529.49
178.233	-273.38
178.452	-206.88
178.672	-185.25
178.891	-112.6
179.11	-82.79
179.33	-120.54
179.549	-259.56
179.768	-192.86
179.987	-188.93
180.207	-110.84
180.426	-112.86
180.645	-410
180.864	-1771.43
181.084	577.53
181.303	509.2
181.522	201.33
181.741	342.47
181.96	627.66
182.179	337.17
182.398	354.13
182.618	354.74
182.837	252.98
183.056	330.64
183.275	352.78
183.494	260.71
183.713	240.5
183.932	189.99
184.151	170.84
184.37	141.57
184.589	106.68
184.808	123.58
185.027	106.52
185.246	82.91
185.465	68.33
185.684	91.98
185.903	117.54
186.122	135.52
186.341	175.23
186.56	693.62
186.779	423.42
186.998	-244.21
187.216	-840.91
187.435	462.7
187.654	-4346.67
187.873	-549.33
188.092	14833.33
188.311	746.08
188.53	291
188.748	341.83
188.967	333.9
189.186	331.44
189.405	242.57
189.623	272.45
189.842	416.86
190.061	661.44
190.28	373.61
190.498	398.41
190.717	339.67
190.936	482.16
191.154	322.27
191.373	300.44
191.592	278.41
191.81	278.15
192.029	493.33
192.248	692.31
192.466	235.49
192.685	199.23
192.904	260.18
193.122	265.05
193.341	345.33
193.559	858.76
193.778	1340
193.996	2907.41
194.215	-1934.15
194.433	2582.76
194.652	-781.69
194.87	-343.48
195.089	-3652.63
195.307	1226.79
195.526	-3435.29
195.744	728.71
195.963	373.21
196.181	235.74
196.399	251.16
196.618	229.13
196.836	238.81
197.055	215.52
197.273	184.43
197.491	230.95
197.71	193.79
197.928	167.92
198.146	153.19
198.365	143.65
198.583	162.39
198.801	139.86
199.019	137.62
199.238	131.63
199.456	122.35
199.674	125.14
199.892	134.86
200.111	141.54
200.329	150.39
200.547	166.24
200.765	174.05
200.983	173.17
201.202	191.38
201.42	172.75
201.638	153.29
201.856	200.34
202.074	158.03
202.292	163.32
202.51	157.42
202.728	189.95
202.946	168.75
203.165	175.04
203.383	192.21
203.601	169.8
203.819	214.37
204.037	233.42
204.255	216.47
204.473	250.76
204.691	203.16
204.909	170.84
205.127	159.39
205.345	153.15
205.562	157.41
205.78	127.81
205.998	190.07
206.216	256.4
206.434	212.47
206.652	195.04
206.87	385.84
207.088	277.53
207.306	847.62
207.523	445.22
207.741	424.24
207.959	292.67
208.177	295.87
208.395	108.53
208.612	70.94
208.83	60.52
209.048	94.24
209.266	59.19
209.483	56.04
209.701	62.59
209.919	85.17
210.136	94.75
210.354	150.57
210.572	161.23
210.79	176.52
211.007	199.25
211.225	191.8
211.442	212.41
211.66	209.02
211.878	168.05
212.095	187.78
212.313	159.35
212.53	164.05
212.748	118.35
212.966	122.18
213.183	127.51
213.401	137.14
213.618	110.53
213.836	88.35
214.053	80.59
214.271	102.51
214.488	77.9
214.705	112.13
214.923	137.4
215.14	172.6
215.358	133.77
215.575	120.43
215.793	110.6
216.01	145
216.227	158.84
216.445	137.22
216.662	107.99
216.879	105.06
217.097	96.36
217.314	101.76
217.531	87.71
217.749	89.42
217.966	86.34
218.183	95
218.4	87.77
218.618	83.87
218.835	75.97
219.052	86.05
219.269	86.98
219.487	88.79
219.704	67.67
219.921	72.56
220.138	65.5
220.355	66.38
220.572	51.04
220.79	47.67
221.007	41.62
221.224	46.32
221.441	42.43
221.658	35.76
221.875	32.52
222.092	30.65
222.309	41.79
222.526	48.57
222.743	42
222.96	41.5
223.177	41.9
223.394	41.05
223.611	40.48
223.828	34.56
224.045	33.33
224.262	29.78
224.479	25.85
224.696	21.89
224.913	15.51
225.13	16.27
225.347	18.22
225.564	18.23
225.781	17.9
225.997	16.21
226.214	21.65
226.431	21.15
226.648	18.32
226.865	18.65
227.082	18.11
227.298	16.57
227.515	15.85
227.732	13.42
227.949	11.87
228.165	11.38
228.382	10.94
228.599	10.55
228.816	10.46
229.032	10.51
229.249	9.96
229.466	9.08
229.682	9.95
229.899	9.63
230.116	9.54
230.332	10.3
230.549	10.76
230.765	10.49
230.982	10.64
231.199	10.63
231.415	11.97
231.632	12.78
231.848	12.78
232.065	12.34
232.281	15.17
232.498	16.33
232.714	15.86
232.931	16.23
233.147	17.98
233.364	16.49
233.58	15.71
233.797	13.26
234.013	14.12
234.23	14.16
234.446	14.39
234.662	12.63
234.879	11.88
235.095	12.45
235.312	12.25
235.528	9.95
235.744	8.6
235.961	8.91
236.177	11.69
236.393	11
236.61	10.01
236.826	11.67
237.042	11.23
237.258	12.61
237.475	13.77
237.691	12.89
237.907	12.88
238.123	16.12
238.339	16.46
238.556	15.05
238.772	13.45
238.988	14.28
239.204	13.39
239.42	12.35
239.636	11.89
239.853	9.83
240.069	10.64
240.285	10.4
240.501	9.57
240.717	9.59
240.933	9.69
241.149	10.16
241.365	10.09
241.581	9.61
241.797	9.15
242.013	8.68
242.229	8.56
242.445	8
242.661	8.14
242.877	7.75
243.093	7.21
243.309	6.65
243.525	6.67
243.741	7.27
243.957	7.4
244.173	8.29
244.388	8.78
244.604	9.47
244.82	10.6
245.036	11.05
245.252	11.16
245.468	10.74
245.683	10.85
245.899	10.4
246.115	9.88
246.331	9.75
246.547	9.6
246.762	9.06
246.978	8.97
247.194	8.43
247.409	8.17
247.625	8.16
247.841	8.48
248.057	8.37
248.272	8.08
248.488	7.77
248.703	7.51
248.919	7.5
249.135	7.41
249.35	7.15
249.566	7.25
249.782	6.99
249.997	6.92
250.213	6.73
250.428	7.35
250.644	8.93
250.859	9.08
251.075	8.54
251.29	8.02
251.506	8.21
251.721	7.93
251.937	7.59
252.152	7.84
252.368	7.74
252.583	8.21
252.798	7.68
253.014	7.15
253.229	7.46
253.445	8.22
253.66	8.73
253.875	9.48
254.091	10.08
254.306	11.08
254.521	11.98
254.737	12.69
254.952	11.06
255.167	10.99
255.383	10.52
255.598	10.23
255.813	9.54
256.028	9.89
256.244	8.76
256.459	8.49
256.674	7.22
256.889	6.51
257.104	6.2
257.32	7.24
257.535	7.26
257.75	6.87
257.965	6.88
258.18	6.79
258.395	6.44
258.61	6.13
258.826	5.9
259.041	5.78
259.256	5.9
259.471	5.75
259.686	5.77
259.901	5.81
260.116	6.05
260.331	5.76
260.546	5.63
260.761	5.63
260.976	5.74
261.191	5.67
261.406	6.19
261.621	6.42
261.836	6.33
262.05	6.34
262.265	5.89
262.48	5.62
262.695	5.74
262.91	5.86
263.125	5.43
263.34	5.87
263.555	5.66
263.769	6.12
263.984	5.34
264.199	5.41
264.414	5.35
264.629	6.15
264.843	6.06
265.058	7.02
265.273	7.36
265.488	8.06
265.702	7.9
265.917	8.48
266.132	7.68
266.346	7.61
266.561	7.77
266.776	7.59
266.99	7.22
267.205	7.16
267.42	6.54
267.634	6.6
267.849	6.07
268.063	6.37
268.278	6.15
268.492	6.02
268.707	6.07
268.922	6.41
269.136	6.52
269.351	6.61
269.565	6.54
269.78	6.81
269.994	6.84
270.209	7.13
270.423	6.79
270.637	6.98
270.852	7.11
271.066	6.95
271.281	6.71
271.495	6.57
271.709	6.85
271.924	6.58
272.138	6.51
272.353	6.21
272.567	5.9
272.781	5.97
272.996	5.35
273.21	5.2
273.424	5.26
273.638	5.06
273.853	4.93
274.067	4.73
274.281	5.05
274.495	4.83
274.71	4.51
274.924	4.05
275.138	4.03
275.352	4.37
275.566	4.42
275.781	4.55
275.995	4.47
276.209	4.68
276.423	4.91
276.637	4.95
276.851	4.96
277.065	5.05
277.279	5.49
277.493	5.46
277.707	5.66
277.921	5.36
278.135	5.33
278.349	5.22
278.563	5.7
278.777	5.4
278.991	5.49
279.205	5.71
279.419	5.53
279.633	6.05
279.847	5.73
280.061	6.05
280.275	5.96
280.489	5.75
280.703	6.27
280.917	5.62
281.131	5.23
281.344	4.86
281.558	4.85
281.772	5.05
281.986	4.95
282.2	5.36
282.414	4.71
282.627	5.19
282.841	5.13
283.055	5.09
283.269	5.21
283.482	5.35
283.696	5.94
283.91	5.85
284.123	5.88
284.337	5.75
284.551	5.55
284.764	5.72
284.978	5.71
285.192	5.89
285.405	5.87
285.619	5.86
285.833	5.73
286.046	5.57
286.26	5.44
286.473	5.52
286.687	5.55
286.9	5.6
287.114	5.94
287.327	5.87
287.541	5.63
287.754	5.55
287.968	5.84
288.181	6.02
288.395	5.63
288.608	6.03
288.822	6.04
289.035	5.89
289.248	5.78
289.462	5.49
289.675	5.31
289.889	5.63
290.102	5.27
290.315	5.07
290.529	5.08
290.742	5.32
290.955	5.04
291.169	4.83
291.382	4.86
291.595	4.49
291.808	4.59
292.022	4.52
292.235	4.45
292.448	5.01
292.661	4.83
292.875	4.95
293.088	4.9
293.301	5.15
293.514	5.51
293.727	5.64
293.94	5.94
294.153	6.29
294.367	6.28
294.58	6.25
294.793	5.91
295.006	6.14
295.219	6.04
295.432	6.08
295.645	6.05
295.858	6.05
296.071	5.72
296.284	5.85
296.497	5.78
296.71	5.92
296.923	5.91
297.136	6.13
297.349	6.32
297.562	6.49
297.775	6.34
297.988	6.49
298.201	6.48
298.414	6.86
298.626	7.02
298.839	7.16
299.052	7.03
299.265	7.27
299.478	7.07
299.691	7.11
299.903	7.13
300.116	7.27
300.329	7.11
300.542	6.99
300.755	6.8
300.967	6.49
301.18	6.4
301.393	7.02
301.605	6.93
301.818	6.97
302.031	6.58
302.243	6.7
302.456	6.97
302.669	7
302.881	7.35
303.094	7.45
303.307	7.81
303.519	7.59
303.732	7.41
303.944	7.36
304.157	7.53
304.37	7.56
304.582	7.39
304.795	7.36
305.007	7.56
305.22	7.63
305.432	7.66
305.645	7.73
305.857	8.16
306.069	8.5
306.282	8.38
306.494	8.8
306.707	9.1
306.919	9.37
307.132	9.56
307.344	9.41
307.556	9.21
307.769	9.63
307.981	9.48
308.193	8.9
308.406	8.45
308.618	8.78
308.83	8.52
309.043	8.15
309.255	7.91
309.467	7.63
309.679	7.47
309.892	7.61
310.104	7.42
310.316	7.73
310.528	7.71
310.74	7.68
310.953	7.6
311.165	7.41
311.377	7.58
311.589	7.66
311.801	7.82
312.013	7.9
312.225	8.03
312.437	8.16
312.649	7.96
312.862	8.23
313.074	8.29
313.286	8.58
313.498	9.17
313.71	9.28
313.922	9.24
314.134	8.91
314.346	9.17
314.558	9.02
314.77	9.21
314.982	9.27
315.193	9.18
315.405	8.96
315.617	8.45
315.829	8.23
316.041	8.44
316.253	8.57
316.465	9.2
316.677	9.08
316.888	9.28
317.1	8.95
317.312	8.67
317.524	8.68
317.736	9.17
317.947	9.19
318.159	9.49
318.371	9.4
318.583	9.69
318.794	9.66
319.006	9.81
319.218	9.29
319.43	9.1
319.641	9.47
319.853	9.64
320.064	9.58
320.276	10.38
320.488	9.53
320.699	9.83
320.911	9.39
321.123	9.53
321.334	9.61
321.546	9.84
321.757	10.24
321.969	10.19
322.18	10.11
322.392	9.88
322.603	9.43
322.815	10.2
323.026	9.72
323.238	9.74
323.449	9.5
323.661	9.4
323.872	9.45
324.083	9.61
324.295	9.47
324.506	9.64
324.718	9.82
324.929	10.09
325.14	9.88
325.352	9.96
325.563	10.16
325.774	10.24
325.986	10.35
326.197	10.77
326.408	10.31
326.62	10.16
326.831	10.18
327.042	10.58
327.253	10.28
327.464	10.43
327.676	10.52
327.887	10.6
328.098	10.68
328.309	10.8
328.52	10.54
328.732	10.74
328.943	11.19
329.154	11.09
329.365	10.78
329.576	11.13
329.787	11.17
329.998	11.36
330.209	11.53
330.42	11.34
330.631	11.36
330.842	11.4
331.053	11.54
331.264	11.56
331.475	12.16
331.686	12.48
331.897	12.7
332.108	12.6
332.319	12.74
332.53	12.64
332.741	12.47
332.952	12.69
333.163	12.38
333.374	12.77
333.585	13.11
333.795	13.23
334.006	12.97
334.217	12.93
334.428	13.02
334.639	12.82
334.849	12.87
335.06	13.27
335.271	13.03
335.482	13.69
335.692	13.4
335.903	13.1
336.114	12.59
336.325	12.9
336.535	12.43
336.746	12.75
336.957	12.97
337.167	12.81
337.378	12.98
337.589	13.19
337.799	12.83
338.01	12.98
338.22	12.9
338.431	13.28
338.642	12.86
338.852	13.24
339.063	12.86
339.273	12.79
339.484	12.7
339.694	12.47
339.905	12.37
340.115	12.46
340.326	11.8
340.536	11.64
340.746	11.55
340.957	11.58
341.167	11.51
341.378	11.43
341.588	11.35
341.799	11.33
342.009	11.28
342.219	10.97
342.43	10.93
342.64	11.35
342.85	11.42
343.061	11.29
343.271	11.5
343.481	11.27
343.691	11.51
343.902	11.44
344.112	11.46
344.322	11.6
344.532	11.79
344.743	11.79
344.953	11.71
345.163	11.77
345.373	11.66
345.583	11.51
345.793	11.51
346.004	11.45
346.214	11.52
346.424	11.74
346.634	11.74
346.844	11.89
347.054	11.93
347.264	11.98
347.474	11.87
347.684	11.98
347.894	12.13
348.104	12.45
348.314	12.48
348.524	12.29
348.734	12.12
348.944	11.9
349.154	11.93
349.364	11.98
349.574	11.94
349.784	12.23
349.994	12.27
350.204	12.32
350.413	12.07
350.623	11.83
350.833	11.98
351.043	12.29
351.253	12.17
351.463	11.8
351.672	11.85
351.882	11.82
352.092	11.59
352.302	11.7
352.511	11.45
352.721	11.49
352.931	11.67
353.141	11.86
353.35	11.51
353.56	11.63
353.77	11.73
353.979	11.8
354.189	12.09
354.399	12.28
354.608	12.34
354.818	12.46
355.027	12.43
355.237	12.26
355.447	11.92
355.656	11.99
355.866	12.06
356.075	11.99
356.285	11.82
356.494	11.62
356.704	11.48
356.913	11.29
357.123	11.16
357.332	11
357.542	11.24
357.751	11.62
357.96	11.47
358.17	11.46
358.379	11.66
358.589	11.38
358.798	11.26
359.007	11.17
359.217	11.11
359.426	11.04
359.635	11.13
359.845	11.04
360.054	10.86
360.263	10.88
360.472	10.76
360.682	10.62
360.891	10.56
361.1	10.61
361.309	10.67
361.519	10.57
361.728	10.56
361.937	10.44
362.146	10.26
362.355	10.08
362.564	10.18
362.774	10.29
362.983	10.21
363.192	10.41
363.401	10.23
363.61	10.11
363.819	10.43
364.028	10.56
364.237	10.57
364.446	10.7
364.655	10.58
364.864	10.32
365.073	10.16
365.282	10.31
365.491	10.27
365.7	10.42
365.909	10.55
366.118	10.18
366.327	10.07
366.536	10.41
366.745	10.34
366.954	10.54
367.162	10.63
367.371	10.53
367.58	10.75
367.789	10.77
367.998	10.76
368.207	10.77
368.415	10.85
368.624	10.85
368.833	10.51
369.042	10.43
369.25	10.55
369.459	10.53
369.668	10.53
369.877	9.94
370.085	9.84
370.294	9.75
370.503	9.55
370.711	9.54
370.92	9.39
371.129	9.65
371.337	9.71
371.546	9.46
371.754	9.46
371.963	9.55
372.171	9.51
372.38	9.24
372.589	9.36
372.797	9.37
373.006	9.15
373.214	9.21
373.423	9.06
373.631	8.98
373.84	8.87
374.048	8.86
374.256	8.82
374.465	9.02
374.673	9.1
374.882	8.95
375.09	8.92
375.298	8.95
375.507	8.96
375.715	8.92
375.923	8.79
376.132	8.96
376.34	8.95
376.548	8.89
376.757	8.72
376.965	8.78
377.173	8.72
377.381	8.51
377.59	8.43
377.798	8.54
378.006	8.32
378.214	8.47
378.423	8.31
378.631	8.38
378.839	8.34
379.047	8.38
379.255	8.55
379.463	8.46
379.671	8.43
379.879	8.38
380.088	8.18
380.296	8.17
380.504	8
380.712	8.09
380.92	7.88
381.128	7.81
381.336	7.64
381.544	7.71
381.752	7.67
381.96	7.91
382.168	7.84
382.376	7.55
382.584	7.62
382.791	7.52
382.999	7.41
383.207	7.58
383.415	7.55
383.623	7.77
383.831	7.55
384.039	7.77
384.247	7.53
384.454	7.6
384.662	7.89
384.87	7.89
385.078	7.9
385.285	7.74
385.493	7.59
385.701	7.48
385.909	7.27
386.116	7.31
386.324	7.21
386.532	7.28
386.739	7.3
386.947	7.11
387.155	6.94
387.362	7.1
387.57	7.21
387.778	7.17
387.985	7.18
388.193	7.16
388.4	6.84
388.608	6.59
388.816	6.39
389.023	6.33
389.231	6.42
389.438	6.49
389.646	6.11
389.853	6
390.061	5.97
390.268	5.95
390.475	5.95
390.683	6.04
390.89	6.08
391.098	6.19
391.305	6.08
391.512	6.21
391.72	6.23
391.927	6.32
392.135	6.29
392.342	6.37
392.549	6.41
392.756	6.36
392.964	6.33
393.171	6.4
393.378	6.2
393.586	6.27
393.793	6.06
394	6.03
394.207	6.11
394.414	6.17
394.622	6
394.829	5.9
395.036	5.87
395.243	5.81
395.45	5.59
395.657	5.81
395.864	5.77
396.072	5.62
396.279	5.45
396.486	5.34
396.693	5.36
396.9	5.31
397.107	5.5
397.314	5.6
397.521	5.41
397.728	5.53
397.935	5.49
398.142	5.44
398.349	5.65
398.556	5.56
398.763	5.77
398.97	5.69
399.177	5.77
399.383	5.56
399.59	5.47
399.797	5.65
400.004	5.65
400.211	5.45
400.418	5.44
400.625	5.23
400.831	5.34
401.038	4.97
401.245	4.88
401.452	4.75
401.658	4.66
401.865	4.72
402.072	4.7
402.279	4.72
402.485	4.71
402.692	4.71
402.899	4.65
403.105	4.65
403.312	4.74
403.519	4.88
403.725	4.79
403.932	4.9
404.138	4.82
404.345	4.89
404.552	4.88
404.758	4.96
404.965	4.92
405.171	5.01
405.378	4.92
405.584	5.08
405.791	5
405.997	5.14
406.204	4.93
406.41	5.09
406.617	5.07
406.823	5.08
407.029	5.11
407.236	5.16
407.442	5.11
407.649	5.12
407.855	4.92
408.061	5.02
408.268	4.92
408.474	4.96
408.68	4.9
408.887	4.89
409.093	4.81
409.299	4.97
409.505	4.88
409.712	5.03
409.918	5.02
410.124	5.01
410.33	4.84
410.537	4.73
410.743	4.93
410.949	4.76
411.155	4.74
411.361	4.82
411.567	4.47
411.773	4.58
411.98	4.53
412.186	4.53
412.392	4.55
412.598	4.38
412.804	4.56
413.01	4.36
413.216	4.54
413.422	4.49
413.628	4.44
413.834	4.63
414.04	4.62
414.246	4.59
414.452	4.6
414.658	4.58
414.864	4.79
415.07	4.8
415.275	4.88
415.481	4.86
415.687	4.86
415.893	4.79
416.099	4.68
416.305	4.55
416.511	4.53
416.716	4.52
416.922	4.51
417.128	4.45
417.334	4.41
417.539	4.4
417.745	4.35
417.951	4.33
418.157	4.34
418.362	4.34
418.568	4.38
418.774	4.37
418.979	4.4
419.185	4.36
419.391	4.32
419.596	4.22
419.802	4.25
420.008	4.17
420.213	4.07
420.419	4.08
420.624	4.06
420.83	4.08
421.035	4.09
421.241	3.95
421.446	3.95
421.652	3.97
421.857	4.04
422.063	3.96
422.268	3.98
422.474	4.01
422.679	4
422.885	4.01
423.09	4
423.295	3.92
423.501	4.04
423.706	4.08
423.911	4.06
424.117	4.03
424.322	3.96
424.527	3.97
424.733	3.95
424.938	3.96
425.143	3.96
425.349	3.97
425.554	4.02
425.759	4.02
425.964	4.01
426.169	4.07
426.375	4.09
426.58	4.22
426.785	4.29
426.99	4.39
427.195	4.36
427.4	4.46
427.605	4.38
427.811	4.35
428.016	4.34
428.221	4.22
428.426	4.2
428.631	4.12
428.836	4.1
429.041	4.11
429.246	4.11
429.451	4.12
429.656	4.04
429.861	4.14
430.066	4.17
430.271	4.21
430.476	4.24
430.681	4.21
430.886	4.23
431.09	4.3
431.295	4.2
431.5	4.16
431.705	4.15
431.91	4.19
432.115	4.05
432.32	4.06
432.524	3.91
432.729	3.89
432.934	3.91
433.139	4.08
433.343	3.92
433.548	3.94
433.753	3.89
433.958	3.93
434.162	3.96
434.367	4.08
434.572	4.02
434.776	4.17
434.981	4.2
435.186	4.15
435.39	4.06
435.595	4.24
435.799	4.11
436.004	4.14
436.209	4.07
436.413	3.88
436.618	3.84
436.822	3.93
437.027	3.93
437.231	3.88
437.436	3.96
437.64	3.87
437.845	3.9
438.049	3.98
438.253	4.04
438.458	4.05
438.662	4.04
438.867	4.05
439.071	3.97
439.275	3.95
439.48	4.01
439.684	4.02
439.888	4.02
440.093	3.94
440.297	3.96
440.501	3.99
440.706	3.96
440.91	3.96
441.114	3.97
441.318	4.01
441.523	3.94
441.727	3.92
441.931	3.89
442.135	3.94
442.339	3.95
442.543	3.91
442.748	3.89
442.952	4.02
443.156	4.11
443.36	4.1
443.564	4.1
443.768	4.18
443.972	4.25
444.176	4.28
444.38	4.28
444.584	4.29
444.788	4.23
444.992	4.2
445.196	4.12
445.4	4.1
445.604	4.09
445.808	4.09
446.012	4.04
446.216	3.97
446.42	3.9
446.624	3.93
446.828	3.88
447.032	3.94
447.235	3.93
447.439	3.92
447.643	3.93
447.847	3.93
448.051	3.94
448.254	4.01
448.458	4.1
448.662	4.16
448.866	4.04
449.069	4.16
449.273	4.2
449.477	4.25
449.681	4.31
449.884	4.3
450.088	4.31
450.292	4.25
450.495	4.24
450.699	4.18
450.902	4.19
451.106	4.31
451.31	4.2
451.513	4.25
451.717	4.25
451.92	4.22
452.124	4.21
452.327	4.22
452.531	4.21
452.734	4.13
452.938	4.07
453.141	4.05
453.345	4.03
453.548	3.95
453.752	3.82
453.955	3.82
454.158	3.82
454.362	3.87
454.565	3.86
454.769	3.92
454.972	3.92
455.175	4.06
455.379	3.98
455.582	3.89
455.785	4.02
455.988	4.15
456.192	4.04
456.395	3.95
456.598	3.89
456.801	3.92
457.005	3.89
457.208	3.98
457.411	3.92
457.614	3.94
457.817	3.93
458.021	3.87
458.224	3.78
458.427	3.77
458.63	3.86
458.833	3.88
459.036	3.84
459.239	3.86
459.442	3.77
459.645	3.79
459.848	3.79
460.051	3.84
460.254	3.87
460.457	3.86
460.66	3.9
460.863	3.95
461.066	3.93
461.269	3.93
461.472	3.96
461.675	4.07
461.878	4.08
462.081	4.06
462.284	4.04
462.486	4.02
462.689	4.06
462.892	3.97
463.095	3.91
463.298	3.97
463.5	3.99
463.703	4
463.906	3.9
464.109	3.9
464.311	4.02
464.514	4.07
464.717	4.05
464.92	4.01
465.122	4.11
465.325	4.1
465.528	4.11
465.73	4.12
465.933	3.99
466.135	4.07
466.338	4.06
466.541	4.03
466.743	4
466.946	4.1
467.148	4.23
467.351	4.23
467.553	4.13
467.756	4.14
467.958	4.25
468.161	4.23
468.363	4.2
468.566	4.13
468.768	4.15
468.971	4.22
469.173	4.28
469.375	4.15
469.578	4.23
469.78	4.3
469.983	4.19
470.185	4.23
470.387	4.32
470.59	4.36
470.792	4.36
470.994	4.32
471.196	4.18
471.399	4.13
471.601	4.16
471.803	4.06
472.005	4.13
472.208	4.22
472.41	4.13
472.612	4.12
472.814	4.11
473.016	4.17
473.218	4.07
473.421	4.15
473.623	4.13
473.825	4.19
474.027	4.19
474.229	4.15
474.431	4.17
474.633	4.17
474.835	4.21
475.037	4.19
475.239	4.18
475.441	4.2
475.643	4.23
475.845	4.13
476.047	4.01
476.249	4.07
476.451	4.16
476.653	4.13
476.855	4.1
477.057	4.06
477.258	3.99
477.46	4.01
477.662	4.07
477.864	4.02
478.066	3.98
478.268	3.99
478.469	3.97
478.671	3.87
478.873	3.83
479.075	3.82
479.276	3.78
479.478	3.74
479.68	3.71
479.882	3.66
480.083	3.64
480.285	3.7
480.487	3.71
480.688	3.71
480.89	3.74
481.091	3.72
481.293	3.69
481.495	3.67
481.696	3.75
481.898	3.65
482.099	3.65
482.301	3.66
482.502	3.6
482.704	3.59
482.905	3.57
483.107	3.52
483.308	3.51
483.51	3.52
483.711	3.52
483.913	3.52
484.114	3.56
484.315	3.57
484.517	3.59
484.718	3.6
484.92	3.63
485.121	3.64
485.322	3.71
485.524	3.73
485.725	3.78
485.926	3.79
486.127	3.8
486.329	3.8
486.53	3.79
486.731	3.73
486.932	3.73
487.134	3.7
487.335	3.69
487.536	3.63
487.737	3.66
487.938	3.64
488.139	3.67
488.341	3.67
488.542	3.66
488.743	3.68
488.944	3.72
489.145	3.78
489.346	3.77
489.547	3.77
489.748	3.83
489.949	3.76
490.15	3.72
490.351	3.68
490.552	3.66
490.753	3.66
490.954	3.63
491.155	3.6
491.356	3.57
491.557	3.57
491.758	3.6
491.959	3.56
492.159	3.59
492.36	3.65
492.561	3.7
492.762	3.71
492.963	3.76
493.164	3.76
493.364	3.82
493.565	3.84
493.766	3.88
493.967	3.92
494.167	4
494.368	4.06
494.569	4.01
494.769	4.08
494.97	4.1
495.171	4.12
495.371	4.25
495.572	4.26
495.773	4.3
495.973	4.35
496.174	4.34
496.375	4.25
496.575	4.2
496.776	4.25
496.976	4.23
497.177	4.24
497.377	4.25
497.578	4.23
497.778	4.3
497.979	4.31
498.179	4.35
498.38	4.39
498.58	4.52
498.78	4.56
498.981	4.6
499.181	4.61
499.382	4.61
499.582	4.63
499.782	4.66
499.983	4.65
500.183	4.71
500.383	4.73
500.584	4.69
500.784	4.65
500.984	4.74
501.184	4.76
501.385	4.79
501.585	4.79
501.785	4.78
501.985	4.82
502.185	4.93
502.386	5.1
502.586	5.03
502.786	5.08
502.986	5.25
503.186	5.29
503.386	5.29
503.586	5.33
503.786	5.37
503.987	5.48
504.187	5.57
504.387	5.56
504.587	5.43
504.787	5.51
504.987	5.55
505.187	5.44
505.387	5.44
505.587	5.47
505.786	5.54
505.986	5.64
506.186	5.67
506.386	5.55
506.586	5.51
506.786	5.59
506.986	5.65
507.186	5.71
507.386	5.79
507.585	5.84
507.785	5.89
507.985	5.86
508.185	5.87
508.384	5.95
508.584	6.05
508.784	6.13
508.984	6.22
509.183	6.25
509.383	6.26
509.583	6.28
509.782	6.3
509.982	6.3
510.182	6.36
510.381	6.47
510.581	6.44
510.781	6.46
510.98	6.52
511.18	6.64
511.379	6.62
511.579	6.73
511.778	6.86
511.978	6.94
512.177	7
512.377	7.13
512.576	7.09
512.776	7.14
512.975	7.24
513.175	7.29
513.374	7.31
513.573	7.45
513.773	7.49
513.972	7.52
514.172	7.5
514.371	7.62
514.57	7.63
514.77	7.76
514.969	7.89
515.168	8.04
515.367	8.11
515.567	8.11
515.766	8.15
515.965	8.34
516.164	8.36
516.364	8.43
516.563	8.49
516.762	8.55
516.961	8.52
517.16	8.55
517.359	8.56
517.559	8.61
517.758	8.67
517.957	8.72
518.156	8.73
518.355	8.79
518.554	8.89
518.753	9.01
518.952	9.06
519.151	9.25
519.35	9.35
519.549	9.4
519.748	9.48
519.947	9.57
520.146	9.68
520.345	9.67
520.544	9.75
520.743	9.79
520.942	9.79
521.141	9.92
521.339	9.96
521.538	10.03
521.737	10.09
521.936	10.26
522.135	10.33
522.333	10.45
522.532	10.55
522.731	10.69
522.93	10.8
523.129	10.87
523.327	10.88
523.526	10.94
523.725	11.01
523.923	11.1
524.122	11.07
524.321	11.11
524.519	11.12
524.718	11.25
524.917	11.27
525.115	11.33
525.314	11.43
525.512	11.49
525.711	11.54
525.909	11.59
526.108	11.6
526.306	11.67
526.505	11.73
526.703	11.75
526.902	11.72
527.1	11.71
527.299	11.73
527.497	11.73
527.696	11.75
527.894	11.77
528.092	11.77
528.291	11.83
528.489	11.84
528.688	11.87
528.886	11.93
529.084	11.99
529.283	12.1
529.481	12.19
529.679	12.26
529.877	12.33
530.076	12.39
530.274	12.5
530.472	12.58
530.67	12.68
530.869	12.77
531.067	12.84
531.265	12.95
531.463	12.93
531.661	12.98
531.859	13.02
532.057	13.08
532.255	13.15
532.454	13.2
532.652	13.24
532.85	13.33
533.048	13.38
533.246	13.43
533.444	13.44
533.642	13.52
533.84	13.56
534.038	13.65
534.236	13.7
534.434	13.77
534.632	13.81
534.83	13.88
535.027	13.93
535.225	13.95
535.423	14.06
535.621	14.21
535.819	14.26
536.017	14.34
536.215	14.36
536.412	14.39
536.61	14.45
536.808	14.57
537.006	14.63
537.203	14.68
537.401	14.84
537.599	14.91
537.797	14.94
537.994	15.06
538.192	15.13
538.39	15.2
538.587	15.32
538.785	15.38
538.983	15.44
539.18	15.59
539.378	15.64
539.575	15.7
539.773	15.72
539.97	15.79
540.168	15.85
540.366	15.85
540.563	15.95
540.761	16
540.958	16.08
541.155	16.13
541.353	16.12
541.55	16.22
541.748	16.22
541.945	16.29
542.143	16.35
542.34	16.46
542.537	16.63
542.735	16.76
542.932	16.89
543.129	17.02
543.327	17.15
543.524	17.41
543.721	17.64
543.919	17.87
544.116	18.09
544.313	18.36
544.51	18.63
544.708	18.8
544.905	19
545.102	19.25
545.299	19.44
545.496	19.67
545.693	19.73
545.891	19.77
546.088	19.81
546.285	19.79
546.482	19.75
546.679	19.68
546.876	19.67
547.073	19.56
547.27	19.46
547.467	19.33
547.664	19.2
547.861	19.08
548.058	19.03
548.255	18.96
548.452	19.02
548.649	19.03
548.846	19.04
549.043	18.96
549.24	19.03
549.437	18.95
549.633	18.98
549.83	19
550.027	18.98
550.224	19.01
550.421	19.12
550.618	19.09
550.814	18.97
551.011	18.84
551.208	18.8
551.405	18.86
551.601	18.9
551.798	18.93
551.995	18.96
552.191	19.02
552.388	18.93
552.585	18.81
552.781	18.75
552.978	18.81
553.175	18.96
553.371	19.06
553.568	18.95
553.764	19.01
553.961	19.08
554.157	18.96
554.354	18.92
554.55	19.01
554.747	19.09
554.943	19.09
555.14	19.07
555.336	18.95
555.533	18.97
555.729	19.1
555.926	19.08
556.122	19.03
556.318	19.15
556.515	19.3
556.711	19.27
556.907	19.32
557.104	19.42
557.3	19.58
557.496	19.67
557.693	19.81
557.889	19.79
558.085	19.94
558.281	20.07
558.478	20.21
558.674	20.19
558.87	20.29
559.066	20.3
559.262	20.24
559.459	20.15
559.655	20.21
559.851	20.16
560.047	20.19
560.243	20.13
560.439	19.97
560.635	19.84
560.831	19.76
561.027	19.76
561.223	19.8
561.419	19.88
561.615	19.93
561.811	19.97
562.007	20.01
562.203	20.08
562.399	20.11
562.595	20.32
562.791	20.53
562.987	20.59
563.183	20.54
563.379	20.57
563.575	20.6
563.771	20.55
563.966	20.51
564.162	20.48
564.358	20.46
564.554	20.49
564.75	20.41
564.945	20.3
565.141	20.35
565.337	20.37
565.533	20.52
565.728	20.42
565.924	20.45
566.12	20.57
566.315	20.55
566.511	20.54
566.707	20.52
566.902	20.57
567.098	20.6
567.293	20.6
567.489	20.68
567.684	20.61
567.88	20.78
568.076	20.84
568.271	20.8
568.467	20.84
568.662	20.89
568.858	20.94
569.053	20.83
569.248	20.78
569.444	20.91
569.639	21.01
569.835	20.96
570.03	20.92
570.225	21.05
570.421	20.96
570.616	21.03
570.812	21.01
571.007	21.01
571.202	21.13
571.397	21.18
571.593	21.07
571.788	20.95
571.983	21.07
572.178	21.06
572.374	21.04
572.569	21.13
572.764	21.06
572.959	21.15
573.154	21.09
573.35	21.11
573.545	21.09
573.74	21.26
573.935	21.27
574.13	21.23
574.325	21.28
574.52	21.28
574.715	21.29
574.91	21.52
575.105	21.57
575.3	21.73
575.495	21.74
575.69	21.78
575.885	21.84
576.08	21.99
576.275	22.09
576.47	22.33
576.665	22.42
576.86	22.65
577.055	22.79
577.25	22.96
577.444	23.18
577.639	23.43
577.834	23.71
578.029	23.92
578.224	23.98
578.418	24.2
578.613	24.18
578.808	24.29
579.003	24.27
579.197	24.18
579.392	24.11
579.587	24.14
579.781	24.19
579.976	24.15
580.171	24.06
580.365	24.07
580.56	24.02
580.755	24.02
580.949	23.95
581.144	24.07
581.338	24.19
581.533	24.18
581.727	24.08
581.922	24.09
582.116	24.12
582.311	24.17
582.505	24.42
582.7	24.52
582.894	24.67
583.089	24.85
583.283	24.99
583.478	24.98
583.672	25.15
583.866	25.23
584.061	25.14
584.255	25.11
584.449	25.18
584.644	25.14
584.838	25.12
585.032	25.15
585.226	25.09
585.421	24.89
585.615	24.96
585.809	25.02
586.003	25.19
586.198	25.18
586.392	25.28
586.586	25.27
586.78	25.2
586.974	25.25
587.168	25.27
587.363	25.17
587.557	25.11
587.751	25.06
587.945	24.89
588.139	24.64
588.333	24.71
588.527	24.7
588.721	24.58
588.915	24.54
589.109	24.28
589.303	24.2
589.497	24.24
589.691	24.33
589.885	24.24
590.079	24.31
590.273	24.32
590.466	24.41
590.66	24.41
590.854	24.5
591.048	24.66
591.242	24.92
591.436	25.08
591.629	25.3
591.823	25.39
592.017	25.59
592.211	25.68
592.404	25.7
592.598	25.6
592.792	25.79
592.986	25.76
593.179	25.6
593.373	25.49
593.567	25.3
593.76	25.13
593.954	25.06
594.147	24.81
594.341	24.71
594.535	24.77
594.728	24.65
594.922	24.37
595.115	24.28
595.309	24.3
595.502	24.26
595.696	24.09
595.889	24.06
596.083	23.9
596.276	23.96
596.47	23.92
596.663	23.92
596.856	23.98
597.05	24.13
597.243	24.29
597.437	24.33
597.63	24.24
597.823	24.5
598.017	24.5
598.21	24.72
598.403	24.77
598.596	24.94
598.79	24.94
598.983	25.08
599.176	25.14
599.369	25.06
599.563	25.07
599.756	25.3
599.949	25.32
600.142	25.52
600.335	25.41
600.528	25.31
600.722	25.21
600.915	25.18
601.108	25.06
601.301	24.98
601.494	24.97
601.687	25.09
601.88	24.93
602.073	24.78
602.266	24.68
602.459	24.65
602.652	24.67
602.845	24.53
603.038	24.52
603.231	24.34
603.424	24.27
603.617	24.16
603.809	23.87
604.002	23.81
604.195	23.87
604.388	23.9
604.581	23.86
604.774	23.83
604.966	23.89
605.159	23.94
605.352	24.14
605.545	24.15
605.737	24.23
605.93	24.34
606.123	24.52
606.316	24.72
606.508	24.79
606.701	25.09
606.894	25.28
607.086	25.54
607.279	25.67
607.471	25.84
607.664	26.22
607.857	26.7
608.049	27.18
608.242	27.63
608.434	28.16
608.627	28.95
608.819	29.87
609.012	30.99
609.204	32.17
609.397	33.42
609.589	34.93
609.782	36.44
609.974	37.95
610.166	39.45
610.359	41.02
610.551	42.35
610.743	43.48
610.936	44.35
611.128	45.03
611.32	45.53
611.513	45.87
611.705	45.73
611.897	45.49
612.09	44.98
612.282	44.49
612.474	43.77
612.666	42.95
612.858	42.11
613.051	41.34
613.243	40.68
613.435	39.85
613.627	39.18
613.819	38.62
614.011	38.03
614.203	37.46
614.395	36.85
614.588	36.03
614.78	35.24
614.972	34.8
615.164	34.23
615.356	33.41
615.548	32.81
615.74	32.28
615.932	31.74
616.124	31.08
616.315	30.4
616.507	29.88
616.699	29.71
616.891	29.53
617.083	29.02
617.275	28.75
617.467	28.78
617.659	28.44
617.85	28.19
618.042	27.94
618.234	27.93
618.426	27.94
618.618	28.09
618.809	28.04
619.001	27.85
619.193	27.8
619.384	27.65
619.576	27.47
619.768	27.61
619.959	27.41
620.151	27.4
620.343	27.43
620.534	27.5
620.726	27.3
620.917	27.39
621.109	27.5
621.301	27.58
621.492	27.67
621.684	27.7
621.875	27.83
622.067	28.02
622.258	28.25
622.45	28.1
622.641	28.1
622.832	28.28
623.024	28.15
623.215	28.19
623.407	28.11
623.598	28.2
623.789	28.26
623.981	28.21
624.172	28.21
624.363	28.29
624.555	28.42
624.746	28.32
624.937	28.16
625.129	28.23
625.32	28.03
625.511	28.05
625.702	27.72
625.893	27.6
626.085	27.43
626.276	27.38
626.467	27.21
626.658	27.08
626.849	27.12
627.04	27.21
627.231	27.01
627.422	27.12
627.614	27.13
627.805	27.47
627.996	27.64
628.187	27.73
628.378	27.75
628.569	27.88
628.76	27.99
628.951	28.26
629.142	28.45
629.332	28.7
629.523	28.9
629.714	29.2
629.905	29.33
630.096	29.41
630.287	29.72
630.478	29.9
630.669	29.93
630.859	30.04
631.05	29.88
631.241	29.51
631.432	29.45
631.623	29.2
631.813	28.95
632.004	28.61
632.195	28.25
632.385	27.72
632.576	27.42
632.767	27.11
632.957	26.81
633.148	26.61
633.339	26.47
633.529	26.21
633.72	26.02
633.91	25.86
634.101	25.78
634.292	25.75
634.482	25.86
634.673	25.99
634.863	25.96
635.054	25.96
635.244	25.82
635.435	26
635.625	26.16
635.815	26.22
636.006	26.05
636.196	26.05
636.387	26.01
636.577	26.2
636.767	26.04
636.958	26.16
637.148	26.33
637.338	26.47
637.529	26.21
637.719	26.07
637.909	26.12
638.099	26.26
638.29	26.15
638.48	26.26
638.67	26.03
638.86	26.19
639.05	26.21
639.241	26.24
639.431	26.41
639.621	26.55
639.811	26.67
640.001	26.79
640.191	26.93
640.381	26.96
640.571	26.81
640.761	26.99
640.951	27.03
641.141	26.91
641.331	26.6
641.521	26.53
641.711	26.83
641.901	26.67
642.091	26.57
642.281	26.4
642.471	26.52
642.661	26.63
642.851	26.48
643.041	26.47
643.231	26.57
643.42	26.79
643.61	26.77
643.8	26.57
643.99	26.78
644.18	26.74
644.369	26.87
644.559	26.8
644.749	26.78
644.939	26.73
645.128	26.61
645.318	26.48
645.508	26.41
645.697	26.33
645.887	26.41
646.076	26.38
646.266	26.46
646.456	26.47
646.645	26.63
646.835	26.9
647.024	26.9
647.214	26.77
647.403	26.84
647.593	26.97
647.782	26.83
647.972	26.77
648.161	26.73
648.351	26.78
648.54	26.9
648.73	26.86
648.919	26.78
649.108	26.98
649.298	27.3
649.487	27.36
649.677	27.39
649.866	27.39
650.055	27.42
650.244	27.52
650.434	27.54
650.623	27.36
650.812	27.31
651.002	27.28
651.191	27.39
651.38	27.24
651.569	27.19
651.758	27.34
651.947	27.52
652.137	27.79
652.326	27.79
652.515	27.78
652.704	27.82
652.893	27.78
653.082	27.77
653.271	27.52
653.46	27.63
653.649	27.66
653.838	27.32
654.027	27.14
654.216	26.8
654.405	26.81
654.594	26.77
654.783	26.67
654.972	26.7
655.161	26.58
655.35	26.49
655.539	26.36
655.728	26.58
655.916	26.71
656.105	27.04
656.294	27.07
656.483	27.21
656.672	27.14
656.86	27.21
657.049	27.08
657.238	27.09
657.427	27.1
657.615	27.22
657.804	27.06
657.993	26.65
658.181	26.39
658.37	26.4
658.559	25.96
658.747	25.93
658.936	25.9
659.125	25.84
659.313	25.95
659.502	26.09
659.69	25.82
659.879	25.76
660.067	26.16
660.256	26.26
660.444	26.24
660.633	26.62
660.821	26.68
661.01	26.76
661.198	27.13
661.387	27.06
661.575	27.07
661.763	27.32
661.952	27.14
662.14	27.15
662.328	27.28
662.517	27.26
662.705	27.37
662.893	27.39
663.082	27.48
663.27	27.32
663.458	27.55
663.646	27.69
663.834	27.67
664.023	27.92
664.211	27.94
664.399	27.8
664.587	27.76
664.775	27.75
664.963	27.78
665.152	27.87
665.34	28.12
665.528	27.73
665.716	27.74
665.904	27.65
666.092	27.79
666.28	27.68
666.468	27.7
666.656	27.76
666.844	27.83
667.032	27.65
667.22	27.51
667.408	27.36
667.596	27.5
667.784	27.35
667.971	27.33
668.159	27.1
668.347	27.15
668.535	27.32
668.723	27.3
668.911	27.18
669.098	27.24
669.286	27.33
669.474	27.04
669.662	27.16
669.849	27.06
670.037	27.2
670.225	27.27
670.413	27.25
670.6	27.03
670.788	27.12
670.976	27.07
671.163	27.12
671.351	27.08
671.538	27.15
671.726	27.12
671.913	27.22
672.101	27.37
672.289	27.22
672.476	27.17
672.664	27.23
672.851	27.13
673.039	27.14
673.226	27.23
673.413	27.28
673.601	27.48
673.788	27.54
673.976	27.65
674.163	27.46
674.35	27.66
674.538	27.64
674.725	27.79
674.912	27.95
675.1	28.21
675.287	28.19
675.474	27.82
675.662	28
675.849	28.07
676.036	27.9
676.223	27.85
676.411	28.14
676.598	27.97
676.785	28.12
676.972	28.02
677.159	27.44
677.346	27.52
677.533	27.87
677.721	27.79
677.908	27.72
678.095	27.6
678.282	27.61
678.469	27.31
678.656	27.51
678.843	27.03
679.03	26.83
679.217	27.08
679.404	27.01
679.591	26.69
679.778	26.61
679.964	26.33
680.151	26.24
680.338	26.24
680.525	26.22
680.712	26.31
680.899	26.48
681.086	26.61
681.272	26.56
681.459	26.43
681.646	26.6
681.833	26.56
682.02	26.97
682.206	27.32
682.393	27.42
682.58	27.53
682.766	27.6
682.953	27.92
683.14	28.1
683.326	28.42
683.513	28.61
683.7	28.91
683.886	28.8
684.073	28.64
684.259	28.71
684.446	28.71
684.632	28.74
684.819	28.53
685.005	28.22
685.192	28.43
685.378	28.17
685.565	28.39
685.751	28.11
685.938	28.28
686.124	28.09
686.31	28.07
686.497	27.98
686.683	27.88
686.87	28.08
687.056	28.09
687.242	27.84
687.429	27.84
687.615	27.48
687.801	27.6
687.987	27.63
688.174	27.63
688.36	27.7
688.546	27.87
688.732	28.01
688.918	27.75
689.105	28.04
689.291	28.09
689.477	27.88
689.663	28.34
689.849	28.52
690.035	28.43
690.221	28.6
690.407	28.36
690.593	28.16
690.779	28.1
690.965	28.36
691.151	28.14
691.337	28.09
691.523	28.42
691.709	28.07
691.895	28.13
692.081	28.24
692.267	28.37
692.453	28.56
692.639	28.73
692.825	28.93
693.011	28.84
693.196	28.7
693.382	28.66
693.568	28.62
693.754	28.61
693.94	28.4
694.125	28.35
694.311	28.23
694.497	28.12
694.682	27.91
694.868	27.65
695.054	27.64
695.239	27.66
695.425	27.65
695.611	27.55
695.796	27.59
695.982	27.67
696.168	27.28
696.353	27.17
696.539	26.94
696.724	27.23
696.91	27.19
697.095	26.94
697.281	26.84
697.466	26.57
697.652	26.33
697.837	25.84
698.023	25.61
698.208	25.86
698.393	25.79
698.579	25.75
698.764	25.52
698.949	25.32
699.135	25.46
699.32	25.49
699.505	25.75
699.691	25.88
699.876	26.28
700.061	26.45
700.246	26.49
700.432	26.5
700.617	26.9
700.802	26.89
700.987	27
701.172	26.71
701.358	26.98
701.543	27.04
701.728	27.07
701.913	27.32
702.098	27.46
702.283	27.8
702.468	28.16
702.653	27.95
702.838	28.29
703.023	28.7
703.208	29.04
703.393	29.18
703.578	29.29
703.763	29.75
703.948	29.73
704.133	30.18
704.318	30.22
704.503	30.53
704.688	31.16
704.873	31.5
705.057	31.96
705.242	32.66
705.427	32.88
705.612	33.09
705.797	33.44
705.981	33.92
706.166	34.03
706.351	34.79
706.536	35.24
706.72	35.42
706.905	35.81
707.09	35.85
707.274	35.98
707.459	36.14
707.644	36.76
707.828	36.72
708.013	36.89
708.197	36.29
708.382	35.64
708.567	35.18
708.751	35.15
708.936	34.4
709.12	34.01
709.305	33.68
709.489	33.38
709.673	32.91
709.858	32.83
710.042	32.63
710.227	33.12
710.411	33.23
710.596	33.3
710.78	32.89
710.964	33.38
711.149	33.55
711.333	33.56
711.517	33.62
711.702	33.6
711.886	33.61
712.07	33.71
712.254	33.45
712.438	33.3
712.623	33.33
712.807	33.16
712.991	32.55
713.175	32.39
713.359	32.02
713.544	31.83
713.728	31.4
713.912	30.77
714.096	30.16
714.28	29.74
714.464	29.32
714.648	28.98
714.832	28.81
715.016	28.61
715.2	28.49
715.384	28.32
715.568	27.88
715.752	27.62
715.936	27.7
716.12	27.45
716.304	27.46
716.488	27.38
716.671	27.17
716.855	26.93
717.039	27.02
717.223	26.61
717.407	27.34
717.59	27.57
717.774	27.55
717.958	27.61
718.142	27.85
718.325	27.78
718.509	28.05
718.693	27.83
718.877	28.28
719.06	28.31
719.244	28.46
719.428	27.92
719.611	27.79
719.795	28.25
719.978	28.29
720.162	28.3
720.345	28.73
720.529	29.17
720.713	29.52
720.896	29.35
721.08	29.43
721.263	30.02
721.446	30.08
721.63	30.3
721.813	30.21
721.997	30.15
722.18	30
722.364	30.29
722.547	30.16
722.73	30.26
722.914	30.8
723.097	30.97
723.28	30.62
723.464	30.08
723.647	29.69
723.83	29.57
724.013	29.64
724.197	29.68
724.38	29.21
724.563	28.87
724.746	28.62
724.929	28.13
725.112	28.36
725.296	28.25
725.479	28.82
725.662	29.09
725.845	28.62
726.028	28.6
726.211	28.55
726.394	28.77
726.577	28.18
726.76	28.47
726.943	28.61
727.126	28.25
727.309	28.5
727.492	28.09
727.675	27.81
727.858	27.89
728.041	27.62
728.224	27.48
728.407	27.2
728.589	27.64
728.772	27.49
728.955	27.54
729.138	27.82
729.321	27.86
729.503	28.21
729.686	28.15
729.869	28.42
730.052	28.98
730.234	29.4
730.417	29.04
730.6	29.15
730.782	29.04
730.965	28.75
731.148	28.52
731.33	28.21
731.513	28.07
731.695	28
731.878	28.29
732.061	27.91
732.243	27.84
732.426	28.17
732.608	28.03
732.791	28.18
732.973	28.3
733.156	28.29
733.338	28.48
733.52	28.4
733.703	28.66
733.885	28.57
734.068	28.53
734.25	28.25
734.432	28.53
734.615	28.59
734.797	28.9
734.979	29.32
735.162	29.36
735.344	29.47
735.526	29.78
735.708	30.24
735.891	30.24
736.073	30.39
736.255	30.29
736.437	29.99
736.619	30.19
736.802	29.65
736.984	29.06
737.166	28.86
737.348	28.59
737.53	28.55
737.712	28.58
737.894	28.79
738.076	28.62
738.258	28.69
738.44	28.95
738.622	29.07
738.804	29.7
738.986	30.35
739.168	30.13
739.35	30.35
739.532	30.39
739.714	30.29
739.896	30.12
740.078	30.59
740.259	31.1
740.441	30.81
740.623	30.65
740.805	30.82
740.987	30.35
741.168	31.22
741.35	30.77
741.532	31.06
741.714	31.07
741.895	30.71
742.077	30.75
742.259	30.86
742.44	31.25
742.622	31.1
742.804	31.26
742.985	31.74
743.167	31.66
743.348	32.15
743.53	32.28
743.711	32.13
743.893	32.64
744.075	32.09
744.256	31.64
744.438	31.78
744.619	31.83
744.8	31.16
744.982	31.34
745.163	30.79
745.345	31.1
745.526	30.87
745.707	30.48
745.889	30.45
746.07	30.87
746.252	31.19
746.433	30.62
746.614	30.91
746.795	31.39
746.977	31.6
747.158	31.94
747.339	31.85
747.52	31.97
747.702	32.79
747.883	32.65
748.064	33.06
748.245	32.95
748.426	33.68
748.607	33.76
748.788	33.45
748.97	32.32
749.151	32.22
749.332	32.29
749.513	32.6
749.694	32.12
749.875	32.22
750.056	31.56
750.237	31.84
750.418	31.22
750.599	31.38
750.78	31.22
750.96	31.73
751.141	32.02
751.322	31.37
751.503	31.69
751.684	32.32
751.865	32.43
752.046	32.81
752.226	32.76
752.407	33.01
752.588	32.17
752.769	32.77
752.949	32.62
753.13	32.23
753.311	33.09
753.492	32.6
753.672	32.47
753.853	32.63
754.034	32.41
754.214	32.8
754.395	33.13
754.575	33.63
754.756	33.04
754.937	33.42
755.117	34.06
755.298	33.68
755.478	33.76
755.659	33.61
755.839	33.05
756.02	33.34
756.2	32.67
756.381	32.28
756.561	32.32
756.741	32.85
756.922	32.29
757.102	31.92
757.283	32.16
757.463	31.68
757.643	31.85
757.823	31.73
758.004	30.85
758.184	30.69
758.364	30
758.545	30.06
758.725	29.61
758.905	29.96
759.085	29.37
759.265	29.04
759.446	28.29
759.626	28.2
759.806	28.08
759.986	29
760.166	28.9
760.346	29.72
760.526	29.98
760.706	30.07
760.886	29.66
761.066	30.96
761.246	30.72
761.426	31.35
761.606	30.81
761.786	30.73
761.966	29.84
762.146	29.91
762.326	29.25
762.506	28.67
762.686	27.83
762.866	27.55
763.046	26.38
763.225	26.23
763.405	25.92
763.585	25.86
763.765	25.92
763.945	25.95
764.124	25.65
764.304	25.68
764.484	25.66
764.664	26.36
764.843	26.53
765.023	27.2
765.203	27.22
765.382	27.53
765.562	27.93
765.741	27.86
765.921	28.4
766.101	28.72
766.28	29.1
766.46	29.51
766.639	29.36
766.819	29.74
766.998	29.97
767.178	30.75
767.357	31.34
767.537	31.18
767.716	31.29
767.896	31.62
768.075	31.89
768.254	32.43
768.434	32.97
768.613	33.17
768.792	33.74
768.972	33.22
769.151	33.2
769.33	32.96
769.51	33.77
769.689	34.71
769.868	35.03
770.047	35.71
770.226	35.62
770.406	35.52
770.585	35.4
770.764	35.28
770.943	35.8
771.122	36.09
771.301	36.03
771.48	35.36
771.66	35.34
771.839	34.25
772.018	34.16
772.197	33.45
772.376	33.21
772.555	33.66
772.734	33.43
772.913	33.73
773.092	33.39
773.271	33.53
773.449	34.41
773.628	33.83
773.807	34.68
773.986	34.69
774.165	35.71
774.344	36.27
774.523	35.78
774.701	36.03
774.88	36.32
775.059	37.44
775.238	37.27
775.417	36.23
775.595	36.43
775.774	36.47
775.953	36.14
776.131	36.22
776.31	35.21
776.489	35.16
776.667	34.87
776.846	33.85
777.025	32.81
777.203	32.73
777.382	33.23
777.56	33.2
777.739	32.38
777.917	32.2
778.096	32.47
778.274	33
778.453	33.96
778.631	34.11
778.81	34.49
778.988	33.96
779.166	34.28
779.345	34.25
779.523	34.58
779.702	35.18
779.88	35.8
780.058	34.14
780.237	34.3
780.415	33.2
780.593	32.93
780.771	32.87
780.95	33.38
781.128	33.03
781.306	33.72
781.484	34.08
781.662	33.62
781.841	33.98
782.019	34.07
782.197	34.38
782.375	35.38
782.553	35.29
782.731	35.06
782.909	34.81
783.087	35.44
783.265	34.84
783.443	34.79
783.621	35.87
783.799	35.48
783.977	36.14
784.155	35.4
784.333	34.96
784.511	34.76
784.689	35
784.867	35.4
785.045	36.24
785.223	35.21
785.4	34.98
785.578	33.75
785.756	33.01
785.934	33.62
786.112	34.43
786.289	34.49
786.467	33.82
786.645	34.17
786.823	34.25
787	32.76
787.178	34.17
787.356	33.92
787.533	34.08
787.711	33.83
787.889	33.91
788.066	33.98
788.244	34.05
788.421	35.12
788.599	34.52
788.776	33.87
788.954	34.13
789.131	33.19
789.309	33.54
789.486	33.28
789.664	33.31
789.841	32.04
790.019	32.1
790.196	31.97
790.373	31.04
790.551	31.56
790.728	31.92
790.906	31.4
791.083	31.54
791.26	31.13
791.437	31.28
791.615	32.14
791.792	32.9
791.969	31.9
792.146	32.12
792.324	33.12
792.501	32.44
792.678	32.65
792.855	32.86
793.032	33.65
793.209	34.32
793.387	34.41
793.564	34.5
793.741	34.32
793.918	34.76
794.095	34.06
794.272	34.57
794.449	35.71
794.626	35.27
794.803	34.07
794.98	33.89
795.157	33.79
795.334	34.68
795.511	33.9
795.688	32.4
795.864	30.95
796.041	31.09
796.218	29.96
796.395	27.66
796.572	27.36
796.749	28.02
796.925	28.09
797.102	27.87
797.279	27.9
797.456	28.21
797.632	30.01
797.809	31.25
797.986	32.22
798.162	33.61
798.339	35.33
798.516	35.5
798.692	36.47
798.869	36.58
799.046	37.37
799.222	37.17
799.399	38.31
799.575	38.15
799.752	38.24
799.928	37.67
800.105	36.43
800.281	36.83
800.458	37.35
800.634	36.86
800.811	36.21
800.987	35.39
801.163	34.89
801.34	34.2
801.516	34.25
801.692	33.61
801.869	33.42
802.045	33.24
802.221	32.66
802.398	33.55
802.574	33.87
802.75	33.09
802.926	32.64
803.103	33.64
803.279	34.56
803.455	35.7
803.631	36.66
803.807	37.12
803.983	37.57
804.16	37.99
804.336	36.88
804.512	36.57
804.688	37.68
804.864	37.66
805.04	36.95
805.216	35.38
805.392	34.69
805.568	34.97
805.744	34.74
805.92	34.82
806.096	34.56
806.272	35.67
806.448	35.58
806.623	35.55
806.799	35
806.975	35.77
807.151	36.47
807.327	35.09
807.503	33.56
807.678	33.76
807.854	34.4
808.03	34.66
808.206	33.9
808.381	34.61
808.557	35.79
808.733	38.11
808.908	37.2
809.084	36.55
809.26	37.77
809.435	38.88
809.611	37.44
809.787	36.12
809.962	35.53
810.138	35.48
810.313	34.98
810.489	33.51
810.664	32.31
810.84	31.68
811.015	31.86
811.191	32.24
811.366	31.83
811.542	32.64
811.717	33.36
811.892	34.24
812.068	33.3
812.243	32.57
812.419	32.83
812.594	32.39
812.769	32.48
812.944	31.94
813.12	30.66
813.295	31.88
813.47	31.29
813.645	31.95
813.821	31.28
813.996	31.91
814.171	32.63
814.346	32.52
814.521	33.46
814.697	33.72
814.872	33.91
815.047	34.29
815.222	33.68
815.397	34.06
815.572	33.99
815.747	34.31
815.922	35.17
816.097	34.52
816.272	35.89
816.447	35.12
816.622	36.11
816.797	36.72
816.972	36.84
817.147	36.45
817.322	36.29
817.496	36
817.671	36.59
817.846	35.32
818.021	36.28
818.196	34.51
818.371	34.06
818.545	32.52
818.72	31.91
818.895	32.18
819.069	31.7
819.244	31.35
819.419	30.93
819.594	29.72
819.768	29.91
819.943	28.46
820.117	27.79
820.292	27.74
820.467	26.56
820.641	26.07
820.816	24.92
820.99	24.52
821.165	24.1
821.339	23.66
821.514	23.4
821.688	23.27
821.863	23.16
822.037	23
822.212	22.81
822.386	22.9
822.56	22.99
822.735	23.1
822.909	23.39
823.084	23.45
823.258	23.44
823.432	23.5
823.606	23.52
823.781	23.64
823.955	24.03
824.129	24.06
824.303	24.33
824.478	24.61
824.652	24.86
824.826	24.55
825	24.56
825.174	25.09
825.348	25.34
825.523	25.42
825.697	25.75
825.871	25.73
826.045	25.4
826.219	25.51
826.393	25.03
826.567	24.77
826.741	25.08
826.915	25.34
827.089	25.33
827.263	25.51
827.437	25.27
827.611	25.41
827.784	25.86
827.958	26.06
828.132	25.96
828.306	26.53
828.48	26.57
828.654	26.16
828.827	26.14
829.001	26.03
829.175	25.99
829.349	26.84
829.522	25.92
829.696	25.85
829.87	26.56
830.044	26.58
830.217	26.32
830.391	27.26
830.565	28.19
830.738	29.21
830.912	30.09
831.085	29.51
831.259	29.16
831.432	31.27
831.606	30.38
831.779	29.99
831.953	31.28
832.126	30.6
832.3	29.88
832.473	29.13
832.647	29.19
832.82	28.3
832.994	27.8
833.167	28.59
833.34	27.57
833.514	27.22
833.687	27.25
833.86	26.88
834.034	26.92
834.207	26.67
834.38	26.84
834.553	26.04
834.727	25.81
834.9	27.16
835.073	26.84
835.246	27.8
835.419	27.97
835.593	28.25
835.766	28.98
835.939	29.85
836.112	30.71
836.285	32.16
836.458	32.51
836.631	32.46
836.804	31.67
836.977	32.19
837.15	31.88
837.323	33.08
837.496	32.22
837.669	31.13
837.842	28.9
838.015	29.11
838.188	27.82
838.361	28.52
838.533	31.5
838.706	31.1
838.879	30.94
839.052	31.64
839.225	32.15
839.398	33.78
839.57	34.88
839.743	36.07
839.916	36.41
840.088	36.23
840.261	36.63
840.434	36.18
840.607	36.81
840.779	36.55
840.952	36.21
841.124	35.38
841.297	35.6
841.47	36.87
841.642	36.62
841.815	36.84
841.987	37.41
842.16	40.47
842.332	40.05
842.505	41.55
842.677	42.93
842.85	44.86
843.022	47.42
843.194	49.9
843.367	48.41
843.539	50.63
843.712	50.46
843.884	52.35
844.056	51.12
844.229	51.8
844.401	52.5
844.573	50.65
844.745	48.21
844.918	47.99
845.09	43.31
845.262	43.61
845.434	41.71
845.606	39.69
845.779	39.39
845.951	38.72
846.123	40.26
846.295	41.51
846.467	41.92
846.639	43.84
846.811	40.7
846.983	42.66
847.155	40.85
847.327	41.59
847.499	46.87
847.671	43.6
847.843	43.5
848.015	45.71
848.187	43.64
848.359	44.85
848.531	42.6
848.703	44.1
848.875	42.52
849.047	41.95
849.218	42.18
849.39	38.19
849.562	41
849.734	43.6
849.905	40.11
850.077	38.56
850.249	38.99
850.421	36.94
850.592	42.07
850.764	47.49
850.936	49.96
851.107	50.43
851.279	52.4
851.451	52.82
851.622	49.58
851.794	51.18
851.965	53.58
852.137	51.98
852.308	52.29
852.48	50.52
852.651	50.51
852.823	49.47
852.994	50.37
853.166	49.23
853.337	51.45
853.509	54.1
853.68	51.85
853.851	51.23
854.023	50.1
854.194	52.29
854.365	49.92
854.537	47.94
854.708	52.04
854.879	49.78
855.05	50.13
855.222	49.91
855.393	45.91
855.564	49.16
855.735	47.83
855.906	46.86
856.078	50.09
856.249	50.06
856.42	49.29
856.591	45.54
856.762	49.04
856.933	46.76
857.104	44.61
857.275	45.29
857.446	43.79
857.617	47.4
857.788	49.27
857.959	46.51
858.13	47.21
858.301	45.96
858.472	46.43
858.643	43.01
858.814	47.61
858.985	50.52
859.155	52.99
859.326	51.34
859.497	49.49
859.668	49.31
859.839	52.14
860.009	49.62
860.18	53.09
860.351	54
860.522	59.15
860.692	57.84
860.863	58.21
861.034	59.97
861.204	60.8
861.375	57.3
861.546	56.22
861.716	56.56
861.887	57.23
862.057	50.24
862.228	50.05
862.398	45.49
862.569	43.01
862.739	39.96
862.91	38.29
863.08	38.05
863.251	40.15
863.421	43.27
863.592	40.28
863.762	42.78
863.932	49.07
864.103	48.49
864.273	48.95
864.443	49.82
864.614	49.88
864.784	48.74
864.954	50.11
865.125	51.91
865.295	52.47
865.465	51.69
865.635	44.43
865.805	43.6
865.976	43.78
866.146	41.3
866.316	44.1
866.486	46.38
866.656	49.24
866.826	51.19
866.996	48.38
867.166	46.58
867.336	50.37
867.506	54.36
867.676	51.69
867.846	55.2
868.016	59.39
868.186	55.59
868.356	55.96
868.526	53.56
868.696	50.3
868.866	51.22
869.036	50.65
869.206	47.77
869.376	49.01
869.545	53.2
869.715	52.76
869.885	51.13
870.055	55.69
870.224	55.91
870.394	59.87
870.564	64
870.734	62.56
870.903	64
871.073	57.46
871.243	59.01
871.412	56.09
871.582	55.23
871.751	54.97
871.921	53.28
872.091	46.98
872.26	44.78
872.43	42.81
872.599	40.54
872.769	40.82
872.938	49.01
873.108	45.46
873.277	47.29
873.446	44.33
873.616	42.09
873.785	45.15
873.955	45.66
874.124	43.96
874.293	42.52
874.463	42.38
874.632	43.55
874.801	41.85
874.971	45.43
875.14	46.49
875.309	42.8
875.478	43.65
875.647	38.11
875.817	41.04
875.986	39.53
876.155	40.54
876.324	45.91
876.493	41.93
876.662	44.09
876.831	45.64
877	43.06
877.17	48.45
877.339	53.25
877.508	53.45
877.677	55.38
877.846	58.96
878.015	58.23
878.184	54.97
878.352	54.7
878.521	52.59
878.69	48.78
878.859	45.72
879.028	44.85
879.197	45.09
879.366	44.4
879.534	43.24
879.703	37.15
879.872	34.24
880.041	35.23
880.21	32.81
880.378	30.39
880.547	29.46
880.716	29.56
880.884	28.86
881.053	26.6
881.222	26.26
881.39	25.39
881.559	26.01
881.727	25.95
881.896	25.01
882.065	25.07
882.233	24.88
882.402	24.51
882.57	24.45
882.739	24.55
882.907	24.52
883.076	24.45
883.244	23.78
883.412	23.32
883.581	23.59
883.749	24.02
883.918	24.34
884.086	25.35
884.254	25.78
884.423	25.27
884.591	25.08
884.759	25.03
884.927	25.94
885.096	27.16
885.264	28.84
885.432	29.35
885.6	30.21
885.769	30.52
885.937	30.8
886.105	30.97
886.273	33.31
886.441	33.14
886.609	33.19
886.777	32.44
886.945	32.58
887.113	34.9
887.281	33.97
887.449	34.83
887.617	36.43
887.785	37.06
887.953	38.5
888.121	34.5
888.289	36.23
888.457	40.13
888.625	41.25
888.793	43.82
888.961	40.24
889.129	43.28
889.296	43.52
889.464	42.29
889.632	39.87
889.8	40.09
889.967	48.31
890.135	50.86
