Data from 2938751__Reflection_03.txt Node
Date: Sat Mar 14 14:35:20 EDT 2015
User: robert
Spectrometer: USB4E03002
Autoset integration time: false
Trigger mode: 4
Integration Time (sec): 1.000000E-1
Scans to average: 10
Electric dark correction enabled: false
Nonlinearity correction enabled: false
Boxcar width: 5
Stray light correction enabled: false
XAxis mode: Wavelengths
Stop averaging: false
Number of Pixels in Spectrum: 3648
>>>>>Begin Spectral Data<<<<<
177.575	120.99
177.794	209.69
178.014	248.91
178.233	267.65
178.452	237.97
178.672	217.13
178.891	282.24
179.11	155.14
179.33	220.63
179.549	-2412.5
179.768	-85.25
179.987	-9.81
180.207	-0.99
180.426	-32.85
180.645	-72.49
180.864	12.97
181.084	-5.54
181.303	-38.37
181.522	-10.94
181.741	-8.12
181.96	-171.18
182.179	1663.64
182.398	387.5
182.618	601.96
182.837	514.88
183.056	218
183.275	239.83
183.494	174.89
183.713	136.36
183.932	155.97
184.151	188.21
184.37	445
184.589	-101.2
184.808	-10.4
185.027	-71.92
185.246	-52.69
185.465	-91.24
185.684	-46.27
185.903	-15.82
186.122	45.15
186.341	14.93
186.56	150.47
186.779	233.54
186.998	1200
187.216	-79.76
187.435	-429.41
187.654	323.53
187.873	142.33
188.092	181.03
188.311	262.5
188.53	92.71
188.748	121.36
188.967	31.3
189.186	161.82
189.405	315.63
189.623	-1611.11
189.842	-287.8
190.061	301.06
190.28	-286.49
190.498	-8100
190.717	3158.33
190.936	917.02
191.154	-787.72
191.373	5688.89
191.592	-429.59
191.81	-1170.45
192.029	-836.36
192.248	618.07
192.466	-1400
192.685	0
192.904	-801.82
193.122	-161.42
193.341	-184.91
193.559	-296.27
193.778	-328.87
193.996	-366.39
194.215	-547.5
194.433	-3666.67
194.652	1558.82
194.87	994
195.089	279.3
195.307	312.94
195.526	259.22
195.744	120.79
195.963	118.52
196.181	103.25
196.399	103.53
196.618	115
196.836	110.58
197.055	246.32
197.273	205.67
197.491	-349.21
197.71	1443.75
197.928	-560
198.146	-73.86
198.365	185.59
198.583	163.64
198.801	143.09
199.019	107.85
199.238	120.72
199.456	94.17
199.674	105.73
199.892	84.36
200.111	82.12
200.329	104.91
200.547	107.32
200.765	222.46
200.983	244.14
201.202	197.95
201.42	120.29
201.638	84.12
201.856	-8.9
202.074	-19.08
202.292	33.91
202.51	34.45
202.728	-57.14
202.946	-173.15
203.165	1.94
203.383	-48.19
203.601	-11.27
203.819	2.75
204.037	-7.46
204.255	78.1
204.473	66.86
204.691	67.45
204.909	73.91
205.127	82.21
205.345	92.2
205.562	85.2
205.78	94.53
205.998	85.62
206.216	78.77
206.434	66.49
206.652	33.55
206.87	-20.27
207.088	-156.49
207.306	-535.71
207.523	1060
207.741	11800
207.959	-305.26
208.177	-1040.91
208.395	-722.22
208.612	104.2
208.83	12.5
209.048	-134.55
209.266	-554.17
209.483	2293.33
209.701	-600
209.919	543.02
210.136	4320
210.354	-32.98
210.572	36.36
210.79	22.45
211.007	1.82
211.225	297.14
211.442	12.7
211.66	-58.37
211.878	-26.48
212.095	60.81
212.313	53.91
212.53	59.16
212.748	71.72
212.966	68.49
213.183	53.05
213.401	60.99
213.618	52.53
213.836	71.57
214.053	88.41
214.271	93.82
214.488	174.29
214.705	200
214.923	160.69
215.14	140.62
215.358	-2057.14
215.575	5033.33
215.793	335.16
216.01	4533.33
216.227	240.35
216.445	93.13
216.662	-138.24
216.879	-24.8
217.097	-94.69
217.314	-101.9
217.531	-37.23
217.749	-47.4
217.966	-153.85
218.183	-64.71
218.4	1.38
218.618	44.34
218.835	22.48
219.052	46.25
219.269	56.8
219.487	69.29
219.704	57.07
219.921	51.07
220.138	43.81
220.355	49.68
220.572	66.5
220.79	49.06
221.007	11.28
221.224	19.87
221.441	14.55
221.658	-1.16
221.875	-16.01
222.092	-20.47
222.309	-12.95
222.526	-45.03
222.743	-40.77
222.96	-69.9
223.177	-42.28
223.394	-49.43
223.611	-43.01
223.828	-39.98
224.045	-12.9
224.262	-3.12
224.479	-7.64
224.696	5
224.913	18.75
225.13	17.43
225.347	18.83
225.564	14.57
225.781	18
225.997	18.56
226.214	8.83
226.431	1.43
226.648	-0.72
226.865	-0.09
227.082	-1.01
227.298	2.32
227.515	2.21
227.732	0.45
227.949	1.13
228.165	-0.07
228.382	-0.87
228.599	2.58
228.816	2.76
229.032	4.31
229.249	3.89
229.466	2.58
229.682	0.96
229.899	1.56
230.116	1.75
230.332	1.29
230.549	1.87
230.765	1.4
230.982	0.41
231.199	2.4
231.415	0.07
231.632	1.33
231.848	2.33
232.065	2.16
232.281	-0.21
232.498	1.45
232.714	1.13
232.931	2.21
233.147	2.56
233.364	3.91
233.58	1.68
233.797	4.89
234.013	3.69
234.23	4.34
234.446	6
234.662	7.49
234.879	8.25
235.095	8.39
235.312	10.2
235.528	10.45
235.744	9.39
235.961	7.98
236.177	5.45
236.393	6.32
236.61	5.99
236.826	6.27
237.042	5.02
237.258	4.76
237.475	3.93
237.691	0.92
237.907	0.9
238.123	1.3
238.339	2.99
238.556	7.02
238.772	5.09
238.988	3.82
239.204	2.4
239.42	4.37
239.636	5.67
239.853	6.55
240.069	6.96
240.285	6.2
240.501	4.84
240.717	4.94
240.933	2.92
241.149	4.1
241.365	4.5
241.581	4.22
241.797	2.56
242.013	2.2
242.229	2.3
242.445	2.2
242.661	2.24
242.877	2.44
243.093	2.8
243.309	2.61
243.525	2.02
243.741	2.63
243.957	2.3
244.173	3.36
244.388	2.09
244.604	2.37
244.82	2.45
245.036	3.11
245.252	2.4
245.468	1
245.683	1.6
245.899	1.49
246.115	1.04
246.331	1.51
246.547	1.8
246.762	1.98
246.978	1.75
247.194	2.1
247.409	1.91
247.625	2.01
247.841	2.4
248.057	2.13
248.272	2.28
248.488	2.05
248.703	2.16
248.919	1.39
249.135	1.42
249.35	1.23
249.566	1.06
249.782	0.47
249.997	0.86
250.213	0.54
250.428	1.19
250.644	0.77
250.859	1.22
251.075	-0.01
251.29	0.42
251.506	0.14
251.721	0.3
251.937	-0.9
252.152	0.28
252.368	-0.99
252.583	0.65
252.798	0.06
253.014	0.67
253.229	0.36
253.445	0.84
253.66	2.16
253.875	3.46
254.091	3.39
254.306	4.23
254.521	4.29
254.737	6.13
254.952	3.35
255.167	4.2
255.383	4.44
255.598	3.94
255.813	5.34
256.028	4.59
256.244	3.4
256.459	3.16
256.674	2.98
256.889	1.95
257.104	1.48
257.32	1.43
257.535	0.83
257.75	0.55
257.965	0.75
258.18	0.68
258.395	0.37
258.61	0.43
258.826	0.59
259.041	0.5
259.256	0.66
259.471	0.6
259.686	1
259.901	1.31
260.116	1.32
260.331	1.46
260.546	1.1
260.761	1.12
260.976	0.9
261.191	0.67
261.406	0.69
261.621	0.48
261.836	0.41
262.05	0.35
262.265	-0.16
262.48	0.16
262.695	-0.03
262.91	-0.1
263.125	-0.63
263.34	0.33
263.555	1.11
263.769	1.26
263.984	2.2
264.199	2.59
264.414	2.49
264.629	3.2
264.843	1.84
265.058	1.27
265.273	1.47
265.488	1.61
265.702	1.2
265.917	1.41
266.132	2.28
266.346	1.55
266.561	1.7
266.776	1.22
266.99	0.69
267.205	1.11
267.42	1.52
267.634	1.66
267.849	2.38
268.063	2.72
268.278	2.72
268.492	1.83
268.707	1.88
268.922	1.87
269.136	2.44
269.351	2.77
269.565	2.47
269.78	2.79
269.994	2.1
270.209	1.29
270.423	1.11
270.637	0.46
270.852	0.51
271.066	0.58
271.281	0.53
271.495	0.42
271.709	0.12
271.924	-0.34
272.138	-0.44
272.353	0.26
272.567	0.45
272.781	0.46
272.996	0.67
273.21	0.96
273.424	0.72
273.638	0.58
273.853	0.79
274.067	1.13
274.281	1.97
274.495	1.59
274.71	1.4
274.924	1.5
275.138	0.36
275.352	0.16
275.566	-0.17
275.781	0.24
275.995	-0.14
276.209	-0.68
276.423	-0.63
276.637	-0.97
276.851	-0.89
277.065	-1.14
277.279	-1.08
277.493	0.26
277.707	0.77
277.921	1.1
278.135	0.9
278.349	1.58
278.563	1.32
278.777	0.92
278.991	0.66
279.205	0.62
279.419	0.6
279.633	0.72
279.847	0.72
280.061	0.55
280.275	0.21
280.489	-0
280.703	-0.26
280.917	0.44
281.131	-0.27
281.344	-0.24
281.558	0.08
281.772	0.04
281.986	0.18
282.2	0.08
282.414	-0.36
282.627	-0.22
282.841	-0.14
283.055	-0.31
283.269	-0.24
283.482	0.79
283.696	1.18
283.91	0.81
284.123	0.99
284.337	1
284.551	0.67
284.764	1.12
284.978	0.79
285.192	0.55
285.405	0.7
285.619	-0.02
285.833	-0.28
286.046	-0.28
286.26	0.21
286.473	0.33
286.687	-0.28
286.9	-0.24
287.114	-0.54
287.327	-0.37
287.541	0.04
287.754	0.13
287.968	0.63
288.181	0.55
288.395	0.44
288.608	-0.3
288.822	-0.4
289.035	0.15
289.248	0.45
289.462	0.62
289.675	0.49
289.889	0.62
290.102	0.35
290.315	0.43
290.529	0.73
290.742	0.66
290.955	1.03
291.169	1.11
291.382	1.16
291.595	0.89
291.808	0.77
292.022	0.55
292.235	0.14
292.448	0.29
292.661	-0.37
292.875	-0.82
293.088	-1.21
293.301	-1.5
293.514	-1.46
293.727	-1.57
293.94	-1.36
294.153	-1.16
294.367	-0.81
294.58	-0.48
294.793	-0.3
295.006	0.34
295.219	0.59
295.432	1.11
295.645	1.08
295.858	1.02
296.071	0.98
296.284	0.77
296.497	0.83
296.71	1.14
296.923	0.89
297.136	0.79
297.349	0.36
297.562	0.12
297.775	0.08
297.988	0.29
298.201	0.27
298.414	-0.04
298.626	0.35
298.839	0.28
299.052	0.14
299.265	0.01
299.478	0.26
299.691	0.87
299.903	0.68
300.116	0.51
300.329	0.68
300.542	0.7
300.755	0.79
300.967	0.57
301.18	0.56
301.393	0.21
301.605	0.7
301.818	0.49
302.031	0.47
302.243	0.76
302.456	0.73
302.669	0.16
302.881	0.32
303.094	-0.21
303.307	-0.15
303.519	-0.15
303.732	0.3
303.944	0.37
304.157	0.17
304.37	0.21
304.582	0.36
304.795	0.91
305.007	1.45
305.22	1.29
305.432	2.23
305.645	2.44
305.857	2.37
306.069	1.88
306.282	2.05
306.494	2.08
306.707	1.84
306.919	1.75
307.132	1.36
307.344	0.9
307.556	1.42
307.769	1.15
307.981	1
308.193	1.03
308.406	1.04
308.618	0.67
308.83	1.24
309.043	1.32
309.255	1.56
309.467	1.41
309.679	1.27
309.892	1.01
310.104	0.96
310.316	1.01
310.528	1.11
310.74	1.57
310.953	1.26
311.165	1.09
311.377	1.44
311.589	1.3
311.801	2.04
312.013	2.78
312.225	3.08
312.437	3.5
312.649	3.38
312.862	3.33
313.074	3.09
313.286	3.69
313.498	3.53
313.71	3.48
313.922	3.58
314.134	2.53
314.346	2.25
314.558	1.5
314.77	1.66
314.982	1.07
315.193	1.46
315.405	1.18
315.617	1.16
315.829	1.08
316.041	0.49
316.253	0.42
316.465	0.44
316.677	0.01
316.888	0.35
317.1	0.28
317.312	1
317.524	0.79
317.736	1.47
317.947	1.36
318.159	1.68
318.371	2.02
318.583	2.28
318.794	2.61
319.006	3
319.218	3.27
319.43	3.26
319.641	3.61
319.853	3.74
320.064	3.75
320.276	3.79
320.488	3.55
320.699	4.15
320.911	3.52
321.123	3.65
321.334	3.39
321.546	3.17
321.757	2.96
321.969	2.92
322.18	2.89
322.392	2.76
322.603	3.9
322.815	4.13
323.026	3.72
323.238	4.09
323.449	4.41
323.661	4.71
323.872	4.95
324.083	5.09
324.295	4.91
324.506	5.27
324.718	5.57
324.929	4.77
325.14	4.81
325.352	4.95
325.563	5.23
325.774	5.15
325.986	5.32
326.197	5.68
326.408	5.96
326.62	6.15
326.831	6.27
327.042	6.6
327.253	7.19
327.464	7.89
327.676	8.34
327.887	8.83
328.098	9.57
328.309	9.61
328.52	9.88
328.732	9.77
328.943	10.38
329.154	10.41
329.365	10.07
329.576	9.9
329.787	9.54
329.998	9.36
330.209	9.83
330.42	9.53
330.631	10.07
330.842	10.01
331.053	10.67
331.264	10.75
331.475	10.73
331.686	11.33
331.897	11.38
332.108	11.4
332.319	11.47
332.53	11.02
332.741	11.3
332.952	11.45
333.163	11.73
333.374	11.62
333.585	11.48
333.795	11.94
334.006	12.45
334.217	12.64
334.428	13.34
334.639	13.61
334.849	14
335.06	14.01
335.271	14.06
335.482	14.2
335.692	14.68
335.903	15
336.114	15.14
336.325	14.38
336.535	14.83
336.746	14.92
336.957	15.49
337.167	15.75
337.378	15.92
337.589	16.15
337.799	16.24
338.01	15.99
338.22	16.1
338.431	16.15
338.642	16.28
338.852	16.13
339.063	15.87
339.273	15.8
339.484	15.91
339.694	16.29
339.905	15.88
340.115	15.88
340.326	16.01
340.536	16.21
340.746	15.95
340.957	16.38
341.167	16.32
341.378	16.44
341.588	16.32
341.799	15.95
342.009	15.75
342.219	15.96
342.43	15.94
342.64	16.32
342.85	16.16
343.061	16.58
343.271	16.56
343.481	16.8
343.691	16.88
343.902	17.01
344.112	17.13
344.322	16.88
344.532	16.78
344.743	16.62
344.953	16.19
345.163	16.31
345.373	16.19
345.583	15.9
345.793	15.88
346.004	15.69
346.214	15.44
346.424	15.8
346.634	16.09
346.844	16.28
347.054	16.26
347.264	16.24
347.474	16.17
347.684	15.98
347.894	16.03
348.104	15.95
348.314	16.05
348.524	16.12
348.734	15.48
348.944	15.31
349.154	15.13
349.364	15.33
349.574	15.28
349.784	15.27
349.994	15.47
350.204	15.87
350.413	15.94
350.623	16.05
350.833	15.81
351.043	16.01
351.253	16.09
351.463	16.36
351.672	16.49
351.882	16.69
352.092	16.64
352.302	16.16
352.511	15.78
352.721	15.63
352.931	15.62
353.141	16.11
353.35	16.22
353.56	15.74
353.77	15.6
353.979	15.2
354.189	14.66
354.399	14.73
354.608	14.97
354.818	14.96
355.027	14.76
355.237	14.45
355.447	14.34
355.656	14.7
355.866	14.86
356.075	14.75
356.285	14.84
356.494	15.33
356.704	15.15
356.913	15.29
357.123	15.42
357.332	15.57
357.542	15.91
357.751	15.74
357.96	15.39
358.17	15.54
358.379	15.75
358.589	15.65
358.798	15.39
359.007	15.34
359.217	15.05
359.426	14.93
359.635	15.08
359.845	14.94
360.054	15.01
360.263	14.94
360.472	15.17
360.682	14.89
360.891	15.16
361.1	15.34
361.309	15.49
361.519	15.6
361.728	15.68
361.937	15.62
362.146	15.66
362.355	15.74
362.564	15.69
362.774	15.6
362.983	15.96
363.192	15.74
363.401	15.54
363.61	15.42
363.819	15.43
364.028	15.26
364.237	15.34
364.446	15.36
364.655	15.24
364.864	15.08
365.073	15.07
365.282	14.6
365.491	14.88
365.7	15.17
365.909	15.21
366.118	15.26
366.327	15.55
366.536	15.37
366.745	15.26
366.954	15.39
367.162	15.67
367.371	15.67
367.58	15.86
367.789	15.67
367.998	15.46
368.207	15.74
368.415	15.89
368.624	15.51
368.833	15.39
369.042	15.12
369.25	14.82
369.459	14.67
369.668	14.57
369.877	14.32
370.085	14.21
370.294	13.81
370.503	13.84
370.711	13.74
370.92	13.94
371.129	13.96
371.337	14.2
371.546	14.32
371.754	14.25
371.963	14.08
372.171	14.3
372.38	14.24
372.589	14.8
372.797	14.12
373.006	14.07
373.214	14.14
373.423	14.1
373.631	13.77
373.84	13.46
374.048	13.52
374.256	13.6
374.465	13.61
374.673	13.91
374.882	13.99
375.09	14.05
375.298	13.83
375.507	13.64
375.715	13.52
375.923	13.68
376.132	14.06
376.34	13.86
376.548	13.82
376.757	13.86
376.965	13.72
377.173	13.39
377.381	13.69
377.59	13.95
377.798	13.74
378.006	13.84
378.214	13.94
378.423	13.73
378.631	13.83
378.839	13.95
379.047	13.67
379.255	13.66
379.463	13.66
379.671	13.36
379.879	13.2
380.088	13.58
380.296	13.86
380.504	13.71
380.712	13.93
380.92	13.9
381.128	14.02
381.336	14.23
381.544	14.31
381.752	14.35
381.96	14.5
382.168	14.56
382.376	14.54
382.584	14.44
382.791	14.5
382.999	14.26
383.207	14.33
383.415	13.94
383.623	13.89
383.831	13.88
384.039	13.87
384.247	13.91
384.454	13.95
384.662	13.75
384.87	13.76
385.078	13.55
385.285	13.65
385.493	13.62
385.701	13.74
385.909	13.71
386.116	13.57
386.324	13.5
386.532	13.47
386.739	13.47
386.947	13.4
387.155	13.4
387.362	13.58
387.57	13.48
387.778	13.5
387.985	13.55
388.193	13.51
388.4	13.45
388.608	13.5
388.816	13.48
389.023	13.2
389.231	13.33
389.438	13.42
389.646	13.31
389.853	13.25
390.061	13.26
390.268	13.19
390.475	13.39
390.683	13.36
390.89	13.18
391.098	13.3
391.305	13.35
391.512	13.24
391.72	12.92
391.927	13.11
392.135	13.16
392.342	13.07
392.549	13.17
392.756	13.06
392.964	13.19
393.171	13.3
393.378	13.15
393.586	13.34
393.793	13.38
394	13.69
394.207	13.74
394.414	13.8
394.622	13.96
394.829	14.09
395.036	14.16
395.243	14.02
395.45	14.05
395.657	14.31
395.864	14.17
396.072	14.18
396.279	13.76
396.486	13.77
396.693	13.57
396.9	13.44
397.107	13.18
397.314	13.11
397.521	13.19
397.728	13.27
397.935	13.1
398.142	13.13
398.349	13.41
398.556	13.55
398.763	13.33
398.97	13.53
399.177	13.63
399.383	13.6
399.59	13.66
399.797	13.84
400.004	13.8
400.211	13.83
400.418	13.98
400.625	13.68
400.831	13.74
401.038	13.98
401.245	13.76
401.452	13.73
401.658	13.82
401.865	13.91
402.072	13.78
402.279	13.87
402.485	13.85
402.692	13.71
402.899	13.96
403.105	14.17
403.312	14
403.519	14.28
403.725	14.4
403.932	14.4
404.138	14.34
404.345	14.27
404.552	14.26
404.758	14.39
404.965	14.46
405.171	14.3
405.378	14.17
405.584	14.22
405.791	14.08
405.997	13.93
406.204	13.87
406.41	13.68
406.617	13.72
406.823	13.48
407.029	13.33
407.236	13.15
407.442	13.34
407.649	13.43
407.855	13.33
408.061	13.42
408.268	13.46
408.474	13.55
408.68	13.75
408.887	13.71
409.093	13.96
409.299	13.86
409.505	13.9
409.712	13.8
409.918	13.65
410.124	13.75
410.33	13.49
410.537	13.63
410.743	13.59
410.949	13.67
411.155	13.73
411.361	13.6
411.567	13.57
411.773	13.63
411.98	13.44
412.186	13.58
412.392	13.58
412.598	13.73
412.804	13.7
413.01	13.73
413.216	13.62
413.422	13.76
413.628	14
413.834	14.16
414.04	14.04
414.246	14.05
414.452	13.96
414.658	14.08
414.864	14.06
415.07	14.1
415.275	14.11
415.481	14.14
415.687	13.94
415.893	13.87
416.099	13.78
416.305	13.97
416.511	14.09
416.716	14.02
416.922	13.94
417.128	13.9
417.334	13.88
417.539	13.82
417.745	13.82
417.951	13.86
418.157	13.92
418.362	13.95
418.568	14.02
418.774	14.03
418.979	14.06
419.185	14.03
419.391	14.08
419.596	14.12
419.802	14.26
420.008	14.25
420.213	14.97
420.419	14.96
420.624	14.99
420.83	14.84
421.035	14.85
421.241	14.86
421.446	14.95
421.652	14.97
421.857	14.95
422.063	14.83
422.268	14.82
422.474	14.2
422.679	14.17
422.885	14.24
423.09	14.28
423.295	14.24
423.501	14.35
423.706	14.29
423.911	14.27
424.117	14.29
424.322	14.34
424.527	14.3
424.733	14.37
424.938	14.39
425.143	14.39
425.349	14.35
425.554	14.43
425.759	14.35
425.964	14.38
426.169	14.53
426.375	14.5
426.58	14.53
426.785	14.56
426.99	14.47
427.195	14.49
427.4	14.46
427.605	14.53
427.811	14.54
428.016	14.53
428.221	14.49
428.426	14.25
428.631	14.24
428.836	14.22
429.041	14.31
429.246	14.4
429.451	14.39
429.656	14.43
429.861	14.42
430.066	14.43
430.271	14.43
430.476	14.45
430.681	14.44
430.886	14.53
431.09	14.5
431.295	14.51
431.5	14.42
431.705	14.46
431.91	14.34
432.115	14.47
432.32	14.5
432.524	14.55
432.729	14.63
432.934	14.76
433.139	14.76
433.343	14.86
433.548	14.96
433.753	15.19
433.958	15.25
434.162	15.41
434.367	15.57
434.572	15.62
434.776	15.87
434.981	15.97
435.186	16.15
435.39	16.28
435.595	16.41
435.799	16.34
436.004	16.13
436.209	16.01
436.413	15.88
436.618	15.72
436.822	15.65
437.027	15.49
437.231	15.37
437.436	15.23
437.64	15.04
437.845	14.86
438.049	14.81
438.253	14.89
438.458	14.94
438.662	14.95
438.867	14.88
439.071	14.77
439.275	14.67
439.48	14.49
439.684	14.49
439.888	14.57
440.093	14.56
440.297	14.51
440.501	14.34
440.706	14.33
440.91	14.33
441.114	14.38
441.318	14.38
441.523	14.38
441.727	14.59
441.931	14.58
442.135	14.57
442.339	14.59
442.543	14.71
442.748	14.87
442.952	14.9
443.156	14.9
443.36	14.83
443.564	14.87
443.768	14.81
443.972	14.72
444.176	14.62
444.38	14.58
444.584	14.61
444.788	14.52
444.992	14.5
445.196	14.52
445.4	14.57
445.604	14.63
445.808	14.61
446.012	14.64
446.216	14.68
446.42	14.74
446.624	14.74
446.828	14.65
447.032	14.62
447.235	14.58
447.439	14.6
447.643	14.58
447.847	14.58
448.051	14.63
448.254	14.66
448.458	14.67
448.662	14.61
448.866	14.62
449.069	14.7
449.273	14.77
449.477	14.8
449.681	14.66
449.884	14.6
450.088	14.58
450.292	14.55
450.495	14.61
450.699	14.5
450.902	14.61
451.106	14.6
451.31	14.59
451.513	14.58
451.717	14.58
451.92	14.64
452.124	14.65
452.327	14.64
452.531	14.56
452.734	14.45
452.938	14.49
453.141	14.43
453.345	14.33
453.548	14.32
453.752	14.36
453.955	14.31
454.158	14.32
454.362	14.37
454.565	14.34
454.769	14.46
454.972	14.55
455.175	14.63
455.379	14.67
455.582	14.86
455.785	14.84
455.988	14.81
456.192	14.9
456.395	14.83
456.598	14.82
456.801	14.94
457.005	14.92
457.208	14.97
457.411	14.89
457.614	14.79
457.817	14.76
458.021	14.76
458.224	14.7
458.427	14.65
458.63	14.62
458.833	14.64
459.036	14.57
459.239	14.54
459.442	14.43
459.645	14.42
459.848	14.46
460.051	14.37
460.254	14.39
460.457	14.46
460.66	14.46
460.863	14.6
461.066	14.57
461.269	14.62
461.472	14.68
461.675	14.69
461.878	14.64
462.081	14.6
462.284	14.67
462.486	14.69
462.689	14.64
462.892	14.64
463.095	14.56
463.298	14.49
463.5	14.35
463.703	14.27
463.906	14.27
464.109	14.36
464.311	14.39
464.514	14.39
464.717	14.39
464.92	14.42
465.122	14.46
465.325	14.5
465.528	14.56
465.73	14.64
465.933	14.64
466.135	14.73
466.338	14.85
466.541	14.91
466.743	14.85
466.946	14.85
467.148	14.82
467.351	14.85
467.553	14.87
467.756	14.86
467.958	14.78
468.161	14.83
468.363	14.83
468.566	14.66
468.768	14.68
468.971	14.75
469.173	14.9
469.375	14.84
469.578	14.76
469.78	14.68
469.983	14.74
470.185	14.88
470.387	14.89
470.59	14.81
470.792	14.96
470.994	14.98
471.196	14.94
471.399	14.7
471.601	14.79
471.803	14.88
472.005	14.87
472.208	14.85
472.41	14.79
472.612	14.78
472.814	14.79
473.016	14.83
473.218	14.76
473.421	14.75
473.623	14.71
473.825	14.68
474.027	14.68
474.229	14.7
474.431	14.63
474.633	14.73
474.835	14.68
475.037	14.7
475.239	14.65
475.441	14.67
475.643	14.66
475.845	14.87
476.047	14.85
476.249	14.79
476.451	14.78
476.653	14.94
476.855	14.91
477.057	14.97
477.258	14.95
477.46	14.95
477.662	15
477.864	14.99
478.066	14.98
478.268	15
478.469	14.97
478.671	14.95
478.873	14.84
479.075	14.82
479.276	14.82
479.478	14.87
479.68	14.91
479.882	14.92
480.083	14.86
480.285	14.82
480.487	14.84
480.688	14.93
480.89	14.92
481.091	15.02
481.293	15
481.495	15.04
481.696	15.02
481.898	14.98
482.099	14.99
482.301	15.01
482.502	14.97
482.704	14.96
482.905	14.94
483.107	14.93
483.308	14.85
483.51	14.85
483.711	14.83
483.913	14.8
484.114	14.82
484.315	14.81
484.517	14.85
484.718	14.85
484.92	14.85
485.121	14.84
485.322	14.86
485.524	14.91
485.725	14.89
485.926	14.92
486.127	14.94
486.329	14.92
486.53	14.89
486.731	14.88
486.932	14.93
487.134	14.95
487.335	14.98
487.536	15
487.737	15
487.938	15.02
488.139	15.05
488.341	15.07
488.542	15.1
488.743	15.15
488.944	15.14
489.145	15.13
489.346	15.17
489.547	15.17
489.748	15.14
489.949	15.14
490.15	15.16
490.351	15.16
490.552	15.14
490.753	15.13
490.954	15.11
491.155	15.13
491.356	15.1
491.557	15.04
491.758	15.02
491.959	15.05
492.159	15.08
492.36	15.06
492.561	15.07
492.762	15.11
492.963	15.12
493.164	15.09
493.364	15.06
493.565	15.09
493.766	15.12
493.967	15.12
494.167	15.02
494.368	15.08
494.569	15.21
494.769	15.13
494.97	15.12
495.171	15.16
495.371	15.21
495.572	15.27
495.773	15.27
495.973	15.36
496.174	15.36
496.375	15.5
496.575	15.49
496.776	15.36
496.976	15.42
497.177	15.39
497.377	15.29
497.578	15.32
497.778	15.35
497.979	15.38
498.179	15.27
498.38	15.29
498.58	15.16
498.78	15.11
498.981	15.17
499.181	15.09
499.382	15.04
499.582	15.17
499.782	15.1
499.983	15.07
500.183	15.1
500.383	15.19
500.584	15.25
500.784	15.35
500.984	15.39
501.184	15.31
501.385	15.35
501.585	15.37
501.785	15.31
501.985	15.38
502.185	15.44
502.386	15.38
502.586	15.36
502.786	15.35
502.986	15.39
503.186	15.36
503.386	15.51
503.586	15.58
503.786	15.53
503.987	15.55
504.187	15.66
504.387	15.7
504.587	15.83
504.787	15.8
504.987	15.72
505.187	15.75
505.387	15.8
505.587	15.71
505.786	15.77
505.986	16
506.186	15.96
506.386	15.92
506.586	15.86
506.786	15.85
506.986	15.94
507.186	16.03
507.386	16.06
507.585	16.02
507.785	16.1
507.985	16.07
508.185	15.93
508.384	16.06
508.584	16.04
508.784	16.03
508.984	15.98
509.183	15.95
509.383	15.98
509.583	16.03
509.782	16.14
509.982	16.21
510.182	16.14
510.381	16.26
510.581	16.2
510.781	16.19
510.98	16.22
511.18	16.23
511.379	16.2
511.579	16.16
511.778	16.07
511.978	16
512.177	15.95
512.377	16.07
512.576	16.02
512.776	16.04
512.975	16.18
513.175	16.19
513.374	16.3
513.573	16.4
513.773	16.47
513.972	16.51
514.172	16.71
514.371	16.78
514.57	16.77
514.77	16.86
514.969	16.96
515.168	16.88
515.367	16.97
515.567	16.98
515.766	16.92
515.965	17.02
516.164	17.02
516.364	16.91
516.563	16.96
516.762	16.97
516.961	17.04
517.16	16.98
517.359	17.01
517.559	17.01
517.758	17.03
517.957	17.08
518.156	17.05
518.355	17.13
518.554	17.18
518.753	17.16
518.952	17.23
519.151	17.2
519.35	17.26
519.549	17.27
519.748	17.28
519.947	17.29
520.146	17.39
520.345	17.45
520.544	17.44
520.743	17.44
520.942	17.42
521.141	17.35
521.339	17.32
521.538	17.32
521.737	17.37
521.936	17.39
522.135	17.39
522.333	17.34
522.532	17.35
522.731	17.49
522.93	17.52
523.129	17.58
523.327	17.65
523.526	17.72
523.725	17.78
523.923	17.81
524.122	17.86
524.321	17.91
524.519	18.01
524.718	18.03
524.917	17.96
525.115	17.96
525.314	18.06
525.512	18.12
525.711	18.2
525.909	18.22
526.108	18.22
526.306	18.29
526.505	18.37
526.703	18.38
526.902	18.41
527.1	18.45
527.299	18.52
527.497	18.47
527.696	18.44
527.894	18.46
528.092	18.49
528.291	18.53
528.489	18.54
528.688	18.54
528.886	18.54
529.084	18.54
529.283	18.58
529.481	18.6
529.679	18.67
529.877	18.77
530.076	18.72
530.274	18.8
530.472	18.8
530.67	18.83
530.869	18.84
531.067	18.95
531.265	19.04
531.463	19.06
531.661	19.05
531.859	19.1
532.057	19.09
532.255	19.21
532.454	19.21
532.652	19.23
532.85	19.29
533.048	19.33
533.246	19.34
533.444	19.39
533.642	19.46
533.84	19.57
534.038	19.55
534.236	19.57
534.434	19.6
534.632	19.64
534.83	19.74
535.027	19.8
535.225	19.87
535.423	19.96
535.621	20
535.819	20.05
536.017	20.08
536.215	20.21
536.412	20.35
536.61	20.42
536.808	20.53
537.006	20.62
537.203	20.69
537.401	20.88
537.599	20.92
537.797	20.98
537.994	21.1
538.192	21.25
538.39	21.4
538.587	21.52
538.785	21.73
538.983	21.89
539.18	22.09
539.378	22.27
539.575	22.35
539.773	22.57
539.97	22.79
540.168	22.97
540.366	23.11
540.563	23.19
540.761	23.24
540.958	23.31
541.155	23.38
541.353	23.43
541.55	23.51
541.748	23.59
541.945	23.65
542.143	23.74
542.34	23.79
542.537	23.92
542.735	24.07
542.932	24.24
543.129	24.44
543.327	24.68
543.524	25.06
543.721	25.44
543.919	25.89
544.116	26.38
544.313	26.92
544.51	27.46
544.708	27.9
544.905	28.46
545.102	29.05
545.299	29.48
545.496	29.81
545.693	29.92
545.891	30
546.088	29.81
546.285	29.65
546.482	29.36
546.679	29.12
546.876	28.85
547.073	28.44
547.27	28.06
547.467	27.71
547.664	27.34
547.861	27.15
548.058	26.87
548.255	26.81
548.452	26.66
548.649	26.56
548.846	26.39
549.043	26.31
549.24	26.23
549.437	26.09
549.633	25.96
549.83	25.88
550.027	25.57
550.224	25.44
550.421	25.3
550.618	25.1
550.814	24.92
551.011	24.77
551.208	24.63
551.405	24.52
551.601	24.48
551.798	24.31
551.995	24.11
552.191	24.09
552.388	23.94
552.585	23.83
552.781	23.7
552.978	23.62
553.175	23.52
553.371	23.38
553.568	23.32
553.764	23.24
553.961	23.25
554.157	23.26
554.354	23.25
554.55	23.27
554.747	23.27
554.943	23.25
555.14	23.28
555.336	23.22
555.533	23.32
555.729	23.19
555.926	23.09
556.122	23.05
556.318	23.09
556.515	23.13
556.711	23.1
556.907	23.08
557.104	23.11
557.3	23.09
557.496	23.19
557.693	23.14
557.889	23.25
558.085	23.18
558.281	23.13
558.478	23.2
558.674	23.06
558.87	23.01
559.066	23.01
559.262	23.14
559.459	23.12
559.655	23.12
559.851	23.17
560.047	23.14
560.243	23.31
560.439	23.46
560.635	23.45
560.831	23.5
561.027	23.58
561.223	23.62
561.419	23.57
561.615	23.67
561.811	23.75
562.007	23.67
562.203	23.78
562.399	23.79
562.595	23.66
562.791	23.67
562.987	23.71
563.183	23.74
563.379	23.72
563.575	23.7
563.771	23.59
563.966	23.54
564.162	23.61
564.358	23.47
564.554	23.36
564.75	23.43
564.945	23.38
565.141	23.38
565.337	23.27
565.533	23.33
565.728	23.25
565.924	23.3
566.12	23.27
566.315	23.34
566.511	23.44
566.707	23.48
566.902	23.46
567.098	23.39
567.293	23.41
567.489	23.37
567.684	23.33
567.88	23.45
568.076	23.44
568.271	23.49
568.467	23.49
568.662	23.45
568.858	23.64
569.053	23.64
569.248	23.69
569.444	23.7
569.639	23.84
569.835	23.79
570.03	23.8
570.225	23.82
570.421	23.78
570.616	23.72
570.812	23.71
571.007	23.51
571.202	23.54
571.397	23.53
571.593	23.47
571.788	23.41
571.983	23.4
572.178	23.31
572.374	23.25
572.569	23.26
572.764	23.19
572.959	23.22
573.154	23.17
573.35	23.14
573.545	23.14
573.74	23.13
573.935	23.21
574.13	23.28
574.325	23.45
574.52	23.59
574.715	23.7
574.91	23.89
575.105	24.07
575.3	24.49
575.495	24.67
575.69	24.87
575.885	25.13
576.08	25.44
576.275	25.8
576.47	26.03
576.665	26.18
576.86	26.44
577.055	26.71
577.25	26.87
577.444	26.86
577.639	27.13
577.834	27.33
578.029	27.59
578.224	27.7
578.418	27.74
578.613	27.82
578.808	27.91
579.003	27.83
579.197	27.74
579.392	27.65
579.587	27.69
579.781	27.49
579.976	27.4
580.171	27.3
580.365	27.15
580.56	26.99
580.755	26.88
580.949	26.93
581.144	27.07
581.338	26.92
581.533	27.11
581.727	27.1
581.922	27.13
582.116	27.24
582.311	27.28
582.505	27.45
582.7	27.54
582.894	27.59
583.089	27.63
583.283	27.59
583.478	27.79
583.672	27.6
583.866	27.64
584.061	27.93
584.255	27.95
584.449	27.95
584.644	27.91
584.838	28.12
585.032	28.23
585.226	28.19
585.421	28.56
585.615	28.83
585.809	29.1
586.003	29.41
586.198	29.4
586.392	29.61
586.586	29.7
586.78	29.71
586.974	29.79
587.168	29.73
587.363	29.79
587.557	29.57
587.751	29.21
587.945	29.12
588.139	28.91
588.333	28.77
588.527	28.39
588.721	28.46
588.915	28.43
589.109	28.18
589.303	28.06
589.497	28
589.691	27.87
589.885	27.95
590.079	27.96
590.273	27.86
590.466	27.99
590.66	28.19
590.854	28.12
591.048	28.21
591.242	28.36
591.436	28.51
591.629	28.7
591.823	28.87
592.017	28.95
592.211	29.1
592.404	29.25
592.598	29.23
592.792	29.35
592.986	29.3
593.179	29.23
593.373	29.13
593.567	29
593.76	28.88
593.954	28.71
594.147	28.69
594.341	28.42
594.535	28.33
594.728	28.16
594.922	27.84
595.115	27.73
595.309	27.58
595.502	27.51
595.696	27.48
595.889	27.33
596.083	27.22
596.276	27.09
596.47	27.16
596.663	27.02
596.856	26.92
597.05	27.08
597.243	27.1
597.437	27.26
597.63	27.34
597.823	27.45
598.017	27.62
598.21	27.87
598.403	28.07
598.596	28.11
598.79	28.48
598.983	28.8
599.176	28.9
599.369	29.06
599.563	29.04
599.756	29.22
599.949	29.27
600.142	29.1
600.335	29.07
600.528	28.85
600.722	28.77
600.915	28.57
601.108	28.42
601.301	28.35
601.494	28.22
601.687	28.18
601.88	27.91
602.073	27.8
602.266	27.75
602.459	27.49
602.652	27.44
602.845	27.35
603.038	27.12
603.231	27.06
603.424	26.81
603.617	26.8
603.809	26.75
604.002	26.7
604.195	26.67
604.388	26.61
604.581	26.72
604.774	26.83
604.966	26.93
605.159	27.04
605.352	27.04
605.545	27.23
605.737	27.18
605.93	27.33
606.123	27.51
606.316	27.71
606.508	28.1
606.701	28.35
606.894	28.62
607.086	29.02
607.279	29.38
607.471	29.85
607.664	30.28
607.857	30.97
608.049	31.54
608.242	32.49
608.434	33.66
608.627	35.05
608.819	36.76
609.012	38.71
609.204	40.67
609.397	42.89
609.589	45.48
609.782	48.24
609.974	51.03
610.166	53.95
610.359	56.46
610.551	58.85
610.743	61.22
610.936	62.96
611.128	64.34
611.32	65.5
611.513	66.17
611.705	66.4
611.897	66.23
612.09	65.57
612.282	64.56
612.474	63.53
612.666	62.33
612.858	60.63
613.051	59.39
613.243	58
613.435	56.6
613.627	55.25
613.819	53.86
614.011	52.63
614.203	51.31
614.395	50.06
614.588	48.96
614.78	47.5
614.972	46.29
615.164	44.99
615.356	43.91
615.548	42.64
615.74	41.58
615.932	40.46
616.124	39.36
616.315	38.75
616.507	37.83
616.699	36.95
616.891	36.58
617.083	36.12
617.275	35.39
617.467	34.81
617.659	34.49
617.85	34.06
618.042	33.69
618.234	33.35
618.426	32.93
618.618	32.79
618.809	32.56
619.001	32.06
619.193	31.78
619.384	31.82
619.576	31.64
619.768	31.54
619.959	31.52
620.151	31.6
620.343	31.58
620.534	31.47
620.726	31.43
620.917	31.45
621.109	31.69
621.301	31.78
621.492	32
621.684	32.29
621.875	32.28
622.067	32.52
622.258	32.62
622.45	32.66
622.641	32.82
622.832	32.8
623.024	33.08
623.215	33.31
623.407	33.37
623.598	33.23
623.789	33.15
623.981	33.45
624.172	33.43
624.363	33.49
624.555	33.58
624.746	33.66
624.937	33.77
625.129	33.7
625.32	33.48
625.511	33.38
625.702	33.3
625.893	33.22
626.085	32.97
626.276	32.87
626.467	32.81
626.658	32.6
626.849	32.51
627.04	32.3
627.231	32.27
627.422	32.22
627.614	32.21
627.805	32.21
627.996	32.38
628.187	32.62
628.378	32.81
628.569	33.05
628.76	33.51
628.951	33.99
629.142	34.49
629.332	35.04
629.523	35.49
629.714	35.99
629.905	36.25
630.096	36.53
630.287	36.66
630.478	36.99
630.669	37.05
630.859	37.12
631.05	36.87
631.241	36.51
631.432	35.78
631.623	35.28
631.813	34.34
632.004	34.1
632.195	33.64
632.385	33.22
632.576	32.78
632.767	32.29
632.957	31.61
633.148	31.01
633.339	30.83
633.529	30.7
633.72	30.42
633.91	30.54
634.101	30.35
634.292	30.21
634.482	30.02
634.673	29.75
634.863	29.49
635.054	29.57
635.244	29.74
635.435	29.6
635.625	29.67
635.815	29.8
636.006	29.74
636.196	29.87
636.387	29.87
636.577	29.76
636.767	29.68
636.958	29.75
637.148	29.86
637.338	29.93
637.529	29.93
637.719	29.83
637.909	29.83
638.099	29.77
638.29	29.6
638.48	29.66
638.67	29.75
638.86	29.74
639.05	29.62
639.241	29.55
639.431	29.44
639.621	29.54
639.811	29.45
640.001	29.47
640.191	29.54
640.381	29.62
640.571	29.57
640.761	29.61
640.951	29.62
641.141	29.62
641.331	29.57
641.521	29.46
641.711	29.39
641.901	29.46
642.091	29.53
642.281	29.62
642.471	29.69
642.661	29.79
642.851	29.96
643.041	30.25
643.231	30.35
643.42	30.43
643.61	30.24
643.8	30.3
643.99	30.41
644.18	30.14
644.369	30.13
644.559	30.19
644.749	30.02
644.939	29.82
645.128	29.52
645.318	29.77
645.508	29.64
645.697	30.03
645.887	29.97
646.076	29.87
646.266	30.29
646.456	30.51
646.645	30.36
646.835	30.54
647.024	30.68
647.214	30.79
647.403	30.76
647.593	30.96
647.782	30.96
647.972	31.06
648.161	31.27
648.351	31.11
648.54	31.13
648.73	31.33
648.919	31.62
649.108	31.84
649.298	32.04
649.487	32.15
649.677	32.32
649.866	32.28
650.055	32.52
650.244	32.48
650.434	32.48
650.623	32.33
650.812	32.26
651.002	32.02
651.191	31.94
651.38	31.9
651.569	31.77
651.758	31.5
651.947	31.6
652.137	31.46
652.326	31.31
652.515	31.15
652.704	31.2
652.893	31
653.082	30.97
653.271	30.95
653.46	30.83
653.649	30.88
653.838	30.91
654.027	30.89
654.216	31.12
654.405	31.28
654.594	31.64
654.783	31.29
654.972	31.47
655.161	31.6
655.35	31.52
655.539	31.36
655.728	31.45
655.916	31.65
656.105	31.58
656.294	30.97
656.483	30.86
656.672	30.46
656.86	30.94
657.049	30.84
657.238	30.61
657.427	30.58
657.615	30.78
657.804	30.38
657.993	30.06
658.181	29.86
658.37	30.03
658.559	29.99
658.747	30.2
658.936	29.92
659.125	29.67
659.313	29.69
659.502	29.71
659.69	29.71
659.879	30.01
660.067	30.1
660.256	30.38
660.444	30.57
660.633	30.83
660.821	30.91
661.01	31.11
661.198	31.33
661.387	31.42
661.575	31.55
661.763	31.65
661.952	31.71
662.14	31.86
662.328	32.01
662.517	32
662.705	31.9
662.893	31.82
663.082	31.83
663.27	32.08
663.458	31.94
663.646	31.82
663.834	31.7
664.023	31.78
664.211	31.99
664.399	31.91
664.587	32.08
664.775	32.02
664.963	31.88
665.152	31.85
665.34	31.82
665.528	32.02
665.716	32.02
665.904	32.09
666.092	31.81
666.28	31.59
666.468	31.58
666.656	31.55
666.844	31.38
667.032	31.61
667.22	31.68
667.408	31.59
667.596	31.75
667.784	31.77
667.971	31.49
668.159	31.59
668.347	31.73
668.535	31.51
668.723	31.41
668.911	31.51
669.098	31.49
669.286	31.53
669.474	31.67
669.662	31.33
669.849	31.52
670.037	31.88
670.225	31.89
670.413	32.02
670.6	31.91
670.788	31.85
670.976	31.95
671.163	31.81
671.351	31.68
671.538	31.88
671.726	32.2
671.913	32.07
672.101	31.69
672.289	31.56
672.476	31.2
672.664	31.39
672.851	31.49
673.039	31.36
673.226	31.8
673.413	31.85
673.601	31.67
673.788	31.24
673.976	31.05
674.163	31.52
674.35	31.51
674.538	31.89
674.725	32.11
674.912	32.12
675.1	32.28
675.287	32.04
675.474	32.36
675.662	32.54
675.849	32.69
676.036	32.95
676.223	32.76
676.411	32.8
676.598	32.59
676.785	32.32
676.972	32.36
677.159	32.19
677.346	32.17
677.533	31.93
677.721	31.6
677.908	31.6
678.095	31.36
678.282	31.32
678.469	31.31
678.656	30.87
678.843	30.81
679.03	30.8
679.217	30.83
679.404	30.64
679.591	30.45
679.778	30.61
679.964	30.68
680.151	30.86
680.338	30.98
680.525	30.99
680.712	31.42
680.899	31.73
681.086	31.79
681.272	31.89
681.459	32.19
681.646	32.21
681.833	32.17
682.02	32.05
682.206	31.97
682.393	31.95
682.58	32.07
682.766	32.01
682.953	31.96
683.14	31.77
683.326	31.68
683.513	31.41
683.7	31.57
683.886	31.38
684.073	31.42
684.259	31.59
684.446	31.74
684.632	31.78
684.819	31.85
685.005	32.3
685.192	32.63
685.378	33.02
685.565	33.49
685.751	33.72
685.938	34.04
686.124	34.71
686.31	34.78
686.497	34.68
686.683	34.78
686.87	34.88
687.056	34.61
687.242	34.56
687.429	34.4
687.615	34.44
687.801	34.15
687.987	34.34
688.174	34.07
688.36	34.08
688.546	33.98
688.732	33.94
688.918	33.92
689.105	33.73
689.291	33.59
689.477	33.53
689.663	33.33
689.849	33.86
690.035	33.7
690.221	33.22
690.407	33
690.593	33.12
690.779	33.19
690.965	33.19
691.151	33.36
691.337	33.36
691.523	33.6
691.709	33.7
691.895	33.44
692.081	33.48
692.267	33.92
692.453	34.25
692.639	34.26
692.825	34.53
693.011	34.39
693.196	34.7
693.382	34.84
693.568	34.81
693.754	34.95
693.94	35.1
694.125	35.05
694.311	35.21
694.497	35.32
694.682	35
694.868	34.68
695.054	34.64
695.239	34.16
695.425	34.07
695.611	34.01
695.796	33.79
695.982	33.8
696.168	33.68
696.353	33.4
696.539	32.99
696.724	33.02
696.91	33.12
697.095	33.16
697.281	32.87
697.466	32.86
697.652	32.91
697.837	32.9
698.023	32.64
698.208	32.74
698.393	32.64
698.579	32.67
698.764	32.65
698.949	32.47
699.135	32.51
699.32	32.6
699.505	32.71
699.691	32.57
699.876	32.48
700.061	32.55
700.246	32.51
700.432	32.59
700.617	32.51
700.802	32.84
700.987	33.01
701.172	32.78
701.358	33.04
701.543	33.19
701.728	33.24
701.913	33.18
702.098	33.34
702.283	33.5
702.468	33.92
702.653	34.25
702.838	34.11
703.023	34.07
703.208	34.67
703.393	35.3
703.578	35.35
703.763	35.64
703.948	36.3
704.133	37.18
704.318	37.81
704.503	38.28
704.688	38.94
704.873	40.14
705.057	41.04
705.242	41.75
705.427	42.29
705.612	42.65
705.797	43.53
705.981	44.15
706.166	44.51
706.351	44.89
706.536	45.24
706.72	45.55
706.905	45.68
707.09	46.06
707.274	46.21
707.459	46.24
707.644	46.46
707.828	46.18
708.013	46.03
708.197	45.78
708.382	45.37
708.567	45.16
708.751	44.75
708.936	44.63
709.12	44.06
709.305	43.44
709.489	42.82
709.673	42.47
709.858	42.25
710.042	42.14
710.227	41.54
710.411	41.67
710.596	41.38
710.78	41.73
710.964	41.29
711.149	41.41
711.333	41.7
711.517	42.1
711.702	42.34
711.886	42.82
712.07	42.98
712.254	43.43
712.438	42.59
712.623	42.43
712.807	41.67
712.991	41.32
713.175	41
713.359	40.63
713.544	40.12
713.728	39.51
713.912	38.47
714.096	37.71
714.28	36.75
714.464	36.71
714.648	36.43
714.832	35.95
715.016	35.71
715.2	35.25
715.384	35.1
715.568	34.62
715.752	34.42
715.936	34.14
716.12	33.92
716.304	33.95
716.488	34.47
716.671	34.17
716.855	34.24
717.039	34.04
717.223	33.95
717.407	33.46
717.59	33.4
717.774	33.65
717.958	33.96
718.142	33.98
718.325	33.98
718.509	33.01
718.693	33.15
718.877	33.22
719.06	33.39
719.244	33.71
719.428	33.95
719.611	34.07
719.795	33.69
719.978	33.73
720.162	34.25
720.345	34.33
720.529	34.53
720.713	34.91
720.896	34.99
721.08	35.02
721.263	34.98
721.446	35.17
721.63	35.38
721.813	36.21
721.997	36.33
722.18	35.72
722.364	36.16
722.547	36.27
722.73	36.41
722.914	36.74
723.097	36.92
723.28	37.35
723.464	37.44
723.647	37.4
723.83	37.03
724.013	36.38
724.197	36.55
724.38	35.94
724.563	36.01
724.746	35.6
724.929	35.32
725.112	34.84
725.296	34.41
725.479	33.61
725.662	33.85
725.845	33.39
726.028	33.77
726.211	33.69
726.394	33.74
726.577	33.87
726.76	33.89
726.943	34.22
727.126	34.18
727.309	34.27
727.492	34.64
727.675	34.11
727.858	34.12
728.041	34.16
728.224	34.38
728.407	34.33
728.589	34.4
728.772	34.09
728.955	34.25
729.138	34.59
729.321	34.52
729.503	34.69
729.686	34.61
729.869	34.87
730.052	34.77
730.234	34.22
730.417	34.1
730.6	33.9
730.782	34.3
730.965	34.12
731.148	34.58
731.33	35.05
731.513	34.96
731.695	35.15
731.878	35
732.061	35.06
732.243	35.72
732.426	36.14
732.608	36.19
732.791	36.22
732.973	36.18
733.156	36.02
733.338	35.57
733.52	35.54
733.703	35.74
733.885	36.2
734.068	36.93
734.25	36.83
734.432	36.8
734.615	37.39
734.797	37.42
734.979	36.92
735.162	36.52
735.344	36.38
735.526	36.65
735.708	36.91
735.891	36.75
736.073	36.03
736.255	36
736.437	35.8
736.619	35.05
736.802	35.41
736.984	36.35
737.166	36.56
737.348	37.04
737.53	37.03
737.712	37
737.894	36.92
738.076	37.1
738.258	37.03
738.44	37.34
738.622	38.03
738.804	37.63
738.986	37.43
739.168	37.14
739.35	36.91
739.532	36.94
739.714	36.65
739.896	36.88
740.078	36.68
740.259	36.99
740.441	37.36
740.623	37.11
740.805	37.55
740.987	38.15
741.168	38.77
741.35	38.52
741.532	38.97
741.714	39.36
741.895	38.89
742.077	39.38
742.259	39.57
742.44	39.46
742.622	39.39
742.804	39.06
742.985	38.31
743.167	38.15
743.348	38.59
743.53	38.17
743.711	38.05
743.893	38.99
744.075	38.28
744.256	38.1
744.438	38.35
744.619	37.98
744.8	37.88
744.982	38.14
745.163	38.95
745.345	38.89
745.526	39.14
745.707	39.25
745.889	38.74
746.07	39.23
746.252	39.48
746.433	38.97
746.614	39.14
746.795	39.62
746.977	39.61
747.158	38.6
747.339	38.89
747.52	38.63
747.702	38.14
747.883	37.88
748.064	37.74
748.245	37.33
748.426	37.04
748.607	38
748.788	38.3
748.97	37.66
749.151	38.41
749.332	38.73
749.513	39.05
749.694	40.2
749.875	39.86
750.056	39.87
750.237	39.75
750.418	40.37
750.599	40.19
750.78	39.47
750.96	40
751.141	39.43
751.322	38.42
751.503	37.86
751.684	37.17
751.865	37.52
752.046	37.97
752.226	38.37
752.407	37.8
752.588	37.29
752.769	37.46
752.949	37.47
753.13	38.23
753.311	38.37
753.492	38.25
753.672	37.76
753.853	37.91
754.034	37.96
754.214	38.36
754.395	38.13
754.575	38.08
754.756	38.25
754.937	38.71
755.117	37.99
755.298	38.35
755.478	38.71
755.659	38.86
755.839	38.93
756.02	38.93
756.2	38.08
756.381	38.57
756.561	37.7
756.741	37.29
756.922	36.94
757.102	36.04
757.283	36.8
757.463	36.9
757.643	36.71
757.823	36.61
758.004	35.69
758.184	35.92
758.364	35.05
758.545	35.37
758.725	34.96
758.905	34.41
759.085	34.15
759.265	32.53
759.446	32.19
759.626	32.11
759.806	31.65
759.986	31.32
760.166	31.05
760.346	31.67
760.526	31.83
760.706	32.43
760.886	32.37
761.066	32.81
761.246	33.29
761.426	33.06
761.606	33.44
761.786	33.71
761.966	34.24
762.146	34.62
762.326	34.59
762.506	34.47
762.686	34.81
762.866	34.55
763.046	34.77
763.225	34.47
763.405	35.01
763.585	34.86
763.765	35.08
763.945	35.07
764.124	34.59
764.304	34.28
764.484	33.87
764.664	33.44
764.843	33.75
765.023	33.62
765.203	34.31
765.382	34.07
765.562	33.98
765.741	33.96
765.921	34.13
766.101	34.67
766.28	35.56
766.46	36.83
766.639	37.26
766.819	37.36
766.998	38.09
767.178	37.85
767.357	37.19
767.537	37.29
767.716	37.66
767.896	37.98
768.075	38.33
768.254	37.91
768.434	37.95
768.613	37.34
768.792	38.04
768.972	38.85
769.151	39.33
769.33	40.08
769.51	40.05
769.689	39.64
769.868	39.67
770.047	39.73
770.226	39.93
770.406	39.5
770.585	40.48
770.764	40.34
770.943	39
771.122	39.09
771.301	39.2
771.48	39.67
771.66	40.23
771.839	40.45
772.018	40.98
772.197	40.97
772.376	41.61
772.555	41.36
772.734	41.82
772.913	41.87
773.092	42.44
773.271	42.43
773.449	42.46
773.628	41.98
773.807	41.7
773.986	40.53
774.165	40.42
774.344	39.98
774.523	39.56
774.701	38.74
774.88	38.75
775.059	37.96
775.238	38.46
775.417	39.47
775.595	39.93
775.774	39.48
775.953	39.64
776.131	39.72
776.31	39.62
776.489	40.04
776.667	39.97
776.846	41.11
777.025	41.45
777.203	40.9
777.382	41.13
777.56	40.8
777.739	41.72
777.917	41.98
778.096	42.76
778.274	42.59
778.453	43.27
778.631	44.48
778.81	42.57
778.988	41.94
779.166	43.3
779.345	42.68
779.523	42.36
779.702	42.72
779.88	43.32
780.058	43.41
780.237	44.42
780.415	43.88
780.593	42.77
780.771	44.1
780.95	44.06
781.128	43.71
781.306	43.65
781.484	44.25
781.662	44.06
781.841	43.65
782.019	43.58
782.197	43.62
782.375	43.83
782.553	43.87
782.731	44.18
782.909	44.32
783.087	42.79
783.265	41.6
783.443	41.24
783.621	40.3
783.799	40.01
783.977	38.8
784.155	38.52
784.333	37.91
784.511	38.69
784.689	38.47
784.867	37.81
785.045	38.51
785.223	40.21
785.4	40.49
785.578	40.53
785.756	39.81
785.934	40.39
786.112	40.53
786.289	41.21
786.467	39.99
786.645	39.35
786.823	39.63
787	39.81
787.178	38.44
787.356	38.12
787.533	38.6
787.711	39.32
787.889	39.54
788.066	38.32
788.244	37.13
788.421	37.91
788.599	37.85
788.776	39
788.954	38.53
789.131	39.1
789.309	38.65
789.486	39.65
789.664	38.25
789.841	38.13
790.019	38.67
790.196	39.68
790.373	39.21
790.551	39.45
790.728	38.15
790.906	38.43
791.083	38.95
791.26	40.29
791.437	38.37
791.615	39.83
791.792	39.37
791.969	40.09
792.146	39.34
792.324	40.94
792.501	40.56
792.678	40.29
792.855	40.66
793.032	40.01
793.209	38.55
793.387	39.54
793.564	38.9
793.741	39.51
793.918	38.82
794.095	39.6
794.272	38.65
794.449	39.45
794.626	39.93
794.803	38.93
794.98	38.89
795.157	38.64
795.334	38.65
795.511	39.06
795.688	38.76
795.864	38.86
796.041	39.3
796.218	39.19
796.395	38.58
796.572	37.66
796.749	37.67
796.925	37.59
797.102	38.26
797.279	37.15
797.456	37.84
797.632	37.85
797.809	37.45
797.986	36.87
798.162	36.72
798.339	37.02
798.516	37.85
798.692	38.75
798.869	39.17
799.046	39.98
799.222	40.47
799.399	39.95
799.575	39.58
799.752	39.31
799.928	39.19
800.105	38.77
800.281	38.42
800.458	38.28
800.634	37.79
800.811	38.53
800.987	38.04
801.163	37.61
801.34	38.4
801.516	39.47
801.692	39.38
801.869	39.27
802.045	38.84
802.221	39.61
802.398	39.15
802.574	38.22
802.75	38.01
802.926	37.44
803.103	39.73
803.279	38.88
803.455	38.26
803.631	38.91
803.807	40.11
803.983	40.96
804.16	41.31
804.336	41.67
804.512	42.65
804.688	41.8
804.864	41.17
805.04	39.53
805.216	38.68
805.392	37.5
805.568	37.31
805.744	35.93
805.92	36.26
806.096	35
806.272	35.4
806.448	35.3
806.623	35.49
806.799	36.08
806.975	35.75
807.151	36.67
807.327	36.83
807.503	37.75
807.678	39.34
807.854	38.58
808.03	39.48
808.206	39.58
808.381	40.83
808.557	39.38
808.733	39.32
808.908	39.38
809.084	39.15
809.26	39.32
809.435	38.34
809.611	35.92
809.787	36.74
809.962	34.6
810.138	34.12
810.313	33.71
810.489	34.57
810.664	35.38
810.84	35.6
811.015	37
811.191	38.57
811.366	38.86
811.542	40.01
811.717	38.89
811.892	41.18
812.068	40.4
812.243	40.75
812.419	40.8
812.594	40.18
812.769	40.08
812.944	38.4
813.12	35.42
813.295	35.49
813.47	34.99
813.645	34.36
813.821	33.33
813.996	34.49
814.171	34.33
814.346	34.9
814.521	34.31
814.697	34.93
814.872	35.97
815.047	38.1
815.222	37.54
815.397	37.27
815.572	39.54
815.747	40.32
815.922	40.48
816.097	39.05
816.272	39.42
816.447	40.15
816.622	40.78
816.797	39.38
816.972	39.27
817.147	39.64
817.322	39.6
817.496	39.34
817.671	36.9
817.846	36.47
818.021	37.19
818.196	35.49
818.371	34.29
818.545	32.91
818.72	34.41
818.895	34.5
819.069	35.46
819.244	35.41
819.419	35.15
819.594	37.08
819.768	36.81
819.943	35.73
820.117	35.98
820.292	35.56
820.467	35.05
820.641	33.8
820.816	33.43
820.99	31.9
821.165	31.36
821.339	30.78
821.514	30.47
821.688	30.36
821.863	30.31
822.037	30.04
822.212	29.87
822.386	29.6
822.56	29.75
822.735	29.93
822.909	30.19
823.084	30.06
823.258	29.89
823.432	29.63
823.606	29.7
823.781	29.76
823.955	29.79
824.129	30.01
824.303	30.32
824.478	30.1
824.652	29.8
824.826	29.99
825	30.5
825.174	30.88
825.348	31.28
825.523	31.33
825.697	31.35
825.871	31.81
826.045	31.53
826.219	31.32
826.393	31.63
826.567	31.87
826.741	31.58
826.915	31.18
827.089	31.39
827.263	30.91
827.437	30.59
827.611	30.88
827.784	30.34
827.958	30.49
828.132	30.59
828.306	30.05
828.48	29.81
828.654	29.75
828.827	30.1
829.001	30.27
829.175	30.6
829.349	30.79
829.522	30.27
829.696	31.86
829.87	32.31
830.044	32.95
830.217	33.52
830.391	33.6
830.565	33.89
830.738	35.58
830.912	35.76
831.085	36.44
831.259	37.54
831.432	37.36
831.606	35.09
831.779	35.48
831.953	33.67
832.126	34.67
832.3	34.53
832.473	34.42
832.647	33.1
832.82	31.85
832.994	31.65
833.167	31.33
833.34	31.71
833.514	32.17
833.687	31.32
833.86	32.3
834.034	32.43
834.207	31.79
834.38	31.47
834.553	31.73
834.727	32.2
834.9	33.01
835.073	32.87
835.246	33.38
835.419	33.45
835.593	33.97
835.766	34.44
835.939	33.16
836.112	34.12
836.285	35.91
836.458	35.78
836.631	35.94
836.804	35.79
836.977	36.5
837.15	35.91
837.323	36.15
837.496	37.11
837.669	35.09
837.842	37.09
838.015	36.92
838.188	35.88
838.361	34.42
838.533	37.37
838.706	35.27
838.879	35.82
839.052	35.92
839.225	37.56
839.398	36.32
839.57	37.54
839.743	38.84
839.916	39.35
840.088	39.44
840.261	40.58
840.434	37.92
840.607	38.18
840.779	37.06
840.952	36.6
841.124	35.28
841.297	36.95
841.47	37.83
841.642	36.49
841.815	35.32
841.987	33.11
842.16	31.97
842.332	33.71
842.505	34.52
842.677	35.71
842.85	35.83
843.022	34.32
843.194	33.11
843.367	33.49
843.539	31.9
843.712	31.38
843.884	34.34
844.056	36.63
844.229	33.19
844.401	33.23
844.573	32.35
844.745	33.98
844.918	35.86
845.09	34.45
845.262	32.79
845.434	35.14
845.606	34.13
845.779	34.57
845.951	33.41
846.123	37.64
846.295	39.3
846.467	39.93
846.639	38.55
846.811	40.42
846.983	39.88
847.155	39.6
847.327	41.46
847.499	45.43
847.671	43.14
847.843	41.73
848.015	41.21
848.187	37.77
848.359	33.94
848.531	33.51
848.703	32
848.875	34.57
849.047	36.02
849.218	36.04
849.39	36.96
849.562	37.17
849.734	37.45
849.905	37.09
850.077	37.98
850.249	39.91
850.421	42.5
850.592	43.38
850.764	41.48
850.936	41.36
851.107	37.2
851.279	38.4
851.451	40.85
851.622	42.57
851.794	45.61
851.965	46.91
852.137	49.4
852.308	48.47
852.48	47.52
852.651	48.63
852.823	46.9
852.994	50.47
853.166	49.59
853.337	50.96
853.509	50.81
853.68	51.21
853.851	52.13
854.023	50.31
854.194	49.19
854.365	48.46
854.537	50.01
854.708	55.28
854.879	51.67
855.05	50.49
855.222	49.07
855.393	47.89
855.564	44.44
855.735	42.6
855.906	45.08
856.078	46.99
856.249	47.66
856.42	44.9
856.591	42.61
856.762	46
856.933	43.88
857.104	42.98
857.275	45.23
857.446	43.05
857.617	44.32
857.788	39.5
857.959	38.22
858.13	38
858.301	40.04
858.472	39.48
858.643	38.97
858.814	40.77
858.985	40.62
859.155	41.27
859.326	42.25
859.497	43.69
859.668	46.4
859.839	45.98
860.009	48.93
860.18	48.43
860.351	48.57
860.522	47.53
860.692	48.61
860.863	47.44
861.034	47.34
861.204	47.92
861.375	44.23
861.546	41.3
861.716	47.91
861.887	43.96
862.057	42.42
862.228	37.58
862.398	36.97
862.569	32.8
862.739	34.11
862.91	31.54
863.08	31.32
863.251	35.76
863.421	38.97
863.592	36.75
863.762	38.15
863.932	40.65
864.103	42.52
864.273	41.77
864.443	43.68
864.614	43.65
864.784	43.56
864.954	41.95
865.125	35.6
865.295	33.87
865.465	30.39
865.635	33.42
865.805	34.21
865.976	36.84
866.146	33.84
866.316	31.81
866.486	30.8
866.656	28.9
866.826	33.68
866.996	37.87
867.166	41.09
867.336	45.77
867.506	46.27
867.676	43.51
867.846	44.58
868.016	47.73
868.186	50.9
868.356	51.69
868.526	53.25
868.696	47.36
868.866	46.04
869.036	46.13
869.206	40.39
869.376	37.91
869.545	38.33
869.715	35.42
869.885	40.57
870.055	38.94
870.224	32.18
870.394	32.49
870.564	35.41
870.734	34.04
870.903	29.2
871.073	34.29
871.243	37.17
871.412	39.68
871.582	37.72
871.751	37.31
871.921	36.17
872.091	42.16
872.26	42.86
872.43	40.66
872.599	43.81
872.769	45.13
872.938	41.47
873.108	38.54
873.277	40.83
873.446	47.86
873.616	44.64
873.785	47.13
873.955	41.36
874.124	42.15
874.293	42.5
874.463	41.16
874.632	39.48
874.801	38.6
874.971	40.58
875.14	36.25
875.309	30.06
875.478	32.88
875.647	31.49
875.817	37.36
875.986	37.06
876.155	39.79
876.324	43.34
876.493	45.86
876.662	46.62
876.831	42.15
877	44.69
877.17	40.73
877.339	36.87
877.508	35.4
877.677	32.79
877.846	28.19
878.015	26.08
878.184	22.81
878.352	23.67
878.521	24.32
878.69	25.16
878.859	22.87
879.028	26.62
879.197	26.71
879.366	28.75
879.534	31.81
879.703	32.43
879.872	32.71
880.041	30.41
880.21	28.59
880.378	27.1
880.547	26.52
880.716	25.36
880.884	26.34
881.053	25.39
881.222	24.87
881.39	24.58
881.559	24.6
881.727	24.53
881.896	25.39
882.065	26.86
882.233	26.46
882.402	26.42
882.57	27.15
882.739	26.34
882.907	26.99
883.076	26.44
883.244	25.69
883.412	26.53
883.581	26.73
883.749	26.61
883.918	25.73
884.086	25.87
884.254	26.23
884.423	27.08
884.591	27.67
884.759	27.61
884.927	28.04
885.096	29
885.264	28.78
885.432	28.98
885.6	27.76
885.769	26.65
885.937	28.2
886.105	26.89
886.273	22.99
886.441	21.11
886.609	22.21
886.777	22.04
886.945	20.24
887.113	20.27
887.281	20.4
887.449	25.12
887.617	24.87
887.785	25.62
887.953	32
888.121	32.83
888.289	36.47
888.457	36.67
888.625	39.52
888.793	40.61
888.961	36.97
889.129	35.59
889.296	34.99
889.464	38.17
889.632	35.46
889.8	30.89
889.967	32.44
890.135	27.79
