Data from 2938784__Reflection_02.txt Node
Date: Fri Mar 13 12:12:25 EDT 2015
User: robert
Spectrometer: USB4E03002
Autoset integration time: false
Trigger mode: 4
Integration Time (sec): 1.000000E-1
Scans to average: 10
Electric dark correction enabled: false
Nonlinearity correction enabled: false
Boxcar width: 5
Stray light correction enabled: false
XAxis mode: Wavelengths
Stop averaging: false
Number of Pixels in Spectrum: 3648
>>>>>Begin Spectral Data<<<<<
177.575	97.5
177.794	89.92
178.014	85.21
178.233	84.22
178.452	86.86
178.672	85
178.891	83.78
179.11	80.23
179.33	84.61
179.549	80.8
179.768	84.59
179.987	88.82
180.207	91.62
180.426	92.96
180.645	96.41
180.864	90.92
181.084	90.43
181.303	92.2
181.522	94.52
181.741	88.86
181.96	92.45
182.179	88.74
182.398	82.63
182.618	82.19
182.837	81.18
183.056	76.59
183.275	75.95
183.494	76.3
183.713	74.6
183.932	79.93
184.151	79.14
184.37	77.47
184.589	78.56
184.808	80.07
185.027	80.41
185.246	84.36
185.465	86.15
185.684	96.14
185.903	96.16
186.122	97.08
186.341	89.81
186.56	92.52
186.779	96.95
186.998	100.26
187.216	103.09
187.435	101.12
187.654	93.18
187.873	94.33
188.092	89.39
188.311	85.57
188.53	86.17
188.748	86.4
188.967	88.92
189.186	86
189.405	82.33
189.623	80.65
189.842	83.59
190.061	87.48
190.28	92.77
190.498	91.85
190.717	94.86
190.936	93.23
191.154	92.82
191.373	88.78
191.592	91.17
191.81	91.57
192.029	92.65
192.248	94.42
192.466	92.49
192.685	86.38
192.904	84.61
193.122	81.07
193.341	81.61
193.559	82.07
193.778	83.23
193.996	82.49
194.215	78.03
194.433	79.18
194.652	75.33
194.87	75.76
195.089	73.67
195.307	75.73
195.526	81.8
195.744	82.73
195.963	82.45
196.181	83.12
196.399	81.72
196.618	84.39
196.836	83.31
197.055	85.74
197.273	87.87
197.491	90.85
197.71	90.16
197.928	90.12
198.146	88.38
198.365	90.98
198.583	90.39
198.801	92.27
199.019	92.9
199.238	92.79
199.456	93.25
199.674	90.74
199.892	88.2
200.111	89.04
200.329	90.59
200.547	88.4
200.765	86.17
200.983	85.73
201.202	89.55
201.42	94.37
201.638	95.76
201.856	92.04
202.074	93.65
202.292	93.55
202.51	92.3
202.728	89.96
202.946	90.71
203.165	90.38
203.383	92.55
203.601	86.82
203.819	82.12
204.037	80.21
204.255	80.52
204.473	79.16
204.691	78.89
204.909	82.87
205.127	82.02
205.345	83.88
205.562	79.41
205.78	74.88
205.998	75.57
206.216	78.61
206.434	81.55
206.652	84.33
206.87	83.5
207.088	85.01
207.306	84.93
207.523	85.02
207.741	79.82
207.959	83.54
208.177	86.5
208.395	85.12
208.612	82.52
208.83	81.96
209.048	84.21
209.266	86.87
209.483	82.52
209.701	78.23
209.919	77.03
210.136	80.93
210.354	81.9
210.572	82.36
210.79	80.93
211.007	81.43
211.225	80.91
211.442	74.16
211.66	73.56
211.878	79.98
212.095	84.77
212.313	85.82
212.53	86.6
212.748	86.03
212.966	83.94
213.183	84.24
213.401	83.77
213.618	82.38
213.836	87.37
214.053	84.53
214.271	81.62
214.488	80.78
214.705	79.29
214.923	76.52
215.14	75.49
215.358	73.93
215.575	74.23
215.793	73.97
216.01	72.04
216.227	69.29
216.445	69.24
216.662	71.76
216.879	71.23
217.097	71.73
217.314	74.13
217.531	75.76
217.749	77.24
217.966	78.86
218.183	77.87
218.4	77.87
218.618	79.68
218.835	77.42
219.052	74.96
219.269	73.16
219.487	70.64
219.704	73.28
219.921	69.84
220.138	70.79
220.355	68.57
220.572	68.43
220.79	68.11
221.007	64.96
221.224	65.57
221.441	63.15
221.658	62.47
221.875	62.23
222.092	57.5
222.309	58.25
222.526	54.46
222.743	52.77
222.96	50.47
223.177	51.43
223.394	49.54
223.611	49.68
223.828	51.16
224.045	48.93
224.262	47.43
224.479	45.41
224.696	44.8
224.913	44.11
225.13	43.88
225.347	43.14
225.564	40.62
225.781	40.84
225.997	38.14
226.214	34.48
226.431	32.53
226.648	31.32
226.865	30.95
227.082	29.09
227.298	26.15
227.515	23.39
227.732	20.82
227.949	19.68
228.165	17.95
228.382	17.87
228.599	18.28
228.816	17.75
229.032	16.95
229.249	15.97
229.466	15.13
229.682	15.65
229.899	16.27
230.116	17.47
230.332	17.83
230.549	18.06
230.765	17.88
230.982	17.9
231.199	18.85
231.415	19.66
231.632	21.54
231.848	22.66
232.065	23.28
232.281	23.95
232.498	22.34
232.714	22.05
232.931	22.95
233.147	24.42
233.364	24.42
233.58	23.99
233.797	24.05
234.013	23.73
234.23	22.35
234.446	21.67
234.662	21.79
234.879	21.83
235.095	22.06
235.312	21.95
235.528	21.86
235.744	21.45
235.961	22.11
236.177	21.81
236.393	21.47
236.61	22.82
236.826	22.44
237.042	21.99
237.258	23.26
237.475	23.58
237.691	23.64
237.907	23.67
238.123	24.22
238.339	24.12
238.556	25.13
238.772	24.68
238.988	23.67
239.204	24.14
239.42	23.53
239.636	22.87
239.853	21.44
240.069	20.11
240.285	19.38
240.501	16.85
240.717	16.54
240.933	14.98
241.149	14.25
241.365	13.69
241.581	13.68
241.797	12.92
242.013	12.44
242.229	12.42
242.445	12.46
242.661	12.45
242.877	12.93
243.093	12.79
243.309	13.41
243.525	13.63
243.741	13.73
243.957	13.68
244.173	15.18
244.388	15.38
244.604	15.84
244.82	15.64
245.036	14.48
245.252	14.29
245.468	13.49
245.683	12.8
245.899	11.98
246.115	11.48
246.331	10.5
246.547	9.59
246.762	9.22
246.978	8.76
247.194	8.71
247.409	8.81
247.625	8.67
247.841	8.54
248.057	8.31
248.272	8.35
248.488	8.55
248.703	8.71
248.919	8.93
249.135	9.19
249.35	10.04
249.566	10.7
249.782	11.03
249.997	11.2
250.213	11.39
250.428	12.14
250.644	13.01
250.859	13.11
251.075	13.16
251.29	13.94
251.506	13.69
251.721	12.85
251.937	12.47
252.152	12.69
252.368	12.86
252.583	12.9
252.798	13.29
253.014	13.16
253.229	13.16
253.445	13.78
253.66	12.87
253.875	13.82
254.091	15.06
254.306	15.38
254.521	15.77
254.737	16.91
254.952	16.92
255.167	16.21
255.383	16.48
255.598	15.98
255.813	15.61
256.028	16.35
256.244	15.68
256.459	14.86
256.674	13.56
256.889	12.59
257.104	12.19
257.32	12.2
257.535	11.71
257.75	10.67
257.965	10.43
258.18	10.31
258.395	9.62
258.61	8.9
258.826	7.98
259.041	8.01
259.256	7.71
259.471	7.11
259.686	6.72
259.901	6.51
260.116	6.44
260.331	6.31
260.546	6.24
260.761	6.15
260.976	6.31
261.191	6.24
261.406	6.36
261.621	6.76
261.836	6.87
262.05	7.75
262.265	7.86
262.48	8.67
262.695	9.56
262.91	10.08
263.125	10.47
263.34	10.75
263.555	12.07
263.769	12.62
263.984	12.48
264.199	12.82
264.414	12.35
264.629	12.79
264.843	12.48
265.058	12.05
265.273	11.41
265.488	11.26
265.702	10.92
265.917	10.44
266.132	9.8
266.346	9.55
266.561	9.55
266.776	9.26
266.99	9.15
267.205	9
267.42	8.78
267.634	8.4
267.849	8.5
268.063	8.85
268.278	8.88
268.492	9.07
268.707	9.27
268.922	8.86
269.136	9.01
269.351	8.9
269.565	8.69
269.78	8.23
269.994	8.34
270.209	8.09
270.423	7.46
270.637	6.89
270.852	6.6
271.066	6.03
271.281	6.25
271.495	6.23
271.709	6.15
271.924	5.88
272.138	6.46
272.353	6.56
272.567	6.58
272.781	7
272.996	7.28
273.21	7.39
273.424	7.59
273.638	7.51
273.853	7.5
274.067	7.49
274.281	8.07
274.495	8.13
274.71	8.32
274.924	8.1
275.138	7.84
275.352	7.79
275.566	8.01
275.781	8.32
275.995	8.78
276.209	8.65
276.423	8.77
276.637	8.59
276.851	8.72
277.065	8.51
277.279	8.49
277.493	8.74
277.707	9.44
277.921	9.04
278.135	8.92
278.349	8.32
278.563	8.44
278.777	8.77
278.991	8.49
279.205	8.82
279.419	8.74
279.633	8.58
279.847	8.52
280.061	8.22
280.275	7.79
280.489	7.98
280.703	8.26
280.917	7.96
281.131	7.52
281.344	7.68
281.558	7.01
281.772	7.5
281.986	7.88
282.2	7.92
282.414	7.77
282.627	8.07
282.841	7.77
283.055	7.71
283.269	7.82
283.482	7.75
283.696	7.71
283.91	7.64
284.123	6.77
284.337	6.55
284.551	6.22
284.764	6.01
284.978	5.7
285.192	5.72
285.405	5.83
285.619	5.72
285.833	5.89
286.046	5.63
286.26	5.84
286.473	6.45
286.687	6.26
286.9	6.4
287.114	6.54
287.327	6.93
287.541	7.19
287.754	7.02
287.968	7.19
288.181	7.24
288.395	7.48
288.608	7.38
288.822	7.13
289.035	7.21
289.248	7.12
289.462	7.09
289.675	6.97
289.889	6.77
290.102	6.73
290.315	6.68
290.529	6.55
290.742	6.46
290.955	6.6
291.169	6.86
291.382	7.11
291.595	7.08
291.808	7.18
292.022	7.48
292.235	7.56
292.448	7.85
292.661	7.81
292.875	7.98
293.088	7.98
293.301	7.64
293.514	7.35
293.727	7.17
293.94	7.67
294.153	7.37
294.367	7.23
294.58	7.12
294.793	6.72
295.006	6.6
295.219	6.21
295.432	6.4
295.645	6.29
295.858	5.96
296.071	5.76
296.284	5.36
296.497	5.35
296.71	5.08
296.923	5.12
297.136	5.26
297.349	5.21
297.562	5.29
297.775	5.03
297.988	5.3
298.201	5.6
298.414	5.77
298.626	5.65
298.839	5.45
299.052	5.62
299.265	5.9
299.478	5.96
299.691	6.38
299.903	6.72
300.116	7.21
300.329	7.04
300.542	6.95
300.755	7.14
300.967	7.54
301.18	8.14
301.393	8.18
301.605	8.06
301.818	7.97
302.031	7.95
302.243	7.71
302.456	7.43
302.669	7.66
302.881	7.42
303.094	7.42
303.307	7.32
303.519	6.95
303.732	7.26
303.944	7.17
304.157	7.29
304.37	6.94
304.582	7.22
304.795	7.52
305.007	7.44
305.22	8.03
305.432	8.12
305.645	8.41
305.857	8.88
306.069	8.92
306.282	8.64
306.494	8.52
306.707	8.61
306.919	8.34
307.132	7.92
307.344	7.81
307.556	7.6
307.769	7.57
307.981	7.42
308.193	6.99
308.406	6.47
308.618	6.41
308.83	6.34
309.043	6.25
309.255	6.24
309.467	6.29
309.679	6.19
309.892	6.35
310.104	6.21
310.316	6.29
310.528	6.37
310.74	6.63
310.953	6.7
311.165	6.79
311.377	7.13
311.589	7.4
311.801	7.33
312.013	7.4
312.225	7.02
312.437	7.26
312.649	7.2
312.862	7.4
313.074	7.38
313.286	7.39
313.498	7.73
313.71	7.74
313.922	7.59
314.134	8.04
314.346	8.15
314.558	8.45
314.77	8.68
314.982	8.71
315.193	8.65
315.405	9
315.617	9.77
315.829	9.62
316.041	9.83
316.253	9.9
316.465	9.76
316.677	9.88
316.888	10.12
317.1	10.02
317.312	10.23
317.524	10.35
317.736	10.26
317.947	10.24
318.159	10.61
318.371	10.34
318.583	10.6
318.794	11.31
319.006	11.51
319.218	11.49
319.43	11.39
319.641	11.6
319.853	11.62
320.064	11.76
320.276	11.5
320.488	11.63
320.699	11.73
320.911	12.11
321.123	12.02
321.334	11.73
321.546	11.99
321.757	12.28
321.969	12.16
322.18	12.82
322.392	12.77
322.603	13.19
322.815	13.27
323.026	13.52
323.238	13.12
323.449	12.64
323.661	12.96
323.872	13.04
324.083	12.87
324.295	12.98
324.506	12.62
324.718	12.69
324.929	12.78
325.14	12.85
325.352	12.71
325.563	13.3
325.774	13.85
325.986	14.3
326.197	14.36
326.408	14.79
326.62	15.06
326.831	15.26
327.042	15.88
327.253	16.16
327.464	16.51
327.676	16.68
327.887	16.76
328.098	16.83
328.309	16.82
328.52	17.31
328.732	17.62
328.943	18.24
329.154	18.95
329.365	19.26
329.576	19.75
329.787	19.79
329.998	20.77
330.209	20.91
330.42	21.52
330.631	21.88
330.842	22.29
331.053	23
331.264	22.97
331.475	23.21
331.686	23.34
331.897	23.24
332.108	23.92
332.319	24.33
332.53	24.53
332.741	24.62
332.952	25.13
333.163	25.28
333.374	25.27
333.585	25.43
333.795	25.7
334.006	26.14
334.217	26.41
334.428	26.4
334.639	26.45
334.849	26.85
335.06	27.06
335.271	27.19
335.482	27.32
335.692	27.15
335.903	27.56
336.114	27.33
336.325	27.39
336.535	27.62
336.746	27.49
336.957	27.77
337.167	27.88
337.378	28.35
337.589	28.41
337.799	28.26
338.01	28.81
338.22	28.63
338.431	28.73
338.642	28.86
338.852	28.64
339.063	28.93
339.273	28.4
339.484	28.16
339.694	27.98
339.905	27.93
340.115	28.36
340.326	28.12
340.536	28.08
340.746	28.5
340.957	28.21
341.167	28.66
341.378	28.72
341.588	29.11
341.799	29.26
342.009	29.16
342.219	29.1
342.43	28.95
342.64	29.03
342.85	29.25
343.061	28.92
343.271	29.19
343.481	28.93
343.691	28.52
343.902	28.42
344.112	28.61
344.322	28.48
344.532	28.52
344.743	28.36
344.953	28.3
345.163	28.23
345.373	28.12
345.583	27.82
345.793	27.85
346.004	27.98
346.214	27.77
346.424	27.65
346.634	27.95
346.844	27.91
347.054	28.28
347.264	28.26
347.474	28.17
347.684	28.34
347.894	28.42
348.104	28.42
348.314	28.57
348.524	28.61
348.734	28.64
348.944	28.41
349.154	28.4
349.364	28.19
349.574	28.03
349.784	28.2
349.994	28.36
350.204	28.52
350.413	28.46
350.623	28.44
350.833	28.57
351.043	28.59
351.253	28.25
351.463	28.13
351.672	28.08
351.882	28.03
352.092	27.84
352.302	27.71
352.511	27.46
352.721	27.44
352.931	27.31
353.141	27.31
353.35	27.26
353.56	27.34
353.77	27.22
353.979	27.13
354.189	27.23
354.399	27.22
354.608	27.13
354.818	26.98
355.027	26.98
355.237	26.77
355.447	26.71
355.656	26.58
355.866	26.62
356.075	26.79
356.285	27
356.494	26.79
356.704	26.61
356.913	26.59
357.123	26.68
357.332	26.49
357.542	26.56
357.751	26.5
357.96	26.53
358.17	26.45
358.379	26.36
358.589	26.16
358.798	26.3
359.007	26.43
359.217	26.55
359.426	26.26
359.635	26.21
359.845	26.34
360.054	26.12
360.263	26.02
360.472	26.1
360.682	25.98
360.891	25.79
361.1	25.63
361.309	25.37
361.519	25.39
361.728	25.49
361.937	25.67
362.146	25.6
362.355	25.67
362.564	25.75
362.774	25.76
362.983	25.81
363.192	25.94
363.401	26.03
363.61	26.21
363.819	26.17
364.028	26.42
364.237	26.31
364.446	26.37
364.655	26.41
364.864	26.08
365.073	25.9
365.282	25.69
365.491	25.58
365.7	25.4
365.909	25.39
366.118	25.43
366.327	25.29
366.536	25.52
366.745	25.37
366.954	25.38
367.162	25.56
367.371	25.51
367.58	25.74
367.789	25.69
367.998	25.79
368.207	25.73
368.415	25.62
368.624	25.59
368.833	25.42
369.042	25.67
369.25	25.71
369.459	25.95
369.668	26.01
369.877	25.89
370.085	25.72
370.294	25.78
370.503	25.96
370.711	25.7
370.92	25.52
371.129	25.32
371.337	24.98
371.546	24.88
371.754	24.6
371.963	24.5
372.171	24.57
372.38	24.92
372.589	24.92
372.797	24.84
373.006	24.89
373.214	24.85
373.423	24.71
373.631	24.57
373.84	24.27
374.048	24.15
374.256	24.27
374.465	24.01
374.673	23.73
374.882	23.8
375.09	23.78
375.298	23.67
375.507	23.63
375.715	23.69
375.923	23.81
376.132	23.84
376.34	23.91
376.548	23.86
376.757	24.03
376.965	24.3
377.173	24.09
377.381	24.05
377.59	24.13
377.798	24.16
378.006	24.13
378.214	24
378.423	24.32
378.631	24.2
378.839	24.01
379.047	23.92
379.255	23.68
379.463	23.75
379.671	23.54
379.879	23.34
380.088	23.41
380.296	23.26
380.504	23.38
380.712	23.13
380.92	23.16
381.128	23.26
381.336	23.17
381.544	22.86
381.752	22.88
381.96	22.82
382.168	22.8
382.376	22.57
382.584	22.57
382.791	22.56
382.999	22.49
383.207	22.57
383.415	22.68
383.623	22.68
383.831	22.8
384.039	22.66
384.247	22.68
384.454	22.66
384.662	22.75
384.87	22.94
385.078	22.86
385.285	22.71
385.493	22.66
385.701	22.44
385.909	22.4
386.116	22.33
386.324	22.29
386.532	22.2
386.739	22.19
386.947	22.23
387.155	22.27
387.362	22.28
387.57	22.15
387.778	21.87
387.985	21.96
388.193	22.05
388.4	22.02
388.608	22.06
388.816	22.1
389.023	22.08
389.231	21.91
389.438	21.76
389.646	21.65
389.853	21.92
390.061	21.95
390.268	21.88
390.475	21.77
390.683	21.9
390.89	21.83
391.098	21.81
391.305	21.91
391.512	21.76
391.72	21.82
391.927	21.76
392.135	21.81
392.342	21.85
392.549	21.9
392.756	21.93
392.964	21.7
393.171	21.69
393.378	21.61
393.586	21.54
393.793	21.67
394	21.63
394.207	21.74
394.414	21.7
394.622	21.75
394.829	21.82
395.036	21.92
395.243	22.09
395.45	22.2
395.657	22.33
395.864	22.2
396.072	22.25
396.279	22.22
396.486	22.19
396.693	21.95
396.9	21.91
397.107	21.94
397.314	21.76
397.521	21.89
397.728	21.82
397.935	21.74
398.142	21.7
398.349	21.78
398.556	21.72
398.763	21.69
398.97	21.79
399.177	21.78
399.383	21.66
399.59	21.94
399.797	21.82
400.004	21.78
400.211	21.85
400.418	21.98
400.625	22.04
400.831	21.95
401.038	22.1
401.245	22.07
401.452	22.17
401.658	22.14
401.865	22.01
402.072	21.96
402.279	21.84
402.485	21.5
402.692	21.44
402.899	21.27
403.105	21.29
403.312	21.05
403.519	20.92
403.725	20.95
403.932	20.75
404.138	20.6
404.345	20.45
404.552	20.33
404.758	20.58
404.965	20.51
405.171	20.61
405.378	20.62
405.584	20.71
405.791	20.85
405.997	20.74
406.204	21.08
406.41	21.1
406.617	21.46
406.823	21.76
407.029	21.75
407.236	21.85
407.442	21.68
407.649	21.82
407.855	21.89
408.061	22.07
408.268	22.03
408.474	21.88
408.68	21.82
408.887	21.62
409.093	21.45
409.299	21.56
409.505	21.7
409.712	21.77
409.918	21.67
410.124	21.6
410.33	21.46
410.537	21.49
410.743	21.5
410.949	21.71
411.155	21.83
411.361	21.77
411.567	21.76
411.773	21.66
411.98	21.63
412.186	21.53
412.392	21.63
412.598	21.68
412.804	21.67
413.01	21.69
413.216	21.72
413.422	21.5
413.628	21.77
413.834	21.75
414.04	21.7
414.246	21.76
414.452	21.82
414.658	21.67
414.864	21.56
415.07	21.58
415.275	21.47
415.481	21.36
415.687	21.38
415.893	21.25
416.099	21.11
416.305	21.17
416.511	21.19
416.716	21.17
416.922	21.19
417.128	21.27
417.334	21.25
417.539	21.28
417.745	21.18
417.951	21.17
418.157	21.16
418.362	21.16
418.568	21.02
418.774	20.96
418.979	20.92
419.185	20.92
419.391	20.9
419.596	20.81
419.802	20.79
420.008	20.81
420.213	20.97
420.419	20.92
420.624	20.92
420.83	20.99
421.035	21.02
421.241	21.08
421.446	21.03
421.652	20.97
421.857	20.97
422.063	20.94
422.268	20.89
422.474	20.7
422.679	20.72
422.885	20.75
423.09	20.68
423.295	20.64
423.501	20.59
423.706	20.65
423.911	20.68
424.117	20.71
424.322	20.65
424.527	20.68
424.733	20.69
424.938	20.77
425.143	20.76
425.349	20.79
425.554	20.76
425.759	20.89
425.964	20.87
426.169	20.88
426.375	20.88
426.58	20.92
426.785	21.03
426.99	21.05
427.195	21.08
427.4	21.08
427.605	21.18
427.811	21.24
428.016	21.09
428.221	21.18
428.426	21.14
428.631	21.27
428.836	21.42
429.041	21.4
429.246	21.44
429.451	21.38
429.656	21.46
429.861	21.47
430.066	21.4
430.271	21.33
430.476	21.23
430.681	21.38
430.886	21.32
431.09	21.37
431.295	21.42
431.5	21.52
431.705	21.45
431.91	21.45
432.115	21.54
432.32	21.74
432.524	21.81
432.729	21.89
432.934	21.81
433.139	21.81
433.343	21.78
433.548	21.73
433.753	21.72
433.958	21.75
434.162	21.81
434.367	21.7
434.572	21.7
434.776	21.73
434.981	21.73
435.186	21.81
435.39	21.91
435.595	21.93
435.799	21.89
436.004	21.93
436.209	21.97
436.413	21.97
436.618	21.97
436.822	21.93
437.027	21.99
437.231	21.99
437.436	21.94
437.64	21.89
437.845	21.9
438.049	22.07
438.253	21.99
438.458	22.04
438.662	22.04
438.867	22.08
439.071	22.15
439.275	22
439.48	22.02
439.684	22
439.888	21.94
440.093	21.81
440.297	21.68
440.501	21.67
440.706	21.71
440.91	21.64
441.114	21.67
441.318	21.72
441.523	21.83
441.727	21.8
441.931	21.84
442.135	21.93
442.339	22.09
442.543	22.22
442.748	22.31
442.952	22.23
443.156	22.26
443.36	22.22
443.564	22.13
443.768	22.16
443.972	22.14
444.176	22.17
444.38	22.12
444.584	22.08
444.788	22.01
444.992	21.9
445.196	21.92
445.4	21.95
445.604	21.97
445.808	21.93
446.012	21.87
446.216	21.89
446.42	21.83
446.624	21.84
446.828	21.76
447.032	21.69
447.235	21.78
447.439	21.77
447.643	21.83
447.847	21.82
448.051	21.81
448.254	21.83
448.458	21.82
448.662	21.84
448.866	21.78
449.069	21.93
449.273	22.06
449.477	22.01
449.681	22
449.884	21.93
450.088	22.04
450.292	22.07
450.495	22.13
450.699	22.09
450.902	22.09
451.106	22.2
451.31	22.12
451.513	22.14
451.717	22.16
451.92	22.16
452.124	22.16
452.327	21.99
452.531	22.01
452.734	21.95
452.938	21.98
453.141	22.05
453.345	22.04
453.548	22.01
453.752	21.87
453.955	21.9
454.158	21.9
454.362	21.85
454.565	21.95
454.769	21.91
454.972	21.93
455.175	21.97
455.379	21.95
455.582	21.98
455.785	22.05
455.988	22.14
456.192	22.15
456.395	22.15
456.598	22.3
456.801	22.32
457.005	22.37
457.208	22.41
457.411	22.43
457.614	22.37
457.817	22.35
458.021	22.19
458.224	22.17
458.427	22.1
458.63	22.18
458.833	22.04
459.036	21.99
459.239	21.91
459.442	21.9
459.645	21.88
459.848	21.84
460.051	21.84
460.254	21.93
460.457	21.96
460.66	21.99
460.863	21.93
461.066	21.92
461.269	21.97
461.472	22.09
461.675	22.13
461.878	22.13
462.081	22.25
462.284	22.3
462.486	22.32
462.689	22.29
462.892	22.36
463.095	22.4
463.298	22.57
463.5	22.58
463.703	22.5
463.906	22.52
464.109	22.64
464.311	22.64
464.514	22.55
464.717	22.69
464.92	22.71
465.122	22.72
465.325	22.77
465.528	22.65
465.73	22.66
465.933	22.66
466.135	22.65
466.338	22.53
466.541	22.43
466.743	22.48
466.946	22.29
467.148	22.37
467.351	22.34
467.553	22.3
467.756	22.38
467.958	22.24
468.161	22.37
468.363	22.37
468.566	22.43
468.768	22.58
468.971	22.62
469.173	22.76
469.375	22.81
469.578	22.84
469.78	22.96
469.983	22.93
470.185	23.15
470.387	23.13
470.59	23.03
470.792	23.04
470.994	23.02
471.196	22.95
471.399	22.89
471.601	22.87
471.803	22.8
472.005	22.69
472.208	22.71
472.41	22.57
472.612	22.53
472.814	22.72
473.016	22.75
473.218	22.82
473.421	22.86
473.623	22.85
473.825	22.81
474.027	22.86
474.229	22.93
474.431	22.94
474.633	22.95
474.835	22.92
475.037	22.85
475.239	22.79
475.441	22.71
475.643	22.75
475.845	22.75
476.047	22.66
476.249	22.68
476.451	22.72
476.653	22.67
476.855	22.71
477.057	22.69
477.258	22.68
477.46	22.72
477.662	22.71
477.864	22.74
478.066	22.81
478.268	22.87
478.469	22.71
478.671	22.63
478.873	22.61
479.075	22.58
479.276	22.62
479.478	22.6
479.68	22.53
479.882	22.52
480.083	22.4
480.285	22.34
480.487	22.32
480.688	22.34
480.89	22.37
481.091	22.36
481.293	22.32
481.495	22.29
481.696	22.31
481.898	22.23
482.099	22.19
482.301	22.16
482.502	22.11
482.704	22.07
482.905	22.05
483.107	21.99
483.308	21.95
483.51	21.91
483.711	21.9
483.913	21.89
484.114	21.94
484.315	21.95
484.517	22.01
484.718	22.02
484.92	22.02
485.121	22.02
485.322	22.1
485.524	22.15
485.725	22.21
485.926	22.26
486.127	22.28
486.329	22.25
486.53	22.2
486.731	22.16
486.932	22.14
487.134	22.16
487.335	22.19
487.536	22.15
487.737	22.13
487.938	22.15
488.139	22.13
488.341	22.14
488.542	22.17
488.743	22.25
488.944	22.27
489.145	22.32
489.346	22.35
489.547	22.36
489.748	22.38
489.949	22.39
490.15	22.35
490.351	22.33
490.552	22.31
490.753	22.31
490.954	22.3
491.155	22.32
491.356	22.32
491.557	22.32
491.758	22.38
491.959	22.37
492.159	22.49
492.36	22.54
492.561	22.57
492.762	22.62
492.963	22.7
493.164	22.79
493.364	22.85
493.565	22.85
493.766	22.88
493.967	22.85
494.167	22.98
494.368	22.93
494.569	23.02
494.769	23.06
494.97	23.09
495.171	23.12
495.371	23.08
495.572	23.06
495.773	23.13
495.973	23.16
496.174	23.28
496.375	23.25
496.575	23.28
496.776	23.3
496.976	23.33
497.177	23.36
497.377	23.31
497.578	23.36
497.778	23.4
497.979	23.45
498.179	23.45
498.38	23.4
498.58	23.47
498.78	23.55
498.981	23.59
499.181	23.59
499.382	23.65
499.582	23.71
499.782	23.75
499.983	23.82
500.183	23.96
500.383	23.96
500.584	24.01
500.784	23.94
500.984	23.84
501.184	23.8
501.385	23.87
501.585	23.88
501.785	23.87
501.985	23.91
502.185	23.89
502.386	23.91
502.586	24.05
502.786	24.14
502.986	24.24
503.186	24.37
503.386	24.4
503.586	24.44
503.786	24.48
503.987	24.54
504.187	24.5
504.387	24.57
504.587	24.55
504.787	24.5
504.987	24.51
505.187	24.53
505.387	24.55
505.587	24.67
505.786	24.69
505.986	24.62
506.186	24.73
506.386	24.84
506.586	24.87
506.786	24.94
506.986	25.02
507.186	25
507.386	25.05
507.585	25.16
507.785	25.14
507.985	25.18
508.185	25.26
508.384	25.26
508.584	25.3
508.784	25.26
508.984	25.41
509.183	25.49
509.383	25.55
509.583	25.7
509.782	25.64
509.982	25.65
510.182	25.66
510.381	25.76
510.581	25.86
510.781	25.83
510.98	25.87
511.18	25.81
511.379	25.86
511.579	25.92
511.778	25.85
511.978	25.91
512.177	26.02
512.377	26.1
512.576	26.15
512.776	26.09
512.975	26.2
513.175	26.39
513.374	26.49
513.573	26.57
513.773	26.67
513.972	26.8
514.172	26.97
514.371	27.11
514.57	27.27
514.77	27.35
514.969	27.52
515.168	27.57
515.367	27.59
515.567	27.59
515.766	27.54
515.965	27.59
516.164	27.56
516.364	27.56
516.563	27.44
516.762	27.44
516.961	27.38
517.16	27.44
517.359	27.5
517.559	27.52
517.758	27.55
517.957	27.7
518.156	27.69
518.355	27.79
518.554	27.81
518.753	27.95
518.952	28
519.151	28.12
519.35	28.18
519.549	28.26
519.748	28.37
519.947	28.49
520.146	28.49
520.345	28.65
520.544	28.74
520.743	28.86
520.942	28.91
521.141	28.88
521.339	29.04
521.538	29.02
521.737	29.03
521.936	29.01
522.135	29.08
522.333	29.21
522.532	29.32
522.731	29.35
522.93	29.36
523.129	29.48
523.327	29.63
523.526	29.6
523.725	29.64
523.923	29.63
524.122	29.72
524.321	29.72
524.519	29.65
524.718	29.64
524.917	29.72
525.115	29.78
525.314	29.78
525.512	29.85
525.711	29.89
525.909	29.98
526.108	30.09
526.306	30.07
526.505	30.07
526.703	30.14
526.902	30.15
527.1	30.15
527.299	30.11
527.497	30.15
527.696	30.14
527.894	30.15
528.092	30.13
528.291	30.15
528.489	30.2
528.688	30.25
528.886	30.32
529.084	30.39
529.283	30.44
529.481	30.54
529.679	30.58
529.877	30.7
530.076	30.78
530.274	30.89
530.472	30.98
530.67	31.11
530.869	31.18
531.067	31.17
531.265	31.21
531.463	31.21
531.661	31.22
531.859	31.2
532.057	31.18
532.255	31.18
532.454	31.2
532.652	31.17
532.85	31.14
533.048	31.22
533.246	31.31
533.444	31.35
533.642	31.42
533.84	31.48
534.038	31.58
534.236	31.66
534.434	31.73
534.632	31.77
534.83	31.87
535.027	31.99
535.225	32.01
535.423	32.02
535.621	32.05
535.819	32.04
536.017	32.12
536.215	32.11
536.412	32.14
536.61	32.18
536.808	32.23
537.006	32.27
537.203	32.29
537.401	32.38
537.599	32.43
537.797	32.48
537.994	32.63
538.192	32.65
538.39	32.71
538.587	32.76
538.785	32.76
538.983	32.87
539.18	32.91
539.378	32.99
539.575	33.01
539.773	33.03
539.97	33.13
540.168	33.17
540.366	33.19
540.563	33.22
540.761	33.23
540.958	33.32
541.155	33.33
541.353	33.4
541.55	33.39
541.748	33.44
541.945	33.49
542.143	33.53
542.34	33.59
542.537	33.72
542.735	33.79
542.932	33.83
543.129	33.93
543.327	34
543.524	34.09
543.721	34.27
543.919	34.42
544.116	34.66
544.313	34.82
544.51	34.95
544.708	35.05
544.905	35.26
545.102	35.49
545.299	35.58
545.496	35.69
545.693	35.74
545.891	35.8
546.088	35.79
546.285	35.71
546.482	35.62
546.679	35.48
546.876	35.42
547.073	35.32
547.27	35.24
547.467	35.17
547.664	35.18
547.861	35.17
548.058	35.08
548.255	35.03
548.452	34.91
548.649	34.94
548.846	35.08
549.043	35.05
549.24	34.95
549.437	34.85
549.633	34.82
549.83	34.69
550.027	34.73
550.224	34.71
550.421	34.69
550.618	34.55
550.814	34.43
551.011	34.21
551.208	34.17
551.405	34.31
551.601	34.46
551.798	34.47
551.995	34.39
552.191	34.3
552.388	34.17
552.585	34.17
552.781	34.25
552.978	34.36
553.175	34.47
553.371	34.51
553.568	34.41
553.764	34.21
553.961	34.2
554.157	34.27
554.354	34.36
554.55	34.39
554.747	34.49
554.943	34.49
555.14	34.45
555.336	34.45
555.533	34.38
555.729	34.49
555.926	34.63
556.122	34.7
556.318	34.76
556.515	34.62
556.711	34.66
556.907	34.65
557.104	34.7
557.3	34.74
557.496	34.66
557.693	34.75
557.889	34.65
558.085	34.62
558.281	34.61
558.478	34.65
558.674	34.67
558.87	34.65
559.066	34.68
559.262	34.78
559.459	34.65
559.655	34.66
559.851	34.66
560.047	34.83
560.243	34.78
560.439	34.66
560.635	34.57
560.831	34.61
561.027	34.75
561.223	34.55
561.419	34.45
561.615	34.51
561.811	34.68
562.007	34.75
562.203	34.65
562.399	34.71
562.595	34.8
562.791	34.81
562.987	34.86
563.183	34.79
563.379	34.97
563.575	35.09
563.771	35.13
563.966	35.09
564.162	35.12
564.358	35.04
564.554	35.04
564.75	35
564.945	35.04
565.141	35.05
565.337	35.06
565.533	34.98
565.728	34.9
565.924	34.92
566.12	34.89
566.315	34.82
566.511	34.9
566.707	34.92
566.902	34.91
567.098	34.95
567.293	34.98
567.489	34.97
567.684	35
567.88	35.02
568.076	34.97
568.271	35.05
568.467	35.1
568.662	34.98
568.858	35.03
569.053	35.14
569.248	35.15
569.444	35.11
569.639	35.07
569.835	35.11
570.03	35.12
570.225	35.15
570.421	35.08
570.616	34.98
570.812	35.13
571.007	35.11
571.202	35.04
571.397	35.14
571.593	35.06
571.788	35.17
571.983	35.21
572.178	35.32
572.374	35.34
572.569	35.43
572.764	35.5
572.959	35.48
573.154	35.48
573.35	35.66
573.545	35.5
573.74	35.6
573.935	35.53
574.13	35.48
574.325	35.42
574.52	35.56
574.715	35.62
574.91	35.68
575.105	35.81
575.3	35.92
575.495	35.87
575.69	36.01
575.885	36.07
576.08	36.15
576.275	36.38
576.47	36.35
576.665	36.3
576.86	36.21
577.055	36.2
577.25	36.11
577.444	36.22
577.639	36.32
577.834	36.36
578.029	36.42
578.224	36.45
578.418	36.4
578.613	36.54
578.808	36.67
579.003	36.92
579.197	37.01
579.392	37.06
579.587	36.87
579.781	36.89
579.976	36.95
580.171	37.03
580.365	37.14
580.56	37.15
580.755	37.08
580.949	36.97
581.144	36.91
581.338	36.92
581.533	37.09
581.727	37.33
581.922	37.2
582.116	37.17
582.311	37.13
582.505	37.15
582.7	37.15
582.894	37.26
583.089	37.34
583.283	37.45
583.478	37.45
583.672	37.43
583.866	37.34
584.061	37.36
584.255	37.38
584.449	37.49
584.644	37.38
584.838	37.58
585.032	37.58
585.226	37.5
585.421	37.46
585.615	37.58
585.809	37.62
586.003	37.63
586.198	37.78
586.392	37.83
586.586	37.74
586.78	37.76
586.974	37.67
587.168	37.67
587.363	37.8
587.557	37.77
587.751	37.74
587.945	37.6
588.139	37.5
588.333	37.4
588.527	37.48
588.721	37.47
588.915	37.53
589.109	37.4
589.303	37.37
589.497	37.39
589.691	37.29
589.885	37.33
590.079	37.38
590.273	37.42
590.466	37.53
590.66	37.49
590.854	37.59
591.048	37.67
591.242	37.69
591.436	37.79
591.629	37.81
591.823	38.04
592.017	38.02
592.211	38.02
592.404	38.14
592.598	38.11
592.792	38.08
592.986	38.15
593.179	37.99
593.373	37.95
593.567	37.96
593.76	37.79
593.954	37.49
594.147	37.42
594.341	37.33
594.535	37.34
594.728	37.38
594.922	37.34
595.115	37.27
595.309	37.3
595.502	37.29
595.696	37.22
595.889	37.24
596.083	37.35
596.276	37.25
596.47	37.46
596.663	37.43
596.856	37.36
597.05	37.3
597.243	37.36
597.437	37.38
597.63	37.4
597.823	37.49
598.017	37.56
598.21	37.63
598.403	37.93
598.596	37.97
598.79	38.05
598.983	38.16
599.176	38.37
599.369	38.29
599.563	38.34
599.756	38.52
599.949	38.46
600.142	38.37
600.335	38.39
600.528	38.17
600.722	38.03
600.915	37.95
601.108	37.79
601.301	37.8
601.494	37.88
601.687	37.91
601.88	37.83
602.073	37.84
602.266	37.94
602.459	37.84
602.652	37.8
602.845	37.76
603.038	37.79
603.231	37.91
603.424	37.83
603.617	37.77
603.809	37.66
604.002	37.67
604.195	37.65
604.388	37.66
604.581	37.71
604.774	37.83
604.966	37.84
605.159	37.82
605.352	37.79
605.545	37.85
605.737	37.9
605.93	38.06
606.123	38.14
606.316	38.3
606.508	38.48
606.701	38.54
606.894	38.63
607.086	38.88
607.279	39.1
607.471	39.22
607.664	39.28
607.857	39.57
608.049	39.85
608.242	40.06
608.434	40.49
608.627	40.89
608.819	41.47
609.012	42.03
609.204	42.65
609.397	43.42
609.589	44.33
609.782	45.33
609.974	46.23
610.166	47.22
610.359	48.27
610.551	49.03
610.743	49.72
610.936	50.29
611.128	50.9
611.32	51.28
611.513	51.36
611.705	51.38
611.897	51.28
612.09	51.09
612.282	50.53
612.474	50.06
612.666	49.67
612.858	49.32
613.051	49.01
613.243	48.48
613.435	47.99
613.627	47.6
613.819	47.07
614.011	46.7
614.203	46.2
614.395	45.89
614.588	45.27
614.78	44.75
614.972	44.22
615.164	43.86
615.356	43.26
615.548	42.94
615.74	42.77
615.932	42.53
616.124	42.17
616.315	41.99
616.507	41.83
616.699	41.67
616.891	41.46
617.083	41.56
617.275	41.32
617.467	41.27
617.659	41.06
617.85	40.67
618.042	40.56
618.234	40.37
618.426	40.13
618.618	40.14
618.809	40.38
619.001	40.29
619.193	40.19
619.384	40.24
619.576	40.43
619.768	40.53
619.959	40.72
620.151	40.8
620.343	41.01
620.534	41.07
620.726	40.95
620.917	40.88
621.109	40.99
621.301	40.89
621.492	40.76
621.684	40.68
621.875	40.51
622.067	40.55
622.258	40.65
622.45	40.85
622.641	40.79
622.832	40.81
623.024	40.86
623.215	40.77
623.407	40.83
623.598	40.91
623.789	40.95
623.981	41.15
624.172	41.05
624.363	40.85
624.555	40.49
624.746	40.44
624.937	40.59
625.129	40.53
625.32	40.43
625.511	40.34
625.702	40.39
625.893	40.44
626.085	40.44
626.276	40.48
626.467	40.52
626.658	40.63
626.849	40.73
627.04	40.54
627.231	40.51
627.422	40.7
627.614	40.7
627.805	40.77
627.996	40.64
628.187	40.77
628.378	40.74
628.569	40.83
628.76	41.01
628.951	41.03
629.142	41.33
629.332	41.45
629.523	41.71
629.714	41.9
629.905	41.99
630.096	42.18
630.287	42.23
630.478	42.38
630.669	42.59
630.859	42.42
631.05	42.38
631.241	42.13
631.432	41.83
631.623	41.64
631.813	41.42
632.004	41.18
632.195	40.85
632.385	40.57
632.576	40.58
632.767	40.31
632.957	40.29
633.148	40.19
633.339	40.19
633.529	40.29
633.72	40.14
633.91	40.03
634.101	39.92
634.292	40.02
634.482	39.99
634.673	40
634.863	39.87
635.054	39.91
635.244	39.92
635.435	39.94
635.625	39.89
635.815	39.84
636.006	39.93
636.196	40.01
636.387	39.89
636.577	39.87
636.767	39.7
636.958	39.94
637.148	39.89
637.338	39.95
637.529	40.09
637.719	40.17
637.909	40.25
638.099	40.31
638.29	40.25
638.48	40.62
638.67	40.67
638.86	40.61
639.05	40.52
639.241	40.64
639.431	40.74
639.621	40.53
639.811	40.52
640.001	40.59
640.191	40.63
640.381	40.77
640.571	40.53
640.761	40.54
640.951	40.79
641.141	40.67
641.331	40.5
641.521	40.23
641.711	40.41
641.901	40.55
642.091	40.54
642.281	40.47
642.471	40.48
642.661	40.59
642.851	40.62
643.041	40.6
643.231	40.77
643.42	40.72
643.61	41.02
643.8	40.93
643.99	40.87
644.18	41.01
644.369	41.18
644.559	41.22
644.749	41.15
644.939	41.17
645.128	41.08
645.318	41.03
645.508	41.19
645.697	41.06
645.887	41
646.076	40.91
646.266	40.81
646.456	40.85
646.645	40.89
646.835	40.9
647.024	40.96
647.214	40.95
647.403	40.97
647.593	40.85
647.782	41.04
647.972	41.12
648.161	41.21
648.351	41.18
648.54	41.12
648.73	41.09
648.919	41.22
649.108	41.4
649.298	41.52
649.487	41.63
649.677	41.77
649.866	41.77
650.055	41.91
650.244	41.96
650.434	42.04
650.623	41.9
650.812	41.93
651.002	41.86
651.191	41.77
651.38	41.51
651.569	41.54
651.758	41.46
651.947	41.43
652.137	41.53
652.326	41.45
652.515	41.32
652.704	41.38
652.893	41.3
653.082	41.37
653.271	41.09
653.46	41.3
653.649	41.42
653.838	41.49
654.027	41.47
654.216	41.22
654.405	41.27
654.594	41.3
654.783	41.29
654.972	41.19
655.161	41.23
655.35	41.32
655.539	41.21
655.728	41.03
655.916	40.98
656.105	40.86
656.294	40.82
656.483	40.62
656.672	40.68
656.86	40.61
657.049	40.6
657.238	40.56
657.427	40.59
657.615	40.73
657.804	40.65
657.993	40.54
658.181	40.72
658.37	40.75
658.559	41.07
658.747	40.98
658.936	41.1
659.125	41.07
659.313	40.97
659.502	41.02
659.69	41
659.879	40.93
660.067	41.13
660.256	41.09
660.444	41.06
660.633	40.95
660.821	41.22
661.01	41.31
661.198	41.54
661.387	41.76
661.575	41.95
661.763	41.94
661.952	42.12
662.14	42.19
662.328	42.07
662.517	42.28
662.705	42.21
662.893	42.18
663.082	42.09
663.27	42.1
663.458	41.92
663.646	41.82
663.834	41.86
664.023	41.87
664.211	41.84
664.399	42.16
664.587	42.16
664.775	42.27
664.963	42.37
665.152	42.33
665.34	42.41
665.528	42.67
665.716	42.77
665.904	42.77
666.092	42.89
666.28	42.74
666.468	42.65
666.656	42.77
666.844	42.73
667.032	42.66
667.22	42.8
667.408	42.62
667.596	42.54
667.784	42.49
667.971	42.52
668.159	42.54
668.347	42.58
668.535	42.55
668.723	42.42
668.911	42.33
669.098	42.18
669.286	42.28
669.474	42.21
669.662	42.12
669.849	41.93
670.037	42.01
670.225	42.16
670.413	42.47
670.6	42.54
670.788	42.64
670.976	42.76
671.163	42.92
671.351	42.81
671.538	43.24
671.726	43.15
671.913	43.1
672.101	42.75
672.289	42.74
672.476	42.33
672.664	42.4
672.851	42.32
673.039	42.39
673.226	42.2
673.413	42.04
673.601	41.56
673.788	41.87
673.976	42.23
674.163	42.72
674.35	42.49
674.538	42.9
674.725	43.02
674.912	43.06
675.1	42.92
675.287	42.96
675.474	43.21
675.662	43.41
675.849	43.58
676.036	43.68
676.223	43.63
676.411	43.75
676.598	43.6
676.785	43.55
676.972	43.58
677.159	43.82
677.346	43.75
677.533	43.55
677.721	43.72
677.908	43.54
678.095	43.22
678.282	43.04
678.469	42.93
678.656	42.89
678.843	42.5
679.03	42.36
679.217	42.42
679.404	42.46
679.591	42.48
679.778	42.26
679.964	42.15
680.151	42.08
680.338	42.21
680.525	42.33
680.712	42.42
680.899	42.73
681.086	42.98
681.272	42.94
681.459	42.93
681.646	43.08
681.833	43.19
682.02	43.38
682.206	43.75
682.393	43.58
682.58	43.51
682.766	43.43
682.953	43.29
683.14	42.91
683.326	42.88
683.513	43.24
683.7	43
683.886	42.97
684.073	42.88
684.259	42.78
684.446	42.87
684.632	42.87
684.819	42.67
685.005	42.71
685.192	43.04
685.378	42.95
685.565	42.57
685.751	43.02
685.938	42.93
686.124	43.07
686.31	43.03
686.497	43.18
686.683	43.19
686.87	43.7
687.056	43.5
687.242	43.46
687.429	43.39
687.615	43.24
687.801	42.8
687.987	43.02
688.174	43.08
688.36	43.03
688.546	43.05
688.732	43.02
688.918	42.6
689.105	42.88
689.291	42.8
689.477	43.12
689.663	43.42
689.849	43.59
690.035	43.72
690.221	43.38
690.407	43.47
690.593	43.29
690.779	43.27
690.965	43.35
691.151	43.07
691.337	43.19
691.523	43.14
691.709	43.1
691.895	43.36
692.081	43.37
692.267	43.65
692.453	43.7
692.639	44.04
692.825	44.02
693.011	44.33
693.196	44.42
693.382	44.62
693.568	44.41
693.754	44.72
693.94	44.54
694.125	44.56
694.311	44.43
694.497	44.19
694.682	44.02
694.868	43.95
695.054	43.65
695.239	43.79
695.425	43.5
695.611	43.67
695.796	43.55
695.982	43.49
696.168	43.15
696.353	43.22
696.539	43.38
696.724	43.21
696.91	43.01
697.095	42.8
697.281	42.71
697.466	42.48
697.652	42.35
697.837	42.11
698.023	41.96
698.208	41.91
698.393	41.83
698.579	41.69
698.764	41.67
698.949	41.73
699.135	41.9
699.32	41.91
699.505	41.97
699.691	42.04
699.876	42.21
700.061	42.3
700.246	42.43
700.432	42.46
700.617	42.48
700.802	42.53
700.987	42.71
701.172	42.8
701.358	43.06
701.543	43.5
701.728	43.73
701.913	43.62
702.098	43.81
702.283	44.06
702.468	44.26
702.653	44.55
702.838	45.08
703.023	45.2
703.208	45.24
703.393	45.26
703.578	45.23
703.763	45.31
703.948	45.59
704.133	45.93
704.318	45.86
704.503	45.8
704.688	46.28
704.873	46.04
705.057	46.52
705.242	46.75
705.427	46.96
705.612	47.06
705.797	46.98
705.981	47.1
706.166	46.79
706.351	47.1
706.536	47.44
706.72	47.15
706.905	47.15
707.09	47.09
707.274	47.23
707.459	46.99
707.644	47.15
707.828	47.45
708.013	47.44
708.197	47.46
708.382	47.19
708.567	47.19
708.751	47.17
708.936	47.22
709.12	46.88
709.305	46.49
709.489	46.64
709.673	46.53
709.858	46.01
710.042	46.18
710.227	46.44
710.411	46.35
710.596	46.36
710.78	46.53
710.964	46.36
711.149	46.72
711.333	47.22
711.517	47.18
711.702	47.17
711.886	47.35
712.07	47.25
712.254	47.31
712.438	47.48
712.623	47.38
712.807	46.89
712.991	47.21
713.175	46.76
713.359	46.34
713.544	46.07
713.728	45.87
713.912	45.34
714.096	44.95
714.28	44.18
714.464	44.15
714.648	43.96
714.832	43.99
715.016	43.61
715.2	43.54
715.384	43.47
715.568	43.66
715.752	43.41
715.936	43.65
716.12	43.89
716.304	44.46
716.488	44.18
716.671	43.84
716.855	43.95
717.039	44.07
717.223	44.25
717.407	44.18
717.59	44.11
717.774	43.83
717.958	44.07
718.142	44.21
718.325	43.76
718.509	44.07
718.693	44.35
718.877	44.11
719.06	44.08
719.244	43.89
719.428	44.03
719.611	44.06
719.795	44.54
719.978	44.52
720.162	44.4
720.345	44.75
720.529	44.95
720.713	44.85
720.896	44.71
721.08	44.96
721.263	45.08
721.446	45.13
721.63	45.11
721.813	45.26
721.997	45.62
722.18	45.9
722.364	45.85
722.547	45.43
722.73	45.61
722.914	45.91
723.097	45.62
723.28	45.67
723.464	45.44
723.647	45.62
723.83	45.14
724.013	44.9
724.197	44.57
724.38	44.44
724.563	44.57
724.746	44.28
724.929	44.44
725.112	44.46
725.296	44.2
725.479	44.72
725.662	44.76
725.845	44.97
726.028	44.82
726.211	44.82
726.394	44.55
726.577	44.47
726.76	45.21
726.943	44.59
727.126	44.22
727.309	44.56
727.492	44.03
727.675	44.17
727.858	43.92
728.041	44.1
728.224	44.11
728.407	44.66
728.589	44.31
728.772	43.85
728.955	44.59
729.138	44.74
729.321	44.58
729.503	44.65
729.686	43.93
729.869	44.03
730.052	43.53
730.234	43.5
730.417	43.55
730.6	43.66
730.782	43.71
730.965	43.48
731.148	43.56
731.33	43.76
731.513	43.98
731.695	44.17
731.878	44.52
732.061	44.8
732.243	44.81
732.426	44.32
732.608	44.57
732.791	44.57
732.973	44.13
733.156	44.27
733.338	43.9
733.52	43.87
733.703	44.08
733.885	44.1
734.068	44.1
734.25	44.38
734.432	44.5
734.615	44.95
734.797	44.92
734.979	45.23
735.162	45.01
735.344	45.13
735.526	45.42
735.708	45.82
735.891	45.75
736.073	45.95
736.255	45.94
736.437	46.17
736.619	45.98
736.802	45.85
736.984	46.28
737.166	46.92
737.348	47.22
737.53	46.98
737.712	46.63
737.894	46.92
738.076	46.79
738.258	46.58
738.44	46.69
738.622	46.51
738.804	46.87
738.986	47.14
739.168	46.66
739.35	47
739.532	47.24
739.714	47.38
739.896	46.97
740.078	47.32
740.259	46.9
740.441	47.05
740.623	47.08
740.805	46.57
740.987	46
741.168	45.98
741.35	45.05
741.532	44.92
741.714	44.94
741.895	45.2
742.077	44.83
742.259	45.51
742.44	45.47
742.622	45.36
742.804	46.14
742.985	46.55
743.167	46.97
743.348	47.7
743.53	47.26
743.711	47.37
743.893	47.46
744.075	47.86
744.256	47.47
744.438	46.99
744.619	47.53
744.8	47.27
744.982	47.33
745.163	47.83
745.345	47.94
745.526	48.28
745.707	47.97
745.889	47.68
746.07	47.9
746.252	47.65
746.433	47.59
746.614	46.82
746.795	46.76
746.977	46.72
747.158	46.22
747.339	46
747.52	46.32
747.702	46.41
747.883	46.54
748.064	45.95
748.245	46.26
748.426	46.54
748.607	46.88
748.788	46.71
748.97	46.62
749.151	46.79
749.332	47.08
749.513	46.95
749.694	47.05
749.875	46.89
750.056	47.65
750.237	47.71
750.418	47.92
750.599	47.44
750.78	47.77
750.96	47.65
751.141	47.72
751.322	47.13
751.503	47.16
751.684	47.2
751.865	47.3
752.046	46.59
752.226	46.46
752.407	46.3
752.588	46.85
752.769	46.27
752.949	46.18
753.13	45.42
753.311	45.68
753.492	45.34
753.672	45.12
753.853	44.97
754.034	45.81
754.214	46.27
754.395	46.17
754.575	46.57
754.756	47.15
754.937	47.22
755.117	47.76
755.298	47.77
755.478	47.72
755.659	47.51
755.839	47.74
756.02	47.1
756.2	46.72
756.381	46.34
756.561	45.81
756.741	45.18
756.922	45.47
757.102	45.58
757.283	45.35
757.463	45.75
757.643	46.42
757.823	46.31
758.004	46
758.184	45.8
758.364	46.51
758.545	46.03
758.725	46.59
758.905	45.86
759.085	45.64
759.265	46.08
759.446	45.29
759.626	44.71
759.806	45.16
759.986	45.31
760.166	45.31
760.346	44.62
760.526	45
760.706	44.55
760.886	44.58
761.066	44.51
761.246	44.27
761.426	44.55
761.606	44.54
761.786	43.54
761.966	43.2
762.146	42.37
762.326	42.39
762.506	42.2
762.686	42.48
762.866	42.54
763.046	42.3
763.225	42
763.405	41.83
763.585	41.98
763.765	42.45
763.945	42.48
764.124	43.16
764.304	43.35
764.484	43.54
764.664	43.62
764.843	43.75
765.023	44.02
765.203	44
765.382	44.17
765.562	44.03
765.741	43.64
765.921	43.67
766.101	43.83
766.28	43.83
766.46	43.72
766.639	43.96
766.819	44.26
766.998	43.9
767.178	44.49
767.357	45.19
767.537	45.36
767.716	46.28
767.896	46.57
768.075	46.11
768.254	46.05
768.434	46.35
768.613	46.06
768.792	45.78
768.972	46.65
769.151	46.56
769.33	46.07
769.51	45.56
769.689	45.54
769.868	45.2
770.047	45.86
770.226	45.78
770.406	45.54
770.585	45.77
770.764	46.08
770.943	45.02
771.122	44.61
771.301	44.76
771.48	45.22
771.66	44.42
771.839	44.77
772.018	44.46
772.197	45.23
772.376	45.48
772.555	45.35
772.734	45.18
772.913	46
773.092	46.24
773.271	45.95
773.449	46.45
773.628	47.13
773.807	47.35
773.986	48.06
774.165	47.71
774.344	48
774.523	47.99
774.701	48.01
774.88	48.5
775.059	48.91
775.238	49.08
775.417	48.07
775.595	48.5
775.774	48.27
775.953	47.27
776.131	47.66
776.31	47.47
776.489	47.84
776.667	48.45
776.846	47.57
777.025	47.35
777.203	47.41
777.382	48.43
777.56	47.77
777.739	47.69
777.917	48.22
778.096	47.98
778.274	47.96
778.453	46.9
778.631	46.97
778.81	46.72
778.988	46.37
779.166	46.99
779.345	46.58
779.523	46.29
779.702	47.14
779.88	46.86
780.058	47.04
780.237	47.2
780.415	48.67
780.593	47.97
780.771	49.36
780.95	49.72
781.128	49.81
781.306	50.43
781.484	50.98
781.662	50.67
781.841	51.25
782.019	51.58
782.197	51.01
782.375	51.28
782.553	51.54
782.731	50.96
782.909	51.18
783.087	50.06
783.265	49.57
783.443	48.93
783.621	48.76
783.799	48.19
783.977	48.14
784.155	48.99
784.333	47.8
784.511	48.36
784.689	48.45
784.867	49
785.045	50.08
785.223	49.91
785.4	50.64
785.578	50.53
785.756	50.16
785.934	49.65
786.112	49.19
786.289	49.37
786.467	47.68
786.645	47.32
786.823	46.8
787	45.89
787.178	45.81
787.356	45.09
787.533	44.27
787.711	44.58
787.889	44.67
788.066	44.57
788.244	43.91
788.421	45.01
788.599	44.3
788.776	43.96
788.954	44.27
789.131	43.91
789.309	44.33
789.486	44.9
789.664	45.23
789.841	44.87
790.019	44.91
790.196	45.53
790.373	45.15
790.551	46.71
790.728	46.02
790.906	45.87
791.083	47.32
791.26	48
791.437	48.58
791.615	48.71
791.792	49.43
791.969	48.96
792.146	49.19
792.324	49.03
792.501	48.59
792.678	49.48
792.855	49.18
793.032	48.23
793.209	47.46
793.387	47.27
793.564	47.07
793.741	46.1
793.918	46.41
794.095	45.84
794.272	46.6
794.449	46.45
794.626	46.36
794.803	46.63
794.98	47.03
795.157	46.98
795.334	46.45
795.511	45.83
795.688	46.42
795.864	46.07
796.041	46.56
796.218	45.67
796.395	45.98
796.572	45.76
796.749	45.85
796.925	45.23
797.102	46.33
797.279	46.25
797.456	46.76
797.632	46.95
797.809	47.14
797.986	47
798.162	47.59
798.339	46.44
798.516	46.44
798.692	46.62
798.869	46.69
799.046	45.28
799.222	45.71
799.399	45.39
799.575	45.85
799.752	46.21
799.928	46.25
800.105	46.81
800.281	47.43
800.458	47.63
800.634	47.46
800.811	47.39
800.987	47.54
801.163	47.21
801.34	47.71
801.516	46.73
801.692	46.22
801.869	46.18
802.045	46.51
802.221	46.93
802.398	47.81
802.574	46.93
802.75	47.06
802.926	47.82
803.103	47.87
803.279	47.27
803.455	47.56
803.631	48.99
803.807	49.76
803.983	48.47
804.16	48.16
804.336	47.22
804.512	48.55
804.688	49.15
804.864	48.03
805.04	48.5
805.216	48.85
805.392	49.22
805.568	48.82
805.744	48.1
805.92	48.55
806.096	47.75
806.272	49.26
806.448	48.97
806.623	48.48
806.799	48.53
806.975	47.77
807.151	48.33
807.327	48.04
807.503	48.24
807.678	47.76
807.854	47.69
808.03	48.6
808.206	47.41
808.381	47.52
808.557	47.9
808.733	48.39
808.908	48.4
809.084	48.02
809.26	47.42
809.435	47.21
809.611	48.58
809.787	48.55
809.962	48.29
810.138	47.86
810.313	46.84
810.489	46.83
810.664	46.72
810.84	47.53
811.015	47.67
811.191	48.46
811.366	48.69
811.542	48.64
811.717	48.14
811.892	48.33
812.068	49.58
812.243	50.19
812.419	49.97
812.594	49.94
812.769	49.95
812.944	49.84
813.12	49.67
813.295	49.19
813.47	47.15
813.645	46.75
813.821	46.52
813.996	45.55
814.171	46.08
814.346	46.33
814.521	47.32
814.697	46.97
814.872	47.6
815.047	48.12
815.222	47.64
815.397	48.22
815.572	48.75
815.747	48.58
815.922	48.3
816.097	48.06
816.272	47.5
816.447	47.49
816.622	47.28
816.797	46.72
816.972	45.62
817.147	46
817.322	46.27
817.496	46.59
817.671	47.04
817.846	47.43
818.021	47.05
818.196	46.73
818.371	45.12
818.545	44.68
818.72	44.94
818.895	45.26
819.069	44.26
819.244	43.78
819.419	43.18
819.594	42.54
819.768	42.11
819.943	41.41
820.117	40.97
820.292	40.63
820.467	40.15
820.641	39.39
820.816	38.38
820.99	38.11
821.165	37.73
821.339	36.95
821.514	36.52
821.688	36.06
821.863	35.87
822.037	35.52
822.212	35.25
822.386	35.14
822.56	34.76
822.735	34.93
822.909	35.08
823.084	35.07
823.258	35.31
823.432	35.19
823.606	35.41
823.781	35.78
823.955	36.03
824.129	36.31
824.303	36.44
824.478	36.85
824.652	36.78
824.826	36.63
825	36.7
825.174	37.19
825.348	37.75
825.523	37.57
825.697	37.34
825.871	37.67
826.045	37.79
826.219	38.02
826.393	37.78
826.567	38.1
826.741	38.29
826.915	38.25
827.089	37.39
827.263	37.29
827.437	37.47
827.611	37.56
827.784	37.42
827.958	37.59
828.132	37.43
828.306	37.67
828.48	37.65
828.654	37.94
828.827	38.7
829.001	39.3
829.175	39.43
829.349	40.19
829.522	40.6
829.696	41.18
829.87	41.43
830.044	42.42
830.217	43.33
830.391	44.04
830.565	43.97
830.738	43.2
830.912	42.89
831.085	44.1
831.259	44.28
831.432	44.2
831.606	44.11
831.779	43.09
831.953	42.59
832.126	41.61
832.3	41.14
832.473	40.77
832.647	40.71
832.82	41.68
832.994	40.76
833.167	40.97
833.34	40.87
833.514	40.72
833.687	41.19
833.86	40.86
834.034	41.06
834.207	41.58
834.38	41.66
834.553	42.32
834.727	42.12
834.9	42.6
835.073	41.88
835.246	41.62
835.419	41.8
835.593	42.29
835.766	42.96
835.939	43.81
836.112	43.34
836.285	44.17
836.458	43.65
836.631	44.38
836.804	44.74
836.977	46.58
837.15	47.78
837.323	48.33
837.496	48.5
837.669	48.69
837.842	48.35
838.015	49.16
838.188	48.97
838.361	49.66
838.533	48.16
838.706	48.26
838.879	46.61
839.052	46.38
839.225	45.36
839.398	45.77
839.57	47.04
839.743	46.6
839.916	46.4
840.088	46.96
840.261	47.67
840.434	49.71
840.607	49.89
840.779	49.73
840.952	49.73
841.124	51.63
841.297	50.2
841.47	49.49
841.642	50.42
841.815	52.13
841.987	52
842.16	52.49
842.332	50.8
842.505	51.56
842.677	51.85
842.85	53.04
843.022	51.93
843.194	53.31
843.367	54.15
843.539	54.32
843.712	53.5
843.884	52.85
844.056	51.07
844.229	52.07
844.401	50.39
844.573	50.55
844.745	50.39
844.918	52.45
845.09	54.04
845.262	53.95
845.434	56
845.606	55.71
845.779	57.41
845.951	58.32
846.123	59.23
846.295	59.27
846.467	60.43
846.639	60.81
846.811	58.77
846.983	58.43
847.155	57.42
847.327	57.02
847.499	56.91
847.671	57.54
847.843	59.56
848.015	60.02
848.187	60.49
848.359	61.21
848.531	62.79
848.703	60.85
848.875	61.8
849.047	62.86
849.218	62.22
849.39	63.09
849.562	62.92
849.734	60.38
849.905	59.98
850.077	61
850.249	61.49
850.421	57.85
850.592	61.83
850.764	60.39
850.936	61.04
851.107	61.01
851.279	60.57
851.451	58.93
851.622	60.37
851.794	59.94
851.965	59.65
852.137	57.41
852.308	58.5
852.48	58.56
852.651	59.66
852.823	60.96
852.994	61.94
853.166	60.56
853.337	62.05
853.509	60.16
853.68	59.97
853.851	60.28
854.023	60.67
854.194	61.82
854.365	61.53
854.537	61.04
854.708	57.46
854.879	57
855.05	59.04
855.222	60.23
855.393	61.27
855.564	62.73
855.735	61.3
855.906	61.27
856.078	59.96
856.249	57.29
856.42	56.62
856.591	57.76
856.762	57.79
856.933	57.38
857.104	54.97
857.275	54.43
857.446	53.54
857.617	55.53
857.788	55.75
857.959	55.59
858.13	56.11
858.301	57.27
858.472	58.46
858.643	57.12
858.814	56.62
858.985	58.46
859.155	59.79
859.326	60.57
859.497	58.54
859.668	58.15
859.839	59.13
860.009	60.27
860.18	59.03
860.351	58.63
860.522	59.16
860.692	59.84
860.863	59.19
861.034	60.26
861.204	61.05
861.375	63.93
861.546	66.66
861.716	68.24
861.887	68.91
862.057	68.45
862.228	69.6
862.398	71.14
862.569	67.36
862.739	68.14
862.91	66.82
863.08	63.67
863.251	64.46
863.421	62.63
863.592	60.22
863.762	58.42
863.932	59.33
864.103	57.57
864.273	56.56
864.443	57.34
864.614	53.99
864.784	54.9
864.954	57.35
865.125	56.05
865.295	57.2
865.465	56.8
865.635	56.89
865.805	59.74
865.976	59.38
866.146	59.18
866.316	60.89
866.486	63.03
866.656	60.79
866.826	59.14
866.996	58
867.166	57.06
867.336	59.9
867.506	60.25
867.676	57.22
867.846	59.05
868.016	58.77
868.186	59.06
868.356	59.49
868.526	60.23
868.696	58.67
868.866	59.47
869.036	58.83
869.206	57.85
869.376	58.43
869.545	58.76
869.715	57.69
869.885	56.44
870.055	57.54
870.224	56.38
870.394	57.99
870.564	60.86
870.734	61.02
870.903	61.28
871.073	59.99
871.243	61.36
871.412	63.09
871.582	64.27
871.751	65.74
871.921	64.35
872.091	64.74
872.26	64.2
872.43	65.81
872.599	65.02
872.769	65.94
872.938	65.72
873.108	64.5
873.277	61.21
873.446	60.04
873.616	61.31
873.785	62.07
873.955	64.08
874.124	63.25
874.293	60.14
874.463	59.13
874.632	57.3
874.801	57.46
874.971	57.73
875.14	58.82
875.309	58.17
875.478	57.39
875.647	57.21
875.817	55.11
875.986	54.58
876.155	55.89
876.324	58.06
876.493	60.06
876.662	58.53
876.831	58.04
877	60.06
877.17	58.34
877.339	55.94
877.508	57.18
877.677	57.14
877.846	57.37
878.015	56.86
878.184	55.57
878.352	54.06
878.521	55.04
878.69	54.17
878.859	51.48
879.028	51.47
879.197	52.46
879.366	49.85
879.534	49.56
879.703	48.88
879.872	47.71
880.041	45.55
880.21	44.52
880.378	43.49
880.547	42.45
880.716	41.49
880.884	41.01
881.053	39.11
881.222	38.21
881.39	37.41
881.559	36.84
881.727	35.98
881.896	36
882.065	35.98
882.233	35.01
882.402	34.96
882.57	34.8
882.739	35.04
882.907	35.32
883.076	35.98
883.244	36.27
883.412	36.15
883.581	36.88
883.749	37.35
883.918	37.07
884.086	38.36
884.254	38.66
884.423	38.85
884.591	38.42
884.759	39.12
884.927	38.45
885.096	39.08
885.264	38.99
885.432	39.81
885.6	39.7
885.769	40.99
885.937	41.09
886.105	41.97
886.273	43.21
886.441	46.29
886.609	46.49
886.777	48.83
886.945	48.14
887.113	50.25
887.281	49.95
887.449	51.58
887.617	52.48
887.785	53.46
887.953	54.85
888.121	56.34
888.289	53.48
888.457	55
888.625	53.42
888.793	54.12
888.961	54.47
889.129	54.98
889.296	54.14
889.464	53.9
889.632	53.69
889.8	51.83
889.967	51.11
890.135	53.59
