Data from 2938841__Reflection_01.txt Node
Date: Wed Mar 11 15:31:46 EDT 2015
User: robert
Spectrometer: USB4E03002
Autoset integration time: false
Trigger mode: 4
Integration Time (sec): 1.000000E-1
Scans to average: 10
Electric dark correction enabled: false
Nonlinearity correction enabled: false
Boxcar width: 5
Stray light correction enabled: false
XAxis mode: Wavelengths
Stop averaging: false
Number of Pixels in Spectrum: 3648
>>>>>Begin Spectral Data<<<<<
177.575	957.78
177.794	320.67
178.014	342.25
178.233	337.5
178.452	664.52
178.672	725
178.891	759.62
179.11	-1371.43
179.33	10.42
179.549	25.4
179.768	76.16
179.987	-89.56
180.207	-126.28
180.426	-98.63
180.645	-120.67
180.864	-147.1
181.084	-102.44
181.303	102.61
181.522	90.32
181.741	492.5
181.96	-181.08
182.179	-406.38
182.398	-714
182.618	337.41
182.837	641.58
183.056	395.92
183.275	320.99
183.494	246.32
183.713	471.64
183.932	413.59
184.151	338.35
184.37	-7600
184.589	-382.5
184.808	-48
185.027	-21.74
185.246	-87
185.465	-126.4
185.684	-54.48
185.903	52.6
186.122	-20.53
186.341	42.08
186.56	61.6
186.779	119.4
186.998	147.86
187.216	145.45
187.435	157.82
187.654	294.27
187.873	214.24
188.092	138.54
188.311	194.35
188.53	196.37
188.748	187.09
188.967	456.35
189.186	-243.8
189.405	-62.65
189.623	-7.84
189.842	-60.26
190.061	-384.62
190.28	-97.2
190.498	-61.96
190.717	-83.66
190.936	-23.75
191.154	-34.88
191.373	-72.38
191.592	232.1
191.81	223.21
192.029	231.66
192.248	373.83
192.466	358.89
192.685	122.9
192.904	82.41
193.122	69.15
193.341	33.33
193.559	28.18
193.778	23.08
193.996	19.23
194.215	-7.4
194.433	-23.52
194.652	-128.16
194.87	-125.37
195.089	-158.02
195.307	-2291.67
195.526	-177.78
195.744	-273.91
195.963	552.63
196.181	7.19
196.399	-75.59
196.618	85.65
196.836	69.83
197.055	74.28
197.273	58.84
197.491	56.68
197.71	60.42
197.928	47.75
198.146	5.41
198.365	45.72
198.583	20.87
198.801	13.9
199.019	-85.58
199.238	211.76
199.456	196.3
199.674	37.74
199.892	102.11
200.111	86.67
200.329	118.83
200.547	145.36
200.765	86.93
200.983	108.8
201.202	113.17
201.42	134.13
201.638	102.36
201.856	85.47
202.074	-2.12
202.292	-6.93
202.51	7.99
202.728	0
202.946	-50.35
203.165	52.89
203.383	7.43
203.601	88.03
203.819	78.25
204.037	100.95
204.255	262.11
204.473	179.1
204.691	153.75
204.909	65.04
205.127	65.07
205.345	50.56
205.562	51.01
205.78	59.64
205.998	57.84
206.216	63.62
206.434	49.78
206.652	35.44
206.87	63.1
207.088	74.62
207.306	108.04
207.523	161.19
207.741	281.17
207.959	-428.81
208.177	-75.63
208.395	-16.84
208.612	0.66
208.83	-93.24
209.048	-102.11
209.266	-8.79
209.483	21.92
209.701	-113.75
209.919	72
210.136	97.08
210.354	-508.57
210.572	-324.32
210.79	-141.38
211.007	-59.89
211.225	-195.8
211.442	-62.63
211.66	-13.4
211.878	4.59
212.095	378.87
212.313	303.62
212.53	334.3
212.748	326.27
212.966	233.23
213.183	194.22
213.401	148.06
213.618	169.57
213.836	150.32
214.053	117.21
214.271	115.34
214.488	-25.78
214.705	-12.63
214.923	-1.41
215.14	4.2
215.358	-2.93
215.575	-14.88
215.793	-20.25
216.01	1.66
216.227	-5.23
216.445	-23.78
216.662	-25.74
216.879	-2.83
217.097	-11.78
217.314	4.61
217.531	9.96
217.749	25.42
217.966	15.81
218.183	20.83
218.4	14.06
218.618	15.34
218.835	16.41
219.052	16.92
219.269	16.43
219.487	18.99
219.704	7.61
219.921	-4.14
220.138	-20.73
220.355	-12.11
220.572	-16.54
220.79	-12.28
221.007	-6.63
221.224	-1.96
221.441	-6.16
221.658	-8
221.875	-15.64
222.092	-10.15
222.309	-9.84
222.526	4.28
222.743	2.19
222.96	3.88
223.177	-0.14
223.394	-3.03
223.611	-7.97
223.828	-6.48
224.045	-7.99
224.262	-0.47
224.479	-1.76
224.696	5.47
224.913	-3.38
225.13	-7.92
225.347	-3.51
225.564	-2.9
225.781	-4
225.997	2.18
226.214	2.26
226.431	1.41
226.648	1.08
226.865	1.38
227.082	1.06
227.298	1.39
227.515	3.74
227.732	3.62
227.949	3.74
228.165	4.23
228.382	4.03
228.599	5.36
228.816	4.71
229.032	4.74
229.249	4.84
229.466	4.92
229.682	5.21
229.899	5.25
230.116	4.59
230.332	4.38
230.549	4.09
230.765	2.82
230.982	1.16
231.199	1.26
231.415	2.06
231.632	0.73
231.848	-1.51
232.065	-1.22
232.281	-1.5
232.498	-2.59
232.714	-2.97
232.931	-2.19
233.147	-2.07
233.364	-2.25
233.58	-1.53
233.797	-2.23
234.013	0.08
234.23	1.16
234.446	0.45
234.662	-2.38
234.879	-1.21
235.095	-0.46
235.312	-1.36
235.528	-0.91
235.744	-0.77
235.961	-1.05
236.177	-1
236.393	-2.46
236.61	-3.15
236.826	-3.54
237.042	-2.32
237.258	-3.43
237.475	-3.65
237.691	-3.73
237.907	-3.97
238.123	-2.45
238.339	-1.1
238.556	-1.78
238.772	-0.3
238.988	1.84
239.204	2.89
239.42	3.6
239.636	5.06
239.853	5.05
240.069	5.39
240.285	6.41
240.501	4.98
240.717	6.27
240.933	6.3
241.149	5.4
241.365	5.71
241.581	5.96
241.797	5.82
242.013	5.79
242.229	5.52
242.445	6.02
242.661	5.64
242.877	6.4
243.093	5.02
243.309	5.03
243.525	4.79
243.741	4.41
243.957	4.44
244.173	4.82
244.388	4.72
244.604	5.17
244.82	4.36
245.036	4.57
245.252	4.32
245.468	4.68
245.683	4.75
245.899	5.57
246.115	5.22
246.331	4.71
246.547	4.98
246.762	4.96
246.978	5
247.194	5.17
247.409	5.12
247.625	5.13
247.841	5.19
248.057	5.25
248.272	5.11
248.488	5.38
248.703	5.31
248.919	5.06
249.135	5
249.35	4.77
249.566	4.95
249.782	4.82
249.997	4.8
250.213	5.23
250.428	5.19
250.644	4.56
250.859	4.55
251.075	5.27
251.29	5.62
251.506	5.68
251.721	5.6
251.937	5.03
252.152	5.3
252.368	4.74
252.583	4.32
252.798	4.21
253.014	4.83
253.229	4.44
253.445	4.33
253.66	2.95
253.875	2.93
254.091	3.24
254.306	2.92
254.521	1.87
254.737	2.69
254.952	2.15
255.167	2.47
255.383	2.69
255.598	2.16
255.813	1.51
256.028	3.21
256.244	3.26
256.459	2.52
256.674	2.27
256.889	2.41
257.104	1.83
257.32	2.65
257.535	1.85
257.75	1.62
257.965	2.34
258.18	3.04
258.395	3.33
258.61	3.56
258.826	3.78
259.041	4
259.256	4.25
259.471	4.27
259.686	4.17
259.901	4.38
260.116	4.34
260.331	4.16
260.546	4.14
260.761	3.82
260.976	3.44
261.191	3.53
261.406	3.64
261.621	3.72
261.836	3.71
262.05	3.93
262.265	4.36
262.48	4.77
262.695	4.78
262.91	4.5
263.125	4.5
263.34	4.92
263.555	4.61
263.769	4.69
263.984	4.53
264.199	4.49
264.414	4.36
264.629	4.22
264.843	4.28
265.058	4.74
265.273	4.8
265.488	4.55
265.702	4.33
265.917	4.41
266.132	4.3
266.346	4
266.561	4.33
266.776	4.4
266.99	3.87
267.205	3.45
267.42	3.25
267.634	3.17
267.849	3.68
268.063	3.56
268.278	4.02
268.492	3.5
268.707	3.56
268.922	3.51
269.136	3.16
269.351	3.62
269.565	3.28
269.78	3.63
269.994	3.49
270.209	3.37
270.423	3.62
270.637	3.08
270.852	3.55
271.066	3.67
271.281	3.52
271.495	3.54
271.709	3.2
271.924	3.74
272.138	3.28
272.353	3.45
272.567	3.51
272.781	3.4
272.996	3.6
273.21	3.57
273.424	3.37
273.638	3.32
273.853	3.49
274.067	3.39
274.281	3.38
274.495	3.57
274.71	2.95
274.924	2.65
275.138	2.61
275.352	2.45
275.566	2.17
275.781	2.64
275.995	2.93
276.209	2.71
276.423	3.04
276.637	2.68
276.851	2.56
277.065	3.53
277.279	3.12
277.493	3.42
277.707	3.55
277.921	3.8
278.135	3.21
278.349	2.93
278.563	3.09
278.777	2.78
278.991	2.7
279.205	2.97
279.419	2.58
279.633	3.31
279.847	2.82
280.061	2.92
280.275	2.61
280.489	2.7
280.703	2.49
280.917	2.36
281.131	2.5
281.344	2.63
281.558	2.3
281.772	2.49
281.986	2.57
282.2	2.78
282.414	2.49
282.627	2.73
282.841	2.83
283.055	3.06
283.269	3.23
283.482	3.13
283.696	3.3
283.91	3.49
284.123	3.44
284.337	3.05
284.551	3.28
284.764	3.65
284.978	3.59
285.192	3.6
285.405	3.43
285.619	3.34
285.833	3.44
286.046	3.38
286.26	3.7
286.473	3.32
286.687	3.59
286.9	3.43
287.114	3.24
287.327	3.26
287.541	3.09
287.754	3.41
287.968	3.3
288.181	3.08
288.395	3.03
288.608	2.6
288.822	2.85
289.035	2.44
289.248	2.45
289.462	2.27
289.675	2.42
289.889	2.67
290.102	2.54
290.315	2.69
290.529	3.28
290.742	3.16
290.955	3.54
291.169	3.86
291.382	4.32
291.595	4.56
291.808	4.96
292.022	4.97
292.235	5.17
292.448	5.35
292.661	5.44
292.875	5.28
293.088	5.28
293.301	5.3
293.514	4.87
293.727	4.53
293.94	4.36
294.153	4.15
294.367	3.98
294.58	4.1
294.793	3.92
295.006	4.04
295.219	4.17
295.432	4.17
295.645	3.84
295.858	4.07
296.071	4.29
296.284	4.42
296.497	4.47
296.71	4.6
296.923	4.6
297.136	4.75
297.349	4.81
297.562	4.76
297.775	4.95
297.988	5.18
298.201	5.28
298.414	5.35
298.626	5.22
298.839	5.41
299.052	5.45
299.265	5.06
299.478	4.98
299.691	4.67
299.903	4.77
300.116	4.96
300.329	5.12
300.542	4.99
300.755	5.45
300.967	5.91
301.18	5.8
301.393	5.66
301.605	5.84
301.818	6.19
302.031	6.1
302.243	6.3
302.456	5.94
302.669	5.96
302.881	6.36
303.094	5.56
303.307	5.48
303.519	5.49
303.732	5.97
303.944	6.41
304.157	6.52
304.37	6.77
304.582	6.48
304.795	6.94
305.007	6.73
305.22	6.42
305.432	6.74
305.645	6.73
305.857	7.01
306.069	6.93
306.282	6.49
306.494	6.08
306.707	6.19
306.919	6.09
307.132	6.01
307.344	6.3
307.556	6.37
307.769	6.55
307.981	6.39
308.193	6.25
308.406	6.38
308.618	6.68
308.83	6.9
309.043	7.07
309.255	6.95
309.467	6.83
309.679	6.74
309.892	6.88
310.104	6.76
310.316	6.8
310.528	6.68
310.74	6.67
310.953	6.62
311.165	6.61
311.377	6.57
311.589	6.77
311.801	6.88
312.013	6.79
312.225	6.89
312.437	7.09
312.649	7.22
312.862	7.36
313.074	7.31
313.286	7.4
313.498	7.4
313.71	7.66
313.922	7.64
314.134	7.73
314.346	7.76
314.558	7.52
314.77	7.64
314.982	7.76
315.193	7.98
315.405	8.01
315.617	7.9
315.829	7.82
316.041	7.51
316.253	7.42
316.465	7.15
316.677	7.19
316.888	7.29
317.1	6.97
317.312	6.69
317.524	6.44
317.736	6.53
317.947	6.76
318.159	6.89
318.371	7.12
318.583	7.05
318.794	7.3
319.006	7.39
319.218	7.6
319.43	7.82
319.641	8
319.853	8.18
320.064	8.15
320.276	8.19
320.488	8.19
320.699	8.06
320.911	8.12
321.123	7.74
321.334	7.67
321.546	7.85
321.757	7.97
321.969	8.01
322.18	8
322.392	7.78
322.603	7.96
322.815	8.17
323.026	8.23
323.238	8.52
323.449	9.2
323.661	9.39
323.872	9.24
324.083	9.26
324.295	9.43
324.506	9.63
324.718	9.54
324.929	9.53
325.14	9.89
325.352	10.16
325.563	10.47
325.774	10.32
325.986	10.7
326.197	10.77
326.408	10.53
326.62	10.67
326.831	10.63
327.042	11.21
327.253	11.14
327.464	10.88
327.676	10.77
327.887	10.94
328.098	11.11
328.309	10.75
328.52	11.21
328.732	11.51
328.943	11.6
329.154	12.16
329.365	11.92
329.576	12.29
329.787	12.47
329.998	12.6
330.209	12.61
330.42	12.64
330.631	12.77
330.842	12.32
331.053	12.64
331.264	12.67
331.475	12.51
331.686	13.14
331.897	12.98
332.108	13.1
332.319	13.25
332.53	13.19
332.741	13.48
332.952	13.53
333.163	13.62
333.374	13.57
333.585	13.61
333.795	13.48
334.006	13.38
334.217	13.32
334.428	13.37
334.639	13.16
334.849	12.82
335.06	12.75
335.271	13.06
335.482	13.32
335.692	13.13
335.903	13.15
336.114	13.46
336.325	13.44
336.535	13.54
336.746	13.48
336.957	13.65
337.167	14.03
337.378	13.73
337.589	13.47
337.799	13.2
338.01	13.29
338.22	13.08
338.431	12.53
338.642	12.45
338.852	12.73
339.063	12.72
339.273	12.66
339.484	12.42
339.694	12.57
339.905	12.83
340.115	12.94
340.326	13.43
340.536	13.5
340.746	13.65
340.957	13.74
341.167	13.64
341.378	13.71
341.588	14.02
341.799	14.5
342.009	14.5
342.219	14.17
342.43	14.44
342.64	14.22
342.85	14.2
343.061	14.49
343.271	14.23
343.481	14.29
343.691	14.02
343.902	13.96
344.112	13.65
344.322	13.7
344.532	13.58
344.743	13.16
344.953	12.91
345.163	12.79
345.373	12.63
345.583	12.56
345.793	12.56
346.004	12.95
346.214	12.87
346.424	12.83
346.634	12.97
346.844	13.59
347.054	13.82
347.264	13.98
347.474	14.07
347.684	13.86
347.894	13.88
348.104	13.92
348.314	13.96
348.524	13.83
348.734	13.92
348.944	13.61
349.154	13.2
349.364	13.37
349.574	13.05
349.784	12.97
349.994	13.06
350.204	12.98
350.413	12.83
350.623	12.74
350.833	12.45
351.043	12.35
351.253	12.26
351.463	12.48
351.672	12.45
351.882	12.62
352.092	12.64
352.302	12.46
352.511	12.93
352.721	12.87
352.931	12.73
353.141	12.98
353.35	12.78
353.56	12.82
353.77	12.96
353.979	12.75
354.189	12.83
354.399	13.04
354.608	13.05
354.818	12.87
355.027	12.92
355.237	12.97
355.447	12.83
355.656	12.99
355.866	13.15
356.075	12.96
356.285	13.16
356.494	13.08
356.704	13.18
356.913	13.08
357.123	12.78
357.332	12.69
357.542	12.45
357.751	12.71
357.96	12.8
358.17	12.69
358.379	12.61
358.589	12.06
358.798	12.23
359.007	12.08
359.217	12.37
359.426	12.61
359.635	12.78
359.845	12.96
360.054	12.81
360.263	12.61
360.472	12.59
360.682	12.64
360.891	13.05
361.1	12.98
361.309	12.86
361.519	12.67
361.728	12.45
361.937	12.46
362.146	12.3
362.355	12.36
362.564	12.41
362.774	12.52
362.983	12.31
363.192	12.14
363.401	11.99
363.61	12.18
363.819	12.21
364.028	12.46
364.237	12.17
364.446	12.26
364.655	12.19
364.864	12.43
365.073	12.29
365.282	12.3
365.491	12.06
365.7	11.96
365.909	11.77
366.118	11.87
366.327	11.74
366.536	11.9
366.745	11.77
366.954	11.6
367.162	11.4
367.371	11.3
367.58	11.52
367.789	11.7
367.998	11.86
368.207	11.92
368.415	11.94
368.624	11.81
368.833	11.96
369.042	11.97
369.25	11.84
369.459	11.87
369.668	11.63
369.877	11.23
370.085	11.22
370.294	11.18
370.503	11.2
370.711	10.92
370.92	10.89
371.129	10.59
371.337	10.58
371.546	10.41
371.754	10.25
371.963	10.63
372.171	10.74
372.38	10.64
372.589	10.39
372.797	10.25
373.006	10.06
373.214	10.04
373.423	9.87
373.631	9.62
373.84	9.67
374.048	9.7
374.256	9.21
374.465	9.24
374.673	9.2
374.882	9.3
375.09	9.17
375.298	9.38
375.507	9.47
375.715	9.45
375.923	9.44
376.132	9.51
376.34	9.29
376.548	9.32
376.757	9.17
376.965	9.22
377.173	9.07
377.381	8.99
377.59	8.91
377.798	8.72
378.006	8.66
378.214	8.9
378.423	8.9
378.631	8.8
378.839	8.96
379.047	8.89
379.255	8.78
379.463	8.76
379.671	8.64
379.879	8.56
380.088	8.51
380.296	8.58
380.504	8.4
380.712	8.47
380.92	8.6
381.128	8.5
381.336	8.5
381.544	8.34
381.752	8.54
381.96	8.67
382.168	8.86
382.376	9.02
382.584	9.18
382.791	9.07
382.999	8.85
383.207	8.87
383.415	8.74
383.623	9.07
383.831	9.04
384.039	8.72
384.247	8.72
384.454	8.61
384.662	8.22
384.87	7.85
385.078	7.7
385.285	7.74
385.493	7.56
385.701	7.59
385.909	7.03
386.116	7.17
386.324	7.15
386.532	7
386.739	6.77
386.947	6.89
387.155	6.92
387.362	7.12
387.57	6.95
387.778	7.09
387.985	6.99
388.193	7.26
388.4	7
388.608	7.04
388.816	6.9
389.023	7.08
389.231	7.08
389.438	7.05
389.646	6.89
389.853	6.95
390.061	6.84
390.268	6.85
390.475	6.63
390.683	6.74
390.89	6.82
391.098	6.96
391.305	6.84
391.512	6.87
391.72	7.03
391.927	7.01
392.135	7.05
392.342	7.02
392.549	7.01
392.756	7.15
392.964	7.13
393.171	7.03
393.378	7.02
393.586	7.07
393.793	7.09
394	6.98
394.207	7.04
394.414	7.16
394.622	7.1
394.829	7.04
395.036	6.85
395.243	6.78
395.45	6.71
395.657	6.5
395.864	6.39
396.072	6.32
396.279	6.43
396.486	6.38
396.693	6.24
396.9	6.21
397.107	6.28
397.314	6.45
397.521	6.5
397.728	6.45
397.935	6.51
398.142	6.44
398.349	6.3
398.556	6.15
398.763	6.14
398.97	5.94
399.177	5.87
399.383	6.05
399.59	5.75
399.797	5.7
400.004	5.62
400.211	5.91
400.418	5.94
400.625	6.01
400.831	6.04
401.038	6.05
401.245	6.26
401.452	6.31
401.658	6.03
401.865	6.26
402.072	6.25
402.279	6.51
402.485	6.21
402.692	6.17
402.899	6.03
403.105	5.78
403.312	5.62
403.519	5.63
403.725	5.52
403.932	5.46
404.138	5.35
404.345	5.41
404.552	5.24
404.758	5.28
404.965	5.28
405.171	5.45
405.378	5.67
405.584	5.77
405.791	5.63
405.997	5.6
406.204	5.75
406.41	5.71
406.617	5.6
406.823	5.55
407.029	5.65
407.236	5.57
407.442	5.45
407.649	5.31
407.855	5.21
408.061	5.13
408.268	5.17
408.474	5.03
408.68	5.1
408.887	5
409.093	5.03
409.299	4.98
409.505	5.14
409.712	5.19
409.918	5.32
410.124	5.5
410.33	5.59
410.537	5.53
410.743	5.56
410.949	5.5
411.155	5.6
411.361	5.64
411.567	5.62
411.773	5.65
411.98	5.78
412.186	5.89
412.392	5.76
412.598	5.73
412.804	5.7
413.01	5.6
413.216	5.83
413.422	5.88
413.628	5.8
413.834	5.77
414.04	5.65
414.246	5.53
414.452	5.46
414.658	5.53
414.864	5.57
415.07	5.63
415.275	5.72
415.481	5.59
415.687	5.66
415.893	5.74
416.099	5.68
416.305	5.79
416.511	5.71
416.716	5.57
416.922	5.61
417.128	5.61
417.334	5.63
417.539	5.67
417.745	5.65
417.951	5.61
418.157	5.66
418.362	5.73
418.568	5.63
418.774	5.67
418.979	5.75
419.185	5.71
419.391	5.72
419.596	5.74
419.802	5.67
420.008	5.7
420.213	5.94
420.419	5.92
420.624	5.91
420.83	5.94
421.035	5.96
421.241	5.9
421.446	5.88
421.652	5.93
421.857	5.86
422.063	5.82
422.268	5.8
422.474	5.56
422.679	5.51
422.885	5.51
423.09	5.51
423.295	5.48
423.501	5.46
423.706	5.45
423.911	5.38
424.117	5.43
424.322	5.46
424.527	5.45
424.733	5.45
424.938	5.44
425.143	5.43
425.349	5.42
425.554	5.33
425.759	5.29
425.964	5.37
426.169	5.4
426.375	5.33
426.58	5.36
426.785	5.38
426.99	5.38
427.195	5.5
427.4	5.51
427.605	5.51
427.811	5.65
428.016	5.75
428.221	5.6
428.426	5.54
428.631	5.71
428.836	5.65
429.041	5.59
429.246	5.52
429.451	5.41
429.656	5.37
429.861	5.28
430.066	5.21
430.271	5.2
430.476	5.21
430.681	5.33
430.886	5.19
431.09	5.22
431.295	5.21
431.5	5.29
431.705	5.32
431.91	5.24
432.115	5.37
432.32	5.33
432.524	5.35
432.729	5.39
432.934	5.4
433.139	5.46
433.343	5.41
433.548	5.48
433.753	5.44
433.958	5.35
434.162	5.48
434.367	5.37
434.572	5.37
434.776	5.3
434.981	5.2
435.186	5.05
435.39	5.04
435.595	5.1
435.799	5.06
436.004	5.04
436.209	5.04
436.413	4.95
436.618	4.98
436.822	5.05
437.027	5.03
437.231	5.05
437.436	5.04
437.64	5.11
437.845	5.07
438.049	5.14
438.253	5.19
438.458	5.28
438.662	5.26
438.867	5.28
439.071	5.28
439.275	5.3
439.48	5.36
439.684	5.44
439.888	5.45
440.093	5.42
440.297	5.42
440.501	5.43
440.706	5.39
440.91	5.39
441.114	5.36
441.318	5.38
441.523	5.42
441.727	5.32
441.931	5.26
442.135	5.21
442.339	5.24
442.543	5.18
442.748	5.15
442.952	5.19
443.156	5.21
443.36	5.23
443.564	5.17
443.768	5.19
443.972	5.25
444.176	5.31
444.38	5.39
444.584	5.47
444.788	5.53
444.992	5.57
445.196	5.44
445.4	5.43
445.604	5.49
445.808	5.58
446.012	5.59
446.216	5.67
446.42	5.61
446.624	5.5
446.828	5.39
447.032	5.35
447.235	5.35
447.439	5.45
447.643	5.45
447.847	5.37
448.051	5.36
448.254	5.29
448.458	5.28
448.662	5.34
448.866	5.39
449.069	5.48
449.273	5.49
449.477	5.48
449.681	5.43
449.884	5.43
450.088	5.48
450.292	5.48
450.495	5.44
450.699	5.34
450.902	5.26
451.106	5.25
451.31	5.16
451.513	5.13
451.717	5.04
451.92	5.14
452.124	5.11
452.327	5.02
452.531	5.04
452.734	5.1
452.938	5.18
453.141	5.21
453.345	5.22
453.548	5.27
453.752	5.24
453.955	5.26
454.158	5.27
454.362	5.22
454.565	5.28
454.769	5.25
454.972	5.19
455.175	5.1
455.379	5.16
455.582	5.13
455.785	5.2
455.988	5.22
456.192	5.24
456.395	5.13
456.598	5.15
456.801	5.07
457.005	4.98
457.208	4.97
457.411	5.08
457.614	5
457.817	4.96
458.021	4.96
458.224	4.95
458.427	4.97
458.63	5.11
458.833	5.21
459.036	5.23
459.239	5.26
459.442	5.29
459.645	5.26
459.848	5.31
460.051	5.29
460.254	5.25
460.457	5.27
460.66	5.29
460.863	5.18
461.066	5.09
461.269	5.11
461.472	5.08
461.675	5.07
461.878	5.01
462.081	4.89
462.284	4.93
462.486	4.84
462.689	4.91
462.892	4.93
463.095	4.97
463.298	5.04
463.5	5.07
463.703	5.11
463.906	5.16
464.109	5.19
464.311	5.3
464.514	5.32
464.717	5.38
464.92	5.32
465.122	5.3
465.325	5.36
465.528	5.35
465.73	5.34
465.933	5.38
466.135	5.36
466.338	5.52
466.541	5.45
466.743	5.4
466.946	5.43
467.148	5.44
467.351	5.4
467.553	5.29
467.756	5.27
467.958	5.26
468.161	5.22
468.363	5.22
468.566	4.95
468.768	4.95
468.971	5.01
469.173	5.04
469.375	4.99
469.578	5.02
469.78	5.1
469.983	5.02
470.185	5.07
470.387	5.07
470.59	5.03
470.792	5.22
470.994	5.3
471.196	5.37
471.399	5.34
471.601	5.35
471.803	5.32
472.005	5.31
472.208	5.42
472.41	5.39
472.612	5.39
472.814	5.41
473.016	5.39
473.218	5.31
473.421	5.15
473.623	5.2
473.825	5.23
474.027	5.35
474.229	5.35
474.431	5.3
474.633	5.29
474.835	5.25
475.037	5.29
475.239	5.36
475.441	5.37
475.643	5.43
475.845	5.3
476.047	5.33
476.249	5.28
476.451	5.23
476.653	5.35
476.855	5.35
477.057	5.42
477.258	5.4
477.46	5.25
477.662	5.28
477.864	5.24
478.066	5.33
478.268	5.39
478.469	5.37
478.671	5.41
478.873	5.35
479.075	5.31
479.276	5.24
479.478	5.27
479.68	5.32
479.882	5.33
480.083	5.36
480.285	5.37
480.487	5.36
480.688	5.37
480.89	5.4
481.091	5.33
481.293	5.34
481.495	5.35
481.696	5.36
481.898	5.32
482.099	5.3
482.301	5.26
482.502	5.22
482.704	5.2
482.905	5.19
483.107	5.18
483.308	5.19
483.51	5.18
483.711	5.19
483.913	5.17
484.114	5.16
484.315	5.16
484.517	5.18
484.718	5.19
484.92	5.19
485.121	5.22
485.322	5.23
485.524	5.23
485.725	5.23
485.926	5.23
486.127	5.25
486.329	5.28
486.53	5.29
486.731	5.33
486.932	5.31
487.134	5.3
487.335	5.29
487.536	5.24
487.737	5.28
487.938	5.32
488.139	5.33
488.341	5.31
488.542	5.33
488.743	5.32
488.944	5.34
489.145	5.38
489.346	5.4
489.547	5.41
489.748	5.44
489.949	5.4
490.15	5.37
490.351	5.4
490.552	5.41
490.753	5.39
490.954	5.39
491.155	5.35
491.356	5.35
491.557	5.34
491.758	5.32
491.959	5.33
492.159	5.34
492.36	5.39
492.561	5.38
492.762	5.44
492.963	5.47
493.164	5.53
493.364	5.59
493.565	5.61
493.766	5.63
493.967	5.69
494.167	5.74
494.368	5.78
494.569	5.77
494.769	5.79
494.97	5.76
495.171	5.71
495.371	5.69
495.572	5.7
495.773	5.73
495.973	5.74
496.174	5.71
496.375	5.75
496.575	5.67
496.776	5.65
496.976	5.63
497.177	5.6
497.377	5.63
497.578	5.67
497.778	5.62
497.979	5.56
498.179	5.55
498.38	5.66
498.58	5.59
498.78	5.62
498.981	5.64
499.181	5.66
499.382	5.73
499.582	5.73
499.782	5.71
499.983	5.77
500.183	5.81
500.383	5.91
500.584	5.82
500.784	5.88
500.984	6.03
501.184	6.05
501.385	6.01
501.585	5.98
501.785	6.07
501.985	6.14
502.185	6.18
502.386	6.25
502.586	6.21
502.786	6.22
502.986	6.31
503.186	6.35
503.386	6.44
503.586	6.48
503.786	6.54
503.987	6.51
504.187	6.46
504.387	6.51
504.587	6.59
504.787	6.63
504.987	6.71
505.187	6.69
505.387	6.63
505.587	6.7
505.786	6.83
505.986	6.9
506.186	6.98
506.386	7.11
506.586	7.08
506.786	7.05
506.986	7.08
507.186	7.06
507.386	7.1
507.585	7.23
507.785	7.26
507.985	7.24
508.185	7.34
508.384	7.34
508.584	7.31
508.784	7.34
508.984	7.4
509.183	7.48
509.383	7.62
509.583	7.75
509.782	7.72
509.982	7.74
510.182	7.74
510.381	7.72
510.581	7.85
510.781	7.98
510.98	8.11
511.18	8.26
511.379	8.31
511.579	8.34
511.778	8.33
511.978	8.42
512.177	8.46
512.377	8.59
512.576	8.67
512.776	8.66
512.975	8.71
513.175	8.72
513.374	8.74
513.573	8.87
513.773	9.05
513.972	9.16
514.172	9.27
514.371	9.32
514.57	9.38
514.77	9.45
514.969	9.51
515.168	9.57
515.367	9.75
515.567	9.82
515.766	9.87
515.965	9.82
516.164	9.94
516.364	10.08
516.563	10.2
516.762	10.35
516.961	10.4
517.16	10.58
517.359	10.72
517.559	10.75
517.758	10.79
517.957	10.84
518.156	10.89
518.355	10.93
518.554	10.96
518.753	11.1
518.952	11.19
519.151	11.26
519.35	11.33
519.549	11.36
519.748	11.47
519.947	11.57
520.146	11.67
520.345	11.83
520.544	11.97
520.743	12.03
520.942	12.11
521.141	12.17
521.339	12.32
521.538	12.46
521.737	12.61
521.936	12.73
522.135	12.9
522.333	13.01
522.532	13.15
522.731	13.32
522.93	13.52
523.129	13.58
523.327	13.71
523.526	13.88
523.725	13.9
523.923	14.01
524.122	14.09
524.321	14.17
524.519	14.32
524.718	14.43
524.917	14.48
525.115	14.58
525.314	14.7
525.512	14.84
525.711	14.92
525.909	15.08
526.108	15.11
526.306	15.28
526.505	15.41
526.703	15.54
526.902	15.65
527.1	15.75
527.299	15.84
527.497	15.95
527.696	16
527.894	16.1
528.092	16.2
528.291	16.35
528.489	16.42
528.688	16.51
528.886	16.61
529.084	16.71
529.283	16.82
529.481	16.94
529.679	17.03
529.877	17.2
530.076	17.32
530.274	17.45
530.472	17.55
530.67	17.69
530.869	17.84
531.067	17.89
531.265	17.98
531.463	18.13
531.661	18.21
531.859	18.38
532.057	18.44
532.255	18.53
532.454	18.6
532.652	18.73
532.85	18.86
533.048	18.92
533.246	19.06
533.444	19.19
533.642	19.28
533.84	19.38
534.038	19.46
534.236	19.57
534.434	19.66
534.632	19.78
534.83	19.83
535.027	19.9
535.225	19.99
535.423	20.07
535.621	20.15
535.819	20.24
536.017	20.38
536.215	20.48
536.412	20.56
536.61	20.69
536.808	20.83
537.006	21
537.203	21.13
537.401	21.35
537.599	21.47
537.797	21.57
537.994	21.7
538.192	21.81
538.39	21.95
538.587	22.12
538.785	22.25
538.983	22.37
539.18	22.49
539.378	22.67
539.575	22.72
539.773	22.84
539.97	22.97
540.168	23.09
540.366	23.23
540.563	23.32
540.761	23.41
540.958	23.5
541.155	23.59
541.353	23.64
541.55	23.71
541.748	23.75
541.945	23.87
542.143	23.95
542.34	24.06
542.537	24.14
542.735	24.26
542.932	24.34
543.129	24.47
543.327	24.55
543.524	24.74
543.721	24.89
543.919	25.12
544.116	25.29
544.313	25.48
544.51	25.65
544.708	25.79
544.905	25.96
545.102	26.16
545.299	26.26
545.496	26.45
545.693	26.55
545.891	26.51
546.088	26.47
546.285	26.4
546.482	26.35
546.679	26.28
546.876	26.31
547.073	26.18
547.27	26.13
547.467	26.02
547.664	25.96
547.861	25.87
548.058	25.91
548.255	26.05
548.452	26.08
548.649	26.18
548.846	26.22
549.043	26.2
549.24	26.27
549.437	26.24
549.633	26.35
549.83	26.29
550.027	26.28
550.224	26.31
550.421	26.15
550.618	26.13
550.814	25.98
551.011	26.04
551.208	25.97
551.405	25.97
551.601	26.03
551.798	26.05
551.995	26.09
552.191	26.12
552.388	26.12
552.585	26.14
552.781	26.12
552.978	26.23
553.175	26.15
553.371	26.21
553.568	26.22
553.764	26.19
553.961	26.17
554.157	26.26
554.354	26.18
554.55	26.21
554.747	26.2
554.943	26.3
555.14	26.23
555.336	26.3
555.533	26.38
555.729	26.39
555.926	26.39
556.122	26.44
556.318	26.37
556.515	26.45
556.711	26.4
556.907	26.39
557.104	26.37
557.3	26.38
557.496	26.38
557.693	26.24
557.889	26.25
558.085	26.3
558.281	26.33
558.478	26.45
558.674	26.51
558.87	26.52
559.066	26.64
559.262	26.61
559.459	26.64
559.655	26.6
559.851	26.82
560.047	26.82
560.243	26.84
560.439	26.77
560.635	26.74
560.831	26.68
561.027	26.76
561.223	26.74
561.419	26.75
561.615	26.89
561.811	27.05
562.007	26.99
562.203	26.95
562.399	26.88
562.595	26.94
562.791	26.95
562.987	27.08
563.183	27.17
563.379	27.3
563.575	27.32
563.771	27.33
563.966	27.31
564.162	27.37
564.358	27.44
564.554	27.55
564.75	27.59
564.945	27.52
565.141	27.43
565.337	27.36
565.533	27.34
565.728	27.33
565.924	27.36
566.12	27.31
566.315	27.27
566.511	27.35
566.707	27.26
566.902	27.25
567.098	27.34
567.293	27.36
567.489	27.37
567.684	27.39
567.88	27.49
568.076	27.38
568.271	27.37
568.467	27.29
568.662	27.31
568.858	27.4
569.053	27.44
569.248	27.49
569.444	27.61
569.639	27.65
569.835	27.66
570.03	27.57
570.225	27.6
570.421	27.6
570.616	27.66
570.812	27.61
571.007	27.61
571.202	27.65
571.397	27.55
571.593	27.61
571.788	27.59
571.983	27.54
572.178	27.63
572.374	27.77
572.569	27.84
572.764	27.89
572.959	27.88
573.154	27.95
573.35	27.85
573.545	27.97
573.74	27.82
573.935	27.74
574.13	27.85
574.325	27.93
574.52	27.93
574.715	27.94
574.91	27.99
575.105	28.03
575.3	27.98
575.495	28.15
575.69	28.15
575.885	28.31
576.08	28.43
576.275	28.41
576.47	28.38
576.665	28.32
576.86	28.32
577.055	28.38
577.25	28.42
577.444	28.53
577.639	28.48
577.834	28.64
578.029	28.63
578.224	28.66
578.418	28.75
578.613	28.84
578.808	28.8
579.003	28.93
579.197	28.8
579.392	28.75
579.587	28.73
579.781	28.85
579.976	28.75
580.171	28.81
580.365	28.8
580.56	28.78
580.755	28.7
580.949	28.95
581.144	28.92
581.338	29.08
581.533	29.27
581.727	29.43
581.922	29.43
582.116	29.49
582.311	29.31
582.505	29.45
582.7	29.42
582.894	29.59
583.089	29.5
583.283	29.6
583.478	29.51
583.672	29.41
583.866	29.18
584.061	29.25
584.255	29.25
584.449	29.43
584.644	29.38
584.838	29.36
585.032	29.27
585.226	29.33
585.421	29.36
585.615	29.62
585.809	29.65
586.003	29.87
586.198	29.8
586.392	29.71
586.586	29.81
586.78	29.78
586.974	29.82
587.168	29.87
587.363	29.71
587.557	29.6
587.751	29.37
587.945	29.24
588.139	29.1
588.333	29.13
588.527	29.2
588.721	29.2
588.915	29.24
589.109	29.2
589.303	29.07
589.497	29.27
589.691	29.29
589.885	29.31
590.079	29.4
590.273	29.5
590.466	29.37
590.66	29.31
590.854	29.28
591.048	29.3
591.242	29.45
591.436	29.45
591.629	29.49
591.823	29.53
592.017	29.65
592.211	29.71
592.404	29.67
592.598	29.73
592.792	29.82
592.986	29.82
593.179	29.91
593.373	29.74
593.567	29.84
593.76	29.78
593.954	29.74
594.147	29.77
594.341	29.74
594.535	29.78
594.728	29.78
594.922	29.74
595.115	29.75
595.309	29.63
595.502	29.64
595.696	29.5
595.889	29.41
596.083	29.42
596.276	29.24
596.47	29.32
596.663	29.41
596.856	29.4
597.05	29.43
597.243	29.43
597.437	29.59
597.63	29.67
597.823	29.84
598.017	29.89
598.21	29.87
598.403	29.93
598.596	29.87
598.79	29.85
598.983	29.86
599.176	29.91
599.369	29.77
599.563	29.56
599.756	29.64
599.949	29.63
600.142	29.66
600.335	29.64
600.528	29.74
600.722	29.85
600.915	29.83
601.108	29.81
601.301	29.73
601.494	29.91
601.687	29.92
601.88	29.85
602.073	29.76
602.266	29.92
602.459	29.93
602.652	29.84
602.845	29.73
603.038	29.65
603.231	29.7
603.424	29.75
603.617	29.66
603.809	29.75
604.002	29.71
604.195	29.7
604.388	29.59
604.581	29.66
604.774	29.69
604.966	29.75
605.159	29.72
605.352	29.76
605.545	29.85
605.737	29.79
605.93	29.67
606.123	29.79
606.316	29.85
606.508	29.78
606.701	29.87
606.894	29.87
607.086	29.86
607.279	30.07
607.471	30.11
607.664	30.1
607.857	30.39
608.049	30.76
608.242	31.16
608.434	31.64
608.627	32.24
608.819	32.72
609.012	33.35
609.204	34.15
609.397	34.81
609.589	35.73
609.782	36.66
609.974	37.54
610.166	38.4
610.359	39.08
610.551	39.75
610.743	40.33
610.936	40.76
611.128	41.24
611.32	41.39
611.513	41.5
611.705	41.32
611.897	41.07
612.09	40.76
612.282	40.5
612.474	40.11
612.666	39.69
612.858	39.2
613.051	38.96
613.243	38.43
613.435	38.07
613.627	37.62
613.819	37.39
614.011	36.86
614.203	36.41
614.395	35.93
614.588	35.58
614.78	35.17
614.972	34.9
615.164	34.4
615.356	34.06
615.548	33.6
615.74	33.56
615.932	33.22
616.124	33.15
616.315	32.89
616.507	32.61
616.699	32.17
616.891	31.97
617.083	31.59
617.275	31.7
617.467	31.49
617.659	31.51
617.85	31.3
618.042	31.22
618.234	31.06
618.426	31.12
618.618	31.12
618.809	31.23
619.001	31.15
619.193	31.22
619.384	30.95
619.576	30.91
619.768	30.83
619.959	30.79
620.151	30.84
620.343	30.99
620.534	31.01
620.726	30.95
620.917	30.9
621.109	31.08
621.301	31.16
621.492	31.32
621.684	31.6
621.875	31.61
622.067	31.56
622.258	31.57
622.45	31.6
622.641	31.71
622.832	31.78
623.024	31.9
623.215	31.86
623.407	31.73
623.598	31.58
623.789	31.58
623.981	31.7
624.172	31.9
624.363	31.79
624.555	31.59
624.746	31.37
624.937	31.18
625.129	31.13
625.32	31.02
625.511	31.22
625.702	31.27
625.893	31.21
626.085	31.19
626.276	31.14
626.467	31.15
626.658	31.13
626.849	31.25
627.04	31.39
627.231	31.44
627.422	31.42
627.614	31.23
627.805	31.14
627.996	31.22
628.187	31.27
628.378	31.17
628.569	31.24
628.76	31.39
628.951	31.38
629.142	31.43
629.332	31.45
629.523	31.72
629.714	31.83
629.905	32.08
630.096	31.97
630.287	31.92
630.478	32.1
630.669	31.98
630.859	31.94
631.05	31.99
631.241	31.99
631.432	31.87
631.623	31.67
631.813	31.65
632.004	31.46
632.195	31.3
632.385	31.28
632.576	31.23
632.767	31.34
632.957	31.31
633.148	31.17
633.339	31.08
633.529	31.02
633.72	31.06
633.91	31.12
634.101	30.99
634.292	31.01
634.482	30.85
634.673	30.85
634.863	30.55
635.054	30.45
635.244	30.48
635.435	30.3
635.625	30.43
635.815	30.38
636.006	30.34
636.196	30.46
636.387	30.52
636.577	30.62
636.767	30.44
636.958	30.57
637.148	30.55
637.338	30.59
637.529	30.9
637.719	30.87
637.909	30.89
638.099	30.9
638.29	30.68
638.48	30.6
638.67	30.66
638.86	30.78
639.05	30.71
639.241	30.84
639.431	30.79
639.621	30.61
639.811	30.58
640.001	30.63
640.191	30.37
640.381	30.57
640.571	30.61
640.761	30.38
640.951	30.25
641.141	30.28
641.331	30.37
641.521	30.39
641.711	30.62
641.901	30.71
642.091	30.76
642.281	30.92
642.471	31.03
642.661	31.14
642.851	31.3
643.041	31.53
643.231	31.58
643.42	31.39
643.61	31.27
643.8	31.05
643.99	30.85
644.18	30.81
644.369	30.99
644.559	30.96
644.749	30.68
644.939	30.62
645.128	30.22
645.318	30.43
645.508	30.55
645.697	30.58
645.887	30.56
646.076	30.5
646.266	30.43
646.456	30.43
646.645	30.61
646.835	30.95
647.024	31.02
647.214	31.21
647.403	31.07
647.593	31.23
647.782	31.38
647.972	31.47
648.161	31.66
648.351	31.75
648.54	31.72
648.73	31.51
648.919	31.48
649.108	31.5
649.298	31.67
649.487	31.67
649.677	31.63
649.866	31.57
650.055	31.48
650.244	31.41
650.434	31.34
650.623	31.26
650.812	31.16
651.002	30.9
651.191	31.09
651.38	31.16
651.569	31.37
651.758	31.4
651.947	31.45
652.137	31.47
652.326	31.54
652.515	31.63
652.704	31.7
652.893	31.75
653.082	31.96
653.271	31.97
653.46	31.78
653.649	31.53
653.838	31.14
654.027	31.13
654.216	31.24
654.405	31.27
654.594	31.03
654.783	30.79
654.972	30.81
655.161	30.88
655.35	30.77
655.539	30.76
655.728	30.81
655.916	30.79
656.105	30.76
656.294	30.61
656.483	30.52
656.672	30.61
656.86	30.64
657.049	30.78
657.238	30.5
657.427	30.53
657.615	30.5
657.804	30.52
657.993	30.64
658.181	30.53
658.37	30.58
658.559	30.59
658.747	30.57
658.936	30.81
659.125	30.73
659.313	30.85
659.502	30.77
659.69	30.76
659.879	30.92
660.067	31.11
660.256	31.08
660.444	31.2
660.633	31.23
660.821	31.24
661.01	31.24
661.198	31.29
661.387	31.59
661.575	31.57
661.763	31.58
661.952	31.47
662.14	31.31
662.328	31.55
662.517	31.58
662.705	31.61
662.893	31.68
663.082	31.62
663.27	31.51
663.458	31.45
663.646	31.61
663.834	31.9
664.023	31.66
664.211	31.68
664.399	31.83
664.587	31.73
664.775	31.83
664.963	31.87
665.152	31.81
665.34	31.79
665.528	31.88
665.716	31.82
665.904	31.74
666.092	31.92
666.28	32.1
666.468	31.87
666.656	31.94
666.844	31.84
667.032	31.85
667.22	31.98
667.408	32.21
667.596	31.78
667.784	31.58
667.971	31.41
668.159	31.42
668.347	31.15
668.535	31.12
668.723	31.12
668.911	31.3
669.098	31.23
669.286	30.81
669.474	30.76
669.662	30.9
669.849	31.15
670.037	31.3
670.225	31.36
670.413	31.54
670.6	31.62
670.788	31.53
670.976	31.28
671.163	31.41
671.351	31.64
671.538	31.46
671.726	31.4
671.913	31.32
672.101	31.08
672.289	30.93
672.476	30.8
672.664	30.74
672.851	30.61
673.039	30.59
673.226	30.5
673.413	30.59
673.601	30.55
673.788	30.49
673.976	30.33
674.163	30.48
674.35	30.67
674.538	30.75
674.725	30.79
674.912	30.93
675.1	30.91
675.287	30.89
675.474	30.92
675.662	31.04
675.849	31.08
676.036	31.51
676.223	31.44
676.411	31.56
676.598	31.56
676.785	31.65
676.972	31.77
677.159	31.57
677.346	31.59
677.533	31.75
677.721	31.61
677.908	31.61
678.095	31.31
678.282	31.67
678.469	31.43
678.656	31.51
678.843	31.45
679.03	31.47
679.217	31.85
679.404	31.95
679.591	31.83
679.778	32.04
679.964	32.14
680.151	32.21
680.338	31.97
680.525	32
680.712	32
680.899	32
681.086	32.02
681.272	31.94
681.459	31.76
681.646	31.68
681.833	31.74
682.02	31.65
682.206	31.69
682.393	31.66
682.58	31.74
682.766	31.71
682.953	31.85
683.14	31.85
683.326	31.76
683.513	31.82
683.7	31.69
683.886	31.57
684.073	31.52
684.259	31.62
684.446	31.73
684.632	31.97
684.819	31.99
685.005	31.94
685.192	31.99
685.378	32.35
685.565	32.42
685.751	32.95
685.938	32.86
686.124	33.09
686.31	32.81
686.497	32.8
686.683	32.46
686.87	32.49
687.056	32.69
687.242	32.77
687.429	32.42
687.615	32.56
687.801	32.14
687.987	32.21
688.174	32.18
688.36	32.53
688.546	32.58
688.732	32.37
688.918	32.11
689.105	31.96
689.291	31.85
689.477	32.3
689.663	32.14
689.849	32.13
690.035	31.82
690.221	31.52
690.407	31.16
690.593	31.16
690.779	31.5
690.965	31.51
691.151	31.4
691.337	31.27
691.523	30.94
691.709	31.13
691.895	31.29
692.081	31.63
692.267	32
692.453	32.47
692.639	32.43
692.825	32.43
693.011	32.7
693.196	32.85
693.382	33.08
693.568	33.19
693.754	33.04
693.94	32.96
694.125	32.89
694.311	32.74
694.497	32.61
694.682	32.7
694.868	32.57
695.054	32.57
695.239	32.55
695.425	32.3
695.611	32.65
695.796	32.53
695.982	32.42
696.168	32.44
696.353	32.23
696.539	32.1
696.724	32
696.91	32.17
697.095	31.96
697.281	31.73
697.466	31.58
697.652	31.3
697.837	31.5
698.023	31.59
698.208	31.63
698.393	31.88
698.579	32
698.764	31.85
698.949	31.77
699.135	31.97
699.32	31.96
699.505	32.05
699.691	31.87
699.876	31.79
700.061	31.82
700.246	31.88
700.432	31.84
700.617	31.73
700.802	31.73
700.987	31.78
701.172	31.33
701.358	31.42
701.543	31.68
701.728	32.02
701.913	31.87
702.098	31.62
702.283	31.48
702.468	31.59
702.653	31.38
702.838	31.72
703.023	31.55
703.208	31.97
703.393	32
703.578	32.11
703.763	32.05
703.948	32.25
704.133	32.89
704.318	33.27
704.503	33.31
704.688	33.69
704.873	33.75
705.057	34.18
705.242	34.67
705.427	35.02
705.612	35.03
705.797	35.68
705.981	36.07
706.166	36.15
706.351	36.53
706.536	36.57
706.72	36.6
706.905	36.59
707.09	36.41
707.274	36.44
707.459	36.57
707.644	36.67
707.828	36.39
708.013	36.15
708.197	36.18
708.382	35.78
708.567	35.7
708.751	35.78
708.936	35.65
709.12	35.8
709.305	35.45
709.489	35.3
709.673	34.92
709.858	34.53
710.042	34.38
710.227	34.39
710.411	34.27
710.596	34.49
710.78	34.43
710.964	34.63
711.149	34.82
711.333	34.89
711.517	34.78
711.702	35
711.886	35.09
712.07	35.41
712.254	35.06
712.438	35.03
712.623	34.79
712.807	34.61
712.991	34.51
713.175	34.35
713.359	34.11
713.544	33.91
713.728	33.48
713.912	33.01
714.096	32.8
714.28	32.75
714.464	32.38
714.648	32.2
714.832	31.93
715.016	32.06
715.2	31.83
715.384	31.92
715.568	31.81
715.752	32.15
715.936	32.33
716.12	32.03
716.304	32
716.488	32.24
716.671	32.18
716.855	32.42
717.039	31.92
717.223	31.94
717.407	31.84
717.59	31.67
717.774	31.5
717.958	31.65
718.142	31.93
718.325	32.14
718.509	32.26
718.693	32.39
718.877	32.33
719.06	32.43
719.244	32.11
719.428	31.67
719.611	31.95
719.795	32.05
719.978	31.94
720.162	31.83
720.345	31.68
720.529	31.63
720.713	31.74
720.896	31.53
721.08	31.47
721.263	31.82
721.446	32.74
721.63	32.66
721.813	32.46
721.997	32.63
722.18	32.45
722.364	32.2
722.547	31.95
722.73	31.99
722.914	32.3
723.097	32.66
723.28	32.48
723.464	32.35
723.647	32.67
723.83	32.73
724.013	32.44
724.197	33.14
724.38	33.73
724.563	33.8
724.746	34.02
724.929	34.09
725.112	34.07
725.296	34.48
725.479	33.95
725.662	34.02
725.845	33.7
726.028	33.67
726.211	33.18
726.394	32.95
726.577	32.84
726.76	32.96
726.943	32.22
727.126	31.77
727.309	31.55
727.492	31.71
727.675	31.52
727.858	31.98
728.041	31.89
728.224	32.09
728.407	32.14
728.589	32.3
728.772	31.38
728.955	31.83
729.138	32.12
729.321	31.88
729.503	31.89
729.686	31.7
729.869	31.3
730.052	31.64
730.234	31.05
730.417	30.89
730.6	30.83
730.782	31.35
730.965	31.58
731.148	31.66
731.33	31.77
731.513	31.71
731.695	31.49
731.878	31.93
732.061	31.88
732.243	32.47
732.426	32.63
732.608	33.01
732.791	33.05
732.973	33.14
733.156	32.91
733.338	32.98
733.52	33.17
733.703	33.45
733.885	33.53
734.068	33.61
734.25	33.72
734.432	33.72
734.615	33.47
734.797	33.66
734.979	33.57
735.162	33.95
735.344	33.38
735.526	33.27
735.708	33.52
735.891	33.29
736.073	33.13
736.255	32.84
736.437	32.38
736.619	31.9
736.802	31.53
736.984	31.84
737.166	31.78
737.348	32
737.53	32.1
737.712	31.9
737.894	31.74
738.076	32
738.258	32.18
738.44	32.56
738.622	33.31
738.804	33.88
738.986	33.26
739.168	33.2
739.35	34.13
739.532	33.82
739.714	34.04
739.896	34.3
740.078	34.19
740.259	33.98
740.441	33.82
740.623	33.52
740.805	32.94
740.987	33.04
741.168	33.06
741.35	32.89
741.532	33.02
741.714	32.96
741.895	33.03
742.077	33.03
742.259	33.56
742.44	33.84
742.622	33.92
742.804	34.21
742.985	34.53
743.167	34.6
743.348	34.41
743.53	34.76
743.711	35.02
743.893	34.3
744.075	34.23
744.256	33.52
744.438	33.72
744.619	33.55
744.8	33.29
744.982	33.49
745.163	33.13
745.345	33.02
745.526	32.9
745.707	32.73
745.889	33.31
746.07	33.14
746.252	33.57
746.433	33.51
746.614	33.83
746.795	33.92
746.977	33.97
747.158	34.08
747.339	34.17
747.52	34.04
747.702	33.88
747.883	33.55
748.064	33.59
748.245	33.39
748.426	33.43
748.607	33.41
748.788	33.89
748.97	33.39
749.151	33.49
749.332	33.88
749.513	34.66
749.694	34.86
749.875	35.26
750.056	35.93
750.237	35.29
750.418	34.83
750.599	34.54
750.78	33.68
750.96	33.78
751.141	33.72
751.322	33.51
751.503	32.76
751.684	32.47
751.865	32.53
752.046	32.78
752.226	33.1
752.407	33.28
752.588	33.64
752.769	33.88
752.949	33.71
753.13	33.85
753.311	33.37
753.492	33.74
753.672	34.02
753.853	34.71
754.034	34.6
754.214	35
754.395	35.03
754.575	34.75
754.756	35.04
754.937	35.46
755.117	35.59
755.298	35.92
755.478	35.95
755.659	35.57
755.839	34.75
756.02	33.68
756.2	33.35
756.381	33.62
756.561	33.55
756.741	33.88
756.922	33.68
757.102	32.98
757.283	32.79
757.463	32.91
757.643	32.97
757.823	32.57
758.004	32.73
758.184	32
758.364	32.06
758.545	32.45
758.725	31.86
758.905	31.8
759.085	32.34
759.265	31.71
759.446	30.64
759.626	30.58
759.806	30.51
759.986	30.86
760.166	31.47
760.346	31.14
760.526	30.8
760.706	30.67
760.886	30.81
761.066	30.78
761.246	31.48
761.426	32.01
761.606	32.1
761.786	32.32
761.966	32.07
762.146	32.05
762.326	32.14
762.506	32.25
762.686	32.67
762.866	32.74
763.046	32.76
763.225	32.79
763.405	32.73
763.585	32.45
763.765	32.58
763.945	32.78
764.124	32.79
764.304	32.64
764.484	32.6
764.664	32.36
764.843	32.29
765.023	31.93
765.203	31.72
765.382	31.66
765.562	32.22
765.741	32.14
765.921	32.44
766.101	32.98
766.28	32.82
766.46	33.07
766.639	33.23
766.819	32.94
766.998	33.7
767.178	34.14
767.357	34.86
767.537	34.56
767.716	35.11
767.896	34.92
768.075	34.62
768.254	34.54
768.434	34.66
768.613	34.89
768.792	35.72
768.972	35.2
769.151	35.16
769.33	34.65
769.51	35.54
769.689	35.16
769.868	35.32
770.047	34.94
770.226	35.3
770.406	34.73
770.585	34.86
770.764	34.39
770.943	34.65
771.122	34.3
771.301	34.85
771.48	34.25
771.66	34.08
771.839	34.33
772.018	34.95
772.197	35.54
772.376	35.16
772.555	35.12
772.734	35.28
772.913	34.65
773.092	34.59
773.271	33.94
773.449	33.87
773.628	34.33
773.807	33.27
773.986	33.92
774.165	33.54
774.344	34.16
774.523	34.19
774.701	34.18
774.88	34.47
775.059	34.56
775.238	34.89
775.417	34.95
775.595	34.38
775.774	34.87
775.953	34.3
776.131	34.48
776.31	34.82
776.489	34.4
776.667	34.62
776.846	35.62
777.025	36.07
777.203	36.41
777.382	35.89
777.56	35.67
777.739	35.77
777.917	34.82
778.096	34.98
778.274	34.38
778.453	34.86
778.631	34.61
778.81	34.33
778.988	34.27
779.166	33.66
779.345	34.92
779.523	35.69
779.702	36.6
779.88	37.49
780.058	37.39
780.237	38.95
780.415	38.65
780.593	38.12
780.771	38.22
780.95	38.28
781.128	38.57
781.306	37.94
781.484	38.01
781.662	36.64
781.841	35.54
782.019	35.47
782.197	35.05
782.375	34.77
782.553	34.78
782.731	35.12
782.909	35.46
783.087	35.54
783.265	35.15
783.443	34.57
783.621	34.54
783.799	36.31
783.977	35.79
784.155	34.6
784.333	35.42
784.511	36.41
784.689	34.85
784.867	34.01
785.045	34.35
785.223	34.34
785.4	35
785.578	35.41
785.756	33.4
785.934	34.26
786.112	34.99
786.289	33.58
786.467	32.96
786.645	33.31
786.823	33.06
787	32.92
787.178	32.97
787.356	32
787.533	32.98
787.711	33.51
787.889	33.4
788.066	33.15
788.244	32.65
788.421	32.55
788.599	32.99
788.776	33.85
788.954	33.38
789.131	33.69
789.309	34.41
789.486	33.94
789.664	34.39
789.841	34.33
790.019	33.93
790.196	35.48
790.373	35.41
790.551	34.91
790.728	34.14
790.906	34.15
791.083	34.96
791.26	34.54
791.437	33.99
791.615	34.18
791.792	33.39
791.969	34.07
792.146	33.65
792.324	34.38
792.501	34.63
792.678	34.07
792.855	34
793.032	33.35
793.209	33.19
793.387	33.4
793.564	33.57
793.741	34.33
793.918	34.35
794.095	34.3
794.272	34.32
794.449	34.21
794.626	35.33
794.803	36.54
794.98	35.67
795.157	35.55
795.334	36.29
795.511	35.75
795.688	35.25
795.864	34.03
796.041	34.76
796.218	33.64
796.395	34.37
796.572	34.41
796.749	33.58
796.925	33.88
797.102	33.78
797.279	32.54
797.456	32.78
797.632	32.72
797.809	33.21
797.986	31.92
798.162	32.53
798.339	32.92
798.516	33.1
798.692	33.64
798.869	33.45
799.046	34.33
799.222	34.15
799.399	33.24
799.575	33.67
799.752	33.56
799.928	34.32
800.105	34.49
800.281	33.89
800.458	33.7
800.634	32.76
800.811	32.34
800.987	31.29
801.163	31.23
801.34	32.51
801.516	31.55
801.692	31.69
801.869	31.8
802.045	32
802.221	30.92
802.398	30.45
802.574	30.83
802.75	31.27
802.926	32.59
803.103	33.27
803.279	33.83
803.455	34.61
803.631	35.57
803.807	35.64
803.983	35.79
804.16	36.59
804.336	36.26
804.512	35.98
804.688	36.9
804.864	36.69
805.04	36.14
805.216	35.65
805.392	35.77
805.568	34.97
805.744	34.56
805.92	33.2
806.096	34.42
806.272	33.65
806.448	32.55
806.623	32.3
806.799	31.65
806.975	33.05
807.151	31.6
807.327	31.3
807.503	30.83
807.678	32.18
807.854	33.59
808.03	32.41
808.206	33.45
808.381	34.58
808.557	34.71
808.733	35.87
808.908	34.44
809.084	35.79
809.26	36.85
809.435	36.77
809.611	35.34
809.787	34.59
809.962	34.8
810.138	35.35
810.313	35.57
810.489	34.83
810.664	33.26
810.84	31.53
811.015	31.07
811.191	30.86
811.366	32.22
811.542	32.74
811.717	32.29
811.892	32.44
812.068	32.58
812.243	31.67
812.419	31.98
812.594	32
812.769	33.55
812.944	33.22
813.12	31.96
813.295	30.72
813.47	29.91
813.645	30.6
813.821	30.25
813.996	28.82
814.171	30.11
814.346	28.98
814.521	29.31
814.697	30.42
814.872	30.07
815.047	29.93
815.222	30.61
815.397	30.61
815.572	30.77
815.747	30.22
815.922	32.41
816.097	32.36
816.272	33.75
816.447	33.42
816.622	34.07
816.797	34.59
816.972	35.2
817.147	36.96
817.322	36.87
817.496	36.8
817.671	37.92
817.846	36.92
818.021	35.23
818.196	33.31
818.371	33.38
818.545	32.33
818.72	32.75
818.895	31.69
819.069	30.35
819.244	30.1
819.419	30.1
819.594	29.85
819.768	29.52
819.943	30.01
820.117	30.07
820.292	31.09
820.467	31.16
820.641	30.74
820.816	31.37
820.99	31.56
821.165	31.67
821.339	31.33
821.514	31.42
821.688	31.52
821.863	31.79
822.037	31.98
822.212	31.69
822.386	31.82
822.56	31.87
822.735	31.68
822.909	31.43
823.084	31.4
823.258	31.55
823.432	31.58
823.606	31.27
823.781	31
823.955	30.86
824.129	30.77
824.303	30.86
824.478	30.99
824.652	31.24
824.826	31.6
825	31.56
825.174	31.25
825.348	31.41
825.523	31.94
825.697	31.99
825.871	32.18
826.045	32.06
826.219	31.72
826.393	31.63
826.567	31.27
826.741	30.94
826.915	30.99
827.089	31.4
827.263	30.82
827.437	30.24
827.611	30.46
827.784	30.31
827.958	30.73
828.132	30.47
828.306	29.94
828.48	30
828.654	30.26
828.827	30.39
829.001	29.93
829.175	29.96
829.349	31.02
829.522	30.89
829.696	31.58
829.87	31.7
830.044	31.99
830.217	32.84
830.391	33.24
830.565	33.49
830.738	33.61
830.912	34.69
831.085	35.32
831.259	34.8
831.432	34.73
831.606	34.43
831.779	34.51
831.953	33.98
832.126	32.21
832.3	31.4
832.473	30.71
832.647	30.59
832.82	29.74
832.994	29.02
833.167	29.46
833.34	30.07
833.514	29.88
833.687	29.06
833.86	29.62
834.034	30.77
834.207	31.19
834.38	31.29
834.553	30.87
834.727	31.86
834.9	32.21
835.073	32.06
835.246	31.42
835.419	31.51
835.593	31.69
835.766	31.83
835.939	31.03
836.112	31
836.285	30.25
836.458	30.46
836.631	29.73
836.804	29.81
836.977	29.76
837.15	29.79
837.323	30.82
837.496	30.56
837.669	28.75
837.842	29.26
838.015	29.07
838.188	29.39
838.361	29.45
838.533	28.46
838.706	27.97
838.879	27.35
839.052	27.95
839.225	27.39
839.398	28.11
839.57	30.24
839.743	30.09
839.916	31.82
840.088	33.1
840.261	33.59
840.434	33.85
840.607	33.93
840.779	33.84
840.952	33.81
841.124	33.87
841.297	33.44
841.47	32.29
841.642	33.54
841.815	32.86
841.987	31.41
842.16	31.12
842.332	32.22
842.505	33.18
842.677	32.88
842.85	33.29
843.022	33.58
843.194	35.43
843.367	35.68
843.539	34.56
843.712	33.9
843.884	36.04
844.056	37.1
844.229	35.94
844.401	36.8
844.573	38.69
844.745	39.84
844.918	35.89
845.09	35.2
845.262	32.3
845.434	32.02
845.606	30.6
845.779	27.2
845.951	29.37
846.123	29.45
846.295	28.81
846.467	28.13
846.639	26.7
846.811	29.63
846.983	31.04
847.155	30.98
847.327	31.61
847.499	32
847.671	37.5
847.843	34.13
848.015	35.31
848.187	36.74
848.359	33.08
848.531	34.68
848.703	37.55
848.875	36.07
849.047	38.12
849.218	36.79
849.39	36.87
849.562	35.58
849.734	34.05
849.905	32.34
850.077	30.37
850.249	34.69
850.421	33.91
850.592	28.19
850.764	25.41
850.936	24.94
851.107	25.36
851.279	28.32
851.451	24.89
851.622	29.46
851.794	31.13
851.965	30.63
852.137	32.59
852.308	30.75
852.48	35.4
852.651	40.27
852.823	41.54
852.994	42.18
853.166	38.65
853.337	40.01
853.509	38.33
853.68	39.22
853.851	37.78
854.023	35.13
854.194	34.08
854.365	34.67
854.537	33.21
854.708	36.46
854.879	39.93
855.05	38.13
855.222	36.01
855.393	37.66
855.564	33.73
855.735	34.58
855.906	38.6
856.078	37.08
856.249	31.32
856.42	28.65
856.591	28.97
856.762	28.68
856.933	34.64
857.104	31.96
857.275	29.28
857.446	31.6
857.617	30.97
857.788	30.27
857.959	34.8
858.13	38.69
858.301	37.94
858.472	33.53
858.643	33.07
858.814	29.37
858.985	35.45
859.155	35.72
859.326	38.2
859.497	36.77
859.668	35.48
859.839	32.46
860.009	30.53
860.18	30.73
860.351	33.4
860.522	30.16
860.692	28.86
860.863	26.56
861.034	30.27
861.204	29.04
861.375	34.18
861.546	33.89
861.716	35.03
861.887	36.78
862.057	36.61
862.228	32.39
862.398	29.21
862.569	36.04
862.739	35.92
862.91	33.7
863.08	26.09
863.251	27
863.421	24.76
863.592	22.97
863.762	22.3
863.932	23.2
864.103	25.67
864.273	28.69
864.443	23.96
864.614	25.56
864.784	21.22
864.954	28.54
865.125	28.62
865.295	24.45
865.465	24.56
865.635	25.31
865.805	22.44
865.976	24.55
866.146	24.29
866.316	23.48
866.486	24.34
866.656	27.45
866.826	25.52
866.996	23.95
867.166	27.94
867.336	29.17
867.506	28.24
867.676	29.61
867.846	28.54
868.016	27.25
868.186	26.98
868.356	22.78
868.526	19.53
868.696	22.93
868.866	18.99
869.036	19.45
869.206	20.52
869.376	22.19
869.545	26.82
869.715	25.57
869.885	28.29
870.055	30.98
870.224	34.57
870.394	33.37
870.564	31.3
870.734	37.62
870.903	36.84
871.073	35.15
871.243	31.43
871.412	29.17
871.582	33.14
871.751	34.78
871.921	34.01
872.091	34.18
872.26	36.9
872.43	33.93
872.599	35.43
872.769	37.03
872.938	38.37
873.108	42.73
873.277	38.29
873.446	32.65
873.616	32.51
873.785	31.76
873.955	29.25
874.124	29.54
874.293	33.18
874.463	25.77
874.632	26.93
874.801	28.96
874.971	26.7
875.14	29.87
875.309	31.7
875.478	29.1
875.647	30
875.817	31.42
875.986	32.46
876.155	34.27
876.324	35.76
876.493	34.71
876.662	34.39
876.831	33.06
877	31.67
877.17	27.82
877.339	26.79
877.508	27.71
877.677	25.69
877.846	25.47
878.015	27.58
878.184	30.47
878.352	30.94
878.521	31.87
878.69	30.97
878.859	32.15
879.028	37.62
879.197	38.19
879.366	37.8
879.534	35.63
879.703	34.51
879.872	31.1
880.041	30.06
880.21	29.36
880.378	28.79
880.547	31.07
880.716	30.51
880.884	29.77
881.053	29.7
881.222	29.21
881.39	29.78
881.559	29.7
881.727	30.68
881.896	30.62
882.065	30.23
882.233	30.39
882.402	30.29
882.57	30.39
882.739	30.02
882.907	30.69
883.076	31.19
883.244	31.02
883.412	30.66
883.581	30.05
883.749	29.3
883.918	29.38
884.086	28.88
884.254	27.83
884.423	28.38
884.591	27.99
884.759	26.35
884.927	25.1
885.096	25.4
885.264	25.94
885.432	27
885.6	28.25
885.769	28.19
885.937	28.38
886.105	29.69
886.273	27.87
886.441	29.92
886.609	32.74
886.777	32.49
886.945	33.89
887.113	32.14
887.281	31.22
887.449	31.37
887.617	34.17
887.785	36.03
887.953	35.99
888.121	37.48
888.289	34.03
888.457	31.6
888.625	34.65
888.793	30.75
888.961	33.84
889.129	31.96
889.296	35.49
889.464	32.82
889.632	30.25
889.8	30.47
889.967	28.95
890.135	33.87
