Data from 2938775__Reflection_02.txt Node
Date: Fri Mar 13 14:10:17 EDT 2015
User: robert
Spectrometer: USB4E03002
Autoset integration time: false
Trigger mode: 4
Integration Time (sec): 1.000000E-1
Scans to average: 10
Electric dark correction enabled: false
Nonlinearity correction enabled: false
Boxcar width: 5
Stray light correction enabled: false
XAxis mode: Wavelengths
Stop averaging: false
Number of Pixels in Spectrum: 3648
>>>>>Begin Spectral Data<<<<<
177.575	-209.03
177.794	-390.41
178.014	-1092.59
178.233	625.37
178.452	1327.03
178.672	331.25
178.891	249.39
179.11	1047.83
179.33	-320.9
179.549	-97.62
179.768	-336.67
179.987	429.85
180.207	1100
180.426	572.31
180.645	-862.86
180.864	-216.13
181.084	3.15
181.303	-39.25
181.522	-300
181.741	753.33
181.96	43.17
182.179	33.16
182.398	9.55
182.618	34.61
182.837	41.7
183.056	37.36
183.275	71.43
183.494	50.48
183.713	71.68
183.932	97.83
184.151	63.43
184.37	59.77
184.589	97.19
184.808	242.22
185.027	91.58
185.246	63.93
185.465	47.78
185.684	43.52
185.903	71.05
186.122	64.85
186.341	52.45
186.56	69.01
186.779	128.99
186.998	126.67
187.216	142.92
187.435	325.42
187.654	137.92
187.873	102.13
188.092	72.05
188.311	146.24
188.53	102.88
188.748	267.19
188.967	-470.83
189.186	98.55
189.405	74.1
189.623	48.19
189.842	34.54
190.061	86.78
190.28	147.23
190.498	160.64
190.717	119.69
190.936	117.94
191.154	100.99
191.373	105.08
191.592	103.79
191.81	86.52
192.029	84.72
192.248	115.51
192.466	96.9
192.685	98.8
192.904	55.74
193.122	66.06
193.341	80.65
193.559	139.38
193.778	142.65
193.996	149.75
194.215	1184
194.433	313.08
194.652	200.68
194.87	321.28
195.089	5060
195.307	1211.54
195.526	-172.9
195.744	874.47
195.963	271.58
196.181	162.4
196.399	148.8
196.618	126.95
196.836	172.91
197.055	185.06
197.273	130.77
197.491	100
197.71	22.22
197.928	91.62
198.146	120.34
198.365	60
198.583	100
198.801	59.83
199.019	61.72
199.238	71.65
199.456	68.78
199.674	82.45
199.892	130.89
200.111	154.58
200.329	147.59
200.547	218.56
200.765	227.96
200.983	211.93
201.202	375.7
201.42	693.75
201.638	-1530.43
201.856	-190.72
202.074	-343.9
202.292	-9.47
202.51	-25.58
202.728	39.15
202.946	114.77
203.165	209.52
203.383	10100
203.601	80.99
203.819	22.77
204.037	66.84
204.255	31.34
204.473	44.01
204.691	55.25
204.909	45.98
205.127	-9.62
205.345	-2.37
205.562	-59.53
205.78	-26.8
205.998	-66.75
206.216	-1.82
206.434	-15.27
206.652	21.87
206.87	23.16
207.088	43.5
207.306	76.54
207.523	92.68
207.741	82.17
207.959	97.52
208.177	107.01
208.395	138.89
208.612	109.75
208.83	106.72
209.048	111.52
209.266	396.67
209.483	-267.65
209.701	-348
209.919	100
210.136	-600
210.354	55.56
210.572	32.24
210.79	62.62
211.007	98.87
211.225	422.03
211.442	93.18
211.66	64.65
211.878	43.71
212.095	188.35
212.313	202.52
212.53	224.83
212.748	164.5
212.966	146.08
213.183	177.69
213.401	188.67
213.618	146.14
213.836	142.59
214.053	164.54
214.271	154.4
214.488	33.29
214.705	42.26
214.923	43.19
215.14	59.63
215.358	41.75
215.575	47.94
215.793	36.49
216.01	40.88
216.227	39.29
216.445	37.98
216.662	36.26
216.879	35.34
217.097	28.26
217.314	23.38
217.531	9.31
217.749	5.88
217.966	-9.4
218.183	-33.04
218.4	-66.45
218.618	-56.12
218.835	-53.98
219.052	-56.35
219.269	-63.21
219.487	-74.65
219.704	-64.84
219.921	-65.96
220.138	-50.84
220.355	-41.47
220.572	-32.18
220.79	-20.5
221.007	-20.52
221.224	-19.11
221.441	-3.36
221.658	11.73
221.875	15.97
222.092	21.98
222.309	21.59
222.526	14.73
222.743	12.9
222.96	19.27
223.177	22.47
223.394	18.34
223.611	20.91
223.828	18.86
224.045	14.38
224.262	23.82
224.479	22.28
224.696	24.18
224.913	24.65
225.13	25.5
225.347	26.2
225.564	26.73
225.781	26.73
225.997	21.33
226.214	20.8
226.431	19.31
226.648	12.8
226.865	12.53
227.082	11.29
227.298	10.61
227.515	9.08
227.732	6.56
227.949	4.57
228.165	4.34
228.382	5.1
228.599	4.95
228.816	4.28
229.032	4.47
229.249	4.09
229.466	4.31
229.682	4.67
229.899	4.81
230.116	4.22
230.332	4.35
230.549	4.66
230.765	4.99
230.982	4.5
231.199	5.15
231.415	5.96
231.632	6.08
231.848	5.61
232.065	4.1
232.281	4.28
232.498	4.79
232.714	5.65
232.931	6.31
233.147	5.96
233.364	5.3
233.58	5.02
233.797	2.57
234.013	1.41
234.23	1.59
234.446	2.68
234.662	1.45
234.879	1.44
235.095	1.52
235.312	2.63
235.528	1.68
235.744	0.82
235.961	2
236.177	2.81
236.393	4.21
236.61	4.17
236.826	3.16
237.042	4.53
237.258	4.19
237.475	3.01
237.691	-0.14
237.907	-0.17
238.123	3.13
238.339	2.51
238.556	1.04
238.772	1.36
238.988	1.74
239.204	2.03
239.42	2.83
239.636	3.71
239.853	4.1
240.069	5.55
240.285	4.88
240.501	3.75
240.717	4.12
240.933	5.03
241.149	4.54
241.365	4.63
241.581	4.43
241.797	4.73
242.013	5.14
242.229	5.57
242.445	5.22
242.661	5.53
242.877	5.82
243.093	5.98
243.309	5.6
243.525	5.4
243.741	5.54
243.957	6.14
244.173	5.91
244.388	5.29
244.604	5.02
244.82	5.11
245.036	4.88
245.252	3.98
245.468	3.7
245.683	4.33
245.899	4.24
246.115	4.09
246.331	3.78
246.547	3.98
246.762	4.17
246.978	4.15
247.194	4.08
247.409	4.56
247.625	4.8
247.841	4.61
248.057	4.46
248.272	4.74
248.488	4.83
248.703	5.39
248.919	4.99
249.135	4.82
249.35	5.1
249.566	5.68
249.782	5.16
249.997	5.18
250.213	5.9
250.428	6.71
250.644	6.38
250.859	6.11
251.075	5.25
251.29	5.21
251.506	5.54
251.721	5.53
251.937	4.92
252.152	4.73
252.368	4.86
252.583	4.4
252.798	3.81
253.014	4.28
253.229	4.82
253.445	5.15
253.66	4.77
253.875	4.89
254.091	4.09
254.306	3.87
254.521	3.5
254.737	3.73
254.952	4.29
255.167	4.15
255.383	4.01
255.598	2.81
255.813	2.07
256.028	3.71
256.244	3.26
256.459	3.93
256.674	3.82
256.889	4.34
257.104	3.48
257.32	3.12
257.535	2.85
257.75	2.98
257.965	3.16
258.18	2.99
258.395	2.67
258.61	3.1
258.826	2.96
259.041	3
259.256	3
259.471	2.94
259.686	2.89
259.901	3.1
260.116	3.01
260.331	3.34
260.546	3.49
260.761	3.35
260.976	3.08
261.191	2.95
261.406	2.89
261.621	2.91
261.836	3.14
262.05	2.75
262.265	2.47
262.48	1.93
262.695	1.16
262.91	1.06
263.125	1.1
263.34	0.83
263.555	1.06
263.769	1.44
263.984	0.86
264.199	0.35
264.414	0.79
264.629	0.85
264.843	2
265.058	1.8
265.273	1.67
265.488	1.85
265.702	2.69
265.917	2.85
266.132	2.5
266.346	2.61
266.561	3.61
266.776	3.47
266.99	3.45
267.205	2.46
267.42	2.91
267.634	2.81
267.849	2.6
268.063	2.57
268.278	2.6
268.492	2.59
268.707	2.7
268.922	1.95
269.136	2.39
269.351	2.12
269.565	3.06
269.78	2.78
269.994	3.12
270.209	3.12
270.423	2.66
270.637	2.53
270.852	2.49
271.066	2.86
271.281	2.77
271.495	2.62
271.709	2.95
271.924	2.69
272.138	2.88
272.353	2.78
272.567	2.93
272.781	2.9
272.996	2.82
273.21	3.42
273.424	3.26
273.638	3.46
273.853	3.35
274.067	3.18
274.281	3.32
274.495	2.97
274.71	3.06
274.924	3.05
275.138	3.35
275.352	3.37
275.566	2.72
275.781	2.28
275.995	2.41
276.209	2.81
276.423	2.42
276.637	1.81
276.851	2.4
277.065	2.47
277.279	2.26
277.493	1.9
277.707	2.04
277.921	2.19
278.135	2.66
278.349	2.48
278.563	2.66
278.777	3.22
278.991	4.23
279.205	3.8
279.419	3.5
279.633	3.52
279.847	3.41
280.061	2.81
280.275	2.62
280.489	2.74
280.703	2.5
280.917	2.06
281.131	1.9
281.344	1.46
281.558	1.37
281.772	1.71
281.986	1.81
282.2	2.12
282.414	2.43
282.627	2.44
282.841	1.97
283.055	2.44
283.269	2.4
283.482	2.51
283.696	2.31
283.91	2.41
284.123	2.11
284.337	2.25
284.551	2.21
284.764	2.4
284.978	2.28
285.192	2.57
285.405	2.39
285.619	2.32
285.833	2.26
286.046	2.25
286.26	2.3
286.473	2.46
286.687	2.24
286.9	2.14
287.114	1.82
287.327	1.97
287.541	1.74
287.754	1.58
287.968	1.43
288.181	1.45
288.395	1.62
288.608	1.74
288.822	1.65
289.035	1.83
289.248	1.49
289.462	1.71
289.675	1.68
289.889	1.83
290.102	1.93
290.315	2.22
290.529	2.32
290.742	2.29
290.955	2.29
291.169	2.66
291.382	2.55
291.595	3.05
291.808	3.23
292.022	3.44
292.235	3.51
292.448	3.68
292.661	3.7
292.875	3.74
293.088	4.03
293.301	3.7
293.514	3.56
293.727	4.17
293.94	3.92
294.153	3.62
294.367	3.3
294.58	3.21
294.793	3.01
295.006	2.93
295.219	2.7
295.432	2.2
295.645	2.34
295.858	1.99
296.071	1.76
296.284	1.91
296.497	2.09
296.71	2.48
296.923	2.81
297.136	3.06
297.349	2.96
297.562	3.13
297.775	3.26
297.988	3.67
298.201	4.02
298.414	3.98
298.626	4.05
298.839	4
299.052	3.77
299.265	3.38
299.478	3.12
299.691	3.36
299.903	3.25
300.116	3.55
300.329	3.18
300.542	3.08
300.755	2.93
300.967	2.89
301.18	3
301.393	3.09
301.605	3.31
301.818	3.46
302.031	3.46
302.243	3.33
302.456	3.15
302.669	3.09
302.881	2.94
303.094	2.91
303.307	3.08
303.519	2.75
303.732	2.51
303.944	2.19
304.157	2.17
304.37	2.1
304.582	2.36
304.795	2.35
305.007	2.61
305.22	2.8
305.432	2.89
305.645	2.84
305.857	3.23
306.069	3.65
306.282	4.13
306.494	3.86
306.707	3.57
306.919	3.44
307.132	3.6
307.344	3.76
307.556	3.96
307.769	4.24
307.981	4.13
308.193	4.05
308.406	4.02
308.618	3.73
308.83	4.04
309.043	4.21
309.255	4.4
309.467	4.11
309.679	3.64
309.892	3.23
310.104	3.21
310.316	2.82
310.528	2.67
310.74	2.63
310.953	2.53
311.165	2.42
311.377	2.46
311.589	2.55
311.801	2.58
312.013	2.66
312.225	2.65
312.437	2.13
312.649	2.49
312.862	2.74
313.074	2.53
313.286	2.76
313.498	2.81
313.71	3.15
313.922	3.03
314.134	3.45
314.346	3.44
314.558	4.07
314.77	4.79
314.982	4.8
315.193	4.89
315.405	5.25
315.617	5.07
315.829	5.28
316.041	5.23
316.253	4.93
316.465	5.29
316.677	5.34
316.888	5.17
317.1	5.1
317.312	5.41
317.524	5.37
317.736	5.31
317.947	5.53
318.159	5.72
318.371	5.52
318.583	5.73
318.794	5.32
319.006	5.57
319.218	5.27
319.43	4.8
319.641	4.75
319.853	4.53
320.064	4.36
320.276	4.69
320.488	4.26
320.699	4
320.911	4.34
321.123	3.99
321.334	3.97
321.546	4.07
321.757	4.45
321.969	4.09
322.18	5.26
322.392	5.79
322.603	5.33
322.815	5.5
323.026	6.19
323.238	5.98
323.449	5.98
323.661	5.77
323.872	6.05
324.083	6.1
324.295	6.77
324.506	6.22
324.718	5.74
324.929	6.03
325.14	6.16
325.352	6.18
325.563	6.47
325.774	6.43
325.986	6.9
326.197	6.79
326.408	6.82
326.62	6.82
326.831	6.77
327.042	7.23
327.253	7.48
327.464	7.76
327.676	7.62
327.887	7.96
328.098	8.48
328.309	8.19
328.52	8.72
328.732	8.94
328.943	9.06
329.154	9.01
329.365	8.72
329.576	8.52
329.787	8.43
329.998	8.36
330.209	7.77
330.42	7.96
330.631	8.23
330.842	8.23
331.053	8.63
331.264	8.27
331.475	8.47
331.686	8.9
331.897	9.13
332.108	9.29
332.319	9.81
332.53	10.17
332.741	10.77
332.952	10.74
333.163	10.3
333.374	9.67
333.585	9.68
333.795	9.81
334.006	9.54
334.217	9.45
334.428	9.29
334.639	9.18
334.849	8.87
335.06	7.92
335.271	8.23
335.482	8.37
335.692	8.83
335.903	8.96
336.114	9.34
336.325	9.58
336.535	9.41
336.746	9.72
336.957	9.84
337.167	10.06
337.378	10.28
337.589	10.02
337.799	9.95
338.01	9.91
338.22	9.98
338.431	9.5
338.642	9.08
338.852	9.42
339.063	9.39
339.273	9.18
339.484	9.21
339.694	8.99
339.905	9.09
340.115	9.58
340.326	9.27
340.536	9.19
340.746	9.33
340.957	9.91
341.167	9.59
341.378	9.4
341.588	9.28
341.799	9.25
342.009	9.32
342.219	9.28
342.43	8.75
342.64	9.3
342.85	9.24
343.061	9.13
343.271	8.77
343.481	8.63
343.691	8.66
343.902	8.7
344.112	8.68
344.322	8.66
344.532	8.7
344.743	9.04
344.953	8.97
345.163	9.03
345.373	8.96
345.583	9.03
345.793	9.41
346.004	9.25
346.214	9.42
346.424	9.39
346.634	9.63
346.844	9.56
347.054	9.21
347.264	8.91
347.474	8.61
347.684	8.61
347.894	8.71
348.104	8.68
348.314	8.94
348.524	8.76
348.734	8.83
348.944	8.79
349.154	8.91
349.364	8.92
349.574	9.27
349.784	9.65
349.994	9.92
350.204	10.05
350.413	10.19
350.623	10.04
350.833	9.87
351.043	9.81
351.253	9.8
351.463	10.06
351.672	9.82
351.882	9.71
352.092	9.5
352.302	9.43
352.511	9.29
352.721	8.99
352.931	8.88
353.141	8.74
353.35	8.62
353.56	8.63
353.77	8.32
353.979	8.49
354.189	8.3
354.399	8.32
354.608	8.12
354.818	8.09
355.027	8.15
355.237	8.34
355.447	8.44
355.656	8.31
355.866	7.97
356.075	7.93
356.285	8.14
356.494	8.21
356.704	8.24
356.913	8.27
357.123	8.33
357.332	8.18
357.542	8.27
357.751	8.38
357.96	8.52
358.17	8.58
358.379	8.46
358.589	8.35
358.798	8.33
359.007	8.38
359.217	8.58
359.426	8.57
359.635	8.71
359.845	8.32
360.054	8.28
360.263	8.31
360.472	8.37
360.682	8.52
360.891	8.41
361.1	8.39
361.309	8.28
361.519	7.91
361.728	7.87
361.937	7.95
362.146	8.11
362.355	8.08
362.564	8.07
362.774	8.2
362.983	8.08
363.192	8.06
363.401	8.04
363.61	8.04
363.819	8.15
364.028	7.99
364.237	7.71
364.446	7.45
364.655	7.4
364.864	7.54
365.073	7.17
365.282	7.32
365.491	7.21
365.7	7.2
365.909	7.46
366.118	7.71
366.327	7.75
366.536	7.84
366.745	8.04
366.954	8.11
367.162	7.91
367.371	8.18
367.58	8.13
367.789	8.44
367.998	8.42
368.207	8.23
368.415	7.82
368.624	7.7
368.833	7.68
369.042	7.87
369.25	7.97
369.459	8.17
369.668	7.92
369.877	7.74
370.085	7.75
370.294	7.94
370.503	8.21
370.711	8.46
370.92	8.75
371.129	8.65
371.337	8.48
371.546	8.25
371.754	8.35
371.963	8.4
372.171	8.64
372.38	8.53
372.589	8.43
372.797	8.09
373.006	7.87
373.214	7.69
373.423	7.79
373.631	7.81
373.84	8.01
374.048	7.62
374.256	7.78
374.465	7.94
374.673	8.01
374.882	7.95
375.09	8
375.298	8.45
375.507	8.31
375.715	8.13
375.923	8.03
376.132	7.83
376.34	7.76
376.548	7.91
376.757	7.7
376.965	7.48
377.173	7.34
377.381	7.38
377.59	7.01
377.798	7.12
378.006	7.15
378.214	7.21
378.423	7.2
378.631	7.27
378.839	6.86
379.047	6.86
379.255	6.93
379.463	7
379.671	6.73
379.879	6.89
380.088	6.74
380.296	6.65
380.504	6.45
380.712	6.52
380.92	6.52
381.128	6.53
381.336	6.34
381.544	6.43
381.752	6.24
381.96	6.46
382.168	6.39
382.376	6.57
382.584	6.75
382.791	6.81
382.999	6.85
383.207	6.87
383.415	7.03
383.623	7.05
383.831	6.86
384.039	7.09
384.247	7.04
384.454	7.05
384.662	6.99
384.87	6.79
385.078	6.64
385.285	6.54
385.493	6.46
385.701	6.44
385.909	6.43
386.116	6.65
386.324	6.55
386.532	6.53
386.739	6.41
386.947	6.46
387.155	6.66
387.362	6.84
387.57	6.73
387.778	6.94
387.985	6.93
388.193	6.99
388.4	6.96
388.608	7.16
388.816	7.15
389.023	7.22
389.231	7.15
389.438	7.02
389.646	7.04
389.853	7.18
390.061	7.03
390.268	6.78
390.475	6.6
390.683	6.29
390.89	5.91
391.098	5.93
391.305	5.79
391.512	5.69
391.72	5.8
391.927	5.79
392.135	5.69
392.342	5.7
392.549	5.97
392.756	5.95
392.964	5.99
393.171	6.01
393.378	5.83
393.586	5.84
393.793	5.9
394	5.75
394.207	5.78
394.414	5.69
394.622	5.5
394.829	5.39
395.036	5.36
395.243	5.36
395.45	5.36
395.657	5.46
395.864	5.48
396.072	5.46
396.279	5.49
396.486	5.26
396.693	5.56
396.9	5.78
397.107	5.65
397.314	5.83
397.521	5.93
397.728	5.97
397.935	6.08
398.142	6.04
398.349	6
398.556	6
398.763	6.07
398.97	5.88
399.177	5.88
399.383	5.92
399.59	5.88
399.797	5.87
400.004	5.89
400.211	5.67
400.418	5.71
400.625	5.75
400.831	5.79
401.038	5.76
401.245	5.9
401.452	5.9
401.658	5.77
401.865	5.8
402.072	5.67
402.279	5.58
402.485	5.7
402.692	5.77
402.899	5.81
403.105	5.84
403.312	5.76
403.519	5.6
403.725	5.62
403.932	5.81
404.138	5.91
404.345	5.94
404.552	5.86
404.758	5.9
404.965	5.74
405.171	5.71
405.378	5.43
405.584	5.47
405.791	5.59
405.997	5.49
406.204	5.36
406.41	5.24
406.617	5.43
406.823	5.68
407.029	5.63
407.236	5.7
407.442	5.65
407.649	5.93
407.855	5.9
408.061	5.73
408.268	5.67
408.474	5.74
408.68	5.67
408.887	5.55
409.093	5.56
409.299	5.55
409.505	5.49
409.712	5.37
409.918	5.31
410.124	5.41
410.33	5.57
410.537	5.68
410.743	5.53
410.949	5.43
411.155	5.45
411.361	5.28
411.567	5.39
411.773	5.33
411.98	5.37
412.186	5.34
412.392	5.36
412.598	5.19
412.804	5.14
413.01	5.26
413.216	5.42
413.422	5.31
413.628	5.5
413.834	5.41
414.04	5.5
414.246	5.55
414.452	5.65
414.658	5.65
414.864	5.67
415.07	5.83
415.275	5.83
415.481	5.77
415.687	5.74
415.893	5.58
416.099	5.39
416.305	5.34
416.511	5.23
416.716	5.24
416.922	5.18
417.128	5.22
417.334	5.04
417.539	4.98
417.745	5.06
417.951	5.03
418.157	5.05
418.362	5.14
418.568	5.23
418.774	5.22
418.979	5.23
419.185	5.27
419.391	5.31
419.596	5.4
419.802	5.48
420.008	5.45
420.213	5.46
420.419	5.46
420.624	5.47
420.83	5.5
421.035	5.52
421.241	5.42
421.446	5.39
421.652	5.36
421.857	5.35
422.063	5.33
422.268	5.39
422.474	5.47
422.679	5.5
422.885	5.55
423.09	5.46
423.295	5.5
423.501	5.62
423.706	5.6
423.911	5.59
424.117	5.6
424.322	5.59
424.527	5.51
424.733	5.51
424.938	5.53
425.143	5.55
425.349	5.58
425.554	5.62
425.759	5.52
425.964	5.59
426.169	5.57
426.375	5.52
426.58	5.53
426.785	5.62
426.99	5.6
427.195	5.67
427.4	5.64
427.605	5.72
427.811	5.8
428.016	5.9
428.221	5.89
428.426	5.93
428.631	6.01
428.836	6.02
429.041	5.9
429.246	5.85
429.451	5.76
429.656	5.72
429.861	5.73
430.066	5.69
430.271	5.75
430.476	5.69
430.681	5.74
430.886	5.69
431.09	5.76
431.295	5.95
431.5	6.06
431.705	6.1
431.91	6.07
432.115	5.97
432.32	6.03
432.524	5.92
432.729	5.95
432.934	5.99
433.139	6.01
433.343	5.99
433.548	5.93
433.753	5.93
433.958	5.95
434.162	6
434.367	6.12
434.572	6.06
434.776	6.12
434.981	6.2
435.186	6.2
435.39	6.16
435.595	6.12
435.799	6.08
436.004	6.12
436.209	6.12
436.413	6.28
436.618	6.17
436.822	6.15
437.027	6.13
437.231	6
437.436	6.02
437.64	6.08
437.845	6.19
438.049	6.32
438.253	6.26
438.458	6.22
438.662	6.06
438.867	6.23
439.071	6.17
439.275	6.31
439.48	6.33
439.684	6.33
439.888	6.35
440.093	6.26
440.297	6.13
440.501	6.12
440.706	6.12
440.91	6.12
441.114	6.04
441.318	6.06
441.523	5.95
441.727	6.02
441.931	5.93
442.135	5.91
442.339	5.97
442.543	5.96
442.748	6.01
442.952	6
443.156	6.11
443.36	6.16
443.564	6.17
443.768	6.23
443.972	6.14
444.176	6.18
444.38	6.15
444.584	6.22
444.788	6.29
444.992	6.26
445.196	6.21
445.4	6.27
445.604	6.27
445.808	6.33
446.012	6.25
446.216	6.34
446.42	6.37
446.624	6.36
446.828	6.34
447.032	6.26
447.235	6.26
447.439	6.28
447.643	6.13
447.847	6.1
448.051	6.05
448.254	6.18
448.458	6.11
448.662	6.11
448.866	6.16
449.069	6.16
449.273	6.18
449.477	6.24
449.681	6.15
449.884	6.18
450.088	6.29
450.292	6.38
450.495	6.39
450.699	6.41
450.902	6.4
451.106	6.3
451.31	6.36
451.513	6.48
451.717	6.48
451.92	6.58
452.124	6.64
452.327	6.47
452.531	6.37
452.734	6.29
452.938	6.28
453.141	6.24
453.345	6.35
453.548	6.22
453.752	6.13
453.955	6.08
454.158	6.14
454.362	6.19
454.565	6.24
454.769	6.22
454.972	6.26
455.175	6.29
455.379	6.42
455.582	6.43
455.785	6.46
455.988	6.43
456.192	6.51
456.395	6.37
456.598	6.35
456.801	6.39
457.005	6.54
457.208	6.44
457.411	6.45
457.614	6.37
457.817	6.29
458.021	6.3
458.224	6.4
458.427	6.29
458.63	6.31
458.833	6.31
459.036	6.19
459.239	6.18
459.442	6.22
459.645	6.2
459.848	6.15
460.051	6.18
460.254	6.18
460.457	6.12
460.66	6.15
460.863	6.19
461.066	6.21
461.269	6.33
461.472	6.28
461.675	6.33
461.878	6.3
462.081	6.3
462.284	6.39
462.486	6.34
462.689	6.46
462.892	6.57
463.095	6.6
463.298	6.59
463.5	6.55
463.703	6.54
463.906	6.43
464.109	6.5
464.311	6.58
464.514	6.46
464.717	6.48
464.92	6.43
465.122	6.4
465.325	6.42
465.528	6.37
465.73	6.36
465.933	6.44
466.135	6.58
466.338	6.63
466.541	6.71
466.743	6.66
466.946	6.64
467.148	6.64
467.351	6.57
467.553	6.62
467.756	6.66
467.958	6.69
468.161	6.69
468.363	6.68
468.566	6.7
468.768	6.62
468.971	6.64
469.173	6.73
469.375	6.76
469.578	6.94
469.78	6.91
469.983	6.89
470.185	6.83
470.387	6.74
470.59	6.69
470.792	6.62
470.994	6.68
471.196	6.79
471.399	6.78
471.601	6.7
471.803	6.63
472.005	6.62
472.208	6.6
472.41	6.73
472.612	6.86
472.814	6.86
473.016	6.78
473.218	6.76
473.421	6.66
473.623	6.63
473.825	6.54
474.027	6.55
474.229	6.62
474.431	6.63
474.633	6.62
474.835	6.55
475.037	6.67
475.239	6.8
475.441	6.84
475.643	6.95
475.845	6.96
476.047	7.06
476.249	7.08
476.451	7.01
476.653	7.01
476.855	6.91
477.057	6.92
477.258	6.83
477.46	6.8
477.662	6.76
477.864	6.67
478.066	6.58
478.268	6.62
478.469	6.61
478.671	6.53
478.873	6.54
479.075	6.5
479.276	6.57
479.478	6.58
479.68	6.61
479.882	6.61
480.083	6.67
480.285	6.76
480.487	6.77
480.688	6.73
480.89	6.85
481.091	6.81
481.293	6.84
481.495	6.69
481.696	6.64
481.898	6.61
482.099	6.58
482.301	6.56
482.502	6.52
482.704	6.49
482.905	6.49
483.107	6.43
483.308	6.43
483.51	6.44
483.711	6.47
483.913	6.48
484.114	6.5
484.315	6.5
484.517	6.54
484.718	6.57
484.92	6.6
485.121	6.58
485.322	6.64
485.524	6.66
485.725	6.64
485.926	6.63
486.127	6.65
486.329	6.62
486.53	6.61
486.731	6.57
486.932	6.56
487.134	6.53
487.335	6.55
487.536	6.54
487.737	6.53
487.938	6.58
488.139	6.64
488.341	6.66
488.542	6.68
488.743	6.73
488.944	6.78
489.145	6.8
489.346	6.87
489.547	6.91
489.748	6.9
489.949	6.91
490.15	6.88
490.351	6.81
490.552	6.8
490.753	6.82
490.954	6.83
491.155	6.78
491.356	6.78
491.557	6.75
491.758	6.74
491.959	6.74
492.159	6.77
492.36	6.8
492.561	6.89
492.762	6.88
492.963	6.88
493.164	6.93
493.364	6.93
493.565	6.96
493.766	6.99
493.967	6.98
494.167	7
494.368	7.06
494.569	7.11
494.769	7.05
494.97	7.1
495.171	7.14
495.371	7.03
495.572	7.08
495.773	7.11
495.973	7.08
496.174	7.03
496.375	7.07
496.575	7.08
496.776	7.05
496.976	7.12
497.177	7.1
497.377	7.14
497.578	7.25
497.778	7.32
497.979	7.26
498.179	7.24
498.38	7.31
498.58	7.4
498.78	7.39
498.981	7.44
499.181	7.41
499.382	7.44
499.582	7.38
499.782	7.4
499.983	7.33
500.183	7.39
500.383	7.34
500.584	7.39
500.784	7.3
500.984	7.25
501.184	7.24
501.385	7.26
501.585	7.33
501.785	7.42
501.985	7.37
502.185	7.44
502.386	7.63
502.586	7.73
502.786	7.68
502.986	7.72
503.186	7.78
503.386	7.84
503.586	7.91
503.786	7.86
503.987	7.87
504.187	7.84
504.387	7.84
504.587	7.7
504.787	7.79
504.987	7.9
505.187	7.94
505.387	8.02
505.587	7.99
505.786	7.97
505.986	8.02
506.186	8.08
506.386	8.19
506.586	8.19
506.786	8.28
506.986	8.34
507.186	8.34
507.386	8.39
507.585	8.32
507.785	8.38
507.985	8.47
508.185	8.46
508.384	8.4
508.584	8.38
508.784	8.41
508.984	8.35
509.183	8.33
509.383	8.38
509.583	8.44
509.782	8.52
509.982	8.49
510.182	8.49
510.381	8.57
510.581	8.64
510.781	8.63
510.98	8.67
511.18	8.76
511.379	8.82
511.579	8.84
511.778	8.82
511.978	8.83
512.177	8.9
512.377	8.94
512.576	9.03
512.776	9.04
512.975	9.15
513.175	9.25
513.374	9.24
513.573	9.21
513.773	9.3
513.972	9.32
514.172	9.38
514.371	9.47
514.57	9.48
514.77	9.36
514.969	9.33
515.168	9.39
515.367	9.37
515.567	9.53
515.766	9.56
515.965	9.55
516.164	9.62
516.364	9.66
516.563	9.63
516.762	9.69
516.961	9.82
517.16	9.92
517.359	9.98
517.559	10.04
517.758	10
517.957	10.1
518.156	10.12
518.355	10.14
518.554	10.17
518.753	10.25
518.952	10.27
519.151	10.28
519.35	10.34
519.549	10.38
519.748	10.4
519.947	10.48
520.146	10.53
520.345	10.57
520.544	10.66
520.743	10.77
520.942	10.91
521.141	11.04
521.339	11.14
521.538	11.21
521.737	11.37
521.936	11.48
522.135	11.55
522.333	11.64
522.532	11.69
522.731	11.67
522.93	11.68
523.129	11.65
523.327	11.59
523.526	11.53
523.725	11.52
523.923	11.52
524.122	11.53
524.321	11.52
524.519	11.51
524.718	11.56
524.917	11.6
525.115	11.63
525.314	11.62
525.512	11.73
525.711	11.84
525.909	11.91
526.108	11.9
526.306	11.93
526.505	12.01
526.703	12.05
526.902	12.12
527.1	12.13
527.299	12.2
527.497	12.31
527.696	12.29
527.894	12.3
528.092	12.3
528.291	12.34
528.489	12.37
528.688	12.4
528.886	12.44
529.084	12.44
529.283	12.52
529.481	12.55
529.679	12.58
529.877	12.62
530.076	12.71
530.274	12.82
530.472	12.86
530.67	12.95
530.869	13.04
531.067	13.11
531.265	13.23
531.463	13.24
531.661	13.34
531.859	13.34
532.057	13.38
532.255	13.39
532.454	13.38
532.652	13.44
532.85	13.44
533.048	13.4
533.246	13.43
533.444	13.43
533.642	13.47
533.84	13.5
534.038	13.57
534.236	13.63
534.434	13.67
534.632	13.73
534.83	13.78
535.027	13.88
535.225	14.02
535.423	14.13
535.621	14.24
535.819	14.35
536.017	14.35
536.215	14.35
536.412	14.44
536.61	14.48
536.808	14.56
537.006	14.7
537.203	14.74
537.401	14.76
537.599	14.81
537.797	14.85
537.994	14.92
538.192	15.03
538.39	15.19
538.587	15.3
538.785	15.46
538.983	15.55
539.18	15.47
539.378	15.46
539.575	15.56
539.773	15.63
539.97	15.7
540.168	15.77
540.366	15.81
540.563	15.8
540.761	15.77
540.958	15.8
541.155	15.81
541.353	15.89
541.55	16
541.748	16.01
541.945	16.03
542.143	16.05
542.34	16.09
542.537	16.13
542.735	16.23
542.932	16.35
543.129	16.46
543.327	16.57
543.524	16.72
543.721	16.92
543.919	17.13
544.116	17.35
544.313	17.59
544.51	17.78
544.708	18.02
544.905	18.21
545.102	18.41
545.299	18.57
545.496	18.71
545.693	18.78
545.891	18.71
546.088	18.69
546.285	18.59
546.482	18.55
546.679	18.47
546.876	18.36
547.073	18.31
547.27	18.23
547.467	18.11
547.664	18.11
547.861	18.02
548.058	18.02
548.255	18.04
548.452	18.04
548.649	17.98
548.846	18.04
549.043	18.12
549.24	18.12
549.437	18.15
549.633	18.16
549.83	18.06
550.027	18.12
550.224	18.22
550.421	18.16
550.618	18.14
550.814	18.19
551.011	18.2
551.208	18.14
551.405	18.16
551.601	18.15
551.798	18.22
551.995	18.28
552.191	18.32
552.388	18.23
552.585	18.37
552.781	18.4
552.978	18.34
553.175	18.36
553.371	18.38
553.568	18.33
553.764	18.43
553.961	18.44
554.157	18.45
554.354	18.37
554.55	18.39
554.747	18.45
554.943	18.6
555.14	18.6
555.336	18.59
555.533	18.72
555.729	18.76
555.926	18.73
556.122	18.74
556.318	18.8
556.515	18.79
556.711	18.85
556.907	18.65
557.104	18.64
557.3	18.81
557.496	18.76
557.693	18.7
557.889	18.74
558.085	18.7
558.281	18.61
558.478	18.63
558.674	18.73
558.87	18.87
559.066	18.96
559.262	18.88
559.459	18.76
559.655	18.73
559.851	18.72
560.047	18.76
560.243	18.77
560.439	18.84
560.635	18.84
560.831	18.88
561.027	18.91
561.223	19.01
561.419	19.16
561.615	19.25
561.811	19.3
562.007	19.18
562.203	19.26
562.399	19.34
562.595	19.44
562.791	19.41
562.987	19.34
563.183	19.27
563.379	19.27
563.575	19.12
563.771	19.22
563.966	19.21
564.162	19.47
564.358	19.4
564.554	19.43
564.75	19.39
564.945	19.4
565.141	19.41
565.337	19.37
565.533	19.38
565.728	19.44
565.924	19.44
566.12	19.52
566.315	19.43
566.511	19.47
566.707	19.47
566.902	19.58
567.098	19.66
567.293	19.72
567.489	19.78
567.684	19.72
567.88	19.77
568.076	19.76
568.271	19.95
568.467	20.05
568.662	19.99
568.858	19.88
569.053	19.8
569.248	19.77
569.444	19.81
569.639	19.84
569.835	19.89
570.03	19.89
570.225	19.85
570.421	19.69
570.616	19.6
570.812	19.7
571.007	19.75
571.202	19.76
571.397	19.73
571.593	19.62
571.788	19.6
571.983	19.55
572.178	19.5
572.374	19.57
572.569	19.59
572.764	19.71
572.959	19.62
573.154	19.59
573.35	19.69
573.545	19.75
573.74	19.91
573.935	19.91
574.13	19.85
574.325	19.94
574.52	19.98
574.715	19.99
574.91	19.98
575.105	20.07
575.3	20.26
575.495	20.29
575.69	20.38
575.885	20.51
576.08	20.66
576.275	20.83
576.47	20.88
576.665	20.95
576.86	21
577.055	20.96
577.25	21.11
577.444	21.2
577.639	21.23
577.834	21.28
578.029	21.25
578.224	21.27
578.418	21.47
578.613	21.59
578.808	21.57
579.003	21.71
579.197	21.84
579.392	21.89
579.587	21.89
579.781	22.02
579.976	22.04
580.171	22.02
580.365	22.09
580.56	22.08
580.755	22.04
580.949	22.14
581.144	22.14
581.338	22.29
581.533	22.2
581.727	22.29
581.922	22.25
582.116	22.31
582.311	22.41
582.505	22.41
582.7	22.4
582.894	22.44
583.089	22.37
583.283	22.45
583.478	22.58
583.672	22.73
583.866	22.64
584.061	22.74
584.255	22.75
584.449	22.72
584.644	22.88
584.838	23.15
585.032	23.36
585.226	23.49
585.421	23.57
585.615	23.61
585.809	23.68
586.003	23.86
586.198	23.85
586.392	23.96
586.586	24.08
586.78	24.15
586.974	23.93
587.168	23.84
587.363	23.74
587.557	23.57
587.751	23.32
587.945	23.27
588.139	23.15
588.333	23.03
588.527	22.91
588.721	22.74
588.915	22.46
589.109	22.36
589.303	22.33
589.497	22.43
589.691	22.31
589.885	22.42
590.079	22.37
590.273	22.43
590.466	22.42
590.66	22.57
590.854	22.61
591.048	22.87
591.242	23.04
591.436	23.09
591.629	23.16
591.823	23.55
592.017	23.6
592.211	23.72
592.404	23.75
592.598	23.81
592.792	23.69
592.986	23.77
593.179	23.65
593.373	23.59
593.567	23.67
593.76	23.52
593.954	23.44
594.147	23.42
594.341	23.35
594.535	23.32
594.728	23.38
594.922	23.39
595.115	23.37
595.309	23.33
595.502	23.21
595.696	22.94
595.889	22.92
596.083	22.82
596.276	22.7
596.47	22.66
596.663	22.49
596.856	22.36
597.05	22.37
597.243	22.33
597.437	22.37
597.63	22.51
597.823	22.68
598.017	22.75
598.21	22.83
598.403	22.96
598.596	22.92
598.79	23.19
598.983	23.36
599.176	23.22
599.369	23.42
599.563	23.37
599.756	23.44
599.949	23.38
600.142	23.44
600.335	23.46
600.528	23.51
600.722	23.63
600.915	23.62
601.108	23.59
601.301	23.8
601.494	23.62
601.687	23.61
601.88	23.48
602.073	23.62
602.266	23.41
602.459	23.29
602.652	23.07
602.845	23.02
603.038	22.91
603.231	22.97
603.424	22.84
603.617	22.88
603.809	22.87
604.002	22.94
604.195	22.82
604.388	22.94
604.581	22.99
604.774	23.11
604.966	23.08
605.159	23.27
605.352	23.24
605.545	23.38
605.737	23.5
605.93	23.55
606.123	23.52
606.316	23.71
606.508	23.79
606.701	23.96
606.894	24.21
607.086	24.45
607.279	24.45
607.471	24.71
607.664	24.86
607.857	25.14
608.049	25.54
608.242	26
608.434	26.41
608.627	27.11
608.819	27.82
609.012	28.62
609.204	29.59
609.397	30.54
609.589	31.57
609.782	32.8
609.974	33.9
610.166	35.12
610.359	36.33
610.551	37.36
610.743	38.25
610.936	39.09
611.128	39.66
611.32	40.07
611.513	40.41
611.705	40.53
611.897	40.35
612.09	40.07
612.282	39.77
612.474	39.2
612.666	38.71
612.858	38.09
613.051	37.39
613.243	36.71
613.435	36.1
613.627	35.42
613.819	34.9
614.011	34.47
614.203	33.83
614.395	33.34
614.588	32.77
614.78	32.29
614.972	31.85
615.164	31.47
615.356	31.15
615.548	30.71
615.74	30.48
615.932	30.15
616.124	29.56
616.315	29.36
616.507	28.74
616.699	28.55
616.891	28.18
617.083	27.88
617.275	27.62
617.467	27.42
617.659	27.39
617.85	27.05
618.042	26.85
618.234	26.85
618.426	26.79
618.618	26.96
618.809	26.88
619.001	26.95
619.193	27.01
619.384	26.77
619.576	26.53
619.768	26.46
619.959	26.62
620.151	26.4
620.343	26.48
620.534	26.34
620.726	26.19
620.917	26.07
621.109	26.28
621.301	26.32
621.492	26.44
621.684	26.49
621.875	26.49
622.067	26.25
622.258	26.49
622.45	26.54
622.641	26.6
622.832	26.86
623.024	27.01
623.215	26.82
623.407	26.73
623.598	26.87
623.789	27.11
623.981	26.98
624.172	27.08
624.363	26.98
624.555	26.85
624.746	26.92
624.937	26.74
625.129	26.65
625.32	26.62
625.511	26.6
625.702	26.5
625.893	26.37
626.085	26.43
626.276	26.4
626.467	26.4
626.658	26.4
626.849	26.41
627.04	26.32
627.231	26.39
627.422	26.42
627.614	26.4
627.805	26.32
627.996	26.46
628.187	26.67
628.378	26.91
628.569	27.12
628.76	27.24
628.951	27.36
629.142	27.7
629.332	28.01
629.523	28.15
629.714	28.39
629.905	28.68
630.096	28.74
630.287	28.58
630.478	28.47
630.669	28.35
630.859	28.38
631.05	28.27
631.241	28.31
631.432	28.07
631.623	27.94
631.813	27.63
632.004	27.33
632.195	27.18
632.385	27.03
632.576	26.84
632.767	26.6
632.957	26.47
633.148	26.29
633.339	25.85
633.529	25.69
633.72	25.63
633.91	25.68
634.101	25.77
634.292	25.52
634.482	25.6
634.673	25.63
634.863	25.62
635.054	25.64
635.244	25.65
635.435	25.86
635.625	25.88
635.815	25.98
636.006	25.96
636.196	25.92
636.387	25.96
636.577	25.81
636.767	25.81
636.958	25.96
637.148	26.02
637.338	25.98
637.529	25.7
637.719	25.85
637.909	25.79
638.099	25.88
638.29	25.97
638.48	25.97
638.67	26.17
638.86	26.24
639.05	26.09
639.241	25.92
639.431	26.12
639.621	26.27
639.811	26.14
640.001	26.17
640.191	26.07
640.381	26.23
640.571	26.54
640.761	26.51
640.951	26.35
641.141	26.88
641.331	27.17
641.521	27.04
641.711	27.18
641.901	27.25
642.091	27.19
642.281	27.07
642.471	26.79
642.661	26.76
642.851	26.85
643.041	27.2
643.231	26.93
643.42	26.72
643.61	26.77
643.8	26.83
643.99	26.81
644.18	27
644.369	27.26
644.559	27.3
644.749	27.2
644.939	27.12
645.128	26.97
645.318	26.79
645.508	26.96
645.697	27.17
645.887	26.92
646.076	26.91
646.266	26.73
646.456	26.67
646.645	27.02
646.835	27.02
647.024	27.08
647.214	27.06
647.403	27.14
647.593	27.05
647.782	26.93
647.972	27.2
648.161	27.12
648.351	27.02
648.54	27.15
648.73	26.84
648.919	27.06
649.108	26.87
649.298	27.21
649.487	27.37
649.677	27.24
649.866	27.17
650.055	27.08
650.244	27.22
650.434	27.28
650.623	27.19
650.812	27.21
651.002	27
651.191	27.31
651.38	26.95
651.569	26.87
651.758	27.02
651.947	27.16
652.137	27.18
652.326	27.15
652.515	27.18
652.704	27.25
652.893	27.34
653.082	27.39
653.271	27.39
653.46	27.25
653.649	27.17
653.838	27.14
654.027	27.13
654.216	26.97
654.405	26.93
654.594	26.94
654.783	26.88
654.972	26.68
655.161	26.67
655.35	26.32
655.539	26.47
655.728	26.43
655.916	26.39
656.105	26.17
656.294	26.48
656.483	26.55
656.672	26.34
656.86	26.28
657.049	26.39
657.238	26.37
657.427	26.51
657.615	26.54
657.804	26.5
657.993	26.18
658.181	26.13
658.37	25.85
658.559	25.68
658.747	25.79
658.936	25.74
659.125	25.94
659.313	26.1
659.502	26.02
659.69	26.02
659.879	26.23
660.067	26.56
660.256	26.71
660.444	26.69
660.633	26.84
660.821	26.93
661.01	27.25
661.198	27.17
661.387	27.11
661.575	27.29
661.763	27.42
661.952	27.63
662.14	27.82
662.328	27.91
662.517	28.18
662.705	28.18
662.893	28.37
663.082	28.19
663.27	28.25
663.458	28.31
663.646	28.42
663.834	28.5
664.023	28.28
664.211	28.19
664.399	28.27
664.587	28.19
664.775	28.45
664.963	28.43
665.152	28.38
665.34	28.26
665.528	28.11
665.716	28.24
665.904	28.45
666.092	28.38
666.28	28.2
666.468	28
666.656	28.31
666.844	28.16
667.032	28.03
667.22	28.4
667.408	28.31
667.596	28.27
667.784	28.01
667.971	27.84
668.159	27.85
668.347	27.78
668.535	27.97
668.723	27.54
668.911	27.51
669.098	27.64
669.286	27.32
669.474	27.7
669.662	27.8
669.849	28.09
670.037	28.01
670.225	28.03
670.413	28.23
670.6	28.21
670.788	28.37
670.976	28.43
671.163	28.45
671.351	28.5
671.538	28.41
671.726	28.32
671.913	28
672.101	28.07
672.289	28.33
672.476	28.28
672.664	28.25
672.851	28.23
673.039	28
673.226	27.92
673.413	27.97
673.601	27.88
673.788	28.04
673.976	28.19
674.163	28.12
674.35	27.99
674.538	28.01
674.725	28.1
674.912	28.29
675.1	28.61
675.287	28.78
675.474	28.91
675.662	28.91
675.849	28.61
676.036	28.6
676.223	28.61
676.411	28.63
676.598	28.71
676.785	28.68
676.972	28.6
677.159	28.42
677.346	28.28
677.533	28.04
677.721	28.17
677.908	28.21
678.095	28.28
678.282	28.17
678.469	27.68
678.656	27.71
678.843	27.76
679.03	27.7
679.217	27.49
679.404	27.72
679.591	27.77
679.778	27.62
679.964	27.75
680.151	27.95
680.338	27.87
680.525	28.05
680.712	28
680.899	28.04
681.086	28.13
681.272	28.24
681.459	28.11
681.646	28.02
681.833	28.02
682.02	27.98
682.206	27.56
682.393	27.67
682.58	27.79
682.766	27.88
682.953	27.94
683.14	28
683.326	28.38
683.513	28.43
683.7	28.77
683.886	28.85
684.073	29.24
684.259	29.44
684.446	29.63
684.632	29.94
684.819	29.83
685.005	29.85
685.192	29.82
685.378	29.96
685.565	30.23
685.751	30.36
685.938	30.31
686.124	30.31
686.31	29.88
686.497	30.09
686.683	29.95
686.87	30.07
687.056	30.16
687.242	29.89
687.429	29.4
687.615	28.92
687.801	28.67
687.987	28.72
688.174	28.66
688.36	28.99
688.546	28.64
688.732	28.78
688.918	28.79
689.105	28.42
689.291	28.47
689.477	28.87
689.663	29.28
689.849	29.26
690.035	29.35
690.221	29.19
690.407	29.37
690.593	29.58
690.779	29.56
690.965	29.47
691.151	29.8
691.337	30.3
691.523	30.12
691.709	30.16
691.895	30.13
692.081	29.94
692.267	30.04
692.453	30.17
692.639	30.12
692.825	30.21
693.011	30.32
693.196	30.34
693.382	29.95
693.568	30.33
693.754	30.26
693.94	30.43
694.125	30.51
694.311	30.31
694.497	30.09
694.682	30.1
694.868	29.8
695.054	29.94
695.239	29.8
695.425	29.94
695.611	29.87
695.796	29.59
695.982	29.33
696.168	29.09
696.353	29.1
696.539	29.14
696.724	28.96
696.91	28.87
697.095	28.47
697.281	28.42
697.466	28.52
697.652	28.08
697.837	28.15
698.023	28.18
698.208	28.17
698.393	28.13
698.579	28
698.764	28.13
698.949	28.09
699.135	28.21
699.32	28.08
699.505	27.93
699.691	28.08
699.876	27.84
700.061	27.78
700.246	27.82
700.432	27.81
700.617	27.84
700.802	27.82
700.987	28.19
701.172	28.07
701.358	28.44
701.543	28.65
701.728	28.81
701.913	29.12
702.098	29.31
702.283	29.47
702.468	29.47
702.653	30.21
702.838	30.47
703.023	30.37
703.208	30.78
703.393	30.88
703.578	31.06
703.763	31.43
703.948	31.84
704.133	32.19
704.318	32.54
704.503	33.17
704.688	33.08
704.873	33.49
705.057	33.88
705.242	33.98
705.427	34.31
705.612	33.96
705.797	34.09
705.981	34.16
706.166	34.26
706.351	34.74
706.536	34.78
706.72	34.73
706.905	34.69
707.09	34.55
707.274	34.87
707.459	34.68
707.644	35.4
707.828	35.51
708.013	35.59
708.197	35.52
708.382	35.45
708.567	35.58
708.751	35.74
708.936	35.47
709.12	35.4
709.305	35.29
709.489	35.35
709.673	35.07
709.858	34.6
710.042	34.53
710.227	34.74
710.411	34.65
710.596	34.09
710.78	33.97
710.964	34.18
711.149	34.18
711.333	34.3
711.517	33.86
711.702	34.12
711.886	34.42
712.07	34.52
712.254	34.07
712.438	33.88
712.623	33.84
712.807	33.33
712.991	33.2
713.175	33.2
713.359	33.11
713.544	33.44
713.728	33.01
713.912	32.88
714.096	32.35
714.28	32.33
714.464	32.24
714.648	32.19
714.832	32.18
715.016	31.73
715.2	31.56
715.384	31.12
715.568	30.38
715.752	30.1
715.936	29.88
716.12	29.95
716.304	29.7
716.488	29.67
716.671	29.85
716.855	29.86
717.039	30.12
717.223	30.04
717.407	30
717.59	30.51
717.774	30.3
717.958	30.18
718.142	30
718.325	30.46
718.509	30.43
718.693	30.09
718.877	29.84
719.06	29.5
719.244	29.55
719.428	29.9
719.611	29.96
719.795	30.19
719.978	29.95
720.162	30.07
720.345	30.09
720.529	29.83
720.713	30.34
720.896	30.87
721.08	30.95
721.263	30.82
721.446	30.64
721.63	30.59
721.813	30.55
721.997	30.33
722.18	30.54
722.364	30.59
722.547	30.4
722.73	29.83
722.914	29.87
723.097	30.32
723.28	30.23
723.464	29.89
723.647	29.7
723.83	29.87
724.013	30.79
724.197	30.76
724.38	30.49
724.563	31.1
724.746	30.97
724.929	30.77
725.112	30.3
725.296	30.62
725.479	30.37
725.662	30.39
725.845	30.83
726.028	30.49
726.211	30.44
726.394	30.56
726.577	30.84
726.76	31.12
726.943	31.36
727.126	31.05
727.309	31.49
727.492	32.02
727.675	32.37
727.858	31.9
728.041	31.91
728.224	31.83
728.407	31.65
728.589	31.57
728.772	31.73
728.955	31.54
729.138	31.48
729.321	30.64
729.503	30.92
729.686	30.74
729.869	31.34
730.052	31.27
730.234	31.47
730.417	31.2
730.6	30.74
730.782	30.56
730.965	30.41
731.148	30.84
731.33	31.13
731.513	30.85
731.695	31.21
731.878	30.43
732.061	30.73
732.243	30.93
732.426	31.23
732.608	31.3
732.791	31.73
732.973	32.04
733.156	31.91
733.338	31.83
733.52	31.83
733.703	31.77
733.885	32.32
734.068	32.25
734.25	32.19
734.432	32.38
734.615	32.6
734.797	32.46
734.979	32.48
735.162	32.6
735.344	32.99
735.526	33.24
735.708	33.04
735.891	32.83
736.073	32.82
736.255	32.38
736.437	32.49
736.619	32.55
736.802	32.91
736.984	32.74
737.166	33.21
737.348	33.19
737.53	32.87
737.712	32.95
737.894	32.89
738.076	32.62
738.258	33
738.44	32.79
738.622	32.58
738.804	31.9
738.986	32.02
739.168	32.01
739.35	31.8
739.532	31.66
739.714	31.34
739.896	32.04
740.078	32.44
740.259	32.53
740.441	32.41
740.623	32.72
740.805	33.03
740.987	33.24
741.168	33.36
741.35	33.58
741.532	34.11
741.714	34.88
741.895	34.82
742.077	35.21
742.259	35.38
742.44	35.7
742.622	35.54
742.804	35.51
742.985	35.35
743.167	35.11
743.348	35.14
743.53	35.11
743.711	34.95
743.893	34.85
744.075	34.56
744.256	34.48
744.438	34.5
744.619	34.61
744.8	35.44
744.982	35.67
745.163	36.22
745.345	36.87
745.526	36.94
745.707	36.67
745.889	36.59
746.07	36.63
746.252	36.72
746.433	36.86
746.614	36.91
746.795	36.79
746.977	36.78
747.158	36.51
747.339	36.17
747.52	36.56
747.702	37.2
747.883	37.35
748.064	37.39
748.245	37.04
748.426	36.65
748.607	36.59
748.788	35.73
748.97	34.99
749.151	34.2
749.332	34.04
749.513	33.99
749.694	33.74
749.875	33.26
750.056	32.73
750.237	33.41
750.418	33.72
750.599	33.4
750.78	33.74
750.96	33.81
751.141	34.03
751.322	33.89
751.503	33.58
751.684	33.18
751.865	33.8
752.046	33.19
752.226	32.89
752.407	32.44
752.588	33.64
752.769	33.38
752.949	34.04
753.13	34.59
753.311	34.44
753.492	34.39
753.672	34.32
753.853	34.15
754.034	35.85
754.214	36.31
754.395	36.61
754.575	35.1
754.756	35.78
754.937	35.52
755.117	35.46
755.298	35.72
755.478	36.51
755.659	36.59
755.839	36.36
756.02	35.67
756.2	35.16
756.381	35.2
756.561	35.83
756.741	35.53
756.922	35.84
757.102	34.77
757.283	35.23
757.463	34.12
757.643	34.16
757.823	33.81
758.004	33.45
758.184	33.47
758.364	32.96
758.545	32.84
758.725	32.54
758.905	32.17
759.085	32.25
759.265	30.86
759.446	30.15
759.626	29.88
759.806	29.67
759.986	29.44
760.166	28.84
760.346	28.64
760.526	28.29
760.706	28.18
760.886	28.18
761.066	28.83
761.246	29.22
761.426	29.45
761.606	29.04
761.786	29.19
761.966	29.35
762.146	29.21
762.326	29.35
762.506	29.62
762.686	29.81
762.866	29.81
763.046	29.5
763.225	29.46
763.405	29.43
763.585	29.71
763.765	29.42
763.945	29.54
764.124	30.06
764.304	30.57
764.484	30.82
764.664	31.03
764.843	31.45
765.023	31.72
765.203	31.97
765.382	32.63
765.562	32.98
765.741	33.35
765.921	33.18
766.101	32.79
766.28	32.42
766.46	32.5
766.639	32.76
766.819	32.4
766.998	32.4
767.178	32.54
767.357	32.57
767.537	32.64
767.716	33.55
767.896	34.29
768.075	35.13
768.254	35.13
768.434	35.19
768.613	34.93
768.792	35.42
768.972	35.67
769.151	36.22
769.33	36.53
769.51	37.43
769.689	36.96
769.868	37.13
770.047	36.31
770.226	36.63
770.406	35.97
770.585	36.49
770.764	36.45
770.943	36.57
771.122	36.25
771.301	36.09
771.48	35.51
771.66	35.16
771.839	35.01
772.018	35.63
772.197	36.02
772.376	37.37
772.555	36.64
772.734	36.88
772.913	36.88
773.092	37.82
773.271	38.07
773.449	37.94
773.628	38.62
773.807	38.78
773.986	38.44
774.165	39.15
774.344	38.39
774.523	38.42
774.701	37.84
774.88	37.79
775.059	36.67
775.238	36.74
775.417	37.01
775.595	37.12
775.774	36.72
775.953	36.83
776.131	35.89
776.31	35.89
776.489	36.17
776.667	36.74
776.846	37.23
777.025	37.8
777.203	37.74
777.382	37.22
777.56	37.41
777.739	37.29
777.917	37.49
778.096	37.81
778.274	37.74
778.453	37.37
778.631	37.35
778.81	36.97
778.988	37.49
779.166	37.02
779.345	37.75
779.523	37.42
779.702	37.61
779.88	37.37
780.058	37.19
780.237	37.4
780.415	37.87
780.593	36.85
780.771	36.32
780.95	35.96
781.128	36.41
781.306	36
781.484	36.28
781.662	36.3
781.841	36.18
782.019	35.6
782.197	35.15
782.375	34.46
782.553	34.51
782.731	35.21
782.909	35.93
783.087	36.23
783.265	36.78
783.443	36.89
783.621	37.34
783.799	37.64
783.977	38.16
784.155	38.11
784.333	39.01
784.511	39.39
784.689	38.98
784.867	37.95
785.045	37.76
785.223	36.99
785.4	35.81
785.578	36.12
785.756	36.25
785.934	36.09
786.112	35.15
786.289	35.64
786.467	35.82
786.645	36.04
786.823	36.2
787	35.78
787.178	35.49
787.356	36.08
787.533	35.16
787.711	35.28
787.889	34.75
788.066	34.92
788.244	33.51
788.421	32.9
788.599	33.1
788.776	32.95
788.954	33.35
789.131	33.67
789.309	33.61
789.486	33.63
789.664	33.67
789.841	34.28
790.019	35.34
790.196	35.92
790.373	36.44
790.551	37.23
790.728	37.06
790.906	36.61
791.083	36.9
791.26	36.98
791.437	36.43
791.615	35.88
791.792	35.05
791.969	35.58
792.146	36.58
792.324	36.6
792.501	35.26
792.678	34.68
792.855	33.91
793.032	34.37
793.209	34.04
793.387	34.56
793.564	35.08
793.741	36.53
793.918	35.15
794.095	35.25
794.272	36
794.449	36.08
794.626	36.53
794.803	37.97
794.98	37.28
795.157	37.07
795.334	37.55
795.511	36.41
795.688	36.43
795.864	37.4
796.041	36.98
796.218	36.4
796.395	36.25
796.572	36.82
796.749	36.11
796.925	36.35
797.102	36.6
797.279	36.64
797.456	36.62
797.632	35.72
797.809	34.62
797.986	34.5
798.162	34.44
798.339	34.52
798.516	34.57
798.692	34.94
798.869	34.74
799.046	34.51
799.222	34.54
799.399	35.67
799.575	36.43
799.752	37.37
799.928	37.99
800.105	37.45
800.281	38.04
800.458	36.76
800.634	36.23
800.811	35.03
800.987	36.81
801.163	35.93
801.34	36.43
801.516	35.23
801.692	34.33
801.869	33.48
802.045	33.33
802.221	32.37
802.398	33.06
802.574	32.92
802.75	34.5
802.926	32.4
803.103	34.38
803.279	34.48
803.455	34.94
803.631	35.64
803.807	36.08
803.983	37.59
804.16	38.09
804.336	38.37
804.512	39.4
804.688	38.92
804.864	39.7
805.04	38.92
805.216	36.75
805.392	38.34
805.568	38.37
805.744	37.16
805.92	35.29
806.096	35.46
806.272	36.59
806.448	35.53
806.623	36.13
806.799	35.68
806.975	35.76
807.151	37.23
807.327	37.05
807.503	36.56
807.678	38.03
807.854	38.8
808.03	39.56
808.206	38.28
808.381	38.56
808.557	37.54
808.733	38.24
808.908	37.81
809.084	37.68
809.26	37.77
809.435	38.52
809.611	38.54
809.787	39.87
809.962	38.93
810.138	38.18
810.313	38.71
810.489	38.84
810.664	37.65
810.84	37.92
811.015	38.24
811.191	37.87
811.366	37.13
811.542	36.51
811.717	36.06
811.892	36.98
812.068	37.86
812.243	36.49
812.419	37.12
812.594	37.36
812.769	36.93
812.944	36.61
813.12	35.88
813.295	36.9
813.47	36.16
813.645	35.26
813.821	34.61
813.996	33.91
814.171	35.47
814.346	34.8
814.521	33.59
814.697	34.02
814.872	33.55
815.047	33.17
815.222	31.69
815.397	30.88
815.572	31.55
815.747	31.01
815.922	31.98
816.097	30.88
816.272	31.18
816.447	33.45
816.622	34.96
816.797	33.98
816.972	34.32
817.147	35.33
817.322	36.98
817.496	36.63
817.671	37.16
817.846	36.38
818.021	35.94
818.196	35.16
818.371	34.8
818.545	32.46
818.72	33.36
818.895	32.55
819.069	31.51
819.244	30.73
819.419	30.66
819.594	30.27
819.768	29.71
819.943	30.74
820.117	30.68
820.292	29.29
820.467	29.31
820.641	28.67
820.816	28.45
820.99	27.75
821.165	27.34
821.339	26.77
821.514	26.39
821.688	26.31
821.863	25.83
822.037	25.45
822.212	25.57
822.386	25.32
822.56	25.01
822.735	24.88
822.909	24.78
823.084	24.8
823.258	24.75
823.432	24.81
823.606	24.85
823.781	24.88
823.955	25.15
824.129	25.1
824.303	25.12
824.478	25.34
824.652	25.52
824.826	25.99
825	25.89
825.174	26.23
825.348	26.62
825.523	26.23
825.697	26.07
825.871	26.18
826.045	26.55
826.219	26.94
826.393	27.12
826.567	27.14
826.741	27.42
826.915	27.59
827.089	27.62
827.263	27.15
827.437	27.1
827.611	27.54
827.784	27.09
827.958	26.71
828.132	26.56
828.306	26.38
828.48	26.14
828.654	25.58
828.827	25.6
829.001	25.49
829.175	25.9
829.349	26.33
829.522	25.93
829.696	26.18
829.87	27.17
830.044	28.03
830.217	28.6
830.391	28.99
830.565	29.89
830.738	30.7
830.912	30.57
831.085	30.38
831.259	31.63
831.432	31.09
831.606	32.24
831.779	30.92
831.953	30.35
832.126	30.23
832.3	30.9
832.473	30.19
832.647	29.46
832.82	29.97
832.994	29.11
833.167	28.34
833.34	28.57
833.514	28.06
833.687	28.15
833.86	27.95
834.034	28
834.207	27.76
834.38	28.26
834.553	27.91
834.727	28.19
834.9	28.46
835.073	28.17
835.246	29.18
835.419	29.05
835.593	29.13
835.766	29.24
835.939	30.01
836.112	30.73
836.285	30.35
836.458	30.35
836.631	28.99
836.804	29.34
836.977	30.1
837.15	29.51
837.323	30
837.496	31.58
837.669	31.66
837.842	31.06
838.015	30.18
838.188	31.5
838.361	32.02
838.533	34.09
838.706	33.79
838.879	34.16
839.052	32.53
839.225	31.29
839.398	30.34
839.57	30.59
839.743	29.54
839.916	29.69
840.088	28.58
840.261	29.41
840.434	27.74
840.607	28.13
840.779	28.2
840.952	28.5
841.124	31.06
841.297	30.19
841.47	27.9
841.642	28.9
841.815	28.45
841.987	30.69
842.16	29.73
842.332	30.44
842.505	31.56
842.677	33.17
842.85	35.05
843.022	33.34
843.194	33.53
843.367	37.02
843.539	37.43
843.712	38.92
843.884	37.76
844.056	39.36
844.229	41.62
844.401	41.92
844.573	39.15
844.745	39.82
844.918	40.69
845.09	40.86
845.262	40.8
845.434	40.77
845.606	42.27
845.779	41.41
845.951	43.94
846.123	42.69
846.295	39.97
846.467	40.25
846.639	40.83
846.811	41.2
846.983	41.18
847.155	42.47
847.327	41.57
847.499	34.64
847.671	37.35
847.843	38.11
848.015	38.99
848.187	40.45
848.359	42.02
848.531	38.64
848.703	38.07
848.875	38.82
849.047	34.58
849.218	35.1
849.39	39.4
849.562	35.09
849.734	32.31
849.905	31.31
850.077	33.4
850.249	33.28
850.421	35.01
850.592	35.96
850.764	34.09
850.936	36.67
851.107	34.77
851.279	34.81
851.451	37.16
851.622	35.85
851.794	35.35
851.965	30.02
852.137	27.08
852.308	30.4
852.48	26.93
852.651	32.23
852.823	33.96
852.994	40.23
853.166	40.99
853.337	39.1
853.509	40.23
853.68	38.32
853.851	43.52
854.023	46.58
854.194	40.96
854.365	41.36
854.537	37.14
854.708	35.1
854.879	29.73
855.05	29.63
855.222	29.57
855.393	27.96
855.564	33.71
855.735	27.77
855.906	25.25
856.078	28.51
856.249	34.24
856.42	33.2
856.591	37.8
856.762	41.3
856.933	38.75
857.104	39.43
857.275	40.25
857.446	38.06
857.617	44.56
857.788	44.24
857.959	44.42
858.13	41.41
858.301	45
858.472	43.17
858.643	41.83
858.814	44.24
858.985	48.06
859.155	44.01
859.326	45.53
859.497	39.48
859.668	39.95
859.839	41.44
860.009	42.27
860.18	39.16
860.351	37.32
860.522	41.79
860.692	40.79
860.863	35.21
861.034	35.03
861.204	33.76
861.375	36.38
861.546	34.35
861.716	28.15
861.887	28.15
862.057	26.64
862.228	28.69
862.398	21.13
862.569	25.3
862.739	29.27
862.91	35.92
863.08	32.33
863.251	36.31
863.421	43.2
863.592	48.67
863.762	51.8
863.932	55.04
864.103	51.27
864.273	49.45
864.443	45.22
864.614	43.45
864.784	42.81
864.954	45.89
865.125	41.08
865.295	37.82
865.465	33.06
865.635	30.77
865.805	27.73
865.976	31.18
866.146	37.35
866.316	36.66
866.486	39.31
866.656	39.01
866.826	39.23
866.996	38.63
867.166	40.22
867.336	45.51
867.506	45.63
867.676	47.12
867.846	43.38
868.016	41.16
868.186	39.22
868.356	37.51
868.526	35.49
868.696	31.75
868.866	32.68
869.036	31.52
869.206	32.21
869.376	33.32
869.545	33.73
869.715	38.81
869.885	39.91
870.055	43.7
870.224	45.15
870.394	43.64
870.564	51
870.734	52.61
870.903	54.77
871.073	52
871.243	50.77
871.412	51.89
871.582	47.53
871.751	44.17
871.921	40.97
872.091	40.02
872.26	41.78
872.43	39.23
872.599	36.22
872.769	33.35
872.938	33.12
873.108	33.21
873.277	30.68
873.446	28.92
873.616	28.54
873.785	29.11
873.955	26.31
874.124	25.37
874.293	22.2
874.463	22
874.632	25.39
874.801	26.83
874.971	24.46
875.14	23.14
875.309	26.35
875.478	23.67
875.647	25.73
875.817	31.42
875.986	35.89
876.155	36.08
876.324	35.16
876.493	31.61
876.662	32.25
876.831	30.66
877	33.03
877.17	30.21
877.339	31.8
877.508	32.56
877.677	30.07
877.846	26.37
878.015	30.13
878.184	30.46
878.352	28.24
878.521	24.81
878.69	26.13
878.859	28.45
879.028	32.9
879.197	32.52
879.366	32.14
879.534	28.29
879.703	27.29
879.872	26.32
880.041	26.06
880.21	28.01
880.378	28.97
880.547	28.25
880.716	25.72
880.884	24.15
881.053	23.31
881.222	22.96
881.39	24.3
881.559	24.97
881.727	24.26
881.896	24.19
882.065	23.13
882.233	23.33
882.402	23.51
882.57	23.22
882.739	23.62
882.907	24.06
883.076	24.07
883.244	23.82
883.412	22.87
883.581	22.43
883.749	22.49
883.918	22.78
884.086	22.08
884.254	22.52
884.423	23.73
884.591	23.06
884.759	23.22
884.927	23.59
885.096	22.98
885.264	23.95
885.432	25.45
885.6	25.64
885.769	26.43
885.937	26.38
886.105	25.51
886.273	25.26
886.441	27.46
886.609	30.21
886.777	29.26
886.945	31.79
887.113	36.04
887.281	35.52
887.449	34.82
887.617	33.84
887.785	33.92
887.953	34.03
888.121	34.53
888.289	32.55
888.457	31.83
888.625	31.76
888.793	31.48
888.961	25.11
889.129	24.56
889.296	25.91
889.464	26.47
889.632	28.25
889.8	30.32
889.967	28.67
890.135	30.88
