Data from 2938843__Reflection_02.txt Node
Date: Wed Mar 11 14:44:20 EDT 2015
User: robert
Spectrometer: USB4E03002
Autoset integration time: false
Trigger mode: 4
Integration Time (sec): 1.000000E-1
Scans to average: 10
Electric dark correction enabled: false
Nonlinearity correction enabled: false
Boxcar width: 5
Stray light correction enabled: false
XAxis mode: Wavelengths
Stop averaging: false
Number of Pixels in Spectrum: 3648
>>>>>Begin Spectral Data<<<<<
177.575	135.89
177.794	204.9
178.014	415.38
178.233	398.73
178.452	1155
178.672	-163.86
178.891	-8.5
179.11	43.89
179.33	48.98
179.549	15.76
179.768	18.6
179.987	20.7
180.207	41.87
180.426	38.21
180.645	37.73
180.864	40.87
181.084	39.16
181.303	46.93
181.522	104.33
181.741	110
181.96	145.63
182.179	149.09
182.398	121.19
182.618	73.95
182.837	62.93
183.056	20.82
183.275	-25.46
183.494	-46.5
183.713	-3.98
183.932	-72.99
184.151	-105.79
184.37	-41.6
184.589	-38.89
184.808	-56.33
185.027	-93.1
185.246	-127.91
185.465	-56.47
185.684	3.27
185.903	-11.29
186.122	-31.66
186.341	11.59
186.56	-41.18
186.779	-32.79
186.998	-49.3
187.216	-17
187.435	-10.98
187.654	19.05
187.873	22.1
188.092	1.21
188.311	12.01
188.53	-6.74
188.748	-33.33
188.967	24.39
189.186	59.62
189.405	42.32
189.623	58.19
189.842	92.86
190.061	-94.31
190.28	-392.55
190.498	798.63
190.717	-1723.08
190.936	-587.8
191.154	9580
191.373	-342.75
191.592	-185.87
191.81	-502.94
192.029	1715.22
192.248	-517.95
192.466	-274.77
192.685	-136.19
192.904	-87.21
193.122	-73.13
193.341	-2.23
193.559	7.03
193.778	-10.23
193.996	-6.18
194.215	-3.53
194.433	23.29
194.652	25.36
194.87	26.23
195.089	17
195.307	29.2
195.526	30.25
195.744	-10.82
195.963	-19.46
196.181	-7.57
196.399	-10.75
196.618	-61.26
196.836	-58.61
197.055	-89.61
197.273	-145.89
197.491	-280.86
197.71	-415.33
197.928	-202.62
198.146	-134.05
198.365	-136.96
198.583	-160.83
198.801	-122.66
199.019	-115.07
199.238	-78.85
199.456	-46.09
199.674	-14.94
199.892	12.05
200.111	10.55
200.329	17.67
200.547	27.71
200.765	39.05
200.983	32.99
201.202	36.09
201.42	60.74
201.638	37.19
201.856	55.27
202.074	54.5
202.292	26.93
202.51	11.1
202.728	-9.79
202.946	-19.12
203.165	-17.7
203.383	-20.68
203.601	-19.88
203.819	-23.24
204.037	-14.98
204.255	-30.18
204.473	-26.55
204.691	-32.45
204.909	-23
205.127	-22.25
205.345	-40.99
205.562	-48.02
205.78	-79.95
205.998	-118.46
206.216	-83.28
206.434	-64.96
206.652	-75.51
206.87	-92.98
207.088	-86.45
207.306	-86.38
207.523	-83.84
207.741	-87.72
207.959	-108.52
208.177	-84.38
208.395	-59.16
208.612	-68.18
208.83	-90.64
209.048	-92.24
209.266	-67.22
209.483	-60.58
209.701	-62.98
209.919	-70.35
210.136	-87.9
210.354	-72.28
210.572	-4.7
210.79	-12.71
211.007	-44.98
211.225	-73.05
211.442	-80.71
211.66	-82.38
211.878	-100.47
212.095	-200.53
212.313	-236.02
212.53	-184.79
212.748	-143.53
212.966	-128.89
213.183	-120.09
213.401	-102.16
213.618	-95.95
213.836	-83.82
214.053	-94.32
214.271	-77.21
214.488	-19.38
214.705	-6.07
214.923	-3.2
215.14	-7.14
215.358	-12.12
215.575	-19.27
215.793	-19.26
216.01	-4.51
216.227	-7.39
216.445	-6.07
216.662	-3.24
216.879	10.18
217.097	11.69
217.314	17.3
217.531	20.14
217.749	22.12
217.966	26.93
218.183	29.52
218.4	24.14
218.618	29.48
218.835	33.91
219.052	28.78
219.269	19.02
219.487	14.48
219.704	6.95
219.921	3.73
220.138	-2.65
220.355	-5.44
220.572	-2.41
220.79	0.49
221.007	-7.36
221.224	-7.02
221.441	-11
221.658	-7.8
221.875	-4.81
222.092	-2.67
222.309	-5.53
222.526	-7.32
222.743	-3.29
222.96	-6.64
223.177	-13.96
223.394	-10.16
223.611	-11.98
223.828	-13.85
224.045	-13.5
224.262	-8
224.479	-9.64
224.696	-7.07
224.913	-3.47
225.13	-3.8
225.347	-1.85
225.564	3.42
225.781	4.64
225.997	5.27
226.214	6.31
226.431	4.62
226.648	2.56
226.865	6.76
227.082	6.15
227.298	6.38
227.515	6.25
227.732	5.3
227.949	4.4
228.165	3.88
228.382	4.47
228.599	4.27
228.816	5.12
229.032	4.27
229.249	2.81
229.466	3.44
229.682	2.98
229.899	2.92
230.116	2.8
230.332	3.52
230.549	3.99
230.765	3.43
230.982	3.34
231.199	3.4
231.415	4.22
231.632	5.38
231.848	4.96
232.065	5.67
232.281	5.33
232.498	4.96
232.714	5.15
232.931	5.1
233.147	5.88
233.364	6.58
233.58	5.83
233.797	6.29
234.013	6.56
234.23	5.05
234.446	5.98
234.662	5.58
234.879	7.34
235.095	6.33
235.312	5.94
235.528	5.75
235.744	6.53
235.961	7.72
236.177	7.45
236.393	6.24
236.61	6.46
236.826	5.2
237.042	5.72
237.258	4.11
237.475	4.3
237.691	5.16
237.907	3.57
238.123	4.08
238.339	3.21
238.556	3.85
238.772	5.63
238.988	7.28
239.204	7.58
239.42	7.76
239.636	7.99
239.853	8.04
240.069	8.08
240.285	8.14
240.501	6.7
240.717	6
240.933	4.92
241.149	5.31
241.365	4.83
241.581	4.6
241.797	4.47
242.013	4.83
242.229	5.02
242.445	4.57
242.661	4.8
242.877	4.52
243.093	4.67
243.309	5.1
243.525	4.26
243.741	4.14
243.957	4.04
244.173	4.14
244.388	4.4
244.604	3.78
244.82	4.29
245.036	4.6
245.252	5.11
245.468	5.35
245.683	5.07
245.899	5.07
246.115	5.13
246.331	5.25
246.547	5.21
246.762	5.09
246.978	5.36
247.194	5.12
247.409	5.03
247.625	5.23
247.841	5.06
248.057	5.27
248.272	5.25
248.488	5.2
248.703	5.22
248.919	5.18
249.135	4.95
249.35	4.97
249.566	5.75
249.782	5.92
249.997	5.99
250.213	6.63
250.428	6.29
250.644	6.4
250.859	6.89
251.075	6.29
251.29	6.44
251.506	6.22
251.721	6.53
251.937	5.32
252.152	5.36
252.368	5.35
252.583	4.95
252.798	5.07
253.014	4.65
253.229	4.97
253.445	5.06
253.66	5.45
253.875	5.69
254.091	5.35
254.306	5.83
254.521	5.32
254.737	5.01
254.952	5.38
255.167	5.21
255.383	5.97
255.598	5.27
255.813	6.7
256.028	6.22
256.244	6.51
256.459	5.56
256.674	5.08
256.889	5.25
257.104	5.69
257.32	5.51
257.535	5.74
257.75	5.47
257.965	4.98
258.18	4.2
258.395	3.9
258.61	3.45
258.826	3.51
259.041	3.63
259.256	3.74
259.471	3.58
259.686	3.65
259.901	3.16
260.116	3.14
260.331	3.32
260.546	3.55
260.761	3.63
260.976	3.86
261.191	4.04
261.406	4.09
261.621	4
261.836	3.83
262.05	3.6
262.265	4.11
262.48	4.37
262.695	4.25
262.91	4.34
263.125	4.52
263.34	4.26
263.555	4
263.769	3.84
263.984	3.46
264.199	3.91
264.414	4.33
264.629	4.84
264.843	4.7
265.058	5.1
265.273	4.32
265.488	4.23
265.702	3.73
265.917	4.02
266.132	3.46
266.346	3.98
266.561	3.58
266.776	2.93
266.99	2.78
267.205	2.7
267.42	2.49
267.634	2.72
267.849	2.64
268.063	2.79
268.278	2.68
268.492	2.62
268.707	2.49
268.922	2.35
269.136	2.75
269.351	2.48
269.565	2.9
269.78	2.93
269.994	2.85
270.209	3.2
270.423	3.41
270.637	3.04
270.852	3.38
271.066	3.51
271.281	3.87
271.495	3.77
271.709	3.96
271.924	3.63
272.138	3.53
272.353	3.7
272.567	3.47
272.781	3.27
272.996	3.7
273.21	4.04
273.424	3.88
273.638	3.65
273.853	4
274.067	3.71
274.281	3.15
274.495	3.43
274.71	3.41
274.924	3.18
275.138	3.28
275.352	3.09
275.566	2.62
275.781	2.69
275.995	2.43
276.209	1.99
276.423	2.2
276.637	2.69
276.851	2.35
277.065	2.15
277.279	2.4
277.493	2.82
277.707	2.74
277.921	2.69
278.135	2.81
278.349	2.54
278.563	2.65
278.777	2.74
278.991	3.06
279.205	3.09
279.419	3.01
279.633	2.77
279.847	2.51
280.061	2.89
280.275	3.4
280.489	3.2
280.703	3.56
280.917	3.38
281.131	3.4
281.344	3.27
281.558	3.48
281.772	3.48
281.986	3.5
282.2	3.47
282.414	3.09
282.627	2.9
282.841	3.03
283.055	3.29
283.269	3.27
283.482	3.06
283.696	3.15
283.91	3.19
284.123	3.32
284.337	3.39
284.551	3.59
284.764	3.44
284.978	3.68
285.192	3.49
285.405	3.41
285.619	3.63
285.833	3.9
286.046	3.88
286.26	3.86
286.473	3.95
286.687	3.99
286.9	3.89
287.114	4.02
287.327	3.71
287.541	3.85
287.754	3.77
287.968	3.62
288.181	3.35
288.395	3.54
288.608	3.35
288.822	3.28
289.035	3.31
289.248	3.34
289.462	3.72
289.675	3.82
289.889	3.77
290.102	3.85
290.315	4.1
290.529	4.16
290.742	3.89
290.955	3.76
291.169	3.97
291.382	3.81
291.595	3.8
291.808	3.62
292.022	3.64
292.235	3.4
292.448	3.17
292.661	3.21
292.875	3.24
293.088	3.74
293.301	3.98
293.514	4.03
293.727	4.19
293.94	4.66
294.153	4.68
294.367	4.58
294.58	5.09
294.793	5.32
295.006	5.31
295.219	5.3
295.432	5.35
295.645	5.67
295.858	5.34
296.071	5.53
296.284	5.19
296.497	5.17
296.71	5.59
296.923	5.26
297.136	5.38
297.349	5.39
297.562	5.55
297.775	5.38
297.988	5.12
298.201	5.09
298.414	5.01
298.626	5.11
298.839	5.22
299.052	4.96
299.265	5.21
299.478	5.09
299.691	5.06
299.903	4.67
300.116	4.63
300.329	5.05
300.542	5.35
300.755	5.22
300.967	5.13
301.18	4.93
301.393	4.89
301.605	4.75
301.818	4.92
302.031	4.92
302.243	5.16
302.456	5.25
302.669	5.08
302.881	5.33
303.094	5.61
303.307	6
303.519	6.06
303.732	6.29
303.944	6.36
304.157	6.28
304.37	6.25
304.582	6.34
304.795	6.29
305.007	6.19
305.22	6.18
305.432	6.33
305.645	6.1
305.857	6.33
306.069	6.26
306.282	6.52
306.494	6.78
306.707	7.11
306.919	7.13
307.132	7.4
307.344	7.52
307.556	7.42
307.769	7.16
307.981	7.49
308.193	7.64
308.406	7.6
308.618	7.72
308.83	7.58
309.043	7.4
309.255	7.39
309.467	7.27
309.679	7.26
309.892	7.37
310.104	7.42
310.316	7.15
310.528	7.33
310.74	7.23
310.953	7.15
311.165	7.23
311.377	7.22
311.589	7.35
311.801	7.34
312.013	7.48
312.225	7.26
312.437	7.32
312.649	7.52
312.862	6.94
313.074	7.11
313.286	7.27
313.498	7.24
313.71	7.33
313.922	7.07
314.134	7.17
314.346	7.24
314.558	7.54
314.77	7.28
314.982	7.27
315.193	7.49
315.405	7.46
315.617	7.27
315.829	7.18
316.041	7.44
316.253	7.66
316.465	7.66
316.677	7.29
316.888	7.25
317.1	7.7
317.312	7.71
317.524	7.92
317.736	7.86
317.947	7.89
318.159	8.33
318.371	8.27
318.583	8.48
318.794	8.58
319.006	8.63
319.218	8.81
319.43	8.58
319.641	8.16
319.853	7.92
320.064	7.96
320.276	8.08
320.488	7.9
320.699	8.15
320.911	8.37
321.123	8.07
321.334	8
321.546	7.88
321.757	7.87
321.969	8.39
322.18	8.81
322.392	8.97
322.603	9.2
322.815	9.05
323.026	8.77
323.238	8.53
323.449	8.94
323.661	9.08
323.872	9.06
324.083	9.33
324.295	8.95
324.506	8.51
324.718	8.55
324.929	8.2
325.14	8.5
325.352	8.45
325.563	8.35
325.774	8.16
325.986	8.35
326.197	8.63
326.408	8.81
326.62	9.33
326.831	9.56
327.042	9.52
327.253	9.85
327.464	10.02
327.676	10.24
327.887	10.61
328.098	10.58
328.309	10.77
328.52	10.72
328.732	10.72
328.943	10.69
329.154	10.64
329.365	10.37
329.576	10.41
329.787	10.16
329.998	9.94
330.209	10.18
330.42	10.74
330.631	10.65
330.842	10.25
331.053	9.99
331.264	10.17
331.475	10.66
331.686	11.36
331.897	11.41
332.108	11.56
332.319	11.58
332.53	11.56
332.741	11.59
332.952	11.84
333.163	12.21
333.374	12.51
333.585	12.46
333.795	12.29
334.006	12.13
334.217	12.43
334.428	12.38
334.639	12.66
334.849	12.37
335.06	12.25
335.271	11.99
335.482	11.73
335.692	11.73
335.903	12.2
336.114	12.24
336.325	12.57
336.535	12.39
336.746	12.5
336.957	12.17
337.167	12.22
337.378	11.71
337.589	11.71
337.799	12.15
338.01	11.82
338.22	11.36
338.431	11.5
338.642	11.37
338.852	11.12
339.063	11.05
339.273	10.92
339.484	10.92
339.694	11.7
339.905	11.37
340.115	11.03
340.326	11.28
340.536	11.29
340.746	11.04
340.957	10.58
341.167	10.48
341.378	10.38
341.588	10.46
341.799	10.38
342.009	10.19
342.219	10.47
342.43	10.71
342.64	10.76
342.85	10.68
343.061	10.69
343.271	11.02
343.481	11.41
343.691	11.47
343.902	11.67
344.112	11.82
344.322	11.69
344.532	11.86
344.743	11.65
344.953	11.62
345.163	11.51
345.373	11.42
345.583	11.57
345.793	11.32
346.004	11.22
346.214	11.18
346.424	11.17
346.634	11.1
346.844	11.06
347.054	11.2
347.264	11.14
347.474	11.12
347.684	11.3
347.894	11.24
348.104	11.37
348.314	11.51
348.524	11.67
348.734	11.49
348.944	11.4
349.154	11.58
349.364	11.52
349.574	11.77
349.784	11.8
349.994	11.81
350.204	11.83
350.413	11.83
350.623	11.71
350.833	11.52
351.043	11.76
351.253	11.89
351.463	11.69
351.672	11.77
351.882	11.51
352.092	11.4
352.302	11.35
352.511	11.36
352.721	11.16
352.931	11.24
353.141	11.14
353.35	10.77
353.56	10.96
353.77	11.07
353.979	11.02
354.189	10.95
354.399	11.09
354.608	11.07
354.818	10.78
355.027	11.04
355.237	11.21
355.447	11.25
355.656	11.36
355.866	11.36
356.075	11.17
356.285	11.07
356.494	11.01
356.704	11.14
356.913	11.16
357.123	11.34
357.332	10.98
357.542	10.83
357.751	11.02
357.96	11.01
358.17	10.85
358.379	10.92
358.589	10.83
358.798	10.94
359.007	10.94
359.217	11
359.426	10.75
359.635	11.02
359.845	10.87
360.054	10.79
360.263	10.75
360.472	10.8
360.682	10.61
360.891	10.7
361.1	10.8
361.309	10.75
361.519	10.65
361.728	10.75
361.937	10.74
362.146	10.88
362.355	10.74
362.564	10.93
362.774	10.65
362.983	10.97
363.192	10.95
363.401	10.88
363.61	10.86
363.819	10.94
364.028	10.98
364.237	10.88
364.446	10.77
364.655	10.84
364.864	10.72
365.073	10.93
365.282	10.74
365.491	10.73
365.7	10.49
365.909	10.31
366.118	10.11
366.327	10.08
366.536	9.88
366.745	9.76
366.954	9.75
367.162	9.77
367.371	9.77
367.58	9.75
367.789	9.59
367.998	9.65
368.207	9.77
368.415	9.79
368.624	9.84
368.833	9.96
369.042	10.08
369.25	10.15
369.459	10.19
369.668	10.22
369.877	10.02
370.085	10.11
370.294	10.17
370.503	10.11
370.711	10.24
370.92	9.91
371.129	9.8
371.337	9.77
371.546	9.61
371.754	9.44
371.963	9.33
372.171	9.51
372.38	9.67
372.589	9.62
372.797	9.56
373.006	9.44
373.214	9.65
373.423	9.63
373.631	9.56
373.84	9.65
374.048	9.78
374.256	9.8
374.465	9.68
374.673	9.51
374.882	9.41
375.09	9.33
375.298	9.19
375.507	9
375.715	9.12
375.923	9.04
376.132	9.02
376.34	8.78
376.548	8.73
376.757	8.56
376.965	8.56
377.173	8.41
377.381	8.39
377.59	8.49
377.798	8.49
378.006	8.22
378.214	8.08
378.423	7.86
378.631	7.9
378.839	7.69
379.047	7.85
379.255	7.67
379.463	7.95
379.671	8.01
379.879	7.76
380.088	7.71
380.296	8.03
380.504	7.95
380.712	8.16
380.92	8
381.128	7.98
381.336	7.79
381.544	7.73
381.752	7.63
381.96	7.58
382.168	7.67
382.376	7.8
382.584	7.49
382.791	7.8
382.999	7.66
383.207	7.73
383.415	7.83
383.623	7.8
383.831	7.52
384.039	7.46
384.247	7.45
384.454	7.62
384.662	7.45
384.87	7.3
385.078	7
385.285	6.99
385.493	6.94
385.701	6.85
385.909	6.94
386.116	7.23
386.324	6.95
386.532	6.75
386.739	6.62
386.947	6.82
387.155	7.1
387.362	7.34
387.57	7.31
387.778	7.33
387.985	7.33
388.193	7.21
388.4	7.28
388.608	7.43
388.816	7.7
389.023	7.73
389.231	7.52
389.438	7.51
389.646	7.32
389.853	7.36
390.061	7.2
390.268	7.08
390.475	7.1
390.683	7.01
390.89	7.18
391.098	6.94
391.305	6.98
391.512	7.05
391.72	6.93
391.927	7.04
392.135	7.04
392.342	6.91
392.549	6.92
392.756	7
392.964	6.95
393.171	6.86
393.378	6.93
393.586	6.8
393.793	6.78
394	6.73
394.207	6.75
394.414	6.69
394.622	6.9
394.829	6.91
395.036	6.87
395.243	7.1
395.45	7.09
395.657	7.1
395.864	7.32
396.072	7.33
396.279	7.39
396.486	7.06
396.693	7.11
396.9	7.1
397.107	7.28
397.314	7.12
397.521	6.9
397.728	6.78
397.935	6.73
398.142	6.54
398.349	6.48
398.556	6.42
398.763	6.6
398.97	6.33
399.177	6.38
399.383	6.26
399.59	6.44
399.797	6.46
400.004	6.53
400.211	6.6
400.418	6.56
400.625	6.49
400.831	6.6
401.038	6.71
401.245	6.98
401.452	6.91
401.658	6.93
401.865	6.97
402.072	6.87
402.279	6.85
402.485	6.77
402.692	6.8
402.899	6.85
403.105	6.9
403.312	6.87
403.519	6.93
403.725	6.95
403.932	6.93
404.138	6.74
404.345	6.81
404.552	6.77
404.758	6.66
404.965	6.57
405.171	6.53
405.378	6.37
405.584	6.45
405.791	6.24
405.997	6.17
406.204	6.28
406.41	6.34
406.617	6.36
406.823	6.42
407.029	6.55
407.236	6.82
407.442	6.8
407.649	6.9
407.855	6.79
408.061	6.9
408.268	7.03
408.474	7.03
408.68	7.07
408.887	7.07
409.093	7.12
409.299	7.11
409.505	6.97
409.712	6.91
409.918	6.85
410.124	6.72
410.33	6.77
410.537	6.66
410.743	6.6
410.949	6.52
411.155	6.56
411.361	6.51
411.567	6.5
411.773	6.51
411.98	6.68
412.186	6.61
412.392	6.82
412.598	6.66
412.804	6.79
413.01	6.61
413.216	6.75
413.422	6.71
413.628	6.61
413.834	6.62
414.04	6.6
414.246	6.65
414.452	6.71
414.658	6.68
414.864	6.74
415.07	6.83
415.275	7.07
415.481	7.12
415.687	7.09
415.893	7.26
416.099	7.21
416.305	7.23
416.511	7.18
416.716	7.31
416.922	7.17
417.128	7.26
417.334	7.12
417.539	7.05
417.745	6.93
417.951	6.85
418.157	6.77
418.362	6.72
418.568	6.66
418.774	6.65
418.979	6.55
419.185	6.64
419.391	6.59
419.596	6.69
419.802	6.68
420.008	6.72
420.213	7.43
420.419	7.43
420.624	7.49
420.83	7.53
421.035	7.56
421.241	7.61
421.446	7.64
421.652	7.66
421.857	7.65
422.063	7.69
422.268	7.71
422.474	7.14
422.679	7.19
422.885	7.21
423.09	7.26
423.295	7.16
423.501	7.13
423.706	7.09
423.911	7.06
424.117	7
424.322	6.92
424.527	6.89
424.733	6.88
424.938	6.79
425.143	6.74
425.349	6.68
425.554	6.81
425.759	6.76
425.964	6.76
426.169	6.77
426.375	6.79
426.58	6.87
426.785	6.83
426.99	6.8
427.195	6.86
427.4	6.9
427.605	6.93
427.811	6.9
428.016	7.04
428.221	7.09
428.426	7.03
428.631	7.04
428.836	6.92
429.041	6.97
429.246	7.04
429.451	7.03
429.656	7.06
429.861	7.11
430.066	7.02
430.271	7.01
430.476	6.97
430.681	7.04
430.886	7.01
431.09	7.08
431.295	7.1
431.5	7.14
431.705	7.12
431.91	7.14
432.115	7.05
432.32	7.03
432.524	6.97
432.729	7.08
432.934	7.05
433.139	7.08
433.343	7.08
433.548	7.04
433.753	6.93
433.958	7.05
434.162	6.99
434.367	7.06
434.572	7.1
434.776	7.12
434.981	7.03
435.186	7.05
435.39	7.06
435.595	7.12
435.799	7.13
436.004	7.13
436.209	7.03
436.413	7.08
436.618	7.16
436.822	7.19
437.027	7.13
437.231	7.08
437.436	7.09
437.64	7.14
437.845	7.09
438.049	7.14
438.253	7.16
438.458	7.18
438.662	7.25
438.867	7.23
439.071	7.21
439.275	7.3
439.48	7.39
439.684	7.37
439.888	7.31
440.093	7.34
440.297	7.32
440.501	7.4
440.706	7.43
440.91	7.36
441.114	7.28
441.318	7.34
441.523	7.32
441.727	7.35
441.931	7.38
442.135	7.41
442.339	7.36
442.543	7.39
442.748	7.37
442.952	7.37
443.156	7.44
443.36	7.5
443.564	7.46
443.768	7.42
443.972	7.42
444.176	7.38
444.38	7.42
444.584	7.45
444.788	7.4
444.992	7.35
445.196	7.29
445.4	7.19
445.604	7.2
445.808	7.16
446.012	7.2
446.216	7.16
446.42	7.25
446.624	7.18
446.828	7.15
447.032	7.19
447.235	7.23
447.439	7.3
447.643	7.34
447.847	7.43
448.051	7.45
448.254	7.5
448.458	7.45
448.662	7.43
448.866	7.45
449.069	7.49
449.273	7.52
449.477	7.47
449.681	7.42
449.884	7.44
450.088	7.25
450.292	7.33
450.495	7.24
450.699	7.2
450.902	7.15
451.106	7.16
451.31	7.1
451.513	7.13
451.717	7.21
451.92	7.16
452.124	7.1
452.327	7.12
452.531	7.07
452.734	7.04
452.938	7.21
453.141	7.21
453.345	7.21
453.548	7.22
453.752	7.23
453.955	7.21
454.158	7.26
454.362	7.35
454.565	7.3
454.769	7.39
454.972	7.4
455.175	7.45
455.379	7.48
455.582	7.54
455.785	7.52
455.988	7.39
456.192	7.39
456.395	7.4
456.598	7.41
456.801	7.48
457.005	7.38
457.208	7.38
457.411	7.22
457.614	7.21
457.817	7.15
458.021	7.28
458.224	7.31
458.427	7.18
458.63	7.22
458.833	7.19
459.036	7.23
459.239	7.35
459.442	7.41
459.645	7.46
459.848	7.39
460.051	7.38
460.254	7.41
460.457	7.41
460.66	7.59
460.863	7.5
461.066	7.54
461.269	7.6
461.472	7.43
461.675	7.37
461.878	7.34
462.081	7.41
462.284	7.47
462.486	7.36
462.689	7.38
462.892	7.29
463.095	7.39
463.298	7.28
463.5	7.12
463.703	7.3
463.906	7.31
464.109	7.38
464.311	7.37
464.514	7.3
464.717	7.29
464.92	7.3
465.122	7.27
465.325	7.23
465.528	7.37
465.73	7.4
465.933	7.3
466.135	7.34
466.338	7.28
466.541	7.37
466.743	7.45
466.946	7.56
467.148	7.59
467.351	7.6
467.553	7.69
467.756	7.68
467.958	7.75
468.161	7.71
468.363	7.77
468.566	7.81
468.768	7.7
468.971	7.65
469.173	7.53
469.375	7.58
469.578	7.56
469.78	7.46
469.983	7.55
470.185	7.53
470.387	7.51
470.59	7.55
470.792	7.52
470.994	7.64
471.196	7.65
471.399	7.8
471.601	7.75
471.803	7.77
472.005	7.72
472.208	7.64
472.41	7.54
472.612	7.6
472.814	7.5
473.016	7.56
473.218	7.56
473.421	7.57
473.623	7.55
473.825	7.5
474.027	7.53
474.229	7.58
474.431	7.59
474.633	7.64
474.835	7.62
475.037	7.74
475.239	7.65
475.441	7.63
475.643	7.58
475.845	7.55
476.047	7.56
476.249	7.57
476.451	7.65
476.653	7.73
476.855	7.72
477.057	7.83
477.258	7.69
477.46	7.65
477.662	7.57
477.864	7.56
478.066	7.52
478.268	7.53
478.469	7.53
478.671	7.46
478.873	7.33
479.075	7.42
479.276	7.4
479.478	7.4
479.68	7.49
479.882	7.54
480.083	7.55
480.285	7.6
480.487	7.63
480.688	7.57
480.89	7.57
481.091	7.62
481.293	7.58
481.495	7.47
481.696	7.56
481.898	7.5
482.099	7.5
482.301	7.52
482.502	7.5
482.704	7.47
482.905	7.5
483.107	7.5
483.308	7.45
483.51	7.43
483.711	7.46
483.913	7.46
484.114	7.46
484.315	7.45
484.517	7.44
484.718	7.43
484.92	7.44
485.121	7.42
485.322	7.44
485.524	7.46
485.725	7.49
485.926	7.47
486.127	7.42
486.329	7.43
486.53	7.45
486.731	7.47
486.932	7.49
487.134	7.48
487.335	7.46
487.536	7.45
487.737	7.47
487.938	7.49
488.139	7.51
488.341	7.55
488.542	7.53
488.743	7.51
488.944	7.55
489.145	7.53
489.346	7.52
489.547	7.53
489.748	7.53
489.949	7.54
490.15	7.54
490.351	7.55
490.552	7.57
490.753	7.61
490.954	7.59
491.155	7.54
491.356	7.56
491.557	7.6
491.758	7.66
491.959	7.63
492.159	7.65
492.36	7.63
492.561	7.62
492.762	7.62
492.963	7.63
493.164	7.67
493.364	7.67
493.565	7.69
493.766	7.7
493.967	7.69
494.167	7.77
494.368	7.8
494.569	7.83
494.769	7.83
494.97	7.77
495.171	7.81
495.371	7.85
495.572	7.92
495.773	7.98
495.973	7.99
496.174	7.95
496.375	7.98
496.575	8
496.776	8.04
496.976	8.07
497.177	8.1
497.377	8.1
497.578	8.08
497.778	8.07
497.979	8.1
498.179	8.16
498.38	8.26
498.58	8.23
498.78	8.22
498.981	8.25
499.181	8.29
499.382	8.36
499.582	8.37
499.782	8.5
499.983	8.56
500.183	8.59
500.383	8.46
500.584	8.36
500.784	8.43
500.984	8.45
501.184	8.44
501.385	8.39
501.585	8.34
501.785	8.34
501.985	8.35
502.185	8.3
502.386	8.3
502.586	8.46
502.786	8.58
502.986	8.63
503.186	8.63
503.386	8.69
503.586	8.81
503.786	8.92
503.987	8.95
504.187	8.97
504.387	9.03
504.587	9.06
504.787	9.12
504.987	9.15
505.187	9.14
505.387	9.16
505.587	9.18
505.786	9.15
505.986	9.18
506.186	9.25
506.386	9.25
506.586	9.28
506.786	9.31
506.986	9.36
507.186	9.44
507.386	9.5
507.585	9.65
507.785	9.72
507.985	9.82
508.185	9.83
508.384	9.85
508.584	9.92
508.784	10
508.984	10.04
509.183	10.07
509.383	10.04
509.583	10.07
509.782	10.07
509.982	10.1
510.182	10.13
510.381	10.26
510.581	10.35
510.781	10.42
510.98	10.49
511.18	10.56
511.379	10.64
511.579	10.74
511.778	10.82
511.978	10.88
512.177	11.02
512.377	11.16
512.576	11.19
512.776	11.27
512.975	11.29
513.175	11.31
513.374	11.39
513.573	11.42
513.773	11.49
513.972	11.6
514.172	11.73
514.371	11.74
514.57	11.83
514.77	11.85
514.969	11.94
515.168	12.09
515.367	12.19
515.567	12.28
515.766	12.38
515.965	12.54
516.164	12.51
516.364	12.5
516.563	12.49
516.762	12.55
516.961	12.72
517.16	12.79
517.359	12.89
517.559	13.01
517.758	13.03
517.957	13.12
518.156	13.12
518.355	13.26
518.554	13.37
518.753	13.51
518.952	13.54
519.151	13.51
519.35	13.6
519.549	13.62
519.748	13.65
519.947	13.81
520.146	13.9
520.345	14
520.544	14.1
520.743	14.14
520.942	14.25
521.141	14.38
521.339	14.53
521.538	14.55
521.737	14.64
521.936	14.77
522.135	14.75
522.333	14.78
522.532	14.88
522.731	14.96
522.93	15.17
523.129	15.2
523.327	15.24
523.526	15.34
523.725	15.45
523.923	15.61
524.122	15.62
524.321	15.78
524.519	15.92
524.718	15.96
524.917	16.04
525.115	16.12
525.314	16.21
525.512	16.35
525.711	16.45
525.909	16.53
526.108	16.62
526.306	16.76
526.505	16.8
526.703	16.88
526.902	17.03
527.1	17.11
527.299	17.13
527.497	17.24
527.696	17.3
527.894	17.35
528.092	17.42
528.291	17.45
528.489	17.51
528.688	17.59
528.886	17.64
529.084	17.7
529.283	17.74
529.481	17.83
529.679	17.86
529.877	17.91
530.076	17.97
530.274	18.08
530.472	18.14
530.67	18.24
530.869	18.34
531.067	18.43
531.265	18.51
531.463	18.64
531.661	18.75
531.859	18.89
532.057	19
532.255	19.08
532.454	19.14
532.652	19.25
532.85	19.3
533.048	19.36
533.246	19.39
533.444	19.43
533.642	19.45
533.84	19.48
534.038	19.49
534.236	19.55
534.434	19.66
534.632	19.69
534.83	19.77
535.027	19.81
535.225	19.86
535.423	19.93
535.621	19.97
535.819	20.02
536.017	20.07
536.215	20.13
536.412	20.16
536.61	20.18
536.808	20.24
537.006	20.22
537.203	20.23
537.401	20.25
537.599	20.31
537.797	20.38
537.994	20.45
538.192	20.55
538.39	20.63
538.587	20.68
538.785	20.69
538.983	20.78
539.18	20.91
539.378	21.02
539.575	21.12
539.773	21.2
539.97	21.28
540.168	21.33
540.366	21.37
540.563	21.39
540.761	21.4
540.958	21.46
541.155	21.52
541.353	21.54
541.55	21.57
541.748	21.64
541.945	21.68
542.143	21.68
542.34	21.74
542.537	21.75
542.735	21.77
542.932	21.89
543.129	21.94
543.327	21.96
543.524	22.05
543.721	22.18
543.919	22.21
544.116	22.31
544.313	22.45
544.51	22.5
544.708	22.58
544.905	22.71
545.102	22.72
545.299	22.78
545.496	22.87
545.693	22.89
545.891	22.84
546.088	22.84
546.285	22.85
546.482	22.84
546.679	22.81
546.876	22.86
547.073	22.86
547.27	22.85
547.467	22.85
547.664	22.77
547.861	22.76
548.058	22.8
548.255	22.86
548.452	22.85
548.649	22.87
548.846	22.94
549.043	22.9
549.24	22.99
549.437	23.01
549.633	23.07
549.83	23.21
550.027	23.23
550.224	23.25
550.421	23.25
550.618	23.24
550.814	23.29
551.011	23.34
551.208	23.32
551.405	23.21
551.601	23.18
551.798	23.21
551.995	23.14
552.191	23.16
552.388	23.17
552.585	23.15
552.781	23.17
552.978	23.2
553.175	23.17
553.371	23.21
553.568	23.24
553.764	23.23
553.961	23.32
554.157	23.36
554.354	23.32
554.55	23.36
554.747	23.35
554.943	23.34
555.14	23.33
555.336	23.31
555.533	23.31
555.729	23.33
555.926	23.39
556.122	23.23
556.318	23.17
556.515	23.24
556.711	23.25
556.907	23.34
557.104	23.39
557.3	23.34
557.496	23.45
557.693	23.46
557.889	23.45
558.085	23.52
558.281	23.57
558.478	23.69
558.674	23.67
558.87	23.64
559.066	23.57
559.262	23.54
559.459	23.43
559.655	23.32
559.851	23.38
560.047	23.54
560.243	23.57
560.439	23.59
560.635	23.52
560.831	23.59
561.027	23.6
561.223	23.65
561.419	23.68
561.615	23.87
561.811	24.02
562.007	24
562.203	23.99
562.399	23.97
562.595	23.96
562.791	23.96
562.987	23.97
563.183	24.03
563.379	24.02
563.575	24.07
563.771	23.94
563.966	23.88
564.162	23.9
564.358	23.82
564.554	23.73
564.75	23.78
564.945	23.8
565.141	23.63
565.337	23.56
565.533	23.63
565.728	23.65
565.924	23.77
566.12	23.85
566.315	23.77
566.511	23.77
566.707	23.92
566.902	23.81
567.098	23.8
567.293	23.91
567.489	24
567.684	24.02
567.88	23.98
568.076	23.95
568.271	23.88
568.467	24.04
568.662	24.07
568.858	23.95
569.053	24.1
569.248	24.21
569.444	24.29
569.639	24.28
569.835	24.24
570.03	24.23
570.225	24.24
570.421	24.12
570.616	24.08
570.812	24.23
571.007	24.29
571.202	24.26
571.397	24.25
571.593	24.22
571.788	24.14
571.983	24.11
572.178	24.25
572.374	24.25
572.569	24.4
572.764	24.39
572.959	24.36
573.154	24.28
573.35	24.29
573.545	24.38
573.74	24.34
573.935	24.4
574.13	24.49
574.325	24.44
574.52	24.52
574.715	24.55
574.91	24.62
575.105	24.61
575.3	24.79
575.495	24.9
575.69	24.82
575.885	24.88
576.08	24.84
576.275	24.82
576.47	24.85
576.665	24.9
576.86	24.92
577.055	24.96
577.25	24.9
577.444	24.9
577.639	24.89
577.834	24.9
578.029	24.86
578.224	24.98
578.418	25.09
578.613	25.01
578.808	24.97
579.003	24.82
579.197	24.87
579.392	24.96
579.587	24.9
579.781	24.87
579.976	24.9
580.171	25.06
580.365	25.12
580.56	25.09
580.755	25.23
580.949	25.26
581.144	25.46
581.338	25.44
581.533	25.43
581.727	25.61
581.922	25.7
582.116	25.72
582.311	25.71
582.505	25.77
582.7	25.78
582.894	25.78
583.089	25.82
583.283	25.85
583.478	25.86
583.672	25.97
583.866	25.92
584.061	25.82
584.255	25.93
584.449	26.12
584.644	26.07
584.838	26.03
585.032	26.06
585.226	26.05
585.421	26.03
585.615	25.98
585.809	25.89
586.003	25.85
586.198	25.9
586.392	25.89
586.586	25.73
586.78	25.69
586.974	25.73
587.168	25.76
587.363	25.78
587.557	25.73
587.751	25.83
587.945	25.67
588.139	25.67
588.333	25.69
588.527	25.71
588.721	25.61
588.915	25.73
589.109	25.81
589.303	25.68
589.497	25.71
589.691	25.6
589.885	25.59
590.079	25.82
590.273	25.9
590.466	25.88
590.66	25.89
590.854	26.06
591.048	26.01
591.242	25.87
591.436	25.92
591.629	25.79
591.823	26.14
592.017	26.09
592.211	26.07
592.404	26.02
592.598	26.03
592.792	25.96
592.986	25.94
593.179	25.93
593.373	26.18
593.567	26.15
593.76	26.36
593.954	26.24
594.147	26.27
594.341	26.25
594.535	26.25
594.728	26.33
594.922	26.4
595.115	26.22
595.309	26.4
595.502	26.38
595.696	26.41
595.889	26.43
596.083	26.46
596.276	26.46
596.47	26.49
596.663	26.55
596.856	26.51
597.05	26.52
597.243	26.57
597.437	26.41
597.63	26.39
597.823	26.4
598.017	26.31
598.21	26.39
598.403	26.47
598.596	26.52
598.79	26.44
598.983	26.41
599.176	26.44
599.369	26.67
599.563	26.85
599.756	26.78
599.949	26.88
600.142	27.04
600.335	26.85
600.528	26.84
600.722	26.81
600.915	26.93
601.108	27.03
601.301	27.02
601.494	26.94
601.687	26.78
601.88	26.77
602.073	26.78
602.266	26.74
602.459	26.83
602.652	26.91
602.845	26.97
603.038	27.02
603.231	27.1
603.424	27.18
603.617	27.21
603.809	27.33
604.002	27.34
604.195	27.26
604.388	27.27
604.581	27.22
604.774	27.25
604.966	27.28
605.159	27.26
605.352	27.19
605.545	27.11
605.737	27.12
605.93	27.11
606.123	27.15
606.316	27.37
606.508	27.37
606.701	27.46
606.894	27.34
607.086	27.41
607.279	27.46
607.471	27.42
607.664	27.53
607.857	27.6
608.049	27.71
608.242	27.9
608.434	27.99
608.627	28.23
608.819	28.55
609.012	28.8
609.204	29.17
609.397	29.41
609.589	29.91
609.782	30.35
609.974	30.79
610.166	31.22
610.359	31.59
610.551	32
610.743	32.35
610.936	32.64
611.128	32.87
611.32	32.92
611.513	33.21
611.705	33.36
611.897	33.19
612.09	33.07
612.282	32.86
612.474	32.66
612.666	32.32
612.858	32.11
613.051	31.91
613.243	31.67
613.435	31.47
613.627	31.22
613.819	30.9
614.011	30.56
614.203	30.47
614.395	30.43
614.588	30.38
614.78	30.34
614.972	30.14
615.164	29.73
615.356	29.54
615.548	29.48
615.74	29.18
615.932	29.06
616.124	29.24
616.315	29.13
616.507	28.89
616.699	28.73
616.891	28.81
617.083	28.65
617.275	28.7
617.467	28.74
617.659	28.67
617.85	28.67
618.042	28.68
618.234	28.58
618.426	28.56
618.618	28.54
618.809	28.65
619.001	28.48
619.193	28.5
619.384	28.58
619.576	28.72
619.768	28.71
619.959	28.67
620.151	28.67
620.343	28.71
620.534	28.85
620.726	28.98
620.917	28.95
621.109	29.05
621.301	29.13
621.492	29.04
621.684	28.96
621.875	29.07
622.067	29.24
622.258	29.17
622.45	29.21
622.641	28.93
622.832	28.8
623.024	28.71
623.215	28.64
623.407	28.68
623.598	28.89
623.789	28.97
623.981	28.77
624.172	28.86
624.363	29.13
624.555	29.2
624.746	29.29
624.937	29.26
625.129	29.3
625.32	29.33
625.511	29.31
625.702	29.19
625.893	29.2
626.085	29.21
626.276	29.16
626.467	28.98
626.658	28.95
626.849	28.94
627.04	29.14
627.231	29.21
627.422	29.13
627.614	29.21
627.805	29.18
627.996	29.24
628.187	29.21
628.378	29.13
628.569	29.18
628.76	29.2
628.951	29.28
629.142	29.22
629.332	29.11
629.523	29.19
629.714	29.15
629.905	29.24
630.096	29.25
630.287	29.44
630.478	29.58
630.669	29.58
630.859	29.65
631.05	29.75
631.241	29.71
631.432	29.75
631.623	29.65
631.813	29.74
632.004	29.75
632.195	29.52
632.385	29.39
632.576	29.25
632.767	29.3
632.957	29.03
633.148	28.87
633.339	28.95
633.529	28.9
633.72	28.98
633.91	28.82
634.101	28.74
634.292	28.95
634.482	28.95
634.673	28.98
634.863	28.79
635.054	28.9
635.244	28.77
635.435	28.75
635.625	28.86
635.815	28.92
636.006	28.92
636.196	29.12
636.387	29.01
636.577	29.03
636.767	28.87
636.958	28.96
637.148	29.03
637.338	29.2
637.529	29
637.719	28.93
637.909	28.8
638.099	28.74
638.29	28.62
638.48	28.75
638.67	28.81
638.86	28.98
639.05	28.95
639.241	28.87
639.431	28.89
639.621	29.03
639.811	29.05
640.001	29.18
640.191	29.22
640.381	29.13
640.571	29.22
640.761	29.28
640.951	29.41
641.141	29.27
641.331	29.32
641.521	29.24
641.711	29.32
641.901	29.38
642.091	29.22
642.281	29.2
642.471	29.16
642.661	28.67
642.851	28.53
643.041	28.41
643.231	28.67
643.42	28.61
643.61	28.85
643.8	28.66
643.99	28.68
644.18	28.82
644.369	28.85
644.559	29.12
644.749	29.46
644.939	29.47
645.128	29.38
645.318	29.32
645.508	29.21
645.697	29.21
645.887	29.39
646.076	29.46
646.266	29.5
646.456	29.64
646.645	29.49
646.835	29.41
647.024	29.56
647.214	29.67
647.403	29.5
647.593	29.72
647.782	29.67
647.972	29.56
648.161	29.44
648.351	29.38
648.54	29.25
648.73	29.28
648.919	29.29
649.108	29.4
649.298	29.44
649.487	29.66
649.677	29.77
649.866	29.76
650.055	29.98
650.244	30.11
650.434	30.08
650.623	30.27
650.812	30.31
651.002	30.41
651.191	30.28
651.38	30.41
651.569	30.43
651.758	30.4
651.947	30.34
652.137	30.29
652.326	30.26
652.515	30.49
652.704	30.41
652.893	30.34
653.082	30.31
653.271	30.25
653.46	30.14
653.649	30.18
653.838	30.23
654.027	30.37
654.216	30.41
654.405	30.47
654.594	30.2
654.783	29.92
654.972	29.96
655.161	29.93
655.35	29.97
655.539	29.98
655.728	30.02
655.916	30.04
656.105	29.94
656.294	29.79
656.483	29.96
656.672	29.98
656.86	30.49
657.049	30.44
657.238	30.42
657.427	30.44
657.615	30.45
657.804	30.4
657.993	30.29
658.181	30.13
658.37	30.1
658.559	29.96
658.747	29.85
658.936	29.52
659.125	29.19
659.313	29.05
659.502	28.93
659.69	28.99
659.879	28.87
660.067	28.95
660.256	29.06
660.444	28.96
660.633	28.66
660.821	28.86
661.01	29.12
661.198	29.5
661.387	29.71
661.575	29.95
661.763	30.02
661.952	30.04
662.14	29.8
662.328	29.84
662.517	30.07
662.705	30.31
662.893	30.26
663.082	30.04
663.27	30.01
663.458	30
663.646	29.94
663.834	29.7
664.023	29.92
664.211	30.13
664.399	30.15
664.587	30.26
664.775	30.21
664.963	30.17
665.152	30.41
665.34	30.41
665.528	30.35
665.716	30.34
665.904	30.58
666.092	30.31
666.28	30.31
666.468	30.38
666.656	30.07
666.844	30.34
667.032	30.43
667.22	30.08
667.408	30.3
667.596	30.35
667.784	30.27
667.971	30.15
668.159	30.57
668.347	30.48
668.535	30.54
668.723	30.77
668.911	30.77
669.098	30.93
669.286	31.21
669.474	30.8
669.662	30.85
669.849	30.66
670.037	30.59
670.225	30.42
670.413	30.21
670.6	30.15
670.788	30.16
670.976	29.86
671.163	29.7
671.351	29.74
671.538	29.92
671.726	29.89
671.913	30.19
672.101	30.37
672.289	30.24
672.476	30.59
672.664	30.72
672.851	30.88
673.039	31.01
673.226	30.92
673.413	30.9
673.601	31
673.788	31.04
673.976	31.14
674.163	30.95
674.35	31.22
674.538	31.06
674.725	30.86
674.912	30.84
675.1	30.84
675.287	31.04
675.474	31.15
675.662	31.22
675.849	31.32
676.036	31.2
676.223	31.31
676.411	31.19
676.598	31.33
676.785	31.22
676.972	30.94
677.159	30.89
677.346	30.8
677.533	30.51
677.721	30.51
677.908	30.43
678.095	30.36
678.282	30.47
678.469	30.23
678.656	30.01
678.843	30.32
679.03	30.17
679.217	30.31
679.404	30.19
679.591	30.27
679.778	30.2
679.964	30.17
680.151	30.18
680.338	30.09
680.525	30.25
680.712	30.44
680.899	30.38
681.086	30.78
681.272	30.77
681.459	31.05
681.646	31.06
681.833	30.97
682.02	31.18
682.206	31.33
682.393	31.32
682.58	31.31
682.766	31.32
682.953	31.23
683.14	31.05
683.326	30.94
683.513	30.56
683.7	30.69
683.886	30.92
684.073	30.73
684.259	30.73
684.446	30.85
684.632	30.88
684.819	30.88
685.005	30.89
685.192	31.05
685.378	30.99
685.565	31.28
685.751	31.17
685.938	30.76
686.124	31.09
686.31	31.19
686.497	31.29
686.683	31.59
686.87	31.55
687.056	31.44
687.242	31.46
687.429	31.67
687.615	31.59
687.801	31.49
687.987	31.93
688.174	31.54
688.36	31.32
688.546	30.98
688.732	30.83
688.918	30.64
689.105	30.62
689.291	30.52
689.477	30.27
689.663	30.34
689.849	30.57
690.035	30.55
690.221	30.67
690.407	30.81
690.593	30.99
690.779	30.89
690.965	30.98
691.151	31.06
691.337	30.98
691.523	31.2
691.709	31.17
691.895	31.02
692.081	30.68
692.267	30.62
692.453	30.68
692.639	30.57
692.825	30.58
693.011	30.93
693.196	30.92
693.382	30.97
693.568	31.17
693.754	30.93
693.94	31.25
694.125	31.87
694.311	31.86
694.497	31.71
694.682	31.58
694.868	31.51
695.054	31.53
695.239	31.51
695.425	31.58
695.611	31.27
695.796	31.53
695.982	31.38
696.168	31
696.353	30.88
696.539	30.87
696.724	30.93
696.91	30.94
697.095	30.73
697.281	30.98
697.466	30.86
697.652	30.89
697.837	30.85
698.023	30.63
698.208	30.7
698.393	30.62
698.579	30.58
698.764	30.54
698.949	30.41
699.135	30.68
699.32	30.43
699.505	30.38
699.691	30.32
699.876	30.26
700.061	30.5
700.246	30.28
700.432	30.46
700.617	30.57
700.802	30.52
700.987	30.36
701.172	29.83
701.358	30.14
701.543	30.22
701.728	30.18
701.913	30.19
702.098	30.13
702.283	30.39
702.468	30.4
702.653	30.33
702.838	30.75
703.023	31.23
703.208	31.32
703.393	31.04
703.578	30.86
703.763	31.04
703.948	31.16
704.133	31.1
704.318	31.49
704.503	31.62
704.688	31.56
704.873	31.99
705.057	31.72
705.242	31.83
705.427	32.22
705.612	32.6
705.797	32.42
705.981	32.49
706.166	32.91
706.351	32.78
706.536	32.8
706.72	32.94
706.905	32.43
707.09	32.9
707.274	33.01
707.459	32.73
707.644	33.02
707.828	33.04
708.013	33.07
708.197	32.89
708.382	32.9
708.567	32.96
708.751	32.64
708.936	32.85
709.12	32.71
709.305	32.73
709.489	32.91
709.673	32.44
709.858	32.63
710.042	32.49
710.227	32.45
710.411	32.15
710.596	31.89
710.78	32.34
710.964	32.41
711.149	32.36
711.333	32.42
711.517	32.05
711.702	31.86
711.886	31.91
712.07	31.91
712.254	31.75
712.438	31.81
712.623	31.82
712.807	31.41
712.991	31.05
713.175	30.91
713.359	30.95
713.544	30.98
713.728	31.13
713.912	30.79
714.096	30.71
714.28	30.63
714.464	30.64
714.648	30.57
714.832	30.57
715.016	30.86
715.2	30.79
715.384	30.88
715.568	30.68
715.752	30.67
715.936	31.07
716.12	31.15
716.304	31.29
716.488	31.1
716.671	31.26
716.855	31.46
717.039	31.47
717.223	31.41
717.407	31.02
717.59	31.01
717.774	30.62
717.958	30.36
718.142	30.37
718.325	30.19
718.509	30.44
718.693	30.17
718.877	30.09
719.06	29.76
719.244	29.94
719.428	30.21
719.611	30.71
719.795	31.42
719.978	31.82
720.162	31.72
720.345	32.14
720.529	32.06
720.713	32.55
720.896	32.45
721.08	32.52
721.263	32.84
721.446	32.72
721.63	32.47
721.813	32.36
721.997	31.99
722.18	31.63
722.364	31.27
722.547	31.29
722.73	30.86
722.914	31
723.097	31.33
723.28	30.59
723.464	30.76
723.647	31.14
723.83	30.92
724.013	30.55
724.197	31.03
724.38	31.08
724.563	30.98
724.746	31.33
724.929	31.05
725.112	30.72
725.296	31.32
725.479	31.07
725.662	30.52
725.845	30.72
726.028	30.74
726.211	30.6
726.394	30.42
726.577	30.12
726.76	29.63
726.943	30.03
727.126	29.8
727.309	29.38
727.492	29.57
727.675	29.9
727.858	29.83
728.041	30.37
728.224	30.15
728.407	30.16
728.589	30.45
728.772	30.67
728.955	30.62
729.138	30.63
729.321	30.69
729.503	30.53
729.686	30.55
729.869	30.37
730.052	30.03
730.234	30.15
730.417	30.28
730.6	30.2
730.782	30.22
730.965	29.92
731.148	29.72
731.33	30.09
731.513	30.14
731.695	30.08
731.878	30.24
732.061	30.45
732.243	30.41
732.426	30.03
732.608	30.17
732.791	30.14
732.973	30.3
733.156	30.94
733.338	30.73
733.52	30.74
733.703	30.88
733.885	31.1
734.068	30.66
734.25	30.6
734.432	31.01
734.615	30.76
734.797	30.95
734.979	31.05
735.162	30.66
735.344	30.87
735.526	30.84
735.708	30.59
735.891	30.34
736.073	30.32
736.255	30.54
736.437	30.54
736.619	31.18
736.802	31.16
736.984	31.12
737.166	31.38
737.348	31.33
737.53	31.05
737.712	31.3
737.894	30.77
738.076	30.95
738.258	31.48
738.44	31.53
738.622	31.32
738.804	31.1
738.986	30.98
739.168	31.17
739.35	31.15
739.532	31.19
739.714	30.76
739.896	31.03
740.078	31.31
740.259	30.64
740.441	30.14
740.623	30.17
740.805	30.47
740.987	30.33
741.168	29.9
741.35	29.61
741.532	29.57
741.714	29.54
741.895	29.95
742.077	29.57
742.259	29.82
742.44	30.43
742.622	30.24
742.804	30.05
742.985	30.69
743.167	30.98
743.348	30.8
743.53	30.84
743.711	31.39
743.893	31.07
744.075	31.83
744.256	32.02
744.438	31.75
744.619	31.83
744.8	31.83
744.982	31.05
745.163	30.62
745.345	31.22
745.526	31.22
745.707	30.78
745.889	30.59
746.07	30.21
746.252	29.84
746.433	29.54
746.614	29.5
746.795	29.19
746.977	28.86
747.158	28.67
747.339	28.14
747.52	28.97
747.702	29.43
747.883	30.41
748.064	30.05
748.245	29.67
748.426	29.81
748.607	29.98
748.788	30.59
748.97	31.02
749.151	31.34
749.332	31.9
749.513	31.03
749.694	30.34
749.875	29.45
750.056	30.32
750.237	30.8
750.418	30.97
750.599	30.33
750.78	30.26
750.96	30.65
751.141	30.8
751.322	30.41
751.503	30.64
751.684	30.7
751.865	30.63
752.046	30.25
752.226	30.35
752.407	30.79
752.588	31.29
752.769	30.85
752.949	30.44
753.13	30.2
753.311	30.07
753.492	29.97
753.672	29.99
753.853	30.49
754.034	30.19
754.214	29.98
754.395	29.46
754.575	30.05
754.756	29.54
754.937	29.59
755.117	29.39
755.298	29.22
755.478	29.56
755.659	29.98
755.839	29.82
756.02	30.02
756.2	30.35
756.381	30.42
756.561	29.88
756.741	30.34
756.922	30.67
757.102	31.11
757.283	31.93
757.463	31.42
757.643	31
757.823	30.68
758.004	30.31
758.184	29.79
758.364	29.85
758.545	30.02
758.725	29.57
758.905	29.35
759.085	28.62
759.265	27.97
759.446	28.33
759.626	28.35
759.806	28.56
759.986	28.74
760.166	28.65
760.346	28.65
760.526	28.21
760.706	28.75
760.886	28.94
761.066	29.82
761.246	30.09
761.426	30.23
761.606	30.54
761.786	30.45
761.966	30.26
762.146	30.47
762.326	30.07
762.506	29.91
762.686	29.63
762.866	29.27
763.046	29.06
763.225	28.8
763.405	28.65
763.585	28.28
763.765	28.41
763.945	28.66
764.124	28.17
764.304	28.36
764.484	28.36
764.664	28.42
764.843	28.73
765.023	28.46
765.203	28.34
765.382	28
765.562	28.49
765.741	28.11
765.921	27.68
766.101	27.88
766.28	27.55
766.46	28.35
766.639	28.46
766.819	28.44
766.998	28.65
767.178	28.73
767.357	28.87
767.537	28.54
767.716	28.41
767.896	28.7
768.075	29.47
768.254	30.25
768.434	29.52
768.613	29.4
768.792	29.1
768.972	29.07
769.151	29.5
769.33	29.62
769.51	30.1
769.689	31.04
769.868	31.39
770.047	30.85
770.226	30.71
770.406	31.07
770.585	31.51
770.764	31.79
770.943	32.41
771.122	32.79
771.301	33.16
771.48	33.07
771.66	32.6
771.839	32.75
772.018	33.04
772.197	32.81
772.376	32.67
772.555	32.57
772.734	32.47
772.913	31.83
773.092	31.72
773.271	32.08
773.449	31.91
773.628	31.23
773.807	30.13
773.986	29.86
774.165	30.09
774.344	29.47
774.523	30.36
774.701	30.5
774.88	29.82
775.059	29.44
775.238	29.26
775.417	29.36
775.595	30.52
775.774	32.46
775.953	32.75
776.131	32.28
776.31	32.7
776.489	31.68
776.667	31.65
776.846	32.61
777.025	32.68
777.203	31.78
777.382	31.32
777.56	30.34
777.739	29.83
777.917	29.85
778.096	29.92
778.274	29.46
778.453	29.75
778.631	29.83
778.81	29.55
778.988	29.38
779.166	29.88
779.345	30.23
779.523	31.1
779.702	29.82
779.88	29.77
780.058	29.8
780.237	30.24
780.415	30.23
780.593	29.72
780.771	29.71
780.95	29.68
781.128	30.07
781.306	30.28
781.484	30.47
781.662	31.4
781.841	31.29
782.019	30.89
782.197	31.05
782.375	31.13
782.553	30.85
782.731	31.23
782.909	30.12
783.087	29.78
783.265	30.21
783.443	29.14
783.621	27.89
783.799	27.82
783.977	28.25
784.155	28.58
784.333	28.37
784.511	29.64
784.689	28.68
784.867	30.22
785.045	29.53
785.223	29.38
785.4	29.74
785.578	30.65
785.756	31.17
785.934	32.08
786.112	31.7
786.289	30.6
786.467	30.13
786.645	30.48
786.823	30.4
787	30.37
787.178	29.3
787.356	29.62
787.533	29.55
787.711	29.43
787.889	28.25
788.066	27.8
788.244	28.59
788.421	29.08
788.599	28.47
788.776	27.96
788.954	28.74
789.131	29.51
789.309	29.51
789.486	29.34
789.664	29.16
789.841	29.65
790.019	30.16
790.196	30.66
790.373	29.83
790.551	30.76
790.728	30.55
790.906	29.41
791.083	28.05
791.26	28.23
791.437	27.94
791.615	27.45
791.792	27.03
791.969	27.24
792.146	26.04
792.324	26.13
792.501	25.72
792.678	26.21
792.855	26.78
793.032	27.24
793.209	27.11
793.387	26.97
793.564	27.26
793.741	27.01
793.918	26.79
794.095	27.43
794.272	28.41
794.449	29.13
794.626	29.79
794.803	30.45
794.98	30.87
795.157	30.22
795.334	30.75
795.511	30.81
795.688	30.83
795.864	29.8
796.041	29.05
796.218	28.69
796.395	28.19
796.572	28.16
796.749	27.91
796.925	27.73
797.102	27.63
797.279	27.14
797.456	27.25
797.632	27.73
797.809	28.59
797.986	28.49
798.162	27.69
798.339	27.8
798.516	26.53
798.692	26.11
798.869	26.32
799.046	26.25
799.222	26.71
799.399	25.57
799.575	25.68
799.752	25.72
799.928	25.87
800.105	26.33
800.281	25.66
800.458	26.37
800.634	25.61
800.811	25.07
800.987	25.88
801.163	25.08
801.34	26.25
801.516	25.26
801.692	26.13
801.869	27.31
802.045	26.2
802.221	27.28
802.398	26.81
802.574	27.59
802.75	28.58
802.926	28.53
803.103	29.51
803.279	29.97
803.455	30.36
803.631	29.15
803.807	29.09
803.983	29.9
804.16	28.85
804.336	28.51
804.512	29.18
804.688	27.1
804.864	26.87
805.04	26.86
805.216	26.43
805.392	27.04
805.568	27.58
805.744	26.97
805.92	27.35
806.096	27.72
806.272	27.29
806.448	27.9
806.623	29.24
806.799	29.27
806.975	28.91
807.151	28.64
807.327	29.54
807.503	29.18
807.678	29.01
807.854	29.23
808.03	29.74
808.206	31.53
808.381	30.52
808.557	30.61
808.733	30.03
808.908	30.66
809.084	29.36
809.26	27.51
809.435	27.27
809.611	27.47
809.787	26.11
809.962	25.83
810.138	25.11
810.313	25.27
810.489	25.63
810.664	24.82
810.84	24.89
811.015	26.2
811.191	26.23
811.366	26.45
811.542	25.56
811.717	25.02
811.892	24.3
812.068	23.75
812.243	23.98
812.419	23.94
812.594	25.99
812.769	24.67
812.944	23.83
813.12	25.12
813.295	24.69
813.47	24.9
813.645	26.37
813.821	27.43
813.996	28.81
814.171	29.27
814.346	28.97
814.521	27.48
814.697	28.03
814.872	28.04
815.047	26.71
815.222	27.24
815.397	28.26
815.572	28.1
815.747	26.88
815.922	25.5
816.097	24.35
816.272	21.79
816.447	22.47
816.622	22.26
816.797	23.49
816.972	25.05
817.147	24.7
817.322	26.24
817.496	26.52
817.671	27
817.846	27.83
818.021	28.33
818.196	30.5
818.371	30.6
818.545	30.18
818.72	30.07
818.895	28.85
819.069	30.22
819.244	29.34
819.419	29.58
819.594	29.5
819.768	28.78
819.943	29
820.117	29.03
820.292	28.75
820.467	29.07
820.641	28.5
820.816	27.96
820.99	26.91
821.165	26.52
821.339	25.96
821.514	25.75
821.688	25.47
821.863	25.29
822.037	25.07
822.212	25.03
822.386	25.17
822.56	25.06
822.735	25.2
822.909	25.39
823.084	25.27
823.258	25.55
823.432	25.76
823.606	25.97
823.781	25.96
823.955	26.18
824.129	26.22
824.303	26.01
824.478	26.25
824.652	26.54
824.826	26.5
825	27.06
825.174	26.72
825.348	26.72
825.523	26.84
825.697	26.62
825.871	26.28
826.045	26.21
826.219	25.98
826.393	26.2
826.567	26.03
826.741	26.04
826.915	26.01
827.089	26.19
827.263	25.99
827.437	26.02
827.611	26.23
827.784	26.5
827.958	26.45
828.132	26.81
828.306	26.27
828.48	26.21
828.654	26.27
828.827	25.73
829.001	25.52
829.175	25.41
829.349	25.32
829.522	25.89
829.696	25.58
829.87	25.79
830.044	25.82
830.217	26.03
830.391	25.93
830.565	25.67
830.738	25.52
830.912	25.52
831.085	26.36
831.259	27.05
831.432	26.29
831.606	26.87
831.779	27.13
831.953	26.99
832.126	27.59
832.3	27.9
832.473	28.08
832.647	27.94
832.82	28.18
832.994	27.39
833.167	27.27
833.34	27.84
833.514	27.8
833.687	27.69
833.86	27.47
834.034	27.36
834.207	27.22
834.38	26.98
834.553	27.51
834.727	27.7
834.9	27.29
835.073	27.51
835.246	26.11
835.419	25.88
835.593	25.75
835.766	26.11
835.939	26.23
836.112	26.14
836.285	25.8
836.458	25.48
836.631	24.97
836.804	25.7
836.977	24.26
837.15	25.79
837.323	26.7
837.496	26.33
837.669	26.36
837.842	25.18
838.015	26.63
838.188	27.44
838.361	28
838.533	28.06
838.706	29.79
838.879	31.01
839.052	30.42
839.225	27.58
839.398	28.82
839.57	28.54
839.743	29.75
839.916	29.1
840.088	31.33
840.261	30.3
840.434	30.3
840.607	30.1
840.779	30.11
840.952	29.81
841.124	30.64
841.297	29.34
841.47	28.62
841.642	27.2
841.815	27.64
841.987	24.18
842.16	23.67
842.332	24.94
842.505	25.02
842.677	24.36
842.85	24.21
843.022	24.48
843.194	24.22
843.367	21.77
843.539	23.39
843.712	22.47
843.884	23.79
844.056	23.71
844.229	22.3
844.401	21.32
844.573	19.82
844.745	22.47
844.918	25.04
845.09	25.04
845.262	28.65
845.434	29.89
845.606	26.98
845.779	26.8
845.951	27.35
846.123	29.15
846.295	27.63
846.467	26.63
846.639	23.02
846.811	22.67
846.983	24.02
847.155	25.85
847.327	24.28
847.499	27.29
847.671	28.21
847.843	27.41
848.015	27.39
848.187	27.69
848.359	30.2
848.531	32.9
848.703	30.38
848.875	33.37
849.047	31.79
849.218	29.8
849.39	29.97
849.562	30.93
849.734	32.44
849.905	31.09
850.077	30.91
850.249	28.31
850.421	27.6
850.592	29.42
850.764	25.4
850.936	21.97
851.107	24.76
851.279	23.61
851.451	20.89
851.622	23.8
851.794	22.23
851.965	21.43
852.137	21.67
852.308	20.58
852.48	19.17
852.651	22.89
852.823	24.98
852.994	20.09
853.166	20.98
853.337	21.69
853.509	18.4
853.68	20.61
853.851	21.06
854.023	20.72
854.194	21.24
854.365	23.95
854.537	19.4
854.708	19.29
854.879	23.52
855.05	23.24
855.222	20.28
855.393	20.86
855.564	20.47
855.735	22.66
855.906	24.54
856.078	24.43
856.249	24.22
856.42	28.15
856.591	28.67
856.762	29
856.933	32.03
857.104	33.4
857.275	35
857.446	34.7
857.617	33.51
857.788	37.02
857.959	37.37
858.13	36.67
858.301	34.41
858.472	36.74
858.643	35.32
858.814	33.24
858.985	36.09
859.155	33.84
859.326	34.48
859.497	35.67
859.668	33.38
859.839	34.98
860.009	35.21
860.18	36.2
860.351	35.28
860.522	36.31
860.692	34.81
860.863	33.14
861.034	33.43
861.204	31.23
861.375	33.03
861.546	33.31
861.716	32.21
861.887	31.31
862.057	28.53
862.228	26.35
862.398	26.35
862.569	26.59
862.739	25.94
862.91	25.35
863.08	25.11
863.251	19.35
863.421	20
863.592	22.63
863.762	22.48
863.932	24.33
864.103	24.82
864.273	23.86
864.443	26.24
864.614	23.05
864.784	24.63
864.954	25.81
865.125	28.6
865.295	23.78
865.465	19.37
865.635	20.24
865.805	18.77
865.976	17.35
866.146	15.64
866.316	14.37
866.486	17.63
866.656	19.37
866.826	19.7
866.996	19.11
867.166	24.36
867.336	27.55
867.506	24
867.676	28.77
867.846	32.48
868.016	31.76
868.186	30
868.356	30.97
868.526	27.76
868.696	27.26
868.866	28.54
869.036	27.65
869.206	26.47
869.376	27.41
869.545	24.04
869.715	24.59
869.885	25.24
870.055	24.84
870.224	22.95
870.394	20.79
870.564	19.68
870.734	19.54
870.903	17.37
871.073	20.57
871.243	24.59
871.412	25.26
871.582	22.74
871.751	24.48
871.921	24.54
872.091	24.99
872.26	24.55
872.43	29.49
872.599	24.14
872.769	23.18
872.938	21.54
873.108	16.06
873.277	15.9
873.446	13.92
873.616	12.07
873.785	14.66
873.955	15.21
874.124	17.89
874.293	14.84
874.463	17.6
874.632	22.19
874.801	21
874.971	25.46
875.14	23.26
875.309	27.26
875.478	27.52
875.647	20.48
875.817	23.35
875.986	22.22
876.155	24.29
876.324	24.82
876.493	23.04
876.662	26.83
876.831	24.5
877	27.56
877.17	28.71
877.339	30.64
877.508	34.17
877.677	33.78
877.846	33.85
878.015	32.14
878.184	33.24
878.352	34.16
878.521	32.24
878.69	29.7
878.859	28.02
879.028	26.73
879.197	25.5
879.366	24.35
879.534	23.18
879.703	22.77
879.872	22.15
880.041	22.33
880.21	22.57
880.378	23.06
880.547	24.77
880.716	24.49
880.884	24.19
881.053	23.93
881.222	22.88
881.39	23.56
881.559	24.23
881.727	24.52
881.896	23.67
882.065	24.3
882.233	23.95
882.402	23.96
882.57	24.08
882.739	24.02
882.907	23.46
883.076	24.48
883.244	23.93
883.412	23.82
883.581	23.93
883.749	24.48
883.918	23.68
884.086	23.06
884.254	22.74
884.423	22.61
884.591	23.37
884.759	24.73
884.927	24.7
885.096	24.68
885.264	24.36
885.432	22.71
885.6	22.69
885.769	23.23
885.937	24.28
886.105	25.08
886.273	24.37
886.441	22.59
886.609	22.22
886.777	22.28
886.945	22.76
887.113	22.36
887.281	24.5
887.449	24.25
887.617	22.1
887.785	23.27
887.953	22.26
888.121	25.61
888.289	26.79
888.457	27.76
888.625	25.55
888.793	24.33
888.961	24.57
889.129	21.39
889.296	21.72
889.464	22.67
889.632	20.99
889.8	20.8
889.967	17.74
890.135	14.72
