Data from 2938834__Reflection_03.txt Node
Date: Thu Mar 12 11:42:11 EDT 2015
User: robert
Spectrometer: USB4E03002
Autoset integration time: false
Trigger mode: 4
Integration Time (sec): 1.000000E-1
Scans to average: 10
Electric dark correction enabled: false
Nonlinearity correction enabled: false
Boxcar width: 5
Stray light correction enabled: false
XAxis mode: Wavelengths
Stop averaging: false
Number of Pixels in Spectrum: 3648
>>>>>Begin Spectral Data<<<<<
177.575	126.28
177.794	144.21
178.014	152.48
178.233	141.85
178.452	125.32
178.672	118.7
178.891	135.34
179.11	127.68
179.33	257.42
179.549	156.04
179.768	132.6
179.987	106.04
180.207	54.94
180.426	8.71
180.645	-27.34
180.864	900
181.084	-125.37
181.303	43.52
181.522	50.17
181.741	-14.37
181.96	-40.89
182.179	-175.88
182.398	-193.17
182.618	-83.92
182.837	-316.25
183.056	-57.31
183.275	-36.15
183.494	-20.92
183.713	-67.84
183.932	-6.32
184.151	23.34
184.37	32.15
184.589	64.02
184.808	74.09
185.027	84.89
185.246	96.6
185.465	118.9
185.684	107.44
185.903	93.18
186.122	84.12
186.341	73.35
186.56	76.69
186.779	84.32
186.998	59.33
187.216	45.76
187.435	36.4
187.654	-0.19
187.873	-76.95
188.092	-22.11
188.311	-27.23
188.53	-14.15
188.748	4.86
188.967	27.95
189.186	-21.44
189.405	-13.08
189.623	13.9
189.842	11.18
190.061	36.36
190.28	30.77
190.498	36.06
190.717	48.28
190.936	33.38
191.154	15.08
191.373	5.15
191.592	21.59
191.81	74.3
192.029	82.4
192.248	188.24
192.466	112.23
192.685	143.54
192.904	74.75
193.122	25.75
193.341	50.88
193.559	61.88
193.778	56.91
193.996	59.63
194.215	24.51
194.433	32.87
194.652	25.09
194.87	31.44
195.089	17.76
195.307	29.1
195.526	40.3
195.744	32.97
195.963	75.92
196.181	109.5
196.399	137.08
196.618	256.52
196.836	-313.64
197.055	274.03
197.273	126.61
197.491	350.62
197.71	240.4
197.928	170.95
198.146	136.84
198.365	63.87
198.583	75.05
198.801	77.42
199.019	81.41
199.238	79.52
199.456	74.45
199.674	59.29
199.892	58.12
200.111	60.78
200.329	65.02
200.547	65.19
200.765	101.03
200.983	79.41
201.202	74.89
201.42	61.55
201.638	58.32
201.856	69.34
202.074	83.13
202.292	72.49
202.51	78.72
202.728	74.79
202.946	42.16
203.165	11.09
203.383	56.25
203.601	64.21
203.819	44.44
204.037	57.44
204.255	50
204.473	52.8
204.691	53.82
204.909	58.08
205.127	48.71
205.345	64.77
205.562	58.16
205.78	40.79
205.998	26
206.216	37.29
206.434	21.17
206.652	30.54
206.87	24.71
207.088	33.13
207.306	46.56
207.523	49.49
207.741	49.68
207.959	73.55
208.177	57.78
208.395	64.81
208.612	83.53
208.83	82.88
209.048	68.84
209.266	80.29
209.483	81.2
209.701	50.07
209.919	64.92
210.136	55.77
210.354	49.69
210.572	51.64
210.79	49.49
211.007	8.37
211.225	24.16
211.442	36.43
211.66	35.84
211.878	14.08
212.095	28.52
212.313	21.16
212.53	29.53
212.748	12.82
212.966	13.41
213.183	18.73
213.401	21.35
213.618	20.97
213.836	17.63
214.053	15.53
214.271	40.31
214.488	34.23
214.705	33.8
214.923	21.61
215.14	47.55
215.358	54.44
215.575	51.92
215.793	37.4
216.01	45.86
216.227	48.23
216.445	32.75
216.662	26.11
216.879	25.58
217.097	33.83
217.314	36.51
217.531	33.63
217.749	18.58
217.966	17.16
218.183	23.73
218.4	13.23
218.618	18.75
218.835	28
219.052	25.59
219.269	24.02
219.487	17.84
219.704	16.12
219.921	-6.93
220.138	3.41
220.355	-1.41
220.572	12.87
220.79	21.3
221.007	5.16
221.224	-2.38
221.441	-0.52
221.658	4.67
221.875	3.5
222.092	3.12
222.309	11.54
222.526	8.86
222.743	6.78
222.96	2.95
223.177	2.34
223.394	9.82
223.611	16.27
223.828	17.36
224.045	9.51
224.262	9.29
224.479	7.67
224.696	2.39
224.913	9.17
225.13	14.62
225.347	14.3
225.564	10.44
225.781	5.85
225.997	6.53
226.214	7.11
226.431	11.21
226.648	12.72
226.865	13.09
227.082	12.16
227.298	9.07
227.515	5.83
227.732	6.5
227.949	7.51
228.165	7.43
228.382	6.23
228.599	5.5
228.816	4.07
229.032	3.55
229.249	4.05
229.466	3.5
229.682	3.88
229.899	4.94
230.116	5.53
230.332	4.74
230.549	5.33
230.765	5.4
230.982	6.52
231.199	7.89
231.415	7.46
231.632	7.8
231.848	9.35
232.065	9.56
232.281	8.47
232.498	7.5
232.714	8.49
232.931	6.72
233.147	6.13
233.364	4.44
233.58	4.06
233.797	3.27
234.013	3.4
234.23	3.76
234.446	4.63
234.662	4.4
234.879	4.92
235.095	5.75
235.312	6.96
235.528	7.97
235.744	6.7
235.961	6.56
236.177	7.19
236.393	6.78
236.61	7.19
236.826	7.65
237.042	6.82
237.258	6.67
237.475	6.09
237.691	5.53
237.907	5.21
238.123	6.31
238.339	7.89
238.556	9.36
238.772	7.9
238.988	8.65
239.204	8.2
239.42	8.75
239.636	7.05
239.853	6.28
240.069	5.23
240.285	4.96
240.501	5.11
240.717	4.95
240.933	4.52
241.149	5.41
241.365	5.1
241.581	4.3
241.797	4.67
242.013	5.12
242.229	5.25
242.445	5.97
242.661	6.23
242.877	6.18
243.093	5.45
243.309	5.53
243.525	5.19
243.741	4.28
243.957	4.35
244.173	4.2
244.388	3.81
244.604	3.49
244.82	2.85
245.036	2.01
245.252	1.69
245.468	2.08
245.683	1.88
245.899	1.67
246.115	2.02
246.331	2.32
246.547	2.49
246.762	2.37
246.978	2.67
247.194	2.91
247.409	2.88
247.625	3.09
247.841	3.22
248.057	3.46
248.272	3.6
248.488	3.7
248.703	3.55
248.919	3.78
249.135	4.43
249.35	4.37
249.566	4.2
249.782	4.67
249.997	5.08
250.213	4.95
250.428	3.84
250.644	4.3
250.859	5.6
251.075	5.93
251.29	6.75
251.506	6.11
251.721	6.04
251.937	6.16
252.152	5.96
252.368	5.74
252.583	5.75
252.798	6.68
253.014	6.43
253.229	5
253.445	5.4
253.66	4.2
253.875	4.47
254.091	4.26
254.306	4.06
254.521	4.48
254.737	4.82
254.952	4.61
255.167	4.4
255.383	5.09
255.598	5.07
255.813	5.14
256.028	3.23
256.244	2.47
256.459	2.29
256.674	1.7
256.889	2.39
257.104	1.98
257.32	2.43
257.535	2.59
257.75	2.01
257.965	2.41
258.18	2.01
258.395	2.76
258.61	3.23
258.826	3.24
259.041	3.45
259.256	2.77
259.471	2.95
259.686	2.6
259.901	2.66
260.116	2.6
260.331	2.69
260.546	2.77
260.761	2.64
260.976	2.42
261.191	2.2
261.406	2.19
261.621	2.66
261.836	2.8
262.05	3.22
262.265	2.7
262.48	2.58
262.695	2.17
262.91	2.1
263.125	2.68
263.34	2.45
263.555	2.4
263.769	1.97
263.984	1.57
264.199	1.16
264.414	1.07
264.629	2.29
264.843	2.32
265.058	2.33
265.273	2.48
265.488	2.27
265.702	2.54
265.917	2.65
266.132	2.84
266.346	3.16
266.561	3.14
266.776	2.64
266.99	2.55
267.205	2.93
267.42	2.99
267.634	2.57
267.849	2.53
268.063	2.6
268.278	3.04
268.492	3.34
268.707	2.72
268.922	2.73
269.136	3.3
269.351	3.4
269.565	2.97
269.78	2.89
269.994	3.08
270.209	3.36
270.423	3.29
270.637	2.71
270.852	2.61
271.066	2.73
271.281	2.55
271.495	2.42
271.709	1.86
271.924	2.04
272.138	2.28
272.353	2.2
272.567	1.92
272.781	1.82
272.996	2.46
273.21	2.74
273.424	2.86
273.638	2.95
273.853	2.88
274.067	3.27
274.281	3.11
274.495	2.73
274.71	3.28
274.924	3.3
275.138	3.39
275.352	2.39
275.566	2.16
275.781	1.97
275.995	1.83
276.209	2.03
276.423	1.8
276.637	1.35
276.851	1.35
277.065	0.82
277.279	0.97
277.493	1.15
277.707	1.85
277.921	1.34
278.135	1.03
278.349	0.9
278.563	1.39
278.777	1.23
278.991	2.27
279.205	2.68
279.419	2.68
279.633	2.14
279.847	1.72
280.061	1.53
280.275	1.59
280.489	1.83
280.703	2.25
280.917	1.79
281.131	2.2
281.344	1.91
281.558	2.09
281.772	2.14
281.986	3.1
282.2	3
282.414	3.41
282.627	3.42
282.841	3.53
283.055	3.26
283.269	3.19
283.482	3.07
283.696	2.73
283.91	2.28
284.123	2.73
284.337	2.22
284.551	2.54
284.764	2.24
284.978	2.33
285.192	2.23
285.405	2.16
285.619	2.38
285.833	2.07
286.046	2.47
286.26	2.71
286.473	2.3
286.687	1.98
286.9	1.77
287.114	1.69
287.327	1.8
287.541	2.05
287.754	2.01
287.968	1.62
288.181	1.99
288.395	1.88
288.608	1.69
288.822	1.87
289.035	2.27
289.248	2.23
289.462	2.33
289.675	2.41
289.889	2.58
290.102	2.84
290.315	2.83
290.529	2.51
290.742	2.17
290.955	2.25
291.169	1.93
291.382	2.13
291.595	2.26
291.808	2.31
292.022	2.42
292.235	2.34
292.448	2.33
292.661	2.62
292.875	2.95
293.088	3.47
293.301	3.69
293.514	3.97
293.727	4.03
293.94	4.07
294.153	3.99
294.367	3.52
294.58	3.45
294.793	3.43
295.006	3.51
295.219	3.3
295.432	3.13
295.645	3.14
295.858	3.35
296.071	3.15
296.284	3.15
296.497	3.37
296.71	3.49
296.923	3.42
297.136	3.52
297.349	3.35
297.562	3.63
297.775	3.67
297.988	3.68
298.201	3.7
298.414	3.87
298.626	3.98
298.839	3.97
299.052	4.23
299.265	4.39
299.478	4.01
299.691	4.24
299.903	4.53
300.116	4.59
300.329	4.44
300.542	4.44
300.755	4.54
300.967	4.63
301.18	4.55
301.393	4.7
301.605	4.66
301.818	5.34
302.031	5.31
302.243	5.37
302.456	5.21
302.669	5.39
302.881	5.43
303.094	5.38
303.307	5.62
303.519	5.41
303.732	5.19
303.944	4.9
304.157	4.36
304.37	4.19
304.582	4.2
304.795	4.4
305.007	4.4
305.22	4.5
305.432	4.45
305.645	4.78
305.857	5.18
306.069	5.35
306.282	5.78
306.494	6.55
306.707	6.97
306.919	6.52
307.132	6.56
307.344	6.77
307.556	6.65
307.769	6.7
307.981	6.39
308.193	6.34
308.406	6.43
308.618	6.54
308.83	6.42
309.043	6.25
309.255	6.47
309.467	6.53
309.679	6.47
309.892	6.5
310.104	6.54
310.316	6.39
310.528	6.54
310.74	6.65
310.953	6.69
311.165	6.47
311.377	6.64
311.589	6.56
311.801	6.82
312.013	6.62
312.225	6.84
312.437	6.85
312.649	7.1
312.862	7.29
313.074	7.04
313.286	7.16
313.498	7.59
313.71	7.74
313.922	7.89
314.134	7.83
314.346	8.29
314.558	8.21
314.77	8.27
314.982	8.42
315.193	8.45
315.405	8.77
315.617	8.57
315.829	8.69
316.041	8.66
316.253	8.71
316.465	8.71
316.677	9.08
316.888	9.26
317.1	9.48
317.312	9.24
317.524	9.02
317.736	8.71
317.947	9.04
318.159	8.91
318.371	8.93
318.583	9.01
318.794	8.81
319.006	8.41
319.218	8.27
319.43	8.39
319.641	8.34
319.853	8.8
320.064	9.4
320.276	9.51
320.488	9.56
320.699	9.55
320.911	10.2
321.123	10.18
321.334	9.74
321.546	9.53
321.757	9.42
321.969	9.55
322.18	9.41
322.392	9.09
322.603	9.15
322.815	9.63
323.026	9.73
323.238	9.4
323.449	10.1
323.661	10.43
323.872	10.68
324.083	10.75
324.295	10.8
324.506	10.92
324.718	10.95
324.929	10.73
325.14	10.53
325.352	10.75
325.563	10.91
325.774	10.91
325.986	11.23
326.197	11.48
326.408	11.51
326.62	11.86
326.831	12.04
327.042	12.38
327.253	12.88
327.464	13.04
327.676	13.32
327.887	13.52
328.098	13.53
328.309	13.39
328.52	13.45
328.732	13.74
328.943	14.23
329.154	14.34
329.365	14.57
329.576	14.45
329.787	14.65
329.998	14.68
330.209	14.67
330.42	15.01
330.631	15.4
330.842	15.42
331.053	15.7
331.264	15.48
331.475	15.32
331.686	15.48
331.897	15.54
332.108	15.56
332.319	15.76
332.53	16.06
332.741	16.49
332.952	16.69
333.163	16.9
333.374	17.28
333.585	17.47
333.795	17.59
334.006	17.5
334.217	17.86
334.428	18.05
334.639	17.95
334.849	17.98
335.06	17.41
335.271	17.33
335.482	17.74
335.692	17.65
335.903	17.54
336.114	17.7
336.325	17.95
336.535	17.77
336.746	17.73
336.957	17.85
337.167	17.88
337.378	18.23
337.589	18.73
337.799	18.2
338.01	18.22
338.22	18.78
338.431	19.16
338.642	19.01
338.852	19.43
339.063	19.31
339.273	19.51
339.484	19.3
339.694	19
339.905	18.81
340.115	19.02
340.326	18.76
340.536	18.65
340.746	18.42
340.957	18.61
341.167	18.38
341.378	18.66
341.588	18.68
341.799	18.92
342.009	19.31
342.219	19.27
342.43	19.22
342.64	19.61
342.85	19.46
343.061	19.42
343.271	19.44
343.481	19.41
343.691	18.99
343.902	18.67
344.112	18.64
344.322	18.43
344.532	18.49
344.743	18.34
344.953	18.16
345.163	18.1
345.373	17.86
345.583	17.68
345.793	17.75
346.004	18.03
346.214	18.07
346.424	17.94
346.634	17.99
346.844	17.93
347.054	18.45
347.264	18.27
347.474	18.25
347.684	18.66
347.894	18.59
348.104	18.49
348.314	18.38
348.524	18.32
348.734	18.42
348.944	18.51
349.154	18.59
349.364	17.84
349.574	18.05
349.784	17.71
349.994	17.26
350.204	17.42
350.413	17.4
350.623	17.65
350.833	17.67
351.043	17.61
351.253	17.18
351.463	16.94
351.672	17.41
351.882	17.36
352.092	17.54
352.302	17.72
352.511	17.86
352.721	17.68
352.931	17.62
353.141	17.46
353.35	17.5
353.56	17.75
353.77	17.77
353.979	17.62
354.189	17.43
354.399	17.47
354.608	17.42
354.818	17.25
355.027	17.21
355.237	17.07
355.447	17.32
355.656	17.47
355.866	17.43
356.075	17.48
356.285	17.53
356.494	17.48
356.704	17.56
356.913	17.6
357.123	17.58
357.332	17.69
357.542	17.78
357.751	17.75
357.96	17.54
358.17	17.45
358.379	17.34
358.589	17.11
358.798	17.19
359.007	16.97
359.217	16.97
359.426	16.92
359.635	16.79
359.845	16.66
360.054	16.58
360.263	16.59
360.472	16.72
360.682	16.81
360.891	17.01
361.1	17.01
361.309	17.13
361.519	16.93
361.728	16.91
361.937	17.03
362.146	16.98
362.355	16.99
362.564	17
362.774	17.02
362.983	16.89
363.192	16.74
363.401	16.65
363.61	16.58
363.819	16.75
364.028	16.8
364.237	16.58
364.446	16.47
364.655	16.13
364.864	15.97
365.073	15.64
365.282	15.51
365.491	15.66
365.7	15.61
365.909	15.59
366.118	15.73
366.327	15.57
366.536	15.73
366.745	15.88
366.954	16.21
367.162	16.28
367.371	16.6
367.58	16.81
367.789	16.79
367.998	16.78
368.207	16.78
368.415	16.43
368.624	16.24
368.833	16.23
369.042	16.21
369.25	16.01
369.459	15.97
369.668	15.62
369.877	15.43
370.085	15.52
370.294	15.64
370.503	15.53
370.711	15.59
370.92	15.77
371.129	15.84
371.337	15.71
371.546	15.8
371.754	15.68
371.963	15.77
372.171	15.77
372.38	15.55
372.589	15.36
372.797	15.31
373.006	15.49
373.214	15.53
373.423	15.42
373.631	15.38
373.84	15.59
374.048	15.6
374.256	15.76
374.465	15.82
374.673	16
374.882	16.16
375.09	16.04
375.298	15.87
375.507	15.72
375.715	15.61
375.923	15.77
376.132	15.51
376.34	15.53
376.548	15.46
376.757	15.5
376.965	15.37
377.173	15.15
377.381	15.14
377.59	15.15
377.798	15.19
378.006	15.01
378.214	15.06
378.423	14.97
378.631	15.02
378.839	14.87
379.047	14.74
379.255	14.68
379.463	14.71
379.671	14.76
379.879	14.55
380.088	14.66
380.296	14.75
380.504	14.58
380.712	14.6
380.92	14.39
381.128	14.63
381.336	14.36
381.544	14.29
381.752	14.19
381.96	14.31
382.168	14.55
382.376	14.33
382.584	14.29
382.791	14.4
382.999	14.27
383.207	14.45
383.415	14.22
383.623	14.49
383.831	14.42
384.039	14.49
384.247	14.46
384.454	14.3
384.662	14.4
384.87	14.5
385.078	14.48
385.285	14.58
385.493	14.45
385.701	14.45
385.909	14.31
386.116	14.49
386.324	14.39
386.532	14.31
386.739	14.26
386.947	14.09
387.155	14.1
387.362	13.96
387.57	14.09
387.778	14.2
387.985	14.2
388.193	14.11
388.4	14.14
388.608	14.35
388.816	14.33
389.023	14.33
389.231	14.45
389.438	14.4
389.646	14.37
389.853	14.04
390.061	14.03
390.268	14.05
390.475	14.18
390.683	14.06
390.89	13.92
391.098	13.74
391.305	13.68
391.512	13.59
391.72	13.55
391.927	13.5
392.135	13.72
392.342	13.56
392.549	13.42
392.756	13.37
392.964	13.23
393.171	13.24
393.378	13.42
393.586	13.45
393.793	13.58
394	13.5
394.207	13.64
394.414	13.59
394.622	13.7
394.829	13.78
395.036	13.85
395.243	13.78
395.45	13.9
395.657	13.81
395.864	13.79
396.072	13.72
396.279	13.86
396.486	13.77
396.693	13.83
396.9	13.75
397.107	13.84
397.314	13.93
397.521	14.24
397.728	14.16
397.935	14.14
398.142	14.16
398.349	14.06
398.556	13.94
398.763	13.92
398.97	13.81
399.177	13.64
399.383	13.42
399.59	13.1
399.797	12.88
400.004	12.78
400.211	12.78
400.418	12.79
400.625	12.62
400.831	12.61
401.038	12.78
401.245	12.84
401.452	13.07
401.658	13.17
401.865	13.22
402.072	13.27
402.279	13.32
402.485	13.34
402.692	13.36
402.899	13.52
403.105	13.42
403.312	13.35
403.519	13.34
403.725	13.25
403.932	13.28
404.138	13.28
404.345	13.21
404.552	13.11
404.758	13.14
404.965	13.06
405.171	12.94
405.378	13.11
405.584	13.08
405.791	13.2
405.997	13.21
406.204	13.21
406.41	13.3
406.617	13.22
406.823	13.24
407.029	13.39
407.236	13.33
407.442	13.39
407.649	13.29
407.855	13.15
408.061	13
408.268	12.96
408.474	13.01
408.68	13.06
408.887	13.14
409.093	13.15
409.299	12.92
409.505	13.02
409.712	13.17
409.918	13.21
410.124	13.22
410.33	13.3
410.537	13.26
410.743	13.1
410.949	12.99
411.155	12.96
411.361	12.91
411.567	12.98
411.773	13.01
411.98	12.87
412.186	12.62
412.392	12.68
412.598	12.63
412.804	12.65
413.01	12.71
413.216	12.81
413.422	12.93
413.628	13.19
413.834	13.17
414.04	13.2
414.246	13.17
414.452	13.37
414.658	13.26
414.864	13.12
415.07	13.18
415.275	13.28
415.481	13.2
415.687	13.19
415.893	12.95
416.099	12.88
416.305	12.78
416.511	12.8
416.716	12.7
416.922	12.74
417.128	12.79
417.334	12.74
417.539	12.7
417.745	12.7
417.951	12.45
418.157	12.54
418.362	12.66
418.568	12.72
418.774	12.77
418.979	12.76
419.185	12.8
419.391	12.82
419.596	12.77
419.802	12.71
420.008	12.67
420.213	13.46
420.419	13.39
420.624	13.23
420.83	13.16
421.035	13.12
421.241	13.15
421.446	13.17
421.652	13.04
421.857	13.16
422.063	13.08
422.268	13.1
422.474	12.53
422.679	12.54
422.885	12.63
423.09	12.66
423.295	12.69
423.501	12.59
423.706	12.5
423.911	12.55
424.117	12.45
424.322	12.57
424.527	12.58
424.733	12.52
424.938	12.55
425.143	12.58
425.349	12.53
425.554	12.44
425.759	12.53
425.964	12.55
426.169	12.62
426.375	12.62
426.58	12.63
426.785	12.66
426.99	12.71
427.195	12.77
427.4	12.75
427.605	12.8
427.811	12.84
428.016	12.84
428.221	13.02
428.426	13.04
428.631	13.11
428.836	13.07
429.041	13.16
429.246	13.14
429.451	13
429.656	13.04
429.861	13.05
430.066	13.13
430.271	13.14
430.476	13
430.681	12.92
430.886	12.9
431.09	12.97
431.295	12.9
431.5	12.98
431.705	13.05
431.91	12.93
432.115	12.9
432.32	12.88
432.524	12.91
432.729	12.84
432.934	12.86
433.139	12.88
433.343	12.92
433.548	12.97
433.753	12.96
433.958	12.98
434.162	12.99
434.367	13.05
434.572	13.12
434.776	13.16
434.981	13.29
435.186	13.4
435.39	13.49
435.595	13.36
435.799	13.36
436.004	13.41
436.209	13.43
436.413	13.47
436.618	13.44
436.822	13.32
437.027	13.29
437.231	13.34
437.436	13.32
437.64	13.3
437.845	13.3
438.049	13.25
438.253	13.16
438.458	13.08
438.662	13.11
438.867	13.13
439.071	13.22
439.275	13.15
439.48	12.96
439.684	12.98
439.888	12.92
440.093	13
440.297	13.11
440.501	13.16
440.706	13.13
440.91	13.08
441.114	13.11
441.318	13.06
441.523	13.17
441.727	13.33
441.931	13.31
442.135	13.41
442.339	13.3
442.543	13.22
442.748	13.2
442.952	13.23
443.156	13.36
443.36	13.31
443.564	13.32
443.768	13.25
443.972	13.2
444.176	13.13
444.38	13.05
444.584	13.08
444.788	13.1
444.992	13.22
445.196	13.28
445.4	13.19
445.604	13.27
445.808	13.3
446.012	13.36
446.216	13.37
446.42	13.47
446.624	13.47
446.828	13.49
447.032	13.47
447.235	13.29
447.439	13.28
447.643	13.36
447.847	13.36
448.051	13.35
448.254	13.34
448.458	13.35
448.662	13.26
448.866	13.26
449.069	13.36
449.273	13.35
449.477	13.53
449.681	13.5
449.884	13.41
450.088	13.42
450.292	13.42
450.495	13.4
450.699	13.32
450.902	13.32
451.106	13.28
451.31	13.23
451.513	13.26
451.717	13.15
451.92	13.25
452.124	13.39
452.327	13.3
452.531	13.33
452.734	13.35
452.938	13.57
453.141	13.56
453.345	13.59
453.548	13.6
453.752	13.6
453.955	13.55
454.158	13.57
454.362	13.53
454.565	13.49
454.769	13.47
454.972	13.33
455.175	13.18
455.379	13.18
455.582	13.11
455.785	13.05
455.988	13.01
456.192	13.11
456.395	12.96
456.598	13.01
456.801	13.01
457.005	13.06
457.208	13.07
457.411	13.02
457.614	13.02
457.817	13.09
458.021	13.2
458.224	13.16
458.427	13.13
458.63	13.18
458.833	13.06
459.036	13.05
459.239	13
459.442	13.11
459.645	13.14
459.848	13.15
460.051	13.16
460.254	13.11
460.457	13.17
460.66	13.22
460.863	13.22
461.066	13.2
461.269	13.2
461.472	13.2
461.675	13.16
461.878	13.14
462.081	13.18
462.284	13.19
462.486	13.17
462.689	13.16
462.892	13.15
463.095	13.22
463.298	13.26
463.5	13.38
463.703	13.51
463.906	13.51
464.109	13.54
464.311	13.49
464.514	13.54
464.717	13.46
464.92	13.42
465.122	13.38
465.325	13.36
465.528	13.36
465.73	13.29
465.933	13.3
466.135	13.27
466.338	13.42
466.541	13.44
466.743	13.39
466.946	13.46
467.148	13.52
467.351	13.52
467.553	13.5
467.756	13.52
467.958	13.56
468.161	13.5
468.363	13.55
468.566	13.4
468.768	13.56
468.971	13.53
469.173	13.67
469.375	13.64
469.578	13.78
469.78	13.72
469.983	13.82
470.185	13.91
470.387	13.89
470.59	13.85
470.792	13.96
470.994	13.86
471.196	13.92
471.399	13.75
471.601	13.71
471.803	13.66
472.005	13.69
472.208	13.63
472.41	13.51
472.612	13.46
472.814	13.42
473.016	13.28
473.218	13.28
473.421	13.21
473.623	13.27
473.825	13.36
474.027	13.26
474.229	13.21
474.431	13.26
474.633	13.34
474.835	13.38
475.037	13.37
475.239	13.42
475.441	13.44
475.643	13.46
475.845	13.41
476.047	13.4
476.249	13.34
476.451	13.39
476.653	13.39
476.855	13.41
477.057	13.39
477.258	13.51
477.46	13.51
477.662	13.57
477.864	13.61
478.066	13.69
478.268	13.68
478.469	13.77
478.671	13.81
478.873	13.8
479.075	13.72
479.276	13.75
479.478	13.73
479.68	13.7
479.882	13.58
480.083	13.52
480.285	13.41
480.487	13.42
480.688	13.46
480.89	13.45
481.091	13.44
481.293	13.47
481.495	13.44
481.696	13.37
481.898	13.35
482.099	13.3
482.301	13.24
482.502	13.27
482.704	13.24
482.905	13.19
483.107	13.15
483.308	13.11
483.51	13.1
483.711	13.1
483.913	13.06
484.114	13.09
484.315	13.1
484.517	13.15
484.718	13.13
484.92	13.11
485.121	13.13
485.322	13.12
485.524	13.14
485.725	13.16
485.926	13.15
486.127	13.22
486.329	13.19
486.53	13.16
486.731	13.13
486.932	13.13
487.134	13.09
487.335	13.08
487.536	13.1
487.737	13.12
487.938	13.09
488.139	13.09
488.341	13.11
488.542	13.08
488.743	13.07
488.944	13.08
489.145	13.09
489.346	13.1
489.547	13.11
489.748	13.08
489.949	13.09
490.15	13.11
490.351	13.12
490.552	13.07
490.753	13.09
490.954	13.11
491.155	13.12
491.356	13.1
491.557	13.17
491.758	13.21
491.959	13.19
492.159	13.2
492.36	13.2
492.561	13.22
492.762	13.25
492.963	13.28
493.164	13.32
493.364	13.34
493.565	13.42
493.766	13.43
493.967	13.36
494.167	13.45
494.368	13.44
494.569	13.43
494.769	13.39
494.97	13.36
495.171	13.41
495.371	13.39
495.572	13.47
495.773	13.48
495.973	13.49
496.174	13.59
496.375	13.6
496.575	13.66
496.776	13.63
496.976	13.64
497.177	13.67
497.377	13.61
497.578	13.61
497.778	13.6
497.979	13.57
498.179	13.55
498.38	13.49
498.58	13.5
498.78	13.44
498.981	13.53
499.181	13.6
499.382	13.7
499.582	13.74
499.782	13.84
499.983	13.83
500.183	13.86
500.383	13.89
500.584	13.94
500.784	13.98
500.984	14.04
501.184	13.98
501.385	13.98
501.585	13.87
501.785	13.9
501.985	13.87
502.185	13.89
502.386	13.88
502.586	13.95
502.786	13.97
502.986	14.03
503.186	14.08
503.386	14.18
503.586	14.2
503.786	14.27
503.987	14.37
504.187	14.36
504.387	14.37
504.587	14.42
504.787	14.28
504.987	14.25
505.187	14.26
505.387	14.27
505.587	14.25
505.786	14.3
505.986	14.33
506.186	14.25
506.386	14.29
506.586	14.31
506.786	14.38
506.986	14.49
507.186	14.57
507.386	14.54
507.585	14.51
507.785	14.55
507.985	14.46
508.185	14.47
508.384	14.55
508.584	14.63
508.784	14.65
508.984	14.69
509.183	14.66
509.383	14.69
509.583	14.68
509.782	14.76
509.982	14.77
510.182	14.91
510.381	14.92
510.581	14.84
510.781	14.84
510.98	14.89
511.18	14.87
511.379	14.97
511.579	15.01
511.778	15.12
511.978	15.02
512.177	15.05
512.377	15.06
512.576	15.14
512.776	15.2
512.975	15.26
513.175	15.26
513.374	15.36
513.573	15.3
513.773	15.32
513.972	15.34
514.172	15.49
514.371	15.58
514.57	15.6
514.77	15.63
514.969	15.7
515.168	15.69
515.367	15.79
515.567	15.74
515.766	15.89
515.965	15.84
516.164	15.85
516.364	15.85
516.563	15.8
516.762	15.84
516.961	15.93
517.16	15.95
517.359	15.95
517.559	15.88
517.758	15.92
517.957	15.91
518.156	15.91
518.355	15.91
518.554	15.95
518.753	15.98
518.952	15.98
519.151	15.97
519.35	16.04
519.549	16.07
519.748	16.06
519.947	16.12
520.146	16.18
520.345	16.25
520.544	16.31
520.743	16.28
520.942	16.33
521.141	16.4
521.339	16.38
521.538	16.37
521.737	16.4
521.936	16.58
522.135	16.58
522.333	16.61
522.532	16.68
522.731	16.74
522.93	16.8
523.129	16.83
523.327	16.83
523.526	16.86
523.725	16.9
523.923	16.89
524.122	16.88
524.321	16.94
524.519	17.01
524.718	17.02
524.917	17.02
525.115	17.03
525.314	17.1
525.512	17.15
525.711	17.24
525.909	17.29
526.108	17.31
526.306	17.38
526.505	17.41
526.703	17.38
526.902	17.45
527.1	17.42
527.299	17.48
527.497	17.48
527.696	17.5
527.894	17.52
528.092	17.56
528.291	17.61
528.489	17.58
528.688	17.61
528.886	17.66
529.084	17.67
529.283	17.74
529.481	17.78
529.679	17.87
529.877	17.89
530.076	17.88
530.274	17.88
530.472	17.94
530.67	17.99
530.869	17.99
531.067	17.97
531.265	18
531.463	18.02
531.661	18.03
531.859	17.97
532.057	17.96
532.255	18.02
532.454	18.04
532.652	18.04
532.85	18.1
533.048	18.2
533.246	18.25
533.444	18.29
533.642	18.34
533.84	18.41
534.038	18.51
534.236	18.6
534.434	18.65
534.632	18.7
534.83	18.79
535.027	18.83
535.225	18.88
535.423	18.91
535.621	18.97
535.819	19.01
536.017	19.02
536.215	18.98
536.412	19.06
536.61	19.06
536.808	19.12
537.006	19.14
537.203	19.12
537.401	19.07
537.599	19.1
537.797	19.11
537.994	19.11
538.192	19.07
538.39	19.12
538.587	19.1
538.785	19.22
538.983	19.24
539.18	19.21
539.378	19.28
539.575	19.3
539.773	19.39
539.97	19.41
540.168	19.47
540.366	19.49
540.563	19.47
540.761	19.43
540.958	19.35
541.155	19.36
541.353	19.41
541.55	19.45
541.748	19.44
541.945	19.47
542.143	19.46
542.34	19.42
542.537	19.48
542.735	19.54
542.932	19.59
543.129	19.67
543.327	19.65
543.524	19.66
543.721	19.68
543.919	19.8
544.116	19.78
544.313	19.8
544.51	19.9
544.708	19.94
544.905	19.96
545.102	20.02
545.299	20.02
545.496	20.15
545.693	20.17
545.891	20.12
546.088	20.04
546.285	20.05
546.482	20.05
546.679	20.03
546.876	20.04
547.073	20.09
547.27	20.11
547.467	20.18
547.664	20.09
547.861	20.13
548.058	20.19
548.255	20.32
548.452	20.43
548.649	20.49
548.846	20.57
549.043	20.44
549.24	20.34
549.437	20.31
549.633	20.27
549.83	20.42
550.027	20.37
550.224	20.44
550.421	20.35
550.618	20.25
550.814	20.29
551.011	20.18
551.208	20.31
551.405	20.41
551.601	20.45
551.798	20.46
551.995	20.34
552.191	20.37
552.388	20.23
552.585	20.24
552.781	20.22
552.978	20.24
553.175	20.31
553.371	20.34
553.568	20.39
553.764	20.44
553.961	20.48
554.157	20.56
554.354	20.61
554.55	20.75
554.747	20.78
554.943	20.84
555.14	20.75
555.336	20.87
555.533	20.87
555.729	20.69
555.926	20.71
556.122	20.76
556.318	20.8
556.515	20.82
556.711	20.78
556.907	20.8
557.104	20.7
557.3	20.81
557.496	20.77
557.693	20.8
557.889	20.89
558.085	21
558.281	20.96
558.478	20.95
558.674	20.94
558.87	21.07
559.066	21.19
559.262	21.32
559.459	21.29
559.655	21.21
559.851	21.24
560.047	21.35
560.243	21.19
560.439	21.19
560.635	21.12
560.831	21.18
561.027	21.13
561.223	21.17
561.419	21.22
561.615	21.16
561.811	21.3
562.007	21.39
562.203	21.32
562.399	21.41
562.595	21.44
562.791	21.35
562.987	21.27
563.183	21.2
563.379	21.05
563.575	20.94
563.771	21.05
563.966	21.08
564.162	21.01
564.358	20.97
564.554	20.93
564.75	20.87
564.945	21.08
565.141	21.14
565.337	21.19
565.533	21.17
565.728	21.24
565.924	21.25
566.12	21.22
566.315	21.19
566.511	21.24
566.707	21.21
566.902	21.29
567.098	21.23
567.293	21.21
567.489	21.28
567.684	21.23
567.88	21.23
568.076	21.18
568.271	21.12
568.467	21.12
568.662	21.17
568.858	21.18
569.053	21.12
569.248	21.08
569.444	21.13
569.639	21.1
569.835	21.26
570.03	21.24
570.225	21.31
570.421	21.38
570.616	21.32
570.812	21.2
571.007	21.33
571.202	21.45
571.397	21.44
571.593	21.4
571.788	21.42
571.983	21.44
572.178	21.51
572.374	21.48
572.569	21.59
572.764	21.68
572.959	21.83
573.154	21.8
573.35	21.7
573.545	21.73
573.74	21.72
573.935	21.7
574.13	21.69
574.325	21.7
574.52	21.74
574.715	21.64
574.91	21.66
575.105	21.75
575.3	21.72
575.495	21.85
575.69	21.93
575.885	21.92
576.08	22.03
576.275	21.98
576.47	22.06
576.665	22.16
576.86	22.22
577.055	22.32
577.25	22.22
577.444	22.29
577.639	22.31
577.834	22.29
578.029	22.54
578.224	22.47
578.418	22.59
578.613	22.43
578.808	22.42
579.003	22.34
579.197	22.35
579.392	22.3
579.587	22.25
579.781	22.19
579.976	22.29
580.171	22.21
580.365	22.4
580.56	22.31
580.755	22.52
580.949	22.49
581.144	22.54
581.338	22.44
581.533	22.48
581.727	22.6
581.922	22.71
582.116	22.74
582.311	22.68
582.505	22.61
582.7	22.83
582.894	22.78
583.089	22.78
583.283	22.89
583.478	23.12
583.672	23.13
583.866	23.2
584.061	23.15
584.255	23.18
584.449	23.18
584.644	23.12
584.838	23.13
585.032	23.16
585.226	23.21
585.421	23.16
585.615	23.08
585.809	23.1
586.003	22.96
586.198	22.91
586.392	22.91
586.586	23.03
586.78	22.99
586.974	22.88
587.168	22.87
587.363	23.01
587.557	22.96
587.751	23.03
587.945	23.07
588.139	23.19
588.333	23.38
588.527	23.31
588.721	23.41
588.915	23.61
589.109	23.64
589.303	23.58
589.497	23.34
589.691	23.31
589.885	23.15
590.079	23.21
590.273	23.08
590.466	23.11
590.66	23.2
590.854	23.18
591.048	23.15
591.242	23.18
591.436	23.24
591.629	23.38
591.823	23.63
592.017	23.78
592.211	23.73
592.404	23.97
592.598	23.89
592.792	23.89
592.986	23.96
593.179	23.81
593.373	23.75
593.567	23.79
593.76	23.82
593.954	23.77
594.147	23.65
594.341	23.76
594.535	23.61
594.728	23.62
594.922	23.64
595.115	23.59
595.309	23.69
595.502	23.78
595.696	23.87
595.889	23.92
596.083	23.91
596.276	24.04
596.47	23.94
596.663	23.94
596.856	23.98
597.05	24.09
597.243	24.22
597.437	24.14
597.63	24.25
597.823	24.26
598.017	24.28
598.21	24.36
598.403	24.4
598.596	24.46
598.79	24.51
598.983	24.55
599.176	24.63
599.369	24.51
599.563	24.75
599.756	24.76
599.949	24.8
600.142	24.88
600.335	24.83
600.528	24.94
600.722	25.15
600.915	25.23
601.108	25.28
601.301	25.2
601.494	25.27
601.687	25.28
601.88	25.35
602.073	25.39
602.266	25.31
602.459	25.32
602.652	25.24
602.845	25.1
603.038	25.18
603.231	25.09
603.424	25.01
603.617	24.89
603.809	24.9
604.002	24.81
604.195	24.71
604.388	24.74
604.581	24.74
604.774	24.72
604.966	24.69
605.159	24.73
605.352	24.83
605.545	24.82
605.737	24.92
605.93	24.89
606.123	25.01
606.316	25.1
606.508	25.13
606.701	25.29
606.894	25.37
607.086	25.64
607.279	25.76
607.471	25.71
607.664	25.93
607.857	26.14
608.049	26.2
608.242	26.2
608.434	26.5
608.627	26.61
608.819	26.74
609.012	27.02
609.204	27.2
609.397	27.55
609.589	27.88
609.782	28.14
609.974	28.5
610.166	28.93
610.359	29.26
610.551	29.54
610.743	29.88
610.936	30.16
611.128	30.49
611.32	30.6
611.513	30.59
611.705	30.71
611.897	30.66
612.09	30.55
612.282	30.23
612.474	30.08
612.666	29.81
612.858	29.69
613.051	29.41
613.243	29.07
613.435	28.97
613.627	28.81
613.819	28.56
614.011	28.57
614.203	28.45
614.395	28.59
614.588	28.56
614.78	28.52
614.972	28.6
615.164	28.63
615.356	28.58
615.548	28.58
615.74	28.52
615.932	28.45
616.124	28.41
616.315	28.23
616.507	28.11
616.699	28.07
616.891	28.09
617.083	27.86
617.275	27.77
617.467	27.81
617.659	27.75
617.85	27.61
618.042	27.59
618.234	27.6
618.426	27.61
618.618	27.74
618.809	27.75
619.001	27.73
619.193	27.81
619.384	28.04
619.576	28.03
619.768	27.95
619.959	27.99
620.151	28.05
620.343	27.94
620.534	28.15
620.726	28.16
620.917	28.26
621.109	28.18
621.301	28.15
621.492	28.01
621.684	28.06
621.875	28.22
622.067	28.39
622.258	28.47
622.45	28.54
622.641	28.4
622.832	28.37
623.024	28.36
623.215	28.48
623.407	28.37
623.598	28.29
623.789	28.36
623.981	28.11
624.172	28.03
624.363	27.91
624.555	27.75
624.746	27.76
624.937	27.7
625.129	27.61
625.32	27.53
625.511	27.59
625.702	27.51
625.893	27.37
626.085	27.36
626.276	27.37
626.467	27.35
626.658	27.56
626.849	27.41
627.04	27.33
627.231	27.47
627.422	27.61
627.614	27.64
627.805	27.86
627.996	28
628.187	28.11
628.378	28.22
628.569	28.43
628.76	28.47
628.951	28.67
629.142	28.74
629.332	28.52
629.523	28.4
629.714	28.35
629.905	28.22
630.096	28.1
630.287	28.23
630.478	28.15
630.669	28.12
630.859	28.1
631.05	28.03
631.241	28.21
631.432	28.28
631.623	28.22
631.813	28.35
632.004	28.51
632.195	28.39
632.385	28.39
632.576	28.35
632.767	28.19
632.957	27.95
633.148	27.86
633.339	27.87
633.529	28.04
633.72	28.04
633.91	27.91
634.101	27.78
634.292	27.77
634.482	27.77
634.673	27.77
634.863	27.92
635.054	28.05
635.244	28.12
635.435	28.06
635.625	28.07
635.815	28.17
636.006	27.95
636.196	28.07
636.387	28.27
636.577	28.33
636.767	28.34
636.958	28.24
637.148	28.34
637.338	28.45
637.529	28.31
637.719	28.29
637.909	28.43
638.099	28.78
638.29	28.82
638.48	28.7
638.67	28.61
638.86	28.71
639.05	28.93
639.241	28.86
639.431	28.77
639.621	28.83
639.811	28.84
640.001	28.78
640.191	28.83
640.381	28.65
640.571	28.64
640.761	28.6
640.951	28.58
641.141	28.39
641.331	28.45
641.521	28.66
641.711	28.62
641.901	28.51
642.091	28.64
642.281	28.42
642.471	28.63
642.661	28.65
642.851	28.74
643.041	28.57
643.231	28.46
643.42	28.51
643.61	28.5
643.8	28.53
643.99	28.66
644.18	28.45
644.369	28.69
644.559	28.53
644.749	28.57
644.939	28.58
645.128	28.76
645.318	28.96
645.508	28.72
645.697	28.66
645.887	28.87
646.076	28.82
646.266	28.92
646.456	28.72
646.645	28.95
646.835	29.05
647.024	29.12
647.214	29.1
647.403	29.01
647.593	29.22
647.782	29.18
647.972	29.03
648.161	29.08
648.351	28.98
648.54	29.29
648.73	29.13
648.919	29.06
649.108	28.98
649.298	29
649.487	29.04
649.677	28.97
649.866	28.94
650.055	29.11
650.244	29.07
650.434	29.04
650.623	29.16
650.812	29.24
651.002	29.35
651.191	29.4
651.38	29.25
651.569	29.84
651.758	30.1
651.947	30.25
652.137	30.25
652.326	30.28
652.515	30.35
652.704	30.01
652.893	29.88
653.082	29.98
653.271	30.02
653.46	30.28
653.649	29.62
653.838	29.34
654.027	29.46
654.216	29.6
654.405	29.36
654.594	29.8
654.783	30.11
654.972	30.25
655.161	30.13
655.35	30.11
655.539	30.06
655.728	30.36
655.916	30.45
656.105	30.25
656.294	30.23
656.483	30.18
656.672	29.95
656.86	29.83
657.049	29.59
657.238	29.57
657.427	29.56
657.615	29.49
657.804	29.38
657.993	29.22
658.181	29.21
658.37	28.99
658.559	29.15
658.747	29.02
658.936	28.96
659.125	29.07
659.313	28.98
659.502	28.94
659.69	29.03
659.879	29.06
660.067	29.16
660.256	29.32
660.444	29.59
660.633	29.77
660.821	29.97
661.01	30.08
661.198	30.19
661.387	30.46
661.575	30.55
661.763	30.51
661.952	30.66
662.14	30.97
662.328	30.83
662.517	30.54
662.705	30.62
662.893	30.43
663.082	30.41
663.27	30.52
663.458	30.46
663.646	30.63
663.834	30.83
664.023	30.6
664.211	30.53
664.399	30.68
664.587	30.67
664.775	30.48
664.963	30.65
665.152	30.65
665.34	30.68
665.528	30.73
665.716	30.46
665.904	30.38
666.092	30.61
666.28	30.77
666.468	30.82
666.656	30.91
666.844	31.12
667.032	31.09
667.22	31.16
667.408	31.16
667.596	31.17
667.784	31.32
667.971	31.49
668.159	31.4
668.347	31.12
668.535	30.99
668.723	31.17
668.911	31.09
669.098	30.99
669.286	30.78
669.474	30.77
669.662	30.7
669.849	30.84
670.037	30.52
670.225	30.69
670.413	30.93
670.6	30.91
670.788	31.03
670.976	30.83
671.163	30.92
671.351	31.24
671.538	31.32
671.726	31.43
671.913	31.27
672.101	31.28
672.289	31.14
672.476	30.98
672.664	31.07
672.851	30.99
673.039	31.28
673.226	31.19
673.413	31.1
673.601	31.21
673.788	31.11
673.976	31.08
674.163	31.34
674.35	31.61
674.538	31.75
674.725	31.85
674.912	31.87
675.1	31.92
675.287	32.08
675.474	31.99
675.662	32.06
675.849	31.87
676.036	32.09
676.223	32.24
676.411	32.1
676.598	31.97
676.785	32.22
676.972	32.2
677.159	32.14
677.346	32.25
677.533	32.19
677.721	32.18
677.908	32.62
678.095	32.45
678.282	32.37
678.469	32.48
678.656	32.51
678.843	32.15
679.03	32.05
679.217	31.99
679.404	31.79
679.591	31.71
679.778	31.6
679.964	31.49
680.151	31.59
680.338	31.54
680.525	31.47
680.712	31.7
680.899	31.82
681.086	32.09
681.272	32.08
681.459	32.08
681.646	32.27
681.833	32.09
682.02	32.15
682.206	32.2
682.393	32.31
682.58	32.19
682.766	32.07
682.953	32.34
683.14	31.95
683.326	32.2
683.513	32.45
683.7	32.66
683.886	32.85
684.073	32.75
684.259	32.62
684.446	32.71
684.632	32.86
684.819	32.7
685.005	32.32
685.192	32.47
685.378	32.44
685.565	32.34
685.751	32.11
685.938	32.21
686.124	32.33
686.31	32.49
686.497	32.18
686.683	32
686.87	31.92
687.056	31.9
687.242	32.08
687.429	31.83
687.615	31.8
687.801	31.77
687.987	32.02
688.174	32.06
688.36	32.08
688.546	32.24
688.732	32.43
688.918	32.65
689.105	32.86
689.291	32.78
689.477	32.92
689.663	33.06
689.849	33.62
690.035	33.1
690.221	32.98
690.407	33.18
690.593	33.18
690.779	33.17
690.965	32.9
691.151	32.72
691.337	33
691.523	33
691.709	32.65
691.895	32.48
692.081	32.66
692.267	32.52
692.453	32.16
692.639	32.26
692.825	32.39
693.011	32.62
693.196	32.57
693.382	32.22
693.568	32.54
693.754	32.9
693.94	33.01
694.125	32.91
694.311	33.52
694.497	33.71
694.682	33.69
694.868	33.88
695.054	34.05
695.239	34.44
695.425	34.06
695.611	33.92
695.796	33.74
695.982	33.43
696.168	33.64
696.353	33.32
696.539	33.06
696.724	32.98
696.91	32.82
697.095	32.65
697.281	32.47
697.466	32.93
697.652	32.81
697.837	33.02
698.023	33.09
698.208	32.94
698.393	32.93
698.579	33.02
698.764	32.95
698.949	32.74
699.135	32.7
699.32	32.51
699.505	32.61
699.691	32.65
699.876	32.45
700.061	32.33
700.246	32.22
700.432	32.29
700.617	32.34
700.802	32.44
700.987	32.73
701.172	33.03
701.358	33.43
701.543	33.44
701.728	33.31
701.913	33.17
702.098	33.22
702.283	33.55
702.468	33.63
702.653	33.65
702.838	33.58
703.023	33.28
703.208	33.48
703.393	33.47
703.578	33.27
703.763	33.66
703.948	34.21
704.133	34.64
704.318	34.86
704.503	34.76
704.688	34.92
704.873	35.23
705.057	35.58
705.242	35.53
705.427	35.84
705.612	36.13
705.797	36.39
705.981	36.69
706.166	36.52
706.351	36.45
706.536	36.63
706.72	36.97
706.905	36.99
707.09	36.89
707.274	36.99
707.459	37.14
707.644	37.01
707.828	37.14
708.013	37.07
708.197	37.15
708.382	37.32
708.567	37.37
708.751	36.97
708.936	37.13
709.12	37.7
709.305	37.7
709.489	37.5
709.673	37.8
709.858	37.6
710.042	37.56
710.227	37.59
710.411	37.18
710.596	37.22
710.78	37.46
710.964	37.73
711.149	37.33
711.333	37.71
711.517	37.46
711.702	37.15
711.886	37.19
712.07	37.03
712.254	37.15
712.438	37.41
712.623	37.41
712.807	37.24
712.991	36.7
713.175	36.6
713.359	35.94
713.544	35.93
713.728	35.89
713.912	35.65
714.096	35.29
714.28	35.21
714.464	35.04
714.648	34.93
714.832	34.83
715.016	34.45
715.2	34.5
715.384	34.27
715.568	34.39
715.752	34.27
715.936	34.41
716.12	34.49
716.304	34.5
716.488	34.45
716.671	34.35
716.855	34.88
717.039	35.16
717.223	34.9
717.407	35.17
717.59	35.31
717.774	35.73
717.958	35.34
718.142	35.44
718.325	35.2
718.509	35.5
718.693	35.69
718.877	35.28
719.06	34.98
719.244	35.13
719.428	35.44
719.611	34.98
719.795	34.81
719.978	34.96
720.162	35.25
720.345	35.25
720.529	35.16
720.713	35.2
720.896	35.04
721.08	35.78
721.263	36.29
721.446	36.21
721.63	36.47
721.813	36.06
721.997	36.23
722.18	36.16
722.364	36.26
722.547	36.05
722.73	35.66
722.914	35.58
723.097	35.22
723.28	34.74
723.464	34.44
723.647	34.18
723.83	34.41
724.013	34.58
724.197	34.54
724.38	34.51
724.563	34.68
724.746	34.75
724.929	34.68
725.112	34.86
725.296	35.02
725.479	35.42
725.662	35.37
725.845	35.58
726.028	35.27
726.211	35.15
726.394	35.09
726.577	34.89
726.76	34.88
726.943	34.94
727.126	34.75
727.309	34.74
727.492	34.59
727.675	35.16
727.858	35.05
728.041	34.67
728.224	34.56
728.407	34.56
728.589	34.74
728.772	34.58
728.955	34.87
729.138	35.05
729.321	34.82
729.503	34.81
729.686	34.52
729.869	34.46
730.052	34.82
730.234	35.13
730.417	34.99
730.6	35.23
730.782	35.46
730.965	35.27
731.148	34.97
731.33	35.19
731.513	34.67
731.695	34.91
731.878	34.68
732.061	34.45
732.243	34.03
732.426	34.37
732.608	34.29
732.791	34.8
732.973	34.96
733.156	35.43
733.338	35.69
733.52	36.28
733.703	36.07
733.885	36.14
734.068	36.49
734.25	37.07
734.432	37.01
734.615	37.14
734.797	36.77
734.979	37.12
735.162	37.38
735.344	37.46
735.526	37.18
735.708	37.46
735.891	38.16
736.073	38.26
736.255	38.32
736.437	38.41
736.619	38
736.802	38.15
736.984	37.57
737.166	37.71
737.348	36.92
737.53	37.38
737.712	37.23
737.894	36.49
738.076	36.59
738.258	36.81
738.44	36.9
738.622	37.1
738.804	36.99
738.986	37.41
739.168	37.14
739.35	37.61
739.532	37.39
739.714	37.5
739.896	37.96
740.078	37.61
740.259	37.16
740.441	36.78
740.623	36.53
740.805	37
740.987	36.98
741.168	37.16
741.35	37.03
741.532	37.24
741.714	37.37
741.895	37.97
742.077	38.06
742.259	38.01
742.44	38.5
742.622	38.59
742.804	37.77
742.985	38.02
743.167	37.48
743.348	38.42
743.53	38.37
743.711	38.42
743.893	37.6
744.075	38.07
744.256	38.13
744.438	38.04
744.619	38.64
744.8	39.56
744.982	39.05
745.163	39.28
745.345	38.89
745.526	39.42
745.707	40.02
745.889	40.66
746.07	40.23
746.252	40.98
746.433	40.63
746.614	40.53
746.795	40.59
746.977	40.36
747.158	40.74
747.339	40.32
747.52	40.2
747.702	39.92
747.883	39.54
748.064	39.62
748.245	39.28
748.426	39.83
748.607	39.71
748.788	39.1
748.97	39.65
749.151	38.88
749.332	39.25
749.513	39.09
749.694	38.74
749.875	38.43
750.056	38.69
750.237	38.53
750.418	38.15
750.599	37.81
750.78	38.23
750.96	38
751.141	39.17
751.322	38.83
751.503	38.8
751.684	38.41
751.865	39.12
752.046	38.44
752.226	38.18
752.407	38.83
752.588	39.61
752.769	38.85
752.949	39.04
753.13	38.12
753.311	38.57
753.492	38.72
753.672	39.1
753.853	38.84
754.034	39.88
754.214	39.92
754.395	39.88
754.575	39.39
754.756	40.07
754.937	39.99
755.117	40.24
755.298	40.12
755.478	39.55
755.659	39.37
755.839	39.39
756.02	38.34
756.2	38.74
756.381	38.56
756.561	39.17
756.741	39.03
756.922	39.28
757.102	39.45
757.283	38.75
757.463	39.27
757.643	38.98
757.823	38.46
758.004	38.67
758.184	37.85
758.364	37.3
758.545	36.42
758.725	36.32
758.905	35.49
759.085	34.53
759.265	34.3
759.446	33.26
759.626	33.43
759.806	33.19
759.986	32.63
760.166	32.73
760.346	32.55
760.526	32.12
760.706	32.32
760.886	32.11
761.066	32.59
761.246	32.67
761.426	32.46
761.606	32.47
761.786	32.94
761.966	33.4
762.146	33.67
762.326	34.3
762.506	34.31
762.686	33.77
762.866	33.81
763.046	33.82
763.225	33.92
763.405	34.19
763.585	34.28
763.765	33.84
763.945	33.74
764.124	33.47
764.304	33.55
764.484	33.38
764.664	33.74
764.843	34.58
765.023	34.74
765.203	34.72
765.382	34.73
765.562	34.48
765.741	35.28
765.921	35.29
766.101	35.75
766.28	35.63
766.46	36.7
766.639	36.73
766.819	36.39
766.998	36.53
767.178	37.17
767.357	37.75
767.537	38.23
767.716	38.26
767.896	38.68
768.075	38.54
768.254	38.92
768.434	38.63
768.613	38.56
768.792	38.83
768.972	38.83
769.151	38.06
769.33	38.28
769.51	38.44
769.689	38.29
769.868	38.22
770.047	38.89
770.226	38.43
770.406	38.34
770.585	38.25
770.764	37.88
770.943	38.69
771.122	38.64
771.301	38.48
771.48	38.47
771.66	38.48
771.839	38.5
772.018	38.24
772.197	38.23
772.376	38.95
772.555	39.41
772.734	39.76
772.913	38.71
773.092	39.4
773.271	39.28
773.449	39.54
773.628	40.16
773.807	40.58
773.986	40.99
774.165	41.15
774.344	40.91
774.523	40.92
774.701	41.32
774.88	41.45
775.059	41.43
775.238	42.02
775.417	41.29
775.595	40.97
775.774	40.97
775.953	40.84
776.131	40.79
776.31	40.48
776.489	40.3
776.667	40.1
776.846	39.72
777.025	40.28
777.203	40.06
777.382	40.57
777.56	39.75
777.739	41.14
777.917	40.81
778.096	40.24
778.274	40.23
778.453	40.81
778.631	40.96
778.81	41.1
778.988	40.94
779.166	40.64
779.345	40.67
779.523	41.13
779.702	40.07
779.88	40.04
780.058	40.74
780.237	40.24
780.415	39.8
780.593	39.43
780.771	39.74
780.95	39.37
781.128	38.9
781.306	38.77
781.484	39.23
781.662	39.3
781.841	39.7
782.019	39.16
782.197	40.13
782.375	40.23
782.553	39.95
782.731	40.43
782.909	40.03
783.087	40.25
783.265	39.23
783.443	38.02
783.621	37.86
783.799	38.25
783.977	39.36
784.155	38.62
784.333	37.53
784.511	38.19
784.689	38.42
784.867	39.08
785.045	38.77
785.223	40.07
785.4	40.74
785.578	40.24
785.756	40.75
785.934	39.87
786.112	40.02
786.289	40.83
786.467	40.11
786.645	38.91
786.823	38.16
787	38.41
787.178	38.16
787.356	37.86
787.533	37.93
787.711	37.09
787.889	37.43
788.066	37.97
788.244	37.44
788.421	37.41
788.599	37.45
788.776	37.97
788.954	37.33
789.131	37.7
789.309	37.8
789.486	38.37
789.664	38.15
789.841	38.31
790.019	37.83
790.196	38.54
790.373	38.03
790.551	38.11
790.728	38.38
790.906	40.14
791.083	40.27
791.26	40.77
791.437	39.55
791.615	40.41
791.792	39.69
791.969	39.41
792.146	38.6
792.324	39.22
792.501	39.28
792.678	38.4
792.855	38.08
793.032	37
793.209	37.29
793.387	38.11
793.564	36.9
793.741	37.94
793.918	39.19
794.095	38.64
794.272	37.85
794.449	38.5
794.626	38.81
794.803	39.24
794.98	40.44
795.157	40.54
795.334	40.12
795.511	39.78
795.688	38.75
795.864	37.74
796.041	37.68
796.218	38.14
796.395	38.55
796.572	38.64
796.749	37.44
796.925	35.95
797.102	35.32
797.279	34.86
797.456	35.72
797.632	36.43
797.809	36.01
797.986	37.3
798.162	37.09
798.339	36.19
798.516	37.16
798.692	37.49
798.869	38.28
799.046	38.08
799.222	37.99
799.399	37.45
799.575	35.88
799.752	35.62
799.928	34.62
800.105	34.54
800.281	35.03
800.458	35.53
800.634	35.54
800.811	34.98
800.987	35.74
801.163	35.97
801.34	35.96
801.516	36.73
801.692	36.8
801.869	36.87
802.045	38.24
802.221	37.71
802.398	36.2
802.574	36.4
802.75	37.35
802.926	37.18
803.103	37.31
803.279	36.52
803.455	36.49
803.631	37.92
803.807	38.8
803.983	38.2
804.16	38.4
804.336	37.85
804.512	37.35
804.688	36.6
804.864	35.74
805.04	36.01
805.216	35.96
805.392	36.1
805.568	35.01
805.744	35.02
805.92	34.14
806.096	34.48
806.272	35.05
806.448	35.31
806.623	34.51
806.799	35.07
806.975	35.55
807.151	36.84
807.327	37.59
807.503	37.84
807.678	38.06
807.854	38.28
808.03	38.73
808.206	38.74
808.381	39.08
808.557	39.58
808.733	40.28
808.908	39.92
809.084	39.7
809.26	39.65
809.435	39.64
809.611	39.37
809.787	39.63
809.962	38.74
810.138	39.52
810.313	38.89
810.489	40.03
810.664	39.1
810.84	39.53
811.015	39.64
811.191	39.12
811.366	38.34
811.542	38.07
811.717	37.41
811.892	38.21
812.068	36.94
812.243	36.54
812.419	35.54
812.594	34.6
812.769	34.33
812.944	33.93
813.12	34.22
813.295	35.32
813.47	34.83
813.645	35.76
813.821	34
813.996	33.39
814.171	33.61
814.346	33.46
814.521	35
814.697	34.56
814.872	34.32
815.047	33.11
815.222	33.25
815.397	34.1
815.572	32.53
815.747	34.88
815.922	35.78
816.097	34.27
816.272	34.39
816.447	33.13
816.622	31.86
816.797	33.18
816.972	33.41
817.147	32.44
817.322	32.04
817.496	31.11
817.671	29.46
817.846	28.26
818.021	29.79
818.196	29.49
818.371	30.43
818.545	31.56
818.72	30.44
818.895	30.74
819.069	32.37
819.244	31.99
819.419	34
819.594	32.99
819.768	32.4
819.943	31.71
820.117	30.69
820.292	30.1
820.467	30.07
820.641	29.97
820.816	29.47
820.99	28.82
821.165	28.7
821.339	28.12
821.514	28.46
821.688	29.15
821.863	29.1
822.037	29.63
822.212	29.22
822.386	29.07
822.56	29
822.735	28.74
822.909	28.47
823.084	28.44
823.258	28.52
823.432	28.43
823.606	28.07
823.781	28.11
823.955	27.89
824.129	28
824.303	28.07
824.478	27.92
824.652	28.39
824.826	28.73
825	28.92
825.174	28.83
825.348	28.79
825.523	29.24
825.697	29.16
825.871	29.25
826.045	29.52
826.219	29.38
826.393	29.66
826.567	29.43
826.741	28.92
826.915	28.77
827.089	28.81
827.263	28.91
827.437	29.08
827.611	29.14
827.784	28.91
827.958	28.99
828.132	29.26
828.306	29.15
828.48	28.96
828.654	29.5
828.827	29.99
829.001	29.86
829.175	29.81
829.349	28.95
829.522	29.53
829.696	29.66
829.87	29.88
830.044	29.88
830.217	30.28
830.391	31.05
830.565	30.14
830.738	29.19
830.912	29.95
831.085	30.65
831.259	32.1
831.432	31.31
831.606	32.06
831.779	32.03
831.953	31.6
832.126	31.58
832.3	30.28
832.473	31.34
832.647	31.55
832.82	31.24
832.994	29.62
833.167	28.95
833.34	28.67
833.514	28.41
833.687	28.61
833.86	28.79
834.034	28.15
834.207	29.36
834.38	29.19
834.553	29.32
834.727	29.7
834.9	31.07
835.073	31.22
835.246	32.35
835.419	32.8
835.593	32.47
835.766	31.98
835.939	32.3
836.112	31.8
836.285	32.19
836.458	32.69
836.631	32.74
836.804	32.89
836.977	33.34
837.15	32.13
837.323	31.22
837.496	32.02
837.669	33.23
837.842	33.55
838.015	32.93
838.188	32.6
838.361	31.07
838.533	30.16
838.706	29.77
838.879	30.98
839.052	30.46
839.225	31.93
839.398	31.23
839.57	31.99
839.743	31.89
839.916	32.81
840.088	34.19
840.261	35.37
840.434	35.68
840.607	35.27
840.779	34.03
840.952	34.61
841.124	33.39
841.297	34.64
841.47	33.07
841.642	33.84
841.815	35.18
841.987	34.62
842.16	33.99
842.332	32.41
842.505	33.11
842.677	33.46
842.85	33.48
843.022	32.26
843.194	31.23
843.367	32.77
843.539	33.84
843.712	29.72
843.884	32.01
844.056	34.01
844.229	35.1
844.401	34.6
844.573	34.47
844.745	34.87
844.918	37.79
845.09	37.52
845.262	35.33
845.434	33.01
845.606	37.5
845.779	34.16
845.951	32.89
846.123	37.71
846.295	39.17
846.467	40.69
846.639	41.85
846.811	44.13
846.983	44.64
847.155	46.35
847.327	47.88
847.499	48.38
847.671	49.32
847.843	47.59
848.015	41.29
848.187	38.25
848.359	39.51
848.531	39.46
848.703	36.27
848.875	35.69
849.047	35.66
849.218	36.89
849.39	36.64
849.562	36.31
849.734	40.93
849.905	43.86
850.077	43.67
850.249	41.27
850.421	42.92
850.592	43.38
850.764	45.52
850.936	45.77
851.107	47.48
851.279	47.83
851.451	46.78
851.622	43.7
851.794	43.05
851.965	45.69
852.137	47.76
852.308	44.21
852.48	43.64
852.651	41.43
852.823	40.53
852.994	36.95
853.166	37.17
853.337	36.97
853.509	39.48
853.68	39.66
853.851	37.86
854.023	35.87
854.194	38.55
854.365	39.15
854.537	38.76
854.708	41.73
854.879	42.04
855.05	42.85
855.222	42.9
855.393	42.55
855.564	41.29
855.735	41.92
855.906	39.95
856.078	38.71
856.249	36.88
856.42	39.54
856.591	39.24
856.762	39.03
856.933	38.16
857.104	37.31
857.275	35.84
857.446	34.06
857.617	33.77
857.788	35.9
857.959	29.83
858.13	32.6
858.301	26.96
858.472	25.44
858.643	27.75
858.814	24.67
858.985	27.61
859.155	28.06
859.326	31.21
859.497	33.6
859.668	31.83
859.839	40.16
860.009	40.11
860.18	41.99
860.351	42.83
860.522	42.3
860.692	44.4
860.863	42.47
861.034	41.63
861.204	43.85
861.375	42.28
861.546	44.32
861.716	39.25
861.887	38.01
862.057	41.2
862.228	41.89
862.398	40.75
862.569	41.22
862.739	43.28
862.91	45.55
863.08	41.58
863.251	40.27
863.421	40.76
863.592	38.89
863.762	41.36
863.932	36.42
864.103	35.74
864.273	35.31
864.443	31.05
864.614	26.01
864.784	22.45
864.954	27.73
865.125	25.81
865.295	23.87
865.465	26.69
865.635	21.93
865.805	23.63
865.976	22.06
866.146	21.23
866.316	24.73
866.486	28.45
866.656	33.06
866.826	32.35
866.996	35.74
867.166	35.48
867.336	36.12
867.506	41.47
867.676	45.35
867.846	45.43
868.016	47.78
868.186	47.05
868.356	45.75
868.526	41.03
868.696	37.64
868.866	40.63
869.036	43.28
869.206	39.16
869.376	35.67
869.545	29.79
869.715	28.07
869.885	26.86
870.055	26.91
870.224	29.36
870.394	29.22
870.564	31.21
870.734	25.3
870.903	21.32
871.073	28.22
871.243	31.77
871.412	30.75
871.582	33.02
871.751	36.02
871.921	35.65
872.091	33.81
872.26	37.35
872.43	35.93
872.599	36.04
872.769	34.59
872.938	33.85
873.108	32.91
873.277	35.21
873.446	36.28
873.616	34.31
873.785	34.79
873.955	31.01
874.124	27.24
874.293	29.01
874.463	28.59
874.632	31.59
874.801	33.66
874.971	33.17
875.14	35.07
875.309	30.77
875.478	30.38
875.647	30.32
875.817	35.24
875.986	37.1
876.155	36.74
876.324	40
876.493	38.24
876.662	37.99
876.831	35.09
877	34.82
877.17	37.65
877.339	38.65
877.508	37.68
877.677	36.39
877.846	31.25
878.015	28.9
878.184	27.68
878.352	29.55
878.521	26.35
878.69	28.58
878.859	29.79
879.028	28.65
879.197	25.26
879.366	23.93
879.534	23.14
879.703	25.74
879.872	25.71
880.041	26.37
880.21	26
880.378	25.83
880.547	26.11
880.716	24.89
880.884	24.88
881.053	25.03
881.222	25.79
881.39	25.48
881.559	24.77
881.727	24.88
881.896	23.88
882.065	24.04
882.233	23.69
882.402	22.47
882.57	22.86
882.739	22.56
882.907	23.44
883.076	23.2
883.244	23.7
883.412	24.18
883.581	24.02
883.749	24.55
883.918	24.41
884.086	24.26
884.254	25.12
884.423	24.93
884.591	25.2
884.759	24.17
884.927	23.4
885.096	22.84
885.264	22.2
885.432	22.97
885.6	22.01
885.769	21.32
885.937	21.64
886.105	21.56
886.273	21.26
886.441	21.86
886.609	20.77
886.777	21.75
886.945	22.26
887.113	25.4
887.281	24.94
887.449	25.26
887.617	26.79
887.785	28.21
887.953	29.68
888.121	31.75
888.289	33.55
888.457	36.07
888.625	38.63
888.793	37.49
888.961	34.1
889.129	36.07
889.296	38.96
889.464	38.44
889.632	38.81
889.8	39.15
889.967	37.05
890.135	35.38
