Data from 2938778__Reflection_01.txt Node
Date: Fri Mar 13 13:29:41 EDT 2015
User: robert
Spectrometer: USB4E03002
Autoset integration time: false
Trigger mode: 4
Integration Time (sec): 1.000000E-1
Scans to average: 10
Electric dark correction enabled: false
Nonlinearity correction enabled: false
Boxcar width: 5
Stray light correction enabled: false
XAxis mode: Wavelengths
Stop averaging: false
Number of Pixels in Spectrum: 3648
>>>>>Begin Spectral Data<<<<<
177.575	-298.61
177.794	-584.93
178.014	-1918.52
178.233	949.25
178.452	1981.08
178.672	456.82
178.891	423.78
179.11	2343.48
179.33	-544.78
179.549	-188.1
179.768	-816.67
179.987	483.58
180.207	1374.07
180.426	530.77
180.645	-722.86
180.864	-182.26
181.084	-24.41
181.303	-44.86
181.522	-236.17
181.741	1266.67
181.96	151.11
182.179	132.1
182.398	118.68
182.618	118.11
182.837	140.22
183.056	129.02
183.275	121.94
183.494	99.42
183.713	81.5
183.932	129.41
184.151	126.34
184.37	134.1
184.589	130.9
184.808	158.89
185.027	101.05
185.246	95.63
185.465	88.77
185.684	91.64
185.903	55.26
186.122	71.95
186.341	47.86
186.56	27.64
186.779	35.37
186.998	53.74
187.216	74.53
187.435	106.78
187.654	63.57
187.873	65.16
188.092	75.89
188.311	195.38
188.53	205.77
188.748	581.25
188.967	-1287.5
189.186	266.67
189.405	286.33
189.623	138.77
189.842	100.48
190.061	125.96
190.28	143.32
190.498	94.92
190.717	69.35
190.936	72.39
191.154	65.35
191.373	82.31
191.592	89.38
191.81	71.07
192.029	77.29
192.248	93.98
192.466	86.87
192.685	87.35
192.904	103.07
193.122	118
193.341	104.3
193.559	200.63
193.778	82.8
193.996	24.38
194.215	400
194.433	111.21
194.652	-13.51
194.87	-34.04
195.089	-2180
195.307	-211.54
195.526	19.63
195.744	314.89
195.963	98.91
196.181	147.11
196.399	137.87
196.618	105.69
196.836	124.75
197.055	178.57
197.273	293.41
197.491	673.53
197.71	485.19
197.928	135.2
198.146	152.54
198.365	174.67
198.583	116.67
198.801	21.4
199.019	25.52
199.238	30.18
199.456	30.98
199.674	18.54
199.892	0.81
200.111	12.09
200.329	19.28
200.547	6.59
200.765	-63.98
200.983	-125.93
201.202	-228.97
201.42	-795.83
201.638	1734.78
201.856	492.78
202.074	1007.32
202.292	313.68
202.51	368.22
202.728	229.36
202.946	402.01
203.165	871.43
203.383	34500
203.601	227.46
203.819	160.4
204.037	106.95
204.255	105.99
204.473	99.02
204.691	65.75
204.909	53.77
205.127	75.73
205.345	-22.49
205.562	-79.93
205.78	3.92
205.998	28.47
206.216	59.31
206.434	53.05
206.652	77.6
206.87	89.76
207.088	108.67
207.306	123.46
207.523	112.86
207.741	134.5
207.959	159.93
208.177	150.19
208.395	159.72
208.612	151.26
208.83	126.88
209.048	105.35
209.266	166.67
209.483	317.65
209.701	160
209.919	-162.5
210.136	-1500
210.354	400
210.572	179.23
210.79	-176.64
211.007	-22.64
211.225	-88.14
211.442	-9.85
211.66	8.98
211.878	28.06
212.095	171.46
212.313	178.72
212.53	143.51
212.748	98.99
212.966	101.24
213.183	122.98
213.401	123.5
213.618	91.11
213.836	78.17
214.053	89.71
214.271	77.67
214.488	-17.83
214.705	-20.3
214.923	6.34
215.14	28.75
215.358	15.02
215.575	20.47
215.793	26.41
216.01	37.29
216.227	51.88
216.445	47.83
216.662	44.45
216.879	30.36
217.097	33.16
217.314	25.41
217.531	13.53
217.749	12.71
217.966	13.02
218.183	-19.55
218.4	-35.48
218.618	-30.58
218.835	-12.06
219.052	-11.83
219.269	-4.01
219.487	4.53
219.704	7.72
219.921	6.94
220.138	11.55
220.355	17.28
220.572	25.69
220.79	20.15
221.007	9.7
221.224	-3.85
221.441	1.24
221.658	15.44
221.875	8.74
222.092	11.31
222.309	12.06
222.526	8.05
222.743	-0.8
222.96	3.52
223.177	9.8
223.394	12
223.611	13.25
223.828	16.8
224.045	10.45
224.262	21.09
224.479	22.28
224.696	23.44
224.913	24.55
225.13	23.99
225.347	24.48
225.564	23.73
225.781	26.47
225.997	23.73
226.214	20.82
226.431	17.41
226.648	8.73
226.865	7.61
227.082	5.98
227.298	5.88
227.515	5.25
227.732	4.52
227.949	3.53
228.165	3.15
228.382	3.44
228.599	2.56
228.816	3.35
229.032	4.17
229.249	3.79
229.466	3.71
229.682	3.65
229.899	3.06
230.116	2.63
230.332	2.82
230.549	2.62
230.765	1.58
230.982	1.99
231.199	0.77
231.415	0.29
231.632	-1.21
231.848	-0.88
232.065	-2.84
232.281	-2.15
232.498	-2.19
232.714	-1.71
232.931	-1.19
233.147	1.24
233.364	3.15
233.58	2.77
233.797	3.42
234.013	5.06
234.23	4.6
234.446	4.8
234.662	4.76
234.879	4.93
235.095	4.09
235.312	4.36
235.528	1.37
235.744	-2.38
235.961	-0.6
236.177	-1.58
236.393	-2.48
236.61	-3.45
236.826	-2.69
237.042	-1.82
237.258	-2.72
237.475	-2.21
237.691	-3.07
237.907	-2.25
238.123	0.59
238.339	0.33
238.556	0.17
238.772	1.01
238.988	1.67
239.204	2.13
239.42	2.53
239.636	2.84
239.853	2.17
240.069	2.25
240.285	2.96
240.501	2.86
240.717	3.25
240.933	4.35
241.149	3.92
241.365	3.75
241.581	3.14
241.797	2.59
242.013	2.98
242.229	3.67
242.445	3.94
242.661	4.31
242.877	3.77
243.093	3.98
243.309	3.79
243.525	4.08
243.741	3.74
243.957	4.39
244.173	4.61
244.388	4.14
244.604	3.67
244.82	3.63
245.036	2.59
245.252	2.6
245.468	2.15
245.683	2.42
245.899	2.23
246.115	2.75
246.331	2.39
246.547	2.56
246.762	2.59
246.978	2.64
247.194	2.64
247.409	2.97
247.625	3.19
247.841	3.19
248.057	2.94
248.272	3.03
248.488	3.01
248.703	3.28
248.919	3.26
249.135	3.47
249.35	3.68
249.566	3.76
249.782	4.28
249.997	4.09
250.213	4.42
250.428	4.55
250.644	4.23
250.859	3.85
251.075	4.07
251.29	4.32
251.506	4.66
251.721	4.37
251.937	3.75
252.152	3.25
252.368	4.06
252.583	3.63
252.798	4.1
253.014	4.53
253.229	5.17
253.445	4.69
253.66	3.85
253.875	3.53
254.091	3.05
254.306	3
254.521	3
254.737	2.36
254.952	2.43
255.167	1.39
255.383	1.48
255.598	0.2
255.813	0.02
256.028	0.57
256.244	0.21
256.459	1.47
256.674	1.06
256.889	1.22
257.104	0.82
257.32	1.26
257.535	1.06
257.75	1.2
257.965	1.42
258.18	1.51
258.395	1.58
258.61	2.07
258.826	1.84
259.041	2.25
259.256	2.36
259.471	2.28
259.686	2.34
259.901	2.3
260.116	2.14
260.331	2.23
260.546	2.11
260.761	2.18
260.976	1.82
261.191	1.63
261.406	1.55
261.621	1.32
261.836	1.44
262.05	0.81
262.265	1.02
262.48	0.67
262.695	0.36
262.91	0.38
263.125	-0.02
263.34	0.6
263.555	0.97
263.769	0.88
263.984	0.68
264.199	0.2
264.414	0.71
264.629	1.2
264.843	1.48
265.058	1.97
265.273	2.61
265.488	3.24
265.702	3.03
265.917	2.49
266.132	2.73
266.346	2.7
266.561	3.13
266.776	2.8
266.99	2.65
267.205	2.92
267.42	2.92
267.634	2.58
267.849	2.38
268.063	2.32
268.278	2.67
268.492	2.58
268.707	2.25
268.922	1.61
269.136	2.41
269.351	2.24
269.565	2.27
269.78	2.5
269.994	2.35
270.209	1.82
270.423	1.89
270.637	1.75
270.852	1.29
271.066	1.79
271.281	2.05
271.495	1.53
271.709	1.24
271.924	0.93
272.138	0.65
272.353	0.77
272.567	1.27
272.781	1.2
272.996	1.11
273.21	1.64
273.424	1.73
273.638	1.75
273.853	1.82
274.067	2.25
274.281	2.54
274.495	2.71
274.71	2.53
274.924	2.45
275.138	2.16
275.352	2.25
275.566	1.81
275.781	1.49
275.995	1.76
276.209	1.64
276.423	1.17
276.637	0.79
276.851	0.77
277.065	1.11
277.279	0.87
277.493	0.87
277.707	1.11
277.921	1.08
278.135	1.07
278.349	1.01
278.563	1.35
278.777	1.91
278.991	2.18
279.205	2.15
279.419	1.96
279.633	1.89
279.847	2.03
280.061	1.6
280.275	1.32
280.489	1.48
280.703	1.63
280.917	1.67
281.131	1.42
281.344	1.44
281.558	0.95
281.772	1.23
281.986	1.41
282.2	1.26
282.414	1.54
282.627	1.92
282.841	1.71
283.055	1.68
283.269	1.28
283.482	1.07
283.696	0.96
283.91	1.27
284.123	0.81
284.337	1.23
284.551	1.32
284.764	1.29
284.978	0.82
285.192	0.96
285.405	0.72
285.619	0.67
285.833	0.73
286.046	0.43
286.26	0.56
286.473	0.82
286.687	0.4
286.9	0.28
287.114	0.12
287.327	0.19
287.541	0.04
287.754	-0.05
287.968	-0.34
288.181	-0.27
288.395	0.08
288.608	0.5
288.822	0.44
289.035	0.25
289.248	0.21
289.462	0.25
289.675	0.77
289.889	0.97
290.102	1.2
290.315	1.6
290.529	1.69
290.742	1.66
290.955	1.05
291.169	1.45
291.382	1.6
291.595	1.57
291.808	1.65
292.022	1.19
292.235	0.93
292.448	1.21
292.661	1.48
292.875	1.13
293.088	1.38
293.301	1.33
293.514	1.18
293.727	1.4
293.94	1.68
294.153	1.68
294.367	1.88
294.58	1.96
294.793	1.37
295.006	1.37
295.219	1.69
295.432	1.48
295.645	1.7
295.858	1.33
296.071	1.13
296.284	1.12
296.497	1.01
296.71	1.08
296.923	1.53
297.136	1.69
297.349	1.7
297.562	1.77
297.775	1.93
297.988	2.02
298.201	2.21
298.414	2.27
298.626	2.43
298.839	2.5
299.052	2.57
299.265	2.13
299.478	2.13
299.691	2.02
299.903	1.63
300.116	1.5
300.329	1.48
300.542	1.71
300.755	1.64
300.967	1.59
301.18	1.89
301.393	2.35
301.605	2.33
301.818	2.45
302.031	2.58
302.243	2.8
302.456	3.03
302.669	2.75
302.881	2.57
303.094	2.58
303.307	2.51
303.519	1.98
303.732	1.5
303.944	1.34
304.157	1.29
304.37	1.36
304.582	1.15
304.795	0.77
305.007	1.29
305.22	1.19
305.432	1.18
305.645	1.19
305.857	2.1
306.069	2.32
306.282	2.66
306.494	2.67
306.707	2.41
306.919	2.54
307.132	2.63
307.344	2.41
307.556	2.76
307.769	3.08
307.981	3.2
308.193	2.78
308.406	2.72
308.618	2.7
308.83	2.61
309.043	2.63
309.255	2.8
309.467	2.97
309.679	2.56
309.892	2.24
310.104	2.28
310.316	2
310.528	1.79
310.74	1.95
310.953	1.83
311.165	1.88
311.377	1.88
311.589	2.05
311.801	1.98
312.013	2.24
312.225	2.38
312.437	2.36
312.649	2.72
312.862	3.15
313.074	2.72
313.286	2.88
313.498	2.85
313.71	3.29
313.922	3.19
314.134	3.6
314.346	3.64
314.558	3.67
314.77	3.64
314.982	3.2
315.193	3.02
315.405	3.4
315.617	3.45
315.829	3.69
316.041	3.5
316.253	3.18
316.465	3.3
316.677	3.26
316.888	3.57
317.1	3.48
317.312	3.86
317.524	3.73
317.736	3.71
317.947	3.77
318.159	4.11
318.371	4.07
318.583	4.65
318.794	4.15
319.006	4.46
319.218	3.91
319.43	3.82
319.641	4.07
319.853	4.44
320.064	4.73
320.276	5.01
320.488	5.07
320.699	5.01
320.911	4.94
321.123	4.98
321.334	4.91
321.546	5.52
321.757	5.61
321.969	5.06
322.18	5.37
322.392	5.15
322.603	4.98
322.815	4.7
323.026	5.23
323.238	5.08
323.449	5.25
323.661	5.44
323.872	5.59
324.083	5.77
324.295	6.73
324.506	6.75
324.718	6.91
324.929	6.99
325.14	7.28
325.352	7.5
325.563	7.83
325.774	7.72
325.986	8.08
326.197	8.35
326.408	8.83
326.62	8.7
326.831	8.77
327.042	9.23
327.253	9.78
327.464	10.23
327.676	10.62
327.887	11.1
328.098	12.19
328.309	12.28
328.52	12.91
328.732	13.44
328.943	14.33
329.154	14.99
329.365	14.99
329.576	14.95
329.787	15.52
329.998	15.36
330.209	15.63
330.42	16.07
330.631	17
330.842	17.05
331.053	17.64
331.264	17.7
331.475	17.53
331.686	18.27
331.897	18.73
332.108	18.93
332.319	19.89
332.53	20.15
332.741	20.23
332.952	20.28
333.163	20.16
333.374	19.93
333.585	20.25
333.795	20.83
334.006	21
334.217	21.54
334.428	21.64
334.639	21.37
334.849	21.37
335.06	21.32
335.271	21.58
335.482	21.89
335.692	22.39
335.903	22.38
336.114	22.66
336.325	22.63
336.535	22.61
336.746	22.69
336.957	22.83
337.167	22.94
337.378	23.2
337.589	22.96
337.799	23.09
338.01	22.78
338.22	23.06
338.431	22.83
338.642	22.92
338.852	22.95
339.063	23.25
339.273	23.4
339.484	23.92
339.694	23.64
339.905	23.97
340.115	24.11
340.326	24.37
340.536	24.45
340.746	24.56
340.957	24.9
341.167	24.61
341.378	24.3
341.588	24.29
341.799	24.26
342.009	24.66
342.219	24.3
342.43	24.24
342.64	24.34
342.85	24.19
343.061	24.22
343.271	23.84
343.481	23.81
343.691	23.77
343.902	23.9
344.112	23.76
344.322	23.54
344.532	23.76
344.743	23.85
344.953	23.86
345.163	23.66
345.373	23.53
345.583	23.51
345.793	23.73
346.004	23.94
346.214	23.85
346.424	23.71
346.634	23.8
346.844	23.55
347.054	23.39
347.264	23.15
347.474	23.35
347.684	23.39
347.894	23.62
348.104	24.03
348.314	23.75
348.524	23.52
348.734	23.54
348.944	23.36
349.154	23.8
349.364	23.83
349.574	24.17
349.784	24.2
349.994	24.48
350.204	24.54
350.413	24.42
350.623	24.67
350.833	24.77
351.043	24.63
351.253	25.05
351.463	25.02
351.672	24.7
351.882	24.79
352.092	24.58
352.302	24.48
352.511	24.38
352.721	24.01
352.931	23.93
353.141	23.79
353.35	23.88
353.56	23.29
353.77	23
353.979	23.14
354.189	22.69
354.399	22.71
354.608	22.34
354.818	22.23
355.027	22.09
355.237	22.08
355.447	22.16
355.656	21.98
355.866	22.1
356.075	22.09
356.285	22.08
356.494	22.1
356.704	21.99
356.913	22.16
357.123	22.38
357.332	22.69
357.542	22.73
357.751	22.89
357.96	23
358.17	23.13
358.379	23.1
358.589	23.27
358.798	23.41
359.007	23.48
359.217	23.65
359.426	23.52
359.635	23.44
359.845	23.39
360.054	23.12
360.263	22.98
360.472	22.94
360.682	23.08
360.891	22.94
361.1	22.98
361.309	23.09
361.519	23.01
361.728	22.89
361.937	22.69
362.146	22.7
362.355	22.9
362.564	22.89
362.774	22.88
362.983	22.66
363.192	22.68
363.401	22.47
363.61	22.26
363.819	22.18
364.028	21.99
364.237	22.04
364.446	21.99
364.655	21.85
364.864	22.1
365.073	22
365.282	22.12
365.491	22.09
365.7	22.23
365.909	22.4
366.118	22.54
366.327	22.78
366.536	23
366.745	22.85
366.954	22.59
367.162	22.43
367.371	22.57
367.58	22.49
367.789	22.58
367.998	22.23
368.207	21.85
368.415	21.62
368.624	21.57
368.833	21.42
369.042	21.42
369.25	21.77
369.459	21.93
369.668	21.87
369.877	21.91
370.085	21.9
370.294	22.4
370.503	22.58
370.711	22.5
370.92	22.47
371.129	22.41
371.337	22.37
371.546	22.17
371.754	22.13
371.963	22.17
372.171	22.28
372.38	22.21
372.589	22.06
372.797	22.01
373.006	22.02
373.214	22.05
373.423	21.91
373.631	22.07
373.84	22.06
374.048	22.03
374.256	21.9
374.465	22.02
374.673	22.03
374.882	21.76
375.09	21.81
375.298	22.21
375.507	22.1
375.715	22.08
375.923	21.97
376.132	21.93
376.34	21.74
376.548	21.87
376.757	21.76
376.965	21.74
377.173	21.93
377.381	21.93
377.59	21.56
377.798	21.68
378.006	21.74
378.214	21.76
378.423	21.79
378.631	21.84
378.839	21.68
379.047	21.58
379.255	21.7
379.463	21.54
379.671	21.3
379.879	21.47
380.088	21.38
380.296	21.37
380.504	21.1
380.712	21.34
380.92	21.51
381.128	21.6
381.336	21.64
381.544	21.6
381.752	21.67
381.96	21.95
382.168	22.07
382.376	22.28
382.584	22.44
382.791	22.42
382.999	22.46
383.207	22.4
383.415	22.42
383.623	22.26
383.831	22.11
384.039	22.25
384.247	22.25
384.454	22.1
384.662	21.87
384.87	21.78
385.078	21.93
385.285	21.73
385.493	21.67
385.701	21.6
385.909	21.59
386.116	21.81
386.324	21.7
386.532	21.62
386.739	21.43
386.947	21.59
387.155	21.56
387.362	21.65
387.57	21.78
387.778	21.78
387.985	21.93
388.193	22.18
388.4	22.2
388.608	22.24
388.816	22.41
389.023	22.55
389.231	22.48
389.438	22.46
389.646	22.45
389.853	22.4
390.061	22.47
390.268	22.39
390.475	22.09
390.683	21.89
390.89	21.74
391.098	21.54
391.305	21.6
391.512	21.46
391.72	21.49
391.927	21.43
392.135	21.33
392.342	21.22
392.549	21.29
392.756	21.35
392.964	21.27
393.171	21.42
393.378	21.3
393.586	21.34
393.793	21.56
394	21.64
394.207	21.76
394.414	21.73
394.622	21.79
394.829	21.73
395.036	21.84
395.243	21.94
395.45	21.88
395.657	22.07
395.864	21.99
396.072	21.93
396.279	22.08
396.486	22.1
396.693	22.31
396.9	22.31
397.107	22.29
397.314	22.26
397.521	22.37
397.728	22.49
397.935	22.59
398.142	22.69
398.349	22.76
398.556	22.46
398.763	22.35
398.97	22.37
399.177	22.38
399.383	22.4
399.59	22.35
399.797	22.24
400.004	22.19
400.211	22.1
400.418	22.14
400.625	22.11
400.831	22.24
401.038	22.44
401.245	22.43
401.452	22.56
401.658	22.69
401.865	22.82
402.072	22.92
402.279	22.97
402.485	23.14
402.692	23.13
402.899	23.29
403.105	23.42
403.312	23.35
403.519	23.46
403.725	23.55
403.932	23.51
404.138	23.61
404.345	23.74
404.552	23.75
404.758	23.74
404.965	23.84
405.171	23.9
405.378	23.79
405.584	23.81
405.791	23.72
405.997	23.6
406.204	23.73
406.41	23.85
406.617	23.84
406.823	24.11
407.029	24.24
407.236	24.17
407.442	24.11
407.649	24.16
407.855	24.2
408.061	24.21
408.268	24.29
408.474	24.33
408.68	24.27
408.887	24.29
409.093	24.06
409.299	24.01
409.505	24
409.712	23.92
409.918	23.96
410.124	23.97
410.33	24.22
410.537	24.46
410.743	24.36
410.949	24.28
411.155	24.34
411.361	24.49
411.567	24.51
411.773	24.68
411.98	24.86
412.186	24.91
412.392	25.07
412.598	24.84
412.804	24.7
413.01	24.68
413.216	24.82
413.422	24.81
413.628	24.83
413.834	25.06
414.04	24.99
414.246	25
414.452	25.07
414.658	25.13
414.864	25.25
415.07	25.35
415.275	25.48
415.481	25.41
415.687	25.55
415.893	25.6
416.099	25.38
416.305	25.4
416.511	25.43
416.716	25.53
416.922	25.48
417.128	25.53
417.334	25.57
417.539	25.58
417.745	25.69
417.951	25.6
418.157	25.56
418.362	25.75
418.568	25.81
418.774	25.86
418.979	25.84
419.185	25.87
419.391	25.95
419.596	25.99
419.802	26.06
420.008	26.06
420.213	26.13
420.419	26.17
420.624	26.11
420.83	26.16
421.035	26.18
421.241	26.21
421.446	26.34
421.652	26.41
421.857	26.52
422.063	26.5
422.268	26.58
422.474	26.62
422.679	26.76
422.885	26.83
423.09	26.82
423.295	26.9
423.501	27.02
423.706	26.97
423.911	26.86
424.117	26.81
424.322	26.88
424.527	26.85
424.733	26.87
424.938	26.85
425.143	26.93
425.349	26.99
425.554	26.92
425.759	26.85
425.964	26.87
426.169	26.96
426.375	26.97
426.58	26.96
426.785	27.05
426.99	27.12
427.195	27.22
427.4	27.15
427.605	27.28
427.811	27.46
428.016	27.48
428.221	27.52
428.426	27.58
428.631	27.52
428.836	27.61
429.041	27.59
429.246	27.57
429.451	27.66
429.656	27.79
429.861	27.78
430.066	27.74
430.271	27.85
430.476	27.92
430.681	27.93
430.886	28.02
431.09	28.09
431.295	28.24
431.5	28.42
431.705	28.31
431.91	28.29
432.115	28.29
432.32	28.42
432.524	28.56
432.729	28.64
432.934	28.72
433.139	28.73
433.343	28.72
433.548	28.75
433.753	28.79
433.958	28.84
434.162	28.87
434.367	28.93
434.572	28.88
434.776	28.87
434.981	28.9
435.186	29
435.39	29.15
435.595	29.31
435.799	29.27
436.004	29.27
436.209	29.28
436.413	29.47
436.618	29.53
436.822	29.54
437.027	29.55
437.231	29.38
437.436	29.32
437.64	29.29
437.845	29.21
438.049	29.3
438.253	29.3
438.458	29.3
438.662	29.19
438.867	29.19
439.071	29.26
439.275	29.3
439.48	29.4
439.684	29.5
439.888	29.53
440.093	29.56
440.297	29.5
440.501	29.46
440.706	29.55
440.91	29.67
441.114	29.66
441.318	29.57
441.523	29.61
441.727	29.74
441.931	29.69
442.135	29.71
442.339	29.7
442.543	29.78
442.748	29.85
442.952	29.83
443.156	29.75
443.36	29.83
443.564	29.97
443.768	29.95
443.972	29.8
444.176	29.95
444.38	29.95
444.584	29.98
444.788	29.98
444.992	30.07
445.196	30.1
445.4	30.18
445.604	30.15
445.808	30.2
446.012	30.13
446.216	30.31
446.42	30.26
446.624	30.24
446.828	30.17
447.032	30.21
447.235	30.12
447.439	30.15
447.643	30.13
447.847	30.12
448.051	30.07
448.254	30.1
448.458	29.99
448.662	29.97
448.866	30.01
449.069	30.14
449.273	30.13
449.477	30.23
449.681	30.17
449.884	30.15
450.088	30.19
450.292	30.27
450.495	30.39
450.699	30.45
450.902	30.42
451.106	30.36
451.31	30.38
451.513	30.44
451.717	30.38
451.92	30.42
452.124	30.39
452.327	30.3
452.531	30.31
452.734	30.31
452.938	30.27
453.141	30.37
453.345	30.48
453.548	30.52
453.752	30.42
453.955	30.39
454.158	30.35
454.362	30.39
454.565	30.45
454.769	30.36
454.972	30.35
455.175	30.54
455.379	30.56
455.582	30.64
455.785	30.63
455.988	30.67
456.192	30.67
456.395	30.72
456.598	30.71
456.801	30.85
457.005	30.88
457.208	30.83
457.411	30.73
457.614	30.49
457.817	30.38
458.021	30.32
458.224	30.39
458.427	30.43
458.63	30.45
458.833	30.43
459.036	30.31
459.239	30.36
459.442	30.38
459.645	30.38
459.848	30.53
460.051	30.55
460.254	30.5
460.457	30.45
460.66	30.46
460.863	30.48
461.066	30.51
461.269	30.64
461.472	30.56
461.675	30.57
461.878	30.58
462.081	30.48
462.284	30.48
462.486	30.61
462.689	30.67
462.892	30.64
463.095	30.68
463.298	30.76
463.5	30.67
463.703	30.77
463.906	30.78
464.109	30.79
464.311	30.81
464.514	30.83
464.717	30.74
464.92	30.77
465.122	30.77
465.325	30.66
465.528	30.59
465.73	30.57
465.933	30.58
466.135	30.57
466.338	30.64
466.541	30.8
466.743	30.83
466.946	30.89
467.148	30.98
467.351	31.06
467.553	31.25
467.756	31.19
467.958	31.23
468.161	31.21
468.363	31.18
468.566	31.09
468.768	30.95
468.971	30.89
469.173	30.96
469.375	30.82
469.578	30.79
469.78	30.68
469.983	30.67
470.185	30.73
470.387	30.77
470.59	30.75
470.792	30.7
470.994	30.76
471.196	30.8
471.399	30.78
471.601	30.73
471.803	30.84
472.005	30.85
472.208	31.01
472.41	31.08
472.612	31.07
472.814	31.16
473.016	31.24
473.218	31.25
473.421	31.18
473.623	31.16
473.825	31.22
474.027	31.18
474.229	31.24
474.431	31.22
474.633	31.24
474.835	31.29
475.037	31.33
475.239	31.41
475.441	31.36
475.643	31.44
475.845	31.4
476.047	31.39
476.249	31.31
476.451	31.23
476.653	31.17
476.855	31.11
477.057	31.03
477.258	30.93
477.46	30.84
477.662	30.87
477.864	30.81
478.066	30.84
478.268	30.87
478.469	30.95
478.671	30.93
478.873	30.92
479.075	30.9
479.276	30.94
479.478	31.06
479.68	31.15
479.882	31.15
480.083	31.2
480.285	31.21
480.487	31.17
480.688	31.13
480.89	31.23
481.091	31.22
481.293	31.22
481.495	31.25
481.696	31.14
481.898	31.06
482.099	31.02
482.301	31.03
482.502	31.02
482.704	31.04
482.905	31
483.107	30.95
483.308	30.9
483.51	30.86
483.711	30.8
483.913	30.77
484.114	30.75
484.315	30.72
484.517	30.7
484.718	30.65
484.92	30.64
485.121	30.59
485.322	30.61
485.524	30.65
485.725	30.65
485.926	30.66
486.127	30.72
486.329	30.76
486.53	30.79
486.731	30.77
486.932	30.78
487.134	30.78
487.335	30.89
487.536	30.85
487.737	30.83
487.938	30.83
488.139	30.83
488.341	30.81
488.542	30.78
488.743	30.77
488.944	30.77
489.145	30.81
489.346	30.8
489.547	30.78
489.748	30.78
489.949	30.84
490.15	30.85
490.351	30.84
490.552	30.88
490.753	30.93
490.954	30.99
491.155	30.99
491.356	30.97
491.557	30.95
491.758	30.91
491.959	30.96
492.159	30.94
492.36	30.95
492.561	30.98
492.762	30.97
492.963	31
493.164	30.99
493.364	31.02
493.565	30.99
493.766	31.08
493.967	31.1
494.167	31.07
494.368	31.15
494.569	31.27
494.769	31.27
494.97	31.34
495.171	31.31
495.371	31.29
495.572	31.41
495.773	31.59
495.973	31.65
496.174	31.67
496.375	31.76
496.575	31.71
496.776	31.7
496.976	31.73
497.177	31.63
497.377	31.73
497.578	31.81
497.778	31.84
497.979	31.81
498.179	31.75
498.38	31.77
498.58	31.66
498.78	31.64
498.981	31.62
499.181	31.6
499.382	31.69
499.582	31.58
499.782	31.65
499.983	31.56
500.183	31.46
500.383	31.41
500.584	31.41
500.784	31.47
500.984	31.58
501.184	31.63
501.385	31.77
501.585	31.87
501.785	32.02
501.985	31.93
502.185	32.02
502.386	32.21
502.586	32.3
502.786	32.37
502.986	32.49
503.186	32.48
503.386	32.47
503.586	32.36
503.786	32.26
503.987	32.27
504.187	32.27
504.387	32.22
504.587	32.17
504.787	32.19
504.987	32.22
505.187	32.23
505.387	32.22
505.587	32.2
505.786	32.36
505.986	32.27
506.186	32.33
506.386	32.36
506.586	32.37
506.786	32.41
506.986	32.48
507.186	32.49
507.386	32.36
507.585	32.36
507.785	32.43
507.985	32.4
508.185	32.45
508.384	32.43
508.584	32.49
508.784	32.49
508.984	32.53
509.183	32.47
509.383	32.45
509.583	32.61
509.782	32.58
509.982	32.62
510.182	32.63
510.381	32.76
510.581	32.66
510.781	32.57
510.98	32.65
511.18	32.63
511.379	32.68
511.579	32.67
511.778	32.67
511.978	32.76
512.177	32.74
512.377	32.75
512.576	32.72
512.776	32.76
512.975	32.83
513.175	32.93
513.374	32.9
513.573	32.92
513.773	33.06
513.972	33.06
514.172	33.04
514.371	33.1
514.57	33.07
514.77	33.07
514.969	33.17
515.168	33.27
515.367	33.22
515.567	33.38
515.766	33.33
515.965	33.28
516.164	33.3
516.364	33.3
516.563	33.3
516.762	33.35
516.961	33.38
517.16	33.38
517.359	33.32
517.559	33.27
517.758	33.19
517.957	33.28
518.156	33.33
518.355	33.32
518.554	33.35
518.753	33.36
518.952	33.39
519.151	33.4
519.35	33.42
519.549	33.49
519.748	33.5
519.947	33.54
520.146	33.66
520.345	33.6
520.544	33.63
520.743	33.68
520.942	33.76
521.141	33.82
521.339	33.85
521.538	33.93
521.737	33.97
521.936	34.04
522.135	34.07
522.333	34.06
522.532	34.14
522.731	34.12
522.93	34.14
523.129	34.12
523.327	34.15
523.526	34.21
523.725	34.21
523.923	34.33
524.122	34.42
524.321	34.48
524.519	34.38
524.718	34.43
524.917	34.54
525.115	34.55
525.314	34.64
525.512	34.64
525.711	34.69
525.909	34.66
526.108	34.58
526.306	34.51
526.505	34.52
526.703	34.54
526.902	34.48
527.1	34.37
527.299	34.35
527.497	34.27
527.696	34.26
527.894	34.24
528.092	34.25
528.291	34.22
528.489	34.26
528.688	34.23
528.886	34.21
529.084	34.2
529.283	34.29
529.481	34.31
529.679	34.37
529.877	34.36
530.076	34.37
530.274	34.43
530.472	34.51
530.67	34.58
530.869	34.67
531.067	34.76
531.265	34.89
531.463	34.92
531.661	34.97
531.859	34.96
532.057	35.05
532.255	35.08
532.454	35.12
532.652	35.16
532.85	35.09
533.048	35.1
533.246	35.13
533.444	35.1
533.642	35.08
533.84	35.12
534.038	35.16
534.236	35.11
534.434	35.1
534.632	35.07
534.83	35.03
535.027	35.07
535.225	35.09
535.423	35.16
535.621	35.16
535.819	35.26
536.017	35.24
536.215	35.26
536.412	35.32
536.61	35.35
536.808	35.39
537.006	35.44
537.203	35.46
537.401	35.46
537.599	35.43
537.797	35.51
537.994	35.48
538.192	35.62
538.39	35.75
538.587	35.85
538.785	35.95
538.983	36.02
539.18	36.08
539.378	36.21
539.575	36.26
539.773	36.3
539.97	36.33
540.168	36.35
540.366	36.34
540.563	36.3
540.761	36.3
540.958	36.3
541.155	36.3
541.353	36.28
541.55	36.29
541.748	36.3
541.945	36.3
542.143	36.37
542.34	36.37
542.537	36.43
542.735	36.47
542.932	36.52
543.129	36.63
543.327	36.72
543.524	36.83
543.721	36.92
543.919	37.07
544.116	37.28
544.313	37.34
544.51	37.48
544.708	37.56
544.905	37.72
545.102	37.81
545.299	37.8
545.496	37.92
545.693	37.98
545.891	37.92
546.088	37.87
546.285	37.82
546.482	37.78
546.679	37.75
546.876	37.72
547.073	37.64
547.27	37.58
547.467	37.55
547.664	37.42
547.861	37.38
548.058	37.43
548.255	37.49
548.452	37.41
548.649	37.46
548.846	37.55
549.043	37.48
549.24	37.46
549.437	37.51
549.633	37.54
549.83	37.59
550.027	37.68
550.224	37.76
550.421	37.73
550.618	37.67
550.814	37.66
551.011	37.57
551.208	37.67
551.405	37.56
551.601	37.53
551.798	37.43
551.995	37.45
552.191	37.39
552.388	37.32
552.585	37.35
552.781	37.4
552.978	37.35
553.175	37.4
553.371	37.35
553.568	37.43
553.764	37.54
553.961	37.67
554.157	37.71
554.354	37.73
554.55	37.81
554.747	37.86
554.943	37.81
555.14	37.77
555.336	37.71
555.533	37.7
555.729	37.83
555.926	37.75
556.122	37.77
556.318	37.75
556.515	37.71
556.711	37.59
556.907	37.38
557.104	37.52
557.3	37.69
557.496	37.72
557.693	37.73
557.889	37.7
558.085	37.56
558.281	37.47
558.478	37.56
558.674	37.65
558.87	37.61
559.066	37.77
559.262	37.77
559.459	37.67
559.655	37.64
559.851	37.69
560.047	37.68
560.243	37.85
560.439	37.89
560.635	37.77
560.831	37.82
561.027	37.93
561.223	37.96
561.419	37.89
561.615	37.9
561.811	37.93
562.007	37.96
562.203	37.99
562.399	37.98
562.595	38.04
562.791	38.07
562.987	38.03
563.183	37.97
563.379	38.11
563.575	38.14
563.771	38.18
563.966	38.12
564.162	38.13
564.358	38.11
564.554	38.13
564.75	38.13
564.945	38.09
565.141	37.95
565.337	37.99
565.533	37.8
565.728	37.86
565.924	37.9
566.12	37.95
566.315	37.98
566.511	37.99
566.707	37.93
566.902	37.97
567.098	38.02
567.293	38.08
567.489	38.17
567.684	38.17
567.88	38.13
568.076	38.07
568.271	38.09
568.467	38
568.662	37.98
568.858	37.95
569.053	37.89
569.248	37.92
569.444	38
569.639	37.93
569.835	38.09
570.03	38.21
570.225	38.2
570.421	38.24
570.616	38.19
570.812	38.3
571.007	38.42
571.202	38.45
571.397	38.3
571.593	38.29
571.788	38.27
571.983	38.13
572.178	38.11
572.374	38.15
572.569	38.13
572.764	38.31
572.959	38.25
573.154	38.25
573.35	38.29
573.545	38.45
573.74	38.45
573.935	38.48
574.13	38.51
574.325	38.47
574.52	38.51
574.715	38.57
574.91	38.5
575.105	38.5
575.3	38.52
575.495	38.55
575.69	38.63
575.885	38.73
576.08	38.78
576.275	38.92
576.47	39.01
576.665	39.08
576.86	39.13
577.055	39.15
577.25	39.22
577.444	39.3
577.639	39.42
577.834	39.44
578.029	39.39
578.224	39.47
578.418	39.52
578.613	39.52
578.808	39.44
579.003	39.46
579.197	39.39
579.392	39.48
579.587	39.47
579.781	39.44
579.976	39.48
580.171	39.47
580.365	39.37
580.56	39.34
580.755	39.35
580.949	39.4
581.144	39.45
581.338	39.75
581.533	39.66
581.727	39.71
581.922	39.78
582.116	39.81
582.311	39.77
582.505	39.97
582.7	40.09
582.894	40.21
583.089	40.27
583.283	40.38
583.478	40.38
583.672	40.43
583.866	40.46
584.061	40.48
584.255	40.54
584.449	40.54
584.644	40.62
584.838	40.69
585.032	40.73
585.226	40.9
585.421	40.85
585.615	40.93
585.809	41.03
586.003	41.08
586.198	40.98
586.392	41.11
586.586	41.41
586.78	41.37
586.974	41.24
587.168	41.13
587.363	41
587.557	40.97
587.751	40.86
587.945	40.85
588.139	40.9
588.333	40.92
588.527	40.78
588.721	40.55
588.915	40.49
589.109	40.49
589.303	40.6
589.497	40.61
589.691	40.67
589.885	40.71
590.079	40.77
590.273	40.7
590.466	40.69
590.66	40.84
590.854	41.05
591.048	41.14
591.242	41.14
591.436	41.13
591.629	41.2
591.823	41.18
592.017	41.26
592.211	41.23
592.404	41.39
592.598	41.44
592.792	41.38
592.986	41.25
593.179	41.26
593.373	41.4
593.567	41.49
593.76	41.48
593.954	41.43
594.147	41.44
594.341	41.38
594.535	41.36
594.728	41.33
594.922	41.29
595.115	41.29
595.309	41.15
595.502	41.02
595.696	40.91
595.889	40.89
596.083	40.86
596.276	40.67
596.47	40.8
596.663	40.67
596.856	40.66
597.05	40.6
597.243	40.72
597.437	40.9
597.63	40.99
597.823	41
598.017	40.97
598.21	41.12
598.403	41.27
598.596	41.08
598.79	41.21
598.983	41.35
599.176	41.32
599.369	41.33
599.563	41.15
599.756	41.21
599.949	41.27
600.142	41.35
600.335	41.44
600.528	41.53
600.722	41.54
600.915	41.55
601.108	41.67
601.301	41.78
601.494	41.67
601.687	41.83
601.88	41.77
602.073	41.79
602.266	41.93
602.459	41.76
602.652	41.66
602.845	41.79
603.038	41.69
603.231	41.45
603.424	41.45
603.617	41.55
603.809	41.55
604.002	41.59
604.195	41.63
604.388	41.52
604.581	41.55
604.774	41.65
604.966	41.6
605.159	41.72
605.352	41.79
605.545	41.78
605.737	41.67
605.93	41.79
606.123	41.75
606.316	41.7
606.508	41.88
606.701	41.9
606.894	41.91
607.086	42.18
607.279	42.29
607.471	42.56
607.664	42.95
607.857	43.37
608.049	43.64
608.242	44
608.434	44.47
608.627	45.03
608.819	45.7
609.012	46.58
609.204	47.35
609.397	48.2
609.589	48.95
609.782	49.91
609.974	50.87
610.166	51.83
610.359	52.96
610.551	53.83
610.743	54.53
610.936	55.39
611.128	55.84
611.32	56.21
611.513	56.59
611.705	57.01
611.897	56.85
612.09	56.61
612.282	56.4
612.474	55.82
612.666	55.33
612.858	54.96
613.051	54.41
613.243	53.89
613.435	53.35
613.627	52.71
613.819	52.08
614.011	51.64
614.203	51.27
614.395	50.87
614.588	50.68
614.78	50.36
614.972	49.94
615.164	49.43
615.356	49.05
615.548	48.58
615.74	48.25
615.932	48.15
616.124	47.69
616.315	47.35
616.507	46.97
616.699	46.43
616.891	46.25
617.083	45.85
617.275	45.84
617.467	45.66
617.659	45.7
617.85	45.69
618.042	45.32
618.234	45.38
618.426	45.49
618.618	45.32
618.809	45.38
619.001	45.41
619.193	45.54
619.384	45.37
619.576	45.21
619.768	45.07
619.959	44.9
620.151	44.81
620.343	44.88
620.534	44.64
620.726	44.86
620.917	44.88
621.109	44.89
621.301	44.96
621.492	44.87
621.684	45.08
621.875	45.18
622.067	45.12
622.258	45.27
622.45	45.29
622.641	45.41
622.832	45.48
623.024	45.64
623.215	45.72
623.407	45.73
623.598	45.92
623.789	46
623.981	45.99
624.172	46.04
624.363	46.12
624.555	46.03
624.746	46.15
624.937	46.02
625.129	45.75
625.32	45.5
625.511	45.43
625.702	45.38
625.893	45.25
626.085	45.1
626.276	44.99
626.467	44.97
626.658	44.92
626.849	44.66
627.04	44.59
627.231	44.78
627.422	44.74
627.614	44.81
627.805	44.8
627.996	44.76
628.187	44.98
628.378	45.28
628.569	45.33
628.76	45.64
628.951	46.05
629.142	46.23
629.332	46.4
629.523	46.71
629.714	46.71
629.905	46.96
630.096	47.3
630.287	47.45
630.478	47.3
630.669	47.28
630.859	47.15
631.05	46.96
631.241	46.96
631.432	46.8
631.623	46.72
631.813	46.83
632.004	46.38
632.195	46.13
632.385	45.99
632.576	45.94
632.767	45.8
632.957	45.69
633.148	45.51
633.339	45.31
633.529	45.25
633.72	45.22
633.91	44.94
634.101	45.01
634.292	44.85
634.482	44.77
634.673	44.73
634.863	44.71
635.054	44.66
635.244	44.67
635.435	44.71
635.625	44.76
635.815	44.75
636.006	44.81
636.196	44.89
636.387	44.94
636.577	44.89
636.767	44.92
636.958	45.02
637.148	44.93
637.338	44.96
637.529	44.92
637.719	44.8
637.909	44.68
638.099	44.77
638.29	44.8
638.48	44.87
638.67	45.04
638.86	45.16
639.05	45.17
639.241	45.48
639.431	45.56
639.621	45.65
639.811	45.78
640.001	45.95
640.191	46.06
640.381	46.2
640.571	46.33
640.761	46.19
640.951	46.26
641.141	46.41
641.331	46.28
641.521	46.32
641.711	46.48
641.901	46.5
642.091	46.63
642.281	46.48
642.471	46.41
642.661	46.36
642.851	46.56
643.041	46.54
643.231	46.48
643.42	46.52
643.61	46.34
643.8	46.29
643.99	46.13
644.18	46.24
644.369	46.25
644.559	46.25
644.749	46.26
644.939	46.12
645.128	46.03
645.318	46.06
645.508	45.86
645.697	46.27
645.887	46.24
646.076	46.42
646.266	46.19
646.456	46.31
646.645	46.41
646.835	46.45
647.024	46.55
647.214	46.52
647.403	46.53
647.593	46.57
647.782	46.35
647.972	46.49
648.161	46.59
648.351	46.57
648.54	46.78
648.73	46.57
648.919	46.65
649.108	46.71
649.298	46.85
649.487	46.84
649.677	47.02
649.866	47.11
650.055	47.15
650.244	47.19
650.434	47.4
650.623	47.14
650.812	47.44
651.002	47.24
651.191	47.32
651.38	47.28
651.569	47.34
651.758	47.3
651.947	47.44
652.137	47.5
652.326	47.41
652.515	47.26
652.704	47.33
652.893	47.32
653.082	47.59
653.271	47.43
653.46	47.35
653.649	47.16
653.838	47.27
654.027	47.09
654.216	46.81
654.405	46.84
654.594	46.74
654.783	46.68
654.972	46.5
655.161	46.42
655.35	46.48
655.539	46.83
655.728	46.84
655.916	46.87
656.105	46.81
656.294	47.05
656.483	47.21
656.672	47.25
656.86	47.28
657.049	47.5
657.238	47.46
657.427	47.55
657.615	47.1
657.804	47.39
657.993	47.29
658.181	47.13
658.37	47.05
658.559	46.82
658.747	46.89
658.936	46.86
659.125	46.62
659.313	46.78
659.502	46.67
659.69	47.12
659.879	46.94
660.067	47.07
660.256	47.29
660.444	47.38
660.633	47.48
660.821	47.57
661.01	47.62
661.198	47.83
661.387	47.68
661.575	47.89
661.763	47.85
661.952	48.12
662.14	48.16
662.328	48.26
662.517	48.24
662.705	48.25
662.893	48.35
663.082	48.61
663.27	48.72
663.458	48.9
663.646	49.02
663.834	48.94
664.023	48.92
664.211	48.98
664.399	48.96
664.587	48.9
664.775	49.17
664.963	49.06
665.152	48.91
665.34	48.85
665.528	48.48
665.716	48.45
665.904	48.49
666.092	48.22
666.28	48.4
666.468	48.39
666.656	48.5
666.844	48.42
667.032	48.44
667.22	48.63
667.408	48.77
667.596	49.07
667.784	48.87
667.971	48.82
668.159	49.06
668.347	48.83
668.535	48.84
668.723	48.84
668.911	48.95
669.098	49
669.286	48.87
669.474	48.83
669.662	48.83
669.849	49.02
670.037	48.98
670.225	48.85
670.413	48.99
670.6	49.3
670.788	49.35
670.976	49.18
671.163	49.3
671.351	49.15
671.538	49.13
671.726	49.39
671.913	49.44
672.101	49.78
672.289	50.02
672.476	49.8
672.664	49.74
672.851	49.71
673.039	49.92
673.226	50.02
673.413	50.22
673.601	50.24
673.788	50.12
673.976	50.08
674.163	49.9
674.35	50.07
674.538	50.35
674.725	50.19
674.912	50.3
675.1	50.36
675.287	50.23
675.474	50.3
675.662	50.63
675.849	50.44
676.036	50.54
676.223	50.63
676.411	50.38
676.598	50.49
676.785	50.45
676.972	50.46
677.159	50.31
677.346	50.38
677.533	50.33
677.721	50.12
677.908	50.17
678.095	50.07
678.282	49.88
678.469	49.58
678.656	49.37
678.843	49.69
679.03	49.74
679.217	49.54
679.404	49.46
679.591	49.49
679.778	49.39
679.964	49.27
680.151	49.41
680.338	49.41
680.525	49.58
680.712	49.66
680.899	49.63
681.086	49.6
681.272	49.73
681.459	49.85
681.646	49.97
681.833	50.01
682.02	50.2
682.206	50.13
682.393	50.1
682.58	50.29
682.766	50.19
682.953	50.29
683.14	50.23
683.326	50.34
683.513	50.36
683.7	50.58
683.886	50.76
684.073	51.07
684.259	50.94
684.446	51.1
684.632	51.26
684.819	51.22
685.005	51.11
685.192	51.26
685.378	51.54
685.565	51.91
685.751	51.73
685.938	51.55
686.124	51.67
686.31	51.71
686.497	51.89
686.683	51.64
686.87	52.17
687.056	52.07
687.242	51.96
687.429	51.59
687.615	51.12
687.801	51.05
687.987	51.24
688.174	50.91
688.36	50.9
688.546	50.78
688.732	51.19
688.918	51.05
689.105	50.81
689.291	50.97
689.477	51.32
689.663	51.39
689.849	51.37
690.035	51.23
690.221	51.78
690.407	51.94
690.593	52.08
690.779	51.87
690.965	51.63
691.151	52.01
691.337	51.92
691.523	51.76
691.709	52.09
691.895	52.17
692.081	52.23
692.267	51.74
692.453	52.04
692.639	51.94
692.825	52.19
693.011	52.27
693.196	52.39
693.382	52.45
693.568	52.57
693.754	52.4
693.94	52.89
694.125	52.91
694.311	52.99
694.497	52.73
694.682	52.83
694.868	52.69
695.054	52.7
695.239	52.43
695.425	52.72
695.611	52.92
695.796	52.45
695.982	52.01
696.168	52.17
696.353	52.1
696.539	52.18
696.724	52.37
696.91	51.92
697.095	51.92
697.281	51.97
697.466	51.82
697.652	51.35
697.837	51.65
698.023	51.4
698.208	51.34
698.393	51.21
698.579	51.14
698.764	50.91
698.949	51.04
699.135	50.92
699.32	50.8
699.505	50.51
699.691	50.68
699.876	50.81
700.061	50.89
700.246	50.7
700.432	50.76
700.617	50.76
700.802	50.79
700.987	51.11
701.172	51.19
701.358	51.53
701.543	51.82
701.728	52.02
701.913	51.91
702.098	52.32
702.283	52.79
702.468	52.62
702.653	52.97
702.838	53.31
703.023	53.77
703.208	53.97
703.393	54
703.578	54.29
703.763	54.13
703.948	54.67
704.133	54.68
704.318	54.58
704.503	55.52
704.688	55.91
704.873	56.15
705.057	55.92
705.242	56.57
705.427	56.92
705.612	56.92
705.797	57.48
705.981	57.38
706.166	57.85
706.351	58.3
706.536	58.48
706.72	58.41
706.905	58.66
707.09	58.55
707.274	58.29
707.459	58.28
707.644	58.87
707.828	58.87
708.013	58.63
708.197	58.73
708.382	58.88
708.567	58.65
708.751	58.53
708.936	58.32
709.12	58.37
709.305	58.25
709.489	57.88
709.673	57.87
709.858	57.66
710.042	58.07
710.227	57.81
710.411	57.87
710.596	57.77
710.78	57.73
710.964	57.58
711.149	57.54
711.333	57.78
711.517	57.93
711.702	57.81
711.886	57.79
712.07	57.45
712.254	57.22
712.438	56.91
712.623	56.63
712.807	56.6
712.991	56.89
713.175	56.91
713.359	56.6
713.544	56.6
713.728	56.22
713.912	56.03
714.096	55.76
714.28	55.85
714.464	55.6
714.648	55.47
714.832	55.34
715.016	54.53
715.2	54.4
715.384	54.48
715.568	54.21
715.752	53.84
715.936	54.11
716.12	53.82
716.304	53.42
716.488	53.64
716.671	53.79
716.855	53.72
717.039	53.78
717.223	53.74
717.407	53.91
717.59	53.83
717.774	54.17
717.958	54.05
718.142	54.4
718.325	54.76
718.509	54.3
718.693	54.11
718.877	53.82
719.06	54.02
719.244	53.82
719.428	53.49
719.611	53.93
719.795	53.63
719.978	53.14
720.162	53.11
720.345	53.05
720.529	53.3
720.713	53.73
720.896	54.1
721.08	54.31
721.263	54.19
721.446	54.45
721.63	54.28
721.813	54.47
721.997	55.05
722.18	54.86
722.364	55.05
722.547	54.68
722.73	54.55
722.914	54.53
723.097	54.63
723.28	55.04
723.464	54.64
723.647	54.65
723.83	54.25
724.013	54.07
724.197	54.19
724.38	54.35
724.563	54.92
724.746	54.6
724.929	54.5
725.112	54.57
725.296	54.79
725.479	54.69
725.662	54.19
725.845	54.76
726.028	54.54
726.211	54.68
726.394	54.18
726.577	54.13
726.76	54.27
726.943	54.35
727.126	54.05
727.309	53.87
727.492	54.02
727.675	54.31
727.858	54.06
728.041	54.42
728.224	54.37
728.407	54.43
728.589	54.66
728.772	54.68
728.955	54.92
729.138	54.76
729.321	54.75
729.503	55
729.686	55.01
729.869	55.39
730.052	55.15
730.234	55.16
730.417	55.52
730.6	55.04
730.782	54.78
730.965	53.87
731.148	53.87
731.33	53.53
731.513	53.37
731.695	53.51
731.878	53.44
732.061	53.77
732.243	54.37
732.426	54.31
732.608	54.55
732.791	55.32
732.973	56.07
733.156	56.21
733.338	56.5
733.52	56.76
733.703	57.03
733.885	57.05
734.068	56.79
734.25	56.28
734.432	56.46
734.615	56.23
734.797	55.98
734.979	56.41
735.162	56.01
735.344	56.05
735.526	55.66
735.708	55.57
735.891	55.71
736.073	56.08
736.255	56.13
736.437	55.57
736.619	55.64
736.802	55.67
736.984	54.9
737.166	55.81
737.348	56.05
737.53	56.26
737.712	56.23
737.894	56.25
738.076	55.71
738.258	55.73
738.44	55.84
738.622	56.18
738.804	56.35
738.986	56.7
739.168	57.15
739.35	57.04
739.532	57.2
739.714	57.01
739.896	57.17
740.078	57.63
740.259	57.82
740.441	57.84
740.623	57.82
740.805	57.54
740.987	57.89
741.168	57.36
741.35	57.32
741.532	57.74
741.714	58.45
741.895	57.86
742.077	58.17
742.259	58.69
742.44	58.78
742.622	58.83
742.804	59.08
742.985	58.63
743.167	58.24
743.348	58.48
743.53	57.51
743.711	57.04
743.893	57.87
744.075	57.85
744.256	57.59
744.438	58.06
744.619	58.13
744.8	58.15
744.982	57.98
745.163	58.38
745.345	58.41
745.526	59.16
745.707	58.83
745.889	58.51
746.07	58.24
746.252	58.36
746.433	58
746.614	58.74
746.795	59.08
746.977	59.35
747.158	58.99
747.339	59.2
747.52	59.52
747.702	60.62
747.883	60.71
748.064	60.88
748.245	60.53
748.426	60.59
748.607	59.32
748.788	58.55
748.97	58.65
749.151	58.43
749.332	57.81
749.513	57.73
749.694	56.78
749.875	56.9
750.056	57.13
750.237	57.5
750.418	58.06
750.599	57.99
750.78	58.39
750.96	58.38
751.141	59.33
751.322	60.12
751.503	59.8
751.684	59.9
751.865	59.7
752.046	59.2
752.226	58.53
752.407	58.19
752.588	58.61
752.769	58.11
752.949	58.59
753.13	58.28
753.311	57.54
753.492	56.77
753.672	57.39
753.853	57.22
754.034	57.91
754.214	58.61
754.395	57.97
754.575	57.86
754.756	58.45
754.937	58.16
755.117	58.62
755.298	58.99
755.478	59.72
755.659	59.75
755.839	59.93
756.02	59.53
756.2	59.41
756.381	60.4
756.561	60.18
756.741	59.9
756.922	59.11
757.102	57.69
757.283	58.18
757.463	58.01
757.643	57.44
757.823	56.78
758.004	56.35
758.184	55.97
758.364	54.94
758.545	55.06
758.725	54.8
758.905	54.99
759.085	54.87
759.265	53.73
759.446	53.37
759.626	53.08
759.806	53.08
759.986	53.12
760.166	52.48
760.346	52.46
760.526	52.57
760.706	52.37
760.886	52.04
761.066	52.54
761.246	52.18
761.426	52.27
761.606	52.22
761.786	52.07
761.966	52.11
762.146	52.68
762.326	53.08
762.506	52.9
762.686	52.77
762.866	53.43
763.046	53.34
763.225	54.01
763.405	53.42
763.585	53.6
763.765	54.06
763.945	54.12
764.124	54.15
764.304	53.88
764.484	54.12
764.664	54.22
764.843	53.97
765.023	54.07
765.203	54.19
765.382	55.1
765.562	55.57
765.741	55.32
765.921	54.97
766.101	55.11
766.28	54.92
766.46	55.18
766.639	55.75
766.819	55.87
766.998	56.47
767.178	56.29
767.357	56.36
767.537	56.21
767.716	56.84
767.896	57.75
768.075	57.55
768.254	58.69
768.434	58.78
768.613	58.92
768.792	59.15
768.972	59.5
769.151	59.42
769.33	59.67
769.51	59.78
769.689	59.65
769.868	59.73
770.047	59.69
770.226	59.56
770.406	59.14
770.585	59.59
770.764	59.8
770.943	59.76
771.122	59.68
771.301	59.09
771.48	58.73
771.66	59.19
771.839	58.52
772.018	60.23
772.197	60.6
772.376	60.66
772.555	60.69
772.734	60.95
772.913	60.9
773.092	61.83
773.271	62.54
773.449	62.69
773.628	62.45
773.807	63.36
773.986	62.28
774.165	62.07
774.344	62.24
774.523	61.54
774.701	60.55
774.88	59.64
775.059	59.92
775.238	59.58
775.417	60.15
775.595	60.12
775.774	60.79
775.953	60.66
776.131	60.5
776.31	61.79
776.489	62.14
776.667	62.34
776.846	63.69
777.025	63.72
777.203	63.95
777.382	63.81
777.56	63.91
777.739	63.71
777.917	63.4
778.096	63.62
778.274	62.96
778.453	62.81
778.631	63.52
778.81	63.44
778.988	63.49
779.166	63.5
779.345	63.44
779.523	63.8
779.702	62.87
779.88	63.67
780.058	63.47
780.237	61.86
780.415	62.45
780.593	61.54
780.771	61.08
780.95	60.85
781.128	60
781.306	59.57
781.484	59.43
781.662	59.26
781.841	58.94
782.019	58.89
782.197	59.8
782.375	59.79
782.553	60.78
782.731	61.13
782.909	60.1
783.087	61.19
783.265	61.03
783.443	60.54
783.621	60.35
783.799	61.34
783.977	61.39
784.155	62.29
784.333	62.21
784.511	61.75
784.689	61.43
784.867	61.66
785.045	62.32
785.223	62.1
785.4	62.58
785.578	63.65
785.756	63.25
785.934	63.78
786.112	62.83
786.289	62.45
786.467	61.63
786.645	61.63
786.823	61.44
787	60.43
787.178	61.94
787.356	61.34
787.533	60.36
787.711	59.4
787.889	59.33
788.066	59.15
788.244	58.85
788.421	58.87
788.599	58.3
788.776	58.17
788.954	58.68
789.131	57.01
789.309	57.18
789.486	57.17
789.664	57.72
789.841	57.23
790.019	57.07
790.196	57.85
790.373	58.59
790.551	58.88
790.728	59.58
790.906	59.06
791.083	61.04
791.26	60.62
791.437	60.53
791.615	60.67
791.792	61.26
791.969	61.26
792.146	60.78
792.324	60.92
792.501	60.97
792.678	61.4
792.855	61.09
793.032	59.53
793.209	60.72
793.387	61.63
793.564	60.51
793.741	59.3
793.918	60.51
794.095	60.45
794.272	60
794.449	59.15
794.626	58.83
794.803	60.32
794.98	60.88
795.157	60.2
795.334	60.13
795.511	60.97
795.688	61.33
795.864	60.75
796.041	60.62
796.218	60.87
796.395	61.39
796.572	61.97
796.749	61.18
796.925	60.94
797.102	60.74
797.279	60.04
797.456	59.73
797.632	59.45
797.809	59.27
797.986	59.45
798.162	58.92
798.339	58.64
798.516	57.11
798.692	56.57
798.869	56.2
799.046	55.31
799.222	55.58
799.399	55.36
799.575	55.32
799.752	55.4
799.928	55.43
800.105	55.38
800.281	55.33
800.458	55.63
800.634	56.1
800.811	55.12
800.987	57.17
801.163	57.14
801.34	57.34
801.516	57.82
801.692	57.31
801.869	56.7
802.045	56.87
802.221	57.56
802.398	57.79
802.574	57.57
802.75	59.12
802.926	57.48
803.103	58.3
803.279	59.01
803.455	58.77
803.631	59.53
803.807	60.54
803.983	61.81
804.16	61.43
804.336	61.65
804.512	61.01
804.688	59.65
804.864	61.34
805.04	61.25
805.216	59.68
805.392	60.79
805.568	60.65
805.744	60.28
805.92	58.28
806.096	59.05
806.272	59.56
806.448	59.83
806.623	60.54
806.799	58.71
806.975	58.31
807.151	59.44
807.327	59.14
807.503	59.06
807.678	59.14
807.854	59.94
808.03	58.81
808.206	58.14
808.381	58.06
808.557	57.49
808.733	57.7
808.908	58.08
809.084	57.4
809.26	56.67
809.435	56.03
809.611	56.35
809.787	57.37
809.962	57.2
810.138	57.32
810.313	57.45
810.489	59.16
810.664	58.84
810.84	58.4
811.015	59.42
811.191	60.12
811.366	61.59
811.542	61.14
811.717	59.56
811.892	60.61
812.068	60.67
812.243	60.96
812.419	60.53
812.594	60.49
812.769	61.23
812.944	61.08
813.12	60.58
813.295	59.41
813.47	58.01
813.645	58.65
813.821	59.32
813.996	58.65
814.171	58.81
814.346	57.96
814.521	58.18
814.697	56.48
814.872	55.34
815.047	54.8
815.222	55.42
815.397	55.37
815.572	54.56
815.747	54.2
815.922	54.46
816.097	53.23
816.272	55.08
816.447	55.71
816.622	57.58
816.797	57.49
816.972	57.02
817.147	55.92
817.322	56.85
817.496	56.72
817.671	56.25
817.846	55.02
818.021	55.36
818.196	53.55
818.371	53.14
818.545	52.08
818.72	52.44
818.895	51.71
819.069	51.58
819.244	51.57
819.419	50.64
819.594	50.21
819.768	50.24
819.943	49.51
820.117	49.08
820.292	48.36
820.467	47.61
820.641	47.52
820.816	47.71
820.99	47.75
821.165	47.16
821.339	47.66
821.514	47.11
821.688	46.58
821.863	46.6
822.037	46.42
822.212	46.05
822.386	46.07
822.56	45.71
822.735	45.83
822.909	45.49
823.084	45.46
823.258	45
823.432	45.12
823.606	45.18
823.781	45.02
823.955	44.87
824.129	45.15
824.303	44.95
824.478	45.13
824.652	44.88
824.826	45.12
825	44.77
825.174	45.29
825.348	45.4
825.523	45.45
825.697	45.43
825.871	45.94
826.045	46.03
826.219	45.42
826.393	45.64
826.567	45.48
826.741	45.48
826.915	45.93
827.089	45.56
827.263	44.98
827.437	45
827.611	45.06
827.784	44.6
827.958	44.28
828.132	45.09
828.306	44.68
828.48	44.84
828.654	44.64
828.827	44.69
829.001	45.08
829.175	45.67
829.349	45.97
829.522	45.45
829.696	45.61
829.87	46.56
830.044	47.74
830.217	48.2
830.391	48.13
830.565	48.94
830.738	48.96
830.912	48.48
831.085	47.71
831.259	48.22
831.432	49.15
831.606	49.31
831.779	47.52
831.953	46.21
832.126	45.79
832.3	46.26
832.473	45.52
832.647	45.44
832.82	46.46
832.994	47.09
833.167	46.41
833.34	46.29
833.514	46.89
833.687	47.09
833.86	46.05
834.034	46.39
834.207	46.48
834.38	46.91
834.553	46.88
834.727	46.02
834.9	45.6
835.073	45.43
835.246	45.81
835.419	45.27
835.593	44.71
835.766	46.16
835.939	46.18
836.112	46.73
836.285	46.65
836.458	46.37
836.631	47.17
836.804	47.64
836.977	49.64
837.15	49.9
837.323	50.53
837.496	54.02
837.669	54.51
837.842	55.47
838.015	53.73
838.188	53.2
838.361	55.31
838.533	55.62
838.706	56.35
838.879	55.54
839.052	55.23
839.225	54.89
839.398	53.2
839.57	52.03
839.743	51.91
839.916	52.27
840.088	52.86
840.261	52.09
840.434	50.68
840.607	50.88
840.779	50.37
840.952	50.96
841.124	51.62
841.297	51.56
841.47	50.8
841.642	50.86
841.815	49.93
841.987	51.35
842.16	51.63
842.332	50.59
842.505	50.06
842.677	51.58
842.85	51.95
843.022	52.7
843.194	53.81
843.367	56.86
843.539	56.35
843.712	60.08
843.884	59.07
844.056	58.93
844.229	64.53
844.401	66.69
844.573	66.21
844.745	64.85
844.918	65.96
845.09	66.71
845.262	66.7
845.434	65.46
845.606	61.71
845.779	60.45
845.951	62.95
846.123	62.17
846.295	61.24
846.467	61.33
846.639	64.16
846.811	60.87
846.983	58.62
847.155	59.03
847.327	59.48
847.499	61
847.671	63.04
847.843	60.54
848.015	58.41
848.187	56.24
848.359	57.06
848.531	55.9
848.703	58.2
848.875	59.02
849.047	55.39
849.218	58.7
849.39	60.16
849.562	59.51
849.734	59.36
849.905	63.02
850.077	67.71
850.249	65.75
850.421	65.32
850.592	66.28
850.764	69.05
850.936	69.87
851.107	65.46
851.279	64.9
851.451	67.17
851.622	69.49
851.794	65.77
851.965	63.99
852.137	62.58
852.308	63.49
852.48	62.91
852.651	63.49
852.823	63.94
852.994	66.61
853.166	68.86
853.337	63.7
853.509	67.85
853.68	68.62
853.851	72.47
854.023	76.13
854.194	74.9
854.365	69.98
854.537	65.99
854.708	69.83
854.879	71.97
855.05	71.8
855.222	75.4
855.393	68.47
855.564	67.6
855.735	64.52
855.906	63.35
856.078	62.72
856.249	69.01
856.42	68.35
856.591	66.81
856.762	62.82
856.933	58.88
857.104	56.66
857.275	57.32
857.446	59.58
857.617	57.02
857.788	58.75
857.959	59.95
858.13	59.33
858.301	65.64
858.472	63.07
858.643	61.63
858.814	67.97
858.985	69.4
859.155	68.34
859.326	71.91
859.497	72.21
859.668	68.37
859.839	69.96
860.009	68.17
860.18	58.44
860.351	59.23
860.522	60.43
860.692	59.48
860.863	62.74
861.034	60.96
861.204	56.85
861.375	61.86
861.546	61.17
861.716	59.01
861.887	61.33
862.057	65.97
862.228	69.89
862.398	71.61
862.569	69.07
862.739	68.42
862.91	71.44
863.08	69.87
863.251	66.92
863.421	73.82
863.592	70.25
863.762	69.46
863.932	65.28
864.103	58.83
864.273	58.34
864.443	60.08
864.614	57
864.784	54.41
864.954	55.18
865.125	56.44
865.295	51.57
865.465	53.52
865.635	54.42
865.805	58.71
865.976	60.34
866.146	60.02
866.316	57.05
866.486	59.33
866.656	63.01
866.826	59.58
866.996	55.54
867.166	56.64
867.336	59.9
867.506	57.55
867.676	55.44
867.846	53.64
868.016	52.2
868.186	49.64
868.356	45.1
868.526	44.46
868.696	46.55
868.866	45.85
869.036	43.9
869.206	42.52
869.376	45.63
869.545	44.7
869.715	45.81
869.885	45.46
870.055	48.45
870.224	51.25
870.394	50.19
870.564	52.18
870.734	56.8
870.903	56.22
871.073	56.74
871.243	55.9
871.412	58.79
871.582	60.24
871.751	62.58
871.921	62.44
872.091	64.9
872.26	63.81
872.43	63.92
872.599	63.15
872.769	60.32
872.938	56.01
873.108	56.59
873.277	55.06
873.446	54.98
873.616	51.94
873.785	51.69
873.955	48.45
874.124	49.78
874.293	47.66
874.463	48.17
874.632	53.4
874.801	52.98
874.971	47.89
875.14	45.14
875.309	47.36
875.478	49.16
875.647	49.86
875.817	51.63
875.986	54.78
876.155	53.85
876.324	52.65
876.493	53.34
876.662	57.52
876.831	56.76
877	56.77
877.17	57.43
877.339	58.18
877.508	58.65
877.677	59.23
877.846	55.02
878.015	59.49
878.184	60.47
878.352	59.77
878.521	54.45
878.69	56.55
878.859	56.64
879.028	54.73
879.197	52.25
879.366	50.81
879.534	47.17
879.703	44.09
879.872	41.6
880.041	40.55
880.21	39.23
880.378	40.04
880.547	39.22
880.716	39.82
880.884	38.99
881.053	38.1
881.222	37.86
881.39	38.36
881.559	38.27
881.727	37.74
881.896	36.67
882.065	36.75
882.233	36.89
882.402	36.67
882.57	36.39
882.739	36.35
882.907	36.91
883.076	36.83
883.244	36.7
883.412	37.51
883.581	37.83
883.749	37.85
883.918	38.21
884.086	37.5
884.254	38.25
884.423	37.86
884.591	37.63
884.759	38.62
884.927	39.35
885.096	38.86
885.264	38.85
885.432	38.69
885.6	39.08
885.769	38.6
885.937	40.48
886.105	41
886.273	42.7
886.441	46.36
886.609	46.78
886.777	46.84
886.945	49.78
887.113	51.02
887.281	51.36
887.449	54.41
887.617	54.72
887.785	54.17
887.953	51.03
888.121	53.21
888.289	51.2
888.457	48.22
888.625	49.93
888.793	49.35
888.961	49.56
889.129	51.77
889.296	50.14
889.464	51.28
889.632	52.95
889.8	58.88
889.967	54.1
890.135	52.88
