Data from 2938756__Reflection_02.txt Node
Date: Fri Mar 13 18:57:37 EDT 2015
User: robert
Spectrometer: USB4E03002
Autoset integration time: false
Trigger mode: 4
Integration Time (sec): 1.000000E-1
Scans to average: 10
Electric dark correction enabled: false
Nonlinearity correction enabled: false
Boxcar width: 5
Stray light correction enabled: false
XAxis mode: Wavelengths
Stop averaging: false
Number of Pixels in Spectrum: 3648
>>>>>Begin Spectral Data<<<<<
177.575	-202.27
177.794	-2364.29
178.014	-75
178.233	-35.14
178.452	23000
178.672	146.24
178.891	101.08
179.11	67.42
179.33	86.18
179.549	251.81
179.768	101.9
179.987	98.92
180.207	-259.09
180.426	46.01
180.645	473.33
180.864	113.33
181.084	-9.48
181.303	-21.87
181.522	-24.3
181.741	-7.86
181.96	43.41
182.179	49.1
182.398	80.73
182.618	42.49
182.837	52.22
183.056	140.25
183.275	100
183.494	151.92
183.713	544.44
183.932	875
184.151	-42000
184.37	-91.1
184.589	-99.64
184.808	-35.03
185.027	-77.95
185.246	-9.64
185.465	-76.21
185.684	-44.96
185.903	3.51
186.122	-6.31
186.341	-62.79
186.56	515.38
186.779	36.07
186.998	42.48
187.216	57.22
187.435	34.78
187.654	77.51
187.873	67.58
188.092	56.98
188.311	75.2
188.53	89.54
188.748	74.3
188.967	97.42
189.186	258.6
189.405	-233.33
189.623	-77.57
189.842	-130.22
190.061	-134.74
190.28	-21.68
190.498	7.51
190.717	29.58
190.936	48.37
191.154	76.83
191.373	102.73
191.592	155.14
191.81	-3162.5
192.029	-1022.5
192.248	-198.73
192.466	-155.33
192.685	-91.85
192.904	-180.47
193.122	-342.55
193.341	-265.79
193.559	323.08
193.778	172.73
193.996	69.74
194.215	-34.07
194.433	-14.95
194.652	47.22
194.87	-100
195.089	118.29
195.307	-274.19
195.526	-2.08
195.744	-13.08
195.963	-34.93
196.181	20.12
196.399	24.81
196.618	8.93
196.836	38.51
197.055	13.44
197.273	-23.56
197.491	14.66
197.71	54.88
197.928	-28.48
198.146	28.85
198.365	122.22
198.583	-16.67
198.801	54.42
199.019	71.17
199.238	12.54
199.456	27.25
199.674	45.69
199.892	39.95
200.111	58.89
200.329	104.81
200.547	130.46
200.765	106.56
200.983	113.73
201.202	99.11
201.42	85.01
201.638	40.8
201.856	85.66
202.074	112.14
202.292	90.38
202.51	55.02
202.728	54.42
202.946	63.25
203.165	110.57
203.383	123.71
203.601	-102.17
203.819	48.34
204.037	132.5
204.255	103.13
204.473	58.98
204.691	51.8
204.909	92.58
205.127	65.22
205.345	42.4
205.562	11.36
205.78	14.01
205.998	43.16
206.216	10.69
206.434	3.04
206.652	-0.92
206.87	25.18
207.088	40.31
207.306	5.87
207.523	-1.19
207.741	13.46
207.959	45.88
208.177	30.7
208.395	36.66
208.612	13.16
208.83	-5.16
209.048	-8.4
209.266	-39.86
209.483	-45.06
209.701	-37.19
209.919	12.2
210.136	7.74
210.354	3.22
210.572	30.51
210.79	21.09
211.007	45.71
211.225	39.1
211.442	8.98
211.66	52.29
211.878	58.11
212.095	64.71
212.313	96.22
212.53	78.71
212.748	52.95
212.966	51.46
213.183	40.37
213.401	29.48
213.618	51.41
213.836	89.08
214.053	57.64
214.271	44.2
214.488	52.26
214.705	10.79
214.923	22.02
215.14	12.02
215.358	21.14
215.575	47.81
215.793	51.55
216.01	56.21
216.227	60.73
216.445	60.7
216.662	64.32
216.879	63.85
217.097	74.18
217.314	51.28
217.531	82.73
217.749	84.06
217.966	55.81
218.183	52.01
218.4	43.14
218.618	39.9
218.835	31.98
219.052	34.99
219.269	7.77
219.487	12.19
219.704	26.39
219.921	12.97
220.138	7.89
220.355	9.94
220.572	10.97
220.79	8.48
221.007	6.32
221.224	7.32
221.441	13.22
221.658	18.44
221.875	13.69
222.092	23.83
222.309	26.45
222.526	26.26
222.743	23.36
222.96	17.84
223.177	16.27
223.394	13.77
223.611	10.8
223.828	7.02
224.045	2.12
224.262	4.58
224.479	3.49
224.696	3.02
224.913	3.47
225.13	4.69
225.347	7.61
225.564	7.17
225.781	7.68
225.997	9.52
226.214	8.12
226.431	7.23
226.648	9.83
226.865	5.79
227.082	5.69
227.298	7.2
227.515	7.91
227.732	7.95
227.949	7.31
228.165	8.21
228.382	8.76
228.599	8.51
228.816	8.16
229.032	7.37
229.249	7.14
229.466	7.63
229.682	7.06
229.899	7.74
230.116	6.66
230.332	6.65
230.549	6.11
230.765	4.65
230.982	4.35
231.199	4.86
231.415	4.2
231.632	4.9
231.848	4.99
232.065	3.59
232.281	2.02
232.498	2.89
232.714	4.23
232.931	4.16
233.147	4.93
233.364	4.79
233.58	4.22
233.797	3.81
234.013	3.67
234.23	2.54
234.446	3.69
234.662	2.57
234.879	1.53
235.095	3.24
235.312	3.35
235.528	3.27
235.744	2.59
235.961	3.94
236.177	4.34
236.393	4.81
236.61	3.76
236.826	4.39
237.042	5.15
237.258	5.94
237.475	5.3
237.691	3.8
237.907	2.47
238.123	4.55
238.339	2.47
238.556	3.39
238.772	2.41
238.988	2.81
239.204	2.38
239.42	2.45
239.636	3.16
239.853	2.75
240.069	5.04
240.285	6.2
240.501	6.57
240.717	6.35
240.933	5.76
241.149	5.97
241.365	6.3
241.581	6.16
241.797	5.71
242.013	5.54
242.229	5.21
242.445	4.81
242.661	4.45
242.877	4.19
243.093	4.7
243.309	5.2
243.525	5.4
243.741	5.2
243.957	5.14
244.173	6.39
244.388	6.34
244.604	5.48
244.82	5.25
245.036	5.56
245.252	4.89
245.468	5.09
245.683	4.52
245.899	4.22
246.115	4.14
246.331	4.09
246.547	3.72
246.762	3.9
246.978	4.35
247.194	4.01
247.409	4.06
247.625	4.14
247.841	3.7
248.057	3.66
248.272	3.94
248.488	3.99
248.703	4.14
248.919	3.59
249.135	3.53
249.35	3.17
249.566	3.6
249.782	3.59
249.997	3.93
250.213	4.35
250.428	4.59
250.644	4.56
250.859	4.18
251.075	3.88
251.29	4.51
251.506	4.14
251.721	4.85
251.937	5.34
252.152	4.81
252.368	4.89
252.583	5.32
252.798	5.51
253.014	5.18
253.229	5.35
253.445	5.66
253.66	5.82
253.875	5.99
254.091	6.18
254.306	6.02
254.521	6.26
254.737	6.33
254.952	5.9
255.167	5.71
255.383	4.96
255.598	4.75
255.813	3.33
256.028	2.83
256.244	3.31
256.459	3.25
256.674	1.83
256.889	2.21
257.104	2.13
257.32	2.35
257.535	2.03
257.75	2.04
257.965	2.14
258.18	2.77
258.395	3.2
258.61	2.67
258.826	2.2
259.041	2.39
259.256	2.4
259.471	2.14
259.686	2.05
259.901	2.24
260.116	2.53
260.331	2.47
260.546	2.68
260.761	2.33
260.976	2.47
261.191	2.49
261.406	2.9
261.621	2.8
261.836	2.75
262.05	2.57
262.265	2.24
262.48	1.84
262.695	2.22
262.91	2.09
263.125	2.41
263.34	2.25
263.555	2.41
263.769	1.17
263.984	1.38
264.199	1.48
264.414	2.09
264.629	2.68
264.843	2.66
265.058	2.36
265.273	2.39
265.488	2.64
265.702	2.88
265.917	2.86
266.132	3.44
266.346	3.13
266.561	3.75
266.776	3.73
266.99	4.06
267.205	4.24
267.42	4
267.634	4.21
267.849	4.38
268.063	4.59
268.278	4.65
268.492	4.16
268.707	4.63
268.922	4.09
269.136	3.56
269.351	2.69
269.565	2.38
269.78	2.52
269.994	2.19
270.209	1.78
270.423	2.08
270.637	2.32
270.852	2.78
271.066	2.52
271.281	2.63
271.495	2.9
271.709	2.94
271.924	2.9
272.138	2.89
272.353	3.01
272.567	3.13
272.781	2.67
272.996	2.29
273.21	2.44
273.424	2.65
273.638	2.56
273.853	2.53
274.067	3.1
274.281	3.12
274.495	3.21
274.71	3.09
274.924	3.59
275.138	3.87
275.352	3.91
275.566	3.94
275.781	3.2
275.995	3.11
276.209	3.3
276.423	2.87
276.637	3.51
276.851	3.6
277.065	3.59
277.279	2.51
277.493	2.51
277.707	2.35
277.921	2.24
278.135	2.66
278.349	3.13
278.563	3.04
278.777	3.13
278.991	2.26
279.205	2.35
279.419	2.06
279.633	2.87
279.847	2.39
280.061	2.9
280.275	3.12
280.489	3.3
280.703	3.62
280.917	3.43
281.131	3.48
281.344	3.73
281.558	3.83
281.772	3.96
281.986	3.9
282.2	4.01
282.414	3.88
282.627	3.79
282.841	3.7
283.055	3.27
283.269	3.08
283.482	2.81
283.696	3.16
283.91	2.6
284.123	2.47
284.337	2.5
284.551	2.42
284.764	2.39
284.978	2.42
285.192	2.26
285.405	2.32
285.619	2.58
285.833	2.85
286.046	2.78
286.26	3.01
286.473	3.07
286.687	2.83
286.9	2.96
287.114	3.19
287.327	2.87
287.541	3.23
287.754	2.95
287.968	2.9
288.181	2.66
288.395	2.67
288.608	2.67
288.822	2.84
289.035	2.9
289.248	2.88
289.462	2.48
289.675	2.4
289.889	2.19
290.102	2.32
290.315	2.17
290.529	2.08
290.742	2.03
290.955	2.42
291.169	2.55
291.382	2.69
291.595	2.95
291.808	3.11
292.022	3.58
292.235	3.79
292.448	3.87
292.661	3.85
292.875	4.15
293.088	4.44
293.301	4.09
293.514	3.86
293.727	3.82
293.94	3.17
294.153	3.48
294.367	3.28
294.58	3.36
294.793	3.48
295.006	3.79
295.219	3.53
295.432	3.38
295.645	3.26
295.858	3.24
296.071	3.09
296.284	3.82
296.497	3.6
296.71	3.85
296.923	3.81
297.136	3.82
297.349	3.9
297.562	3.94
297.775	3.85
297.988	4.27
298.201	4.48
298.414	4.7
298.626	4.5
298.839	4.68
299.052	4.76
299.265	4.75
299.478	4.67
299.691	4.21
299.903	4.17
300.116	4.43
300.329	4.23
300.542	4.11
300.755	4.08
300.967	4.36
301.18	4.24
301.393	4.14
301.605	3.97
301.818	3.76
302.031	4.09
302.243	4.24
302.456	4.14
302.669	3.86
302.881	3.74
303.094	3.9
303.307	3.52
303.519	3.69
303.732	3.52
303.944	3.71
304.157	3.94
304.37	4.19
304.582	4.25
304.795	4
305.007	4.38
305.22	4.42
305.432	4.45
305.645	4.38
305.857	4.4
306.069	4.56
306.282	4.62
306.494	5.03
306.707	4.91
306.919	5.49
307.132	5.36
307.344	5.26
307.556	5.68
307.769	5.49
307.981	5.66
308.193	5.64
308.406	5.79
308.618	5.8
308.83	5.3
309.043	5.34
309.255	4.88
309.467	5.06
309.679	5.08
309.892	4.8
310.104	4.86
310.316	4.84
310.528	4.95
310.74	4.68
310.953	4.43
311.165	4.46
311.377	4.42
311.589	4.54
311.801	4.54
312.013	4.47
312.225	4.39
312.437	4.43
312.649	4.2
312.862	3.98
313.074	4.15
313.286	4.37
313.498	4.82
313.71	5.01
313.922	5.04
314.134	5.31
314.346	5.56
314.558	5.84
314.77	6.12
314.982	6.26
315.193	6.11
315.405	5.86
315.617	6.1
315.829	5.63
316.041	5.87
316.253	5.82
316.465	5.66
316.677	5.6
316.888	5.19
317.1	5.03
317.312	5.14
317.524	5.31
317.736	5.6
317.947	5.32
318.159	5.59
318.371	5.27
318.583	5.37
318.794	5.47
319.006	5.51
319.218	5.78
319.43	5.87
319.641	6.24
319.853	6.25
320.064	6.31
320.276	6.28
320.488	6.47
320.699	6.58
320.911	6.33
321.123	6.51
321.334	6.36
321.546	5.88
321.757	5.79
321.969	5.59
322.18	5.65
322.392	5.96
322.603	5.9
322.815	5.67
323.026	5.81
323.238	6.16
323.449	5.61
323.661	5.38
323.872	5.93
324.083	5.84
324.295	6.15
324.506	6.27
324.718	6.06
324.929	6.35
325.14	6.74
325.352	6.38
325.563	6.45
325.774	6.59
325.986	7.25
326.197	7.51
326.408	7.89
326.62	7.64
326.831	7.77
327.042	7.79
327.253	7.62
327.464	8.06
327.676	8.43
327.887	8.87
328.098	9.08
328.309	9.39
328.52	9.36
328.732	9.13
328.943	9.02
329.154	9.17
329.365	9.05
329.576	9.52
329.787	8.96
329.998	9.08
330.209	8.58
330.42	8.93
330.631	7.95
330.842	8.18
331.053	8.41
331.264	8.69
331.475	8.64
331.686	8.99
331.897	8.74
332.108	8.99
332.319	8.76
332.53	9.09
332.741	8.8
332.952	9.2
333.163	9
333.374	9.23
333.585	9.18
333.795	9.55
334.006	8.95
334.217	9.26
334.428	9.07
334.639	9.48
334.849	9.21
335.06	9.28
335.271	9.17
335.482	9.12
335.692	8.93
335.903	9.01
336.114	9.13
336.325	9.77
336.535	9.55
336.746	9.73
336.957	9.31
337.167	9.16
337.378	9.38
337.589	9.6
337.799	9.4
338.01	9.14
338.22	9.17
338.431	8.87
338.642	8.96
338.852	8.97
339.063	8.6
339.273	8.7
339.484	8.88
339.694	8.96
339.905	8.59
340.115	9.08
340.326	9.26
340.536	9.14
340.746	9.09
340.957	9.02
341.167	8.91
341.378	9.04
341.588	8.94
341.799	8.73
342.009	8.59
342.219	8.85
342.43	8.72
342.64	8.71
342.85	8.82
343.061	8.74
343.271	8.23
343.481	8.25
343.691	8.23
343.902	8.54
344.112	8.62
344.322	8.61
344.532	8.76
344.743	8.69
344.953	8.49
345.163	8.42
345.373	8.34
345.583	8.58
345.793	8.61
346.004	8.6
346.214	8.4
346.424	8.57
346.634	8.76
346.844	8.65
347.054	8.43
347.264	8.46
347.474	8.83
347.684	8.66
347.894	8.78
348.104	9.09
348.314	8.91
348.524	8.9
348.734	8.74
348.944	8.74
349.154	8.97
349.364	9.26
349.574	9.64
349.784	9.25
349.994	9.57
350.204	9.49
350.413	9.36
350.623	9.41
350.833	9.24
351.043	9.53
351.253	9.62
351.463	9.55
351.672	9.21
351.882	8.74
352.092	9.11
352.302	9
352.511	9.07
352.721	8.94
352.931	9.16
353.141	9.45
353.35	9.04
353.56	8.84
353.77	8.36
353.979	8.57
354.189	8.45
354.399	7.93
354.608	7.68
354.818	7.69
355.027	7.56
355.237	7.31
355.447	7.18
355.656	7.49
355.866	7.49
356.075	7.77
356.285	7.94
356.494	8.1
356.704	8.33
356.913	8.42
357.123	8.35
357.332	8.48
357.542	8.59
357.751	8.53
357.96	8.4
358.17	8.44
358.379	8.32
358.589	8.21
358.798	8.37
359.007	8.3
359.217	8.3
359.426	8.24
359.635	8.06
359.845	8.11
360.054	8.24
360.263	8.27
360.472	8.05
360.682	7.92
360.891	7.68
361.1	7.82
361.309	7.73
361.519	7.7
361.728	7.79
361.937	7.78
362.146	7.68
362.355	7.45
362.564	7.44
362.774	7.58
362.983	7.5
363.192	7.55
363.401	7.18
363.61	7.16
363.819	7.23
364.028	7.16
364.237	7.16
364.446	7
364.655	7.25
364.864	7.16
365.073	7.13
365.282	7.48
365.491	7.43
365.7	7.75
365.909	7.8
366.118	7.9
366.327	7.92
366.536	7.97
366.745	8.35
366.954	8.26
367.162	8.32
367.371	8.24
367.58	7.82
367.789	7.92
367.998	7.68
368.207	7.87
368.415	7.43
368.624	7.34
368.833	7.52
369.042	7.37
369.25	7.27
369.459	7.05
369.668	6.99
369.877	7.27
370.085	7.33
370.294	7.33
370.503	7.27
370.711	7.7
370.92	7.68
371.129	7.38
371.337	7.28
371.546	7.3
371.754	7.19
371.963	7.47
372.171	7.41
372.38	7.52
372.589	7.63
372.797	7.47
373.006	7.45
373.214	7.44
373.423	7.4
373.631	7.58
373.84	7.56
374.048	7.36
374.256	7.21
374.465	6.91
374.673	6.87
374.882	6.64
375.09	6.73
375.298	6.56
375.507	6.6
375.715	6.66
375.923	6.58
376.132	6.56
376.34	6.89
376.548	6.72
376.757	6.95
376.965	6.85
377.173	6.73
377.381	6.73
377.59	6.64
377.798	6.5
378.006	6.63
378.214	6.47
378.423	6.5
378.631	6.54
378.839	6.47
379.047	6.33
379.255	6.16
379.463	6.26
379.671	6.1
379.879	6.19
380.088	6.36
380.296	6.03
380.504	5.91
380.712	5.59
380.92	5.44
381.128	5.38
381.336	5.39
381.544	5.63
381.752	5.46
381.96	5.47
382.168	5.22
382.376	5.11
382.584	5.17
382.791	5.05
382.999	5.29
383.207	5.43
383.415	5.29
383.623	5.29
383.831	5.15
384.039	5.39
384.247	5.35
384.454	5.43
384.662	5.28
384.87	5.28
385.078	5.27
385.285	5.23
385.493	5.16
385.701	5.12
385.909	5.08
386.116	5.01
386.324	4.85
386.532	4.8
386.739	4.83
386.947	4.84
387.155	4.81
387.362	4.85
387.57	4.81
387.778	4.74
387.985	5.04
388.193	5.08
388.4	5.09
388.608	4.98
388.816	4.98
389.023	5.2
389.231	5.12
389.438	5.24
389.646	5.4
389.853	5.31
390.061	5.25
390.268	5.13
390.475	5.25
390.683	5.25
390.89	5.26
391.098	5.23
391.305	4.92
391.512	4.94
391.72	5.05
391.927	5.02
392.135	4.9
392.342	4.73
392.549	4.55
392.756	4.39
392.964	4.35
393.171	4.37
393.378	4.37
393.586	4.34
393.793	4.41
394	4.31
394.207	4.15
394.414	4.35
394.622	4.4
394.829	4.51
395.036	4.37
395.243	4.35
395.45	4.28
395.657	4.22
395.864	4.3
396.072	4.08
396.279	4.06
396.486	4.17
396.693	4.23
396.9	4.3
397.107	4.2
397.314	4.34
397.521	4.1
397.728	4.16
397.935	4.36
398.142	4.28
398.349	4.38
398.556	4.41
398.763	4.38
398.97	4.24
399.177	4.25
399.383	4.34
399.59	4.26
399.797	4.5
400.004	4.43
400.211	4.22
400.418	4.18
400.625	4.24
400.831	4
401.038	3.88
401.245	3.74
401.452	3.8
401.658	3.92
401.865	3.88
402.072	3.62
402.279	3.68
402.485	3.62
402.692	3.79
402.899	3.82
403.105	4
403.312	4.14
403.519	4.29
403.725	4.25
403.932	4.07
404.138	4.06
404.345	4.23
404.552	4.12
404.758	4.24
404.965	4.12
405.171	3.87
405.378	3.87
405.584	3.92
405.791	3.88
405.997	3.88
406.204	3.87
406.41	3.89
406.617	3.84
406.823	3.89
407.029	3.8
407.236	3.9
407.442	4
407.649	3.8
407.855	3.7
408.061	3.58
408.268	3.38
408.474	3.5
408.68	3.55
408.887	3.63
409.093	3.77
409.299	3.78
409.505	3.7
409.712	3.8
409.918	3.78
410.124	3.7
410.33	3.81
410.537	3.97
410.743	3.87
410.949	3.87
411.155	3.76
411.361	3.56
411.567	3.66
411.773	3.6
411.98	3.56
412.186	3.83
412.392	3.81
412.598	3.69
412.804	3.49
413.01	3.52
413.216	3.31
413.422	3.41
413.628	3.5
413.834	3.45
414.04	3.61
414.246	3.64
414.452	3.48
414.658	3.6
414.864	3.75
415.07	3.77
415.275	3.86
415.481	4.03
415.687	3.99
415.893	3.82
416.099	3.79
416.305	3.66
416.511	3.7
416.716	3.75
416.922	3.73
417.128	3.7
417.334	3.88
417.539	3.8
417.745	3.64
417.951	3.61
418.157	3.65
418.362	3.63
418.568	3.71
418.774	3.61
418.979	3.62
419.185	3.65
419.391	3.62
419.596	3.49
419.802	3.5
420.008	3.59
420.213	3.57
420.419	3.61
420.624	3.61
420.83	3.53
421.035	3.57
421.241	3.43
421.446	3.37
421.652	3.31
421.857	3.31
422.063	3.21
422.268	3.21
422.474	3.18
422.679	3.16
422.885	3.09
423.09	3.14
423.295	3.14
423.501	3.24
423.706	3.16
423.911	3.18
424.117	3.2
424.322	3.29
424.527	3.29
424.733	3.38
424.938	3.41
425.143	3.44
425.349	3.43
425.554	3.4
425.759	3.33
425.964	3.36
426.169	3.4
426.375	3.42
426.58	3.35
426.785	3.3
426.99	3.21
427.195	3.18
427.4	3.16
427.605	3.14
427.811	3.19
428.016	3.41
428.221	3.5
428.426	3.45
428.631	3.47
428.836	3.54
429.041	3.56
429.246	3.52
429.451	3.61
429.656	3.7
429.861	3.74
430.066	3.71
430.271	3.58
430.476	3.5
430.681	3.48
430.886	3.45
431.09	3.43
431.295	3.39
431.5	3.55
431.705	3.5
431.91	3.45
432.115	3.44
432.32	3.44
432.524	3.47
432.729	3.43
432.934	3.47
433.139	3.43
433.343	3.43
433.548	3.57
433.753	3.53
433.958	3.51
434.162	3.59
434.367	3.49
434.572	3.49
434.776	3.49
434.981	3.6
435.186	3.65
435.39	3.73
435.595	3.73
435.799	3.58
436.004	3.46
436.209	3.48
436.413	3.41
436.618	3.51
436.822	3.6
437.027	3.62
437.231	3.58
437.436	3.61
437.64	3.6
437.845	3.64
438.049	3.64
438.253	3.75
438.458	3.71
438.662	3.77
438.867	3.74
439.071	3.7
439.275	3.64
439.48	3.63
439.684	3.59
439.888	3.53
440.093	3.55
440.297	3.56
440.501	3.53
440.706	3.63
440.91	3.69
441.114	3.76
441.318	3.72
441.523	3.69
441.727	3.69
441.931	3.64
442.135	3.7
442.339	3.71
442.543	3.78
442.748	3.78
442.952	3.73
443.156	3.52
443.36	3.45
443.564	3.49
443.768	3.48
443.972	3.42
444.176	3.39
444.38	3.39
444.584	3.34
444.788	3.31
444.992	3.27
445.196	3.23
445.4	3.32
445.604	3.35
445.808	3.26
446.012	3.28
446.216	3.29
446.42	3.34
446.624	3.25
446.828	3.2
447.032	3.18
447.235	3.19
447.439	3.21
447.643	3.12
447.847	3.08
448.051	3.11
448.254	3.11
448.458	3.08
448.662	3.05
448.866	3.13
449.069	3.17
449.273	3.17
449.477	3.26
449.681	3.22
449.884	3.36
450.088	3.32
450.292	3.36
450.495	3.45
450.699	3.54
450.902	3.57
451.106	3.55
451.31	3.5
451.513	3.55
451.717	3.46
451.92	3.43
452.124	3.28
452.327	3.41
452.531	3.33
452.734	3.24
452.938	3.26
453.141	3.29
453.345	3.3
453.548	3.29
453.752	3.21
453.955	3.14
454.158	3.15
454.362	3.31
454.565	3.18
454.769	3.28
454.972	3.3
455.175	3.24
455.379	3.23
455.582	3.26
455.785	3.28
455.988	3.31
456.192	3.38
456.395	3.41
456.598	3.3
456.801	3.27
457.005	3.3
457.208	3.24
457.411	3.27
457.614	3.25
457.817	3.14
458.021	3.22
458.224	3.23
458.427	3.38
458.63	3.38
458.833	3.34
459.036	3.37
459.239	3.33
459.442	3.4
459.645	3.42
459.848	3.46
460.051	3.58
460.254	3.54
460.457	3.57
460.66	3.48
460.863	3.45
461.066	3.51
461.269	3.6
461.472	3.57
461.675	3.51
461.878	3.49
462.081	3.43
462.284	3.33
462.486	3.32
462.689	3.22
462.892	3.19
463.095	3.14
463.298	3.12
463.5	3.06
463.703	3.11
463.906	3.16
464.109	3.02
464.311	3.06
464.514	3.12
464.717	3.18
464.92	3.21
465.122	3.33
465.325	3.43
465.528	3.35
465.73	3.34
465.933	3.24
466.135	3.26
466.338	3.35
466.541	3.42
466.743	3.46
466.946	3.42
467.148	3.39
467.351	3.33
467.553	3.31
467.756	3.42
467.958	3.36
468.161	3.51
468.363	3.43
468.566	3.53
468.768	3.46
468.971	3.48
469.173	3.48
469.375	3.6
469.578	3.6
469.78	3.57
469.983	3.54
470.185	3.52
470.387	3.39
470.59	3.42
470.792	3.36
470.994	3.4
471.196	3.31
471.399	3.27
471.601	3.23
471.803	3.27
472.005	3.32
472.208	3.38
472.41	3.39
472.612	3.44
472.814	3.49
473.016	3.48
473.218	3.37
473.421	3.41
473.623	3.48
473.825	3.44
474.027	3.44
474.229	3.52
474.431	3.51
474.633	3.51
474.835	3.49
475.037	3.53
475.239	3.59
475.441	3.66
475.643	3.65
475.845	3.68
476.047	3.67
476.249	3.59
476.451	3.63
476.653	3.62
476.855	3.67
477.057	3.65
477.258	3.66
477.46	3.54
477.662	3.48
477.864	3.5
478.066	3.53
478.268	3.54
478.469	3.55
478.671	3.44
478.873	3.41
479.075	3.33
479.276	3.33
479.478	3.29
479.68	3.27
479.882	3.3
480.083	3.37
480.285	3.29
480.487	3.34
480.688	3.28
480.89	3.34
481.091	3.31
481.293	3.39
481.495	3.41
481.696	3.41
481.898	3.46
482.099	3.46
482.301	3.44
482.502	3.48
482.704	3.48
482.905	3.53
483.107	3.5
483.308	3.51
483.51	3.47
483.711	3.45
483.913	3.45
484.114	3.45
484.315	3.47
484.517	3.44
484.718	3.39
484.92	3.39
485.121	3.37
485.322	3.37
485.524	3.38
485.725	3.4
485.926	3.42
486.127	3.42
486.329	3.41
486.53	3.42
486.731	3.42
486.932	3.43
487.134	3.43
487.335	3.45
487.536	3.44
487.737	3.45
487.938	3.48
488.139	3.46
488.341	3.45
488.542	3.47
488.743	3.46
488.944	3.48
489.145	3.51
489.346	3.53
489.547	3.49
489.748	3.47
489.949	3.47
490.15	3.46
490.351	3.47
490.552	3.5
490.753	3.48
490.954	3.47
491.155	3.47
491.356	3.46
491.557	3.45
491.758	3.47
491.959	3.5
492.159	3.5
492.36	3.48
492.561	3.47
492.762	3.43
492.963	3.47
493.164	3.49
493.364	3.53
493.565	3.57
493.766	3.55
493.967	3.53
494.167	3.58
494.368	3.57
494.569	3.62
494.769	3.63
494.97	3.67
495.171	3.61
495.371	3.62
495.572	3.58
495.773	3.57
495.973	3.63
496.174	3.68
496.375	3.66
496.575	3.68
496.776	3.67
496.976	3.75
497.177	3.79
497.377	3.87
497.578	3.95
497.778	3.98
497.979	4.02
498.179	3.97
498.38	3.98
498.58	4.05
498.78	4.06
498.981	4.09
499.181	3.99
499.382	3.97
499.582	3.96
499.782	3.88
499.983	3.86
500.183	3.91
500.383	4.03
500.584	4.07
500.784	3.99
500.984	4.09
501.184	4.2
501.385	4.39
501.585	4.52
501.785	4.54
501.985	4.57
502.185	4.64
502.386	4.63
502.586	4.58
502.786	4.61
502.986	4.7
503.186	4.7
503.386	4.63
503.586	4.52
503.786	4.39
503.987	4.39
504.187	4.4
504.387	4.46
504.587	4.46
504.787	4.55
504.987	4.62
505.187	4.61
505.387	4.52
505.587	4.67
505.786	4.77
505.986	4.96
506.186	5.01
506.386	5.08
506.586	5.15
506.786	5.15
506.986	5.16
507.186	5.14
507.386	5.25
507.585	5.38
507.785	5.3
507.985	5.32
508.185	5.24
508.384	5.32
508.584	5.37
508.784	5.3
508.984	5.39
509.183	5.41
509.383	5.43
509.583	5.46
509.782	5.4
509.982	5.43
510.182	5.43
510.381	5.5
510.581	5.49
510.781	5.43
510.98	5.54
511.18	5.49
511.379	5.56
511.579	5.63
511.778	5.64
511.978	5.69
512.177	5.76
512.377	5.75
512.576	5.8
512.776	5.85
512.975	5.92
513.175	5.93
513.374	6.03
513.573	6.09
513.773	6.06
513.972	6.03
514.172	6.17
514.371	6.24
514.57	6.36
514.77	6.36
514.969	6.4
515.168	6.48
515.367	6.61
515.567	6.66
515.766	6.71
515.965	6.82
516.164	6.99
516.364	7.07
516.563	7.09
516.762	7.17
516.961	7.27
517.16	7.38
517.359	7.56
517.559	7.61
517.758	7.68
517.957	7.69
518.156	7.77
518.355	7.75
518.554	7.74
518.753	7.79
518.952	7.85
519.151	7.96
519.35	7.94
519.549	7.95
519.748	8
519.947	8.04
520.146	8.15
520.345	8.19
520.544	8.36
520.743	8.47
520.942	8.58
521.141	8.61
521.339	8.62
521.538	8.72
521.737	8.74
521.936	8.78
522.135	8.87
522.333	8.94
522.532	9
522.731	9
522.93	9.11
523.129	9.25
523.327	9.32
523.526	9.44
523.725	9.55
523.923	9.66
524.122	9.81
524.321	9.86
524.519	9.99
524.718	10.09
524.917	10.19
525.115	10.25
525.314	10.28
525.512	10.37
525.711	10.47
525.909	10.46
526.108	10.53
526.306	10.56
526.505	10.66
526.703	10.63
526.902	10.73
527.1	10.78
527.299	10.82
527.497	10.85
527.696	10.91
527.894	10.93
528.092	11.02
528.291	11.06
528.489	11.12
528.688	11.12
528.886	11.19
529.084	11.2
529.283	11.23
529.481	11.27
529.679	11.31
529.877	11.38
530.076	11.42
530.274	11.51
530.472	11.57
530.67	11.64
530.869	11.75
531.067	11.86
531.265	11.95
531.463	12.09
531.661	12.24
531.859	12.36
532.057	12.41
532.255	12.54
532.454	12.6
532.652	12.7
532.85	12.7
533.048	12.79
533.246	12.82
533.444	12.85
533.642	12.86
533.84	12.91
534.038	12.96
534.236	13.03
534.434	13.07
534.632	13.08
534.83	13.15
535.027	13.29
535.225	13.35
535.423	13.4
535.621	13.51
535.819	13.63
536.017	13.68
536.215	13.77
536.412	13.8
536.61	13.9
536.808	14.01
537.006	14.03
537.203	14.08
537.401	14.18
537.599	14.35
537.797	14.42
537.994	14.49
538.192	14.57
538.39	14.69
538.587	14.86
538.785	14.95
538.983	15.07
539.18	15.23
539.378	15.29
539.575	15.38
539.773	15.42
539.97	15.52
540.168	15.63
540.366	15.75
540.563	15.82
540.761	15.85
540.958	15.92
541.155	15.97
541.353	15.95
541.55	16
541.748	16.05
541.945	16.11
542.143	16.15
542.34	16.22
542.537	16.25
542.735	16.33
542.932	16.39
543.129	16.45
543.327	16.54
543.524	16.76
543.721	16.91
543.919	17.11
544.116	17.32
544.313	17.58
544.51	17.77
544.708	18.02
544.905	18.21
545.102	18.49
545.299	18.78
545.496	18.91
545.693	19.04
545.891	19.16
546.088	19.13
546.285	19.14
546.482	19.07
546.679	19.01
546.876	18.92
547.073	18.87
547.27	18.79
547.467	18.59
547.664	18.55
547.861	18.42
548.058	18.39
548.255	18.3
548.452	18.22
548.649	18.25
548.846	18.15
549.043	18.22
549.24	18.17
549.437	18.19
549.633	18.13
549.83	18.18
550.027	18.15
550.224	18.19
550.421	18.31
550.618	18.32
550.814	18.3
551.011	18.33
551.208	18.26
551.405	18.21
551.601	18.12
551.798	18.21
551.995	18.18
552.191	18.13
552.388	18.1
552.585	18.05
552.781	18.06
552.978	18.03
553.175	17.97
553.371	17.98
553.568	18.1
553.764	18.18
553.961	18.23
554.157	18.17
554.354	18.36
554.55	18.36
554.747	18.46
554.943	18.49
555.14	18.45
555.336	18.54
555.533	18.62
555.729	18.57
555.926	18.52
556.122	18.47
556.318	18.45
556.515	18.37
556.711	18.35
556.907	18.36
557.104	18.26
557.3	18.29
557.496	18.3
557.693	18.28
557.889	18.3
558.085	18.37
558.281	18.38
558.478	18.43
558.674	18.44
558.87	18.35
559.066	18.4
559.262	18.5
559.459	18.57
559.655	18.64
559.851	18.72
560.047	18.69
560.243	18.67
560.439	18.7
560.635	18.82
560.831	18.88
561.027	19
561.223	18.92
561.419	19.05
561.615	19.19
561.811	19.2
562.007	19.03
562.203	19.05
562.399	19.11
562.595	19.13
562.791	18.99
562.987	19
563.183	18.94
563.379	18.99
563.575	18.9
563.771	18.88
563.966	18.83
564.162	18.89
564.358	18.85
564.554	18.77
564.75	18.78
564.945	18.81
565.141	18.84
565.337	18.87
565.533	18.87
565.728	18.84
565.924	18.83
566.12	18.93
566.315	19.04
566.511	19.12
566.707	19.32
566.902	19.36
567.098	19.52
567.293	19.54
567.489	19.51
567.684	19.64
567.88	19.75
568.076	19.74
568.271	19.8
568.467	19.89
568.662	19.95
568.858	19.89
569.053	20.01
569.248	20
569.444	20.04
569.639	20.2
569.835	20.17
570.03	20.12
570.225	20.16
570.421	20.17
570.616	20.15
570.812	20.12
571.007	20.04
571.202	20.06
571.397	20.06
571.593	20.03
571.788	20.06
571.983	20
572.178	20.04
572.374	20.05
572.569	20.02
572.764	19.95
572.959	20.06
573.154	20.17
573.35	20.18
573.545	20.28
573.74	20.33
573.935	20.23
574.13	20.3
574.325	20.31
574.52	20.37
574.715	20.48
574.91	20.57
575.105	20.61
575.3	20.73
575.495	20.76
575.69	20.8
575.885	20.89
576.08	21.12
576.275	21.24
576.47	21.39
576.665	21.52
576.86	21.46
577.055	21.58
577.25	21.61
577.444	21.66
577.639	21.79
577.834	21.93
578.029	21.96
578.224	22.04
578.418	22.13
578.613	22.17
578.808	22.28
579.003	22.44
579.197	22.45
579.392	22.39
579.587	22.36
579.781	22.19
579.976	22.12
580.171	22.15
580.365	22.1
580.56	22.14
580.755	22.19
580.949	22.01
581.144	21.98
581.338	22
581.533	22.09
581.727	22.17
581.922	22.25
582.116	22.36
582.311	22.38
582.505	22.44
582.7	22.39
582.894	22.45
583.089	22.61
583.283	22.64
583.478	22.67
583.672	22.74
583.866	22.74
584.061	22.79
584.255	22.67
584.449	22.76
584.644	22.8
584.838	22.84
585.032	22.85
585.226	22.98
585.421	23.02
585.615	23.17
585.809	23.06
586.003	23.1
586.198	23.22
586.392	23.28
586.586	23.3
586.78	23.29
586.974	23.43
587.168	23.36
587.363	23.2
587.557	23.11
587.751	23.03
587.945	23.05
588.139	22.95
588.333	22.76
588.527	22.81
588.721	22.71
588.915	22.49
589.109	22.33
589.303	22.34
589.497	22.29
589.691	22.26
589.885	22.26
590.079	22.27
590.273	22.4
590.466	22.51
590.66	22.55
590.854	22.59
591.048	22.76
591.242	22.76
591.436	22.91
591.629	23.15
591.823	23.47
592.017	23.37
592.211	23.62
592.404	23.59
592.598	23.62
592.792	23.66
592.986	23.66
593.179	23.72
593.373	23.62
593.567	23.61
593.76	23.42
593.954	23.29
594.147	23.26
594.341	23.09
594.535	23.05
594.728	23.02
594.922	22.78
595.115	22.75
595.309	22.56
595.502	22.68
595.696	22.55
595.889	22.53
596.083	22.38
596.276	22.26
596.47	22.2
596.663	22.2
596.856	22.15
597.05	22.22
597.243	22.25
597.437	22.46
597.63	22.45
597.823	22.49
598.017	22.53
598.21	22.64
598.403	22.76
598.596	22.89
598.79	23.11
598.983	23.01
599.176	23
599.369	23.03
599.563	22.98
599.756	23.07
599.949	23.21
600.142	23.21
600.335	23.24
600.528	23.35
600.722	23.25
600.915	22.95
601.108	23.16
601.301	23.12
601.494	23.03
601.687	22.95
601.88	22.9
602.073	22.65
602.266	22.65
602.459	22.51
602.652	22.53
602.845	22.57
603.038	22.63
603.231	22.47
603.424	22.61
603.617	22.65
603.809	22.62
604.002	22.58
604.195	22.64
604.388	22.65
604.581	22.78
604.774	22.8
604.966	22.79
605.159	22.81
605.352	23.07
605.545	22.98
605.737	22.92
605.93	22.91
606.123	23.04
606.316	23.08
606.508	23.18
606.701	23.28
606.894	23.29
607.086	23.39
607.279	23.51
607.471	23.52
607.664	23.77
607.857	24.16
608.049	24.52
608.242	24.84
608.434	25.45
608.627	26.11
608.819	26.84
609.012	27.77
609.204	28.75
609.397	29.74
609.589	30.9
609.782	32.19
609.974	33.38
610.166	34.66
610.359	35.89
610.551	37.06
610.743	38.01
610.936	38.7
611.128	39.3
611.32	39.82
611.513	40.18
611.705	40.07
611.897	39.9
612.09	39.55
612.282	39.08
612.474	38.51
612.666	37.59
612.858	36.98
613.051	36.52
613.243	35.73
613.435	35.06
613.627	34.22
613.819	33.76
614.011	33.06
614.203	32.53
614.395	31.91
614.588	31.16
614.78	30.86
614.972	30.27
615.164	29.61
615.356	29.15
615.548	28.69
615.74	28.49
615.932	27.77
616.124	27.56
616.315	27.09
616.507	26.88
616.699	26.71
616.891	26.24
617.083	25.98
617.275	25.76
617.467	25.65
617.659	25.32
617.85	25.11
618.042	25.33
618.234	25.16
618.426	24.98
618.618	24.86
618.809	24.9
619.001	24.92
619.193	24.82
619.384	24.74
619.576	24.72
619.768	24.8
619.959	24.64
620.151	24.72
620.343	24.54
620.534	24.6
620.726	24.86
620.917	24.87
621.109	24.91
621.301	25.03
621.492	25.28
621.684	25.45
621.875	25.66
622.067	25.69
622.258	25.62
622.45	25.73
622.641	25.84
622.832	25.74
623.024	25.65
623.215	25.75
623.407	25.6
623.598	25.38
623.789	25.38
623.981	25.2
624.172	25.44
624.363	25.4
624.555	25.6
624.746	25.72
624.937	25.4
625.129	25.51
625.32	25.41
625.511	25.53
625.702	25.55
625.893	25.48
626.085	25.51
626.276	25.46
626.467	25.49
626.658	25.4
626.849	25.31
627.04	25.55
627.231	25.43
627.422	25.41
627.614	25.39
627.805	25.49
627.996	25.5
628.187	25.35
628.378	25.46
628.569	25.47
628.76	25.54
628.951	25.77
629.142	25.95
629.332	26.03
629.523	26.22
629.714	26.41
629.905	26.58
630.096	26.71
630.287	26.94
630.478	26.78
630.669	27
630.859	26.98
631.05	26.6
631.241	26.46
631.432	26.39
631.623	25.97
631.813	25.9
632.004	25.54
632.195	25.46
632.385	25.27
632.576	25.14
632.767	24.81
632.957	24.68
633.148	24.81
633.339	24.58
633.529	24.39
633.72	24.5
633.91	24.25
634.101	24.16
634.292	23.95
634.482	23.94
634.673	23.74
634.863	23.61
635.054	23.52
635.244	23.46
635.435	23.6
635.625	23.8
635.815	23.88
636.006	23.86
636.196	23.95
636.387	23.98
636.577	23.78
636.767	24.06
636.958	24.11
637.148	24.03
637.338	24.07
637.529	24
637.719	23.87
637.909	23.82
638.099	23.7
638.29	23.64
638.48	23.51
638.67	23.68
638.86	23.57
639.05	23.68
639.241	23.93
639.431	23.86
639.621	23.87
639.811	23.84
640.001	23.86
640.191	24.07
640.381	24.22
640.571	24.39
640.761	24.42
640.951	24.35
641.141	24.26
641.331	23.97
641.521	24.06
641.711	23.94
641.901	23.99
642.091	24
642.281	24.03
642.471	23.99
642.661	23.98
642.851	24
643.041	23.92
643.231	23.99
643.42	24.32
643.61	24.1
643.8	24.35
643.99	24.65
644.18	24.64
644.369	24.74
644.559	24.68
644.749	24.53
644.939	24.56
645.128	24.74
645.318	24.85
645.508	24.59
645.697	24.58
645.887	24.31
646.076	24.03
646.266	23.92
646.456	23.8
646.645	23.7
646.835	23.86
647.024	23.81
647.214	23.8
647.403	23.7
647.593	23.64
647.782	23.91
647.972	24.2
648.161	24.3
648.351	24.47
648.54	24.44
648.73	24.68
648.919	24.6
649.108	24.73
649.298	24.9
649.487	24.89
649.677	25.24
649.866	25.29
650.055	25.27
650.244	25.27
650.434	25.35
650.623	25.56
650.812	25.61
651.002	25.98
651.191	26.06
651.38	25.87
651.569	25.91
651.758	25.78
651.947	25.62
652.137	25.51
652.326	25.41
652.515	25.25
652.704	25.19
652.893	25.05
653.082	24.82
653.271	24.75
653.46	24.68
653.649	24.7
653.838	24.67
654.027	24.62
654.216	24.54
654.405	24.54
654.594	24.63
654.783	24.44
654.972	24.44
655.161	24.39
655.35	24.44
655.539	24.58
655.728	24.68
655.916	24.7
656.105	24.96
656.294	24.96
656.483	24.99
656.672	24.87
656.86	25.06
657.049	24.89
657.238	24.77
657.427	24.59
657.615	24.61
657.804	24.35
657.993	24.29
658.181	24.06
658.37	24.14
658.559	24.12
658.747	24.07
658.936	24.07
659.125	24.42
659.313	24.47
659.502	24.46
659.69	24.43
659.879	24.57
660.067	24.66
660.256	24.78
660.444	24.73
660.633	24.64
660.821	24.82
661.01	24.76
661.198	24.61
661.387	24.74
661.575	24.78
661.763	24.75
661.952	24.64
662.14	24.63
662.328	24.38
662.517	24.27
662.705	24.39
662.893	24.38
663.082	24.24
663.27	24.09
663.458	23.82
663.646	23.85
663.834	23.87
664.023	23.8
664.211	23.75
664.399	23.65
664.587	23.92
664.775	24.21
664.963	24.23
665.152	24.37
665.34	24.42
665.528	24.68
665.716	24.8
665.904	24.81
666.092	25.02
666.28	25.11
666.468	25.4
666.656	25.32
666.844	25.19
667.032	25.23
667.22	25.19
667.408	25.18
667.596	24.92
667.784	24.8
667.971	24.49
668.159	24.43
668.347	24.37
668.535	24.29
668.723	24.15
668.911	23.93
669.098	23.88
669.286	23.98
669.474	23.95
669.662	24.24
669.849	24.42
670.037	24.91
670.225	24.81
670.413	24.57
670.6	24.59
670.788	24.62
670.976	24.73
671.163	24.84
671.351	24.77
671.538	24.85
671.726	24.84
671.913	24.59
672.101	24.44
672.289	24.53
672.476	24.77
672.664	24.82
672.851	25.02
673.039	24.96
673.226	24.97
673.413	25
673.601	24.78
673.788	24.74
673.976	25.08
674.163	25.03
674.35	25.08
674.538	24.92
674.725	25.11
674.912	25.12
675.1	25.09
675.287	24.94
675.474	24.85
675.662	25.16
675.849	25.09
676.036	24.97
676.223	25.06
676.411	24.96
676.598	24.86
676.785	24.75
676.972	24.6
677.159	24.53
677.346	24.56
677.533	24.52
677.721	24.23
677.908	24.18
678.095	24.11
678.282	24.22
678.469	24.19
678.656	24.47
678.843	24.42
679.03	24.55
679.217	24.7
679.404	24.67
679.591	24.83
679.778	25.07
679.964	25.12
680.151	25.1
680.338	25.03
680.525	25.11
680.712	25.05
680.899	24.99
681.086	24.92
681.272	24.91
681.459	25.14
681.646	24.91
681.833	24.89
682.02	25.04
682.206	25.03
682.393	24.77
682.58	24.75
682.766	24.76
682.953	24.86
683.14	24.96
683.326	25.08
683.513	24.89
683.7	25.16
683.886	25.14
684.073	24.81
684.259	25.12
684.446	25.35
684.632	25.49
684.819	25.47
685.005	25.37
685.192	25.1
685.378	25.19
685.565	25.2
685.751	25.16
685.938	25.02
686.124	25.01
686.31	24.5
686.497	24.7
686.683	24.64
686.87	24.69
687.056	24.65
687.242	24.96
687.429	24.82
687.615	24.59
687.801	24.49
687.987	24.66
688.174	24.98
688.36	25.33
688.546	25.16
688.732	25.13
688.918	25.11
689.105	25.25
689.291	25.08
689.477	25.11
689.663	25.41
689.849	25.4
690.035	25.16
690.221	25.35
690.407	25.16
690.593	25.17
690.779	25.17
690.965	25.27
691.151	25.14
691.337	25.37
691.523	25.56
691.709	25.58
691.895	25.72
692.081	26.07
692.267	25.82
692.453	25.94
692.639	26
692.825	26.07
693.011	26.03
693.196	26.27
693.382	26.11
693.568	25.9
693.754	25.75
693.94	25.67
694.125	25.58
694.311	25.69
694.497	25.42
694.682	25.15
694.868	25.29
695.054	25.09
695.239	24.94
695.425	24.91
695.611	24.96
695.796	24.71
695.982	24.77
696.168	24.54
696.353	24.22
696.539	24.51
696.724	24.52
696.91	24.18
697.095	24.3
697.281	24.33
697.466	24.33
697.652	24.16
697.837	24.31
698.023	24.32
698.208	24.3
698.393	24.51
698.579	24.45
698.764	24.62
698.949	24.6
699.135	24.49
699.32	24.52
699.505	24.38
699.691	24.39
699.876	24.4
700.061	24.14
700.246	24.28
700.432	23.83
700.617	23.75
700.802	23.67
700.987	24.02
701.172	23.96
701.358	23.92
701.543	24.34
701.728	24.3
701.913	24.27
702.098	24.58
702.283	24.83
702.468	25.11
702.653	24.97
702.838	24.75
703.023	24.78
703.208	25.14
703.393	25.28
703.578	25.05
703.763	25.55
703.948	26.13
704.133	26.3
704.318	26.3
704.503	26.62
704.688	27.1
704.873	27.93
705.057	28.15
705.242	28.38
705.427	28.74
705.612	29.41
705.797	29.5
705.981	29.27
706.166	29.38
706.351	29.56
706.536	30.02
706.72	30.34
706.905	30.36
707.09	30.28
707.274	30.88
707.459	31.06
707.644	31.01
707.828	31.17
708.013	31.56
708.197	31.61
708.382	31.33
708.567	31.34
708.751	31.28
708.936	31.04
709.12	30.82
709.305	30.32
709.489	29.59
709.673	29.5
709.858	29.42
710.042	29.11
710.227	29.2
710.411	28.95
710.596	28.66
710.78	28.53
710.964	28.79
711.149	28.73
711.333	28.84
711.517	29.11
711.702	29.13
711.886	28.48
712.07	28.63
712.254	28.59
712.438	28.62
712.623	28.33
712.807	28.23
712.991	27.86
713.175	27.79
713.359	27.6
713.544	27.38
713.728	26.95
713.912	27.28
714.096	26.58
714.28	26.07
714.464	25.75
714.648	26.16
714.832	25.27
715.016	24.96
715.2	24.83
715.384	24.54
715.568	24.59
715.752	24.4
715.936	24.09
716.12	24.15
716.304	24.3
716.488	24.62
716.671	24.28
716.855	24.75
717.039	24.6
717.223	24.79
717.407	24.9
717.59	24.4
717.774	24.54
717.958	24.79
718.142	24.63
718.325	24.55
718.509	24.46
718.693	24.3
718.877	24.39
719.06	24.51
719.244	24.51
719.428	24.33
719.611	24.86
719.795	24.75
719.978	24.11
720.162	24.46
720.345	24.47
720.529	24.47
720.713	24.78
720.896	24.67
721.08	24.49
721.263	23.92
721.446	23.97
721.63	23.83
721.813	23.67
721.997	23.87
722.18	24.14
722.364	24.22
722.547	24.28
722.73	24.12
722.914	24.53
723.097	25
723.28	25.31
723.464	25.34
723.647	25.48
723.83	25.61
724.013	25.87
724.197	25.65
724.38	25.34
724.563	25.55
724.746	25.78
724.929	25.68
725.112	25.28
725.296	25.48
725.479	25.47
725.662	25.51
725.845	25.83
726.028	25.6
726.211	25.57
726.394	25.86
726.577	26.03
726.76	26.05
726.943	25.86
727.126	25.87
727.309	25.82
727.492	25.83
727.675	25.87
727.858	25.56
728.041	25.61
728.224	25.66
728.407	25.45
728.589	24.95
728.772	24.32
728.955	24.56
729.138	24.61
729.321	24.46
729.503	24.24
729.686	24.21
729.869	24.32
730.052	24.36
730.234	24.01
730.417	24.22
730.6	24.13
730.782	24.84
730.965	24.78
731.148	24.86
731.33	24.65
731.513	24.76
731.695	24.77
731.878	24.84
732.061	24.89
732.243	25.2
732.426	25.02
732.608	25.31
732.791	24.78
732.973	24.45
733.156	24.62
733.338	25.03
733.52	24.96
733.703	25.09
733.885	24.74
734.068	24.71
734.25	24.52
734.432	24.76
734.615	24.42
734.797	24.63
734.979	24.61
735.162	24.05
735.344	24.22
735.526	24.36
735.708	24.01
735.891	24.25
736.073	24.18
736.255	24.47
736.437	24.45
736.619	25.09
736.802	25.07
736.984	25.21
737.166	25.57
737.348	25.59
737.53	25.82
737.712	25.62
737.894	25.67
738.076	25.77
738.258	26.01
738.44	26.18
738.622	26.35
738.804	26.55
738.986	26.87
739.168	27.05
739.35	26.93
739.532	26.8
739.714	26.6
739.896	26.58
740.078	26.71
740.259	26.2
740.441	25.86
740.623	25.63
740.805	25.34
740.987	25.44
741.168	25.77
741.35	25.76
741.532	26.45
741.714	27.11
741.895	27.48
742.077	27.48
742.259	27.9
742.44	27.59
742.622	27.73
742.804	27.54
742.985	27.39
743.167	26.74
743.348	26.2
743.53	25.52
743.711	25.49
743.893	24.98
744.075	25.07
744.256	24.95
744.438	25.61
744.619	24.99
744.8	25.53
744.982	25.74
745.163	25.92
745.345	26.26
745.526	26.17
745.707	26.36
745.889	27.29
746.07	26.97
746.252	26.91
746.433	27.87
746.614	27.87
746.795	27.74
746.977	27.73
747.158	27.4
747.339	27.63
747.52	27.45
747.702	27.12
747.883	27.05
748.064	27.63
748.245	27.73
748.426	26.23
748.607	26.68
748.788	26.57
748.97	26.29
749.151	26.74
749.332	26.27
749.513	26.08
749.694	25.97
749.875	25.4
750.056	24.97
750.237	24.77
750.418	25.17
750.599	24.88
750.78	24.79
750.96	25.13
751.141	24.97
751.322	25.15
751.503	25.52
751.684	25.56
751.865	25.57
752.046	24.49
752.226	24.46
752.407	24.94
752.588	24.71
752.769	25.02
752.949	24.37
753.13	24.12
753.311	24.8
753.492	24.62
753.672	24.79
753.853	24.83
754.034	26.16
754.214	26.6
754.395	26.12
754.575	26.32
754.756	26.44
754.937	26.65
755.117	27.49
755.298	27.06
755.478	26.84
755.659	26.89
755.839	27.5
756.02	27.2
756.2	27.07
756.381	26.72
756.561	26.84
756.741	26.11
756.922	27.09
757.102	26.25
757.283	26.38
757.463	27.13
757.643	26.9
757.823	26.81
758.004	26.9
758.184	26.76
758.364	26.7
758.545	26.7
758.725	27.27
758.905	26.62
759.085	26.5
759.265	25.91
759.446	26.06
759.626	26.19
759.806	25.29
759.986	25.42
760.166	24.62
760.346	25.21
760.526	24.61
760.706	23.8
760.886	23.35
761.066	23.52
761.246	23.49
761.426	23.01
761.606	22.74
761.786	23.3
761.966	23.03
762.146	23.56
762.326	22.66
762.506	22.75
762.686	23.48
762.866	23.3
763.046	23.31
763.225	23.59
763.405	23.37
763.585	23.75
763.765	23.35
763.945	23.19
764.124	23.32
764.304	23.83
764.484	24.52
764.664	24.34
764.843	25.4
765.023	25.37
765.203	25.22
765.382	25.18
765.562	24.95
765.741	25.26
765.921	25.62
766.101	25.7
766.28	25.29
766.46	24.89
766.639	24.77
766.819	24.01
766.998	23.84
767.178	24.02
767.357	24.87
767.537	25.34
767.716	25.59
767.896	25.96
768.075	25.92
768.254	26.75
768.434	26.64
768.613	27.19
768.792	27.61
768.972	27.66
769.151	27.48
769.33	27.61
769.51	27.04
769.689	27.19
769.868	27.03
770.047	26.95
770.226	26.88
770.406	27.64
770.585	27.46
770.764	27.02
770.943	27.16
771.122	27.62
771.301	26.88
771.48	27.21
771.66	27.56
771.839	27.79
772.018	27.63
772.197	27.47
772.376	26.45
772.555	26.56
772.734	26.95
772.913	27.34
773.092	27.7
773.271	27.37
773.449	26.41
773.628	24.89
773.807	24.5
773.986	24.75
774.165	25.24
774.344	26.35
774.523	26.41
774.701	26.43
774.88	25.99
775.059	25.63
775.238	26.08
775.417	27.34
775.595	28.57
775.774	28.72
775.953	28.76
776.131	28.23
776.31	27.21
776.489	27.22
776.667	26.7
776.846	27.13
777.025	27.29
777.203	27.63
777.382	27.98
777.56	27.76
777.739	27.98
777.917	27.97
778.096	28.11
778.274	28.06
778.453	27.61
778.631	27.94
778.81	28.04
778.988	27.33
779.166	27.16
779.345	26.55
779.523	26.28
779.702	26.62
779.88	26.51
780.058	26.48
780.237	26.6
780.415	26.76
780.593	26.59
780.771	26.48
780.95	26.86
781.128	27.41
781.306	26.77
781.484	26.58
781.662	26.52
781.841	26.9
782.019	26.64
782.197	28.09
782.375	27.52
782.553	27.97
782.731	28.18
782.909	28.03
783.087	27.32
783.265	28.29
783.443	30.35
783.621	29.8
783.799	29.85
783.977	30.61
784.155	29.1
784.333	29.46
784.511	28.72
784.689	29.17
784.867	29
785.045	29.01
785.223	29.73
785.4	27.85
785.578	28.24
785.756	27.47
785.934	27.43
786.112	27.66
786.289	27.52
786.467	27.29
786.645	26.89
786.823	27.26
787	27.66
787.178	26.79
787.356	26.96
787.533	26.05
787.711	25.95
787.889	25.26
788.066	25.97
788.244	25.79
788.421	26.4
788.599	25.9
788.776	26.31
788.954	26.58
789.131	26.73
789.309	26.43
789.486	25.35
789.664	26.35
789.841	26.39
790.019	25.28
790.196	25.6
790.373	24.67
790.551	24.69
790.728	23.63
790.906	22.98
791.083	21.88
791.26	22.31
791.437	23.5
791.615	22.42
791.792	22.82
791.969	22.94
792.146	24.13
792.324	25.31
792.501	26.41
792.678	27.34
792.855	28.36
793.032	29.04
793.209	28.78
793.387	29.51
793.564	29.98
793.741	29.8
793.918	30.46
794.095	29.3
794.272	28.71
794.449	28.31
794.626	28.16
794.803	26.42
794.98	26.45
795.157	27.06
795.334	27.01
795.511	26.99
795.688	26
795.864	25.42
796.041	25.45
796.218	25.28
796.395	24.96
796.572	24.1
796.749	24.63
796.925	24.62
797.102	24.48
797.279	24.51
797.456	24.09
797.632	25.63
797.809	25.51
797.986	26.66
798.162	26.91
798.339	27.67
798.516	28.6
798.692	29.87
798.869	29.99
799.046	29.48
799.222	29.47
799.399	30.32
799.575	30.07
799.752	30.83
799.928	29.53
800.105	29.5
800.281	30.08
800.458	30.61
800.634	29.67
800.811	29.7
800.987	30
801.163	30.7
801.34	30.12
801.516	29.92
801.692	30.39
801.869	31.5
802.045	32.39
802.221	31.64
802.398	30.55
802.574	30.59
802.75	29.73
802.926	29.85
803.103	30.09
803.279	31.1
803.455	30.59
803.631	30.25
803.807	29.27
803.983	28.73
804.16	27.42
804.336	28.07
804.512	27.56
804.688	29.07
804.864	29.4
805.04	28.71
805.216	26.86
805.392	26.9
805.568	25.81
805.744	24.85
805.92	22.76
806.096	23.41
806.272	24.34
806.448	24.46
806.623	24.72
806.799	24.9
806.975	24.32
807.151	24.5
807.327	24.06
807.503	25.4
807.678	27.5
807.854	28.54
808.03	27.77
808.206	26.75
808.381	27.35
808.557	26.21
808.733	25.98
808.908	25.63
809.084	27.35
809.26	28.41
809.435	28.19
809.611	27.48
809.787	27.11
809.962	28.38
810.138	28.78
810.313	29.24
810.489	28.58
810.664	28.76
810.84	29.42
811.015	28.91
811.191	28.22
811.366	27.21
811.542	26.75
811.717	27.79
811.892	27.53
812.068	27.14
812.243	25.94
812.419	27.85
812.594	27.62
812.769	27.78
812.944	27.01
813.12	26.41
813.295	27.07
813.47	28.7
813.645	28.49
813.821	28.15
813.996	28.39
814.171	28.1
814.346	25.55
814.521	24.36
814.697	23.34
814.872	24.62
815.047	24.95
815.222	23.95
815.397	21.77
815.572	21.9
815.747	21.93
815.922	21.92
816.097	22.05
816.272	23.18
816.447	23.85
816.622	24.39
816.797	22.81
816.972	23
817.147	22.66
817.322	23.65
817.496	24.28
817.671	23.73
817.846	23.46
818.021	23.63
818.196	24.11
818.371	24.88
818.545	25.31
818.72	25.4
818.895	25.01
819.069	26.04
819.244	24.39
819.419	23.61
819.594	23.65
819.768	22.63
819.943	23.18
820.117	22.55
820.292	21.99
820.467	22.22
820.641	22.65
820.816	23.03
820.99	22.54
821.165	22.98
821.339	22.98
821.514	22.96
821.688	23.11
821.863	22.71
822.037	22.89
822.212	22.88
822.386	22.63
822.56	22.79
822.735	22.83
822.909	22.76
823.084	22.64
823.258	22.67
823.432	22.59
823.606	22.64
823.781	22.65
823.955	22.65
824.129	22.7
824.303	22.75
824.478	22.34
824.652	22.2
824.826	22.37
825	22.87
825.174	22.67
825.348	22.96
825.523	23.18
825.697	23.35
825.871	23.11
826.045	22.94
826.219	22.65
826.393	22.62
826.567	22.52
826.741	23.06
826.915	22.67
827.089	22.98
827.263	23.04
827.437	22.99
827.611	22.98
827.784	23.41
827.958	23.61
828.132	24.17
828.306	24.62
828.48	24.83
828.654	24.44
828.827	24.54
829.001	24.44
829.175	24.53
829.349	24.42
829.522	24.83
829.696	24.57
829.87	24.49
830.044	24.25
830.217	24.83
830.391	25.8
830.565	25.97
830.738	27.06
830.912	26.48
831.085	26.73
831.259	26.54
831.432	25.51
831.606	25.4
831.779	24.89
831.953	24.8
832.126	22.78
832.3	21.94
832.473	21.91
832.647	20.4
832.82	21.04
832.994	20.62
833.167	20.84
833.34	21.1
833.514	21.56
833.687	22.07
833.86	22.72
834.034	23.62
834.207	23.07
834.38	23.19
834.553	23.33
834.727	23.37
834.9	23.81
835.073	23.64
835.246	24.2
835.419	23.82
835.593	23.41
835.766	22.82
835.939	22.53
836.112	23.32
836.285	23.47
836.458	23.86
836.631	25.16
836.804	25.69
836.977	26.66
837.15	26.56
837.323	27.68
837.496	28.86
837.669	27.29
837.842	26.33
838.015	25.49
838.188	26.79
838.361	27.51
838.533	27.22
838.706	26.35
838.879	27.2
839.052	28.6
839.225	28.46
839.398	25.78
839.57	28.45
839.743	29.96
839.916	30.39
840.088	28.93
840.261	27.88
840.434	27.34
840.607	26.29
840.779	26.02
840.952	24.45
841.124	24.89
841.297	27.9
841.47	27.01
841.642	26.67
841.815	27.62
841.987	29.68
842.16	29.52
842.332	30.01
842.505	29.27
842.677	29.33
842.85	29.08
843.022	29.21
843.194	27.96
843.367	28.84
843.539	29.03
843.712	26.11
843.884	23.15
844.056	27.93
844.229	26.15
844.401	26.63
844.573	25.53
844.745	30.34
844.918	27.5
845.09	27
845.262	29.89
845.434	26.1
845.606	30.28
845.779	34.32
845.951	33.82
846.123	32.24
846.295	34.24
846.467	30
846.639	28.71
846.811	32.41
846.983	34.34
847.155	29.87
847.327	33.65
847.499	33.36
847.671	27.39
847.843	22.12
848.015	24.14
848.187	27.76
848.359	36.27
848.531	30.93
848.703	27.81
848.875	29.09
849.047	30.59
849.218	30.76
849.39	29.97
849.562	32.71
849.734	33.71
849.905	32.28
850.077	32.31
850.249	31.66
850.421	33.46
850.592	36.96
850.764	34.79
850.936	29.63
851.107	30.49
851.279	29.55
851.451	30.79
851.622	31.74
851.794	33.91
851.965	29.6
852.137	26.79
852.308	26.29
852.48	24.95
852.651	24.25
852.823	29.97
852.994	30.76
853.166	30.5
853.337	29.09
853.509	28.96
853.68	30.31
853.851	33.92
854.023	37.58
854.194	41.15
854.365	38.41
854.537	39.98
854.708	41.95
854.879	42.3
855.05	43.11
855.222	40.62
855.393	39.24
855.564	35.92
855.735	30.69
855.906	30.46
856.078	25.01
856.249	23.53
856.42	25.02
856.591	22.42
856.762	21.05
856.933	21.85
857.104	22.93
857.275	23.69
857.446	26.51
857.617	33.84
857.788	31.42
857.959	35.11
858.13	38.05
858.301	34.09
858.472	33.1
858.643	30.66
858.814	30.01
858.985	31.45
859.155	28.86
859.326	23.98
859.497	20.52
859.668	22.91
859.839	24.7
860.009	25.94
860.18	29.5
860.351	28.2
860.522	30.48
860.692	26.16
860.863	22.29
861.034	24.56
861.204	24.95
861.375	25.06
861.546	23.74
861.716	18.41
861.887	15.61
862.057	17.84
862.228	19.62
862.398	13.64
862.569	19.43
862.739	23.28
862.91	21.03
863.08	24.96
863.251	21.04
863.421	20.34
863.592	25.85
863.762	30.48
863.932	27.6
864.103	31.86
864.273	38.81
864.443	36.6
864.614	37.11
864.784	39.34
864.954	37.99
865.125	39.59
865.295	38.63
865.465	32.72
865.635	31.24
865.805	31.16
865.976	27.84
866.146	22.52
866.316	23.54
866.486	21.84
866.656	20.34
866.826	20.94
866.996	24
867.166	24.57
867.336	31.53
867.506	30.09
867.676	29.2
867.846	31.76
868.016	29.71
868.186	35.71
868.356	35.44
868.526	37.9
868.696	38.94
868.866	35.76
869.036	36.62
869.206	33.38
869.376	30.87
869.545	33.01
869.715	31.28
869.885	32.33
870.055	26.49
870.224	26.57
870.394	23.57
870.564	24.8
870.734	28.84
870.903	27.96
871.073	30.02
871.243	32.6
871.412	31.91
871.582	31.11
871.751	33.57
871.921	35.88
872.091	34.44
872.26	38.8
872.43	33.84
872.599	33.08
872.769	34.6
872.938	34.74
873.108	33.94
873.277	34.93
873.446	32.92
873.616	34.12
873.785	31.03
873.955	36.52
874.124	36.7
874.293	42.23
874.463	41.06
874.632	45.11
874.801	41.1
874.971	41.78
875.14	41.36
875.309	46.43
875.478	44.83
875.647	43.79
875.817	39.85
875.986	38.28
876.155	34.69
876.324	32.05
876.493	26.55
876.662	28.33
876.831	27.61
877	24.96
877.17	21.64
877.339	18.56
877.508	21.68
877.677	21.66
877.846	19.8
878.015	17.38
878.184	17.38
878.352	17.63
878.521	17.73
878.69	16.41
878.859	18.62
879.028	16.18
879.197	20.73
879.366	21.76
879.534	22.9
879.703	24.45
879.872	27.8
880.041	27.86
880.21	27.44
880.378	27.92
880.547	25.95
880.716	24.4
880.884	25.21
881.053	23.1
881.222	22.66
881.39	21.66
881.559	21.46
881.727	20.43
881.896	19.73
882.065	19.85
882.233	19.22
882.402	19.81
882.57	20.28
882.739	19.83
882.907	19.95
883.076	19.79
883.244	19.95
883.412	20.64
883.581	20.81
883.749	20.87
883.918	20.92
884.086	20.55
884.254	20.5
884.423	20.56
884.591	20.67
884.759	21.25
884.927	21.14
885.096	20.82
885.264	20.14
885.432	20.01
885.6	22.42
885.769	20.43
885.937	21.46
886.105	23.12
886.273	21.8
886.441	21.26
886.609	21.29
886.777	24.48
886.945	26.32
887.113	26.32
887.281	26.01
887.449	25.74
887.617	29.33
887.785	27.04
887.953	26.05
888.121	27.7
888.289	26.59
888.457	28.62
888.625	26.19
888.793	23.5
888.961	19.36
889.129	20.47
889.296	18.41
889.464	16.92
889.632	21.82
889.8	19.49
889.967	18.64
890.135	25.48
