Data from 2938798__Reflection_02.txt Node
Date: Thu Mar 12 23:03:32 EDT 2015
User: robert
Spectrometer: USB4E03002
Autoset integration time: false
Trigger mode: 4
Integration Time (sec): 1.000000E-1
Scans to average: 10
Electric dark correction enabled: false
Nonlinearity correction enabled: false
Boxcar width: 5
Stray light correction enabled: false
XAxis mode: Wavelengths
Stop averaging: false
Number of Pixels in Spectrum: 3648
>>>>>Begin Spectral Data<<<<<
177.575	924.3
177.794	2663.89
178.014	819.87
178.233	878.67
178.452	411.7
178.672	415.74
178.891	478.93
179.11	418.23
179.33	392.67
179.549	426.81
179.768	321.35
179.987	280.9
180.207	268.47
180.426	288.49
180.645	314.98
180.864	314.24
181.084	375.7
181.303	244.1
181.522	218.96
181.741	186.16
181.96	187
182.179	204.67
182.398	212.12
182.618	195.35
182.837	187.62
183.056	194.15
183.275	204.06
183.494	179.15
183.713	188.59
183.932	205.28
184.151	230.65
184.37	197.21
184.589	192.02
184.808	193.87
185.027	208.31
185.246	207.37
185.465	181.57
185.684	190.27
185.903	178.25
186.122	182.77
186.341	196.17
186.56	189.31
186.779	209.66
186.998	220.19
187.216	205.72
187.435	191.75
187.654	189.66
187.873	204.87
188.092	204.77
188.311	233.08
188.53	222
188.748	204.41
188.967	220.64
189.186	218.63
189.405	217.27
189.623	225.93
189.842	210.12
190.061	193.86
190.28	194.55
190.498	177.43
190.717	157.17
190.936	172.35
191.154	151.67
191.373	141.34
191.592	131.39
191.81	125.26
192.029	127.66
192.248	135.03
192.466	136.43
192.685	131.78
192.904	158.25
193.122	168.93
193.341	178.76
193.559	215.75
193.778	205.99
193.996	227.62
194.215	218.67
194.433	234.31
194.652	269.43
194.87	311.74
195.089	352.14
195.307	279.75
195.526	245.53
195.744	244.12
195.963	215.5
196.181	246.12
196.399	243.73
196.618	214.77
196.836	191.57
197.055	175.51
197.273	169.55
197.491	158.93
197.71	162.28
197.928	183.36
198.146	160.82
198.365	151.08
198.583	143.96
198.801	138.09
199.019	175.35
199.238	170.16
199.456	172.24
199.674	181.06
199.892	160.99
200.111	168.21
200.329	167.2
200.547	196.17
200.765	221.3
200.983	194.61
201.202	191.25
201.42	170.16
201.638	181.48
201.856	186.21
202.074	178.51
202.292	179.12
202.51	160.37
202.728	159.54
202.946	145.03
203.165	143.67
203.383	163.05
203.601	163.69
203.819	166.57
204.037	179.29
204.255	182.49
204.473	166.72
204.691	172.04
204.909	166.64
205.127	158.88
205.345	163.53
205.562	145.77
205.78	139.22
205.998	150.22
206.216	138.8
206.434	142.58
206.652	144.29
206.87	154.27
207.088	142.67
207.306	160.03
207.523	163.81
207.741	152
207.959	174.16
208.177	175
208.395	156.32
208.612	169.05
208.83	156.9
209.048	153.41
209.266	145.43
209.483	161.32
209.701	134.86
209.919	140.29
210.136	151.35
210.354	144.72
210.572	144.79
210.79	154.22
211.007	150.28
211.225	144.22
211.442	135.72
211.66	135.21
211.878	127
212.095	143
212.313	134.13
212.53	130.25
212.748	129.66
212.966	130.93
213.183	128.11
213.401	126.02
213.618	127.98
213.836	133.16
214.053	142.64
214.271	141.11
214.488	136.1
214.705	135.02
214.923	140.83
215.14	143.76
215.358	153.9
215.575	176.46
215.793	165.79
216.01	166.63
216.227	157.43
216.445	153.39
216.662	186.62
216.879	161.31
217.097	180.08
217.314	156.65
217.531	145.24
217.749	143.24
217.966	133.23
218.183	139.2
218.4	123.95
218.618	136.27
218.835	136.31
219.052	121.65
219.269	127.31
219.487	113.84
219.704	114.77
219.921	113.27
220.138	102.59
220.355	102.34
220.572	100.77
220.79	100.15
221.007	95.34
221.224	89.39
221.441	87.7
221.658	87.02
221.875	86.15
222.092	84.68
222.309	86.65
222.526	86.75
222.743	83.66
222.96	83.44
223.177	80.63
223.394	76.79
223.611	76.92
223.828	77.34
224.045	78.14
224.262	77.9
224.479	77.67
224.696	72.61
224.913	72.38
225.13	68.06
225.347	62.33
225.564	62.78
225.781	61.13
225.997	55.88
226.214	50.2
226.431	44.51
226.648	38.11
226.865	34.2
227.082	31.82
227.298	27.48
227.515	25
227.732	23.24
227.949	20.75
228.165	18.46
228.382	17.02
228.599	16.3
228.816	15.42
229.032	15.41
229.249	14.87
229.466	13.76
229.682	13.15
229.899	13.26
230.116	12.77
230.332	13.19
230.549	13.95
230.765	15.32
230.982	16.48
231.199	16.55
231.415	16.79
231.632	17.79
231.848	18.8
232.065	20.36
232.281	21.24
232.498	23.22
232.714	23.57
232.931	24.28
233.147	23.8
233.364	23.23
233.58	25.04
233.797	25.31
234.013	25.73
234.23	26.9
234.446	26.82
234.662	26.18
234.879	25.78
235.095	25.38
235.312	23.88
235.528	24.89
235.744	25.66
235.961	24.61
236.177	24.64
236.393	23.24
236.61	23.17
236.826	24.36
237.042	24.66
237.258	24.05
237.475	24.14
237.691	25.11
237.907	25.04
238.123	23.52
238.339	23.06
238.556	23.96
238.772	24.62
238.988	24
239.204	22.25
239.42	21.58
239.636	21.06
239.853	20.92
240.069	19.62
240.285	18.14
240.501	17.44
240.717	16.74
240.933	14.85
241.149	14.05
241.365	12.63
241.581	12.15
241.797	11.79
242.013	11.55
242.229	11.1
242.445	11.07
242.661	10.8
242.877	10.78
243.093	10.88
243.309	11.66
243.525	11.58
243.741	12.15
243.957	12.74
244.173	12.38
244.388	13.26
244.604	13.18
244.82	12.92
245.036	12.88
245.252	13.03
245.468	12.41
245.683	10.91
245.899	10.69
246.115	9.97
246.331	9.35
246.547	9.41
246.762	8.71
246.978	8.41
247.194	8.4
247.409	8.27
247.625	7.99
247.841	8.09
248.057	8.29
248.272	8.09
248.488	8.24
248.703	8.45
248.919	8.45
249.135	8.97
249.35	9.76
249.566	10.26
249.782	10.59
249.997	11.59
250.213	11.76
250.428	12.85
250.644	13.15
250.859	13.33
251.075	13.4
251.29	12.98
251.506	12.2
251.721	11.64
251.937	11.35
252.152	11.41
252.368	10.77
252.583	10.71
252.798	10.57
253.014	11.21
253.229	11.69
253.445	11.99
253.66	12.76
253.875	12.96
254.091	13.16
254.306	14.27
254.521	14.5
254.737	14.49
254.952	14.96
255.167	14.67
255.383	13.96
255.598	13.33
255.813	12.36
256.028	12.22
256.244	13.2
256.459	13.49
256.674	12.05
256.889	11.38
257.104	11.25
257.32	10.87
257.535	10.48
257.75	10.56
257.965	10.67
258.18	10.29
258.395	9.73
258.61	8.8
258.826	8.19
259.041	7.81
259.256	7.36
259.471	7.11
259.686	6.99
259.901	6.73
260.116	6.32
260.331	5.9
260.546	5.87
260.761	5.97
260.976	6.06
261.191	5.9
261.406	6.03
261.621	6.49
261.836	6.9
262.05	6.88
262.265	7.29
262.48	7.78
262.695	8.56
262.91	9.28
263.125	10.03
263.34	10.81
263.555	11.86
263.769	11.77
263.984	11.66
264.199	11.4
264.414	11.5
264.629	12.01
264.843	11.97
265.058	11.39
265.273	10.23
265.488	9.7
265.702	9.41
265.917	9.07
266.132	9.53
266.346	9.75
266.561	9.73
266.776	10.14
266.99	9.49
267.205	9.49
267.42	9.29
267.634	9.47
267.849	9.16
268.063	8.68
268.278	8.84
268.492	9.14
268.707	8.94
268.922	9.21
269.136	8.57
269.351	8.51
269.565	7.95
269.78	8.1
269.994	8.27
270.209	8.21
270.423	8.18
270.637	7.72
270.852	7.09
271.066	6.91
271.281	6.55
271.495	6.72
271.709	6.82
271.924	7.11
272.138	6.95
272.353	6.87
272.567	6.88
272.781	6.92
272.996	7.16
273.21	7.31
273.424	7.57
273.638	7.92
273.853	8.03
274.067	8.05
274.281	8.37
274.495	8.51
274.71	8.74
274.924	8.95
275.138	8.61
275.352	8.42
275.566	8.49
275.781	8.44
275.995	8.12
276.209	8.02
276.423	8.39
276.637	8.15
276.851	8.37
277.065	8.63
277.279	9.16
277.493	9.45
277.707	9.48
277.921	9.62
278.135	9.77
278.349	9.93
278.563	10.12
278.777	9.89
278.991	9.64
279.205	9.57
279.419	9.5
279.633	8.81
279.847	8.87
280.061	8.84
280.275	8.7
280.489	8.52
280.703	8.52
280.917	8.27
281.131	8.38
281.344	8.15
281.558	7.93
281.772	7.54
281.986	7.12
282.2	7.06
282.414	6.99
282.627	6.97
282.841	6.84
283.055	6.63
283.269	6.63
283.482	6.7
283.696	6.78
283.91	6.78
284.123	7.03
284.337	7.42
284.551	7.3
284.764	7.54
284.978	7.2
285.192	7.02
285.405	7.26
285.619	7.15
285.833	6.9
286.046	7.07
286.26	7.08
286.473	6.89
286.687	7.01
286.9	7.25
287.114	6.89
287.327	7.39
287.541	7.49
287.754	7.29
287.968	7.75
288.181	7.66
288.395	7.66
288.608	7.76
288.822	7.58
289.035	7.19
289.248	7.09
289.462	7.17
289.675	6.7
289.889	6.74
290.102	6.61
290.315	6.3
290.529	6.59
290.742	6.51
290.955	6.59
291.169	6.91
291.382	7.29
291.595	7.56
291.808	8.01
292.022	8.56
292.235	8.77
292.448	9
292.661	8.83
292.875	8.71
293.088	9.09
293.301	9.12
293.514	8.92
293.727	8.83
293.94	8.86
294.153	8.47
294.367	8.3
294.58	7.86
294.793	7.94
295.006	8.35
295.219	8.42
295.432	8.35
295.645	8.41
295.858	8.38
296.071	8.16
296.284	7.96
296.497	7.95
296.71	8.03
296.923	8.25
297.136	8.07
297.349	7.9
297.562	7.85
297.775	7.69
297.988	7.38
298.201	7.61
298.414	7.72
298.626	7.61
298.839	7.74
299.052	7.51
299.265	7.89
299.478	8.04
299.691	8.2
299.903	8.23
300.116	8.37
300.329	8.97
300.542	8.83
300.755	8.88
300.967	9.48
301.18	9.72
301.393	9.91
301.605	9.44
301.818	9.68
302.031	9.7
302.243	9.9
302.456	10.44
302.669	10.23
302.881	10.18
303.094	10.3
303.307	9.7
303.519	9.54
303.732	9.64
303.944	9.75
304.157	10.06
304.37	10.08
304.582	10
304.795	9.48
305.007	9.8
305.22	9.71
305.432	9.7
305.645	10.08
305.857	10.26
306.069	10.28
306.282	10.41
306.494	10.08
306.707	10.2
306.919	10.29
307.132	10.38
307.344	10.02
307.556	10.04
307.769	10.23
307.981	9.95
308.193	9.71
308.406	9.52
308.618	9.63
308.83	9.48
309.043	9.45
309.255	9.24
309.467	9.02
309.679	9.18
309.892	9.25
310.104	8.73
310.316	8.75
310.528	8.88
310.74	8.88
310.953	8.9
311.165	8.94
311.377	8.88
311.589	9.18
311.801	9.33
312.013	9.22
312.225	9.27
312.437	10.01
312.649	10.21
312.862	10.26
313.074	10.28
313.286	10.62
313.498	10.57
313.71	10.98
313.922	10.84
314.134	10.89
314.346	10.79
314.558	11.25
314.77	11.16
314.982	11.21
315.193	11.07
315.405	11.24
315.617	10.97
315.829	11.34
316.041	11.25
316.253	10.99
316.465	11.31
316.677	11.56
316.888	11.69
317.1	11.4
317.312	11.64
317.524	11.71
317.736	11.65
317.947	11.33
318.159	11.59
318.371	11.36
318.583	11.97
318.794	11.71
319.006	12.05
319.218	12.24
319.43	12.59
319.641	12.78
319.853	13.08
320.064	13.27
320.276	13.51
320.488	13.1
320.699	13.63
320.911	13.22
321.123	13.46
321.334	13.38
321.546	13.51
321.757	13.87
321.969	13.94
322.18	14.03
322.392	14.39
322.603	14.75
322.815	15.06
323.026	14.55
323.238	14.5
323.449	14.43
323.661	14.32
323.872	14.09
324.083	13.8
324.295	13.5
324.506	13.25
324.718	13.25
324.929	13.65
325.14	13.96
325.352	14.58
325.563	15.32
325.774	15.81
325.986	16.18
326.197	16.36
326.408	16.86
326.62	17.39
326.831	18.13
327.042	18.44
327.253	18.47
327.464	18.82
327.676	18.57
327.887	18.51
328.098	18.86
328.309	19.17
328.52	19.42
328.732	19.61
328.943	19.8
329.154	20.04
329.365	20.47
329.576	20.76
329.787	21.03
329.998	22.13
330.209	22.79
330.42	23.12
330.631	23.37
330.842	23.46
331.053	23.91
331.264	24.21
331.475	24.3
331.686	24.41
331.897	24.63
332.108	24.67
332.319	24.67
332.53	25.03
332.741	24.98
332.952	25.17
333.163	25.47
333.374	25.5
333.585	25.69
333.795	26.06
334.006	26.29
334.217	26.55
334.428	26.76
334.639	26.63
334.849	26.39
335.06	26.18
335.271	26.02
335.482	26.2
335.692	26.39
335.903	26.2
336.114	26.24
336.325	26.16
336.535	26.35
336.746	26.46
336.957	26.37
337.167	26.31
337.378	26.74
337.589	26.75
337.799	26.99
338.01	26.67
338.22	27.03
338.431	26.77
338.642	26.62
338.852	26.26
339.063	26.19
339.273	26.62
339.484	26.84
339.694	26.51
339.905	26.67
340.115	26.13
340.326	26.09
340.536	26.06
340.746	26.09
340.957	26.34
341.167	26.37
341.378	26.29
341.588	26.31
341.799	25.98
342.009	26.08
342.219	26.18
342.43	26.31
342.64	26.44
342.85	26.42
343.061	26.52
343.271	26.43
343.481	26.33
343.691	26.34
343.902	26.01
344.112	26.35
344.322	26.49
344.532	26.38
344.743	26.63
344.953	26.23
345.163	26.08
345.373	26.11
345.583	25.9
345.793	25.81
346.004	25.6
346.214	25.83
346.424	25.49
346.634	25.44
346.844	25.7
347.054	25.65
347.264	26.18
347.474	26
347.684	25.62
347.894	25.9
348.104	25.83
348.314	25.87
348.524	25.66
348.734	25.87
348.944	26.02
349.154	25.72
349.364	25.49
349.574	25.27
349.784	25.15
349.994	25.28
350.204	25.2
350.413	25.53
350.623	25.21
350.833	25.19
351.043	25.37
351.253	24.92
351.463	24.97
351.672	24.99
351.882	24.93
352.092	25.16
352.302	25.08
352.511	25.01
352.721	24.94
352.931	25.25
353.141	25.24
353.35	24.94
353.56	25.05
353.77	25.03
353.979	25.04
354.189	24.92
354.399	24.88
354.608	24.8
354.818	24.8
355.027	24.52
355.237	24.53
355.447	24.47
355.656	24.58
355.866	24.45
356.075	24.22
356.285	23.92
356.494	23.91
356.704	23.73
356.913	23.72
357.123	23.58
357.332	23.74
357.542	23.59
357.751	23.41
357.96	23.01
358.17	22.81
358.379	22.9
358.589	22.9
358.798	22.98
359.007	23.04
359.217	23
359.426	22.87
359.635	22.69
359.845	22.84
360.054	22.91
360.263	22.91
360.472	23.02
360.682	22.77
360.891	22.78
361.1	22.65
361.309	22.8
361.519	22.72
361.728	22.78
361.937	22.76
362.146	22.44
362.355	22.45
362.564	22.58
362.774	22.55
362.983	22.63
363.192	22.67
363.401	22.6
363.61	22.29
363.819	22.4
364.028	22.22
364.237	21.95
364.446	21.89
364.655	21.8
364.864	21.9
365.073	21.86
365.282	21.66
365.491	21.56
365.7	21.57
365.909	21.81
366.118	21.68
366.327	21.95
366.536	22.09
366.745	22.35
366.954	22.56
367.162	22.62
367.371	22.72
367.58	23.19
367.789	23.37
367.998	23.27
368.207	23.12
368.415	23.16
368.624	23.1
368.833	23.35
369.042	23.15
369.25	22.86
369.459	22.66
369.668	22.62
369.877	22.31
370.085	22.2
370.294	22.18
370.503	22.24
370.711	22.34
370.92	22.3
371.129	22.24
371.337	22.43
371.546	22.4
371.754	22.34
371.963	22.33
372.171	22.03
372.38	22.15
372.589	22.33
372.797	22.08
373.006	21.99
373.214	21.9
373.423	21.64
373.631	21.64
373.84	21.64
374.048	21.72
374.256	21.71
374.465	22.17
374.673	21.82
374.882	21.67
375.09	21.77
375.298	21.76
375.507	21.92
375.715	22.13
375.923	21.96
376.132	21.79
376.34	21.57
376.548	21.39
376.757	21.16
376.965	21.39
377.173	21.28
377.381	21.11
377.59	20.83
377.798	20.4
378.006	19.98
378.214	20.06
378.423	20.11
378.631	20.14
378.839	20.15
379.047	20.26
379.255	20.18
379.463	20.49
379.671	20.8
379.879	20.9
380.088	21.38
380.296	21.66
380.504	21.47
380.712	21.44
380.92	21.39
381.128	21.45
381.336	21.39
381.544	21.19
381.752	20.93
381.96	20.69
382.168	20.71
382.376	20.46
382.584	20.3
382.791	20.34
382.999	20.31
383.207	20.38
383.415	20.25
383.623	20.38
383.831	20.35
384.039	20.42
384.247	20.43
384.454	20.53
384.662	20.45
384.87	20.53
385.078	20.51
385.285	20.49
385.493	20.49
385.701	20.53
385.909	20.28
386.116	20.25
386.324	20.21
386.532	20.25
386.739	20.24
386.947	20.27
387.155	20.38
387.362	20.45
387.57	20.56
387.778	20.45
387.985	20.58
388.193	20.64
388.4	20.76
388.608	20.78
388.816	20.59
389.023	20.62
389.231	20.61
389.438	20.5
389.646	20.46
389.853	20.3
390.061	20.27
390.268	20.2
390.475	20.17
390.683	20.13
390.89	20.08
391.098	20.14
391.305	20.07
391.512	19.98
391.72	20.02
391.927	19.85
392.135	19.96
392.342	19.95
392.549	19.87
392.756	19.87
392.964	19.91
393.171	19.82
393.378	19.73
393.586	19.68
393.793	19.71
394	19.62
394.207	19.64
394.414	19.67
394.622	19.82
394.829	19.86
395.036	19.91
395.243	19.85
395.45	20.02
395.657	20.2
395.864	20.2
396.072	20.36
396.279	20.46
396.486	20.62
396.693	20.72
396.9	20.54
397.107	20.53
397.314	20.47
397.521	20.51
397.728	20.31
397.935	20.38
398.142	20.29
398.349	20.11
398.556	20.03
398.763	20.02
398.97	19.86
399.177	19.92
399.383	19.91
399.59	19.86
399.797	19.98
400.004	20.03
400.211	19.92
400.418	20.14
400.625	20.12
400.831	20.05
401.038	20.09
401.245	19.95
401.452	19.94
401.658	19.74
401.865	19.84
402.072	19.55
402.279	19.63
402.485	19.67
402.692	19.57
402.899	19.57
403.105	19.75
403.312	19.57
403.519	19.67
403.725	19.69
403.932	19.83
404.138	19.75
404.345	19.93
404.552	19.91
404.758	19.75
404.965	19.76
405.171	19.86
405.378	19.63
405.584	19.52
405.791	19.36
405.997	19.31
406.204	19.41
406.41	19.39
406.617	19.36
406.823	19.5
407.029	19.65
407.236	19.59
407.442	19.55
407.649	19.73
407.855	19.97
408.061	20.16
408.268	20.04
408.474	20.07
408.68	20.1
408.887	19.93
409.093	19.8
409.299	19.59
409.505	19.52
409.712	19.41
409.918	19.46
410.124	19.45
410.33	19.46
410.537	19.52
410.743	19.42
410.949	19.42
411.155	19.53
411.361	19.34
411.567	19.5
411.773	19.6
411.98	19.71
412.186	19.7
412.392	19.51
412.598	19.46
412.804	19.39
413.01	19.22
413.216	19.27
413.422	19.37
413.628	19.51
413.834	19.54
414.04	19.64
414.246	19.53
414.452	19.48
414.658	19.74
414.864	19.78
415.07	19.82
415.275	19.95
415.481	19.84
415.687	19.67
415.893	19.58
416.099	19.55
416.305	19.43
416.511	19.51
416.716	19.43
416.922	19.3
417.128	19.29
417.334	19.32
417.539	19.36
417.745	19.31
417.951	19.32
418.157	19.31
418.362	19.28
418.568	19.33
418.774	19.2
418.979	19.18
419.185	19.14
419.391	19.08
419.596	19.08
419.802	19.01
420.008	19.05
420.213	18.46
420.419	18.45
420.624	18.44
420.83	18.37
421.035	18.45
421.241	18.45
421.446	18.41
421.652	18.37
421.857	18.26
422.063	18.22
422.268	18.19
422.474	18.71
422.679	18.74
422.885	18.77
423.09	18.79
423.295	18.78
423.501	18.77
423.706	18.78
423.911	18.85
424.117	18.99
424.322	19.05
424.527	19.05
424.733	19.06
424.938	18.98
425.143	18.95
425.349	18.98
425.554	19
425.759	19.08
425.964	19.18
426.169	19.21
426.375	19.17
426.58	19.14
426.785	19.13
426.99	19.25
427.195	19.4
427.4	19.49
427.605	19.5
427.811	19.52
428.016	19.39
428.221	19.39
428.426	19.39
428.631	19.53
428.836	19.54
429.041	19.78
429.246	19.71
429.451	19.72
429.656	19.56
429.861	19.55
430.066	19.59
430.271	19.62
430.476	19.48
430.681	19.49
430.886	19.35
431.09	19.44
431.295	19.23
431.5	19.2
431.705	19.17
431.91	19.2
432.115	19.11
432.32	19.08
432.524	19.17
432.729	19.23
432.934	19.08
433.139	19.11
433.343	18.92
433.548	18.98
433.753	18.98
433.958	18.96
434.162	19.04
434.367	19.09
434.572	19.03
434.776	18.98
434.981	19.07
435.186	19.16
435.39	19.22
435.595	19.38
435.799	19.39
436.004	19.39
436.209	19.47
436.413	19.46
436.618	19.48
436.822	19.53
437.027	19.49
437.231	19.45
437.436	19.5
437.64	19.49
437.845	19.46
438.049	19.5
438.253	19.57
438.458	19.51
438.662	19.48
438.867	19.48
439.071	19.53
439.275	19.51
439.48	19.47
439.684	19.38
439.888	19.33
440.093	19.24
440.297	19.17
440.501	19.09
440.706	19.06
440.91	19.07
441.114	19.06
441.318	19.07
441.523	19.13
441.727	19.19
441.931	19.24
442.135	19.28
442.339	19.37
442.543	19.34
442.748	19.41
442.952	19.52
443.156	19.45
443.36	19.53
443.564	19.46
443.768	19.53
443.972	19.5
444.176	19.47
444.38	19.4
444.584	19.44
444.788	19.45
444.992	19.45
445.196	19.36
445.4	19.37
445.604	19.31
445.808	19.24
446.012	19.07
446.216	19
446.42	19.03
446.624	19.02
446.828	18.98
447.032	18.97
447.235	18.89
447.439	18.91
447.643	18.91
447.847	18.92
448.051	18.92
448.254	18.96
448.458	18.98
448.662	18.89
448.866	18.89
449.069	18.81
449.273	18.86
449.477	18.94
449.681	18.94
449.884	19.06
450.088	19.09
450.292	19.27
450.495	19.31
450.699	19.39
450.902	19.56
451.106	19.65
451.31	19.8
451.513	19.77
451.717	19.65
451.92	19.72
452.124	19.57
452.327	19.49
452.531	19.38
452.734	19.42
452.938	19.4
453.141	19.31
453.345	19.18
453.548	19.18
453.752	19.24
453.955	19.39
454.158	19.36
454.362	19.39
454.565	19.4
454.769	19.41
454.972	19.43
455.175	19.49
455.379	19.45
455.582	19.6
455.785	19.51
455.988	19.38
456.192	19.27
456.395	19.26
456.598	19.32
456.801	19.43
457.005	19.46
457.208	19.53
457.411	19.52
457.614	19.43
457.817	19.19
458.021	19.17
458.224	19.27
458.427	19.29
458.63	19.23
458.833	19.08
459.036	19.04
459.239	18.95
459.442	18.85
459.645	18.77
459.848	18.87
460.051	18.98
460.254	19.02
460.457	19.01
460.66	18.98
460.863	19.04
461.066	19.16
461.269	19.07
461.472	19.2
461.675	19.19
461.878	19.19
462.081	19.15
462.284	19.19
462.486	19.15
462.689	19.21
462.892	19.15
463.095	19.13
463.298	19.16
463.5	19.25
463.703	19.24
463.906	19.31
464.109	19.42
464.311	19.51
464.514	19.52
464.717	19.6
464.92	19.55
465.122	19.7
465.325	19.76
465.528	19.78
465.73	19.87
465.933	19.8
466.135	19.68
466.338	19.68
466.541	19.64
466.743	19.55
466.946	19.56
467.148	19.5
467.351	19.44
467.553	19.35
467.756	19.25
467.958	19.16
468.161	19.14
468.363	19.27
468.566	19.31
468.768	19.22
468.971	19.32
469.173	19.3
469.375	19.3
469.578	19.32
469.78	19.27
469.983	19.39
470.185	19.5
470.387	19.55
470.59	19.64
470.792	19.67
470.994	19.74
471.196	19.77
471.399	19.69
471.601	19.83
471.803	19.74
472.005	19.79
472.208	19.76
472.41	19.58
472.612	19.6
472.814	19.51
473.016	19.45
473.218	19.44
473.421	19.35
473.623	19.48
473.825	19.34
474.027	19.46
474.229	19.46
474.431	19.52
474.633	19.67
474.835	19.66
475.037	19.63
475.239	19.61
475.441	19.64
475.643	19.69
475.845	19.7
476.047	19.79
476.249	19.81
476.451	19.8
476.653	19.78
476.855	19.8
477.057	19.71
477.258	19.62
477.46	19.7
477.662	19.75
477.864	19.69
478.066	19.66
478.268	19.65
478.469	19.6
478.671	19.56
478.873	19.55
479.075	19.47
479.276	19.62
479.478	19.71
479.68	19.71
479.882	19.66
480.083	19.71
480.285	19.63
480.487	19.64
480.688	19.62
480.89	19.6
481.091	19.48
481.293	19.45
481.495	19.31
481.696	19.3
481.898	19.14
482.099	19.08
482.301	19.01
482.502	18.95
482.704	18.84
482.905	18.81
483.107	18.77
483.308	18.78
483.51	18.71
483.711	18.7
483.913	18.67
484.114	18.67
484.315	18.65
484.517	18.62
484.718	18.66
484.92	18.68
485.121	18.67
485.322	18.7
485.524	18.72
485.725	18.79
485.926	18.77
486.127	18.78
486.329	18.76
486.53	18.8
486.731	18.82
486.932	18.8
487.134	18.78
487.335	18.81
487.536	18.79
487.737	18.74
487.938	18.71
488.139	18.76
488.341	18.74
488.542	18.81
488.743	18.81
488.944	18.8
489.145	18.8
489.346	18.88
489.547	18.89
489.748	18.91
489.949	18.95
490.15	18.99
490.351	19.01
490.552	19
490.753	18.93
490.954	18.92
491.155	18.91
491.356	18.96
491.557	18.91
491.758	18.96
491.959	18.95
492.159	18.95
492.36	18.95
492.561	18.95
492.762	19.06
492.963	19.2
493.164	19.23
493.364	19.32
493.565	19.34
493.766	19.45
493.967	19.42
494.167	19.48
494.368	19.58
494.569	19.71
494.769	19.77
494.97	19.62
495.171	19.54
495.371	19.58
495.572	19.62
495.773	19.65
495.973	19.67
496.174	19.71
496.375	19.76
496.575	19.78
496.776	19.72
496.976	19.64
497.177	19.76
497.377	19.78
497.578	19.75
497.778	19.71
497.979	19.68
498.179	19.73
498.38	19.71
498.58	19.77
498.78	19.72
498.981	19.77
499.181	19.89
499.382	19.83
499.582	19.88
499.782	20.04
499.983	20.11
500.183	20.18
500.383	20.16
500.584	20.17
500.784	20.14
500.984	20.18
501.184	20.28
501.385	20.28
501.585	20.39
501.785	20.4
501.985	20.32
502.185	20.31
502.386	20.29
502.586	20.2
502.786	20.26
502.986	20.28
503.186	20.36
503.386	20.24
503.586	20.24
503.786	20.28
503.987	20.31
504.187	20.33
504.387	20.41
504.587	20.51
504.787	20.62
504.987	20.61
505.187	20.57
505.387	20.59
505.587	20.68
505.786	20.68
505.986	20.72
506.186	20.81
506.386	20.81
506.586	20.82
506.786	20.81
506.986	20.79
507.186	20.81
507.386	20.88
507.585	20.92
507.785	20.98
507.985	21.06
508.185	21.15
508.384	21.13
508.584	21.19
508.784	21.2
508.984	21.24
509.183	21.27
509.383	21.31
509.583	21.33
509.782	21.3
509.982	21.32
510.182	21.34
510.381	21.28
510.581	21.27
510.781	21.3
510.98	21.27
511.18	21.34
511.379	21.4
511.579	21.43
511.778	21.51
511.978	21.55
512.177	21.47
512.377	21.46
512.576	21.57
512.776	21.62
512.975	21.67
513.175	21.71
513.374	21.67
513.573	21.68
513.773	21.81
513.972	21.83
514.172	21.92
514.371	22.12
514.57	22.16
514.77	22.14
514.969	22.22
515.168	22.32
515.367	22.38
515.567	22.42
515.766	22.53
515.965	22.5
516.164	22.6
516.364	22.5
516.563	22.51
516.762	22.64
516.961	22.68
517.16	22.69
517.359	22.69
517.559	22.77
517.758	22.75
517.957	22.81
518.156	22.83
518.355	22.76
518.554	22.89
518.753	22.91
518.952	22.91
519.151	22.94
519.35	22.95
519.549	22.93
519.748	22.92
519.947	23.04
520.146	23.1
520.345	23.15
520.544	23.24
520.743	23.23
520.942	23.26
521.141	23.26
521.339	23.3
521.538	23.36
521.737	23.44
521.936	23.49
522.135	23.48
522.333	23.49
522.532	23.53
522.731	23.56
522.93	23.52
523.129	23.51
523.327	23.63
523.526	23.64
523.725	23.73
523.923	23.74
524.122	23.82
524.321	23.91
524.519	23.9
524.718	23.95
524.917	24.01
525.115	24.1
525.314	24.14
525.512	24.13
525.711	24.18
525.909	24.12
526.108	24.15
526.306	24.17
526.505	24.18
526.703	24.14
526.902	24.16
527.1	24.13
527.299	24.12
527.497	24.15
527.696	24.13
527.894	24.13
528.092	24.14
528.291	24.17
528.489	24.15
528.688	24.13
528.886	24.14
529.084	24.15
529.283	24.18
529.481	24.19
529.679	24.21
529.877	24.27
530.076	24.29
530.274	24.35
530.472	24.34
530.67	24.4
530.869	24.42
531.067	24.48
531.265	24.5
531.463	24.63
531.661	24.72
531.859	24.71
532.057	24.7
532.255	24.74
532.454	24.76
532.652	24.83
532.85	24.87
533.048	24.91
533.246	24.99
533.444	25.02
533.642	24.97
533.84	25.01
534.038	25.08
534.236	25.08
534.434	25.14
534.632	25.18
534.83	25.21
535.027	25.2
535.225	25.21
535.423	25.17
535.621	25.21
535.819	25.18
536.017	25.18
536.215	25.16
536.412	25.21
536.61	25.18
536.808	25.19
537.006	25.18
537.203	25.22
537.401	25.3
537.599	25.38
537.797	25.42
537.994	25.49
538.192	25.52
538.39	25.63
538.587	25.7
538.785	25.8
538.983	25.87
539.18	25.98
539.378	26.03
539.575	26.1
539.773	26.13
539.97	26.15
540.168	26.12
540.366	26.08
540.563	26.07
540.761	26.05
540.958	26.06
541.155	26.06
541.353	26.01
541.55	26.01
541.748	25.97
541.945	25.94
542.143	25.94
542.34	26.01
542.537	26.09
542.735	26.08
542.932	26.12
543.129	26.12
543.327	26.14
543.524	26.27
543.721	26.24
543.919	26.39
544.116	26.46
544.313	26.55
544.51	26.59
544.708	26.6
544.905	26.67
545.102	26.78
545.299	26.9
545.496	27
545.693	27
545.891	27.09
546.088	27.04
546.285	27.02
546.482	26.97
546.679	27.01
546.876	27.1
547.073	27.08
547.27	27.06
547.467	27.05
547.664	27.04
547.861	27.08
548.058	27.17
548.255	27.16
548.452	27.31
548.649	27.45
548.846	27.4
549.043	27.39
549.24	27.51
549.437	27.6
549.633	27.56
549.83	27.44
550.027	27.39
550.224	27.3
550.421	27.29
550.618	27.19
550.814	27.18
551.011	27.24
551.208	27.14
551.405	27.18
551.601	27.06
551.798	27.1
551.995	27.11
552.191	27.21
552.388	27.19
552.585	27.23
552.781	27.21
552.978	27.14
553.175	27.15
553.371	27.18
553.568	27
553.764	27
553.961	26.97
554.157	27.09
554.354	26.97
554.55	27.06
554.747	27.08
554.943	27.13
555.14	27.1
555.336	27.09
555.533	27.18
555.729	27.45
555.926	27.46
556.122	27.62
556.318	27.58
556.515	27.62
556.711	27.62
556.907	27.63
557.104	27.74
557.3	27.86
557.496	27.87
557.693	27.78
557.889	27.78
558.085	27.86
558.281	27.87
558.478	27.88
558.674	27.99
558.87	27.9
559.066	27.9
559.262	27.83
559.459	27.81
559.655	27.87
559.851	27.96
560.047	27.81
560.243	27.83
560.439	27.71
560.635	27.74
560.831	27.67
561.027	27.77
561.223	27.8
561.419	27.67
561.615	27.64
561.811	27.59
562.007	27.59
562.203	27.62
562.399	27.65
562.595	27.65
562.791	27.73
562.987	27.76
563.183	27.74
563.379	27.67
563.575	27.85
563.771	27.86
563.966	27.84
564.162	27.9
564.358	28
564.554	27.86
564.75	27.84
564.945	27.87
565.141	27.91
565.337	27.93
565.533	27.94
565.728	27.83
565.924	27.91
566.12	27.96
566.315	27.89
566.511	27.74
566.707	27.86
566.902	27.93
567.098	27.89
567.293	27.81
567.489	27.8
567.684	27.83
567.88	27.99
568.076	27.84
568.271	27.92
568.467	27.96
568.662	28.02
568.858	27.89
569.053	28.01
569.248	28
569.444	28.07
569.639	28.13
569.835	28.11
570.03	27.99
570.225	28.08
570.421	28.08
570.616	28.13
570.812	28.17
571.007	28.32
571.202	28.23
571.397	28.28
571.593	28.18
571.788	28.18
571.983	28.16
572.178	28.19
572.374	28.23
572.569	28.18
572.764	28.22
572.959	28.18
573.154	28.14
573.35	28.14
573.545	28.07
573.74	28.14
573.935	28.07
574.13	28.13
574.325	28.16
574.52	28.14
574.715	28.17
574.91	28.2
575.105	28.37
575.3	28.42
575.495	28.46
575.69	28.5
575.885	28.61
576.08	28.7
576.275	28.75
576.47	28.86
576.665	28.92
576.86	29.03
577.055	29
577.25	29.01
577.444	28.99
577.639	29.08
577.834	29.1
578.029	29.15
578.224	29.17
578.418	29.38
578.613	29.37
578.808	29.43
579.003	29.24
579.197	29.24
579.392	29.19
579.587	29.43
579.781	29.47
579.976	29.59
580.171	29.58
580.365	29.74
580.56	29.54
580.755	29.6
580.949	29.67
581.144	29.87
581.338	30.08
581.533	30.16
581.727	29.91
581.922	29.83
582.116	29.79
582.311	29.75
582.505	29.75
582.7	30
582.894	30
583.089	29.9
583.283	29.8
583.478	29.69
583.672	29.65
583.866	29.78
584.061	29.82
584.255	29.97
584.449	30.08
584.644	30.13
584.838	29.95
585.032	29.94
585.226	29.98
585.421	30.18
585.615	30.11
585.809	30.12
586.003	30.12
586.198	30.33
586.392	30.32
586.586	30.14
586.78	29.93
586.974	29.99
587.168	29.95
587.363	30.1
587.557	30.04
587.751	30.1
587.945	30.15
588.139	30.13
588.333	30.02
588.527	30.01
588.721	30.17
588.915	30.35
589.109	30.22
589.303	30.27
589.497	30.2
589.691	30.2
589.885	30.37
590.079	30.35
590.273	30.42
590.466	30.39
590.66	30.22
590.854	30.29
591.048	30.28
591.242	30.38
591.436	30.38
591.629	30.44
591.823	30.49
592.017	30.33
592.211	30.34
592.404	30.37
592.598	30.36
592.792	30.47
592.986	30.4
593.179	30.4
593.373	30.39
593.567	30.46
593.76	30.5
593.954	30.41
594.147	30.47
594.341	30.41
594.535	30.32
594.728	30.42
594.922	30.45
595.115	30.38
595.309	30.28
595.502	30.39
595.696	30.4
595.889	30.34
596.083	30.37
596.276	30.38
596.47	30.4
596.663	30.54
596.856	30.53
597.05	30.42
597.243	30.51
597.437	30.62
597.63	30.59
597.823	30.64
598.017	30.88
598.21	31.17
598.403	31.26
598.596	31.47
598.79	31.46
598.983	31.49
599.176	31.62
599.369	31.75
599.563	31.82
599.756	31.81
599.949	31.86
600.142	31.62
600.335	31.44
600.528	31.36
600.722	31.33
600.915	31.35
601.108	31.47
601.301	31.58
601.494	31.48
601.687	31.47
601.88	31.48
602.073	31.42
602.266	31.48
602.459	31.55
602.652	31.64
602.845	31.45
603.038	31.3
603.231	31.21
603.424	31.09
603.617	31.12
603.809	31.12
604.002	31.16
604.195	31.09
604.388	31.08
604.581	31.13
604.774	31.1
604.966	31.15
605.159	31.37
605.352	31.35
605.545	31.55
605.737	31.55
605.93	31.66
606.123	31.71
606.316	31.89
606.508	32.02
606.701	32.06
606.894	32.17
607.086	32.44
607.279	32.54
607.471	32.71
607.664	32.75
607.857	32.85
608.049	32.95
608.242	33.18
608.434	33.34
608.627	33.52
608.819	33.68
609.012	33.96
609.204	34.29
609.397	34.65
609.589	35.12
609.782	35.57
609.974	36.15
610.166	36.7
610.359	37.19
610.551	37.67
610.743	38.01
610.936	38.49
611.128	38.85
611.32	39.02
611.513	39.04
611.705	39.1
611.897	39.16
612.09	39.02
612.282	38.88
612.474	38.63
612.666	38.43
612.858	38.27
613.051	37.99
613.243	37.64
613.435	37.35
613.627	37.21
613.819	36.96
614.011	36.93
614.203	36.76
614.395	36.46
614.588	36.38
614.78	36.09
614.972	35.89
615.164	35.7
615.356	35.49
615.548	35.29
615.74	35.28
615.932	35.13
616.124	34.84
616.315	34.68
616.507	34.57
616.699	34.37
616.891	34.51
617.083	34.56
617.275	34.49
617.467	34.5
617.659	34.59
617.85	34.38
618.042	34.36
618.234	34.14
618.426	34.1
618.618	34.17
618.809	34.1
619.001	33.87
619.193	33.96
619.384	33.98
619.576	34.04
619.768	34.08
619.959	34.17
620.151	34.35
620.343	34.52
620.534	34.46
620.726	34.49
620.917	34.68
621.109	34.76
621.301	34.77
621.492	34.74
621.684	34.64
621.875	34.54
622.067	34.7
622.258	34.53
622.45	34.56
622.641	34.83
622.832	34.77
623.024	34.74
623.215	34.67
623.407	34.54
623.598	34.5
623.789	34.63
623.981	34.73
624.172	34.74
624.363	34.97
624.555	34.97
624.746	34.73
624.937	34.83
625.129	34.83
625.32	34.84
625.511	34.9
625.702	35.14
625.893	35.16
626.085	35.05
626.276	35.12
626.467	34.96
626.658	34.98
626.849	35
627.04	34.98
627.231	34.96
627.422	35.06
627.614	35.1
627.805	34.91
627.996	34.94
628.187	35.1
628.378	35.14
628.569	35.33
628.76	35.39
628.951	35.51
629.142	35.63
629.332	35.77
629.523	35.72
629.714	35.74
629.905	35.94
630.096	36.07
630.287	36.07
630.478	35.94
630.669	36
630.859	36.06
631.05	36.04
631.241	36.02
631.432	35.91
631.623	35.92
631.813	35.85
632.004	35.72
632.195	35.55
632.385	35.48
632.576	35.22
632.767	35.03
632.957	34.77
633.148	34.85
633.339	34.66
633.529	34.73
633.72	34.72
633.91	34.77
634.101	34.76
634.292	34.67
634.482	34.6
634.673	34.84
634.863	34.83
635.054	35.02
635.244	35.04
635.435	35
635.625	35.04
635.815	35.14
636.006	35.18
636.196	35.19
636.387	35.48
636.577	35.63
636.767	35.62
636.958	35.53
637.148	35.51
637.338	35.59
637.529	35.71
637.719	35.68
637.909	35.76
638.099	35.77
638.29	35.89
638.48	35.78
638.67	35.86
638.86	35.8
639.05	36
639.241	35.92
639.431	35.82
639.621	35.85
639.811	35.71
640.001	35.7
640.191	35.56
640.381	35.41
640.571	35.42
640.761	35.61
640.951	35.74
641.141	35.74
641.331	36.05
641.521	36.03
641.711	36.26
641.901	36.3
642.091	36.23
642.281	36.36
642.471	36.5
642.661	36.61
642.851	36.52
643.041	36.57
643.231	36.64
643.42	36.67
643.61	36.67
643.8	36.59
643.99	36.69
644.18	36.73
644.369	36.76
644.559	36.74
644.749	36.72
644.939	36.61
645.128	36.63
645.318	36.69
645.508	36.62
645.697	36.69
645.887	36.84
646.076	36.92
646.266	37
646.456	37.3
646.645	37.55
646.835	37.45
647.024	37.57
647.214	37.77
647.403	37.73
647.593	37.58
647.782	37.51
647.972	37.29
648.161	37.38
648.351	37.44
648.54	37.07
648.73	36.89
648.919	37.14
649.108	37.06
649.298	37.01
649.487	37.03
649.677	37.36
649.866	37.56
650.055	37.67
650.244	37.52
650.434	37.7
650.623	37.73
650.812	37.82
651.002	37.62
651.191	37.68
651.38	37.62
651.569	37.68
651.758	37.46
651.947	37.39
652.137	37.41
652.326	37.53
652.515	37.44
652.704	37.42
652.893	37.5
653.082	37.44
653.271	37.51
653.46	37.56
653.649	37.57
653.838	37.61
654.027	37.72
654.216	37.75
654.405	37.59
654.594	37.44
654.783	37.61
654.972	37.59
655.161	37.87
655.35	37.86
655.539	37.73
655.728	37.78
655.916	37.87
656.105	37.91
656.294	38.07
656.483	38.36
656.672	38.36
656.86	38.51
657.049	38.57
657.238	38.35
657.427	38.22
657.615	38.13
657.804	37.98
657.993	37.79
658.181	37.62
658.37	37.55
658.559	37.49
658.747	37.44
658.936	37.35
659.125	36.88
659.313	36.87
659.502	36.86
659.69	36.94
659.879	36.95
660.067	37.21
660.256	37.26
660.444	37.28
660.633	37.34
660.821	37.48
661.01	37.51
661.198	37.86
661.387	38.1
661.575	38.13
661.763	38.13
661.952	38.34
662.14	38.19
662.328	38.47
662.517	38.58
662.705	38.56
662.893	38.7
663.082	38.84
663.27	38.9
663.458	38.73
663.646	38.9
663.834	39.12
664.023	39.14
664.211	39.11
664.399	38.91
664.587	38.87
664.775	39.02
664.963	38.77
665.152	38.86
665.34	39.15
665.528	39.23
665.716	39.5
665.904	39.46
666.092	39.48
666.28	39.46
666.468	39.54
666.656	39.63
666.844	39.45
667.032	39.67
667.22	39.57
667.408	39.53
667.596	39.74
667.784	39.4
667.971	39.46
668.159	39.37
668.347	39.48
668.535	39.75
668.723	39.59
668.911	39.83
669.098	39.96
669.286	39.93
669.474	39.75
669.662	39.86
669.849	40.22
670.037	40.21
670.225	40.42
670.413	40.32
670.6	40.12
670.788	40.34
670.976	40.24
671.163	40.17
671.351	40.11
671.538	40.19
671.726	39.95
671.913	39.57
672.101	39.39
672.289	39.04
672.476	39.32
672.664	39.45
672.851	39.25
673.039	39.08
673.226	38.86
673.413	39.06
673.601	39.02
673.788	39.05
673.976	39.46
674.163	39.54
674.35	39.99
674.538	39.72
674.725	39.62
674.912	39.74
675.1	39.83
675.287	39.8
675.474	39.82
675.662	40.08
675.849	40.1
676.036	39.98
676.223	40.01
676.411	39.72
676.598	39.83
676.785	39.92
676.972	40.13
677.159	40.07
677.346	40.31
677.533	40.26
677.721	40.05
677.908	40.02
678.095	39.93
678.282	40
678.469	40.17
678.656	40.18
678.843	40.16
679.03	39.8
679.217	39.98
679.404	39.87
679.591	39.82
679.778	39.73
679.964	39.77
680.151	39.77
680.338	39.76
680.525	39.8
680.712	39.99
680.899	39.96
681.086	40.21
681.272	40.15
681.459	40.26
681.646	40.46
681.833	40.7
682.02	40.82
682.206	40.81
682.393	40.89
682.58	40.74
682.766	40.77
682.953	40.62
683.14	40.4
683.326	40.58
683.513	40.67
683.7	40.68
683.886	40.41
684.073	40.47
684.259	40.5
684.446	40.77
684.632	40.94
684.819	40.67
685.005	40.78
685.192	41.1
685.378	40.9
685.565	40.82
685.751	40.7
685.938	40.92
686.124	40.89
686.31	41.03
686.497	40.69
686.683	40.58
686.87	40.86
687.056	40.97
687.242	40.75
687.429	40.9
687.615	41.13
687.801	41.09
687.987	41.03
688.174	41.07
688.36	41.11
688.546	41.27
688.732	41.1
688.918	40.94
689.105	40.94
689.291	40.83
689.477	40.56
689.663	40.38
689.849	40.14
690.035	40.17
690.221	40.31
690.407	40.42
690.593	40.51
690.779	40.93
690.965	40.87
691.151	40.86
691.337	41.33
691.523	41.59
691.709	41.91
691.895	42
692.081	42.16
692.267	41.91
692.453	41.75
692.639	41.83
692.825	41.56
693.011	41.71
693.196	41.74
693.382	41.48
693.568	41.4
693.754	41.05
693.94	41.2
694.125	41.42
694.311	41.8
694.497	42.07
694.682	41.84
694.868	42.13
695.054	42.45
695.239	42.33
695.425	42.37
695.611	42.52
695.796	42.52
695.982	42.4
696.168	42.03
696.353	41.69
696.539	41.24
696.724	41.05
696.91	40.89
697.095	40.3
697.281	40.68
697.466	40.58
697.652	40.69
697.837	40.53
698.023	40.44
698.208	40.54
698.393	40.41
698.579	40.52
698.764	40.57
698.949	40.51
699.135	40.63
699.32	40.42
699.505	40.51
699.691	40.24
699.876	40.36
700.061	40.42
700.246	40.4
700.432	40.66
700.617	40.68
700.802	40.87
700.987	41.03
701.172	41.3
701.358	41.38
701.543	41.45
701.728	41.74
701.913	41.75
702.098	41.76
702.283	41.67
702.468	41.67
702.653	41.47
702.838	41.36
703.023	41.54
703.208	41.51
703.393	41.71
703.578	41.75
703.763	41.79
703.948	42.07
704.133	42.58
704.318	42.74
704.503	43.23
704.688	43.56
704.873	43.74
705.057	43.83
705.242	44.14
705.427	43.94
705.612	43.84
705.797	43.73
705.981	43.91
706.166	43.97
706.351	44.08
706.536	43.71
706.72	43.84
706.905	43.86
707.09	43.88
707.274	43.89
707.459	43.96
707.644	44.12
707.828	44.59
708.013	44.74
708.197	44.96
708.382	45.07
708.567	45.26
708.751	45.25
708.936	45.19
709.12	45.03
709.305	44.56
709.489	44.63
709.673	44.8
709.858	44.17
710.042	44.2
710.227	43.71
710.411	43.75
710.596	43.61
710.78	43.21
710.964	43.23
711.149	43.36
711.333	43.63
711.517	43.52
711.702	43.53
711.886	43.87
712.07	43.42
712.254	43.47
712.438	43.44
712.623	43.13
712.807	43.65
712.991	43.26
713.175	43.46
713.359	43.25
713.544	43.41
713.728	43.09
713.912	42.73
714.096	42.92
714.28	42.81
714.464	42.58
714.648	42.86
714.832	42.45
715.016	43.09
715.2	42.61
715.384	42.48
715.568	42.3
715.752	42.2
715.936	42.58
716.12	42.35
716.304	42.6
716.488	42.76
716.671	42.35
716.855	42.58
717.039	42.49
717.223	42.39
717.407	42.67
717.59	42.93
717.774	43
717.958	43.05
718.142	43.4
718.325	43.18
718.509	43.41
718.693	43.89
718.877	43.49
719.06	43.41
719.244	43.6
719.428	43.55
719.611	43.45
719.795	43.57
719.978	43.61
720.162	43.35
720.345	43.44
720.529	43.32
720.713	43.27
720.896	43.83
721.08	43.81
721.263	43.75
721.446	43.8
721.63	44
721.813	44.29
721.997	44.01
722.18	44.12
722.364	44.16
722.547	43.97
722.73	44.1
722.914	43.76
723.097	43.93
723.28	44.37
723.464	44.74
723.647	44.84
723.83	44.77
724.013	44.74
724.197	44.48
724.38	44.37
724.563	44.49
724.746	44.07
724.929	44.78
725.112	44.48
725.296	44.21
725.479	44.06
725.662	43.91
725.845	43.74
726.028	43.5
726.211	43.67
726.394	43.64
726.577	43.32
726.76	43.74
726.943	43.28
727.126	43.53
727.309	43.62
727.492	43.65
727.675	43.67
727.858	43.9
728.041	44.35
728.224	44.52
728.407	44.65
728.589	45.09
728.772	44.91
728.955	44.57
729.138	44.92
729.321	44.54
729.503	44.31
729.686	44.29
729.869	43.87
730.052	43.55
730.234	43.09
730.417	43.18
730.6	42.96
730.782	42.58
730.965	42.97
731.148	42.61
731.33	42.92
731.513	43.41
731.695	43.68
731.878	44
732.061	44.11
732.243	44.71
732.426	44.7
732.608	44.85
732.791	45.04
732.973	44.81
733.156	44.48
733.338	44.48
733.52	43.94
733.703	43.41
733.885	43.23
734.068	43.15
734.25	43.05
734.432	43.36
734.615	43.65
734.797	43.68
734.979	44.11
735.162	44.81
735.344	44.68
735.526	45.07
735.708	45.48
735.891	45.74
736.073	46.17
736.255	46
736.437	45.38
736.619	44.96
736.802	45.36
736.984	45.15
737.166	44.8
737.348	44.98
737.53	44.32
737.712	43.98
737.894	43.74
738.076	43.83
738.258	43.77
738.44	43.95
738.622	43.86
738.804	43.8
738.986	44.05
739.168	44.05
739.35	43.79
739.532	44.23
739.714	44.31
739.896	44.13
740.078	43.5
740.259	44.02
740.441	44.42
740.623	44.63
740.805	44.47
740.987	44.27
741.168	44.15
741.35	44.51
741.532	44.8
741.714	44.84
741.895	45.11
742.077	45.37
742.259	44.78
742.44	44.89
742.622	44.47
742.804	44.26
742.985	43.63
743.167	43.5
743.348	43.64
743.53	43.05
743.711	42.87
743.893	42.73
744.075	42.79
744.256	43.4
744.438	43.05
744.619	43.64
744.8	44.36
744.982	45.2
745.163	45.35
745.345	45.17
745.526	45.78
745.707	45.68
745.889	45.74
746.07	45.96
746.252	46.04
746.433	45.87
746.614	45.57
746.795	45.18
746.977	45.33
747.158	45.1
747.339	45.25
747.52	45.51
747.702	45.46
747.883	45.61
748.064	45.27
748.245	44.37
748.426	44.18
748.607	44.05
748.788	44.08
748.97	43.81
749.151	43.9
749.332	43.94
749.513	43.23
749.694	43.92
749.875	44.62
750.056	44.87
750.237	45.49
750.418	45.68
750.599	45.86
750.78	45.61
750.96	45.59
751.141	45.89
751.322	45.43
751.503	45.26
751.684	45.06
751.865	44.68
752.046	44.41
752.226	44.39
752.407	44.16
752.588	44.2
752.769	44.28
752.949	43.87
753.13	43.82
753.311	43.73
753.492	44.22
753.672	44.03
753.853	44
754.034	44.22
754.214	43.94
754.395	44.44
754.575	44.84
754.756	45.54
754.937	45.79
755.117	45.55
755.298	45.83
755.478	45.87
755.659	46.67
755.839	46.8
756.02	46.88
756.2	47.07
756.381	47.09
756.561	46.27
756.741	45.97
756.922	46.09
757.102	45.91
757.283	45.99
757.463	45.95
757.643	45.15
757.823	45.19
758.004	44.39
758.184	44.5
758.364	44.91
758.545	46.05
758.725	45.5
758.905	45.43
759.085	45.43
759.265	45.26
759.446	45.49
759.626	45.78
759.806	45.6
759.986	46.46
760.166	46.51
760.346	45.87
760.526	45.27
760.706	45.64
760.886	45.57
761.066	45.91
761.246	46.14
761.426	46.01
761.606	45.11
761.786	44.56
761.966	44.59
762.146	44.39
762.326	44.44
762.506	44.14
762.686	44.19
762.866	44.27
763.046	43.59
763.225	43.66
763.405	43.19
763.585	43.6
763.765	43.36
763.945	42.96
764.124	42.89
764.304	42.81
764.484	42.67
764.664	42.51
764.843	42.67
765.023	42.96
765.203	42.74
765.382	42.9
765.562	43.06
765.741	43.32
765.921	43.87
766.101	44.37
766.28	44.29
766.46	44.6
766.639	44.8
766.819	44.36
766.998	44.64
767.178	44.83
767.357	44.98
767.537	44.94
767.716	45.11
767.896	44.66
768.075	44.3
768.254	44.37
768.434	44.95
768.613	44.87
768.792	45.81
768.972	45.63
769.151	45.47
769.33	45.77
769.51	45.99
769.689	45.96
769.868	46.28
770.047	46.18
770.226	46.86
770.406	46.09
770.585	46.05
770.764	45.71
770.943	46.56
771.122	46.96
771.301	46.84
771.48	46.1
771.66	46.84
771.839	46.7
772.018	46.78
772.197	46.56
772.376	46.57
772.555	46.95
772.734	46.58
772.913	46.26
773.092	46.06
773.271	46.02
773.449	46.56
773.628	46.16
773.807	46.22
773.986	45.22
774.165	44.38
774.344	44.79
774.523	44.98
774.701	45.13
774.88	44.82
775.059	45.25
775.238	44.64
775.417	43.88
775.595	43.53
775.774	43.28
775.953	44.26
776.131	45.13
776.31	45.58
776.489	44.25
776.667	44.62
776.846	45
777.025	44.26
777.203	44.28
777.382	45.12
777.56	44.87
777.739	45.02
777.917	45.61
778.096	45.19
778.274	43.95
778.453	44.72
778.631	44.39
778.81	44
778.988	43.75
779.166	45.05
779.345	44.76
779.523	45.02
779.702	45.24
779.88	44.78
780.058	44.79
780.237	45.13
780.415	45.21
780.593	45.7
780.771	46.75
780.95	48.56
781.128	48.49
781.306	49.55
781.484	49.89
781.662	49.59
781.841	49.52
782.019	50.29
782.197	50.17
782.375	49.47
782.553	48.4
782.731	47.92
782.909	46.01
783.087	45.99
783.265	46.14
783.443	46.95
783.621	47.78
783.799	47.82
783.977	47.14
784.155	47.58
784.333	48.79
784.511	49.39
784.689	47.93
784.867	48.46
785.045	48.25
785.223	47.01
785.4	45.61
785.578	45.78
785.756	46.21
785.934	46.51
786.112	46.79
786.289	46.97
786.467	46.93
786.645	47.88
786.823	48.36
787	48.4
787.178	48.98
787.356	50.04
787.533	49.73
787.711	49.12
787.889	48.47
788.066	48.43
788.244	47.94
788.421	47.94
788.599	47.98
788.776	47.7
788.954	47.1
789.131	47.08
789.309	46.27
789.486	47.25
789.664	47.02
789.841	48.55
790.019	48.23
790.196	48.1
790.373	47.84
790.551	47.91
790.728	48.55
790.906	49.27
791.083	48.83
791.26	49.72
791.437	48.09
791.615	49.53
791.792	48.49
791.969	48.81
792.146	48.67
792.324	48.64
792.501	48.62
792.678	49.09
792.855	49.62
793.032	49.75
793.209	49.74
793.387	49.81
793.564	49.03
793.741	49.1
793.918	50.01
794.095	50.09
794.272	50.15
794.449	49.66
794.626	48.16
794.803	46.78
794.98	47.18
795.157	46.32
795.334	46.3
795.511	45.49
795.688	45.16
795.864	44.33
796.041	44.45
796.218	43.95
796.395	43.52
796.572	43.43
796.749	43.87
796.925	43.79
797.102	44.7
797.279	44.34
797.456	44.1
797.632	44.3
797.809	44.19
797.986	43.69
798.162	44.76
798.339	45.44
798.516	45.79
798.692	45.48
798.869	44.64
799.046	44.69
799.222	43.98
799.399	45.24
799.575	44.99
799.752	45.26
799.928	45.56
800.105	45.27
800.281	44.94
800.458	45.98
800.634	46.33
800.811	47.04
800.987	46.56
801.163	47.27
801.34	46.82
801.516	46.41
801.692	46.72
801.869	47.08
802.045	46.78
802.221	46.92
802.398	46.09
802.574	46.62
802.75	47.42
802.926	47.14
803.103	48.6
803.279	47.93
803.455	48.33
803.631	48.48
803.807	48.59
803.983	49.38
804.16	49.6
804.336	49.17
804.512	49.05
804.688	48.34
804.864	48.44
805.04	46.6
805.216	47.03
805.392	47.7
805.568	47.77
805.744	48.19
805.92	47.37
806.096	49.72
806.272	50.48
806.448	49.9
806.623	49.02
806.799	48.96
806.975	50.09
807.151	49.55
807.327	48.52
807.503	47.69
807.678	47.71
807.854	48.27
808.03	47.1
808.206	48.04
808.381	47.62
808.557	47.92
808.733	49.17
808.908	49.58
809.084	50.41
809.26	51.71
809.435	51.5
809.611	51.44
809.787	51.22
809.962	50.42
810.138	48.46
810.313	48.27
810.489	48.37
810.664	48.05
810.84	46.66
811.015	46.1
811.191	44.83
811.366	46.34
811.542	46.7
811.717	47.63
811.892	48.51
812.068	49.15
812.243	49.93
812.419	49.77
812.594	48.96
812.769	50.46
812.944	51.12
813.12	52.02
813.295	49.63
813.47	49.36
813.645	47.98
813.821	47
813.996	46.96
814.171	47.33
814.346	48.09
814.521	48.03
814.697	48.9
814.872	48.24
815.047	46.49
815.222	47.98
815.397	46.8
815.572	47.41
815.747	47.44
815.922	48.3
816.097	47.85
816.272	47.45
816.447	47.32
816.622	46.76
816.797	46.34
816.972	47.32
817.147	47.63
817.322	47.39
817.496	47.24
817.671	47.22
817.846	45.97
818.021	45.18
818.196	43.55
818.371	43.32
818.545	42.91
818.72	43.87
818.895	43.92
819.069	42.24
819.244	42.06
819.419	41.97
819.594	42
819.768	42.29
819.943	42.1
820.117	42.01
820.292	40.96
820.467	39.89
820.641	39.14
820.816	38.25
820.99	37.71
821.165	36.94
821.339	36.11
821.514	35.33
821.688	34.78
821.863	34.19
822.037	33.98
822.212	33.62
822.386	33.43
822.56	33.12
822.735	32.86
822.909	32.81
823.084	32.96
823.258	32.89
823.432	32.98
823.606	32.65
823.781	32.88
823.955	32.66
824.129	32.93
824.303	32.86
824.478	33.1
824.652	33.54
824.826	33.45
825	33.6
825.174	34.03
825.348	34.25
825.523	34.45
825.697	34.36
825.871	35.32
826.045	35.4
826.219	35.76
826.393	35.67
826.567	35.6
826.741	35.67
826.915	35.45
827.089	35.43
827.263	35.28
827.437	35.99
827.611	36.2
827.784	36.25
827.958	36.51
828.132	36.42
828.306	36.58
828.48	37.03
828.654	37.84
828.827	38.11
829.001	38.26
829.175	38.12
829.349	38.48
829.522	39.46
829.696	39.79
829.87	40.3
830.044	41.17
830.217	41.78
830.391	42
830.565	41.91
830.738	43.19
830.912	42.69
831.085	44.66
831.259	45.17
831.432	44.78
831.606	45.14
831.779	44.19
831.953	43.11
832.126	42.18
832.3	41.17
832.473	40.33
832.647	39.95
832.82	39.94
832.994	39.14
833.167	39.16
833.34	38.48
833.514	37.47
833.687	37.57
833.86	38.47
834.034	38.21
834.207	37.79
834.38	38.04
834.553	37.14
834.727	37.44
834.9	37.5
835.073	37.41
835.246	37.03
835.419	37.63
835.593	38.23
835.766	37.69
835.939	38.51
836.112	39.5
836.285	39.43
836.458	40.61
836.631	40.23
836.804	41.85
836.977	41.22
837.15	43.83
837.323	44.14
837.496	44.72
837.669	44.92
837.842	46.1
838.015	46.19
838.188	48.62
838.361	49.85
838.533	51.62
838.706	50.25
838.879	50.74
839.052	49.01
839.225	50.7
839.398	51.03
839.57	52.71
839.743	51.79
839.916	52.72
840.088	51.49
840.261	50.54
840.434	50.24
840.607	50.15
840.779	50.03
840.952	49.9
841.124	48.41
841.297	48.1
841.47	47.84
841.642	47.89
841.815	47.55
841.987	47.36
842.16	49.24
842.332	50.07
842.505	50.35
842.677	51.33
842.85	51.64
843.022	52.38
843.194	54.02
843.367	54.68
843.539	55.67
843.712	58.17
843.884	58.76
844.056	58.09
844.229	60.06
844.401	62.33
844.573	62.68
844.745	65.54
844.918	68.24
845.09	67.88
845.262	67.63
845.434	66.38
845.606	65.25
845.779	67.41
845.951	66.4
846.123	63.31
846.295	60.78
846.467	62.08
846.639	60.65
846.811	57.96
846.983	58.32
847.155	56.68
847.327	58.72
847.499	59.58
847.671	59.13
847.843	58.65
848.015	60.74
848.187	60.51
848.359	61.22
848.531	64.97
848.703	67.75
848.875	71.99
849.047	71.92
849.218	73.68
849.39	74.17
849.562	72.2
849.734	74.05
849.905	76.93
850.077	78.13
850.249	75.75
850.421	74.72
850.592	73.27
850.764	66.91
850.936	69.93
851.107	66.31
851.279	63.87
851.451	68.55
851.622	70.02
851.794	66.86
851.965	68.19
852.137	68.12
852.308	67.44
852.48	66.13
852.651	68.63
852.823	64.9
852.994	66.51
853.166	71.52
853.337	65.69
853.509	66.15
853.68	67.05
853.851	68.98
854.023	69.05
854.194	66.34
854.365	67.44
854.537	67.49
854.708	68.89
854.879	67.12
855.05	63.59
855.222	64.01
855.393	62.99
855.564	63.84
855.735	59.46
855.906	58.45
856.078	60.58
856.249	62.08
856.42	62.53
856.591	62.71
856.762	66.49
856.933	66.03
857.104	65.74
857.275	64.43
857.446	63.27
857.617	66.69
857.788	67.98
857.959	67.74
858.13	64.92
858.301	64.63
858.472	65.98
858.643	65.19
858.814	66.9
858.985	67.85
859.155	68.45
859.326	68.35
859.497	66.67
859.668	65.63
859.839	64.67
860.009	63.77
860.18	62.91
860.351	62.34
860.522	62.25
860.692	61.88
860.863	62.72
861.034	63.98
861.204	63.79
861.375	66.92
861.546	69.97
861.716	70.35
861.887	72.96
862.057	72.56
862.228	76.84
862.398	78.11
862.569	78.02
862.739	79.05
862.91	79.43
863.08	79.46
863.251	78.94
863.421	75.29
863.592	77.85
863.762	82.01
863.932	80.29
864.103	74.77
864.273	75.08
864.443	73.1
864.614	71.21
864.784	70.13
864.954	72.59
865.125	71.96
865.295	73.49
865.465	73.26
865.635	69.34
865.805	72.79
865.976	75.52
866.146	72.17
866.316	74.06
866.486	71.96
866.656	67.8
866.826	66.81
866.996	65.32
867.166	66.6
867.336	63.84
867.506	66.6
867.676	65.06
867.846	64.57
868.016	67.88
868.186	64.96
868.356	67.04
868.526	71.67
868.696	68.59
868.866	65.44
869.036	65.49
869.206	66.41
869.376	68.21
869.545	72.7
869.715	71.08
869.885	68.85
870.055	72.78
870.224	75.94
870.394	72.77
870.564	76.5
870.734	79.14
870.903	77.66
871.073	76.05
871.243	72.21
871.412	67.8
871.582	71.44
871.751	71.73
871.921	71.34
872.091	69.6
872.26	71.7
872.43	70.33
872.599	73
872.769	71.69
872.938	72.63
873.108	77.39
873.277	78.28
873.446	73.48
873.616	71.95
873.785	72.16
873.955	71.69
874.124	71.56
874.293	73.73
874.463	68.38
874.632	69.68
874.801	70.15
874.971	63.73
875.14	63.46
875.309	63.75
875.478	64.54
875.647	62.38
875.817	62.4
875.986	60.85
876.155	58.66
876.324	60.75
876.493	62.73
876.662	65.78
876.831	65.16
877	66.32
877.17	69.08
877.339	69.31
877.508	70.66
877.677	69.09
877.846	70.41
878.015	70.43
878.184	69.27
878.352	67.48
878.521	62.68
878.69	63.9
878.859	61.14
879.028	58.72
879.197	56.67
879.366	55.22
879.534	55.13
879.703	54.13
879.872	51.04
880.041	51.17
880.21	47.54
880.378	45.94
880.547	43.99
880.716	41.79
880.884	40.07
881.053	39.48
881.222	39.16
881.39	37.91
881.559	36.3
881.727	35.54
881.896	34.46
882.065	34.14
882.233	33.44
882.402	33.61
882.57	33.59
882.739	33.16
882.907	32.32
883.076	31.24
883.244	30.51
883.412	30.8
883.581	31.37
883.749	31.34
883.918	31.37
884.086	32.1
884.254	31.32
884.423	32.62
884.591	33.28
884.759	34.42
884.927	35.92
885.096	38.33
885.264	39.94
885.432	40.75
885.6	41.37
885.769	44.68
885.937	45.17
886.105	49.64
886.273	51.82
886.441	54.86
886.609	57.21
886.777	57.27
886.945	56.41
887.113	56.69
887.281	58.83
887.449	60.2
887.617	59.76
887.785	61.21
887.953	63.62
888.121	61.5
888.289	62.23
888.457	62.14
888.625	65.16
888.793	68.82
888.961	68.6
889.129	67.27
889.296	67.44
889.464	67.94
889.632	70.16
889.8	65.67
889.967	67.26
890.135	66.19
