Data from 2938813__Reflection_02.txt Node
Date: Thu Mar 12 16:17:12 EDT 2015
User: robert
Spectrometer: USB4E03002
Autoset integration time: false
Trigger mode: 4
Integration Time (sec): 1.000000E-1
Scans to average: 10
Electric dark correction enabled: false
Nonlinearity correction enabled: false
Boxcar width: 5
Stray light correction enabled: false
XAxis mode: Wavelengths
Stop averaging: false
Number of Pixels in Spectrum: 3648
>>>>>Begin Spectral Data<<<<<
177.575	-3430.95
177.794	-2535.38
178.014	-1547.58
178.233	-7377.42
178.452	3482.05
178.672	-9425.81
178.891	-1472.77
179.11	-1448.19
179.33	-1711.45
179.549	-1889.86
179.768	-13750
179.987	-10357.14
180.207	-1805.45
180.426	4876.56
180.645	-3182.47
180.864	-2476.27
181.084	4815.62
181.303	1849.71
181.522	10040.62
181.741	0
181.96	82500
182.179	-12370.37
182.398	-6642
182.618	3480
182.837	-4291.89
183.056	-4991.53
183.275	-4826.23
183.494	-8924.24
183.713	4932.79
183.932	2147.59
184.151	2094.63
184.37	856.54
184.589	801.21
184.808	660.49
185.027	489.36
185.246	541.68
185.465	452.49
185.684	509.89
185.903	562.5
186.122	696.67
186.341	734.86
186.56	673.89
186.779	736.61
186.998	1004.34
187.216	982.06
187.435	1612.33
187.654	1255.29
187.873	1837.88
188.092	1544.3
188.311	1108.98
188.53	866.2
188.748	713.89
188.967	751.78
189.186	1512.89
189.405	826.44
189.623	802.63
189.842	937.77
190.061	903.18
190.28	962.25
190.498	987.61
190.717	2009.04
190.936	2797.5
191.154	1877.65
191.373	1725.5
191.592	2911.11
191.81	-111166.67
192.029	-2422.79
192.248	-1265.56
192.466	-959.32
192.685	-1318.03
192.904	-1074.26
193.122	-883.65
193.341	-994.1
193.559	-1008.45
193.778	-889.69
193.996	-4707.69
194.215	8026.32
194.433	1022.64
194.652	603.84
194.87	519.37
195.089	680.17
195.307	774.71
195.526	610.81
195.744	564.67
195.963	537.33
196.181	571.04
196.399	655.11
196.618	693.71
196.836	955.32
197.055	1555.6
197.273	1174.92
197.491	849.77
197.71	561.28
197.928	548.84
198.146	563.34
198.365	897.71
198.583	941.21
198.801	1003.55
199.019	1186.52
199.238	892.29
199.456	662.66
199.674	810.02
199.892	946.53
200.111	1155.25
200.329	909.97
200.547	723.26
200.765	617.36
200.983	604.77
201.202	525.46
201.42	470.3
201.638	547.54
201.856	641.01
202.074	511.13
202.292	470.85
202.51	938.68
202.728	1116.83
202.946	1542.92
203.165	1010.12
203.383	1066.77
203.601	1191.32
203.819	1687.44
204.037	1317.03
204.255	1013.56
204.473	1316.54
204.691	5171.21
204.909	1028.35
205.127	1101.06
205.345	753.86
205.562	502.65
205.78	485.74
205.998	422.71
206.216	392.83
206.434	394.91
206.652	402.85
206.87	391.91
207.088	382.49
207.306	333.64
207.523	305.87
207.741	306.18
207.959	495.38
208.177	500.95
208.395	488.92
208.612	474.75
208.83	531.18
209.048	634.86
209.266	634.14
209.483	423.12
209.701	453.47
209.919	524.3
210.136	692.24
210.354	519.5
210.572	465.29
210.79	457.63
211.007	516.49
211.225	454.92
211.442	360.4
211.66	326.62
211.878	332.85
212.095	302.01
212.313	280.1
212.53	286.28
212.748	268.12
212.966	254.39
213.183	246.78
213.401	238.94
213.618	261.15
213.836	282.39
214.053	281.49
214.271	327.24
214.488	377.36
214.705	372.21
214.923	324.83
215.14	322.87
215.358	345.46
215.575	403.72
215.793	335.19
216.01	311.31
216.227	295.95
216.445	321.87
216.662	291.85
216.879	274.67
217.097	277.01
217.314	280.45
217.531	305.11
217.749	289.12
217.966	246.88
218.183	268.4
218.4	263.54
218.618	268.98
218.835	261.88
219.052	241.87
219.269	238.79
219.487	224.78
219.704	218.76
219.921	205.45
220.138	201.17
220.355	198.43
220.572	184.79
220.79	174.42
221.007	164.89
221.224	158
221.441	169.51
221.658	165.43
221.875	155.88
222.092	141.34
222.309	136.36
222.526	142.84
222.743	151.58
222.96	142.44
223.177	142.28
223.394	137.7
223.611	133.55
223.828	125.69
224.045	120.68
224.262	127.55
224.479	124.88
224.696	120.2
224.913	107.01
225.13	101.46
225.347	102.03
225.564	96.65
225.781	93.67
225.997	85.8
226.214	76.59
226.431	72.36
226.648	61.02
226.865	54.84
227.082	48.91
227.298	43.8
227.515	37.94
227.732	34.02
227.949	30.38
228.165	27.11
228.382	26.24
228.599	25.29
228.816	23.06
229.032	22.2
229.249	21.19
229.466	20.76
229.682	20.48
229.899	20.94
230.116	20.72
230.332	21.05
230.549	21.95
230.765	22.29
230.982	23.16
231.199	25.49
231.415	28.95
231.632	30.53
231.848	32.54
232.065	33.49
232.281	35.55
232.498	35.81
232.714	37.31
232.931	37.31
233.147	37.38
233.364	36.95
233.58	34.75
233.797	33.77
234.013	34.22
234.23	33.3
234.446	32.27
234.662	31.59
234.879	33.82
235.095	33.59
235.312	33.42
235.528	35.72
235.744	36.54
235.961	39.22
236.177	39.78
236.393	39.29
236.61	39.28
236.826	40.47
237.042	40.86
237.258	38.52
237.475	39.04
237.691	41.15
237.907	38.63
238.123	38.72
238.339	38.09
238.556	37.12
238.772	36.87
238.988	37.12
239.204	36.73
239.42	35.61
239.636	35.33
239.853	33.06
240.069	30.43
240.285	29.37
240.501	26.35
240.717	24.6
240.933	22.79
241.149	20.97
241.365	19.88
241.581	19.02
241.797	17.94
242.013	16.6
242.229	16.04
242.445	15.46
242.661	15.25
242.877	15.31
243.093	15.34
243.309	15.64
243.525	16.52
243.741	16.38
243.957	16.61
244.173	16.6
244.388	18.21
244.604	18.37
244.82	18.49
245.036	17.89
245.252	16.97
245.468	15.74
245.683	14.51
245.899	13.37
246.115	12.93
246.331	11.7
246.547	11.25
246.762	10.71
246.978	10.2
247.194	9.91
247.409	9.48
247.625	9.58
247.841	9.66
248.057	9.63
248.272	9.57
248.488	9.51
248.703	9.92
248.919	10.51
249.135	10.76
249.35	11.44
249.566	12.63
249.782	13.41
249.997	14.58
250.213	14.59
250.428	15.46
250.644	15.86
250.859	16.36
251.075	16.82
251.29	16.43
251.506	16.14
251.721	15.97
251.937	15.94
252.152	16.11
252.368	15.2
252.583	15.91
252.798	16.46
253.014	17.27
253.229	17.39
253.445	18.87
253.66	20.29
253.875	20.72
254.091	21.86
254.306	22.49
254.521	22.9
254.737	25.07
254.952	24.61
255.167	24.02
255.383	23.57
255.598	23.88
255.813	22.56
256.028	20.9
256.244	21.01
256.459	20.58
256.674	19.31
256.889	18.97
257.104	16.77
257.32	16.53
257.535	16.07
257.75	15.22
257.965	14.62
258.18	13.59
258.395	12.91
258.61	11.75
258.826	10.71
259.041	10.02
259.256	9.68
259.471	9.75
259.686	9.5
259.901	9.2
260.116	8.99
260.331	8.43
260.546	8.25
260.761	8.38
260.976	8.89
261.191	9.35
261.406	9.85
261.621	10
261.836	9.84
262.05	10
262.265	10.48
262.48	11.16
262.695	11.83
262.91	13.37
263.125	13.81
263.34	13.7
263.555	14.06
263.769	14.55
263.984	14.85
264.199	15.27
264.414	16.19
264.629	16.54
264.843	15.95
265.058	16.51
265.273	15.39
265.488	15.35
265.702	14.32
265.917	13.66
266.132	13.23
266.346	13.1
266.561	13.17
266.776	12.32
266.99	11.49
267.205	11.51
267.42	11.05
267.634	11.26
267.849	10.76
268.063	10.98
268.278	11.06
268.492	11.23
268.707	11.33
268.922	10.98
269.136	10.78
269.351	11.1
269.565	10.67
269.78	10.35
269.994	10.07
270.209	9.99
270.423	9.87
270.637	9.71
270.852	9.08
271.066	8.84
271.281	8.54
271.495	8.73
271.709	8.56
271.924	8.86
272.138	8.85
272.353	8.59
272.567	8.7
272.781	9.31
272.996	9.56
273.21	9.67
273.424	9.57
273.638	10.17
273.853	10.92
274.067	11.22
274.281	11.34
274.495	11.57
274.71	11.63
274.924	11.54
275.138	10.95
275.352	11.1
275.566	11.93
275.781	12.66
275.995	12.35
276.209	12.04
276.423	11.81
276.637	11.79
276.851	11.88
277.065	12.01
277.279	12.27
277.493	12.52
277.707	12.33
277.921	11.74
278.135	11.15
278.349	11.14
278.563	11.35
278.777	11.96
278.991	11.67
279.205	11.85
279.419	11.89
279.633	12.01
279.847	11.97
280.061	11.74
280.275	11.74
280.489	11.32
280.703	11.31
280.917	10.88
281.131	10.04
281.344	10.01
281.558	9.4
281.772	9.48
281.986	9.39
282.2	9.44
282.414	9.31
282.627	9.06
282.841	8.93
283.055	8.98
283.269	8.84
283.482	9.02
283.696	8.74
283.91	8.75
284.123	8.37
284.337	8.19
284.551	7.87
284.764	8.28
284.978	8.14
285.192	8.28
285.405	7.74
285.619	7.48
285.833	7.47
286.046	7.61
286.26	7.69
286.473	7.88
286.687	8.05
286.9	8.16
287.114	8.06
287.327	8.17
287.541	8.14
287.754	8.71
287.968	9.02
288.181	8.77
288.395	8.74
288.608	8.6
288.822	8.53
289.035	7.89
289.248	7.75
289.462	7.4
289.675	7.54
289.889	7.78
290.102	7.73
290.315	7.65
290.529	7.88
290.742	8.05
290.955	8.24
291.169	8.18
291.382	8.83
291.595	9.11
291.808	9.31
292.022	9.11
292.235	8.98
292.448	9.09
292.661	9.23
292.875	9.55
293.088	9.9
293.301	9.83
293.514	9.71
293.727	9.47
293.94	9.5
294.153	9.9
294.367	10.33
294.58	10.48
294.793	10.2
295.006	10.08
295.219	9.73
295.432	9.32
295.645	9.23
295.858	9.19
296.071	8.87
296.284	8.53
296.497	8.2
296.71	7.98
296.923	7.72
297.136	7.64
297.349	7.54
297.562	7.53
297.775	7.51
297.988	7.57
298.201	7.68
298.414	7.81
298.626	7.85
298.839	7.74
299.052	7.71
299.265	8
299.478	8.2
299.691	8.42
299.903	8.74
300.116	9.18
300.329	9.4
300.542	9.74
300.755	10.15
300.967	10.36
301.18	10.42
301.393	10.35
301.605	10.16
301.818	10.53
302.031	10.23
302.243	10.26
302.456	10.46
302.669	10.66
302.881	10.35
303.094	10.25
303.307	10.37
303.519	10.38
303.732	10.47
303.944	10.8
304.157	10.72
304.37	10.77
304.582	10.58
304.795	10.29
305.007	10.25
305.22	10.51
305.432	10.62
305.645	10.63
305.857	10.66
306.069	11.1
306.282	11.3
306.494	11.36
306.707	11.9
306.919	11.97
307.132	12.03
307.344	11.79
307.556	11.7
307.769	11.57
307.981	11.35
308.193	11.31
308.406	11.14
308.618	10.74
308.83	10.66
309.043	10.3
309.255	10.27
309.467	10.22
309.679	10.3
309.892	10.21
310.104	9.85
310.316	9.92
310.528	9.78
310.74	9.49
310.953	9.64
311.165	9.45
311.377	9.6
311.589	9.39
311.801	9.22
312.013	9.24
312.225	9.64
312.437	10.12
312.649	10.2
312.862	10.64
313.074	11.07
313.286	11.21
313.498	11.34
313.71	11
313.922	11.49
314.134	12.2
314.346	12.12
314.558	12.04
314.77	12.12
314.982	12.62
315.193	12.56
315.405	12.39
315.617	12.53
315.829	13.09
316.041	13.34
316.253	13.5
316.465	13.23
316.677	13.72
316.888	13.48
317.1	13.33
317.312	12.92
317.524	12.99
317.736	13.8
317.947	13.65
318.159	13.16
318.371	13.89
318.583	13.73
318.794	13.95
319.006	14.02
319.218	14.15
319.43	14.23
319.641	14.25
319.853	14.07
320.064	13.44
320.276	13.62
320.488	13.99
320.699	13.83
320.911	13.84
321.123	13.96
321.334	13.83
321.546	14.01
321.757	14.5
321.969	14.74
322.18	15.31
322.392	15.4
322.603	15.33
322.815	15.6
323.026	15.4
323.238	15.45
323.449	15.16
323.661	14.43
323.872	14.02
324.083	13.91
324.295	13.94
324.506	13.39
324.718	13.13
324.929	12.93
325.14	12.73
325.352	12.68
325.563	12.35
325.774	12.45
325.986	12.74
326.197	12.88
326.408	12.93
326.62	12.65
326.831	12.93
327.042	13.11
327.253	13.1
327.464	12.98
327.676	13.09
327.887	13.86
328.098	13.68
328.309	14.19
328.52	14.57
328.732	14.31
328.943	14.42
329.154	14.72
329.365	14.94
329.576	15.28
329.787	14.98
329.998	15.18
330.209	14.59
330.42	15.13
330.631	14.4
330.842	14.36
331.053	14.75
331.264	14.93
331.475	14.98
331.686	14.89
331.897	14.81
332.108	15.08
332.319	15.12
332.53	15.3
332.741	14.73
332.952	15.17
333.163	14.83
333.374	14.65
333.585	14.66
333.795	14.47
334.006	14.15
334.217	14.65
334.428	14.75
334.639	14.21
334.849	14.16
335.06	13.91
335.271	13.79
335.482	13.99
335.692	13.95
335.903	14.05
336.114	13.82
336.325	13.87
336.535	13.83
336.746	14.04
336.957	14.39
337.167	14.49
337.378	14.95
337.589	15.1
337.799	15.2
338.01	15.01
338.22	15.15
338.431	15.51
338.642	15.79
338.852	15.06
339.063	14.76
339.273	14.81
339.484	14.9
339.694	14.79
339.905	14.97
340.115	14.76
340.326	14.92
340.536	14.45
340.746	14.18
340.957	14.16
341.167	14.62
341.378	14.73
341.588	14.43
341.799	14.39
342.009	14.2
342.219	13.99
342.43	14.42
342.64	13.97
342.85	14.06
343.061	13.58
343.271	13.35
343.481	12.87
343.691	12.64
343.902	12.61
344.112	12.68
344.322	12.93
344.532	12.97
344.743	12.32
344.953	12.68
345.163	12.43
345.373	12.79
345.583	12.73
345.793	12.87
346.004	13.37
346.214	13.42
346.424	13.25
346.634	13.01
346.844	13.14
347.054	13.28
347.264	13.24
347.474	13.54
347.684	13.71
347.894	14.01
348.104	14.1
348.314	13.82
348.524	13.93
348.734	13.84
348.944	13.8
349.154	13.44
349.364	13.75
349.574	13.8
349.784	14.06
349.994	14.06
350.204	14.13
350.413	14.22
350.623	14.01
350.833	14.06
351.043	13.77
351.253	13.8
351.463	13.91
351.672	13.57
351.882	13.52
352.092	12.95
352.302	12.79
352.511	12.56
352.721	12.4
352.931	12.54
353.141	12.29
353.35	12.42
353.56	12.24
353.77	12.12
353.979	12.09
354.189	12.2
354.399	12.37
354.608	12.32
354.818	12.29
355.027	12.24
355.237	12.17
355.447	12.1
355.656	11.96
355.866	11.95
356.075	12.1
356.285	12.06
356.494	11.62
356.704	11.22
356.913	11.28
357.123	11.27
357.332	11.17
357.542	11.26
357.751	11.43
357.96	11.79
358.17	12.04
358.379	11.98
358.589	12.32
358.798	12.54
359.007	12.99
359.217	12.71
359.426	12.54
359.635	12.71
359.845	12.44
360.054	12.22
360.263	12.01
360.472	11.67
360.682	11.33
360.891	10.96
361.1	10.83
361.309	10.57
361.519	10.5
361.728	10.43
361.937	10.18
362.146	10.11
362.355	10.2
362.564	10.05
362.774	10.12
362.983	10.24
363.192	10.07
363.401	9.97
363.61	10.01
363.819	10.5
364.028	10.84
364.237	11.01
364.446	11.11
364.655	10.96
364.864	10.92
365.073	10.98
365.282	11.23
365.491	11.44
365.7	11.5
365.909	11.68
366.118	11.41
366.327	11.3
366.536	11.29
366.745	11.26
366.954	11.28
367.162	11.15
367.371	11.32
367.58	11.21
367.789	11.22
367.998	11.18
368.207	11.07
368.415	10.67
368.624	10.75
368.833	10.82
369.042	10.91
369.25	11.01
369.459	11.2
369.668	10.91
369.877	10.8
370.085	10.75
370.294	10.92
370.503	10.84
370.711	10.91
370.92	10.83
371.129	10.87
371.337	10.64
371.546	10.61
371.754	10.97
371.963	11.07
372.171	11
372.38	11.13
372.589	10.92
372.797	10.92
373.006	11.03
373.214	10.78
373.423	10.73
373.631	10.91
373.84	10.81
374.048	10.49
374.256	10.15
374.465	10.04
374.673	9.86
374.882	10.01
375.09	10.16
375.298	10.03
375.507	10.06
375.715	9.87
375.923	9.51
376.132	9.43
376.34	9.45
376.548	9.56
376.757	9.8
376.965	9.98
377.173	9.66
377.381	9.62
377.59	9.81
377.798	9.63
378.006	9.51
378.214	9.51
378.423	9.4
378.631	9.41
378.839	9.48
379.047	9.1
379.255	8.85
379.463	9.03
379.671	9.05
379.879	9.01
380.088	9.08
380.296	9.21
380.504	9.54
380.712	9.71
380.92	9.51
381.128	9.52
381.336	9.85
381.544	10.21
381.752	10.09
381.96	9.85
382.168	9.82
382.376	9.67
382.584	9.6
382.791	9.31
382.999	9.21
383.207	9.43
383.415	9.68
383.623	9.48
383.831	9.07
384.039	9.32
384.247	9.27
384.454	9.19
384.662	9.26
384.87	9.23
385.078	9.11
385.285	9.25
385.493	8.9
385.701	8.59
385.909	8.83
386.116	8.97
386.324	8.85
386.532	8.98
386.739	9.03
386.947	9.22
387.155	9.43
387.362	9.52
387.57	9.27
387.778	9.32
387.985	9.45
388.193	9.25
388.4	9.06
388.608	9.03
388.816	9.02
389.023	8.8
389.231	8.71
389.438	8.39
389.646	8.59
389.853	8.67
390.061	8.69
390.268	8.45
390.475	8.34
390.683	8.36
390.89	8.22
391.098	8.18
391.305	8.18
391.512	8.03
391.72	8.08
391.927	7.78
392.135	7.63
392.342	7.55
392.549	7.61
392.756	7.55
392.964	7.54
393.171	7.77
393.378	7.5
393.586	7.53
393.793	7.56
394	7.41
394.207	7.65
394.414	7.71
394.622	7.83
394.829	7.92
395.036	7.94
395.243	8
395.45	7.73
395.657	7.83
395.864	7.83
396.072	7.61
396.279	7.74
396.486	7.58
396.693	7.66
396.9	7.59
397.107	7.34
397.314	7.65
397.521	7.65
397.728	7.62
397.935	7.66
398.142	7.57
398.349	7.7
398.556	7.66
398.763	7.86
398.97	7.87
399.177	7.78
399.383	7.91
399.59	7.65
399.797	7.76
400.004	7.89
400.211	7.89
400.418	8.13
400.625	8.43
400.831	8.6
401.038	8.45
401.245	8.39
401.452	8.55
401.658	8.53
401.865	8.33
402.072	8.26
402.279	8.33
402.485	8.61
402.692	8.41
402.899	8.22
403.105	8
403.312	7.97
403.519	7.8
403.725	7.8
403.932	7.78
404.138	7.86
404.345	7.58
404.552	7.25
404.758	7.05
404.965	7
405.171	6.77
405.378	6.88
405.584	6.95
405.791	6.96
405.997	6.82
406.204	6.79
406.41	6.73
406.617	6.94
406.823	7.06
407.029	6.98
407.236	7.11
407.442	7.23
407.649	7.06
407.855	6.92
408.061	6.99
408.268	6.99
408.474	7.11
408.68	7.34
408.887	7.13
409.093	7.22
409.299	7.02
409.505	6.86
409.712	6.75
409.918	6.92
410.124	6.96
410.33	6.86
410.537	6.91
410.743	6.78
410.949	6.67
411.155	6.78
411.361	6.71
411.567	6.96
411.773	6.97
411.98	7.07
412.186	7.13
412.392	7.02
412.598	7.18
412.804	7.08
413.01	7.05
413.216	7.09
413.422	7.06
413.628	7.11
413.834	7.01
414.04	7.05
414.246	6.97
414.452	6.89
414.658	6.93
414.864	6.84
415.07	6.92
415.275	6.98
415.481	6.91
415.687	7.02
415.893	7
416.099	6.91
416.305	6.75
416.511	6.68
416.716	6.62
416.922	6.69
417.128	6.62
417.334	6.52
417.539	6.27
417.745	6.22
417.951	6.1
418.157	5.93
418.362	5.82
418.568	5.88
418.774	5.77
418.979	5.68
419.185	5.53
419.391	5.43
419.596	5.36
419.802	5.3
420.008	5.18
420.213	5.26
420.419	5.22
420.624	5.27
420.83	5.23
421.035	5.36
421.241	5.35
421.446	5.36
421.652	5.33
421.857	5.25
422.063	5.37
422.268	5.36
422.474	5.22
422.679	5.25
422.885	5.17
423.09	5.11
423.295	5.07
423.501	5.08
423.706	5.05
423.911	5.12
424.117	5.21
424.322	5.2
424.527	5.29
424.733	5.3
424.938	5.39
425.143	5.44
425.349	5.47
425.554	5.4
425.759	5.44
425.964	5.5
426.169	5.51
426.375	5.58
426.58	5.56
426.785	5.57
426.99	5.75
427.195	5.76
427.4	5.89
427.605	6.03
427.811	6.16
428.016	6.06
428.221	6.09
428.426	6.14
428.631	6.08
428.836	6.08
429.041	6.1
429.246	6.02
429.451	6.02
429.656	5.98
429.861	5.89
430.066	5.93
430.271	5.97
430.476	5.91
430.681	5.92
430.886	5.97
431.09	6
431.295	5.92
431.5	5.89
431.705	5.91
431.91	5.78
432.115	5.88
432.32	5.83
432.524	5.85
432.729	5.93
432.934	5.96
433.139	5.86
433.343	5.81
433.548	5.86
433.753	5.82
433.958	5.95
434.162	5.95
434.367	5.8
434.572	5.82
434.776	5.78
434.981	5.62
435.186	5.62
435.39	5.66
435.595	5.8
435.799	5.77
436.004	5.88
436.209	5.71
436.413	5.86
436.618	5.89
436.822	5.91
437.027	5.8
437.231	5.87
437.436	5.84
437.64	5.85
437.845	5.75
438.049	5.77
438.253	5.6
438.458	5.55
438.662	5.43
438.867	5.42
439.071	5.3
439.275	5.33
439.48	5.32
439.684	5.27
439.888	5.21
440.093	5.27
440.297	5.23
440.501	5.27
440.706	5.19
440.91	5.29
441.114	5.23
441.318	5.23
441.523	5.32
441.727	5.27
441.931	5.26
442.135	5.22
442.339	5.18
442.543	5.24
442.748	5.18
442.952	5.26
443.156	5.22
443.36	5.38
443.564	5.51
443.768	5.45
443.972	5.53
444.176	5.57
444.38	5.65
444.584	5.66
444.788	5.59
444.992	5.67
445.196	5.62
445.4	5.54
445.604	5.42
445.808	5.39
446.012	5.34
446.216	5.27
446.42	5.23
446.624	5.23
446.828	5.14
447.032	5.15
447.235	5.07
447.439	5.06
447.643	5.04
447.847	5.09
448.051	5.08
448.254	5.13
448.458	5.24
448.662	5.23
448.866	5.23
449.069	5.27
449.273	5.35
449.477	5.46
449.681	5.54
449.884	5.61
450.088	5.66
450.292	5.68
450.495	5.78
450.699	5.76
450.902	5.8
451.106	5.78
451.31	5.91
451.513	5.86
451.717	5.93
451.92	5.93
452.124	6.01
452.327	6
452.531	6.01
452.734	5.94
452.938	5.86
453.141	5.98
453.345	5.99
453.548	5.91
453.752	5.91
453.955	5.91
454.158	5.88
454.362	5.89
454.565	5.84
454.769	5.98
454.972	5.93
455.175	6
455.379	5.93
455.582	6
455.785	5.93
455.988	5.92
456.192	5.72
456.395	5.78
456.598	5.65
456.801	5.7
457.005	5.56
457.208	5.63
457.411	5.65
457.614	5.56
457.817	5.53
458.021	5.49
458.224	5.47
458.427	5.44
458.63	5.43
458.833	5.45
459.036	5.37
459.239	5.3
459.442	5.2
459.645	5.12
459.848	5.14
460.051	5.13
460.254	5.19
460.457	5.13
460.66	5.17
460.863	5.22
461.066	5.2
461.269	5.25
461.472	5.37
461.675	5.44
461.878	5.53
462.081	5.6
462.284	5.51
462.486	5.5
462.689	5.64
462.892	5.77
463.095	5.65
463.298	5.76
463.5	5.79
463.703	5.83
463.906	5.87
464.109	5.81
464.311	5.84
464.514	5.96
464.717	6.01
464.92	5.95
465.122	5.91
465.325	5.99
465.528	5.91
465.73	5.95
465.933	5.86
466.135	5.95
466.338	6
466.541	5.93
466.743	5.87
466.946	5.87
467.148	5.93
467.351	5.9
467.553	5.87
467.756	5.92
467.958	5.84
468.161	5.8
468.363	5.72
468.566	5.74
468.768	5.93
468.971	5.93
469.173	5.89
469.375	5.94
469.578	6.03
469.78	6.04
469.983	5.95
470.185	6.05
470.387	6.17
470.59	6.16
470.792	6.15
470.994	6.01
471.196	6.07
471.399	6.09
471.601	6.01
471.803	6
472.005	6.1
472.208	6.18
472.41	6.13
472.612	6
472.814	6.1
473.016	6.1
473.218	6.19
473.421	6.22
473.623	6.23
473.825	6.18
474.027	6.06
474.229	6.01
474.431	6.01
474.633	6.09
474.835	6.04
475.037	6.03
475.239	6.07
475.441	5.98
475.643	5.95
475.845	6.05
476.047	6.07
476.249	6.08
476.451	6.01
476.653	6.02
476.855	5.93
477.057	5.94
477.258	5.85
477.46	5.73
477.662	5.72
477.864	5.71
478.066	5.56
478.268	5.57
478.469	5.55
478.671	5.59
478.873	5.54
479.075	5.54
479.276	5.52
479.478	5.56
479.68	5.57
479.882	5.51
480.083	5.46
480.285	5.48
480.487	5.47
480.688	5.47
480.89	5.4
481.091	5.37
481.293	5.32
481.495	5.28
481.696	5.23
481.898	5.14
482.099	5.09
482.301	5.03
482.502	4.94
482.704	4.85
482.905	4.77
483.107	4.7
483.308	4.65
483.51	4.63
483.711	4.59
483.913	4.58
484.114	4.59
484.315	4.53
484.517	4.55
484.718	4.56
484.92	4.59
485.121	4.6
485.322	4.61
485.524	4.66
485.725	4.64
485.926	4.66
486.127	4.68
486.329	4.67
486.53	4.73
486.731	4.69
486.932	4.65
487.134	4.63
487.335	4.64
487.536	4.67
487.737	4.64
487.938	4.64
488.139	4.6
488.341	4.55
488.542	4.59
488.743	4.59
488.944	4.62
489.145	4.7
489.346	4.71
489.547	4.71
489.748	4.69
489.949	4.69
490.15	4.7
490.351	4.76
490.552	4.81
490.753	4.77
490.954	4.77
491.155	4.77
491.356	4.81
491.557	4.82
491.758	4.84
491.959	4.87
492.159	4.9
492.36	4.95
492.561	4.99
492.762	5.02
492.963	5.06
493.164	5.11
493.364	5.16
493.565	5.1
493.766	5.07
493.967	5.16
494.167	5.23
494.368	5.31
494.569	5.33
494.769	5.38
494.97	5.41
495.171	5.51
495.371	5.54
495.572	5.6
495.773	5.63
495.973	5.7
496.174	5.7
496.375	5.68
496.575	5.72
496.776	5.74
496.976	5.72
497.177	5.7
497.377	5.63
497.578	5.65
497.778	5.56
497.979	5.57
498.179	5.68
498.38	5.67
498.58	5.7
498.78	5.71
498.981	5.72
499.181	5.81
499.382	5.9
499.582	6
499.782	6.05
499.983	6.2
500.183	6.24
500.383	6.24
500.584	6.28
500.784	6.38
500.984	6.38
501.184	6.4
501.385	6.46
501.585	6.46
501.785	6.51
501.985	6.5
502.185	6.42
502.386	6.43
502.586	6.46
502.786	6.55
502.986	6.54
503.186	6.62
503.386	6.64
503.586	6.62
503.786	6.61
503.987	6.51
504.187	6.5
504.387	6.55
504.587	6.62
504.787	6.5
504.987	6.46
505.187	6.45
505.387	6.41
505.587	6.5
505.786	6.51
505.986	6.49
506.186	6.56
506.386	6.61
506.586	6.66
506.786	6.63
506.986	6.73
507.186	6.73
507.386	6.77
507.585	6.83
507.785	6.8
507.985	6.76
508.185	6.86
508.384	6.9
508.584	6.93
508.784	6.95
508.984	6.98
509.183	7.05
509.383	7.13
509.583	7.19
509.782	7.11
509.982	7.22
510.182	7.26
510.381	7.19
510.581	7.25
510.781	7.32
510.98	7.39
511.18	7.44
511.379	7.4
511.579	7.36
511.778	7.38
511.978	7.55
512.177	7.5
512.377	7.64
512.576	7.66
512.776	7.64
512.975	7.65
513.175	7.73
513.374	7.78
513.573	8.02
513.773	8.11
513.972	8.16
514.172	8.17
514.371	8.19
514.57	8.17
514.77	8.37
514.969	8.44
515.168	8.52
515.367	8.53
515.567	8.57
515.766	8.48
515.965	8.52
516.164	8.52
516.364	8.6
516.563	8.66
516.762	8.75
516.961	8.76
517.16	8.82
517.359	8.84
517.559	8.85
517.758	8.92
517.957	8.96
518.156	8.98
518.355	9.01
518.554	9.07
518.753	9.12
518.952	9.14
519.151	9.2
519.35	9.22
519.549	9.23
519.748	9.38
519.947	9.42
520.146	9.45
520.345	9.46
520.544	9.56
520.743	9.56
520.942	9.76
521.141	9.85
521.339	9.97
521.538	10.13
521.737	10.28
521.936	10.28
522.135	10.27
522.333	10.36
522.532	10.55
522.731	10.62
522.93	10.7
523.129	10.78
523.327	10.85
523.526	10.79
523.725	10.81
523.923	10.83
524.122	10.91
524.321	11.07
524.519	11.16
524.718	11.16
524.917	11.15
525.115	11.18
525.314	11.12
525.512	11.14
525.711	11.21
525.909	11.28
526.108	11.37
526.306	11.43
526.505	11.4
526.703	11.44
526.902	11.5
527.1	11.57
527.299	11.64
527.497	11.69
527.696	11.7
527.894	11.74
528.092	11.73
528.291	11.7
528.489	11.7
528.688	11.75
528.886	11.77
529.084	11.82
529.283	11.85
529.481	11.87
529.679	11.89
529.877	11.95
530.076	12
530.274	12.09
530.472	12.21
530.67	12.31
530.869	12.42
531.067	12.49
531.265	12.58
531.463	12.67
531.661	12.71
531.859	12.84
532.057	12.86
532.255	12.9
532.454	12.9
532.652	12.91
532.85	12.97
533.048	12.97
533.246	13.04
533.444	13.08
533.642	13.13
533.84	13.16
534.038	13.18
534.236	13.33
534.434	13.45
534.632	13.56
534.83	13.69
535.027	13.75
535.225	13.87
535.423	13.9
535.621	13.95
535.819	14.06
536.017	14.16
536.215	14.2
536.412	14.19
536.61	14.22
536.808	14.28
537.006	14.28
537.203	14.33
537.401	14.42
537.599	14.53
537.797	14.62
537.994	14.51
538.192	14.64
538.39	14.79
538.587	14.9
538.785	15.01
538.983	15.11
539.18	15.21
539.378	15.19
539.575	15.23
539.773	15.27
539.97	15.34
540.168	15.49
540.366	15.45
540.563	15.44
540.761	15.45
540.958	15.47
541.155	15.45
541.353	15.49
541.55	15.54
541.748	15.54
541.945	15.62
542.143	15.62
542.34	15.66
542.537	15.76
542.735	15.81
542.932	15.87
543.129	15.94
543.327	16.07
543.524	16.17
543.721	16.39
543.919	16.64
544.116	16.75
544.313	16.97
544.51	17.18
544.708	17.33
544.905	17.53
545.102	17.77
545.299	17.92
545.496	18.01
545.693	18.06
545.891	18.06
546.088	18.01
546.285	18.07
546.482	18.01
546.679	18.01
546.876	18
547.073	17.99
547.27	17.95
547.467	17.93
547.664	17.91
547.861	17.94
548.058	17.87
548.255	17.9
548.452	17.92
548.649	18.01
548.846	17.99
549.043	18.06
549.24	18.05
549.437	18.09
549.633	18.13
549.83	18.22
550.027	18.43
550.224	18.56
550.421	18.57
550.618	18.5
550.814	18.46
551.011	18.51
551.208	18.52
551.405	18.47
551.601	18.47
551.798	18.54
551.995	18.54
552.191	18.39
552.388	18.37
552.585	18.29
552.781	18.43
552.978	18.48
553.175	18.53
553.371	18.52
553.568	18.49
553.764	18.48
553.961	18.53
554.157	18.59
554.354	18.73
554.55	18.82
554.747	18.93
554.943	18.86
555.14	18.86
555.336	18.81
555.533	18.85
555.729	19.03
555.926	19.02
556.122	18.99
556.318	19
556.515	18.97
556.711	18.85
556.907	18.92
557.104	19.01
557.3	19.03
557.496	19.02
557.693	19.15
557.889	19.3
558.085	19.39
558.281	19.4
558.478	19.4
558.674	19.33
558.87	19.43
559.066	19.56
559.262	19.68
559.459	19.8
559.655	19.84
559.851	19.8
560.047	19.73
560.243	19.78
560.439	19.88
560.635	19.94
560.831	20.01
561.027	20.09
561.223	20.01
561.419	19.96
561.615	19.98
561.811	20.09
562.007	20.1
562.203	20.16
562.399	20.13
562.595	20.19
562.791	20.25
562.987	20.38
563.183	20.3
563.379	20.42
563.575	20.43
563.771	20.37
563.966	20.15
564.162	20
564.358	19.99
564.554	19.95
564.75	19.87
564.945	19.87
565.141	19.87
565.337	20.05
565.533	19.99
565.728	20.01
565.924	20.08
566.12	20.23
566.315	20.48
566.511	20.55
566.707	20.58
566.902	20.66
567.098	20.62
567.293	20.65
567.489	20.59
567.684	20.61
567.88	20.65
568.076	20.63
568.271	20.74
568.467	20.7
568.662	20.58
568.858	20.76
569.053	20.77
569.248	20.76
569.444	20.72
569.639	20.79
569.835	20.85
570.03	20.81
570.225	20.85
570.421	20.77
570.616	20.84
570.812	20.97
571.007	20.86
571.202	20.79
571.397	20.87
571.593	20.98
571.788	20.91
571.983	20.9
572.178	20.91
572.374	21.03
572.569	20.96
572.764	20.98
572.959	20.85
573.154	20.97
573.35	21.01
573.545	21.01
573.74	20.86
573.935	20.97
574.13	21.06
574.325	21.01
574.52	21.05
574.715	21.27
574.91	21.22
575.105	21.35
575.3	21.29
575.495	21.45
575.69	21.54
575.885	21.74
576.08	21.88
576.275	22
576.47	22.29
576.665	22.4
576.86	22.59
577.055	22.69
577.25	22.75
577.444	22.94
577.639	23.05
577.834	23.28
578.029	23.34
578.224	23.34
578.418	23.46
578.613	23.53
578.808	23.5
579.003	23.51
579.197	23.76
579.392	24
579.587	24.05
579.781	24.09
579.976	24.14
580.171	24.31
580.365	24.42
580.56	24.31
580.755	24.25
580.949	24.33
581.144	24.29
581.338	24.14
581.533	24.09
581.727	24.19
581.922	24.15
582.116	24.21
582.311	24.36
582.505	24.47
582.7	24.56
582.894	24.62
583.089	24.72
583.283	24.75
583.478	24.94
583.672	24.96
583.866	24.96
584.061	24.96
584.255	24.93
584.449	24.8
584.644	24.86
584.838	24.88
585.032	25.01
585.226	25.02
585.421	25.08
585.615	25.09
585.809	25.22
586.003	25.19
586.198	25.36
586.392	25.48
586.586	25.52
586.78	25.44
586.974	25.53
587.168	25.52
587.363	25.56
587.557	25.44
587.751	25.52
587.945	25.46
588.139	25.54
588.333	25.42
588.527	25.36
588.721	25.19
588.915	25.16
589.109	25.03
589.303	24.79
589.497	24.76
589.691	24.66
589.885	24.35
590.079	24.33
590.273	24.44
590.466	24.52
590.66	24.54
590.854	24.74
591.048	24.74
591.242	24.82
591.436	24.97
591.629	25.03
591.823	25.27
592.017	25.65
592.211	25.76
592.404	25.62
592.598	25.55
592.792	25.47
592.986	25.49
593.179	25.53
593.373	25.5
593.567	25.64
593.76	25.62
593.954	25.52
594.147	25.43
594.341	25.3
594.535	25.33
594.728	25.37
594.922	25.29
595.115	25.15
595.309	24.96
595.502	24.94
595.696	24.83
595.889	24.66
596.083	24.62
596.276	24.51
596.47	24.47
596.663	24.42
596.856	24.35
597.05	24.41
597.243	24.37
597.437	24.47
597.63	24.49
597.823	24.48
598.017	24.7
598.21	24.82
598.403	24.95
598.596	25.09
598.79	25.29
598.983	25.51
599.176	25.59
599.369	25.84
599.563	26.01
599.756	26.14
599.949	26.21
600.142	26.06
600.335	26.11
600.528	26.13
600.722	26.38
600.915	26.25
601.108	26.16
601.301	26.26
601.494	26.14
601.687	25.98
601.88	25.95
602.073	25.8
602.266	25.76
602.459	25.66
602.652	25.46
602.845	25.13
603.038	25.03
603.231	24.96
603.424	24.83
603.617	24.73
603.809	24.7
604.002	24.57
604.195	24.6
604.388	24.55
604.581	24.42
604.774	24.59
604.966	24.62
605.159	24.6
605.352	24.69
605.545	24.75
605.737	24.99
605.93	25.04
606.123	25.17
606.316	25.26
606.508	25.6
606.701	25.99
606.894	26.1
607.086	26.44
607.279	26.65
607.471	26.83
607.664	27.21
607.857	27.32
608.049	27.55
608.242	28
608.434	28.59
608.627	29.04
608.819	29.6
609.012	30.35
609.204	31.06
609.397	31.98
609.589	32.93
609.782	33.71
609.974	34.71
610.166	36.04
610.359	37.17
610.551	38.07
610.743	38.73
610.936	39.51
611.128	39.96
611.32	40.29
611.513	40.54
611.705	40.66
611.897	40.75
612.09	40.6
612.282	40.04
612.474	39.36
612.666	38.97
612.858	38.75
613.051	38.37
613.243	37.79
613.435	37.4
613.627	36.86
613.819	36.48
614.011	36.27
614.203	35.82
614.395	35.54
614.588	35.17
614.78	34.69
614.972	34.31
615.164	33.92
615.356	33.7
615.548	33.32
615.74	33.09
615.932	32.7
616.124	32.23
616.315	31.92
616.507	31.57
616.699	31.29
616.891	31.03
617.083	30.71
617.275	30.37
617.467	30.07
617.659	29.95
617.85	29.95
618.042	29.84
618.234	29.39
618.426	29.38
618.618	29.23
618.809	29.21
619.001	29.25
619.193	29.29
619.384	29.26
619.576	29.37
619.768	29.33
619.959	29.17
620.151	29.21
620.343	29.36
620.534	29.38
620.726	29.47
620.917	29.4
621.109	29.33
621.301	29.48
621.492	29.42
621.684	29.45
621.875	29.49
622.067	29.46
622.258	29.37
622.45	29.52
622.641	29.45
622.832	29.47
623.024	29.66
623.215	29.7
623.407	29.59
623.598	29.84
623.789	29.72
623.981	29.7
624.172	29.7
624.363	29.75
624.555	29.56
624.746	29.53
624.937	29.36
625.129	29.29
625.32	29.08
625.511	28.83
625.702	28.55
625.893	28.7
626.085	28.64
626.276	28.54
626.467	28.41
626.658	28.54
626.849	28.48
627.04	28.49
627.231	28.47
627.422	28.51
627.614	28.72
627.805	28.9
627.996	28.89
628.187	28.99
628.378	29.12
628.569	29.52
628.76	29.44
628.951	29.56
629.142	29.78
629.332	30.07
629.523	30.45
629.714	30.54
629.905	30.69
630.096	30.75
630.287	31.03
630.478	31.12
630.669	30.95
630.859	31.23
631.05	31.2
631.241	31.13
631.432	30.8
631.623	30.64
631.813	30.57
632.004	30.4
632.195	30.21
632.385	29.74
632.576	29.74
632.767	29.44
632.957	29.2
633.148	29.04
633.339	28.92
633.529	28.97
633.72	28.75
633.91	28.66
634.101	28.54
634.292	28.56
634.482	28.64
634.673	28.63
634.863	28.71
635.054	28.52
635.244	28.61
635.435	28.65
635.625	28.48
635.815	28.52
636.006	28.5
636.196	28.46
636.387	28.64
636.577	28.69
636.767	28.48
636.958	28.4
637.148	28.64
637.338	28.87
637.529	28.93
637.719	29.06
637.909	29.15
638.099	29.34
638.29	29.59
638.48	29.54
638.67	29.43
638.86	29.74
639.05	29.69
639.241	29.89
639.431	29.59
639.621	29.39
639.811	29.45
640.001	29.34
640.191	29.23
640.381	29.27
640.571	29.25
640.761	29.5
640.951	29.28
641.141	29.6
641.331	29.31
641.521	29.63
641.711	30.03
641.901	29.93
642.091	30.04
642.281	30.03
642.471	29.8
642.661	30.01
642.851	30.23
643.041	30.34
643.231	30.3
643.42	30.42
643.61	30.22
643.8	30.06
643.99	30.35
644.18	30.27
644.369	30.33
644.559	30.54
644.749	30.26
644.939	30.03
645.128	29.9
645.318	29.96
645.508	30.08
645.697	30.19
645.887	30.35
646.076	30.06
646.266	29.97
646.456	29.85
646.645	29.93
646.835	29.97
647.024	29.79
647.214	29.98
647.403	29.8
647.593	29.71
647.782	29.93
647.972	29.7
648.161	30
648.351	29.96
648.54	30.09
648.73	29.83
648.919	29.87
649.108	29.9
649.298	29.97
649.487	30
649.677	29.99
649.866	29.95
650.055	30.17
650.244	30.02
650.434	30.25
650.623	30.16
650.812	30.21
651.002	30.2
651.191	30.17
651.38	29.99
651.569	30.11
651.758	30.1
651.947	29.98
652.137	29.87
652.326	29.92
652.515	30.12
652.704	30.11
652.893	30.09
653.082	30.07
653.271	30.2
653.46	30.27
653.649	30.31
653.838	30.31
654.027	30.23
654.216	30.34
654.405	30.23
654.594	29.89
654.783	29.75
654.972	29.92
655.161	30
655.35	29.89
655.539	29.93
655.728	29.71
655.916	29.62
656.105	29.64
656.294	29.55
656.483	29.38
656.672	29.45
656.86	29.66
657.049	29.49
657.238	29.31
657.427	29.2
657.615	28.94
657.804	28.77
657.993	28.8
658.181	28.73
658.37	28.29
658.559	28.39
658.747	28.34
658.936	28.31
659.125	28.58
659.313	28.66
659.502	28.9
659.69	29.06
659.879	29.17
660.067	29.17
660.256	29.31
660.444	29.62
660.633	29.88
660.821	29.93
661.01	29.87
661.198	29.5
661.387	29.84
661.575	29.79
661.763	29.92
661.952	30.32
662.14	30.58
662.328	30.78
662.517	31.03
662.705	31.02
662.893	31.19
663.082	31.6
663.27	31.96
663.458	31.98
663.646	32.29
663.834	32.27
664.023	32.27
664.211	32.07
664.399	31.75
664.587	31.91
664.775	31.75
664.963	32.01
665.152	31.81
665.34	31.71
665.528	31.34
665.716	30.98
665.904	31.12
666.092	31.04
666.28	31.09
666.468	31.34
666.656	31.08
666.844	31.24
667.032	30.93
667.22	30.92
667.408	31.21
667.596	31.29
667.784	31.02
667.971	30.77
668.159	30.63
668.347	30.46
668.535	30.4
668.723	30.44
668.911	30.31
669.098	30.37
669.286	30.45
669.474	30.01
669.662	30.01
669.849	30.63
670.037	30.8
670.225	31.02
670.413	31.19
670.6	31.26
670.788	31.23
670.976	31.17
671.163	31.09
671.351	30.85
671.538	30.72
671.726	30.72
671.913	30.32
672.101	30.43
672.289	30.27
672.476	30.51
672.664	30.64
672.851	30.84
673.039	30.96
673.226	31.28
673.413	31.39
673.601	31.83
673.788	31.9
673.976	32.18
674.163	32.18
674.35	32.54
674.538	32.28
674.725	32.38
674.912	32.65
675.1	32.76
675.287	32.64
675.474	32.65
675.662	32.47
675.849	32.54
676.036	32.56
676.223	32.61
676.411	32.48
676.598	32.41
676.785	32.19
676.972	32.13
677.159	32.08
677.346	31.96
677.533	31.93
677.721	32.13
677.908	31.88
678.095	31.58
678.282	31.38
678.469	31.09
678.656	31.06
678.843	30.86
679.03	30.72
679.217	30.68
679.404	30.47
679.591	30.35
679.778	30.14
679.964	30.3
680.151	30.33
680.338	30.29
680.525	30.42
680.712	30.37
680.899	30.34
681.086	30.26
681.272	30.01
681.459	30.07
681.646	30.2
681.833	30.36
682.02	30.49
682.206	30.69
682.393	30.59
682.58	30.72
682.766	31.07
682.953	31.3
683.14	31.39
683.326	32.06
683.513	32.53
683.7	32.62
683.886	32.48
684.073	32.24
684.259	32.31
684.446	32.74
684.632	32.81
684.819	32.73
685.005	32.77
685.192	32.76
685.378	32.58
685.565	32.17
685.751	32.34
685.938	32.59
686.124	32.82
686.31	32.88
686.497	32.71
686.683	32.83
686.87	32.66
687.056	32.62
687.242	32.5
687.429	32.45
687.615	32.55
687.801	32.55
687.987	32.3
688.174	32.11
688.36	31.98
688.546	32.17
688.732	31.89
688.918	32.01
689.105	32.19
689.291	32.35
689.477	32.2
689.663	32.21
689.849	31.97
690.035	32.32
690.221	32.6
690.407	32.35
690.593	32.43
690.779	32.47
690.965	32.67
691.151	32.64
691.337	32.88
691.523	33.06
691.709	33.36
691.895	34.06
692.081	33.86
692.267	33.82
692.453	34.41
692.639	34.23
692.825	34.07
693.011	34.09
693.196	34.28
693.382	33.97
693.568	33.7
693.754	33.7
693.94	33.49
694.125	33.54
694.311	33.61
694.497	33.05
694.682	32.93
694.868	33.31
695.054	33.17
695.239	33.27
695.425	33.28
695.611	33.27
695.796	33.14
695.982	33.02
696.168	32.84
696.353	32.48
696.539	32.44
696.724	32.2
696.91	31.87
697.095	31.74
697.281	31.42
697.466	31.21
697.652	31.23
697.837	30.94
698.023	30.55
698.208	30.29
698.393	30.14
698.579	30.22
698.764	30.13
698.949	30.04
699.135	29.99
699.32	29.68
699.505	29.56
699.691	29.21
699.876	29.15
700.061	29.28
700.246	29.57
700.432	29.76
700.617	29.59
700.802	29.81
700.987	29.92
701.172	29.67
701.358	30.29
701.543	30.84
701.728	31.44
701.913	31.73
702.098	32.49
702.283	32.85
702.468	33.37
702.653	34.19
702.838	34.8
703.023	35.26
703.208	36.1
703.393	36
703.578	36.19
703.763	36.77
703.948	37.18
704.133	36.97
704.318	37.32
704.503	37.62
704.688	37.85
704.873	37.85
705.057	38.17
705.242	38.16
705.427	38.57
705.612	38.8
705.797	39.38
705.981	39.83
706.166	39.97
706.351	40.23
706.536	40.33
706.72	40.16
706.905	40.52
707.09	40.87
707.274	41.18
707.459	41.46
707.644	41.6
707.828	41.31
708.013	40.9
708.197	40.74
708.382	40.36
708.567	40.44
708.751	40.75
708.936	40.27
709.12	39.87
709.305	39.59
709.489	39.58
709.673	38.99
709.858	38.73
710.042	38.66
710.227	38.65
710.411	38.6
710.596	37.97
710.78	37.81
710.964	37.93
711.149	37.91
711.333	37.96
711.517	37.57
711.702	37.78
711.886	37.68
712.07	37.91
712.254	37.46
712.438	37.21
712.623	37.56
712.807	37.31
712.991	36.78
713.175	36.27
713.359	35.85
713.544	35.78
713.728	35.59
713.912	35.08
714.096	34.37
714.28	34.37
714.464	34.49
714.648	33.24
714.832	32.86
715.016	32.86
715.2	33.1
715.384	33.44
715.568	33.32
715.752	33.27
715.936	33.87
716.12	34.28
716.304	34.35
716.488	33.94
716.671	34.91
716.855	34.76
717.039	34.95
717.223	34.57
717.407	33.98
717.59	33.9
717.774	33.86
717.958	33.25
718.142	32.99
718.325	33.35
718.509	33.73
718.693	33.77
718.877	33.74
719.06	33.81
719.244	34.52
719.428	35.02
719.611	35.17
719.795	35.62
719.978	36.2
720.162	36.6
720.345	36.64
720.529	36.92
720.713	37.5
720.896	37.91
721.08	38.04
721.263	37.9
721.446	38.39
721.63	37.87
721.813	37.19
721.997	37.3
722.18	37.34
722.364	37.25
722.547	36.89
722.73	36.09
722.914	36.32
723.097	36.33
723.28	36.28
723.464	36.17
723.647	36.9
723.83	37.56
724.013	37.65
724.197	37.66
724.38	38.02
724.563	38.05
724.746	38.07
724.929	38.41
725.112	38.77
725.296	38.85
725.479	39.23
725.662	38.86
725.845	38.83
726.028	38.78
726.211	38.69
726.394	38.11
726.577	38.39
726.76	38.49
726.943	38.45
727.126	37.83
727.309	37.62
727.492	37.09
727.675	37.53
727.858	37
728.041	36.67
728.224	37.02
728.407	36.97
728.589	36.85
728.772	36.72
728.955	36.47
729.138	36.41
729.321	36.31
729.503	36.16
729.686	36.1
729.869	35.96
730.052	35.74
730.234	35.27
730.417	35.2
730.6	34.8
730.782	34.78
730.965	34.59
731.148	34.6
731.33	34.51
731.513	34.36
731.695	33.88
731.878	33.71
732.061	34.05
732.243	34.59
732.426	34.68
732.608	34.97
732.791	35.27
732.973	35.54
733.156	35.78
733.338	36.06
733.52	36.31
733.703	36.78
733.885	37.23
734.068	37.26
734.25	36.52
734.432	36.23
734.615	36.77
734.797	36.96
734.979	37.29
735.162	37.81
735.344	37.92
735.526	38.19
735.708	38.01
735.891	38.66
736.073	38.6
736.255	39.52
736.437	39.96
736.619	39.83
736.802	39.88
736.984	40.04
737.166	40.27
737.348	40.56
737.53	40.85
737.712	40.98
737.894	40.38
738.076	40.59
738.258	40.1
738.44	39.68
738.622	39.89
738.804	39.85
738.986	39.77
739.168	39.32
739.35	39.31
739.532	38.88
739.714	39.33
739.896	39.57
740.078	39.46
740.259	39.66
740.441	40.91
740.623	40.53
740.805	40.48
740.987	40.12
741.168	40.26
741.35	39.88
741.532	40.34
741.714	39.96
741.895	40.07
742.077	40.38
742.259	41.11
742.44	41.01
742.622	41.51
742.804	41.88
742.985	42.52
743.167	42.62
743.348	43.29
743.53	43.44
743.711	43.93
743.893	44.63
744.075	44.6
744.256	43.98
744.438	43.9
744.619	44.14
744.8	44.48
744.982	43.92
745.163	43.82
745.345	44.04
745.526	44.26
745.707	43.79
745.889	43.54
746.07	44.1
746.252	44.64
746.433	44.49
746.614	44.81
746.795	44.36
746.977	44.76
747.158	45.02
747.339	44.79
747.52	44.75
747.702	44.76
747.883	44.07
748.064	43.71
748.245	43.3
748.426	43.23
748.607	42.89
748.788	42.78
748.97	42.27
749.151	41.7
749.332	41.37
749.513	40.82
749.694	41.71
749.875	42.34
750.056	42.07
750.237	41.85
750.418	42.59
750.599	41.69
750.78	41.6
750.96	41.85
751.141	42.43
751.322	42.7
751.503	42.95
751.684	42.69
751.865	42.61
752.046	42.62
752.226	42.9
752.407	42.76
752.588	43.61
752.769	44.52
752.949	44.53
753.13	45.26
753.311	44.92
753.492	45.01
753.672	44.95
753.853	44.71
754.034	44.43
754.214	44.91
754.395	44.9
754.575	45.23
754.756	44.74
754.937	45.01
755.117	44.89
755.298	45.84
755.478	46.25
755.659	46.19
755.839	46.64
756.02	46.7
756.2	45.93
756.381	45.4
756.561	44.94
756.741	45.3
756.922	45.67
757.102	45
757.283	44.84
757.463	44.16
757.643	43.71
757.823	42.86
758.004	43.69
758.184	44.48
758.364	44.08
758.545	43.18
758.725	42.44
758.905	41.25
759.085	40.41
759.265	38.85
759.446	38.38
759.626	37.75
759.806	37.94
759.986	37.7
760.166	36.41
760.346	35.96
760.526	36.17
760.706	36.35
760.886	35.92
761.066	36.08
761.246	36.23
761.426	36.49
761.606	36.36
761.786	35.71
761.966	34.92
762.146	35.53
762.326	35.62
762.506	35.3
762.686	34.67
762.866	34.66
763.046	34.09
763.225	33.89
763.405	33.32
763.585	33.06
763.765	33.26
763.945	33.22
764.124	32.86
764.304	32.67
764.484	32.6
764.664	32.72
764.843	33.05
765.023	33.83
765.203	34.27
765.382	34.52
765.562	35.61
765.741	36.01
765.921	36.04
766.101	36.47
766.28	37.18
766.46	38.24
766.639	39
766.819	39.73
766.998	40.16
767.178	40.55
767.357	41.19
767.537	41.18
767.716	42.12
767.896	43.33
768.075	44.11
768.254	44.87
768.434	44.94
768.613	44.88
768.792	45.2
768.972	45.66
769.151	46.36
769.33	46.82
769.51	47.36
769.689	47.25
769.868	47.22
770.047	48.36
770.226	48.58
770.406	48.59
770.585	49.49
770.764	50.14
770.943	50.38
771.122	49.66
771.301	49.34
771.48	49.49
771.66	49.96
771.839	49.56
772.018	48.25
772.197	47.65
772.376	47.78
772.555	47.57
772.734	47.26
772.913	46.46
773.092	47.41
773.271	48.76
773.449	48.66
773.628	47.97
773.807	48.61
773.986	48.55
774.165	49.98
774.344	50.38
774.523	50.21
774.701	50.24
774.88	51.11
775.059	50.7
775.238	50.54
775.417	50.31
775.595	50.77
775.774	51
775.953	50.7
776.131	50.49
776.31	50.35
776.489	50.84
776.667	50.84
776.846	50.82
777.025	50.8
777.203	50.57
777.382	51.84
777.56	51.64
777.739	52.07
777.917	53.14
778.096	52.64
778.274	52.79
778.453	53.15
778.631	53.16
778.81	53.25
778.988	53.37
779.166	53.46
779.345	52.8
779.523	52.94
779.702	51.94
779.88	51.71
780.058	51.08
780.237	51.16
780.415	50.53
780.593	49.88
780.771	48.9
780.95	49.96
781.128	50.17
781.306	49.92
781.484	49.81
781.662	50.05
781.841	50
782.019	50.88
782.197	50.94
782.375	50.68
782.553	52.02
782.731	53.49
782.909	53.03
783.087	53.04
783.265	53.71
783.443	53.85
783.621	54.75
783.799	55.64
783.977	55.48
784.155	56.18
784.333	56.47
784.511	56.39
784.689	55.91
784.867	56.14
785.045	55.52
785.223	54.72
785.4	54.37
785.578	54.65
785.756	53.45
785.934	52.87
786.112	52.03
786.289	51.3
786.467	51.65
786.645	50.76
786.823	50.37
787	51.53
787.178	51.33
787.356	52.35
787.533	51.19
787.711	50.97
787.889	51.19
788.066	50.59
788.244	50.41
788.421	50.13
788.599	50.89
788.776	50.88
788.954	49.76
789.131	50.01
789.309	49.38
789.486	49.36
789.664	49.78
789.841	50.09
790.019	49.78
790.196	50.83
790.373	50.64
790.551	51.03
790.728	51.18
790.906	51.22
791.083	51.36
791.26	51.49
791.437	52.05
791.615	52.33
791.792	52.52
791.969	54.28
792.146	53.38
792.324	53.31
792.501	52.77
792.678	52.24
792.855	52.69
793.032	53.09
793.209	53.96
793.387	54.41
793.564	54.62
793.741	53.97
793.918	52.77
794.095	53.96
794.272	53.73
794.449	53.25
794.626	54.16
794.803	53.84
794.98	53.78
795.157	53.24
795.334	52.03
795.511	51
795.688	51.79
795.864	51.53
796.041	51.02
796.218	51.68
796.395	52.67
796.572	51.73
796.749	51.93
796.925	50.87
797.102	50.59
797.279	51.6
797.456	53.26
797.632	52.4
797.809	52.42
797.986	52.93
798.162	52.08
798.339	51.31
798.516	52.32
798.692	52.75
798.869	54.46
799.046	54.81
799.222	53.91
799.399	53.19
799.575	54.5
799.752	55.78
799.928	55.55
800.105	56.28
800.281	57.39
800.458	57.58
800.634	57.35
800.811	55.12
800.987	55.19
801.163	56.69
801.34	56.46
801.516	55.64
801.692	55.32
801.869	55.17
802.045	55.35
802.221	54.19
802.398	54.25
802.574	54.2
802.75	56.56
802.926	56.6
803.103	56.25
803.279	56.01
803.455	56.13
803.631	57.53
803.807	58.82
803.983	59.24
804.16	60.06
804.336	58.71
804.512	58.85
804.688	58.94
804.864	59.94
805.04	60.09
805.216	60.6
805.392	60.66
805.568	59.16
805.744	58.1
805.92	57.98
806.096	56.85
806.272	58.31
806.448	58.82
806.623	58.51
806.799	57.22
806.975	57.65
807.151	57.91
807.327	57.7
807.503	56.88
807.678	57.1
807.854	57.18
808.03	57.51
808.206	58.2
808.381	58.97
808.557	58.86
808.733	59.36
808.908	57.59
809.084	58.4
809.26	58.42
809.435	59.4
809.611	60.34
809.787	59.6
809.962	61.41
810.138	60.45
810.313	60.18
810.489	60.24
810.664	60.02
810.84	61.17
811.015	60.89
811.191	61.19
811.366	61.26
811.542	60.41
811.717	60.36
811.892	59.82
812.068	59.03
812.243	57.48
812.419	56.52
812.594	55.85
812.769	56.34
812.944	56.18
813.12	58.02
813.295	57.69
813.47	57.52
813.645	57.48
813.821	57.02
813.996	57.66
814.171	59.57
814.346	60.19
814.521	62.01
814.697	63.13
814.872	62.9
815.047	61.08
815.222	61.28
815.397	60.85
815.572	61.6
815.747	61.78
815.922	61.15
816.097	60.53
816.272	60.72
816.447	60.6
816.622	59.94
816.797	59.51
816.972	59.32
817.147	60.09
817.322	59.33
817.496	59.11
817.671	59.22
817.846	60.43
818.021	58.89
818.196	57.9
818.371	56.79
818.545	55.41
818.72	54.34
818.895	53.02
819.069	50.53
819.244	51.04
819.419	49.35
819.594	47.58
819.768	44.92
819.943	44
820.117	42.06
820.292	39.95
820.467	37.84
820.641	36.01
820.816	35.19
820.99	33.77
821.165	32.15
821.339	30.86
821.514	30.16
821.688	29.58
821.863	28.63
822.037	27.75
822.212	27.45
822.386	26.8
822.56	26.51
822.735	25.95
822.909	25.94
823.084	25.89
823.258	25.89
823.432	25.69
823.606	25.44
823.781	25.62
823.955	26.42
824.129	26.47
824.303	27.33
824.478	27.8
824.652	28.41
824.826	28.43
825	29.15
825.174	29.88
825.348	30.47
825.523	30.95
825.697	31.66
825.871	31.53
826.045	31.93
826.219	31.57
826.393	31.16
826.567	31.25
826.741	31.26
826.915	30.62
827.089	30.49
827.263	30.88
827.437	30.95
827.611	30.84
827.784	31.4
827.958	31.28
828.132	31.61
828.306	32.61
828.48	33.57
828.654	34.55
828.827	35.56
829.001	36.54
829.175	37.43
829.349	39.19
829.522	39.89
829.696	40.64
829.87	42.99
830.044	45.12
830.217	46.57
830.391	47.42
830.565	48.17
830.738	49.14
830.912	50.76
831.085	51.49
831.259	51.88
831.432	52.6
831.606	53.08
831.779	50.53
831.953	49.58
832.126	48.34
832.3	45.92
832.473	45.9
832.647	44.3
832.82	42.39
832.994	40.78
833.167	39.51
833.34	38.9
833.514	38.22
833.687	38.36
833.86	37.89
834.034	37.87
834.207	37.58
834.38	37.57
834.553	38.03
834.727	38.12
834.9	38.6
835.073	38.56
835.246	39.46
835.419	39.79
835.593	40.46
835.766	41.09
835.939	41.24
836.112	42.29
836.285	43.53
836.458	44.41
836.631	46.34
836.804	48.57
836.977	50.12
837.15	51.08
837.323	51.96
837.496	53.03
837.669	55.32
837.842	57.19
838.015	60.55
838.188	60.75
838.361	61.47
838.533	61.72
838.706	61.75
838.879	63.03
839.052	63.72
839.225	64.59
839.398	64.53
839.57	64.56
839.743	64.78
839.916	62.8
840.088	62.28
840.261	64.49
840.434	64.52
840.607	62.86
840.779	62.46
840.952	62.81
841.124	64.31
841.297	65
841.47	63.82
841.642	62.16
841.815	63.64
841.987	65.16
842.16	64.3
842.332	65.41
842.505	66.91
842.677	69.58
842.85	70.38
843.022	71.3
843.194	73.57
843.367	76.52
843.539	79.15
843.712	80.46
843.884	80.96
844.056	83.81
844.229	82.43
844.401	84.98
844.573	83.66
844.745	85.46
844.918	81.97
845.09	81.05
845.262	80.86
845.434	83.11
845.606	80.52
845.779	83.57
845.951	82.72
846.123	86.45
846.295	84.21
846.467	88.26
846.639	87.23
846.811	91.74
846.983	92.78
847.155	92.36
847.327	98.5
847.499	103.75
847.671	104.24
847.843	104.3
848.015	104.27
848.187	109.79
848.359	114.15
848.531	113.23
848.703	113.35
848.875	119.12
849.047	126.11
849.218	120.84
849.39	122.55
849.562	123.33
849.734	128.39
849.905	131.31
850.077	126.02
850.249	119.78
850.421	125.78
850.592	124.78
850.764	118.32
850.936	115.44
851.107	115.91
851.279	110.7
851.451	108.14
851.622	107
851.794	109.15
851.965	111.77
852.137	114.36
852.308	110.57
852.48	112.69
852.651	117.96
852.823	117.13
852.994	115.61
853.166	118.24
853.337	122.41
853.509	122.42
853.68	116.37
853.851	114.39
854.023	113.71
854.194	113.41
854.365	114.9
854.537	112.41
854.708	110.98
854.879	110.89
855.05	112.62
855.222	109.09
855.393	107.55
855.564	109.54
855.735	107.44
855.906	107.99
856.078	103.85
856.249	96.35
856.42	98.04
856.591	105.77
856.762	105.28
856.933	105.31
857.104	106.01
857.275	105.48
857.446	101.31
857.617	105.32
857.788	105.34
857.959	108.45
858.13	116.71
858.301	115.1
858.472	109.02
858.643	113.87
858.814	114.59
858.985	112.1
859.155	116.93
859.326	121.51
859.497	125.88
859.668	130.58
859.839	129.54
860.009	128.38
860.18	129.3
860.351	133.07
860.522	128.35
860.692	126.52
860.863	135.4
861.034	133.27
861.204	130.36
861.375	125.17
861.546	117.96
861.716	120.93
861.887	120.37
862.057	120.22
862.228	115.77
862.398	115.95
862.569	116.75
862.739	115.98
862.91	110.78
863.08	112.93
863.251	118.15
863.421	121.65
863.592	122.92
863.762	124.35
863.932	128.63
864.103	131.53
864.273	130.73
864.443	134.63
864.614	127.73
864.784	128.17
864.954	125.95
865.125	119.73
865.295	119.12
865.465	117.27
865.635	117.76
865.805	119.62
865.976	118.77
866.146	119.33
866.316	115.1
866.486	121.52
866.656	121.13
866.826	128.02
866.996	130.61
867.166	135.43
867.336	129.55
867.506	127.8
867.676	122.65
867.846	126.98
868.016	126.07
868.186	128.42
868.356	130.7
868.526	130.98
868.696	127.17
868.866	125.11
869.036	125.02
869.206	130.89
869.376	136.98
869.545	136.14
869.715	136.75
869.885	138.15
870.055	130.51
870.224	129.86
870.394	124.83
870.564	126.21
870.734	128.88
870.903	127.7
871.073	122.04
871.243	113.2
871.412	110.24
871.582	105.27
871.751	105.48
871.921	107.91
872.091	105.34
872.26	104.16
872.43	100.7
872.599	98.95
872.769	97.8
872.938	103.42
873.108	107.2
873.277	106.77
873.446	107.9
873.616	107.04
873.785	105
873.955	104.09
874.124	108.79
874.293	109.1
874.463	107.04
874.632	105.1
874.801	101.35
874.971	99.61
875.14	103.31
875.309	101.2
875.478	102.27
875.647	101.59
875.817	103.25
875.986	107.52
876.155	103.97
876.324	108.72
876.493	108.41
876.662	107.62
876.831	105.93
877	103.55
877.17	103.27
877.339	104.45
877.508	106.03
877.677	105
877.846	99.39
878.015	103.83
878.184	99.91
878.352	100.68
878.521	97.15
878.69	98.87
878.859	100.88
879.028	101.78
879.197	94.97
879.366	91.76
879.534	87.52
879.703	85.7
879.872	79.25
880.041	74.84
880.21	67.72
880.378	64.46
880.547	58.55
880.716	52.68
880.884	49.61
881.053	46.24
881.222	43.63
881.39	41.8
881.559	40.03
881.727	38.53
881.896	36.96
882.065	36.19
882.233	35.09
882.402	35.05
882.57	34.64
882.739	33.62
882.907	34.4
883.076	34.28
883.244	34.4
883.412	34
883.581	34.41
883.749	34.96
883.918	35.99
884.086	37.79
884.254	38.75
884.423	40.12
884.591	42.61
884.759	43.32
884.927	46.09
885.096	47.15
885.264	50.31
885.432	54.11
885.6	57.76
885.769	61.01
885.937	63.06
886.105	66.93
886.273	71.92
886.441	75.49
886.609	78.44
886.777	78.85
886.945	81.57
887.113	84.62
887.281	85.52
887.449	88.76
887.617	91.18
887.785	95.04
887.953	94.62
888.121	93.66
888.289	92.47
888.457	96.57
888.625	100.61
888.793	105.85
888.961	104.85
889.129	109.61
889.296	109.58
889.464	112.88
889.632	110.39
889.8	111.18
889.967	114.81
890.135	115.34
