Data from 2938781__Reflection_01.txt Node
Date: Fri Mar 13 12:48:47 EDT 2015
User: robert
Spectrometer: USB4E03002
Autoset integration time: false
Trigger mode: 4
Integration Time (sec): 1.000000E-1
Scans to average: 10
Electric dark correction enabled: false
Nonlinearity correction enabled: false
Boxcar width: 5
Stray light correction enabled: false
XAxis mode: Wavelengths
Stop averaging: false
Number of Pixels in Spectrum: 3648
>>>>>Begin Spectral Data<<<<<
177.575	88.87
177.794	88.73
178.014	95.47
178.233	89.66
178.452	91.89
178.672	88.5
178.891	85.38
179.11	83.21
179.33	87.27
179.549	93.16
179.768	95.83
179.987	96.76
180.207	97
180.426	90.23
180.645	95.41
180.864	90.75
181.084	86.92
181.303	88.86
181.522	90.36
181.741	84.64
181.96	82.36
182.179	82.58
182.398	77.9
182.618	77.43
182.837	78.79
183.056	76.77
183.275	75.47
183.494	79.46
183.713	80.37
183.932	78.85
184.151	82.44
184.37	84.57
184.589	88.19
184.808	92.1
185.027	92.12
185.246	94
185.465	93.56
185.684	97.41
185.903	94.83
186.122	92.35
186.341	90.49
186.56	83.34
186.779	78.73
186.998	75.91
187.216	76.23
187.435	79.48
187.654	73.87
187.873	76.42
188.092	78.83
188.311	77.13
188.53	77.77
188.748	78.41
188.967	81.68
189.186	84.14
189.405	86.13
189.623	85.65
189.842	83.11
190.061	85.74
190.28	84.98
190.498	85.38
190.717	86.65
190.936	84.43
191.154	85.01
191.373	86.41
191.592	86.1
191.81	82.79
192.029	82.21
192.248	81.85
192.466	84.69
192.685	81.07
192.904	77.25
193.122	80.55
193.341	81.55
193.559	78.82
193.778	76.08
193.996	77.92
194.215	74.02
194.433	73.32
194.652	72.71
194.87	69.39
195.089	68.74
195.307	69.35
195.526	67.27
195.744	67.3
195.963	70.69
196.181	71.93
196.399	70.03
196.618	72.17
196.836	76.65
197.055	75.56
197.273	78.88
197.491	80.63
197.71	84.05
197.928	88.28
198.146	82.99
198.365	81.04
198.583	81.4
198.801	77.72
199.019	78.27
199.238	74.01
199.456	78.13
199.674	75.93
199.892	78.83
200.111	78.88
200.329	81.7
200.547	82.23
200.765	86.78
200.983	85.92
201.202	88.35
201.42	93.04
201.638	90.57
201.856	87.84
202.074	89.85
202.292	87.01
202.51	83.85
202.728	76.38
202.946	75.4
203.165	70.5
203.383	72.16
203.601	72.06
203.819	68.83
204.037	70.56
204.255	69.75
204.473	68.83
204.691	71.52
204.909	73.51
205.127	80.06
205.345	79.63
205.562	78.08
205.78	75.55
205.998	73.77
206.216	73.51
206.434	73.4
206.652	76.14
206.87	75.43
207.088	73.93
207.306	70.71
207.523	69.63
207.741	68.43
207.959	71.79
208.177	73.12
208.395	77.14
208.612	79.54
208.83	81.2
209.048	77.74
209.266	77.78
209.483	76.49
209.701	78.37
209.919	73.19
210.136	82.22
210.354	80.73
210.572	81.18
210.79	81.22
211.007	79.44
211.225	78.11
211.442	74.6
211.66	76.63
211.878	77.4
212.095	75.72
212.313	79.25
212.53	74.84
212.748	74.56
212.966	73.27
213.183	69.03
213.401	67.77
213.618	68.93
213.836	72.04
214.053	67.63
214.271	66.34
214.488	70.1
214.705	69.98
214.923	69.51
215.14	67.87
215.358	65.05
215.575	67.52
215.793	68.68
216.01	69.62
216.227	72.22
216.445	74.85
216.662	75.82
216.879	74.4
217.097	72.93
217.314	70.59
217.531	72.71
217.749	75.54
217.966	77.39
218.183	75.49
218.4	71.27
218.618	68.32
218.835	68.13
219.052	68.3
219.269	67.78
219.487	66.67
219.704	73.38
219.921	70.44
220.138	71.49
220.355	66.36
220.572	65.89
220.79	65.05
221.007	65.94
221.224	66.91
221.441	64.76
221.658	65.07
221.875	66.65
222.092	60.61
222.309	62.66
222.526	57.96
222.743	59.22
222.96	57.99
223.177	58.89
223.394	54.8
223.611	51.77
223.828	50.35
224.045	45.14
224.262	43.01
224.479	41.69
224.696	41.81
224.913	42.71
225.13	41.78
225.347	42.67
225.564	41.97
225.781	41.89
225.997	40.48
226.214	39.73
226.431	38.73
226.648	37.73
226.865	36.4
227.082	33.51
227.298	30.86
227.515	27.82
227.732	25.76
227.949	23.37
228.165	21.54
228.382	20.63
228.599	20.37
228.816	20.08
229.032	18.65
229.249	18.17
229.466	17.47
229.682	17.51
229.899	18.16
230.116	17.97
230.332	18.95
230.549	19.92
230.765	21.01
230.982	21.17
231.199	21.57
231.415	23.55
231.632	24.72
231.848	26.32
232.065	26.06
232.281	26.86
232.498	26.41
232.714	25.51
232.931	25.65
233.147	26.07
233.364	25.29
233.58	25.52
233.797	24.59
234.013	24.34
234.23	23.07
234.446	23.46
234.662	22.15
234.879	22.08
235.095	21.72
235.312	22.05
235.528	21.66
235.744	22.17
235.961	21.77
236.177	21.64
236.393	21.7
236.61	21.96
236.826	22.24
237.042	22.79
237.258	24.36
237.475	25.48
237.691	26.36
237.907	26.57
238.123	26.62
238.339	26.82
238.556	27.56
238.772	26.67
238.988	26.35
239.204	25.48
239.42	25.21
239.636	24.6
239.853	23.94
240.069	22.15
240.285	22.05
240.501	20.31
240.717	19.79
240.933	18.46
241.149	17.59
241.365	16.71
241.581	16.27
241.797	15.68
242.013	14.76
242.229	14.34
242.445	13.77
242.661	13.21
242.877	13.39
243.093	13.63
243.309	13.76
243.525	14.38
243.741	14.58
243.957	14.9
244.173	15.65
244.388	15.98
244.604	16.33
244.82	17.31
245.036	17.03
245.252	16.23
245.468	15.14
245.683	14.66
245.899	13.62
246.115	13.32
246.331	12.61
246.547	12.27
246.762	11.91
246.978	11.43
247.194	11
247.409	10.94
247.625	11
247.841	10.98
248.057	11.01
248.272	10.92
248.488	10.89
248.703	11.07
248.919	10.88
249.135	11.2
249.35	11.77
249.566	12.34
249.782	12.48
249.997	12.99
250.213	13.23
250.428	13.54
250.644	14.71
250.859	14.92
251.075	15.22
251.29	15.71
251.506	15.1
251.721	15.1
251.937	14.61
252.152	14.71
252.368	14.88
252.583	14.69
252.798	14.6
253.014	15.13
253.229	15.14
253.445	15.8
253.66	15.42
253.875	16.54
254.091	16.79
254.306	17.1
254.521	17.7
254.737	18.54
254.952	18.68
255.167	18.97
255.383	17.97
255.598	17.92
255.813	16.76
256.028	17.27
256.244	16.87
256.459	17.04
256.674	17.02
256.889	15.86
257.104	14.76
257.32	14.26
257.535	13.06
257.75	12.72
257.965	12.83
258.18	12.58
258.395	11.74
258.61	11.1
258.826	10.13
259.041	10
259.256	9.59
259.471	9.14
259.686	8.8
259.901	8.9
260.116	8.6
260.331	8.14
260.546	7.99
260.761	8.16
260.976	8.21
261.191	8.14
261.406	8
261.621	8.55
261.836	8.62
262.05	9.57
262.265	9.78
262.48	10.44
262.695	11.4
262.91	12.56
263.125	12.29
263.34	12.43
263.555	14
263.769	14.31
263.984	14.36
264.199	15.07
264.414	14.32
264.629	14.01
264.843	14.25
265.058	14.19
265.273	13.18
265.488	13.44
265.702	13.04
265.917	12.38
266.132	11.85
266.346	11.75
266.561	11.71
266.776	12.09
266.99	12.25
267.205	11.76
267.42	11.4
267.634	10.92
267.849	10.93
268.063	11.61
268.278	11.29
268.492	11.48
268.707	11.32
268.922	10.95
269.136	10.75
269.351	10.52
269.565	10.4
269.78	10.15
269.994	10.29
270.209	10.02
270.423	9.24
270.637	8.96
270.852	8.76
271.066	8.46
271.281	8.62
271.495	8.51
271.709	8.4
271.924	8.25
272.138	8.32
272.353	8.42
272.567	8.72
272.781	9.13
272.996	9.31
273.21	9.48
273.424	9.7
273.638	9.54
273.853	9.41
274.067	9.72
274.281	10.22
274.495	10.37
274.71	10.77
274.924	10.64
275.138	10.43
275.352	10.21
275.566	10.49
275.781	10.21
275.995	10.53
276.209	10.95
276.423	10.85
276.637	10.56
276.851	10.72
277.065	10.18
277.279	9.97
277.493	10.11
277.707	10.49
277.921	9.92
278.135	10.2
278.349	10.19
278.563	9.88
278.777	10
278.991	9.96
279.205	9.89
279.419	10.22
279.633	10.3
279.847	9.99
280.061	10.15
280.275	9.83
280.489	9.79
280.703	9.7
280.917	9.56
281.131	9.2
281.344	9.31
281.558	9.17
281.772	9.09
281.986	9.14
282.2	9.55
282.414	9.29
282.627	9.24
282.841	9.1
283.055	9.18
283.269	9.28
283.482	9.31
283.696	9.07
283.91	9.16
284.123	8.96
284.337	8.7
284.551	8.23
284.764	8.13
284.978	8.07
285.192	8.06
285.405	7.99
285.619	7.85
285.833	8.01
286.046	7.93
286.26	7.84
286.473	8.09
286.687	8.33
286.9	8.36
287.114	8.28
287.327	8.59
287.541	8.72
287.754	8.58
287.968	8.87
288.181	8.71
288.395	8.71
288.608	8.7
288.822	8.61
289.035	8.1
289.248	7.89
289.462	7.92
289.675	7.72
289.889	7.79
290.102	7.56
290.315	7.29
290.529	7.39
290.742	7.64
290.955	7.58
291.169	7.84
291.382	8.3
291.595	8.75
291.808	9.08
292.022	9.25
292.235	9.23
292.448	9.76
292.661	9.82
292.875	9.66
293.088	9.6
293.301	9.58
293.514	8.83
293.727	8.32
293.94	8.11
294.153	7.89
294.367	7.85
294.58	7.59
294.793	7.33
295.006	7.21
295.219	7.32
295.432	7.4
295.645	7.11
295.858	7.22
296.071	7.28
296.284	7.11
296.497	6.85
296.71	6.73
296.923	6.82
297.136	6.88
297.349	6.88
297.562	6.74
297.775	6.53
297.988	6.92
298.201	7.16
298.414	7.22
298.626	7.25
298.839	7.47
299.052	7.69
299.265	7.91
299.478	7.78
299.691	8.21
299.903	8.6
300.116	9.04
300.329	8.69
300.542	8.52
300.755	8.65
300.967	9
301.18	9.09
301.393	9.08
301.605	9.17
301.818	9.28
302.031	9.21
302.243	8.8
302.456	8.43
302.669	8.75
302.881	8.83
303.094	9
303.307	9.07
303.519	9.09
303.732	9.41
303.944	9.17
304.157	9.37
304.37	8.84
304.582	8.94
304.795	9.08
305.007	9.16
305.22	9.45
305.432	9.38
305.645	9.41
305.857	9.68
306.069	9.57
306.282	9.36
306.494	9.35
306.707	9.85
306.919	10
307.132	9.87
307.344	9.56
307.556	9.39
307.769	9.48
307.981	9.11
308.193	8.67
308.406	8.64
308.618	8.69
308.83	8.66
309.043	8.43
309.255	8.33
309.467	8.48
309.679	8.46
309.892	8.44
310.104	8.24
310.316	8.41
310.528	8.2
310.74	8.06
310.953	7.76
311.165	7.69
311.377	7.97
311.589	8.11
311.801	7.86
312.013	7.88
312.225	7.71
312.437	7.59
312.649	7.66
312.862	7.92
313.074	8.12
313.286	8.45
313.498	8.84
313.71	8.47
313.922	8.38
314.134	8.68
314.346	8.73
314.558	9.09
314.77	9.66
314.982	9.58
315.193	9.79
315.405	9.9
315.617	10.13
315.829	10.05
316.041	10.64
316.253	10.68
316.465	10.95
316.677	11.08
316.888	10.63
317.1	10.45
317.312	10.48
317.524	10.93
317.736	10.89
317.947	11.35
318.159	11.15
318.371	10.68
318.583	10.97
318.794	10.95
319.006	11.26
319.218	11.75
319.43	11.71
319.641	12.14
319.853	11.71
320.064	11.71
320.276	11.21
320.488	11.75
320.699	11.73
320.911	11.9
321.123	11.79
321.334	11.27
321.546	11.16
321.757	11.75
321.969	11.86
322.18	11.95
322.392	11.74
322.603	12.4
322.815	11.75
323.026	12.06
323.238	11.69
323.449	11.47
323.661	11.8
323.872	11.89
324.083	11.47
324.295	10.8
324.506	10.83
324.718	10.93
324.929	10.65
325.14	11.06
325.352	11.03
325.563	11.59
325.774	11.82
325.986	11.73
326.197	11.94
326.408	12.19
326.62	12.53
326.831	12.39
327.042	12.84
327.253	13.29
327.464	13.46
327.676	13.58
327.887	13.52
328.098	14
328.309	14.2
328.52	14.17
328.732	14.12
328.943	14.41
329.154	15.12
329.365	15.09
329.576	15.15
329.787	15.42
329.998	15.8
330.209	15.64
330.42	15.66
330.631	15.98
330.842	16.19
331.053	16.71
331.264	16.7
331.475	16.62
331.686	16.71
331.897	16.56
332.108	16.41
332.319	16.45
332.53	16.5
332.741	16.29
332.952	16.38
333.163	16.32
333.374	15.91
333.585	16.08
333.795	16.09
334.006	15.91
334.217	15.87
334.428	15.76
334.639	15.75
334.849	15.88
335.06	15.78
335.271	15.69
335.482	15.97
335.692	16.11
335.903	16.02
336.114	15.47
336.325	15.73
336.535	15.82
336.746	15.63
336.957	15.96
337.167	16.38
337.378	16.64
337.589	16.82
337.799	16.49
338.01	16.57
338.22	16.57
338.431	17.02
338.642	16.9
338.852	16.82
339.063	17.16
339.273	17.01
339.484	16.41
339.694	16.21
339.905	16.23
340.115	16.43
340.326	16.44
340.536	16.23
340.746	16.26
340.957	16.29
341.167	16.22
341.378	16.06
341.588	15.77
341.799	15.93
342.009	16
342.219	15.87
342.43	15.97
342.64	15.95
342.85	16.11
343.061	16.02
343.271	16.1
343.481	16.06
343.691	16.07
343.902	16.15
344.112	16
344.322	15.84
344.532	15.87
344.743	15.44
344.953	14.95
345.163	14.9
345.373	14.68
345.583	14.57
345.793	14.46
346.004	14.25
346.214	14.31
346.424	14.4
346.634	14.66
346.844	14.72
347.054	15.05
347.264	15.31
347.474	15.04
347.684	15.36
347.894	15.34
348.104	15.42
348.314	15.79
348.524	15.53
348.734	15.64
348.944	15.75
349.154	15.48
349.364	15.44
349.574	15.63
349.784	16.21
349.994	16.12
350.204	16.24
350.413	16.21
350.623	16.04
350.833	16.27
351.043	16.15
351.253	15.97
351.463	15.98
351.672	16.04
351.882	15.77
352.092	15.45
352.302	15.4
352.511	15.21
352.721	15.21
352.931	15.07
353.141	14.98
353.35	14.83
353.56	14.7
353.77	14.67
353.979	14.35
354.189	14.43
354.399	14.52
354.608	14.58
354.818	14.49
355.027	14.56
355.237	14.59
355.447	14.55
355.656	14.66
355.866	14.6
356.075	14.66
356.285	14.96
356.494	14.97
356.704	14.98
356.913	14.88
357.123	15.02
357.332	14.95
357.542	14.94
357.751	14.79
357.96	14.59
358.17	14.72
358.379	14.53
358.589	14.31
358.798	14.36
359.007	14.19
359.217	14.25
359.426	13.86
359.635	13.78
359.845	13.79
360.054	13.64
360.263	13.76
360.472	13.63
360.682	13.5
360.891	13.54
361.1	13.27
361.309	13.19
361.519	13.2
361.728	13.32
361.937	13.41
362.146	13.37
362.355	13.49
362.564	13.68
362.774	13.71
362.983	13.71
363.192	13.63
363.401	13.78
363.61	13.81
363.819	13.91
364.028	14.06
364.237	14.05
364.446	14.25
364.655	14.29
364.864	13.9
365.073	13.71
365.282	13.83
365.491	13.77
365.7	13.73
365.909	13.75
366.118	13.54
366.327	13.54
366.536	13.55
366.745	13.37
366.954	13.29
367.162	13.45
367.371	13.63
367.58	13.83
367.789	13.86
367.998	13.92
368.207	14.02
368.415	14.08
368.624	14.02
368.833	13.81
369.042	13.79
369.25	13.76
369.459	13.93
369.668	13.89
369.877	13.65
370.085	13.59
370.294	13.65
370.503	13.68
370.711	13.56
370.92	13.5
371.129	13.69
371.337	13.56
371.546	13.6
371.754	13.39
371.963	13.26
372.171	13.15
372.38	13.31
372.589	13.43
372.797	13.23
373.006	13.35
373.214	13.28
373.423	13.14
373.631	13.29
373.84	13.37
374.048	13.41
374.256	13.58
374.465	13.76
374.673	13.85
374.882	13.74
375.09	14.05
375.298	13.89
375.507	14.03
375.715	13.96
375.923	13.73
376.132	13.65
376.34	13.58
376.548	13.33
376.757	13.24
376.965	12.98
377.173	12.99
377.381	12.77
377.59	12.93
377.798	12.91
378.006	13
378.214	13.13
378.423	13.28
378.631	13.24
378.839	13.34
379.047	13.41
379.255	13.6
379.463	13.56
379.671	13.4
379.879	13.22
380.088	13.12
380.296	12.96
380.504	12.8
380.712	12.53
380.92	12.52
381.128	12.6
381.336	12.48
381.544	12.14
381.752	11.81
381.96	11.89
382.168	11.97
382.376	12.04
382.584	12.18
382.791	12.38
382.999	12.27
383.207	12.37
383.415	12.33
383.623	12.39
383.831	12.44
384.039	12.6
384.247	12.71
384.454	12.77
384.662	12.7
384.87	12.58
385.078	12.59
385.285	12.69
385.493	12.5
385.701	12.43
385.909	12.22
386.116	12.27
386.324	12.28
386.532	12.16
386.739	11.84
386.947	11.85
387.155	11.97
387.362	11.84
387.57	11.75
387.778	11.8
387.985	11.8
388.193	11.95
388.4	12.07
388.608	12.22
388.816	12.05
389.023	12.37
389.231	12.24
389.438	12.11
389.646	12.18
389.853	12.18
390.061	12.24
390.268	12.31
390.475	12.12
390.683	12
390.89	11.64
391.098	11.88
391.305	11.66
391.512	11.38
391.72	11.37
391.927	11.18
392.135	11.24
392.342	11.16
392.549	11.15
392.756	11.19
392.964	11.09
393.171	11.22
393.378	11.04
393.586	10.98
393.793	11.16
394	11.05
394.207	11.23
394.414	11.26
394.622	11.23
394.829	11.17
395.036	11.43
395.243	11.51
395.45	11.67
395.657	11.71
395.864	11.75
396.072	11.73
396.279	12.02
396.486	11.95
396.693	12.03
396.9	12.1
397.107	12
397.314	11.87
397.521	11.74
397.728	11.57
397.935	11.47
398.142	11.28
398.349	11.45
398.556	11.22
398.763	11.11
398.97	10.98
399.177	10.84
399.383	10.93
399.59	10.94
399.797	11.18
400.004	11.24
400.211	11.42
400.418	11.71
400.625	11.73
400.831	11.77
401.038	12.02
401.245	11.86
401.452	12.06
401.658	11.98
401.865	12.15
402.072	11.96
402.279	11.89
402.485	11.76
402.692	11.55
402.899	11.47
403.105	11.34
403.312	11.11
403.519	11.05
403.725	10.9
403.932	10.81
404.138	10.52
404.345	10.56
404.552	10.5
404.758	10.45
404.965	10.38
405.171	10.37
405.378	10.48
405.584	10.46
405.791	10.62
405.997	10.59
406.204	10.87
406.41	10.83
406.617	10.92
406.823	11
407.029	11.1
407.236	11.28
407.442	11.2
407.649	11.22
407.855	11.31
408.061	11.39
408.268	11.57
408.474	11.43
408.68	11.55
408.887	11.33
409.093	11.31
409.299	11.38
409.505	11.36
409.712	11.46
409.918	11.41
410.124	11.34
410.33	11.23
410.537	11.04
410.743	10.89
410.949	11
411.155	11.15
411.361	11.07
411.567	11.07
411.773	10.92
411.98	10.91
412.186	10.85
412.392	10.94
412.598	10.91
412.804	10.91
413.01	10.98
413.216	10.82
413.422	10.67
413.628	10.74
413.834	10.63
414.04	10.73
414.246	10.67
414.452	10.61
414.658	10.46
414.864	10.35
415.07	10.44
415.275	10.33
415.481	10.37
415.687	10.29
415.893	10.2
416.099	10.18
416.305	10.12
416.511	10.14
416.716	10.13
416.922	10.1
417.128	10.01
417.334	9.9
417.539	9.94
417.745	9.76
417.951	9.74
418.157	9.7
418.362	9.61
418.568	9.56
418.774	9.35
418.979	9.38
419.185	9.31
419.391	9.31
419.596	9.21
419.802	9.07
420.008	9.08
420.213	9.63
420.419	9.55
420.624	9.59
420.83	9.64
421.035	9.67
421.241	9.59
421.446	9.61
421.652	9.61
421.857	9.6
422.063	9.63
422.268	9.62
422.474	9.07
422.679	9.13
422.885	9.07
423.09	8.97
423.295	8.98
423.501	8.98
423.706	8.99
423.911	9.01
424.117	9.07
424.322	9.07
424.527	9.04
424.733	9.05
424.938	9.07
425.143	9.01
425.349	9
425.554	9
425.759	9.08
425.964	9.02
426.169	9.07
426.375	9.08
426.58	9.15
426.785	9.18
426.99	9.19
427.195	9.28
427.4	9.3
427.605	9.35
427.811	9.42
428.016	9.37
428.221	9.5
428.426	9.43
428.631	9.52
428.836	9.46
429.041	9.54
429.246	9.53
429.451	9.38
429.656	9.52
429.861	9.55
430.066	9.48
430.271	9.47
430.476	9.35
430.681	9.41
430.886	9.35
431.09	9.4
431.295	9.39
431.5	9.5
431.705	9.54
431.91	9.5
432.115	9.45
432.32	9.52
432.524	9.45
432.729	9.57
432.934	9.53
433.139	9.43
433.343	9.39
433.548	9.29
433.753	9.29
433.958	9.2
434.162	9.19
434.367	9.21
434.572	9.24
434.776	9.29
434.981	9.16
435.186	9.25
435.39	9.41
435.595	9.45
435.799	9.46
436.004	9.44
436.209	9.53
436.413	9.53
436.618	9.55
436.822	9.49
437.027	9.48
437.231	9.61
437.436	9.55
437.64	9.44
437.845	9.39
438.049	9.54
438.253	9.5
438.458	9.5
438.662	9.42
438.867	9.4
439.071	9.38
439.275	9.36
439.48	9.27
439.684	9.19
439.888	9.12
440.093	9.11
440.297	9.02
440.501	8.99
440.706	8.99
440.91	8.99
441.114	8.97
441.318	9
441.523	9.05
441.727	9.02
441.931	9.09
442.135	9.23
442.339	9.25
442.543	9.32
442.748	9.35
442.952	9.35
443.156	9.43
443.36	9.43
443.564	9.41
443.768	9.35
443.972	9.34
444.176	9.28
444.38	9.16
444.584	9.16
444.788	9.07
444.992	9.09
445.196	9.03
445.4	8.93
445.604	8.92
445.808	8.93
446.012	8.88
446.216	8.88
446.42	8.91
446.624	8.9
446.828	8.79
447.032	8.77
447.235	8.75
447.439	8.77
447.643	8.8
447.847	8.85
448.051	8.92
448.254	8.93
448.458	8.93
448.662	8.94
448.866	8.88
449.069	8.99
449.273	9.07
449.477	9.06
449.681	9
449.884	9.14
450.088	9.22
450.292	9.16
450.495	9.21
450.699	9.31
450.902	9.25
451.106	9.34
451.31	9.31
451.513	9.43
451.717	9.41
451.92	9.46
452.124	9.39
452.327	9.24
452.531	9.17
452.734	9.16
452.938	9.14
453.141	9.25
453.345	9.43
453.548	9.5
453.752	9.41
453.955	9.46
454.158	9.46
454.362	9.39
454.565	9.46
454.769	9.49
454.972	9.44
455.175	9.37
455.379	9.29
455.582	9.19
455.785	9.11
455.988	9.06
456.192	8.98
456.395	9.02
456.598	9.09
456.801	9.01
457.005	9
457.208	9.15
457.411	9.19
457.614	9.11
457.817	9.05
458.021	9
458.224	9.02
458.427	8.93
458.63	8.91
458.833	8.82
459.036	8.86
459.239	8.83
459.442	8.69
459.645	8.66
459.848	8.72
460.051	8.75
460.254	8.85
460.457	8.78
460.66	8.92
460.863	8.92
461.066	8.93
461.269	8.89
461.472	9.01
461.675	9.05
461.878	9.18
462.081	9.12
462.284	9.15
462.486	9.11
462.689	9.13
462.892	9.08
463.095	9.13
463.298	9.29
463.5	9.41
463.703	9.32
463.906	9.33
464.109	9.28
464.311	9.34
464.514	9.23
464.717	9.28
464.92	9.4
465.122	9.47
465.325	9.51
465.528	9.4
465.73	9.35
465.933	9.35
466.135	9.36
466.338	9.24
466.541	9.27
466.743	9.34
466.946	9.31
467.148	9.28
467.351	9.27
467.553	9.21
467.756	9.15
467.958	9.07
468.161	9.12
468.363	9.12
468.566	9.15
468.768	9.12
468.971	9.1
469.173	9.13
469.375	9.15
469.578	9.11
469.78	9.05
469.983	9.18
470.185	9.18
470.387	9.15
470.59	9.11
470.792	9.14
470.994	9.2
471.196	9.21
471.399	9.18
471.601	9.19
471.803	9.18
472.005	9.18
472.208	9.21
472.41	9.29
472.612	9.3
472.814	9.35
473.016	9.43
473.218	9.41
473.421	9.4
473.623	9.4
473.825	9.38
474.027	9.42
474.229	9.45
474.431	9.34
474.633	9.24
474.835	9.28
475.037	9.36
475.239	9.27
475.441	9.22
475.643	9.16
475.845	9.09
476.047	9.1
476.249	9
476.451	9.1
476.653	9.1
476.855	9.14
477.057	9.08
477.258	9
477.46	9.04
477.662	9.05
477.864	9.09
478.066	9.2
478.268	9.21
478.469	9.26
478.671	9.17
478.873	9.22
479.075	9.17
479.276	9.09
479.478	9.13
479.68	9.08
479.882	9.04
480.083	9.01
480.285	8.87
480.487	8.89
480.688	8.84
480.89	8.81
481.091	8.77
481.293	8.73
481.495	8.7
481.696	8.59
481.898	8.53
482.099	8.47
482.301	8.44
482.502	8.43
482.704	8.38
482.905	8.37
483.107	8.32
483.308	8.31
483.51	8.29
483.711	8.27
483.913	8.3
484.114	8.32
484.315	8.33
484.517	8.32
484.718	8.3
484.92	8.31
485.121	8.28
485.322	8.3
485.524	8.27
485.725	8.28
485.926	8.29
486.127	8.27
486.329	8.25
486.53	8.22
486.731	8.22
486.932	8.21
487.134	8.21
487.335	8.23
487.536	8.19
487.737	8.19
487.938	8.23
488.139	8.27
488.341	8.32
488.542	8.36
488.743	8.38
488.944	8.41
489.145	8.46
489.346	8.49
489.547	8.48
489.748	8.51
489.949	8.54
490.15	8.49
490.351	8.45
490.552	8.39
490.753	8.37
490.954	8.39
491.155	8.41
491.356	8.41
491.557	8.4
491.758	8.49
491.959	8.51
492.159	8.54
492.36	8.62
492.561	8.65
492.762	8.71
492.963	8.75
493.164	8.78
493.364	8.78
493.565	8.8
493.766	8.87
493.967	8.82
494.167	8.92
494.368	8.98
494.569	8.98
494.769	9.08
494.97	9.11
495.171	9.19
495.371	9.24
495.572	9.27
495.773	9.24
495.973	9.22
496.174	9.27
496.375	9.27
496.575	9.27
496.776	9.35
496.976	9.29
497.177	9.28
497.377	9.2
497.578	9.2
497.778	9.25
497.979	9.3
498.179	9.38
498.38	9.37
498.58	9.39
498.78	9.34
498.981	9.37
499.181	9.39
499.382	9.48
499.582	9.58
499.782	9.56
499.983	9.58
500.183	9.77
500.383	9.69
500.584	9.76
500.784	9.78
500.984	9.9
501.184	9.85
501.385	9.9
501.585	9.88
501.785	9.88
501.985	10.03
502.185	10.08
502.386	9.99
502.586	10.04
502.786	9.97
502.986	10.03
503.186	10.02
503.386	10.09
503.586	10.17
503.786	10.2
503.987	10.21
504.187	10.11
504.387	10.16
504.587	10.1
504.787	10.13
504.987	10.19
505.187	10.14
505.387	10.2
505.587	10.18
505.786	10.2
505.986	10.27
506.186	10.33
506.386	10.5
506.586	10.46
506.786	10.53
506.986	10.61
507.186	10.61
507.386	10.65
507.585	10.68
507.785	10.65
507.985	10.65
508.185	10.64
508.384	10.65
508.584	10.58
508.784	10.53
508.984	10.64
509.183	10.67
509.383	10.68
509.583	10.8
509.782	10.8
509.982	10.86
510.182	10.84
510.381	10.82
510.581	10.86
510.781	10.92
510.98	11.04
511.18	11.03
511.379	11.09
511.579	11.22
511.778	11.13
511.978	11.14
512.177	11.26
512.377	11.29
512.576	11.39
512.776	11.38
512.975	11.48
513.175	11.54
513.374	11.58
513.573	11.55
513.773	11.56
513.972	11.71
514.172	11.78
514.371	11.87
514.57	11.98
514.77	11.99
514.969	12.06
515.168	12.03
515.367	12.09
515.567	12.1
515.766	12.2
515.965	12.29
516.164	12.23
516.364	12.2
516.563	12.09
516.762	12.1
516.961	12.12
517.16	12.13
517.359	12.18
517.559	12.17
517.758	12.17
517.957	12.18
518.156	12.14
518.355	12.19
518.554	12.19
518.753	12.23
518.952	12.25
519.151	12.3
519.35	12.3
519.549	12.36
519.748	12.34
519.947	12.4
520.146	12.51
520.345	12.6
520.544	12.69
520.743	12.8
520.942	12.84
521.141	12.86
521.339	12.99
521.538	13.08
521.737	13.03
521.936	13.11
522.135	13.24
522.333	13.15
522.532	13.22
522.731	13.25
522.93	13.31
523.129	13.33
523.327	13.41
523.526	13.3
523.725	13.31
523.923	13.32
524.122	13.34
524.321	13.3
524.519	13.36
524.718	13.33
524.917	13.28
525.115	13.32
525.314	13.37
525.512	13.43
525.711	13.49
525.909	13.52
526.108	13.51
526.306	13.55
526.505	13.56
526.703	13.58
526.902	13.58
527.1	13.58
527.299	13.58
527.497	13.56
527.696	13.54
527.894	13.56
528.092	13.59
528.291	13.65
528.489	13.67
528.688	13.7
528.886	13.74
529.084	13.77
529.283	13.81
529.481	13.88
529.679	13.96
529.877	14.03
530.076	14.1
530.274	14.13
530.472	14.23
530.67	14.32
530.869	14.41
531.067	14.43
531.265	14.57
531.463	14.57
531.661	14.57
531.859	14.57
532.057	14.64
532.255	14.66
532.454	14.72
532.652	14.65
532.85	14.62
533.048	14.63
533.246	14.69
533.444	14.73
533.642	14.84
533.84	14.91
534.038	15.02
534.236	15.08
534.434	15.12
534.632	15.18
534.83	15.34
535.027	15.44
535.225	15.41
535.423	15.48
535.621	15.49
535.819	15.5
536.017	15.55
536.215	15.52
536.412	15.56
536.61	15.56
536.808	15.58
537.006	15.62
537.203	15.67
537.401	15.84
537.599	15.94
537.797	16.02
537.994	16.13
538.192	16.25
538.39	16.3
538.587	16.35
538.785	16.49
538.983	16.54
539.18	16.55
539.378	16.65
539.575	16.66
539.773	16.69
539.97	16.66
540.168	16.68
540.366	16.63
540.563	16.7
540.761	16.73
540.958	16.77
541.155	16.8
541.353	16.83
541.55	16.85
541.748	16.88
541.945	16.89
542.143	17
542.34	17.09
542.537	17.2
542.735	17.26
542.932	17.32
543.129	17.39
543.327	17.5
543.524	17.64
543.721	17.76
543.919	17.93
544.116	18.07
544.313	18.18
544.51	18.3
544.708	18.42
544.905	18.56
545.102	18.67
545.299	18.75
545.496	18.87
545.693	18.89
545.891	19.01
546.088	19.08
546.285	19.13
546.482	19.16
546.679	19.19
546.876	19.27
547.073	19.32
547.27	19.37
547.467	19.5
547.664	19.54
547.861	19.67
548.058	19.74
548.255	19.8
548.452	19.93
548.649	19.98
548.846	20.14
549.043	20.17
549.24	20.26
549.437	20.41
549.633	20.51
549.83	20.56
550.027	20.6
550.224	20.62
550.421	20.61
550.618	20.55
550.814	20.56
551.011	20.53
551.208	20.72
551.405	20.78
551.601	20.87
551.798	20.84
551.995	20.88
552.191	21
552.388	21.03
552.585	21.16
552.781	21.29
552.978	21.46
553.175	21.56
553.371	21.54
553.568	21.57
553.764	21.59
553.961	21.82
554.157	21.93
554.354	22.06
554.55	22.13
554.747	22.22
554.943	22.32
555.14	22.36
555.336	22.43
555.533	22.56
555.729	22.68
555.926	22.78
556.122	22.82
556.318	22.97
556.515	23.01
556.711	23.17
556.907	23.28
557.104	23.38
557.3	23.53
557.496	23.56
557.693	23.57
557.889	23.73
558.085	23.84
558.281	23.87
558.478	24.02
558.674	24.08
558.87	24.28
559.066	24.36
559.262	24.6
559.459	24.64
559.655	24.81
559.851	24.93
560.047	24.93
560.243	25.03
560.439	25
560.635	25.06
560.831	25.09
561.027	25.09
561.223	25.1
561.419	24.99
561.615	25.11
561.811	25.22
562.007	25.42
562.203	25.65
562.399	25.73
562.595	25.85
562.791	26.09
562.987	26.22
563.183	26.22
563.379	26.33
563.575	26.45
563.771	26.51
563.966	26.51
564.162	26.51
564.358	26.52
564.554	26.53
564.75	26.61
564.945	26.44
565.141	26.56
565.337	26.76
565.533	26.88
565.728	27
565.924	27.05
566.12	27.22
566.315	27.29
566.511	27.38
566.707	27.46
566.902	27.55
567.098	27.74
567.293	27.84
567.489	27.82
567.684	27.86
567.88	27.87
568.076	27.98
568.271	28.04
568.467	28.07
568.662	27.98
568.858	28.18
569.053	28.38
569.248	28.46
569.444	28.57
569.639	28.68
569.835	28.79
570.03	28.96
570.225	29.08
570.421	29.12
570.616	29.1
570.812	29.39
571.007	29.32
571.202	29.32
571.397	29.44
571.593	29.38
571.788	29.46
571.983	29.58
572.178	29.64
572.374	29.7
572.569	29.82
572.764	30.02
572.959	30.08
573.154	30.19
573.35	30.33
573.545	30.34
573.74	30.5
573.935	30.57
574.13	30.55
574.325	30.64
574.52	30.7
574.715	30.75
574.91	30.9
575.105	30.9
575.3	31.06
575.495	31.07
575.69	31.23
575.885	31.39
576.08	31.57
576.275	31.77
576.47	31.84
576.665	32.07
576.86	32.05
577.055	32.06
577.25	32.24
577.444	32.32
577.639	32.53
577.834	32.59
578.029	32.71
578.224	32.86
578.418	32.94
578.613	33.03
578.808	33.06
579.003	33.34
579.197	33.46
579.392	33.37
579.587	33.42
579.781	33.47
579.976	33.51
580.171	33.49
580.365	33.51
580.56	33.54
580.755	33.61
580.949	33.52
581.144	33.56
581.338	33.64
581.533	33.81
581.727	34.01
581.922	33.91
582.116	34.05
582.311	34.23
582.505	34.06
582.7	34.17
582.894	34.21
583.089	34.44
583.283	34.49
583.478	34.46
583.672	34.58
583.866	34.52
584.061	34.82
584.255	34.66
584.449	34.69
584.644	34.93
584.838	35.08
585.032	35.26
585.226	35.2
585.421	35.42
585.615	35.64
585.809	35.55
586.003	35.53
586.198	35.52
586.392	35.56
586.586	35.48
586.78	35.6
586.974	35.52
587.168	35.35
587.363	35.38
587.557	35.24
587.751	35.06
587.945	35.06
588.139	35.18
588.333	35.07
588.527	35.29
588.721	35.37
588.915	35.15
589.109	35.12
589.303	35.1
589.497	35.11
589.691	35.13
589.885	35.28
590.079	35.45
590.273	35.4
590.466	35.47
590.66	35.47
590.854	35.44
591.048	35.67
591.242	35.7
591.436	35.87
591.629	35.95
591.823	36.09
592.017	36.19
592.211	36.1
592.404	36.21
592.598	36.14
592.792	36.15
592.986	36.3
593.179	36.22
593.373	36.19
593.567	36.17
593.76	35.97
593.954	35.88
594.147	35.75
594.341	35.83
594.535	35.79
594.728	35.81
594.922	35.61
595.115	35.48
595.309	35.41
595.502	35.4
595.696	35.32
595.889	35.27
596.083	35.25
596.276	35.25
596.47	35.19
596.663	35.22
596.856	35.32
597.05	35.49
597.243	35.51
597.437	35.61
597.63	35.85
597.823	35.94
598.017	36.12
598.21	36.2
598.403	36.41
598.596	36.69
598.79	36.82
598.983	36.83
599.176	36.87
599.369	36.85
599.563	36.81
599.756	36.76
599.949	36.87
600.142	36.99
600.335	37.11
600.528	36.9
600.722	36.77
600.915	36.67
601.108	36.5
601.301	36.42
601.494	36.54
601.687	36.54
601.88	36.37
602.073	36.27
602.266	36.14
602.459	36.02
602.652	35.87
602.845	35.86
603.038	35.78
603.231	35.95
603.424	35.98
603.617	35.98
603.809	36
604.002	36.05
604.195	35.96
604.388	36.06
604.581	36.13
604.774	36.31
604.966	36.21
605.159	36.26
605.352	36.21
605.545	36.23
605.737	36.18
605.93	36.33
606.123	36.42
606.316	36.76
606.508	36.82
606.701	36.8
606.894	36.93
607.086	37.16
607.279	37.34
607.471	37.47
607.664	37.63
607.857	37.89
608.049	38.07
608.242	38.31
608.434	38.57
608.627	39.04
608.819	39.66
609.012	40.26
609.204	41.04
609.397	41.99
609.589	42.78
609.782	43.71
609.974	44.61
610.166	45.53
610.359	46.46
610.551	47.39
610.743	48.24
610.936	48.88
611.128	49.46
611.32	49.67
611.513	49.68
611.705	49.83
611.897	49.67
612.09	49.53
612.282	49.08
612.474	48.66
612.666	48.27
612.858	47.85
613.051	47.39
613.243	46.87
613.435	46.45
613.627	45.99
613.819	45.47
614.011	45.36
614.203	44.93
614.395	44.64
614.588	44.27
614.78	43.75
614.972	43.21
615.164	42.83
615.356	42.48
615.548	42.22
615.74	41.99
615.932	41.81
616.124	41.36
616.315	41.17
616.507	41.14
616.699	40.85
616.891	40.69
617.083	40.64
617.275	40.33
617.467	40.14
617.659	39.91
617.85	39.62
618.042	39.45
618.234	39.23
618.426	39.07
618.618	38.8
618.809	38.76
619.001	38.56
619.193	38.45
619.384	38.63
619.576	38.84
619.768	38.94
619.959	39.17
620.151	39.32
620.343	39.31
620.534	39.27
620.726	39.12
620.917	39.28
621.109	39.6
621.301	39.62
621.492	39.56
621.684	39.38
621.875	39.32
622.067	39.41
622.258	39.42
622.45	39.72
622.641	39.68
622.832	40
623.024	39.91
623.215	39.45
623.407	39.36
623.598	39.6
623.789	39.6
623.981	39.43
624.172	39.23
624.363	39.2
624.555	38.97
624.746	39.07
624.937	39.03
625.129	38.87
625.32	38.95
625.511	39
625.702	38.71
625.893	38.73
626.085	38.71
626.276	38.75
626.467	38.6
626.658	38.52
626.849	38.42
627.04	38.41
627.231	38.61
627.422	38.74
627.614	38.66
627.805	38.74
627.996	38.72
628.187	38.86
628.378	38.9
628.569	39.07
628.76	39.3
628.951	39.48
629.142	39.55
629.332	39.56
629.523	39.72
629.714	39.97
629.905	40.18
630.096	40.28
630.287	40.35
630.478	40.4
630.669	40.53
630.859	40.47
631.05	40.39
631.241	40.39
631.432	40.19
631.623	39.94
631.813	39.69
632.004	39.46
632.195	39.18
632.385	39.08
632.576	39
632.767	38.68
632.957	38.57
633.148	38.39
633.339	38.26
633.529	38.22
633.72	38.31
633.91	38.33
634.101	38.27
634.292	38.45
634.482	38.52
634.673	38.53
634.863	38.67
635.054	38.68
635.244	38.78
635.435	38.88
635.625	38.88
635.815	38.74
636.006	38.74
636.196	38.82
636.387	38.76
636.577	38.67
636.767	38.55
636.958	38.41
637.148	38.52
637.338	38.48
637.529	38.33
637.719	38.46
637.909	38.46
638.099	38.42
638.29	38.32
638.48	38.65
638.67	38.77
638.86	38.69
639.05	38.85
639.241	38.88
639.431	38.96
639.621	39
639.811	39.09
640.001	39.2
640.191	39.21
640.381	39.08
640.571	38.77
640.761	38.74
640.951	38.94
641.141	39.08
641.331	39.06
641.521	38.97
641.711	39.03
641.901	38.99
642.091	38.92
642.281	39.02
642.471	39.12
642.661	39.14
642.851	39.14
643.041	39.18
643.231	39.02
643.42	38.8
643.61	39.04
643.8	38.94
643.99	38.94
644.18	39.05
644.369	39.13
644.559	39.12
644.749	39.3
644.939	39.19
645.128	38.94
645.318	38.93
645.508	39.06
645.697	38.87
645.887	39.15
646.076	39
646.266	39.03
646.456	38.87
646.645	38.84
646.835	38.6
647.024	38.73
647.214	38.89
647.403	39
647.593	38.99
647.782	39.12
647.972	38.89
648.161	39.05
648.351	38.96
648.54	38.99
648.73	39.06
648.919	39.2
649.108	39.23
649.298	39.42
649.487	39.42
649.677	39.5
649.866	39.52
650.055	39.64
650.244	39.68
650.434	39.76
650.623	39.72
650.812	39.8
651.002	39.79
651.191	39.89
651.38	39.77
651.569	39.84
651.758	39.72
651.947	39.78
652.137	39.82
652.326	39.72
652.515	39.53
652.704	39.39
652.893	39.16
653.082	39.3
653.271	39.13
653.46	39.03
653.649	38.99
653.838	39.11
654.027	39.05
654.216	38.98
654.405	38.92
654.594	38.97
654.783	39.19
654.972	39.38
655.161	39.23
655.35	39.23
655.539	39.16
655.728	39.3
655.916	39.36
656.105	39.24
656.294	39.17
656.483	39.14
656.672	39.23
656.86	39.21
657.049	39.09
657.238	38.97
657.427	38.86
657.615	38.95
657.804	38.61
657.993	38.26
658.181	38.23
658.37	38.2
658.559	38.24
658.747	38.17
658.936	38.15
659.125	38.3
659.313	38.49
659.502	38.48
659.69	38.59
659.879	38.74
660.067	39.17
660.256	39.27
660.444	39.3
660.633	39.36
660.821	39.43
661.01	39.5
661.198	39.48
661.387	39.53
661.575	39.68
661.763	39.59
661.952	39.78
662.14	39.64
662.328	39.59
662.517	39.62
662.705	39.72
662.893	39.98
663.082	40.01
663.27	40.04
663.458	40.02
663.646	40.28
663.834	40.28
664.023	40.11
664.211	40.11
664.399	40.27
664.587	40.3
664.775	40.33
664.963	40.19
665.152	40.16
665.34	40.14
665.528	39.97
665.716	39.88
665.904	39.97
666.092	40.08
666.28	39.93
666.468	39.94
666.656	40.04
666.844	40.03
667.032	40.11
667.22	40.16
667.408	40.41
667.596	40.37
667.784	40.24
667.971	40.17
668.159	40.12
668.347	40.42
668.535	40.24
668.723	40.34
668.911	40.39
669.098	40.44
669.286	40.51
669.474	40.31
669.662	40.34
669.849	40.29
670.037	40.32
670.225	40.35
670.413	40.2
670.6	40.33
670.788	40.21
670.976	40.08
671.163	40.04
671.351	40.06
671.538	40.13
671.726	40.08
671.913	40.32
672.101	40.35
672.289	40.44
672.476	40.36
672.664	40.53
672.851	40.55
673.039	40.71
673.226	40.84
673.413	40.58
673.601	40.35
673.788	40.72
673.976	40.65
674.163	40.6
674.35	40.61
674.538	40.8
674.725	40.81
674.912	40.88
675.1	40.72
675.287	40.33
675.474	40.52
675.662	40.88
675.849	40.67
676.036	40.8
676.223	40.95
676.411	40.7
676.598	40.84
676.785	40.59
676.972	40.56
677.159	40.59
677.346	40.86
677.533	40.63
677.721	40.42
677.908	40.27
678.095	39.82
678.282	39.74
678.469	39.74
678.656	39.5
678.843	39.61
679.03	39.44
679.217	39.29
679.404	39.11
679.591	39.29
679.778	39.17
679.964	39.43
680.151	39.54
680.338	39.39
680.525	39.44
680.712	39.49
680.899	39.68
681.086	39.94
681.272	40.1
681.459	40.03
681.646	40.15
681.833	40.36
682.02	40.24
682.206	40.42
682.393	40.42
682.58	40.47
682.766	40.46
682.953	40.13
683.14	39.95
683.326	40.08
683.513	40.44
683.7	40.44
683.886	40.45
684.073	40.38
684.259	40.47
684.446	40.68
684.632	40.82
684.819	40.59
685.005	40.78
685.192	40.91
685.378	40.81
685.565	40.57
685.751	40.36
685.938	40.46
686.124	40.68
686.31	40.68
686.497	40.68
686.683	40.46
686.87	40.57
687.056	40.45
687.242	40.53
687.429	40.61
687.615	40.55
687.801	40.77
687.987	40.67
688.174	40.61
688.36	40.68
688.546	40.73
688.732	40.8
688.918	40.68
689.105	40.79
689.291	40.55
689.477	40.55
689.663	40.61
689.849	40.34
690.035	40.53
690.221	40.51
690.407	40.35
690.593	40.32
690.779	40.25
690.965	40.56
691.151	40.58
691.337	40.73
691.523	40.83
691.709	41.11
691.895	41.27
692.081	41.31
692.267	41.45
692.453	41.46
692.639	41.49
692.825	41.73
693.011	41.65
693.196	41.45
693.382	41.35
693.568	41.29
693.754	41.4
693.94	41.48
694.125	41.24
694.311	41.2
694.497	41.22
694.682	41
694.868	40.81
695.054	40.72
695.239	41.02
695.425	41.27
695.611	41.26
695.796	40.93
695.982	40.54
696.168	40.5
696.353	40.28
696.539	40.35
696.724	40.62
696.91	40.52
697.095	40.63
697.281	40.52
697.466	40.17
697.652	40.06
697.837	39.67
698.023	39.84
698.208	39.74
698.393	39.5
698.579	39.32
698.764	38.86
698.949	38.76
699.135	38.69
699.32	38.56
699.505	38.6
699.691	38.55
699.876	38.62
700.061	38.64
700.246	38.76
700.432	38.95
700.617	39.02
700.802	39.45
700.987	39.87
701.172	39.79
701.358	40.14
701.543	40.35
701.728	40.72
701.913	41.07
702.098	41.26
702.283	41.23
702.468	41.59
702.653	42.02
702.838	42.09
703.023	41.79
703.208	42.22
703.393	41.99
703.578	42.18
703.763	42.27
703.948	42.69
704.133	42.54
704.318	42.7
704.503	42.87
704.688	43.15
704.873	43.17
705.057	43.78
705.242	44
705.427	44.41
705.612	44.53
705.797	44.72
705.981	44.69
706.166	44.95
706.351	45.53
706.536	45.49
706.72	45.25
706.905	45.64
707.09	45.54
707.274	45.36
707.459	45.48
707.644	45.78
707.828	45.59
708.013	46.04
708.197	46.06
708.382	45.73
708.567	45.78
708.751	45.77
708.936	45.59
709.12	45.77
709.305	45.59
709.489	45.13
709.673	44.75
709.858	44.72
710.042	44.45
710.227	44.72
710.411	44.46
710.596	44.35
710.78	44.18
710.964	44.39
711.149	43.89
711.333	44.18
711.517	44.26
711.702	44.36
711.886	44.09
712.07	43.62
712.254	43.45
712.438	43.53
712.623	43.34
712.807	42.99
712.991	43.1
713.175	43.17
713.359	42.82
713.544	42.84
713.728	42.58
713.912	42.37
714.096	42.39
714.28	41.67
714.464	41.53
714.648	41.5
714.832	41.67
715.016	40.96
715.2	41.01
715.384	40.98
715.568	40.64
715.752	40.32
715.936	40.37
716.12	40.59
716.304	40.85
716.488	41.02
716.671	40.9
716.855	41.02
717.039	40.97
717.223	40.83
717.407	40.39
717.59	40.72
717.774	40.87
717.958	40.81
718.142	40.56
718.325	40.41
718.509	40.31
718.693	40.38
718.877	40.39
719.06	40.47
719.244	40.36
719.428	40.84
719.611	40.51
719.795	40.49
719.978	40.74
720.162	40.69
720.345	40.96
720.529	41.09
720.713	41.08
720.896	40.5
721.08	41.14
721.263	41.42
721.446	41.59
721.63	41.99
721.813	41.96
721.997	42.38
722.18	42.9
722.364	42.99
722.547	42.51
722.73	42.66
722.914	43.11
723.097	42.63
723.28	42.57
723.464	42.29
723.647	42.2
723.83	41.88
724.013	41.52
724.197	41.08
724.38	40.81
724.563	40.82
724.746	40.71
724.929	40.57
725.112	40.5
725.296	40.14
725.479	40.41
725.662	40.62
725.845	40.58
726.028	40.89
726.211	41.13
726.394	41.03
726.577	41.28
726.76	41.77
726.943	41.31
727.126	40.68
727.309	40.83
727.492	40.68
727.675	40.39
727.858	40.48
728.041	40.05
728.224	39.83
728.407	39.83
728.589	39.66
728.772	39.13
728.955	39.66
729.138	39.97
729.321	39.81
729.503	39.71
729.686	39.56
729.869	39.96
730.052	40.09
730.234	40.19
730.417	40.62
730.6	40.68
730.782	40.94
730.965	40.94
731.148	41.4
731.33	41.73
731.513	41.77
731.695	41.9
731.878	41.85
732.061	42.06
732.243	42.05
732.426	41.91
732.608	42.12
732.791	41.84
732.973	41.58
733.156	41.58
733.338	41.33
733.52	41.44
733.703	41.38
733.885	41.35
734.068	41.29
734.25	41.66
734.432	41.85
734.615	41.67
734.797	41.73
734.979	42.07
735.162	42.17
735.344	42.52
735.526	42.83
735.708	43.48
735.891	43.9
736.073	44
736.255	43.94
736.437	43.54
736.619	43.61
736.802	44.03
736.984	43.88
737.166	44.03
737.348	44.12
737.53	44.29
737.712	43.99
737.894	43.78
738.076	43.53
738.258	43.33
738.44	43.87
738.622	43.62
738.804	43.74
738.986	43.57
739.168	43.74
739.35	43.71
739.532	43.57
739.714	43.54
739.896	43.52
740.078	43.29
740.259	43.14
740.441	42.98
740.623	43.24
740.805	43.15
740.987	43.14
741.168	42.92
741.35	42.72
741.532	42.5
741.714	42.59
741.895	42.83
742.077	43.55
742.259	44.46
742.44	44.32
742.622	44.34
742.804	44.22
742.985	44.8
743.167	44.53
743.348	44.83
743.53	45.13
743.711	45.15
743.893	45.04
744.075	44.75
744.256	44
744.438	43.99
744.619	44.47
744.8	44.54
744.982	44.2
745.163	45.12
745.345	45.38
745.526	45.44
745.707	45.23
745.889	45.34
746.07	46.01
746.252	45.54
746.433	45.61
746.614	45.51
746.795	45.34
746.977	45.49
747.158	44.98
747.339	45
747.52	45.07
747.702	45.12
747.883	44.87
748.064	44.08
748.245	44.6
748.426	44.74
748.607	44.93
748.788	44.94
748.97	44.81
749.151	44.68
749.332	44.9
749.513	44.85
749.694	44.55
749.875	44.74
750.056	45.21
750.237	45.13
750.418	45.58
750.599	45.39
750.78	45.78
750.96	46.62
751.141	46.51
751.322	46.3
751.503	46.2
751.684	46.87
751.865	47.28
752.046	46.69
752.226	46.69
752.407	46.42
752.588	46.64
752.769	46.42
752.949	45.8
753.13	45.96
753.311	45.36
753.492	45.48
753.672	45.86
753.853	45.6
754.034	45.97
754.214	46.15
754.395	45.78
754.575	45.56
754.756	45.32
754.937	45.91
755.117	45.66
755.298	45.92
755.478	46.15
755.659	46.08
755.839	46.48
756.02	46.68
756.2	46.36
756.381	46.16
756.561	45.98
756.741	46.15
756.922	46.12
757.102	46.48
757.283	46.19
757.463	46.07
757.643	45.58
757.823	45.21
758.004	44.7
758.184	44.97
758.364	45.28
758.545	44.8
758.725	44.21
758.905	43.06
759.085	42.52
759.265	43.01
759.446	42.02
759.626	41.62
759.806	41.25
759.986	41.24
760.166	40.94
760.346	40.59
760.526	40.28
760.706	40.9
760.886	41.23
761.066	40.96
761.246	40.05
761.426	39.91
761.606	39.91
761.786	39.67
761.966	39.44
762.146	39.03
762.326	38.61
762.506	38.82
762.686	38.57
762.866	38.33
763.046	38.09
763.225	38.2
763.405	38.44
763.585	38.52
763.765	38.8
763.945	38.59
764.124	38.43
764.304	38.5
764.484	38.66
764.664	38.67
764.843	38.89
765.023	39.43
765.203	39.76
765.382	40.2
765.562	40.49
765.741	40.76
765.921	41.24
766.101	41.69
766.28	42.4
766.46	42.81
766.639	43.39
766.819	44.21
766.998	44.15
767.178	43.88
767.357	43.75
767.537	43.41
767.716	43.69
767.896	44.1
768.075	44.65
768.254	44.58
768.434	44.72
768.613	44.66
768.792	44.26
768.972	44.78
769.151	45.03
769.33	45.07
769.51	44.62
769.689	44.05
769.868	43.95
770.047	44.48
770.226	44.51
770.406	44.1
770.585	44.23
770.764	44.56
770.943	44.39
771.122	44.88
771.301	45.07
771.48	46.66
771.66	47.17
771.839	47.21
772.018	47.06
772.197	47.49
772.376	48.25
772.555	48.15
772.734	47.8
772.913	48.17
773.092	47.98
773.271	47.73
773.449	46.91
773.628	46.97
773.807	47.31
773.986	47.17
774.165	47.81
774.344	47.56
774.523	47.72
774.701	48.1
774.88	48.78
775.059	49.87
775.238	49.96
775.417	50.43
775.595	50.13
775.774	49.86
775.953	50.24
776.131	50.04
776.31	50.12
776.489	49.9
776.667	49.82
776.846	49.29
777.025	48.59
777.203	48.54
777.382	49.04
777.56	48.7
777.739	48.89
777.917	47.99
778.096	47.9
778.274	47.91
778.453	47.9
778.631	48.66
778.81	48.12
778.988	47.26
779.166	47.77
779.345	47.3
779.523	47.76
779.702	48.27
779.88	49.03
780.058	48.73
780.237	48.74
780.415	48.99
780.593	48.73
780.771	49.27
780.95	49.92
781.128	49.73
781.306	49.89
781.484	50.38
781.662	49.73
781.841	49.9
782.019	50.15
782.197	49.32
782.375	49.75
782.553	49.4
782.731	49.6
782.909	49.72
783.087	49.97
783.265	49.62
783.443	49.24
783.621	49.24
783.799	48.56
783.977	48.36
784.155	49.3
784.333	48.48
784.511	47.89
784.689	46.94
784.867	47.47
785.045	48.09
785.223	47.02
785.4	47.24
785.578	46.74
785.756	47.08
785.934	46.67
786.112	46.77
786.289	47.44
786.467	47.53
786.645	48.32
786.823	47.4
787	46.34
787.178	47.09
787.356	46.51
787.533	47.12
787.711	46.68
787.889	47.38
788.066	46.85
788.244	45.72
788.421	44.98
788.599	44.32
788.776	45.13
788.954	46.04
789.131	45.77
789.309	45.46
789.486	45.37
789.664	45.88
789.841	45.54
790.019	46.33
790.196	46.88
790.373	47.53
790.551	48.43
790.728	47.54
790.906	46.82
791.083	48.13
791.26	48.64
791.437	48.87
791.615	48.54
791.792	49.17
791.969	48.55
792.146	49.15
792.324	49.74
792.501	49.04
792.678	49.56
792.855	50.26
793.032	49.38
793.209	49.28
793.387	48.91
793.564	48.62
793.741	48.08
793.918	48.66
794.095	48.27
794.272	48.28
794.449	48.29
794.626	48.55
794.803	48.3
794.98	48.9
795.157	49.45
795.334	50.22
795.511	50.36
795.688	49.99
795.864	48.81
796.041	48.78
796.218	47.84
796.395	48.1
796.572	47.45
796.749	46.7
796.925	46.27
797.102	46.33
797.279	45.48
797.456	45.21
797.632	45.52
797.809	46.14
797.986	46.21
798.162	47.34
798.339	46.43
798.516	47.06
798.692	47.86
798.869	47.96
799.046	47.8
799.222	48.56
799.399	49.32
799.575	49.51
799.752	48.68
799.928	48.68
800.105	48.74
800.281	49.28
800.458	48.68
800.634	48.45
800.811	48.17
800.987	48.59
801.163	48.11
801.34	48.21
801.516	47.58
801.692	48.81
801.869	48.79
802.045	49.79
802.221	49.76
802.398	50.72
802.574	49.99
802.75	50.89
802.926	51.1
803.103	51.65
803.279	51.47
803.455	52.2
803.631	52.53
803.807	52.98
803.983	51.33
804.16	52.7
804.336	51.75
804.512	52.13
804.688	51.06
804.864	49.53
805.04	48.48
805.216	47.74
805.392	47.29
805.568	47.04
805.744	47.09
805.92	47.57
806.096	46.84
806.272	47.74
806.448	48.45
806.623	49.27
806.799	49.82
806.975	50.21
807.151	50.6
807.327	51.44
807.503	51.36
807.678	51.06
807.854	50.78
808.03	51.42
808.206	50.88
808.381	50.32
808.557	49.86
808.733	50.64
808.908	50.3
809.084	50.49
809.26	49.57
809.435	49.85
809.611	50.32
809.787	50.15
809.962	48.07
810.138	48.48
810.313	48.99
810.489	49.17
810.664	48.85
810.84	49.36
811.015	49.47
811.191	50.73
811.366	49.73
811.542	49.94
811.717	49.41
811.892	50.79
812.068	50.69
812.243	50.14
812.419	50.36
812.594	50.1
812.769	49.36
812.944	49.3
813.12	47.92
813.295	47.4
813.47	46.25
813.645	46.59
813.821	46.43
813.996	46.31
814.171	46.99
814.346	46.74
814.521	46.4
814.697	47.28
814.872	47.12
815.047	48.13
815.222	48.3
815.397	48.48
815.572	48.99
815.747	48.2
815.922	48.38
816.097	49.27
816.272	48.25
816.447	48.2
816.622	47.43
816.797	47.26
816.972	46.31
817.147	46.32
817.322	45.91
817.496	45.23
817.671	45.47
817.846	45.08
818.021	43.49
818.196	43.98
818.371	44.48
818.545	45.15
818.72	45.08
818.895	44.97
819.069	44.65
819.244	45.62
819.419	44.83
819.594	44.59
819.768	44.37
819.943	43.33
820.117	43.06
820.292	41.94
820.467	40.6
820.641	39.5
820.816	38.35
820.99	37.52
821.165	35.94
821.339	35.4
821.514	34.49
821.688	33.67
821.863	33.33
822.037	32.62
822.212	32.01
822.386	31.97
822.56	31.62
822.735	31.63
822.909	31.74
823.084	31.83
823.258	32.06
823.432	32.24
823.606	32.49
823.781	32.66
823.955	32.98
824.129	33.27
824.303	33.21
824.478	33.73
824.652	33.89
824.826	33.8
825	34.22
825.174	34.47
825.348	34.48
825.523	34.4
825.697	34.94
825.871	35.25
826.045	35.88
826.219	35.99
826.393	36.14
826.567	36.2
826.741	36.29
826.915	35.79
827.089	35.38
827.263	35.58
827.437	35.56
827.611	35.46
827.784	35.47
827.958	35.09
828.132	35.56
828.306	35.67
828.48	35.89
828.654	36.62
828.827	37.39
829.001	37.63
829.175	38.49
829.349	39.46
829.522	40.1
829.696	40.87
829.87	42.41
830.044	42.66
830.217	43.32
830.391	43.45
830.565	43.15
830.738	43.49
830.912	44.3
831.085	44.43
831.259	44.87
831.432	45.2
831.606	44.67
831.779	43.64
831.953	43.17
832.126	42.21
832.3	41.88
832.473	41.52
832.647	40.78
832.82	40.8
832.994	39.84
833.167	39.28
833.34	38.57
833.514	38.22
833.687	38.18
833.86	38.21
834.034	37.71
834.207	37.82
834.38	38.13
834.553	38.29
834.727	38.2
834.9	38.08
835.073	38.01
835.246	38.47
835.419	38.99
835.593	39.51
835.766	39.84
835.939	41.14
836.112	42.13
836.285	42.82
836.458	43.08
836.631	43.96
836.804	45.8
836.977	47.75
837.15	48.59
837.323	49.36
837.496	49.61
837.669	50.67
837.842	51.03
838.015	51.33
838.188	51.92
838.361	53.69
838.533	52.25
838.706	50.97
838.879	49.62
839.052	47.69
839.225	47.88
839.398	47.49
839.57	47.04
839.743	45.93
839.916	45.98
840.088	45.55
840.261	45.98
840.434	47.03
840.607	48.07
840.779	48.73
840.952	50.01
841.124	50.66
841.297	51.01
841.47	52.01
841.642	53.6
841.815	54.89
841.987	55.28
842.16	55.28
842.332	54.92
842.505	56.36
842.677	56.28
842.85	56.41
843.022	55.61
843.194	57.61
843.367	57.79
843.539	57.67
843.712	55.9
843.884	56.98
844.056	55.23
844.229	57.87
844.401	56.74
844.573	57.68
844.745	57.61
844.918	58.95
845.09	58.43
845.262	58.05
845.434	60.36
845.606	64.26
845.779	64.85
845.951	66.73
846.123	64.67
846.295	64.9
846.467	64.93
846.639	66.3
846.811	65.97
846.983	64.74
847.155	66.38
847.327	65.26
847.499	60.85
847.671	62.31
847.843	63
848.015	64.39
848.187	64.64
848.359	65.29
848.531	64.89
848.703	64.64
848.875	66.85
849.047	65.14
849.218	65.07
849.39	66.56
849.562	64.02
849.734	63.75
849.905	64.1
850.077	64.94
850.249	66.38
850.421	67.49
850.592	67.07
850.764	65.23
850.936	66.25
851.107	66.57
851.279	67.1
851.451	66.35
851.622	64.9
851.794	61.72
851.965	62.53
852.137	61.55
852.308	59.11
852.48	60.7
852.651	62.35
852.823	59.97
852.994	58.96
853.166	57.9
853.337	58.62
853.509	58.67
853.68	61.14
853.851	59.42
854.023	58.92
854.194	58.2
854.365	57.54
854.537	57.27
854.708	57
854.879	58.73
855.05	60.54
855.222	61.15
855.393	61.24
855.564	62.7
855.735	63.25
855.906	62.36
856.078	65.43
856.249	61.61
856.42	61.63
856.591	63.62
856.762	62.16
856.933	61.92
857.104	61.71
857.275	61.97
857.446	61.43
857.617	60.36
857.788	61.98
857.959	60.88
858.13	63.2
858.301	63.57
858.472	64.27
858.643	63.24
858.814	63.07
858.985	62.8
859.155	64.06
859.326	64.75
859.497	65.55
859.668	66.16
859.839	66.95
860.009	68.26
860.18	67.85
860.351	66.58
860.522	69.16
860.692	67.57
860.863	67.21
861.034	67.95
861.204	69.03
861.375	70.16
861.546	70.7
861.716	70.95
861.887	70.12
862.057	71.05
862.228	72.92
862.398	70.67
862.569	73.33
862.739	73.23
862.91	72.16
863.08	70.52
863.251	69.84
863.421	67.29
863.592	65.41
863.762	65.04
863.932	65.51
864.103	64.55
864.273	65.77
864.443	63.87
864.614	61.32
864.784	61.24
864.954	60.88
865.125	60.48
865.295	61.16
865.465	62.14
865.635	61.94
865.805	61.67
865.976	60.83
866.146	61.18
866.316	62.58
866.486	64.86
866.656	65.14
866.826	64.95
866.996	63.51
867.166	61.58
867.336	62.03
867.506	62.78
867.676	62.61
867.846	63.19
868.016	63.4
868.186	62.62
868.356	63.38
868.526	62.69
868.696	62.05
868.866	64.4
869.036	65.21
869.206	63.35
869.376	63.3
869.545	62.48
869.715	64.45
869.885	63.48
870.055	64.56
870.224	62.97
870.394	63.51
870.564	63.57
870.734	63.18
870.903	62.87
871.073	64.16
871.243	63.6
871.412	63.52
871.582	63.66
871.751	62.36
871.921	61
872.091	63.6
872.26	63.72
872.43	63.34
872.599	62.99
872.769	64.87
872.938	65.71
873.108	65.74
873.277	65.31
873.446	63.38
873.616	66.05
873.785	69.05
873.955	67.2
874.124	66.92
874.293	67.23
874.463	65.73
874.632	63.33
874.801	60.65
874.971	62.7
875.14	61.26
875.309	62.63
875.478	62.03
875.647	58.94
875.817	59.19
875.986	59.15
876.155	60.6
876.324	61.75
876.493	63.53
876.662	62.52
876.831	60.46
877	62.35
877.17	59.12
877.339	59.2
877.508	60.07
877.677	59.76
877.846	59.86
878.015	58.54
878.184	55.9
878.352	55.63
878.521	58.38
878.69	58.37
878.859	55.68
879.028	55
879.197	53.84
879.366	50.84
879.534	50.15
879.703	47.97
879.872	47.16
880.041	47.08
880.21	44.75
880.378	43.16
880.547	41.38
880.716	40.29
880.884	40.19
881.053	38.83
881.222	38.77
881.39	37.6
881.559	37.3
881.727	35.54
881.896	35.38
882.065	35.33
882.233	34.5
882.402	34.37
882.57	34.76
882.739	34.52
882.907	34.36
883.076	34.12
883.244	34.58
883.412	33.84
883.581	35.04
883.749	35.33
883.918	35.41
884.086	36.26
884.254	37.04
884.423	36.79
884.591	37.4
884.759	38.23
884.927	38.87
885.096	38.52
885.264	40.58
885.432	40.84
885.6	40.84
885.769	42.38
885.937	43.26
886.105	42.49
886.273	43.8
886.441	45.56
886.609	45.99
886.777	47.62
886.945	48.86
887.113	49.15
887.281	49.14
887.449	50.98
887.617	51.11
887.785	51.98
887.953	53.34
888.121	55.25
888.289	52.11
888.457	53.94
888.625	53.62
888.793	54.77
888.961	54.48
889.129	55.7
889.296	54.63
889.464	54.41
889.632	53.53
889.8	54.19
889.967	53.4
890.135	56.43
