Data from 2938818__Reflection_03.txt Node
Date: Thu Mar 12 14:56:08 EDT 2015
User: robert
Spectrometer: USB4E03002
Autoset integration time: false
Trigger mode: 4
Integration Time (sec): 1.000000E-1
Scans to average: 10
Electric dark correction enabled: false
Nonlinearity correction enabled: false
Boxcar width: 5
Stray light correction enabled: false
XAxis mode: Wavelengths
Stop averaging: false
Number of Pixels in Spectrum: 3648
>>>>>Begin Spectral Data<<<<<
177.575	-808.76
177.794	-739.64
178.014	-424.1
178.233	-332.3
178.452	-280.4
178.672	-305.74
178.891	-248.49
179.11	-328.84
179.33	-334.98
179.549	-365.59
179.768	-455.82
179.987	-387.41
180.207	-481.42
180.426	-790.03
180.645	-1996.99
180.864	-2645.63
181.084	-6773.17
181.303	2241.94
181.522	24827.27
181.741	-7342.11
181.96	-1915.38
182.179	-4324.64
182.398	-11432
182.618	-8328.12
182.837	6545
183.056	2245.22
183.275	970.83
183.494	1215.52
183.713	1242.08
183.932	851.19
184.151	806.41
184.37	644.8
184.589	757.03
184.808	793.78
185.027	835.01
185.246	787.12
185.465	1129.56
185.684	1448.78
185.903	766.58
186.122	721.41
186.341	992.98
186.56	807
186.779	981.18
186.998	752.23
187.216	594.48
187.435	652.92
187.654	819.4
187.873	695.86
188.092	687.13
188.311	1025.82
188.53	826.32
188.748	673.51
188.967	1030
189.186	557.11
189.405	798.58
189.623	990.57
189.842	1003.66
190.061	1200
190.28	1116.11
190.498	893.1
190.717	719.37
190.936	1164.84
191.154	1105.24
191.373	503.47
191.592	713.93
191.81	521.6
192.029	606.21
192.248	674.01
192.466	565.21
192.685	697.01
192.904	670.24
193.122	992.03
193.341	979.05
193.559	1081.23
193.778	3000
193.996	-2321.24
194.215	-1501.72
194.433	-14776.47
194.652	1123.58
194.87	2847.13
195.089	1692.72
195.307	2430.28
195.526	2279.31
195.744	2136.09
195.963	2870.3
196.181	1634.52
196.399	1360.34
196.618	2812.84
196.836	5703.64
197.055	-2345.93
197.273	6518.75
197.491	5437.93
197.71	10050
197.928	7458.54
198.146	4665.57
198.365	1097.4
198.583	1149.2
198.801	844.01
199.019	1003.55
199.238	1178.2
199.456	714.25
199.674	1210.04
199.892	1488.6
200.111	1711.83
200.329	1453.96
200.547	1444.78
200.765	-136450
200.983	7084.21
201.202	-14227.78
201.42	17942.86
201.638	2355.66
201.856	20725
202.074	-16180
202.292	3776.47
202.51	5308.16
202.728	1473.12
202.946	1927.08
203.165	931.76
203.383	1075.71
203.601	823.24
203.819	590.57
204.037	862.39
204.255	1023.05
204.473	1178.1
204.691	2958.95
204.909	1975.18
205.127	2625
205.345	1847.22
205.562	-31900
205.78	2055.47
205.998	1086.15
206.216	931.45
206.434	555.98
206.652	448.4
206.87	428.72
207.088	361.6
207.306	322.55
207.523	328.91
207.741	307.62
207.959	300.19
208.177	298.1
208.395	366.59
208.612	400.13
208.83	472.3
209.048	577.47
209.266	394.69
209.483	419.08
209.701	459.51
209.919	420.08
210.136	442
210.354	463.93
210.572	461.34
210.79	413.14
211.007	395.15
211.225	374.64
211.442	356.08
211.66	410.6
211.878	367.39
212.095	342.02
212.313	302.97
212.53	301.73
212.748	284.21
212.966	332.11
213.183	334.34
213.401	302.41
213.618	312.78
213.836	305.23
214.053	346
214.271	339.88
214.488	422.82
214.705	482.85
214.923	464.98
215.14	523.87
215.358	541.03
215.575	529
215.793	742.66
216.01	583.16
216.227	769.48
216.445	594.16
216.662	531.8
216.879	432.58
217.097	506.6
217.314	516.54
217.531	428.73
217.749	472.16
217.966	410.6
218.183	374.08
218.4	391.83
218.618	314.44
218.835	294.79
219.052	255.7
219.269	246.6
219.487	227.52
219.704	220.05
219.921	218.17
220.138	184.47
220.355	201.97
220.572	188.7
220.79	176.93
221.007	178.63
221.224	178.35
221.441	180.99
221.658	178.69
221.875	164.23
222.092	147.28
222.309	145.49
222.526	153.43
222.743	134.13
222.96	130.62
223.177	131.17
223.394	122.74
223.611	123.63
223.828	126.75
224.045	122.55
224.262	126.08
224.479	131.26
224.696	124.11
224.913	110.31
225.13	109.96
225.347	104.35
225.564	95.68
225.781	88.76
225.997	82.94
226.214	71.41
226.431	60.1
226.648	53.68
226.865	44.35
227.082	37.14
227.298	34
227.515	28.8
227.732	26.65
227.949	25.39
228.165	23.15
228.382	20.26
228.599	19.82
228.816	19.62
229.032	18.54
229.249	17.56
229.466	17.08
229.682	17.07
229.899	17.38
230.116	17.62
230.332	17.62
230.549	19.82
230.765	21.01
230.982	22.38
231.199	22.83
231.415	25.06
231.632	27.1
231.848	28.19
232.065	29.26
232.281	30.49
232.498	30.35
232.714	30.68
232.931	29.91
233.147	28.21
233.364	26.8
233.58	28.02
233.797	28.08
234.013	28.42
234.23	28.66
234.446	27.38
234.662	28.27
234.879	28.93
235.095	29.99
235.312	29.41
235.528	30.97
235.744	31.62
235.961	32.34
236.177	31.15
236.393	32.51
236.61	34.02
236.826	34.36
237.042	32.59
237.258	33.4
237.475	33.37
237.691	34.21
237.907	34.67
238.123	34.55
238.339	33.63
238.556	33.91
238.772	32.91
238.988	31.35
239.204	31.51
239.42	31.48
239.636	30.11
239.853	28.48
240.069	26.34
240.285	24.33
240.501	23.28
240.717	21.71
240.933	20.34
241.149	19.24
241.365	18.19
241.581	16.77
241.797	16.02
242.013	15.11
242.229	14.01
242.445	13.72
242.661	13.48
242.877	12.67
243.093	12.38
243.309	12.71
243.525	11.56
243.741	12.29
243.957	13.45
244.173	13.88
244.388	14.69
244.604	15.62
244.82	15.49
245.036	15.16
245.252	15.39
245.468	14.55
245.683	13.24
245.899	12.92
246.115	11.6
246.331	10.93
246.547	9.98
246.762	9.27
246.978	8.81
247.194	8.7
247.409	8.42
247.625	8.45
247.841	8.77
248.057	9.11
248.272	9.47
248.488	9.81
248.703	9.63
248.919	10.44
249.135	10.79
249.35	11.38
249.566	12.06
249.782	13.07
249.997	13.31
250.213	13.84
250.428	13.65
250.644	13.88
250.859	13.83
251.075	13.42
251.29	13.48
251.506	13.34
251.721	12.85
251.937	12.87
252.152	12.8
252.368	13.01
252.583	12.28
252.798	12.93
253.014	12.59
253.229	13.25
253.445	14.61
253.66	14.78
253.875	15.95
254.091	17.43
254.306	18.35
254.521	19.56
254.737	19.97
254.952	20.17
255.167	19.7
255.383	20.67
255.598	20.75
255.813	19.41
256.028	19.55
256.244	18.99
256.459	17.78
256.674	16.37
256.889	15.56
257.104	14.77
257.32	14.55
257.535	13.67
257.75	12.75
257.965	12.22
258.18	11.32
258.395	9.91
258.61	9.1
258.826	8.15
259.041	7.39
259.256	6.95
259.471	6.73
259.686	6.69
259.901	6.35
260.116	6.1
260.331	5.79
260.546	6.08
260.761	6.29
260.976	6.25
261.191	6.78
261.406	7.51
261.621	7.71
261.836	8.1
262.05	8.52
262.265	9.46
262.48	10.05
262.695	10.01
262.91	10.28
263.125	10.77
263.34	11.38
263.555	11.3
263.769	11.49
263.984	11.66
264.199	11.38
264.414	11.35
264.629	10.95
264.843	10.79
265.058	11.19
265.273	10.73
265.488	10.92
265.702	10.52
265.917	10.24
266.132	10.41
266.346	10.5
266.561	10.42
266.776	10.52
266.99	10.33
267.205	10.42
267.42	10.83
267.634	11.26
267.849	10.42
268.063	10.44
268.278	10.81
268.492	10.49
268.707	10.59
268.922	10.91
269.136	10.49
269.351	10.75
269.565	10.6
269.78	9.94
269.994	9.46
270.209	9.49
270.423	9.39
270.637	9.03
270.852	8.76
271.066	8.55
271.281	8.04
271.495	7.85
271.709	7.47
271.924	7.22
272.138	7.27
272.353	7.49
272.567	7.68
272.781	7.94
272.996	8.26
273.21	8.6
273.424	8.65
273.638	9.15
273.853	9.19
274.067	9.38
274.281	9.79
274.495	10.26
274.71	10.19
274.924	10.04
275.138	9.29
275.352	9.01
275.566	8.74
275.781	9.16
275.995	8.88
276.209	9.15
276.423	9.27
276.637	9.04
276.851	8.82
277.065	8.79
277.279	8.96
277.493	9.45
277.707	9.82
277.921	9.7
278.135	9.32
278.349	9.43
278.563	9.74
278.777	9.88
278.991	10.12
279.205	9.96
279.419	10.1
279.633	9.94
279.847	10.28
280.061	9.92
280.275	10.01
280.489	9.9
280.703	9.68
280.917	9.49
281.131	8.84
281.344	8.56
281.558	8.48
281.772	7.91
281.986	7.65
282.2	7.01
282.414	7.09
282.627	6.78
282.841	7.2
283.055	7.19
283.269	6.81
283.482	7.12
283.696	7.04
283.91	7.09
284.123	7.11
284.337	6.95
284.551	6.99
284.764	6.83
284.978	7.14
285.192	6.65
285.405	6.52
285.619	6.44
285.833	6.35
286.046	6.16
286.26	5.79
286.473	5.64
286.687	5.62
286.9	5.96
287.114	6.22
287.327	6.2
287.541	6.09
287.754	6.52
287.968	6.61
288.181	6.49
288.395	6.67
288.608	6.98
288.822	7.32
289.035	7.82
289.248	7.69
289.462	7.42
289.675	7.04
289.889	6.93
290.102	6.33
290.315	6.46
290.529	6.37
290.742	6.69
290.955	6.87
291.169	6.89
291.382	6.84
291.595	6.76
291.808	6.97
292.022	7.47
292.235	7.85
292.448	8.21
292.661	8.1
292.875	8.44
293.088	8.43
293.301	8.38
293.514	8.71
293.727	8.98
293.94	8.76
294.153	8.76
294.367	8.33
294.58	8.34
294.793	8.16
295.006	8.08
295.219	8
295.432	7.65
295.645	7.31
295.858	7.25
296.071	6.87
296.284	7.08
296.497	6.76
296.71	6.47
296.923	6.47
297.136	6.53
297.349	6.72
297.562	6.75
297.775	6.76
297.988	6.87
298.201	6.66
298.414	7.04
298.626	6.89
298.839	7.39
299.052	8.15
299.265	8.05
299.478	7.95
299.691	8.22
299.903	8.46
300.116	8.79
300.329	8.99
300.542	9.12
300.755	8.95
300.967	9.36
301.18	9.15
301.393	9.11
301.605	9.13
301.818	9.39
302.031	9.44
302.243	9.33
302.456	9.38
302.669	9.46
302.881	9.41
303.094	9.52
303.307	9.46
303.519	9.31
303.732	8.84
303.944	9.12
304.157	9.22
304.37	8.98
304.582	9.14
304.795	9.04
305.007	9.6
305.22	9.99
305.432	9.83
305.645	10.01
305.857	9.87
306.069	10.66
306.282	10.53
306.494	10.81
306.707	10.79
306.919	10.8
307.132	10.83
307.344	10.26
307.556	9.63
307.769	9.52
307.981	9.25
308.193	9.27
308.406	8.75
308.618	9.21
308.83	8.97
309.043	8.91
309.255	8.59
309.467	8.64
309.679	8.63
309.892	8.76
310.104	8.94
310.316	9.03
310.528	9.46
310.74	9.55
310.953	9.21
311.165	9.13
311.377	9.03
311.589	9.31
311.801	9.53
312.013	9.4
312.225	9.81
312.437	9.89
312.649	9.89
312.862	9.84
313.074	9.68
313.286	9.62
313.498	9.78
313.71	9.96
313.922	10.1
314.134	9.71
314.346	9.87
314.558	9.58
314.77	9.71
314.982	9.98
315.193	9.88
315.405	10.13
315.617	10.22
315.829	10.05
316.041	10.21
316.253	10.14
316.465	10.09
316.677	10.23
316.888	10.44
317.1	10.47
317.312	10.17
317.524	9.92
317.736	10.32
317.947	10.81
318.159	11.31
318.371	11.7
318.583	11.73
318.794	12.22
319.006	12.23
319.218	12.42
319.43	12.19
319.641	12.47
319.853	12.68
320.064	12.4
320.276	12.23
320.488	11.87
320.699	11.46
320.911	11.35
321.123	11.65
321.334	12.07
321.546	11.91
321.757	11.75
321.969	11.48
322.18	11.66
322.392	11.32
322.603	11.34
322.815	11.39
323.026	11.5
323.238	11.5
323.449	11.26
323.661	10.89
323.872	10.83
324.083	11.09
324.295	10.98
324.506	10.64
324.718	10.91
324.929	10.6
325.14	10.68
325.352	10.62
325.563	10.55
325.774	10.4
325.986	10.6
326.197	10.41
326.408	10.41
326.62	10.52
326.831	10.57
327.042	10.65
327.253	10.61
327.464	10.59
327.676	10.65
327.887	11.07
328.098	11.08
328.309	10.9
328.52	11.21
328.732	11.17
328.943	11.37
329.154	11.87
329.365	11.87
329.576	11.79
329.787	12.32
329.998	12.4
330.209	12.33
330.42	12.59
330.631	13.07
330.842	12.97
331.053	13.13
331.264	13.14
331.475	12.86
331.686	12.61
331.897	12.79
332.108	12.44
332.319	12.5
332.53	12.31
332.741	11.88
332.952	11.63
333.163	11.63
333.374	11.56
333.585	11.5
333.795	11.63
334.006	11.85
334.217	12.06
334.428	12.32
334.639	12.24
334.849	12
335.06	12.17
335.271	12.06
335.482	11.97
335.692	12.04
335.903	12.25
336.114	11.94
336.325	12.15
336.535	12.22
336.746	11.9
336.957	11.96
337.167	12.05
337.378	12.05
337.589	12.37
337.799	12.31
338.01	12.4
338.22	12.04
338.431	12.6
338.642	12.19
338.852	12.07
339.063	12.19
339.273	12.45
339.484	12.44
339.694	12.7
339.905	12.27
340.115	12.4
340.326	12.32
340.536	12.61
340.746	12.3
340.957	12.36
341.167	12.48
341.378	12.31
341.588	12.12
341.799	12.13
342.009	11.73
342.219	11.91
342.43	11.6
342.64	11.29
342.85	10.89
343.061	10.65
343.271	10.71
343.481	10.62
343.691	10.64
343.902	10.59
344.112	10.67
344.322	10.75
344.532	10.29
344.743	10.5
344.953	10.55
345.163	10.58
345.373	10.48
345.583	10.49
345.793	10.18
346.004	10.42
346.214	10.25
346.424	10.3
346.634	10.46
346.844	11.14
347.054	10.92
347.264	11.1
347.474	11.24
347.684	11.52
347.894	11.27
348.104	11.57
348.314	11.34
348.524	11.25
348.734	11.15
348.944	10.8
349.154	10.58
349.364	10.84
349.574	10.5
349.784	10.73
349.994	10.6
350.204	10.7
350.413	10.44
350.623	10.36
350.833	10.25
351.043	10.06
351.253	10.4
351.463	10.28
351.672	10.15
351.882	10.17
352.092	9.88
352.302	9.94
352.511	9.81
352.721	10.16
352.931	10.11
353.141	10.02
353.35	10.07
353.56	9.92
353.77	9.68
353.979	9.37
354.189	9.46
354.399	9.33
354.608	9.1
354.818	9.09
355.027	9.08
355.237	9
355.447	9.17
355.656	9.14
355.866	8.87
356.075	8.9
356.285	9.42
356.494	9.16
356.704	9.22
356.913	9.45
357.123	9.42
357.332	9.26
357.542	9.43
357.751	9.42
357.96	9.27
358.17	9.07
358.379	9.26
358.589	9.06
358.798	9.08
359.007	8.85
359.217	8.72
359.426	8.62
359.635	8.37
359.845	8.01
360.054	7.81
360.263	7.88
360.472	8.02
360.682	7.75
360.891	7.72
361.1	7.48
361.309	7.56
361.519	7.5
361.728	7.48
361.937	7.77
362.146	7.91
362.355	7.89
362.564	7.85
362.774	7.9
362.983	7.88
363.192	7.81
363.401	8.03
363.61	8.18
363.819	8.18
364.028	8.34
364.237	7.95
364.446	7.84
364.655	7.86
364.864	8.11
365.073	8.24
365.282	8.28
365.491	8.25
365.7	8.47
365.909	8.46
366.118	8.59
366.327	8.54
366.536	8.67
366.745	8.72
366.954	8.94
367.162	8.8
367.371	8.82
367.58	9.13
367.789	9.06
367.998	8.91
368.207	9
368.415	9.04
368.624	9.15
368.833	9.29
369.042	9.32
369.25	9.37
369.459	9.25
369.668	9.03
369.877	9.03
370.085	9.18
370.294	9.25
370.503	8.77
370.711	8.61
370.92	8.37
371.129	8.42
371.337	8.3
371.546	7.99
371.754	8.08
371.963	8.07
372.171	7.76
372.38	7.49
372.589	7.58
372.797	7.87
373.006	7.87
373.214	8.13
373.423	8.05
373.631	8.51
373.84	8.68
374.048	8.5
374.256	8.36
374.465	8.37
374.673	8.52
374.882	8.56
375.09	8.31
375.298	8.34
375.507	8.04
375.715	7.99
375.923	7.57
376.132	7.57
376.34	7.66
376.548	7.74
376.757	7.73
376.965	7.62
377.173	7.42
377.381	7.39
377.59	7.24
377.798	7.43
378.006	7.26
378.214	7.51
378.423	7.37
378.631	7.29
378.839	7.26
379.047	7.42
379.255	7.56
379.463	7.74
379.671	7.78
379.879	7.83
380.088	7.8
380.296	7.83
380.504	7.8
380.712	7.92
380.92	8.09
381.128	8.21
381.336	7.81
381.544	7.68
381.752	7.58
381.96	7.52
382.168	7.65
382.376	7.7
382.584	7.72
382.791	7.67
382.999	7.68
383.207	7.43
383.415	7.3
383.623	7.47
383.831	7.6
384.039	7.65
384.247	7.69
384.454	7.62
384.662	7.48
384.87	7.51
385.078	7.33
385.285	7.06
385.493	7.13
385.701	7.15
385.909	7.06
386.116	6.96
386.324	6.81
386.532	6.71
386.739	6.87
386.947	6.82
387.155	6.77
387.362	6.92
387.57	6.98
387.778	6.93
387.985	7.07
388.193	7.32
388.4	7.32
388.608	7.6
388.816	7.79
389.023	7.57
389.231	7.52
389.438	7.5
389.646	7.47
389.853	7.7
390.061	7.47
390.268	7.32
390.475	7.11
390.683	7.11
390.89	6.75
391.098	6.75
391.305	6.71
391.512	6.81
391.72	6.89
391.927	6.75
392.135	6.46
392.342	6.56
392.549	6.58
392.756	6.57
392.964	6.57
393.171	6.75
393.378	6.63
393.586	6.51
393.793	6.27
394	6.3
394.207	6.21
394.414	6.32
394.622	6.4
394.829	6.37
395.036	6.2
395.243	6.26
395.45	6.06
395.657	6.15
395.864	6.39
396.072	6.64
396.279	6.53
396.486	6.7
396.693	6.85
396.9	6.67
397.107	6.47
397.314	6.58
397.521	6.57
397.728	6.64
397.935	6.58
398.142	6.48
398.349	6.52
398.556	6.37
398.763	6.3
398.97	6.41
399.177	6.67
399.383	6.83
399.59	6.63
399.797	6.49
400.004	6.62
400.211	6.64
400.418	6.6
400.625	6.42
400.831	6.56
401.038	6.56
401.245	6.3
401.452	6.23
401.658	6.12
401.865	6.43
402.072	6.54
402.279	6.4
402.485	6.41
402.692	6.44
402.899	6.58
403.105	6.52
403.312	6.52
403.519	6.5
403.725	6.47
403.932	6.51
404.138	6.53
404.345	6.37
404.552	6.27
404.758	6.45
404.965	6.27
405.171	6.13
405.378	6.16
405.584	6.22
405.791	6.24
405.997	6.13
406.204	6.05
406.41	6.07
406.617	6.25
406.823	6.3
407.029	6.18
407.236	6.36
407.442	6.54
407.649	6.67
407.855	6.49
408.061	6.49
408.268	6.58
408.474	6.76
408.68	6.64
408.887	6.52
409.093	6.62
409.299	6.4
409.505	6.19
409.712	6.2
409.918	6.02
410.124	6.17
410.33	6.3
410.537	6.26
410.743	6.25
410.949	6.25
411.155	6.33
411.361	6.14
411.567	6.18
411.773	6.25
411.98	6.01
412.186	6.04
412.392	5.9
412.598	5.74
412.804	5.77
413.01	5.65
413.216	5.66
413.422	5.43
413.628	5.51
413.834	5.61
414.04	5.72
414.246	5.89
414.452	5.95
414.658	5.86
414.864	5.85
415.07	6.02
415.275	6.08
415.481	6.01
415.687	6.02
415.893	5.95
416.099	5.81
416.305	5.75
416.511	5.57
416.716	5.4
416.922	5.29
417.128	5.32
417.334	5.12
417.539	4.96
417.745	4.9
417.951	4.85
418.157	4.83
418.362	4.77
418.568	4.78
418.774	4.74
418.979	4.72
419.185	4.78
419.391	4.63
419.596	4.64
419.802	4.61
420.008	4.6
420.213	4.73
420.419	4.73
420.624	4.73
420.83	4.6
421.035	4.64
421.241	4.68
421.446	4.64
421.652	4.69
421.857	4.68
422.063	4.72
422.268	4.76
422.474	4.57
422.679	4.59
422.885	4.57
423.09	4.58
423.295	4.53
423.501	4.52
423.706	4.49
423.911	4.47
424.117	4.39
424.322	4.45
424.527	4.47
424.733	4.57
424.938	4.52
425.143	4.52
425.349	4.66
425.554	4.65
425.759	4.7
425.964	4.76
426.169	4.79
426.375	4.89
426.58	4.89
426.785	4.98
426.99	5.05
427.195	5.12
427.4	5.22
427.605	5.09
427.811	5.11
428.016	4.97
428.221	5.08
428.426	5.23
428.631	5.25
428.836	5.27
429.041	5.15
429.246	5.19
429.451	5.11
429.656	5.06
429.861	5.15
430.066	5.3
430.271	5.42
430.476	5.37
430.681	5.23
430.886	5.26
431.09	5.25
431.295	5.14
431.5	5.13
431.705	5.18
431.91	5.05
432.115	5.04
432.32	4.96
432.524	4.98
432.729	4.96
432.934	4.94
433.139	4.92
433.343	4.93
433.548	4.97
433.753	4.94
433.958	5.08
434.162	5.4
434.367	5.52
434.572	5.71
434.776	5.81
434.981	5.89
435.186	6.06
435.39	6.16
435.595	6.2
435.799	6.21
436.004	6.14
436.209	6.03
436.413	5.87
436.618	5.73
436.822	5.54
437.027	5.43
437.231	5.39
437.436	5.16
437.64	5.02
437.845	4.92
438.049	4.89
438.253	4.82
438.458	4.78
438.662	4.64
438.867	4.64
439.071	4.59
439.275	4.55
439.48	4.48
439.684	4.47
439.888	4.52
440.093	4.48
440.297	4.52
440.501	4.58
440.706	4.61
440.91	4.71
441.114	4.65
441.318	4.63
441.523	4.66
441.727	4.77
441.931	4.84
442.135	4.83
442.339	4.86
442.543	4.83
442.748	4.79
442.952	4.75
443.156	4.77
443.36	4.77
443.564	4.83
443.768	4.69
443.972	4.52
444.176	4.52
444.38	4.49
444.584	4.47
444.788	4.48
444.992	4.59
445.196	4.56
445.4	4.45
445.604	4.45
445.808	4.46
446.012	4.48
446.216	4.4
446.42	4.37
446.624	4.28
446.828	4.3
447.032	4.29
447.235	4.25
447.439	4.27
447.643	4.36
447.847	4.34
448.051	4.33
448.254	4.37
448.458	4.51
448.662	4.56
448.866	4.67
449.069	4.64
449.273	4.68
449.477	4.69
449.681	4.75
449.884	4.67
450.088	4.74
450.292	4.7
450.495	4.64
450.699	4.81
450.902	4.7
451.106	4.77
451.31	4.79
451.513	4.91
451.717	4.83
451.92	4.87
452.124	4.94
452.327	5.05
452.531	5.06
452.734	5.09
452.938	4.89
453.141	4.94
453.345	4.91
453.548	4.9
453.752	4.81
453.955	4.92
454.158	4.77
454.362	4.84
454.565	4.71
454.769	4.78
454.972	4.9
455.175	5
455.379	5.09
455.582	5.07
455.785	5.11
455.988	5.09
456.192	5.03
456.395	5.03
456.598	5.04
456.801	5.11
457.005	5.02
457.208	4.98
457.411	4.97
457.614	4.8
457.817	4.86
458.021	4.79
458.224	4.8
458.427	4.77
458.63	4.82
458.833	4.67
459.036	4.57
459.239	4.58
459.442	4.56
459.645	4.46
459.848	4.47
460.051	4.43
460.254	4.46
460.457	4.36
460.66	4.34
460.863	4.32
461.066	4.39
461.269	4.48
461.472	4.55
461.675	4.56
461.878	4.52
462.081	4.68
462.284	4.73
462.486	4.71
462.689	4.81
462.892	4.76
463.095	4.76
463.298	4.76
463.5	4.81
463.703	4.79
463.906	4.86
464.109	4.96
464.311	4.99
464.514	4.99
464.717	5.18
464.92	5.17
465.122	5.3
465.325	5.33
465.528	5.43
465.73	5.36
465.933	5.26
466.135	5.18
466.338	5.19
466.541	5.15
466.743	5.12
466.946	4.98
467.148	5.04
467.351	5.07
467.553	5.05
467.756	4.99
467.958	4.99
468.161	4.99
468.363	5.06
468.566	5.11
468.768	5.13
468.971	5.13
469.173	5.02
469.375	5.01
469.578	4.96
469.78	5.03
469.983	5.11
470.185	5.18
470.387	5.29
470.59	5.23
470.792	5.19
470.994	5.19
471.196	5.16
471.399	5.35
471.601	5.4
471.803	5.36
472.005	5.36
472.208	5.33
472.41	5.25
472.612	5.26
472.814	5.12
473.016	5.11
473.218	5.05
473.421	5.12
473.623	5.05
473.825	4.96
474.027	5.12
474.229	5.12
474.431	4.96
474.633	5.04
474.835	4.93
475.037	5.06
475.239	5.09
475.441	5.12
475.643	5.04
475.845	4.96
476.047	5.02
476.249	4.78
476.451	4.7
476.653	4.74
476.855	4.73
477.057	4.75
477.258	4.71
477.46	4.68
477.662	4.63
477.864	4.64
478.066	4.69
478.268	4.64
478.469	4.75
478.671	4.7
478.873	4.77
479.075	4.67
479.276	4.63
479.478	4.61
479.68	4.62
479.882	4.65
480.083	4.63
480.285	4.64
480.487	4.58
480.688	4.54
480.89	4.57
481.091	4.47
481.293	4.49
481.495	4.49
481.696	4.5
481.898	4.4
482.099	4.28
482.301	4.09
482.502	4
482.704	3.92
482.905	3.88
483.107	3.83
483.308	3.81
483.51	3.77
483.711	3.72
483.913	3.7
484.114	3.68
484.315	3.7
484.517	3.75
484.718	3.79
484.92	3.8
485.121	3.77
485.322	3.75
485.524	3.77
485.725	3.78
485.926	3.82
486.127	3.81
486.329	3.84
486.53	3.85
486.731	3.88
486.932	3.88
487.134	3.94
487.335	3.98
487.536	4.02
487.737	4.01
487.938	4
488.139	4
488.341	4.03
488.542	4.06
488.743	4.04
488.944	4.07
489.145	4.09
489.346	4.06
489.547	4.11
489.748	4.11
489.949	4.13
490.15	4.19
490.351	4.18
490.552	4.19
490.753	4.13
490.954	4.14
491.155	4.08
491.356	4.04
491.557	4.03
491.758	4.03
491.959	4.06
492.159	4.1
492.36	4.12
492.561	4.11
492.762	4.13
492.963	4.24
493.164	4.29
493.364	4.41
493.565	4.54
493.766	4.65
493.967	4.65
494.167	4.66
494.368	4.69
494.569	4.75
494.769	4.84
494.97	4.85
495.171	4.88
495.371	4.91
495.572	4.88
495.773	4.84
495.973	4.8
496.174	4.92
496.375	4.94
496.575	4.9
496.776	4.86
496.976	4.82
497.177	4.81
497.377	4.77
497.578	4.74
497.778	4.82
497.979	4.84
498.179	4.88
498.38	4.79
498.58	4.86
498.78	4.89
498.981	4.84
499.181	4.93
499.382	4.99
499.582	4.96
499.782	5.02
499.983	5.01
500.183	5.08
500.383	5.13
500.584	5.19
500.784	5.1
500.984	5.2
501.184	5.36
501.385	5.36
501.585	5.34
501.785	5.44
501.985	5.54
502.185	5.54
502.386	5.55
502.586	5.61
502.786	5.67
502.986	5.71
503.186	5.66
503.386	5.63
503.586	5.61
503.786	5.65
503.987	5.67
504.187	5.63
504.387	5.61
504.587	5.65
504.787	5.64
504.987	5.68
505.187	5.81
505.387	5.88
505.587	5.89
505.786	5.91
505.986	5.97
506.186	6.01
506.386	6.04
506.586	6.1
506.786	6.02
506.986	6.02
507.186	5.95
507.386	5.99
507.585	5.94
507.785	5.98
507.985	5.95
508.185	5.9
508.384	5.87
508.584	5.88
508.784	5.87
508.984	5.86
509.183	5.86
509.383	5.91
509.583	5.89
509.782	5.96
509.982	5.88
510.182	5.93
510.381	5.9
510.581	5.98
510.781	6.03
510.98	6.08
511.18	6.13
511.379	6.16
511.579	6.14
511.778	6.12
511.978	6.13
512.177	6.3
512.377	6.4
512.576	6.47
512.776	6.39
512.975	6.45
513.175	6.52
513.374	6.51
513.573	6.55
513.773	6.62
513.972	6.7
514.172	6.74
514.371	6.77
514.57	6.72
514.77	6.81
514.969	6.95
515.168	6.99
515.367	6.88
515.567	6.97
515.766	6.99
515.965	7.09
516.164	7.13
516.364	7.2
516.563	7.1
516.762	7.07
516.961	7.08
517.16	7.05
517.359	6.99
517.559	7.03
517.758	7.02
517.957	7.01
518.156	7.01
518.355	7.03
518.554	7
518.753	7.01
518.952	7.07
519.151	7.11
519.35	7.11
519.549	7.16
519.748	7.32
519.947	7.38
520.146	7.44
520.345	7.45
520.544	7.5
520.743	7.58
520.942	7.64
521.141	7.83
521.339	7.79
521.538	7.92
521.737	7.93
521.936	7.95
522.135	8.06
522.333	8.16
522.532	8.13
522.731	8.23
522.93	8.18
523.129	8.31
523.327	8.2
523.526	8.31
523.725	8.34
523.923	8.32
524.122	8.31
524.321	8.26
524.519	8.18
524.718	8.25
524.917	8.18
525.115	8.24
525.314	8.21
525.512	8.25
525.711	8.27
525.909	8.24
526.108	8.26
526.306	8.25
526.505	8.25
526.703	8.24
526.902	8.2
527.1	8.15
527.299	8.12
527.497	8.07
527.696	8.05
527.894	8.03
528.092	8.01
528.291	7.99
528.489	7.98
528.688	7.97
528.886	7.98
529.084	7.98
529.283	8.02
529.481	8.07
529.679	8.12
529.877	8.17
530.076	8.23
530.274	8.35
530.472	8.42
530.67	8.46
530.869	8.47
531.067	8.58
531.265	8.65
531.463	8.73
531.661	8.77
531.859	8.83
532.057	8.78
532.255	8.77
532.454	8.68
532.652	8.68
532.85	8.75
533.048	8.79
533.246	8.87
533.444	8.91
533.642	8.91
533.84	8.93
534.038	8.95
534.236	9.02
534.434	9.07
534.632	9.14
534.83	9.24
535.027	9.28
535.225	9.37
535.423	9.33
535.621	9.41
535.819	9.47
536.017	9.55
536.215	9.63
536.412	9.72
536.61	9.81
536.808	9.9
537.006	10.01
537.203	10.13
537.401	10.28
537.599	10.46
537.797	10.62
537.994	10.74
538.192	10.9
538.39	11.09
538.587	11.3
538.785	11.56
538.983	11.75
539.18	11.9
539.378	12.06
539.575	12.23
539.773	12.3
539.97	12.33
540.168	12.45
540.366	12.52
540.563	12.54
540.761	12.62
540.958	12.66
541.155	12.71
541.353	12.75
541.55	12.82
541.748	12.86
541.945	12.96
542.143	13.08
542.34	13.22
542.537	13.34
542.735	13.49
542.932	13.6
543.129	13.82
543.327	14.16
543.524	14.58
543.721	15.04
543.919	15.55
544.116	16.12
544.313	16.74
544.51	17.33
544.708	18.01
544.905	18.64
545.102	19.3
545.299	19.78
545.496	20.05
545.693	20.17
545.891	20.11
546.088	20.06
546.285	19.84
546.482	19.51
546.679	19.21
546.876	18.79
547.073	18.46
547.27	18.03
547.467	17.71
547.664	17.47
547.861	17.25
548.058	17.15
548.255	16.92
548.452	16.85
548.649	16.77
548.846	16.81
549.043	16.72
549.24	16.59
549.437	16.48
549.633	16.34
549.83	16.21
550.027	16.03
550.224	15.75
550.421	15.61
550.618	15.41
550.814	15.26
551.011	15.01
551.208	14.98
551.405	14.84
551.601	14.69
551.798	14.56
551.995	14.52
552.191	14.54
552.388	14.51
552.585	14.42
552.781	14.33
552.978	14.27
553.175	14.17
553.371	14.05
553.568	14.05
553.764	14.13
553.961	14.12
554.157	14.01
554.354	13.95
554.55	13.91
554.747	13.99
554.943	14.03
555.14	14.11
555.336	14.13
555.533	14.11
555.729	14.2
555.926	14.15
556.122	14.06
556.318	14.03
556.515	13.96
556.711	14.03
556.907	13.98
557.104	14.02
557.3	13.85
557.496	13.91
557.693	13.95
557.889	13.83
558.085	13.89
558.281	14.07
558.478	14.25
558.674	14.42
558.87	14.4
559.066	14.38
559.262	14.3
559.459	14.36
559.655	14.39
559.851	14.46
560.047	14.5
560.243	14.6
560.439	14.65
560.635	14.4
560.831	14.3
561.027	14.38
561.223	14.41
561.419	14.44
561.615	14.54
561.811	14.54
562.007	14.53
562.203	14.61
562.399	14.53
562.595	14.52
562.791	14.66
562.987	14.79
563.183	14.68
563.379	14.74
563.575	14.73
563.771	14.77
563.966	14.7
564.162	14.81
564.358	14.73
564.554	14.56
564.75	14.49
564.945	14.49
565.141	14.35
565.337	14.41
565.533	14.34
565.728	14.28
565.924	14.2
566.12	14.22
566.315	14.18
566.511	14.31
566.707	14.38
566.902	14.37
567.098	14.38
567.293	14.4
567.489	14.44
567.684	14.48
567.88	14.59
568.076	14.7
568.271	14.76
568.467	14.74
568.662	14.74
568.858	14.93
569.053	14.98
569.248	15.02
569.444	15.03
569.639	15.01
569.835	14.95
570.03	14.98
570.225	14.87
570.421	14.82
570.616	14.75
570.812	14.64
571.007	14.36
571.202	14.3
571.397	14.25
571.593	14.27
571.788	14.3
571.983	14.4
572.178	14.43
572.374	14.52
572.569	14.47
572.764	14.56
572.959	14.55
573.154	14.76
573.35	14.78
573.545	14.87
573.74	14.94
573.935	14.88
574.13	14.9
574.325	15.01
574.52	15.05
574.715	15.26
574.91	15.3
575.105	15.56
575.3	15.69
575.495	15.93
575.69	16.25
575.885	16.45
576.08	16.73
576.275	17.07
576.47	17.28
576.665	17.57
576.86	17.85
577.055	18.12
577.25	18.34
577.444	18.71
577.639	19.03
577.834	19.18
578.029	19.62
578.224	19.84
578.418	19.95
578.613	20.27
578.808	20.47
579.003	20.58
579.197	20.79
579.392	20.74
579.587	20.58
579.781	20.46
579.976	20.33
580.171	19.98
580.365	19.91
580.56	19.84
580.755	19.68
580.949	19.45
581.144	19.4
581.338	19.3
581.533	19.35
581.727	19.49
581.922	19.51
582.116	19.63
582.311	19.79
582.505	19.9
582.7	19.9
582.894	19.91
583.089	20.1
583.283	20.03
583.478	20.09
583.672	20.28
583.866	20.31
584.061	20.4
584.255	20.54
584.449	20.54
584.644	20.6
584.838	20.85
585.032	20.97
585.226	21.11
585.421	21.4
585.615	21.57
585.809	21.68
586.003	21.84
586.198	22.06
586.392	22.06
586.586	22.16
586.78	22.06
586.974	22.06
587.168	21.95
587.363	21.8
587.557	21.51
587.751	21.29
587.945	20.87
588.139	20.52
588.333	19.95
588.527	19.81
588.721	19.54
588.915	19.45
589.109	19.15
589.303	19.08
589.497	19.09
589.691	19.1
589.885	18.96
590.079	19.19
590.273	19.39
590.466	19.65
590.66	19.74
590.854	19.98
591.048	20.11
591.242	20.33
591.436	20.55
591.629	20.64
591.823	20.96
592.017	21.15
592.211	21.15
592.404	21.21
592.598	21.2
592.792	21.06
592.986	21.03
593.179	20.99
593.373	20.79
593.567	20.63
593.76	20.48
593.954	20.26
594.147	20.14
594.341	19.93
594.535	19.63
594.728	19.53
594.922	19.32
595.115	19
595.309	18.88
595.502	18.79
595.696	18.57
595.889	18.28
596.083	18.02
596.276	17.93
596.47	17.96
596.663	17.95
596.856	17.94
597.05	18.07
597.243	18.12
597.437	18.26
597.63	18.43
597.823	18.59
598.017	18.89
598.21	19.28
598.403	19.68
598.596	19.78
598.79	19.92
598.983	20.18
599.176	20.32
599.369	20.62
599.563	20.66
599.756	20.54
599.949	20.51
600.142	20.45
600.335	20.39
600.528	20.02
600.722	19.94
600.915	19.87
601.108	19.69
601.301	19.62
601.494	19.37
601.687	19.13
601.88	19.19
602.073	19.03
602.266	18.83
602.459	18.58
602.652	18.43
602.845	18.3
603.038	18.26
603.231	18.06
603.424	17.77
603.617	17.53
603.809	17.41
604.002	17.24
604.195	17.33
604.388	17.37
604.581	17.32
604.774	17.42
604.966	17.55
605.159	17.58
605.352	17.72
605.545	18
605.737	18.4
605.93	18.65
606.123	19.1
606.316	19.47
606.508	19.81
606.701	20.36
606.894	20.53
607.086	20.84
607.279	21.24
607.471	21.62
607.664	22.05
607.857	22.55
608.049	23.27
608.242	24.02
608.434	24.92
608.627	26.34
608.819	27.79
609.012	29.81
609.204	31.81
609.397	34.1
609.589	36.57
609.782	39.14
609.974	41.88
610.166	44.56
610.359	47.2
610.551	49.82
610.743	51.83
610.936	53.53
611.128	54.84
611.32	55.63
611.513	55.92
611.705	55.77
611.897	55.5
612.09	54.41
612.282	53.34
612.474	52.03
612.666	50.34
612.858	49.07
613.051	47.76
613.243	46.34
613.435	45.31
613.627	44.18
613.819	43
614.011	42.04
614.203	41.2
614.395	40.2
614.588	38.96
614.78	37.86
614.972	36.48
615.164	35.43
615.356	34.45
615.548	33.29
615.74	32.43
615.932	31.62
616.124	30.35
616.315	29.6
616.507	28.65
616.699	27.96
616.891	27.3
617.083	26.73
617.275	26.17
617.467	25.69
617.659	25.45
617.85	24.95
618.042	24.75
618.234	24.6
618.426	24.28
618.618	24.31
618.809	24.29
619.001	24.12
619.193	24.23
619.384	24.11
619.576	24.08
619.768	23.9
619.959	24
620.151	24.18
620.343	24.32
620.534	24.41
620.726	24.15
620.917	24.15
621.109	24.38
621.301	24.31
621.492	24.45
621.684	24.49
621.875	24.52
622.067	24.36
622.258	24.12
622.45	24.14
622.641	24.09
622.832	24.27
623.024	24.38
623.215	24.21
623.407	24.3
623.598	24.4
623.789	24.4
623.981	24.29
624.172	24.37
624.363	24.28
624.555	24.23
624.746	24.15
624.937	23.89
625.129	23.62
625.32	23.49
625.511	23.43
625.702	23.02
625.893	22.86
626.085	22.97
626.276	23.04
626.467	23.01
626.658	22.89
626.849	22.86
627.04	22.9
627.231	22.95
627.422	23.04
627.614	22.95
627.805	23.26
627.996	23.49
628.187	23.63
628.378	23.7
628.569	24.08
628.76	24.37
628.951	24.68
629.142	25.25
629.332	25.69
629.523	25.94
629.714	26.49
629.905	26.87
630.096	27.16
630.287	27.33
630.478	27.53
630.669	27.42
630.859	27.48
631.05	27.24
631.241	26.78
631.432	26.33
631.623	26.15
631.813	25.47
632.004	24.73
632.195	23.98
632.385	23.43
632.576	22.93
632.767	22.63
632.957	22.07
633.148	21.88
633.339	21.73
633.529	21.57
633.72	21.42
633.91	21.21
634.101	21.22
634.292	21.39
634.482	21.31
634.673	21.15
634.863	20.95
635.054	21.18
635.244	21.1
635.435	21.06
635.625	20.94
635.815	20.79
636.006	20.8
636.196	20.72
636.387	20.53
636.577	20.44
636.767	20.52
636.958	20.62
637.148	20.31
637.338	20.24
637.529	20.13
637.719	20.27
637.909	20.43
638.099	20.59
638.29	20.43
638.48	20.53
638.67	20.75
638.86	20.68
639.05	20.73
639.241	21.15
639.431	21.32
639.621	21.55
639.811	21.55
640.001	21.49
640.191	21.4
640.381	21.68
640.571	21.66
640.761	21.68
640.951	21.78
641.141	21.75
641.331	21.39
641.521	21.29
641.711	21.49
641.901	21.64
642.091	21.64
642.281	21.81
642.471	21.93
642.661	21.96
642.851	21.93
643.041	21.93
643.231	22.02
643.42	22.2
643.61	22.23
643.8	22.01
643.99	21.95
644.18	22.01
644.369	21.97
644.559	22.06
644.749	22.02
644.939	22.17
645.128	22.22
645.318	22.29
645.508	22.02
645.697	22.04
645.887	22.11
646.076	22.13
646.266	22.11
646.456	22.22
646.645	22.17
646.835	22.02
647.024	21.81
647.214	21.78
647.403	21.86
647.593	22.27
647.782	22.48
647.972	22.45
648.161	22.47
648.351	22.51
648.54	22.87
648.73	22.75
648.919	23.1
649.108	23.14
649.298	23.25
649.487	23.24
649.677	23.28
649.866	23.26
650.055	23.44
650.244	23.42
650.434	23.53
650.623	23.16
650.812	23.19
651.002	22.99
651.191	23.08
651.38	23.07
651.569	23.27
651.758	22.98
651.947	22.91
652.137	22.85
652.326	22.67
652.515	22.6
652.704	22.62
652.893	22.61
653.082	22.66
653.271	22.86
653.46	22.77
653.649	22.57
653.838	22.76
654.027	22.86
654.216	22.52
654.405	22.75
654.594	22.57
654.783	22.64
654.972	22.7
655.161	22.63
655.35	22.33
655.539	22.55
655.728	22.38
655.916	22.26
656.105	21.99
656.294	22.35
656.483	22.3
656.672	22.4
656.86	22.15
657.049	21.91
657.238	21.88
657.427	21.71
657.615	21.29
657.804	21.2
657.993	20.9
658.181	20.87
658.37	20.44
658.559	20.11
658.747	20.1
658.936	20.02
659.125	20.1
659.313	20.19
659.502	20.32
659.69	20.42
659.879	20.48
660.067	20.91
660.256	20.83
660.444	20.99
660.633	21.41
660.821	21.51
661.01	21.74
661.198	21.87
661.387	22.01
661.575	22.3
661.763	22.39
661.952	22.71
662.14	22.77
662.328	23.31
662.517	23.55
662.705	23.49
662.893	23.52
663.082	23.7
663.27	23.79
663.458	23.67
663.646	23.58
663.834	23.77
664.023	23.6
664.211	23.44
664.399	23.14
664.587	23.16
664.775	23.2
664.963	23.2
665.152	23.1
665.34	22.92
665.528	22.94
665.716	22.81
665.904	22.74
666.092	22.75
666.28	22.62
666.468	22.64
666.656	22.69
666.844	22.62
667.032	22.62
667.22	22.52
667.408	22.63
667.596	22.75
667.784	22.7
667.971	22.69
668.159	22.45
668.347	22.42
668.535	22.46
668.723	21.97
668.911	22.06
669.098	22
669.286	22.02
669.474	22.14
669.662	22.12
669.849	22.15
670.037	22.15
670.225	22.27
670.413	22.71
670.6	22.76
670.788	23.08
670.976	22.96
671.163	22.96
671.351	22.82
671.538	22.84
671.726	22.79
671.913	22.75
672.101	22.5
672.289	22.73
672.476	22.4
672.664	22.33
672.851	22.63
673.039	22.7
673.226	22.67
673.413	22.8
673.601	22.79
673.788	22.53
673.976	22.53
674.163	22.77
674.35	22.79
674.538	22.88
674.725	23.1
674.912	23.26
675.1	23.41
675.287	23.41
675.474	23.41
675.662	23.42
675.849	23.69
676.036	23.69
676.223	23.86
676.411	23.9
676.598	23.86
676.785	23.64
676.972	23.43
677.159	23.43
677.346	23.53
677.533	23.59
677.721	23.38
677.908	23.24
678.095	23.03
678.282	22.79
678.469	22.6
678.656	22.45
678.843	22.31
679.03	22.21
679.217	22.1
679.404	22.04
679.591	21.97
679.778	22.13
679.964	22.01
680.151	22.24
680.338	22.14
680.525	21.93
680.712	21.73
680.899	21.75
681.086	21.69
681.272	21.85
681.459	21.71
681.646	21.81
681.833	21.71
682.02	21.99
682.206	22.05
682.393	22.39
682.58	22.62
682.766	22.98
682.953	23.07
683.14	23
683.326	23.05
683.513	23.6
683.7	23.65
683.886	23.52
684.073	23.67
684.259	23.6
684.446	23.51
684.632	23.8
684.819	23.89
685.005	24.03
685.192	24.56
685.378	24.41
685.565	24.37
685.751	24.75
685.938	24.89
686.124	24.79
686.31	24.82
686.497	25.19
686.683	25.02
686.87	24.81
687.056	24.69
687.242	24.32
687.429	24.4
687.615	24.55
687.801	24.15
687.987	24.34
688.174	24.41
688.36	24.39
688.546	24.08
688.732	24.34
688.918	24.66
689.105	24.77
689.291	24.85
689.477	24.98
689.663	24.48
689.849	24.48
690.035	24.29
690.221	24.55
690.407	24.71
690.593	24.78
690.779	24.44
690.965	24.3
691.151	24.25
691.337	24.43
691.523	24.21
691.709	24.71
691.895	24.95
692.081	25.24
692.267	25.15
692.453	25.34
692.639	25.17
692.825	25.46
693.011	25.53
693.196	25.68
693.382	25.51
693.568	25.32
693.754	25.12
693.94	24.95
694.125	25.01
694.311	25
694.497	24.92
694.682	25.08
694.868	25.03
695.054	25.05
695.239	25.19
695.425	25.19
695.611	25.26
695.796	25.09
695.982	24.87
696.168	24.55
696.353	24.27
696.539	23.86
696.724	23.33
696.91	22.91
697.095	22.62
697.281	22.19
697.466	21.86
697.652	21.83
697.837	21.64
698.023	21.66
698.208	21.67
698.393	21.48
698.579	21.39
698.764	21.43
698.949	21.53
699.135	21.62
699.32	21.56
699.505	21.64
699.691	21.7
699.876	21.62
700.061	21.75
700.246	21.85
700.432	22.15
700.617	22.3
700.802	22.78
700.987	23
701.172	22.98
701.358	23.37
701.543	23.85
701.728	24.34
701.913	25.02
702.098	25
702.283	25.25
702.468	25.43
702.653	25.78
702.838	25.85
703.023	26.21
703.208	26.9
703.393	27.16
703.578	27.68
703.763	27.72
703.948	27.86
704.133	28.51
704.318	28.86
704.503	29.47
704.688	30.16
704.873	30.74
705.057	31.18
705.242	31.7
705.427	32.24
705.612	32.42
705.797	32.67
705.981	33.21
706.166	33.47
706.351	33.74
706.536	34.05
706.72	34.17
706.905	34.5
707.09	34.26
707.274	34.37
707.459	34.28
707.644	34.11
707.828	34.38
708.013	34.45
708.197	34.28
708.382	34.17
708.567	33.97
708.751	33.51
708.936	32.68
709.12	32.82
709.305	32.53
709.489	32.71
709.673	32.7
709.858	32.35
710.042	32.2
710.227	31.91
710.411	31.84
710.596	31.67
710.78	31.93
710.964	32.59
711.149	32.25
711.333	31.85
711.517	31.52
711.702	31.5
711.886	31.2
712.07	30.91
712.254	31.2
712.438	30.89
712.623	30.57
712.807	30.57
712.991	29.82
713.175	29.81
713.359	29.66
713.544	29.31
713.728	28.81
713.912	28.27
714.096	27.69
714.28	27
714.464	26.53
714.648	26.42
714.832	25.41
715.016	25.33
715.2	24.87
715.384	24.3
715.568	23.8
715.752	23.42
715.936	23.43
716.12	23.58
716.304	23.63
716.488	23.48
716.671	22.78
716.855	23.32
717.039	23.29
717.223	23.14
717.407	23.43
717.59	23.8
717.774	23.79
717.958	24.35
718.142	24.13
718.325	24.35
718.509	24.74
718.693	25.33
718.877	25.41
719.06	25.6
719.244	26.11
719.428	26.39
719.611	26.65
719.795	27.29
719.978	26.97
720.162	27.2
720.345	26.95
720.529	27.23
720.713	27.75
720.896	27.83
721.08	27.81
721.263	27.88
721.446	27.94
721.63	28.18
721.813	28.17
721.997	28.63
722.18	28.52
722.364	28.49
722.547	28.14
722.73	27.81
722.914	27.25
723.097	27.46
723.28	27.13
723.464	27.17
723.647	26.58
723.83	26.44
724.013	26.08
724.197	26.73
724.38	27.2
724.563	27.07
724.746	26.99
724.929	27.82
725.112	27.83
725.296	28.21
725.479	27.79
725.662	27.69
725.845	27.81
726.028	27.93
726.211	27.51
726.394	27.11
726.577	26.96
726.76	27.01
726.943	26.69
727.126	26.45
727.309	26.1
727.492	26.13
727.675	26.11
727.858	25.77
728.041	25.81
728.224	25.83
728.407	25.76
728.589	25.83
728.772	25.44
728.955	25.57
729.138	25.38
729.321	25.28
729.503	25.63
729.686	25.94
729.869	25.83
730.052	25.55
730.234	25.87
730.417	25.87
730.6	25.87
730.782	26.05
730.965	26.05
731.148	26.18
731.33	26.4
731.513	26.51
731.695	26.49
731.878	26.67
732.061	26.56
732.243	26.21
732.426	26.54
732.608	26.92
732.791	26.99
732.973	26.68
733.156	26.59
733.338	26.4
733.52	26
733.703	26.13
733.885	26.37
734.068	26.84
734.25	27.09
734.432	26.75
734.615	26.56
734.797	26.83
734.979	27.07
735.162	27.43
735.344	28.01
735.526	28.18
735.708	28.87
735.891	29.03
736.073	29.11
736.255	29.11
736.437	29.36
736.619	29.69
736.802	29.59
736.984	30.14
737.166	30.16
737.348	30.75
737.53	31.12
737.712	30.64
737.894	30.87
738.076	30.78
738.258	31.11
738.44	31.02
738.622	31.26
738.804	31.28
738.986	30.45
739.168	31
739.35	30.8
739.532	30.45
739.714	30.67
739.896	30.22
740.078	30.17
740.259	29.69
740.441	29.71
740.623	29.24
740.805	29.61
740.987	30.35
741.168	30.14
741.35	29.97
741.532	30.49
741.714	30.05
741.895	30
742.077	30.44
742.259	30.56
742.44	30.96
742.622	31.14
742.804	31.08
742.985	30.56
743.167	30.07
743.348	30.68
743.53	30.6
743.711	31.28
743.893	32.17
744.075	32.61
744.256	33.06
744.438	33.07
744.619	33.58
744.8	33.6
744.982	33.8
745.163	34.17
745.345	33.44
745.526	34.48
745.707	34.66
745.889	34.37
746.07	34.14
746.252	34.09
746.433	34.3
746.614	34.42
746.795	34.8
746.977	35.51
747.158	35.68
747.339	35.58
747.52	35.01
747.702	34.23
747.883	34.12
748.064	33.77
748.245	33.46
748.426	33.08
748.607	32.72
748.788	32.5
748.97	32.11
749.151	32.22
749.332	32.48
749.513	31.75
749.694	32.2
749.875	32.87
750.056	32.77
750.237	33.19
750.418	33.35
750.599	33.13
750.78	32.87
750.96	32.66
751.141	32.23
751.322	31.82
751.503	31.89
751.684	31.66
751.865	31.39
752.046	31.3
752.226	31.98
752.407	32.03
752.588	32.6
752.769	32.84
752.949	33.04
753.13	33.26
753.311	33.68
753.492	34.28
753.672	34.93
753.853	34.97
754.034	36.18
754.214	35.18
754.395	36.1
754.575	36.11
754.756	36.04
754.937	36.17
755.117	36.3
755.298	36.15
755.478	36.37
755.659	35.21
755.839	34.7
756.02	33.79
756.2	34.39
756.381	33.64
756.561	33.77
756.741	33.88
756.922	33.62
757.102	33.4
757.283	33.26
757.463	32.83
757.643	33.29
757.823	33.56
758.004	33.34
758.184	32.64
758.364	32.92
758.545	32.02
758.725	32.02
758.905	32.09
759.085	31.67
759.265	31.02
759.446	30.18
759.626	29.66
759.806	28.31
759.986	28.31
760.166	28.27
760.346	27.38
760.526	27.17
760.706	26.08
760.886	25.49
761.066	25.67
761.246	25.82
761.426	26.35
761.606	26.31
761.786	26.91
761.966	26.32
762.146	26.15
762.326	25.72
762.506	25.7
762.686	25.82
762.866	25.8
763.046	25.25
763.225	25.32
763.405	25.06
763.585	24.61
763.765	24.16
763.945	23.99
764.124	24.05
764.304	24.37
764.484	24.56
764.664	24.93
764.843	24.97
765.023	25.15
765.203	25.11
765.382	25.25
765.562	26.4
765.741	26.95
765.921	27.87
766.101	28.28
766.28	28.62
766.46	29.34
766.639	29.72
766.819	30.59
766.998	31.09
767.178	31.36
767.357	31.44
767.537	31.92
767.716	32.77
767.896	32.6
768.075	32.6
768.254	33.14
768.434	33.27
768.613	33.88
768.792	34.47
768.972	34.56
769.151	35.6
769.33	36.43
769.51	36.61
769.689	35.37
769.868	36.45
770.047	37.76
770.226	37.91
770.406	37.55
770.585	36.82
770.764	35.92
770.943	36.31
771.122	36
771.301	35.91
771.48	35.01
771.66	36.38
771.839	36.21
772.018	35.48
772.197	35.13
772.376	36.22
772.555	36.73
772.734	37.38
772.913	37.12
773.092	37.35
773.271	37.48
773.449	37.82
773.628	37.88
773.807	38
773.986	37.87
774.165	38.85
774.344	38.25
774.523	38.58
774.701	39.24
774.88	39.8
775.059	39.78
775.238	39.7
775.417	40.46
775.595	41.45
775.774	41.06
775.953	41.07
776.131	41.33
776.31	41.96
776.489	41.05
776.667	40.7
776.846	41.06
777.025	41.03
777.203	40.75
777.382	40.35
777.56	39.34
777.739	38.67
777.917	39.1
778.096	38.56
778.274	37.84
778.453	38.32
778.631	38.18
778.81	37.83
778.988	38.13
779.166	38.13
779.345	38.32
779.523	38.5
779.702	38.88
779.88	38.65
780.058	37.86
780.237	38.1
780.415	38.35
780.593	38.52
780.771	39.04
780.95	39.63
781.128	39.96
781.306	38.42
781.484	38.05
781.662	38.42
781.841	38.5
782.019	39.46
782.197	39.66
782.375	39.49
782.553	38.93
782.731	38.48
782.909	38.09
783.087	39.08
783.265	40.42
783.443	41.45
783.621	41.4
783.799	41.25
783.977	40.94
784.155	41.21
784.333	40.69
784.511	40.76
784.689	41.83
784.867	41.52
785.045	40.9
785.223	40.87
785.4	40.9
785.578	41.19
785.756	40.31
785.934	40.43
786.112	39.84
786.289	39.94
786.467	40.14
786.645	38.81
786.823	38.08
787	37.53
787.178	37.51
787.356	36.68
787.533	37.29
787.711	38.75
787.889	38.38
788.066	38.32
788.244	38.07
788.421	37.69
788.599	38.26
788.776	38.6
788.954	38.07
789.131	37.71
789.309	38.29
789.486	37.93
789.664	37.7
789.841	38.22
790.019	38.04
790.196	38.52
790.373	39.12
790.551	39.85
790.728	39.62
790.906	40.33
791.083	40.45
791.26	39.82
791.437	39.67
791.615	38.86
791.792	38.96
791.969	39.3
792.146	39.46
792.324	39.88
792.501	39.03
792.678	40.42
792.855	41.34
793.032	41.86
793.209	42.84
793.387	42.96
793.564	43.21
793.741	43.45
793.918	44.69
794.095	45.1
794.272	44.55
794.449	44.49
794.626	44.87
794.803	43.44
794.98	43.52
795.157	42.46
795.334	42.34
795.511	42.87
795.688	41.53
795.864	40.49
796.041	40.94
796.218	40.94
796.395	40.83
796.572	39.91
796.749	40.3
796.925	39.44
797.102	40.54
797.279	39.96
797.456	40.46
797.632	40.37
797.809	40.87
797.986	40.5
798.162	40.74
798.339	40.15
798.516	39.88
798.692	40.45
798.869	40.91
799.046	41.02
799.222	41.58
799.399	41.3
799.575	42.22
799.752	41.72
799.928	40.65
800.105	40.46
800.281	41.12
800.458	41.75
800.634	42.1
800.811	42.23
800.987	41.01
801.163	42.33
801.34	42.8
801.516	42.56
801.692	44.28
801.869	44.95
802.045	44.56
802.221	45.17
802.398	45.11
802.574	44.16
802.75	44.42
802.926	45.85
803.103	44.13
803.279	44.57
803.455	44.64
803.631	43.49
803.807	44.63
803.983	44.72
804.16	44.25
804.336	43.89
804.512	44.8
804.688	46.59
804.864	45.74
805.04	46.47
805.216	45.86
805.392	47.36
805.568	47.64
805.744	47.86
805.92	48.84
806.096	49.32
806.272	51.39
806.448	52.08
806.623	49.9
806.799	49.87
806.975	49.76
807.151	49.43
807.327	48.38
807.503	48.65
807.678	46.51
807.854	45.8
808.03	45.16
808.206	43.75
808.381	42.42
808.557	43.12
808.733	44.01
808.908	44.18
809.084	45
809.26	44.47
809.435	43.63
809.611	44.56
809.787	45.45
809.962	46.72
810.138	46.98
810.313	47.86
810.489	48.79
810.664	48.14
810.84	48.61
811.015	48.77
811.191	49.75
811.366	49.69
811.542	50.46
811.717	50.75
811.892	51.24
812.068	51.13
812.243	50.99
812.419	49.83
812.594	50.65
812.769	49.41
812.944	49.17
813.12	49.42
813.295	50.57
813.47	50.03
813.645	50.57
813.821	49.81
813.996	49.36
814.171	49.23
814.346	48.9
814.521	47.45
814.697	48.88
814.872	48.3
815.047	48.25
815.222	47.69
815.397	46.26
815.572	45.83
815.747	44.93
815.922	45.07
816.097	45.2
816.272	46.14
816.447	46.29
816.622	46.56
816.797	45.8
816.972	46.03
817.147	44.96
817.322	46.33
817.496	44.05
817.671	43.98
817.846	42.97
818.021	42.42
818.196	42.56
818.371	43.12
818.545	42.03
818.72	41.79
818.895	39.34
819.069	38.79
819.244	37.65
819.419	38.31
819.594	37.48
819.768	37.36
819.943	36.36
820.117	34.2
820.292	31.62
820.467	29.62
820.641	27.6
820.816	26.86
820.99	25.23
821.165	23.81
821.339	22.69
821.514	21.8
821.688	20.75
821.863	20
822.037	19.28
822.212	19.16
822.386	18.83
822.56	18.64
822.735	18.44
822.909	18.26
823.084	18.31
823.258	18.06
823.432	18.07
823.606	18.29
823.781	18.7
823.955	19.11
824.129	19.11
824.303	19.43
824.478	19.72
824.652	20.3
824.826	21.05
825	21.52
825.174	22.3
825.348	22.7
825.523	22.98
825.697	22.9
825.871	23.41
826.045	23.79
826.219	23.66
826.393	23.75
826.567	23.86
826.741	23.6
826.915	23.6
827.089	23.46
827.263	23.32
827.437	23.17
827.611	23.2
827.784	22.98
827.958	23.04
828.132	23.64
828.306	24.44
828.48	24.51
828.654	25.42
828.827	25.7
829.001	26.05
829.175	26.42
829.349	27.46
829.522	28.54
829.696	29.9
829.87	30.99
830.044	32.06
830.217	32.9
830.391	33.99
830.565	33.8
830.738	35.25
830.912	35.05
831.085	36
831.259	35.8
831.432	36.43
831.606	36.35
831.779	35.54
831.953	35.5
832.126	33.8
832.3	33.18
832.473	32.79
832.647	31.22
832.82	31.62
832.994	32.08
833.167	31.6
833.34	29.67
833.514	28.88
833.687	28.36
833.86	27.06
834.034	26.72
834.207	26.48
834.38	26.71
834.553	27.54
834.727	27.22
834.9	27.33
835.073	27.78
835.246	28.24
835.419	28.7
835.593	30
835.766	30.43
835.939	30.85
836.112	31.71
836.285	32.54
836.458	33.33
836.631	34.99
836.804	34.73
836.977	36.21
837.15	37.76
837.323	37.94
837.496	39.16
837.669	41.01
837.842	43.67
838.015	43.95
838.188	45.54
838.361	45.16
838.533	47.07
838.706	48.72
838.879	48.19
839.052	48.71
839.225	50.24
839.398	48.59
839.57	48.52
839.743	47.35
839.916	47.54
840.088	46.18
840.261	47.06
840.434	45.35
840.607	44.85
840.779	45.2
840.952	45.42
841.124	45.46
841.297	47.42
841.47	49.52
841.642	50.54
841.815	50.15
841.987	51.46
842.16	53.14
842.332	54.94
842.505	56.52
842.677	59.85
842.85	63.13
843.022	65.95
843.194	65.87
843.367	67.05
843.539	68.58
843.712	73.18
843.884	76.09
844.056	76.91
844.229	76.8
844.401	81.28
844.573	77.83
844.745	75.71
844.918	75.49
845.09	78.65
845.262	78.2
845.434	78.98
845.606	77.11
845.779	77.29
845.951	76.28
846.123	79.84
846.295	79.79
846.467	80.04
846.639	84.37
846.811	85.12
846.983	85.36
847.155	82.92
847.327	80.59
847.499	80.75
847.671	81.6
847.843	84.71
848.015	82.91
848.187	80.88
848.359	81.15
848.531	79.75
848.703	81.58
848.875	79.23
849.047	85.89
849.218	88.16
849.39	93.15
849.562	92.19
849.734	92.7
849.905	91.08
850.077	93.13
850.249	90.47
850.421	88.29
850.592	84.33
850.764	85.44
850.936	85.37
851.107	89.01
851.279	88.55
851.451	92.16
851.622	87.49
851.794	92.74
851.965	93.72
852.137	102.07
852.308	104.36
852.48	107.28
852.651	110.71
852.823	110.57
852.994	108.12
853.166	102.52
853.337	99.27
853.509	105.27
853.68	100.27
853.851	98.15
854.023	94.17
854.194	95.2
854.365	93
854.537	96.86
854.708	100.31
854.879	99.57
855.05	100.68
855.222	101
855.393	99.19
855.564	101.58
855.735	99.77
855.906	101.41
856.078	98.4
856.249	99.35
856.42	92.19
856.591	88.29
856.762	94.05
856.933	95.73
857.104	94.68
857.275	95.64
857.446	96.31
857.617	100.92
857.788	102.62
857.959	102.23
858.13	107.21
858.301	112.07
858.472	113.12
858.643	105.7
858.814	110.9
858.985	112.32
859.155	110.21
859.326	113.59
859.497	114.69
859.668	114.09
859.839	114.65
860.009	111.45
860.18	109.88
860.351	107.08
860.522	112.15
860.692	105.94
860.863	107.59
861.034	108.99
861.204	106.75
861.375	101.43
861.546	100.69
861.716	105.03
861.887	106.62
862.057	104.8
862.228	105.44
862.398	105.65
862.569	107.55
862.739	104.84
862.91	108.93
863.08	108.68
863.251	109.93
863.421	107.71
863.592	105.31
863.762	107.34
863.932	106.92
864.103	105.8
864.273	100.64
864.443	100.88
864.614	102.29
864.784	100.91
864.954	102.43
865.125	104.05
865.295	107.62
865.465	108.34
865.635	107.31
865.805	109.46
865.976	114.78
866.146	117.64
866.316	116.22
866.486	114.9
866.656	116.99
866.826	113.88
866.996	115.36
867.166	117.94
867.336	120.41
867.506	121.17
867.676	121.51
867.846	118.75
868.016	122.16
868.186	128.86
868.356	127.47
868.526	126.01
868.696	120.71
868.866	115.53
869.036	109.24
869.206	107.43
869.376	103.31
869.545	106.04
869.715	103.2
869.885	106.72
870.055	106.37
870.224	108.78
870.394	104.87
870.564	111.46
870.734	114.37
870.903	113.49
871.073	114.21
871.243	115.43
871.412	107.38
871.582	109.35
871.751	103.76
871.921	100.95
872.091	100.66
872.26	104.92
872.43	103.46
872.599	102.51
872.769	105.89
872.938	107.41
873.108	106.93
873.277	113.45
873.446	117.62
873.616	114.8
873.785	110.81
873.955	112.58
874.124	113.42
874.293	111.01
874.463	111.2
874.632	108.96
874.801	106.49
874.971	103.46
875.14	98.71
875.309	95.63
875.478	100.87
875.647	102.75
875.817	97.84
875.986	99.66
876.155	101.75
876.324	104.54
876.493	107.99
876.662	99.59
876.831	104.74
877	108.99
877.17	104.39
877.339	103.53
877.508	102.68
877.677	99.39
877.846	91.44
878.015	90.31
878.184	85.31
878.352	84.73
878.521	91.03
878.69	84.72
878.859	80.52
879.028	78.55
879.197	71.96
879.366	71.12
879.534	70.41
879.703	67.46
879.872	61.31
880.041	57.39
880.21	51.48
880.378	46.2
880.547	43.57
880.716	40.02
880.884	36.68
881.053	34.33
881.222	32.16
881.39	29.76
881.559	28.84
881.727	27.76
881.896	26.55
882.065	26.25
882.233	26.26
882.402	25.9
882.57	25.52
882.739	25.56
882.907	26.06
883.076	25.62
883.244	26.23
883.412	26.62
883.581	26.4
883.749	26.91
883.918	27.08
884.086	26.9
884.254	27.51
884.423	28.6
884.591	30.03
884.759	31.36
884.927	34.1
885.096	34.76
885.264	35.74
885.432	39.6
885.6	42.75
885.769	46.73
885.937	51.68
886.105	55.34
886.273	59.28
886.441	62.3
886.609	63.94
886.777	66.17
886.945	70.85
887.113	76.46
887.281	79.11
887.449	81.95
887.617	82.04
887.785	78.95
887.953	81.2
888.121	80.37
888.289	84.4
888.457	84.95
888.625	85.98
888.793	85.11
888.961	84.7
889.129	85.21
889.296	86.64
889.464	87.67
889.632	90.64
889.8	88.92
889.967	89.18
890.135	89.52
