Data from 2938842__Reflection_03.txt Node
Date: Wed Mar 11 15:26:39 EDT 2015
User: robert
Spectrometer: USB4E03002
Autoset integration time: false
Trigger mode: 4
Integration Time (sec): 1.000000E-1
Scans to average: 10
Electric dark correction enabled: false
Nonlinearity correction enabled: false
Boxcar width: 5
Stray light correction enabled: false
XAxis mode: Wavelengths
Stop averaging: false
Number of Pixels in Spectrum: 3648
>>>>>Begin Spectral Data<<<<<
177.575	195.56
177.794	38.67
178.014	85.92
178.233	156.62
178.452	301.61
178.672	460.94
178.891	505.77
179.11	-1742.86
179.33	-39.77
179.549	-40.73
179.768	-148.34
179.987	-240.66
180.207	-334.62
180.426	-178.08
180.645	-182.68
180.864	-80.43
181.084	38.21
181.303	35.65
181.522	41.01
181.741	-67.5
181.96	232.43
182.179	-68.09
182.398	-396
182.618	176.19
182.837	167.33
183.056	123.81
183.275	-57.41
183.494	15.81
183.713	16.42
183.932	22.33
184.151	60.9
184.37	-3600
184.589	-32.5
184.808	1.6
185.027	-74.64
185.246	-139
185.465	-76
185.684	-79.1
185.903	28.72
186.122	79.47
186.341	78.14
186.56	49
186.779	159.2
186.998	170.09
187.216	162.81
187.435	190.18
187.654	207.05
187.873	154.97
188.092	108.06
188.311	114.11
188.53	90.67
188.748	83.54
188.967	250
189.186	-31.39
189.405	67.07
189.623	52.43
189.842	61.14
190.061	284.62
190.28	133.57
190.498	51.45
190.717	-3.5
190.936	11.73
191.154	30.23
191.373	45.3
191.592	-56.79
191.81	114.29
192.029	52.76
192.248	98.66
192.466	118.89
192.685	87.88
192.904	61.35
193.122	51.49
193.341	24.88
193.559	39.53
193.778	43.82
193.996	45.73
194.215	45.11
194.433	55.07
194.652	8.62
194.87	13.66
195.089	-91.6
195.307	-1658.33
195.526	-91.27
195.744	-319.57
195.963	536.84
196.181	-35.29
196.399	-125.2
196.618	-73.61
196.836	-33.62
197.055	19.46
197.273	18.1
197.491	43.13
197.71	55.04
197.928	44
198.146	60.14
198.365	54.01
198.583	45.15
198.801	91.03
199.019	112.5
199.238	-40.34
199.456	-24.44
199.674	-266.04
199.892	66.2
200.111	67.45
200.329	75.73
200.547	56.56
200.765	49.54
200.983	48.5
201.202	46.37
201.42	50.87
201.638	58.07
201.856	30.4
202.074	-7.31
202.292	37.07
202.51	34.82
202.728	60.22
202.946	160.14
203.165	151.24
203.383	129.71
203.601	173.94
203.819	56.49
204.037	42.22
204.255	102.11
204.473	89.55
204.691	65
204.909	28.57
205.127	26.12
205.345	26.19
205.562	32.73
205.78	36.04
205.998	28.62
206.216	60.31
206.434	52.45
206.652	56.2
206.87	60.7
207.088	52.45
207.306	82.52
207.523	132.84
207.741	244.16
207.959	-591.53
208.177	-140.61
208.395	-79.04
208.612	-17.11
208.83	-52.7
209.048	-56.34
209.266	-20.08
209.483	-34.7
209.701	-160
209.919	60
210.136	145.03
210.354	-928.57
210.572	-456.76
210.79	-197.41
211.007	-77.54
211.225	-5.04
211.442	4.74
211.66	35.51
211.878	37.31
212.095	435.68
212.313	348.55
212.53	341.55
212.748	291.24
212.966	204.04
213.183	164.45
213.401	126.5
213.618	131.58
213.836	154.35
214.053	122.89
214.271	104.75
214.488	-34.52
214.705	-22.81
214.923	11.82
215.14	18.67
215.358	13.55
215.575	14.49
215.793	18.87
216.01	23.59
216.227	7.23
216.445	-11.96
216.662	2.14
216.879	18.76
217.097	22.21
217.314	18.24
217.531	29.17
217.749	37.97
217.966	26.98
218.183	28.73
218.4	22.4
218.618	25.27
218.835	27.04
219.052	20.5
219.269	17.7
219.487	25.3
219.704	16.71
219.921	-0.66
220.138	-0.9
220.355	-2.08
220.572	-5.68
220.79	-3.44
221.007	-4.01
221.224	0.52
221.441	-5.31
221.658	-2.45
221.875	-12.54
222.092	-4.12
222.309	-0.54
222.526	-5.06
222.743	-4.08
222.96	-5.94
223.177	-0.91
223.394	0.7
223.611	-7.45
223.828	1.65
224.045	0.28
224.262	8.66
224.479	4.96
224.696	12.13
224.913	10.48
225.13	7.24
225.347	8.49
225.564	0.97
225.781	-1.85
225.997	3.97
226.214	2
226.431	-0.16
226.648	-3.01
226.865	0.62
227.082	-0.11
227.298	1.61
227.515	3.13
227.732	3.29
227.949	4.28
228.165	4.73
228.382	3.79
228.599	4.97
228.816	5.84
229.032	5.65
229.249	4.18
229.466	4.62
229.682	4
229.899	3.85
230.116	3.27
230.332	3.54
230.549	3.44
230.765	3.61
230.982	1.25
231.199	-0.06
231.415	0.14
231.632	0.13
231.848	-2.6
232.065	-3.95
232.281	-3.62
232.498	-3.91
232.714	-4.52
232.931	-4.31
233.147	-4.47
233.364	-3.99
233.58	-3.89
233.797	-3.95
234.013	-2.22
234.23	-0.6
234.446	-0.26
234.662	-1.36
234.879	-1.11
235.095	-0.14
235.312	0.01
235.528	1.25
235.744	2.57
235.961	2.45
236.177	3.5
236.393	3.44
236.61	2.87
236.826	4.76
237.042	4.86
237.258	5.02
237.475	4.19
237.691	3.66
237.907	1.9
238.123	2.32
238.339	2.92
238.556	2.32
238.772	3.61
238.988	5.13
239.204	4.47
239.42	4.77
239.636	4.53
239.853	4.62
240.069	4.3
240.285	5.05
240.501	3.92
240.717	4.76
240.933	4.62
241.149	3.39
241.365	3.39
241.581	3.76
241.797	4.02
242.013	4.81
242.229	4.72
242.445	5.21
242.661	4.88
242.877	5.8
243.093	5.01
243.309	4.86
243.525	4.85
243.741	4.79
243.957	4.86
244.173	5.16
244.388	5.1
244.604	5.09
244.82	4.8
245.036	4.76
245.252	4.75
245.468	5.29
245.683	5.39
245.899	6.12
246.115	5.45
246.331	5.61
246.547	5.7
246.762	5.57
246.978	5.62
247.194	5.13
247.409	5.27
247.625	4.99
247.841	5
248.057	5.11
248.272	4.96
248.488	5.22
248.703	4.89
248.919	4.54
249.135	4.12
249.35	4.01
249.566	4.5
249.782	4.32
249.997	4.35
250.213	3.98
250.428	3.6
250.644	3.22
250.859	3.19
251.075	2.65
251.29	2.19
251.506	2.59
251.721	2.86
251.937	2.52
252.152	2.39
252.368	2.01
252.583	2.26
252.798	2.29
253.014	2.13
253.229	1.62
253.445	2.46
253.66	3.11
253.875	2.77
254.091	2.96
254.306	2.99
254.521	2.56
254.737	2.71
254.952	2.8
255.167	2.5
255.383	3.42
255.598	3.11
255.813	2.65
256.028	2.24
256.244	2.56
256.459	2.29
256.674	2.74
256.889	2.73
257.104	2.15
257.32	2.08
257.535	2.5
257.75	1.83
257.965	2.78
258.18	3.42
258.395	3.89
258.61	4.09
258.826	3.93
259.041	4.21
259.256	4.53
259.471	4.85
259.686	4.92
259.901	4.39
260.116	4.49
260.331	4.31
260.546	4.1
260.761	3.77
260.976	3.26
261.191	3.24
261.406	2.83
261.621	2.83
261.836	2.61
262.05	2.51
262.265	3.05
262.48	2.95
262.695	2.97
262.91	2.73
263.125	3.05
263.34	3.48
263.555	3.01
263.769	3.31
263.984	2.92
264.199	2.68
264.414	2.48
264.629	2.56
264.843	2.44
265.058	2.73
265.273	2.84
265.488	2.63
265.702	2.52
265.917	3.46
266.132	3.29
266.346	3.22
266.561	3.61
266.776	3.58
266.99	3.46
267.205	3.56
267.42	3.37
267.634	2.91
267.849	2.83
268.063	2.94
268.278	2.57
268.492	2.27
268.707	2.2
268.922	2.2
269.136	2.07
269.351	2.23
269.565	2.09
269.78	1.97
269.994	2.24
270.209	2.57
270.423	2.3
270.637	2.05
270.852	2.24
271.066	2.28
271.281	2.17
271.495	2.22
271.709	2.21
271.924	2.28
272.138	2.36
272.353	2.48
272.567	2.43
272.781	2.69
272.996	2.92
273.21	2.76
273.424	2.34
273.638	1.91
273.853	1.95
274.067	1.67
274.281	1.84
274.495	1.65
274.71	1.2
274.924	1.1
275.138	0.8
275.352	1.1
275.566	1.39
275.781	2.21
275.995	3.16
276.209	3.05
276.423	3.15
276.637	3.07
276.851	3.1
277.065	3.49
277.279	3.07
277.493	3.35
277.707	2.98
277.921	3
278.135	2.36
278.349	1.98
278.563	2.08
278.777	1.93
278.991	1.91
279.205	2.01
279.419	1.71
279.633	1.78
279.847	1.97
280.061	2.03
280.275	1.78
280.489	2.43
280.703	2.32
280.917	2.34
281.131	2.61
281.344	2.73
281.558	2.94
281.772	3.4
281.986	3.58
282.2	3.78
282.414	3.55
282.627	3.79
282.841	3.56
283.055	3.81
283.269	3.74
283.482	3.7
283.696	3.68
283.91	3.66
284.123	3.43
284.337	3.25
284.551	2.91
284.764	3.21
284.978	3
285.192	3.06
285.405	2.85
285.619	2.9
285.833	2.85
286.046	2.91
286.26	2.98
286.473	2.82
286.687	2.96
286.9	3.14
287.114	3.11
287.327	3.36
287.541	3.01
287.754	3.2
287.968	3.26
288.181	3.14
288.395	2.99
288.608	2.77
288.822	2.85
289.035	2.9
289.248	2.92
289.462	3.05
289.675	2.97
289.889	3.33
290.102	3.32
290.315	3.23
290.529	3.55
290.742	3.54
290.955	3.86
291.169	4.1
291.382	4.37
291.595	4.54
291.808	4.27
292.022	4.29
292.235	4.41
292.448	4.41
292.661	4.73
292.875	5
293.088	5.23
293.301	5.38
293.514	5.26
293.727	4.78
293.94	4.82
294.153	4.93
294.367	5.15
294.58	4.95
294.793	4.63
295.006	4.45
295.219	4.19
295.432	4.14
295.645	3.74
295.858	3.93
296.071	4.21
296.284	4.17
296.497	4.18
296.71	4.24
296.923	4.34
297.136	4.56
297.349	4.52
297.562	4.61
297.775	4.57
297.988	4.95
298.201	5.08
298.414	5.24
298.626	5.1
298.839	5.31
299.052	5.12
299.265	5.12
299.478	5.3
299.691	5.31
299.903	5.39
300.116	5.73
300.329	5.64
300.542	5.56
300.755	5.66
300.967	5.96
301.18	5.97
301.393	6.23
301.605	6.25
301.818	6
302.031	5.72
302.243	5.48
302.456	5.02
302.669	5
302.881	5.16
303.094	4.46
303.307	4.56
303.519	4.62
303.732	4.7
303.944	5.11
304.157	5.73
304.37	6.12
304.582	6.21
304.795	6.65
305.007	6.36
305.22	6.13
305.432	6.61
305.645	6.63
305.857	6.76
306.069	6.95
306.282	6.81
306.494	6.28
306.707	6.68
306.919	6.94
307.132	7.05
307.344	7.49
307.556	7.83
307.769	7.89
307.981	7.64
308.193	7.27
308.406	7.33
308.618	7.26
308.83	7.67
309.043	7.48
309.255	7.51
309.467	7.52
309.679	7.41
309.892	7.26
310.104	7.43
310.316	7.61
310.528	8
310.74	7.97
310.953	7.98
311.165	7.63
311.377	7.74
311.589	7.62
311.801	7.45
312.013	7.41
312.225	7.57
312.437	7.37
312.649	7.27
312.862	7.12
313.074	7
313.286	7.16
313.498	7.46
313.71	7.56
313.922	7.59
314.134	7.8
314.346	7.98
314.558	7.33
314.77	7.71
314.982	7.96
315.193	8.07
315.405	7.43
315.617	7.3
315.829	7.18
316.041	6.91
316.253	7.14
316.465	7.2
316.677	7.14
316.888	7.4
317.1	7.19
317.312	6.85
317.524	6.64
317.736	7.1
317.947	7.17
318.159	7.56
318.371	7.79
318.583	7.73
318.794	7.56
319.006	7.39
319.218	7.8
319.43	7.87
319.641	8.08
319.853	8.35
320.064	8.68
320.276	8.67
320.488	8.48
320.699	8.32
320.911	8.35
321.123	8.36
321.334	8.4
321.546	8.56
321.757	8.43
321.969	8.74
322.18	8.51
322.392	8.41
322.603	8.58
322.815	8.77
323.026	9.07
323.238	8.93
323.449	9.42
323.661	9.45
323.872	9.21
324.083	9.07
324.295	8.74
324.506	8.99
324.718	8.8
324.929	8.96
325.14	8.9
325.352	8.74
325.563	8.89
325.774	8.65
325.986	9.01
326.197	9.22
326.408	9.54
326.62	9.82
326.831	10.08
327.042	10.51
327.253	10.58
327.464	10.81
327.676	10.83
327.887	11
328.098	11.4
328.309	11.17
328.52	11.52
328.732	11.56
328.943	11.65
329.154	11.56
329.365	11.39
329.576	11.37
329.787	11.03
329.998	11.07
330.209	11.02
330.42	10.9
330.631	11.21
330.842	10.82
331.053	10.99
331.264	11.23
331.475	11.24
331.686	11.6
331.897	11.47
332.108	11.6
332.319	12.16
332.53	12.45
332.741	12.39
332.952	12.27
333.163	12.68
333.374	12.42
333.585	12.1
333.795	12
334.006	12.01
334.217	11.85
334.428	12.14
334.639	11.8
334.849	11.5
335.06	11.32
335.271	11.53
335.482	11.33
335.692	11.23
335.903	11.39
336.114	11.43
336.325	11.41
336.535	11.4
336.746	11.4
336.957	11.33
337.167	11.31
337.378	11.36
337.589	11.38
337.799	11.33
338.01	11.38
338.22	11.35
338.431	11.17
338.642	11.03
338.852	11.13
339.063	10.6
339.273	10.58
339.484	10.51
339.694	10.4
339.905	10.02
340.115	9.93
340.326	10.34
340.536	10.46
340.746	10.58
340.957	10.77
341.167	11.02
341.378	11.38
341.588	11.54
341.799	11.62
342.009	11.75
342.219	11.92
342.43	11.89
342.64	11.51
342.85	11.42
343.061	11.4
343.271	11.2
343.481	10.97
343.691	10.91
343.902	10.84
344.112	10.7
344.322	10.44
344.532	10.47
344.743	10.42
344.953	10.76
345.163	10.53
345.373	10.47
345.583	10.51
345.793	10.57
346.004	10.61
346.214	10.63
346.424	10.56
346.634	10.68
346.844	10.91
347.054	11.21
347.264	10.85
347.474	10.97
347.684	11.12
347.894	10.81
348.104	11.07
348.314	11.26
348.524	11.32
348.734	11.55
348.944	11.59
349.154	11.44
349.364	11.44
349.574	11.27
349.784	11.29
349.994	10.87
350.204	11.04
350.413	10.78
350.623	10.65
350.833	10.15
351.043	10.02
351.253	9.78
351.463	9.86
351.672	9.87
351.882	9.93
352.092	10.01
352.302	10.22
352.511	10.3
352.721	10.14
352.931	9.98
353.141	10.25
353.35	10.33
353.56	10.51
353.77	10.15
353.979	9.85
354.189	9.93
354.399	9.83
354.608	9.8
354.818	9.62
355.027	9.56
355.237	9.54
355.447	9.51
355.656	9.25
355.866	9.33
356.075	9.55
356.285	9.71
356.494	9.74
356.704	9.85
356.913	9.84
357.123	9.8
357.332	10.08
357.542	10.02
357.751	10.17
357.96	10.27
358.17	10.09
358.379	9.99
358.589	9.79
358.798	9.82
359.007	9.71
359.217	9.8
359.426	9.85
359.635	9.83
359.845	9.93
360.054	9.89
360.263	9.73
360.472	9.66
360.682	9.67
360.891	9.79
361.1	9.79
361.309	9.79
361.519	9.74
361.728	9.71
361.937	9.71
362.146	9.61
362.355	9.48
362.564	9.73
362.774	10.04
362.983	10.02
363.192	9.96
363.401	9.75
363.61	9.86
363.819	9.83
364.028	9.84
364.237	9.74
364.446	9.77
364.655	9.75
364.864	9.59
365.073	9.14
365.282	9.11
365.491	9.01
365.7	9.15
365.909	8.91
366.118	9
366.327	9.19
366.536	9.11
366.745	9.05
366.954	9.09
367.162	9.2
367.371	9.46
367.58	9.47
367.789	9.61
367.998	9.64
368.207	9.8
368.415	9.58
368.624	9.02
368.833	9.03
369.042	9.06
369.25	8.98
369.459	8.87
369.668	8.59
369.877	8.36
370.085	8.36
370.294	8.35
370.503	8.39
370.711	8.32
370.92	8.42
371.129	8.34
371.337	8.22
371.546	8.02
371.754	7.71
371.963	7.85
372.171	8.01
372.38	7.89
372.589	7.83
372.797	7.71
373.006	7.74
373.214	7.93
373.423	7.61
373.631	7.35
373.84	7.65
374.048	7.85
374.256	7.71
374.465	7.65
374.673	7.64
374.882	7.61
375.09	7.43
375.298	7.54
375.507	7.49
375.715	7.71
375.923	7.78
376.132	7.44
376.34	7.34
376.548	7.4
376.757	7.34
376.965	7.25
377.173	7.05
377.381	7.01
377.59	6.86
377.798	6.75
378.006	6.74
378.214	6.98
378.423	7.12
378.631	7.02
378.839	6.95
379.047	6.9
379.255	6.93
379.463	6.91
379.671	6.74
379.879	6.64
380.088	6.63
380.296	6.71
380.504	6.5
380.712	6.54
380.92	6.79
381.128	6.58
381.336	6.6
381.544	6.41
381.752	6.64
381.96	6.8
382.168	6.96
382.376	7.12
382.584	7.07
382.791	7
382.999	7.04
383.207	7.01
383.415	7.05
383.623	6.98
383.831	6.82
384.039	6.55
384.247	6.47
384.454	6.42
384.662	6.06
384.87	6.02
385.078	5.88
385.285	5.76
385.493	5.73
385.701	5.75
385.909	5.57
386.116	5.83
386.324	5.94
386.532	5.81
386.739	5.65
386.947	5.8
387.155	5.69
387.362	5.88
387.57	5.91
387.778	5.81
387.985	5.91
388.193	6.02
388.4	5.75
388.608	5.67
388.816	5.76
389.023	5.91
389.231	5.95
389.438	5.81
389.646	5.84
389.853	5.81
390.061	5.75
390.268	5.64
390.475	5.61
390.683	5.74
390.89	5.74
391.098	5.72
391.305	5.72
391.512	5.76
391.72	5.87
391.927	5.69
392.135	5.57
392.342	5.64
392.549	5.84
392.756	5.8
392.964	5.73
393.171	5.75
393.378	5.75
393.586	5.52
393.793	5.39
394	5.43
394.207	5.44
394.414	5.47
394.622	5.3
394.829	5.06
395.036	5.02
395.243	5.02
395.45	4.95
395.657	4.79
395.864	4.8
396.072	4.8
396.279	4.64
396.486	4.6
396.693	4.71
396.9	4.8
397.107	4.76
397.314	4.9
397.521	4.86
397.728	4.82
397.935	4.78
398.142	4.73
398.349	4.63
398.556	4.73
398.763	4.79
398.97	4.58
399.177	4.5
399.383	4.6
399.59	4.23
399.797	4.24
400.004	4.07
400.211	4.23
400.418	4.37
400.625	4.35
400.831	4.37
401.038	4.37
401.245	4.42
401.452	4.41
401.658	4.29
401.865	4.54
402.072	4.44
402.279	4.7
402.485	4.6
402.692	4.62
402.899	4.71
403.105	4.64
403.312	4.48
403.519	4.52
403.725	4.52
403.932	4.53
404.138	4.36
404.345	4.4
404.552	4.19
404.758	4.2
404.965	4.19
405.171	4.14
405.378	4.24
405.584	4.39
405.791	4.29
405.997	4.21
406.204	4.25
406.41	4.25
406.617	4.31
406.823	4.4
407.029	4.48
407.236	4.39
407.442	4.37
407.649	4.17
407.855	3.93
408.061	3.84
408.268	3.8
408.474	3.59
408.68	3.64
408.887	3.47
409.093	3.47
409.299	3.33
409.505	3.28
409.712	3.26
409.918	3.31
410.124	3.51
410.33	3.65
410.537	3.72
410.743	3.8
410.949	3.82
411.155	3.84
411.361	3.82
411.567	3.93
411.773	3.91
411.98	4.01
412.186	4.14
412.392	3.97
412.598	3.87
412.804	3.86
413.01	3.93
413.216	3.91
413.422	3.97
413.628	4
413.834	3.97
414.04	3.95
414.246	3.89
414.452	3.77
414.658	3.91
414.864	3.9
415.07	3.97
415.275	3.91
415.481	4.01
415.687	4.08
415.893	4.08
416.099	4.08
416.305	4.25
416.511	4.15
416.716	4.11
416.922	4.12
417.128	4.17
417.334	4.16
417.539	4.17
417.745	4.15
417.951	4.03
418.157	4.04
418.362	4.04
418.568	3.99
418.774	4.02
418.979	4.01
419.185	3.95
419.391	3.91
419.596	3.92
419.802	3.96
420.008	3.93
420.213	4.29
420.419	4.23
420.624	4.2
420.83	4.18
421.035	4.23
421.241	4.25
421.446	4.29
421.652	4.38
421.857	4.31
422.063	4.24
422.268	4.2
422.474	3.92
422.679	3.88
422.885	3.88
423.09	3.86
423.295	3.81
423.501	3.8
423.706	3.73
423.911	3.64
424.117	3.68
424.322	3.71
424.527	3.76
424.733	3.79
424.938	3.81
425.143	3.73
425.349	3.7
425.554	3.66
425.759	3.63
425.964	3.69
426.169	3.66
426.375	3.53
426.58	3.57
426.785	3.46
426.99	3.41
427.195	3.43
427.4	3.49
427.605	3.54
427.811	3.54
428.016	3.57
428.221	3.47
428.426	3.48
428.631	3.52
428.836	3.43
429.041	3.37
429.246	3.36
429.451	3.26
429.656	3.3
429.861	3.26
430.066	3.38
430.271	3.42
430.476	3.38
430.681	3.44
430.886	3.48
431.09	3.55
431.295	3.61
431.5	3.62
431.705	3.63
431.91	3.54
432.115	3.58
432.32	3.43
432.524	3.36
432.729	3.49
432.934	3.55
433.139	3.58
433.343	3.49
433.548	3.54
433.753	3.5
433.958	3.53
434.162	3.66
434.367	3.66
434.572	3.7
434.776	3.7
434.981	3.56
435.186	3.45
435.39	3.4
435.595	3.4
435.799	3.42
436.004	3.36
436.209	3.37
436.413	3.24
436.618	3.24
436.822	3.25
437.027	3.26
437.231	3.32
437.436	3.27
437.64	3.37
437.845	3.42
438.049	3.41
438.253	3.45
438.458	3.56
438.662	3.56
438.867	3.51
439.071	3.52
439.275	3.48
439.48	3.53
439.684	3.62
439.888	3.53
440.093	3.57
440.297	3.55
440.501	3.56
440.706	3.44
440.91	3.44
441.114	3.44
441.318	3.45
441.523	3.53
441.727	3.34
441.931	3.24
442.135	3.24
442.339	3.12
442.543	3.13
442.748	3.17
442.952	3.19
443.156	3.19
443.36	3.2
443.564	3.18
443.768	3.19
443.972	3.32
444.176	3.37
444.38	3.38
444.584	3.48
444.788	3.52
444.992	3.52
445.196	3.53
445.4	3.58
445.604	3.61
445.808	3.64
446.012	3.64
446.216	3.7
446.42	3.68
446.624	3.65
446.828	3.63
447.032	3.54
447.235	3.53
447.439	3.55
447.643	3.54
447.847	3.53
448.051	3.53
448.254	3.52
448.458	3.51
448.662	3.56
448.866	3.6
449.069	3.61
449.273	3.65
449.477	3.64
449.681	3.67
449.884	3.62
450.088	3.57
450.292	3.56
450.495	3.48
450.699	3.4
450.902	3.35
451.106	3.28
451.31	3.23
451.513	3.24
451.717	3.07
451.92	3.02
452.124	3.03
452.327	3.06
452.531	3.05
452.734	3.07
452.938	3.09
453.141	3.07
453.345	3.15
453.548	3.15
453.752	3.11
453.955	3.22
454.158	3.26
454.362	3.26
454.565	3.23
454.769	3.19
454.972	3.16
455.175	3.18
455.379	3.2
455.582	3.16
455.785	3.2
455.988	3.26
456.192	3.29
456.395	3.22
456.598	3.17
456.801	3.24
457.005	3.31
457.208	3.35
457.411	3.38
457.614	3.37
457.817	3.39
458.021	3.38
458.224	3.37
458.427	3.36
458.63	3.41
458.833	3.43
459.036	3.33
459.239	3.28
459.442	3.22
459.645	3.22
459.848	3.23
460.051	3.24
460.254	3.28
460.457	3.31
460.66	3.33
460.863	3.31
461.066	3.31
461.269	3.39
461.472	3.41
461.675	3.5
461.878	3.45
462.081	3.47
462.284	3.43
462.486	3.41
462.689	3.45
462.892	3.49
463.095	3.51
463.298	3.45
463.5	3.47
463.703	3.5
463.906	3.43
464.109	3.4
464.311	3.39
464.514	3.44
464.717	3.4
464.92	3.3
465.122	3.27
465.325	3.29
465.528	3.36
465.73	3.32
465.933	3.34
466.135	3.44
466.338	3.65
466.541	3.65
466.743	3.58
466.946	3.67
467.148	3.64
467.351	3.67
467.553	3.68
467.756	3.65
467.958	3.59
468.161	3.47
468.363	3.42
468.566	3.29
468.768	3.23
468.971	3.32
469.173	3.28
469.375	3.31
469.578	3.27
469.78	3.25
469.983	3.29
470.185	3.29
470.387	3.42
470.59	3.42
470.792	3.38
470.994	3.36
471.196	3.33
471.399	3.31
471.601	3.31
471.803	3.33
472.005	3.4
472.208	3.43
472.41	3.53
472.612	3.47
472.814	3.37
473.016	3.36
473.218	3.49
473.421	3.37
473.623	3.43
473.825	3.43
474.027	3.47
474.229	3.38
474.431	3.32
474.633	3.33
474.835	3.31
475.037	3.45
475.239	3.55
475.441	3.44
475.643	3.57
475.845	3.54
476.047	3.57
476.249	3.51
476.451	3.44
476.653	3.53
476.855	3.45
477.057	3.55
477.258	3.56
477.46	3.39
477.662	3.49
477.864	3.47
478.066	3.5
478.268	3.53
478.469	3.55
478.671	3.63
478.873	3.62
479.075	3.58
479.276	3.48
479.478	3.47
479.68	3.54
479.882	3.53
480.083	3.57
480.285	3.53
480.487	3.54
480.688	3.53
480.89	3.53
481.091	3.52
481.293	3.61
481.495	3.66
481.696	3.64
481.898	3.66
482.099	3.64
482.301	3.62
482.502	3.61
482.704	3.6
482.905	3.62
483.107	3.62
483.308	3.6
483.51	3.59
483.711	3.57
483.913	3.57
484.114	3.56
484.315	3.56
484.517	3.55
484.718	3.54
484.92	3.53
485.121	3.53
485.322	3.48
485.524	3.49
485.725	3.49
485.926	3.48
486.127	3.47
486.329	3.47
486.53	3.45
486.731	3.46
486.932	3.47
487.134	3.47
487.335	3.47
487.536	3.45
487.737	3.48
487.938	3.49
488.139	3.5
488.341	3.49
488.542	3.5
488.743	3.52
488.944	3.56
489.145	3.54
489.346	3.54
489.547	3.56
489.748	3.66
489.949	3.6
490.15	3.62
490.351	3.63
490.552	3.66
490.753	3.69
490.954	3.67
491.155	3.66
491.356	3.68
491.557	3.7
491.758	3.67
491.959	3.62
492.159	3.63
492.36	3.62
492.561	3.65
492.762	3.68
492.963	3.65
493.164	3.71
493.364	3.71
493.565	3.7
493.766	3.72
493.967	3.73
494.167	3.78
494.368	3.8
494.569	3.78
494.769	3.79
494.97	3.76
495.171	3.71
495.371	3.69
495.572	3.73
495.773	3.83
495.973	3.81
496.174	3.79
496.375	3.82
496.575	3.83
496.776	3.9
496.976	3.88
497.177	3.92
497.377	4.04
497.578	4.08
497.778	4.05
497.979	4
498.179	4.02
498.38	4.15
498.58	4.09
498.78	4.05
498.981	4.03
499.181	4.04
499.382	4.08
499.582	4.07
499.782	4.12
499.983	4.12
500.183	4.14
500.383	4.26
500.584	4.16
500.784	4.28
500.984	4.43
501.184	4.49
501.385	4.51
501.585	4.47
501.785	4.44
501.985	4.43
502.185	4.47
502.386	4.55
502.586	4.52
502.786	4.58
502.986	4.64
503.186	4.65
503.386	4.72
503.586	4.81
503.786	4.88
503.987	4.94
504.187	4.91
504.387	4.97
504.587	4.97
504.787	4.93
504.987	5.01
505.187	4.99
505.387	5.03
505.587	4.99
505.786	5.01
505.986	5.05
506.186	5.04
506.386	5.1
506.586	5.07
506.786	5.09
506.986	5.15
507.186	5.11
507.386	5.12
507.585	5.23
507.785	5.35
507.985	5.38
508.185	5.42
508.384	5.53
508.584	5.57
508.784	5.62
508.984	5.66
509.183	5.76
509.383	5.9
509.583	6.03
509.782	5.95
509.982	5.97
510.182	5.98
510.381	6.08
510.581	6.15
510.781	6.26
510.98	6.32
511.18	6.42
511.379	6.4
511.579	6.42
511.778	6.38
511.978	6.48
512.177	6.54
512.377	6.62
512.576	6.64
512.776	6.68
512.975	6.7
513.175	6.75
513.374	6.8
513.573	6.92
513.773	7.01
513.972	7.16
514.172	7.22
514.371	7.25
514.57	7.34
514.77	7.4
514.969	7.47
515.168	7.52
515.367	7.7
515.567	7.75
515.766	7.82
515.965	7.85
516.164	7.89
516.364	8.03
516.563	8.13
516.762	8.28
516.961	8.38
517.16	8.44
517.359	8.58
517.559	8.58
517.758	8.64
517.957	8.69
518.156	8.71
518.355	8.75
518.554	8.76
518.753	8.87
518.952	8.96
519.151	8.98
519.35	9.05
519.549	9.01
519.748	9.12
519.947	9.18
520.146	9.25
520.345	9.32
520.544	9.42
520.743	9.49
520.942	9.54
521.141	9.53
521.339	9.61
521.538	9.72
521.737	9.86
521.936	9.94
522.135	10.1
522.333	10.16
522.532	10.35
522.731	10.47
522.93	10.59
523.129	10.67
523.327	10.81
523.526	11
523.725	10.97
523.923	11.08
524.122	11.09
524.321	11.12
524.519	11.2
524.718	11.19
524.917	11.25
525.115	11.35
525.314	11.44
525.512	11.46
525.711	11.5
525.909	11.67
526.108	11.72
526.306	11.86
526.505	11.95
526.703	12.03
526.902	12.15
527.1	12.22
527.299	12.27
527.497	12.32
527.696	12.38
527.894	12.42
528.092	12.46
528.291	12.54
528.489	12.55
528.688	12.6
528.886	12.68
529.084	12.71
529.283	12.76
529.481	12.79
529.679	12.84
529.877	12.9
530.076	12.95
530.274	12.99
530.472	13.07
530.67	13.17
530.869	13.22
531.067	13.3
531.265	13.39
531.463	13.44
531.661	13.48
531.859	13.51
532.057	13.62
532.255	13.69
532.454	13.75
532.652	13.77
532.85	13.8
533.048	13.87
533.246	13.93
533.444	13.97
533.642	14.03
533.84	14.09
534.038	14.21
534.236	14.2
534.434	14.26
534.632	14.31
534.83	14.4
535.027	14.46
535.225	14.53
535.423	14.56
535.621	14.62
535.819	14.71
536.017	14.79
536.215	14.84
536.412	14.92
536.61	15.01
536.808	15.07
537.006	15.18
537.203	15.29
537.401	15.36
537.599	15.39
537.797	15.48
537.994	15.49
538.192	15.58
538.39	15.64
538.587	15.7
538.785	15.74
538.983	15.82
539.18	15.9
539.378	15.92
539.575	16.03
539.773	16.12
539.97	16.23
540.168	16.26
540.366	16.29
540.563	16.36
540.761	16.42
540.958	16.5
541.155	16.57
541.353	16.54
541.55	16.57
541.748	16.56
541.945	16.61
542.143	16.63
542.34	16.67
542.537	16.77
542.735	16.82
542.932	16.89
543.129	16.92
543.327	17
543.524	17.09
543.721	17.25
543.919	17.34
544.116	17.39
544.313	17.51
544.51	17.74
544.708	17.76
544.905	17.9
545.102	18.01
545.299	18.12
545.496	18.22
545.693	18.33
545.891	18.39
546.088	18.43
546.285	18.46
546.482	18.43
546.679	18.37
546.876	18.35
547.073	18.31
547.27	18.31
547.467	18.25
547.664	18.15
547.861	18.08
548.058	17.99
548.255	18.1
548.452	18.19
548.649	18.2
548.846	18.2
549.043	18.23
549.24	18.18
549.437	18.15
549.633	18.17
549.83	18.16
550.027	18.27
550.224	18.29
550.421	18.18
550.618	18.15
550.814	18.26
551.011	18.35
551.208	18.41
551.405	18.53
551.601	18.62
551.798	18.62
551.995	18.71
552.191	18.7
552.388	18.7
552.585	18.77
552.781	18.84
552.978	18.78
553.175	18.76
553.371	18.85
553.568	18.78
553.764	18.67
553.961	18.77
554.157	18.83
554.354	18.89
554.55	18.99
554.747	18.95
554.943	18.9
555.14	18.91
555.336	18.93
555.533	18.96
555.729	19.1
555.926	19.19
556.122	19.12
556.318	19.11
556.515	19.12
556.711	19.09
556.907	19.21
557.104	19.31
557.3	19.38
557.496	19.51
557.693	19.39
557.889	19.34
558.085	19.32
558.281	19.47
558.478	19.59
558.674	19.55
558.87	19.61
559.066	19.5
559.262	19.47
559.459	19.44
559.655	19.42
559.851	19.56
560.047	19.63
560.243	19.74
560.439	19.69
560.635	19.59
560.831	19.66
561.027	19.62
561.223	19.73
561.419	19.82
561.615	19.91
561.811	19.93
562.007	19.85
562.203	19.87
562.399	19.93
562.595	19.94
562.791	19.98
562.987	20.13
563.183	20.25
563.379	20.35
563.575	20.3
563.771	20.3
563.966	20.4
564.162	20.49
564.358	20.47
564.554	20.46
564.75	20.58
564.945	20.69
565.141	20.49
565.337	20.52
565.533	20.55
565.728	20.59
565.924	20.61
566.12	20.56
566.315	20.59
566.511	20.74
566.707	20.82
566.902	20.79
567.098	20.75
567.293	20.95
567.489	20.99
567.684	20.95
567.88	20.96
568.076	20.92
568.271	20.94
568.467	20.9
568.662	20.82
568.858	20.82
569.053	20.83
569.248	20.81
569.444	20.77
569.639	20.77
569.835	20.81
570.03	20.8
570.225	20.92
570.421	20.96
570.616	21.09
570.812	21.18
571.007	21.15
571.202	21.21
571.397	21.18
571.593	21.23
571.788	21.27
571.983	21.25
572.178	21.33
572.374	21.42
572.569	21.38
572.764	21.43
572.959	21.4
573.154	21.41
573.35	21.42
573.545	21.56
573.74	21.55
573.935	21.5
574.13	21.54
574.325	21.53
574.52	21.51
574.715	21.6
574.91	21.51
575.105	21.58
575.3	21.66
575.495	21.73
575.69	21.8
575.885	21.87
576.08	21.95
576.275	22
576.47	22.09
576.665	22.05
576.86	21.92
577.055	22.1
577.25	22.08
577.444	22.12
577.639	22.02
577.834	22.03
578.029	21.99
578.224	22.01
578.418	22
578.613	22.03
578.808	21.96
579.003	22.14
579.197	22.02
579.392	22.12
579.587	22.1
579.781	22.27
579.976	22.26
580.171	22.36
580.365	22.21
580.56	22.31
580.755	22.3
580.949	22.47
581.144	22.58
581.338	22.67
581.533	22.66
581.727	22.75
581.922	22.62
582.116	22.66
582.311	22.51
582.505	22.68
582.7	22.64
582.894	22.75
583.089	22.87
583.283	22.88
583.478	22.79
583.672	22.85
583.866	22.75
584.061	22.83
584.255	22.82
584.449	23.01
584.644	22.96
584.838	23
585.032	22.95
585.226	22.8
585.421	22.86
585.615	23.04
585.809	23.03
586.003	23.2
586.198	23.26
586.392	23.19
586.586	23.21
586.78	23.37
586.974	23.38
587.168	23.49
587.363	23.52
587.557	23.43
587.751	23.35
587.945	23.25
588.139	23.13
588.333	23.06
588.527	23.17
588.721	23.22
588.915	23.15
589.109	23.16
589.303	23.05
589.497	23.07
589.691	23.08
589.885	23.05
590.079	23.14
590.273	23.18
590.466	23.24
590.66	23.22
590.854	23.16
591.048	23.22
591.242	23.33
591.436	23.26
591.629	23.42
591.823	23.56
592.017	23.73
592.211	23.7
592.404	23.63
592.598	23.7
592.792	23.85
592.986	23.87
593.179	23.78
593.373	23.67
593.567	23.7
593.76	23.5
593.954	23.44
594.147	23.4
594.341	23.46
594.535	23.56
594.728	23.52
594.922	23.39
595.115	23.27
595.309	23.33
595.502	23.37
595.696	23.38
595.889	23.48
596.083	23.57
596.276	23.45
596.47	23.49
596.663	23.52
596.856	23.6
597.05	23.73
597.243	23.9
597.437	23.96
597.63	24.01
597.823	24.14
598.017	24.18
598.21	24.15
598.403	24.22
598.596	24.16
598.79	24.16
598.983	24.08
599.176	23.99
599.369	23.93
599.563	23.83
599.756	23.92
599.949	23.78
600.142	23.72
600.335	23.62
600.528	23.7
600.722	23.75
600.915	23.83
601.108	23.88
601.301	23.76
601.494	23.91
601.687	23.96
601.88	23.86
602.073	23.87
602.266	23.93
602.459	24.03
602.652	23.95
602.845	23.93
603.038	23.94
603.231	23.96
603.424	24.12
603.617	23.97
603.809	23.99
604.002	23.93
604.195	23.98
604.388	23.97
604.581	23.98
604.774	24.08
604.966	24.04
605.159	23.96
605.352	23.99
605.545	24.04
605.737	24.1
605.93	24.15
606.123	24.27
606.316	24.41
606.508	24.41
606.701	24.5
606.894	24.36
607.086	24.38
607.279	24.49
607.471	24.57
607.664	24.38
607.857	24.56
608.049	24.73
608.242	24.98
608.434	25.2
608.627	25.47
608.819	25.76
609.012	26.22
609.204	26.73
609.397	27.23
609.589	27.78
609.782	28.4
609.974	28.99
610.166	29.48
610.359	29.96
610.551	30.34
610.743	30.77
610.936	31.09
611.128	31.4
611.32	31.55
611.513	31.53
611.705	31.37
611.897	31.34
612.09	31.02
612.282	30.82
612.474	30.55
612.666	30.16
612.858	29.84
613.051	29.52
613.243	29.21
613.435	29.05
613.627	28.86
613.819	28.78
614.011	28.47
614.203	28.25
614.395	28.1
614.588	27.86
614.78	27.82
614.972	27.76
615.164	27.59
615.356	27.33
615.548	27.11
615.74	26.99
615.932	26.92
616.124	26.88
616.315	26.66
616.507	26.48
616.699	26.31
616.891	26.09
617.083	25.85
617.275	25.88
617.467	25.96
617.659	25.73
617.85	25.55
618.042	25.29
618.234	25.2
618.426	25.27
618.618	25.2
618.809	25.2
619.001	25.03
619.193	25.02
619.384	24.8
619.576	24.68
619.768	24.77
619.959	24.91
620.151	25.01
620.343	25.09
620.534	25.12
620.726	25.03
620.917	25
621.109	25.34
621.301	25.46
621.492	25.66
621.684	25.73
621.875	25.82
622.067	25.71
622.258	25.74
622.45	25.69
622.641	25.74
622.832	25.72
623.024	25.78
623.215	25.88
623.407	25.8
623.598	25.71
623.789	25.79
623.981	25.8
624.172	25.93
624.363	25.86
624.555	25.86
624.746	25.75
624.937	25.77
625.129	25.72
625.32	25.63
625.511	25.71
625.702	25.79
625.893	25.76
626.085	25.69
626.276	25.81
626.467	25.93
626.658	25.91
626.849	25.87
627.04	26.04
627.231	26.16
627.422	26.06
627.614	26.02
627.805	26.06
627.996	26.04
628.187	26.19
628.378	26.08
628.569	26.1
628.76	26.17
628.951	26.32
629.142	26.29
629.332	26.22
629.523	26.44
629.714	26.47
629.905	26.53
630.096	26.63
630.287	26.53
630.478	26.45
630.669	26.37
630.859	26.25
631.05	26.25
631.241	26.19
631.432	26.24
631.623	26.16
631.813	26.18
632.004	25.91
632.195	25.86
632.385	25.83
632.576	26.04
632.767	26.02
632.957	26.04
633.148	25.95
633.339	25.96
633.529	25.72
633.72	25.63
633.91	25.59
634.101	25.68
634.292	25.61
634.482	25.65
634.673	25.53
634.863	25.48
635.054	25.4
635.244	25.47
635.435	25.57
635.625	25.72
635.815	25.78
636.006	25.82
636.196	25.84
636.387	25.86
636.577	25.88
636.767	25.82
636.958	25.84
637.148	25.92
637.338	25.96
637.529	25.87
637.719	25.96
637.909	25.91
638.099	25.98
638.29	26.01
638.48	25.77
638.67	25.78
638.86	25.76
639.05	25.6
639.241	25.57
639.431	25.46
639.621	25.31
639.811	25.17
640.001	25.13
640.191	24.99
640.381	24.91
640.571	25.01
640.761	24.98
640.951	24.88
641.141	24.81
641.331	24.96
641.521	24.88
641.711	25.15
641.901	25.28
642.091	25.49
642.281	25.4
642.471	25.38
642.661	25.56
642.851	25.63
643.041	25.92
643.231	26.16
643.42	26.05
643.61	26.1
643.8	26.01
643.99	25.86
644.18	25.67
644.369	25.88
644.559	25.89
644.749	25.89
644.939	25.64
645.128	25.35
645.318	25.4
645.508	25.51
645.697	25.45
645.887	25.4
646.076	25.36
646.266	25.35
646.456	25.36
646.645	25.25
646.835	25.24
647.024	25.31
647.214	25.48
647.403	25.44
647.593	25.55
647.782	25.84
647.972	25.94
648.161	26.29
648.351	26.32
648.54	26.35
648.73	26.53
648.919	26.69
649.108	26.88
649.298	26.91
649.487	26.92
649.677	26.87
649.866	26.55
650.055	26.43
650.244	26.28
650.434	26.26
650.623	26.14
650.812	26.2
651.002	25.98
651.191	26.03
651.38	26.24
651.569	26.17
651.758	26.08
651.947	26.31
652.137	26.43
652.326	26.43
652.515	26.37
652.704	26.42
652.893	26.36
653.082	26.56
653.271	26.42
653.46	26.22
653.649	26.28
653.838	26.18
654.027	26.11
654.216	26.03
654.405	25.9
654.594	25.91
654.783	25.85
654.972	25.88
655.161	25.86
655.35	25.91
655.539	25.85
655.728	25.83
655.916	25.89
656.105	26.26
656.294	26.19
656.483	26.34
656.672	26.43
656.86	26.39
657.049	26.36
657.238	26.28
657.427	26.31
657.615	26.45
657.804	26.57
657.993	26.61
658.181	26.34
658.37	26.52
658.559	26.52
658.747	26.51
658.936	26.48
659.125	26.19
659.313	26.24
659.502	26.18
659.69	26.24
659.879	26.24
660.067	26.23
660.256	26.24
660.444	26.31
660.633	26.23
660.821	26.17
661.01	26.36
661.198	26.81
661.387	26.82
661.575	26.95
661.763	26.78
661.952	26.63
662.14	26.5
662.328	26.43
662.517	26.46
662.705	26.54
662.893	26.55
663.082	26.51
663.27	26.46
663.458	26.33
663.646	26.2
663.834	26.43
664.023	26.44
664.211	26.55
664.399	26.81
664.587	26.59
664.775	26.41
664.963	26.5
665.152	26.54
665.34	26.53
665.528	26.77
665.716	26.72
665.904	26.54
666.092	26.66
666.28	26.89
666.468	26.78
666.656	26.67
666.844	26.75
667.032	26.71
667.22	26.86
667.408	26.94
667.596	26.66
667.784	26.78
667.971	26.78
668.159	26.83
668.347	26.77
668.535	26.55
668.723	26.73
668.911	26.91
669.098	26.96
669.286	26.79
669.474	26.88
669.662	26.83
669.849	26.84
670.037	26.95
670.225	26.78
670.413	26.6
670.6	26.82
670.788	26.55
670.976	26.5
671.163	26.51
671.351	26.42
671.538	26.08
671.726	26.3
671.913	26.29
672.101	26.14
672.289	26.19
672.476	26.22
672.664	26.21
672.851	26.4
673.039	26.53
673.226	26.45
673.413	26.33
673.601	26.35
673.788	26.28
673.976	26.34
674.163	26.66
674.35	26.7
674.538	26.57
674.725	26.53
674.912	26.65
675.1	26.45
675.287	26.42
675.474	26.78
675.662	27
675.849	27.03
676.036	27.11
676.223	26.65
676.411	26.64
676.598	26.68
676.785	26.84
676.972	26.8
677.159	26.8
677.346	26.74
677.533	26.62
677.721	26.51
677.908	26.43
678.095	26.24
678.282	26.5
678.469	26.38
678.656	26.41
678.843	26.39
679.03	26.43
679.217	26.57
679.404	26.72
679.591	26.47
679.778	26.62
679.964	26.74
680.151	26.93
680.338	26.96
680.525	27.11
680.712	27.19
680.899	27.22
681.086	27.23
681.272	27.23
681.459	27.12
681.646	27.33
681.833	27.37
682.02	27.21
682.206	27.16
682.393	27.02
682.58	27.01
682.766	26.98
682.953	26.8
683.14	26.78
683.326	26.71
683.513	26.86
683.7	26.72
683.886	26.54
684.073	26.75
684.259	26.38
684.446	26.28
684.632	26.38
684.819	26.61
685.005	26.78
685.192	26.88
685.378	26.95
685.565	26.88
685.751	27.04
685.938	26.99
686.124	27.01
686.31	27.16
686.497	27.42
686.683	27.38
686.87	27.19
687.056	27.05
687.242	26.9
687.429	26.74
687.615	26.81
687.801	26.83
687.987	27.37
688.174	27.29
688.36	27.43
688.546	27.34
688.732	27.43
688.918	27.46
689.105	27.46
689.291	27.6
689.477	27.91
689.663	27.91
689.849	28.05
690.035	27.53
690.221	27.78
690.407	27.84
690.593	27.73
690.779	27.42
690.965	27.37
691.151	27.41
691.337	27.33
691.523	27.17
691.709	27.16
691.895	27.02
692.081	27.03
692.267	26.91
692.453	26.94
692.639	27.01
692.825	27.16
693.011	27.49
693.196	27.45
693.382	27.52
693.568	27.69
693.754	27.68
693.94	27.8
694.125	27.99
694.311	27.78
694.497	27.78
694.682	27.75
694.868	27.87
695.054	27.67
695.239	27.46
695.425	27.49
695.611	27.51
695.796	27.53
695.982	27.19
696.168	27.2
696.353	26.81
696.539	26.55
696.724	26.66
696.91	27
697.095	26.72
697.281	26.91
697.466	26.97
697.652	26.89
697.837	26.84
698.023	26.97
698.208	27
698.393	27.36
698.579	27.62
698.764	27.59
698.949	27.31
699.135	27.47
699.32	27.26
699.505	27.24
699.691	27.04
699.876	27.14
700.061	27.28
700.246	27.08
700.432	27.01
700.617	26.7
700.802	26.69
700.987	26.86
701.172	26.54
701.358	27.03
701.543	26.97
701.728	27.06
701.913	26.97
702.098	26.8
702.283	26.73
702.468	26.85
702.653	27.02
702.838	27.22
703.023	27.08
703.208	27.72
703.393	27.2
703.578	27.33
703.763	27.53
703.948	27.59
704.133	27.7
704.318	27.72
704.503	27.77
704.688	27.8
704.873	27.36
705.057	27.39
705.242	27.42
705.427	28.04
705.612	28.16
705.797	28.7
705.981	28.79
706.166	28.83
706.351	29.36
706.536	29.63
706.72	29.8
706.905	30.33
707.09	30.4
707.274	30.36
707.459	30.12
707.644	30.14
707.828	29.84
708.013	29.64
708.197	29.61
708.382	29.41
708.567	28.96
708.751	28.93
708.936	28.6
709.12	28.36
709.305	28.04
709.489	28.2
709.673	27.87
709.858	27.56
710.042	27.75
710.227	27.7
710.411	27.6
710.596	27.71
710.78	27.59
710.964	27.41
711.149	27.78
711.333	28.26
711.517	28.09
711.702	28.37
711.886	28.27
712.07	28.17
712.254	28.32
712.438	28.45
712.623	28.33
712.807	28.32
712.991	28.87
713.175	28.64
713.359	28.48
713.544	28.28
713.728	27.85
713.912	27.76
714.096	27.96
714.28	27.83
714.464	27.17
714.648	27.36
714.832	27
715.016	27
715.2	26.93
715.384	27.16
715.568	27.27
715.752	27.45
715.936	27.62
716.12	27.23
716.304	27.33
716.488	27.65
716.671	27.38
716.855	27.7
717.039	26.9
717.223	26.98
717.407	26.41
717.59	26.25
717.774	26.03
717.958	26.06
718.142	26.09
718.325	25.92
718.509	26.2
718.693	26.23
718.877	25.97
719.06	26.49
719.244	26.11
719.428	26.04
719.611	26.11
719.795	26.53
719.978	26.27
720.162	26.33
720.345	26.52
720.529	26.65
720.713	26.79
720.896	26.77
721.08	26.57
721.263	26.99
721.446	27.61
721.63	27.31
721.813	26.96
721.997	26.92
722.18	26.69
722.364	26.19
722.547	25.78
722.73	25.81
722.914	26.15
723.097	26.59
723.28	26.33
723.464	26.25
723.647	26.51
723.83	26.67
724.013	26.9
724.197	27.3
724.38	27.73
724.563	27.8
724.746	27.87
724.929	27.8
725.112	27.43
725.296	27.82
725.479	27.48
725.662	27.9
725.845	27.76
726.028	27.76
726.211	27.61
726.394	27.41
726.577	27.2
726.76	27.16
726.943	27.2
727.126	27.11
727.309	26.76
727.492	26.51
727.675	26.02
727.858	25.89
728.041	25.85
728.224	26.2
728.407	25.96
728.589	26.23
728.772	26.21
728.955	25.91
729.138	26.07
729.321	25.69
729.503	25.72
729.686	26.06
729.869	25.88
730.052	25.79
730.234	25.58
730.417	25.89
730.6	25.87
730.782	25.84
730.965	26.53
731.148	26.53
731.33	26.88
731.513	27.1
731.695	27.03
731.878	27.53
732.061	27.69
732.243	28.01
732.426	28.46
732.608	28.81
732.791	28.98
732.973	28.53
733.156	28.64
733.338	28.65
733.52	28.9
733.703	28.91
733.885	28.78
734.068	29
734.25	28.54
734.432	28.46
734.615	28.21
734.797	28.49
734.979	28.81
735.162	28.73
735.344	28.71
735.526	28.16
735.708	27.84
735.891	27.91
736.073	27.44
736.255	27.28
736.437	26.74
736.619	26.6
736.802	26.14
736.984	26.11
737.166	26.01
737.348	26.18
737.53	26.45
737.712	26.71
737.894	26.56
738.076	27.17
738.258	27.51
738.44	27.86
738.622	28.32
738.804	28.54
738.986	28.29
739.168	28.39
739.35	28.42
739.532	28.59
739.714	28.84
739.896	29.14
740.078	29.13
740.259	29.02
740.441	28.81
740.623	28.6
740.805	28.33
740.987	28.48
741.168	28.47
741.35	28.53
741.532	28.08
741.714	27.99
741.895	27.64
742.077	27.39
742.259	27.7
742.44	27.99
742.622	27.61
742.804	27.98
742.985	27.93
743.167	28.04
743.348	27.88
743.53	28.45
743.711	28.11
743.893	28.16
744.075	28.24
744.256	27.66
744.438	27.6
744.619	27.99
744.8	27.25
744.982	27.21
745.163	26.91
745.345	27.14
745.526	26.9
745.707	26.7
745.889	26.41
746.07	26.14
746.252	26.81
746.433	27.22
746.614	27.24
746.795	28.2
746.977	28.16
747.158	28.67
747.339	28.59
747.52	28.3
747.702	28.45
747.883	28.69
748.064	28.84
748.245	28.52
748.426	28.05
748.607	27.85
748.788	27.47
748.97	27.6
749.151	27.13
749.332	27.32
749.513	27.93
749.694	28.44
749.875	28.69
750.056	29.04
750.237	29
750.418	28.94
750.599	28.53
750.78	28.05
750.96	27.91
751.141	27.68
751.322	27.27
751.503	27.13
751.684	26.29
751.865	26.31
752.046	26.02
752.226	25.69
752.407	25.37
752.588	25.45
752.769	25.62
752.949	25.11
753.13	25.41
753.311	25.75
753.492	25.75
753.672	26.66
753.853	27
754.034	27.23
754.214	27.37
754.395	27.14
754.575	27.35
754.756	27.52
754.937	27.74
755.117	27.89
755.298	27.59
755.478	27.94
755.659	27.34
755.839	26.91
756.02	26.34
756.2	26.64
756.381	27.03
756.561	27.26
756.741	27.3
756.922	27.27
757.102	27.15
757.283	27.63
757.463	27.3
757.643	27.04
757.823	26.22
758.004	25.87
758.184	25.38
758.364	25.36
758.545	25.25
758.725	25.17
758.905	25.66
759.085	25.86
759.265	25.02
759.446	24.7
759.626	25.19
759.806	25.73
759.986	26.17
760.166	26.53
760.346	26.17
760.526	26.15
760.706	26.16
760.886	25.76
761.066	26.16
761.246	25.99
761.426	26.33
761.606	26.05
761.786	25.8
761.966	26.28
762.146	25.91
762.326	26.55
762.506	26.31
762.686	26.33
762.866	26.61
763.046	26.09
763.225	26.72
763.405	26.44
763.585	26.59
763.765	26.88
763.945	26.71
764.124	26.99
764.304	26.75
764.484	26.88
764.664	26.88
764.843	26.9
765.023	27.01
765.203	26.9
765.382	26.73
765.562	26.68
765.741	26.65
765.921	26.49
766.101	26.25
766.28	26.32
766.46	26.22
766.639	26.35
766.819	25.99
766.998	25.87
767.178	25.79
767.357	26.6
767.537	26.95
767.716	27.62
767.896	28.02
768.075	28.16
768.254	28.21
768.434	28.45
768.613	28.06
768.792	28.5
768.972	29.15
769.151	29.42
769.33	29.19
769.51	29.25
769.689	28.62
769.868	29.03
770.047	29.85
770.226	29.66
770.406	28.96
770.585	28.64
770.764	28.65
770.943	27.92
771.122	28.26
771.301	28.03
771.48	27.98
771.66	27.76
771.839	27.31
772.018	26.62
772.197	27.38
772.376	27.64
772.555	28.48
772.734	28.23
772.913	28.42
773.092	27.62
773.271	27.88
773.449	27.28
773.628	28.11
773.807	27.62
773.986	27.9
774.165	26.71
774.344	27.32
774.523	27.16
774.701	27.56
774.88	27.63
775.059	27.28
775.238	27.49
775.417	27.42
775.595	26.8
775.774	26.9
775.953	26.44
776.131	27.46
776.31	27.14
776.489	26.79
776.667	26.31
776.846	26.68
777.025	26.45
777.203	26.67
777.382	27.82
777.56	28.18
777.739	28.16
777.917	27.98
778.096	27.51
778.274	27.44
778.453	27.28
778.631	27.45
778.81	27.27
778.988	28.49
779.166	28.59
779.345	27.91
779.523	27.71
779.702	28.4
779.88	29.18
780.058	29.13
780.237	29.17
780.415	29.15
780.593	28.58
780.771	28.57
780.95	28.98
781.128	28.51
781.306	28.38
781.484	29.11
781.662	27.75
781.841	27.1
782.019	26.52
782.197	26.98
782.375	27.1
782.553	27.94
782.731	27.98
782.909	28.13
783.087	28.68
783.265	29.36
783.443	27.53
783.621	28.47
783.799	28.73
783.977	29.39
784.155	28.29
784.333	27.74
784.511	27.98
784.689	27.79
784.867	26.99
785.045	26.39
785.223	25.62
785.4	27.03
785.578	27.58
785.756	27.06
785.934	27.13
786.112	28.17
786.289	27.8
786.467	27.72
786.645	28.09
786.823	26.63
787	26.86
787.178	26.96
787.356	26.29
787.533	26.58
787.711	27.34
787.889	27.22
788.066	27.32
788.244	27.76
788.421	26.6
788.599	25.84
788.776	26.91
788.954	25.89
789.131	26.05
789.309	26.2
789.486	24.76
789.664	25.06
789.841	25.51
790.019	24.73
790.196	25.93
790.373	26.09
790.551	26.74
790.728	26.81
790.906	27.26
791.083	26.96
791.26	27.1
791.437	27.18
791.615	26.91
791.792	25.95
791.969	27.18
792.146	26.26
792.324	26.94
792.501	26.56
792.678	26.31
792.855	25.98
793.032	26.14
793.209	25.91
793.387	26.1
793.564	25.12
793.741	25.41
793.918	24.46
794.095	24.21
794.272	23.95
794.449	25.08
794.626	24.7
794.803	25.86
794.98	26.16
795.157	25.29
795.334	26.17
795.511	25.82
795.688	25.18
795.864	24.43
796.041	25.26
796.218	25.14
796.395	24.26
796.572	24.73
796.749	23.15
796.925	22.57
797.102	22.65
797.279	20.83
797.456	20.9
797.632	21.84
797.809	21.93
797.986	21.39
798.162	21.74
798.339	22.16
798.516	21.59
798.692	22.71
798.869	22.95
799.046	24.04
799.222	25.45
799.399	26.39
799.575	26.05
799.752	25.43
799.928	25.28
800.105	25.28
800.281	25.09
800.458	26
800.634	26.66
800.811	26.94
800.987	26.22
801.163	26.03
801.34	25.1
801.516	24.7
801.692	25.52
801.869	25.67
802.045	25.46
802.221	24.65
802.398	23.78
802.574	22.77
802.75	22.15
802.926	22.72
803.103	23.15
803.279	25.16
803.455	25.5
803.631	26.17
803.807	26.81
803.983	26.06
804.16	26.95
804.336	26.93
804.512	27.36
804.688	27.04
804.864	26.46
805.04	25.51
805.216	24.14
805.392	25.26
805.568	24.9
805.744	24.74
805.92	25.66
806.096	25.63
806.272	25.77
806.448	24.74
806.623	25.22
806.799	25.02
806.975	25.3
807.151	24.2
807.327	23.61
807.503	24.72
807.678	25.88
807.854	26.42
808.03	26.05
808.206	26.8
808.381	27.02
808.557	26.97
808.733	27.16
808.908	26.39
809.084	27.54
809.26	28.59
809.435	27.38
809.611	26.15
809.787	26.04
809.962	24.63
810.138	24.22
810.313	24.13
810.489	23.58
810.664	23.57
810.84	23.36
811.015	22.95
811.191	20.85
811.366	21.85
811.542	21.3
811.717	20.46
811.892	24.03
812.068	23.97
812.243	24.12
812.419	25.77
812.594	25.84
812.769	26.25
812.944	26.39
813.12	27.51
813.295	24.95
813.47	24.93
813.645	26.35
813.821	22.92
813.996	22.92
814.171	22.67
814.346	22.28
814.521	22.57
814.697	21.99
814.872	20.74
815.047	19.71
815.222	21.61
815.397	21.14
815.572	20.31
815.747	20.99
815.922	21.12
816.097	22.36
816.272	22.11
816.447	21.17
816.622	23.97
816.797	24.93
816.972	24.03
817.147	25.81
817.322	25.62
817.496	24.48
817.671	24.71
817.846	24.79
818.021	24.09
818.196	23.3
818.371	23.84
818.545	22.11
818.72	22.51
818.895	22.36
819.069	21.06
819.244	22.28
819.419	23.47
819.594	23.55
819.768	23.51
819.943	23.78
820.117	24.11
820.292	25.12
820.467	25.34
820.641	25.25
820.816	25.92
820.99	26.12
821.165	26.04
821.339	25.84
821.514	25.9
821.688	25.77
821.863	25.71
822.037	25.86
822.212	25.6
822.386	25.66
822.56	25.62
822.735	25.41
822.909	25.38
823.084	25.31
823.258	25.27
823.432	25.35
823.606	25.31
823.781	25.21
823.955	24.76
824.129	24.61
824.303	24.72
824.478	24.59
824.652	24.65
824.826	24.54
825	24.28
825.174	24.03
825.348	23.92
825.523	23.71
825.697	23.84
825.871	24.7
826.045	25.1
826.219	25.28
826.393	25.45
826.567	25.03
826.741	25
826.915	25.57
827.089	25.57
827.263	25.41
827.437	25.61
827.611	25.17
827.784	24.7
827.958	24.46
828.132	24.03
828.306	23.97
828.48	24.96
828.654	25.14
828.827	25.05
829.001	25.13
829.175	25.07
829.349	25.21
829.522	24.74
829.696	25.01
829.87	24.8
830.044	24.6
830.217	24.96
830.391	23.82
830.565	23.2
830.738	22.69
830.912	23.74
831.085	23.81
831.259	23.13
831.432	25.46
831.606	25.29
831.779	25.66
831.953	24.92
832.126	24.91
832.3	25.65
832.473	25.98
832.647	25.84
832.82	24.38
832.994	23.93
833.167	24.01
833.34	24.34
833.514	24.3
833.687	23.66
833.86	23.22
834.034	22.72
834.207	22.27
834.38	22.22
834.553	22.28
834.727	22.72
834.9	22.81
835.073	23.18
835.246	22.25
835.419	22.36
835.593	22.66
835.766	24
835.939	24.19
836.112	25.05
836.285	24.6
836.458	24.04
836.631	24
836.804	23.51
836.977	22.95
837.15	22.96
837.323	23.62
837.496	23.9
837.669	22.36
837.842	21.96
838.015	20.46
838.188	21.11
838.361	20.69
838.533	19.97
838.706	21.09
838.879	21.84
839.052	21.93
839.225	21.14
839.398	21.44
839.57	22.7
839.743	22.75
839.916	24.01
840.088	24.75
840.261	25.83
840.434	26.08
840.607	25.88
840.779	25.81
840.952	26.06
841.124	23.68
841.297	24.12
841.47	23.22
841.642	23.87
841.815	22.35
841.987	19.71
842.16	20.36
842.332	22.44
842.505	21.57
842.677	19.55
842.85	20.19
843.022	23.84
843.194	24.95
843.367	24.58
843.539	22.51
843.712	23.25
843.884	25.98
844.056	26.19
844.229	22.47
844.401	23.69
844.573	26.22
844.745	27.4
844.918	24.35
845.09	20.17
845.262	21.89
845.434	22.81
845.606	23.67
845.779	22.3
845.951	22.62
846.123	25.78
846.295	26.49
846.467	25.43
846.639	23.32
846.811	25.71
846.983	24.86
847.155	22.04
847.327	22.92
847.499	21.67
847.671	23.33
847.843	21.89
848.015	22.36
848.187	24.46
848.359	25.16
848.531	25.25
848.703	25.4
848.875	28.89
849.047	32.61
849.218	33.04
849.39	34.47
849.562	31.72
849.734	27.71
849.905	24.61
850.077	21.91
850.249	26.25
850.421	27.2
850.592	26.82
850.764	26.3
850.936	24.47
851.107	23.42
851.279	19.8
851.451	22.54
851.622	28.05
851.794	29.83
851.965	29.05
852.137	26.13
852.308	24.67
852.48	24.7
852.651	23.99
852.823	23.84
852.994	26.82
853.166	26.72
853.337	25.21
853.509	22.64
853.68	22.7
853.851	19.91
854.023	18.74
854.194	18.3
854.365	16.71
854.537	18.99
854.708	19.6
854.879	18.29
855.05	19.18
855.222	19.81
855.393	19.29
855.564	16.59
855.735	17.32
855.906	16.52
856.078	19.15
856.249	17.88
856.42	14.08
856.591	13.46
856.762	12.64
856.933	17.64
857.104	15.5
857.275	15.01
857.446	15.9
857.617	18.22
857.788	19.75
857.959	20.41
858.13	23.27
858.301	24.92
858.472	22.34
858.643	24.94
858.814	19.42
858.985	21.33
859.155	22.9
859.326	23.91
859.497	21.91
859.668	19.59
859.839	16.64
860.009	14.35
860.18	15.08
860.351	19.6
860.522	17.2
860.692	16.93
860.863	14.77
861.034	18.02
861.204	17.75
861.375	20.51
861.546	25.79
861.716	24.03
861.887	28.06
862.057	28.03
862.228	20.76
862.398	17.29
862.569	26.16
862.739	28.68
862.91	24.71
863.08	25.47
863.251	27.35
863.421	25.77
863.592	28.41
863.762	25.42
863.932	24.48
864.103	27.98
864.273	28.57
864.443	20.25
864.614	21.12
864.784	20.5
864.954	18.73
865.125	13.54
865.295	7.06
865.465	2.77
865.635	9.58
865.805	11.79
865.976	13.92
866.146	15.47
866.316	15.19
866.486	16.44
866.656	16.43
866.826	16.06
866.996	18.25
867.166	20.84
867.336	23.91
867.506	21.64
867.676	19.55
867.846	22.69
868.016	23.38
868.186	22.05
868.356	21
868.526	22.27
868.696	24.86
868.866	22.33
869.036	18.96
869.206	14.99
869.376	15.62
869.545	16.35
869.715	11.02
869.885	10.25
870.055	15.49
870.224	11.49
870.394	8.62
870.564	5.63
870.734	7.36
870.903	13.32
871.073	13.09
871.243	9.39
871.412	9.44
871.582	13.77
871.751	15.6
871.921	16.22
872.091	18.09
872.26	18.85
872.43	17.62
872.599	18.18
872.769	14.74
872.938	15.19
873.108	15.09
873.277	10.85
873.446	9.7
873.616	6.62
873.785	7.3
873.955	9.13
874.124	10.78
874.293	15.58
874.463	14.58
874.632	21.66
874.801	23.65
874.971	23.79
875.14	25.24
875.309	24.78
875.478	23.38
875.647	21.73
875.817	21.34
875.986	23.59
876.155	21.84
876.324	22.45
876.493	16.4
876.662	21.08
876.831	21.46
877	26.09
877.17	22.31
877.339	24.99
877.508	23.11
877.677	21.71
877.846	22.46
878.015	23.96
878.184	25.04
878.352	24.61
878.521	21.99
878.69	20.79
878.859	19.76
879.028	22.82
879.197	21.52
879.366	22.09
879.534	22.16
879.703	23.41
879.872	21.87
880.041	21.13
880.21	20.79
880.378	19.13
880.547	22.14
880.716	21.82
880.884	21.8
881.053	22.34
881.222	22.5
881.39	22.89
881.559	22.33
881.727	22.61
881.896	23.02
882.065	23.22
882.233	23.64
882.402	23.46
882.57	23.37
882.739	22.93
882.907	23.53
883.076	23.44
883.244	23.34
883.412	23.12
883.581	22.98
883.749	22.7
883.918	22.75
884.086	22.69
884.254	21.66
884.423	22.31
884.591	22.31
884.759	21.14
884.927	21.56
885.096	21.86
885.264	21.21
885.432	21.92
885.6	20.72
885.769	20.32
885.937	20.72
886.105	20.09
886.273	18.78
886.441	19.77
886.609	20.66
886.777	17.66
886.945	16.57
887.113	18.11
887.281	17.1
887.449	19.09
887.617	19.74
887.785	18.22
887.953	20.44
888.121	20.98
888.289	17.48
888.457	21.24
888.625	26
888.793	27.31
888.961	27.16
889.129	26.13
889.296	26.63
889.464	27.58
889.632	29.51
889.8	29.94
889.967	29.53
890.135	36.42
