Data from 2938767__Reflection_02.txt Node
Date: Fri Mar 13 15:47:59 EDT 2015
User: robert
Spectrometer: USB4E03002
Autoset integration time: false
Trigger mode: 4
Integration Time (sec): 1.000000E-1
Scans to average: 10
Electric dark correction enabled: false
Nonlinearity correction enabled: false
Boxcar width: 5
Stray light correction enabled: false
XAxis mode: Wavelengths
Stop averaging: false
Number of Pixels in Spectrum: 3648
>>>>>Begin Spectral Data<<<<<
177.575	-183.7
177.794	-1166.67
178.014	-1007.69
178.233	-295.65
178.452	-700
178.672	49.32
178.891	224.19
179.11	747.06
179.33	-6028.57
179.549	-5940
179.768	368.64
179.987	194.52
180.207	135.87
180.426	100
180.645	66.11
180.864	43.42
181.084	46.78
181.303	21.24
181.522	-23.18
181.741	-39.46
181.96	-21.63
182.179	-26.16
182.398	-15.24
182.618	-9.69
182.837	4.26
183.056	-36.02
183.275	-32.35
183.494	-13.61
183.713	15.53
183.932	9.48
184.151	23.03
184.37	12.98
184.589	13.26
184.808	13.54
185.027	1.79
185.246	0.55
185.465	-16.4
185.684	-22.91
185.903	-18.15
186.122	0.95
186.341	13.78
186.56	15.56
186.779	17.07
186.998	7.37
187.216	-13.26
187.435	-1.22
187.654	-12.04
187.873	18.22
188.092	61.27
188.311	13.57
188.53	-23.26
188.748	-15.35
188.967	-49.16
189.186	-175.48
189.405	-411.39
189.623	-118.27
189.842	-108.58
190.061	-118.77
190.28	-167.14
190.498	-268.07
190.717	-170.81
190.936	-354.3
191.154	-257.34
191.373	-157.09
191.592	-86.01
191.81	-49.66
192.029	-21.53
192.248	15.98
192.466	18.34
192.685	25.23
192.904	19.13
193.122	-11.65
193.341	27.63
193.559	14.72
193.778	10.28
193.996	21.47
194.215	13.73
194.433	16.32
194.652	-80
194.87	-153.21
195.089	-422.76
195.307	-296.17
195.526	-99.24
195.744	-124.86
195.963	-117.51
196.181	-128.1
196.399	-122.55
196.618	-111.85
196.836	-238.53
197.055	-238.03
197.273	-98.59
197.491	-66.89
197.71	-50.63
197.928	-50.21
198.146	-41.07
198.365	-15.96
198.583	-27.32
198.801	-0.94
199.019	10.01
199.238	14.79
199.456	30.88
199.674	32.82
199.892	15.75
200.111	14.41
200.329	31.27
200.547	44.73
200.765	22.75
200.983	28.01
201.202	7.63
201.42	-21.37
201.638	-21.36
201.856	-30.87
202.074	-30.08
202.292	3.08
202.51	-18.45
202.728	-30.66
202.946	-18.63
203.165	-25.9
203.383	-43.11
203.601	-49.49
203.819	-58.29
204.037	-74.09
204.255	-84.91
204.473	-73.59
204.691	-144.69
204.909	-64.25
205.127	-107.05
205.345	-197.78
205.562	-109.11
205.78	-128.79
205.998	-70.81
206.216	-54.97
206.434	-36.88
206.652	-47.39
206.87	-41.44
207.088	-16.1
207.306	-36.6
207.523	-19.69
207.741	-11.77
207.959	-11.54
208.177	-23.94
208.395	-41.36
208.612	-34.5
208.83	-61.38
209.048	-112.16
209.266	-281.18
209.483	-169.39
209.701	-105.22
209.919	-209.45
210.136	-140.65
210.354	-164.8
210.572	-78.28
210.79	-50.69
211.007	-55.84
211.225	-46.98
211.442	-47.14
211.66	-43.11
211.878	-37.69
212.095	-31.8
212.313	7.51
212.53	9.14
212.748	9.66
212.966	12.75
213.183	7.56
213.401	15.75
213.618	16.05
213.836	16.98
214.053	17.87
214.271	18.52
214.488	11.82
214.705	6.53
214.923	11.17
215.14	10.37
215.358	15.44
215.575	19.22
215.793	16.63
216.01	14.86
216.227	21.52
216.445	21.9
216.662	16.52
216.879	16.44
217.097	21.45
217.314	20.39
217.531	21.81
217.749	16.11
217.966	6.62
218.183	-1.23
218.4	5.05
218.618	5.87
218.835	2.59
219.052	9.53
219.269	5.57
219.487	-9.92
219.704	-10.79
219.921	-13
220.138	-10.24
220.355	-9.5
220.572	-17.66
220.79	-26.48
221.007	-43.37
221.224	-41.57
221.441	-37.82
221.658	-25.44
221.875	-17.65
222.092	-17.86
222.309	-9.42
222.526	-11.25
222.743	-11.16
222.96	-8.97
223.177	-7.31
223.394	-3.49
223.611	2.02
223.828	3.23
224.045	-3.38
224.262	-6.23
224.479	-2.44
224.696	-6.26
224.913	-9.18
225.13	-7.73
225.347	-2.57
225.564	-2.48
225.781	-0.66
225.997	-6.12
226.214	-3.67
226.431	-1.24
226.648	-0.65
226.865	-1.13
227.082	-2.32
227.298	-1.12
227.515	-0.64
227.732	-0.84
227.949	-0.91
228.165	-0.67
228.382	0.25
228.599	0.47
228.816	0.7
229.032	0.52
229.249	0.32
229.466	0.56
229.682	1.09
229.899	1.66
230.116	1.38
230.332	2.49
230.549	2.56
230.765	3.04
230.982	3.08
231.199	2.69
231.415	1.74
231.632	1.58
231.848	1.48
232.065	0.83
232.281	0.89
232.498	1.19
232.714	-1.14
232.931	-0.41
233.147	-0.59
233.364	-0.7
233.58	-0.41
233.797	1.46
234.013	1.47
234.23	2.76
234.446	2.31
234.662	1.15
234.879	2.21
235.095	1.94
235.312	0.29
235.528	0.39
235.744	-0.46
235.961	-0.68
236.177	-1.42
236.393	-0.12
236.61	-1.06
236.826	-0.4
237.042	-1.12
237.258	-2.35
237.475	-0.98
237.691	0.44
237.907	-0.5
238.123	1.02
238.339	1.24
238.556	1.63
238.772	1.82
238.988	1.63
239.204	1.19
239.42	1.75
239.636	2.26
239.853	0.95
240.069	0.62
240.285	1.25
240.501	0.08
240.717	0.26
240.933	0.2
241.149	-0.23
241.365	0.17
241.581	0.01
241.797	0.22
242.013	0.05
242.229	0.79
242.445	0.56
242.661	0.57
242.877	1.18
243.093	1.18
243.309	1.67
243.525	1.57
243.741	1.66
243.957	1.66
244.173	1.12
244.388	1.23
244.604	0.94
244.82	1.69
245.036	1.41
245.252	1.19
245.468	1.04
245.683	1.25
245.899	1.64
246.115	1.64
246.331	1.95
246.547	2.07
246.762	1.94
246.978	2.01
247.194	1.86
247.409	1.94
247.625	1.85
247.841	1.99
248.057	1.63
248.272	1.37
248.488	1.17
248.703	0.86
248.919	1.03
249.135	0.82
249.35	0.77
249.566	0.29
249.782	0.28
249.997	-0.07
250.213	-0.04
250.428	0.83
250.644	0.94
250.859	1.11
251.075	1.3
251.29	1.17
251.506	1.36
251.721	1.52
251.937	1.49
252.152	1.48
252.368	1.85
252.583	1.04
252.798	0.3
253.014	0.47
253.229	0.32
253.445	0.53
253.66	0.92
253.875	1.36
254.091	0.56
254.306	1.41
254.521	0.78
254.737	0.19
254.952	0.66
255.167	1.33
255.383	0.43
255.598	-0.37
255.813	-1.4
256.028	-2.32
256.244	-3.14
256.459	-2.77
256.674	-3.51
256.889	-2.17
257.104	-1.8
257.32	-0.72
257.535	-1.01
257.75	-0.3
257.965	0.63
258.18	1.44
258.395	1.81
258.61	2.06
258.826	1.96
259.041	2.16
259.256	1.76
259.471	1.6
259.686	1.48
259.901	1.54
260.116	1.41
260.331	1.52
260.546	1.42
260.761	1.24
260.976	1.28
261.191	1.67
261.406	1.79
261.621	1.94
261.836	2.15
262.05	1.9
262.265	1.7
262.48	2.19
262.695	1.82
262.91	1.93
263.125	2.11
263.34	1.45
263.555	0.71
263.769	0.42
263.984	-0.11
264.199	0.13
264.414	0.41
264.629	0.75
264.843	0.57
265.058	0.73
265.273	0.69
265.488	0.56
265.702	0.61
265.917	0.65
266.132	0.35
266.346	0.41
266.561	0.44
266.776	0.49
266.99	0.28
267.205	-0.02
267.42	0.15
267.634	-0.08
267.849	-0.36
268.063	-0.5
268.278	-0.3
268.492	0
268.707	0.46
268.922	-0.28
269.136	-0.71
269.351	-0.69
269.565	-0.56
269.78	-0.76
269.994	-0.81
270.209	-0.47
270.423	0
270.637	0.47
270.852	0.27
271.066	0.05
271.281	0.63
271.495	0.98
271.709	1.16
271.924	1.24
272.138	1.17
272.353	1.32
272.567	1.36
272.781	1.41
272.996	1.15
273.21	1.37
273.424	1.26
273.638	0.81
273.853	0.66
274.067	0.75
274.281	0.79
274.495	0.47
274.71	0.23
274.924	0.23
275.138	0.21
275.352	0.2
275.566	0.34
275.781	0.94
275.995	1.52
276.209	1.72
276.423	1.58
276.637	1.31
276.851	1.66
277.065	1.99
277.279	1.78
277.493	1.87
277.707	1.56
277.921	1.09
278.135	0.47
278.349	0.06
278.563	-0.11
278.777	-0.13
278.991	0.27
279.205	-0.05
279.419	0.13
279.633	0.37
279.847	0.47
280.061	0.73
280.275	1.14
280.489	1.04
280.703	0.89
280.917	1.22
281.131	1.14
281.344	0.67
281.558	0.83
281.772	0.87
281.986	0.84
282.2	0.95
282.414	1.07
282.627	0.97
282.841	1.29
283.055	1.75
283.269	1.56
283.482	1.67
283.696	1.59
283.91	1.56
284.123	1.46
284.337	1.45
284.551	1.12
284.764	1.03
284.978	1.05
285.192	0.96
285.405	0.62
285.619	0.73
285.833	0.84
286.046	1.05
286.26	1.03
286.473	0.81
286.687	0.81
286.9	0.71
287.114	0.85
287.327	0.64
287.541	0.46
287.754	0.59
287.968	0.33
288.181	0.1
288.395	0.4
288.608	0.54
288.822	0.54
289.035	0.48
289.248	0.48
289.462	0.36
289.675	0.6
289.889	0.65
290.102	0.79
290.315	0.62
290.529	0.92
290.742	0.44
290.955	0.37
291.169	0.71
291.382	0.93
291.595	1
291.808	0.73
292.022	0.49
292.235	0.42
292.448	0.16
292.661	0.33
292.875	0.07
293.088	0.43
293.301	0.48
293.514	0.22
293.727	-0.28
293.94	-0.45
294.153	-0.12
294.367	0.03
294.58	0.19
294.793	0.27
295.006	0.37
295.219	0.33
295.432	0.3
295.645	0.14
295.858	0.08
296.071	0.62
296.284	0.99
296.497	0.93
296.71	0.81
296.923	0.95
297.136	1.02
297.349	1.02
297.562	1.1
297.775	1.19
297.988	1.39
298.201	1.48
298.414	1.13
298.626	1.38
298.839	1.29
299.052	1.37
299.265	1.53
299.478	1.15
299.691	1.31
299.903	1.19
300.116	1.02
300.329	0.99
300.542	0.98
300.755	1.35
300.967	0.96
301.18	0.83
301.393	0.99
301.605	0.89
301.818	0.99
302.031	0.8
302.243	0.89
302.456	1.15
302.669	0.95
302.881	0.92
303.094	1.11
303.307	1.13
303.519	1.34
303.732	1.44
303.944	1.15
304.157	1.71
304.37	1.93
304.582	1.94
304.795	1.74
305.007	2.35
305.22	2.24
305.432	1.86
305.645	1.83
305.857	1.73
306.069	1.78
306.282	2.3
306.494	2.06
306.707	1.76
306.919	1.55
307.132	1.36
307.344	1.1
307.556	1.32
307.769	1.29
307.981	0.93
308.193	1.21
308.406	0.98
308.618	0.66
308.83	0.86
309.043	1.11
309.255	1.18
309.467	1.32
309.679	1.07
309.892	1.18
310.104	1.23
310.316	1.7
310.528	1.42
310.74	1.73
310.953	1.92
311.165	2.13
311.377	1.97
311.589	2.12
311.801	2.41
312.013	2.57
312.225	2.58
312.437	2.54
312.649	2.68
312.862	2.75
313.074	2.45
313.286	2.22
313.498	2.14
313.71	2.03
313.922	2.12
314.134	1.8
314.346	1.76
314.558	1.62
314.77	1.72
314.982	1.8
315.193	2.13
315.405	2.1
315.617	2.27
315.829	2.47
316.041	2.71
316.253	2.6
316.465	2.64
316.677	2.48
316.888	2.78
317.1	2.9
317.312	2.6
317.524	2.57
317.736	2.9
317.947	2.64
318.159	2.39
318.371	2.74
318.583	2.63
318.794	2.32
319.006	2.7
319.218	2.69
319.43	2.2
319.641	2.12
319.853	2.52
320.064	2.46
320.276	2.82
320.488	3.17
320.699	3.32
320.911	3.34
321.123	4.02
321.334	4.47
321.546	4.53
321.757	5.15
321.969	5.75
322.18	5.13
322.392	4.98
322.603	5.31
322.815	5.17
323.026	4.96
323.238	5.81
323.449	6.11
323.661	5.88
323.872	6.14
324.083	6.26
324.295	5.89
324.506	6.18
324.718	6.55
324.929	6.68
325.14	6.9
325.352	7.12
325.563	7
325.774	6.93
325.986	7.11
326.197	7.22
326.408	7.31
326.62	7.79
326.831	8.19
327.042	8.28
327.253	8.72
327.464	9.04
327.676	9.38
327.887	9.85
328.098	10.42
328.309	10.72
328.52	10.9
328.732	11.74
328.943	12.02
329.154	12.36
329.365	12.84
329.576	12.92
329.787	13.09
329.998	13.79
330.209	13.93
330.42	14.07
330.631	14.61
330.842	15.35
331.053	15.45
331.264	15.83
331.475	16.41
331.686	16.99
331.897	17.58
332.108	17.96
332.319	18.1
332.53	18.02
332.741	18.25
332.952	18.17
333.163	17.96
333.374	18.18
333.585	18.33
333.795	18.17
334.006	18.41
334.217	18.24
334.428	18.55
334.639	18.69
334.849	18.94
335.06	19.18
335.271	19.44
335.482	19.93
335.692	20.34
335.903	20.61
336.114	20.89
336.325	21.08
336.535	21.47
336.746	21.17
336.957	20.84
337.167	21.17
337.378	21.56
337.589	21.74
337.799	21.76
338.01	21.71
338.22	21.78
338.431	21.91
338.642	22
338.852	21.94
339.063	22.2
339.273	22.79
339.484	22.69
339.694	22.49
339.905	22.45
340.115	22.58
340.326	22.33
340.536	22.37
340.746	22.57
340.957	22.44
341.167	22.52
341.378	22.94
341.588	22.64
341.799	22.73
342.009	22.76
342.219	22.9
342.43	22.74
342.64	23.12
342.85	23.3
343.061	23.4
343.271	23.6
343.481	23.61
343.691	23.63
343.902	23.97
344.112	23.86
344.322	23.9
344.532	23.87
344.743	24
344.953	23.91
345.163	23.65
345.373	23.64
345.583	23.58
345.793	23.56
346.004	23.55
346.214	23.29
346.424	23.49
346.634	23.59
346.844	23.57
347.054	23.49
347.264	23.57
347.474	23.9
347.684	23.97
347.894	23.92
348.104	24.03
348.314	23.72
348.524	23.98
348.734	24.06
348.944	23.93
349.154	24.08
349.364	24.42
349.574	24.41
349.784	24.46
349.994	24.06
350.204	23.95
350.413	23.66
350.623	23.67
350.833	23.51
351.043	23.29
351.253	23.17
351.463	23.18
351.672	22.61
351.882	22.23
352.092	21.97
352.302	22.16
352.511	22.6
352.721	22.44
352.931	22.46
353.141	22.5
353.35	22.33
353.56	22.38
353.77	22.27
353.979	22.5
354.189	22.73
354.399	22.79
354.608	22.61
354.818	22.12
355.027	22.38
355.237	22.22
355.447	22.29
355.656	22.68
355.866	22.69
356.075	22.64
356.285	22.61
356.494	22.71
356.704	22.68
356.913	22.84
357.123	22.82
357.332	22.94
357.542	23.08
357.751	23.17
357.96	23.04
358.17	22.99
358.379	23.11
358.589	23.17
358.798	23.25
359.007	23.16
359.217	23.07
359.426	23.2
359.635	22.97
359.845	22.85
360.054	22.74
360.263	22.7
360.472	22.82
360.682	22.65
360.891	22.67
361.1	22.37
361.309	22.36
361.519	22.33
361.728	22.31
361.937	22.25
362.146	22.38
362.355	22.29
362.564	22.37
362.774	22.23
362.983	22.19
363.192	22.06
363.401	22.4
363.61	22.33
363.819	22.31
364.028	22.2
364.237	22.4
364.446	22.17
364.655	22.22
364.864	22.14
365.073	21.91
365.282	21.89
365.491	21.9
365.7	21.7
365.909	21.48
366.118	21.45
366.327	21.45
366.536	21.44
366.745	21.47
366.954	21.56
367.162	21.79
367.371	22.01
367.58	22.12
367.789	21.97
367.998	21.9
368.207	22.31
368.415	22.33
368.624	22.27
368.833	22.15
369.042	22.07
369.25	21.75
369.459	21.44
369.668	21.34
369.877	21.45
370.085	21.31
370.294	21.27
370.503	21.02
370.711	20.96
370.92	20.9
371.129	20.69
371.337	20.79
371.546	21.01
371.754	20.87
371.963	20.98
372.171	20.76
372.38	20.85
372.589	20.73
372.797	20.61
373.006	20.67
373.214	20.76
373.423	20.89
373.631	20.85
373.84	20.63
374.048	20.54
374.256	20.5
374.465	20.42
374.673	20.27
374.882	20.36
375.09	20.59
375.298	20.64
375.507	20.75
375.715	20.8
375.923	20.81
376.132	20.73
376.34	20.77
376.548	20.46
376.757	20.47
376.965	20.68
377.173	20.59
377.381	20.34
377.59	20.19
377.798	19.99
378.006	19.8
378.214	19.81
378.423	19.9
378.631	19.83
378.839	19.99
379.047	19.93
379.255	19.8
379.463	19.82
379.671	20.17
379.879	20.28
380.088	20.23
380.296	20.39
380.504	20.31
380.712	20.18
380.92	20.36
381.128	20.28
381.336	20.47
381.544	20.41
381.752	20.58
381.96	20.46
382.168	20.43
382.376	20.23
382.584	19.92
382.791	19.98
382.999	19.8
383.207	19.74
383.415	19.85
383.623	19.79
383.831	19.8
384.039	19.58
384.247	19.39
384.454	19.19
384.662	19.32
384.87	19.5
385.078	19.33
385.285	19.45
385.493	19.43
385.701	19.29
385.909	19.05
386.116	19
386.324	19.09
386.532	19.18
386.739	19.16
386.947	19.33
387.155	19.11
387.362	19.3
387.57	19.18
387.778	19.09
387.985	19.06
388.193	19.12
388.4	19.15
388.608	18.98
388.816	18.74
389.023	18.66
389.231	18.59
389.438	18.78
389.646	18.56
389.853	18.53
390.061	18.48
390.268	18.39
390.475	18.44
390.683	18.39
390.89	18.16
391.098	18.23
391.305	18.29
391.512	18.09
391.72	18.05
391.927	17.9
392.135	17.87
392.342	17.95
392.549	17.93
392.756	17.95
392.964	17.96
393.171	18.14
393.378	18.09
393.586	18.04
393.793	18.05
394	18.04
394.207	18.12
394.414	18.15
394.622	17.98
394.829	18.15
395.036	17.94
395.243	17.87
395.45	17.76
395.657	17.73
395.864	17.61
396.072	17.45
396.279	17.37
396.486	17.32
396.693	17.42
396.9	17.56
397.107	17.47
397.314	17.56
397.521	17.6
397.728	17.54
397.935	17.77
398.142	17.87
398.349	17.87
398.556	17.8
398.763	17.88
398.97	17.84
399.177	17.77
399.383	17.84
399.59	17.83
399.797	17.76
400.004	17.8
400.211	17.6
400.418	17.52
400.625	17.68
400.831	17.59
401.038	17.5
401.245	17.35
401.452	17.24
401.658	16.99
401.865	17.06
402.072	17.08
402.279	17.13
402.485	17.24
402.692	17.45
402.899	17.38
403.105	17.59
403.312	17.74
403.519	17.56
403.725	17.54
403.932	17.63
404.138	17.49
404.345	17.48
404.552	17.49
404.758	17.29
404.965	17.18
405.171	17.21
405.378	17.16
405.584	16.89
405.791	16.97
405.997	17.03
406.204	17
406.41	17.01
406.617	16.81
406.823	16.68
407.029	16.91
407.236	16.77
407.442	16.7
407.649	16.65
407.855	16.82
408.061	16.97
408.268	16.89
408.474	16.81
408.68	16.77
408.887	16.81
409.093	16.83
409.299	16.72
409.505	16.73
409.712	16.71
409.918	16.78
410.124	16.73
410.33	16.61
410.537	16.44
410.743	16.52
410.949	16.47
411.155	16.51
411.361	16.34
411.567	16.24
411.773	16.2
411.98	16.29
412.186	16.21
412.392	16.07
412.598	16.27
412.804	16.31
413.01	16.16
413.216	16.27
413.422	16.37
413.628	16.42
413.834	16.29
414.04	16.3
414.246	16.27
414.452	16.07
414.658	16.04
414.864	15.92
415.07	16.02
415.275	16.05
415.481	15.95
415.687	15.81
415.893	15.9
416.099	16.1
416.305	16.05
416.511	15.81
416.716	15.85
416.922	15.98
417.128	15.97
417.334	16.09
417.539	16.13
417.745	16.11
417.951	16.25
418.157	16.18
418.362	16.02
418.568	16.07
418.774	16.06
418.979	16.01
419.185	15.87
419.391	15.91
419.596	15.83
419.802	15.77
420.008	15.78
420.213	15.07
420.419	15.06
420.624	15.07
420.83	15.06
421.035	15.07
421.241	15.16
421.446	15.16
421.652	15.05
421.857	14.98
422.063	14.98
422.268	14.96
422.474	15.5
422.679	15.54
422.885	15.53
423.09	15.47
423.295	15.53
423.501	15.48
423.706	15.6
423.911	15.6
424.117	15.59
424.322	15.59
424.527	15.58
424.733	15.53
424.938	15.46
425.143	15.46
425.349	15.53
425.554	15.54
425.759	15.57
425.964	15.5
426.169	15.54
426.375	15.6
426.58	15.56
426.785	15.57
426.99	15.6
427.195	15.61
427.4	15.67
427.605	15.63
427.811	15.58
428.016	15.52
428.221	15.58
428.426	15.56
428.631	15.5
428.836	15.55
429.041	15.57
429.246	15.55
429.451	15.63
429.656	15.51
429.861	15.52
430.066	15.5
430.271	15.52
430.476	15.34
430.681	15.31
430.886	15.24
431.09	15.24
431.295	15.22
431.5	15.34
431.705	15.3
431.91	15.31
432.115	15.22
432.32	15.16
432.524	15.17
432.729	15.29
432.934	15.41
433.139	15.51
433.343	15.56
433.548	15.56
433.753	15.51
433.958	15.61
434.162	15.7
434.367	15.76
434.572	15.92
434.776	15.95
434.981	16
435.186	16.02
435.39	16.02
435.595	16.02
435.799	16
436.004	15.95
436.209	15.87
436.413	15.82
436.618	15.83
436.822	15.74
437.027	15.7
437.231	15.61
437.436	15.47
437.64	15.46
437.845	15.39
438.049	15.41
438.253	15.48
438.458	15.56
438.662	15.62
438.867	15.59
439.071	15.62
439.275	15.67
439.48	15.67
439.684	15.7
439.888	15.7
440.093	15.67
440.297	15.69
440.501	15.77
440.706	15.59
440.91	15.56
441.114	15.57
441.318	15.58
441.523	15.53
441.727	15.54
441.931	15.58
442.135	15.62
442.339	15.69
442.543	15.67
442.748	15.62
442.952	15.74
443.156	15.72
443.36	15.78
443.564	15.71
443.768	15.77
443.972	15.76
444.176	15.73
444.38	15.71
444.584	15.6
444.788	15.6
444.992	15.58
445.196	15.61
445.4	15.61
445.604	15.65
445.808	15.69
446.012	15.6
446.216	15.57
446.42	15.55
446.624	15.54
446.828	15.54
447.032	15.49
447.235	15.47
447.439	15.43
447.643	15.41
447.847	15.34
448.051	15.36
448.254	15.41
448.458	15.42
448.662	15.42
448.866	15.48
449.069	15.64
449.273	15.8
449.477	15.87
449.681	15.88
449.884	15.88
450.088	15.86
450.292	15.79
450.495	15.84
450.699	15.83
450.902	15.77
451.106	15.73
451.31	15.64
451.513	15.51
451.717	15.34
451.92	15.42
452.124	15.5
452.327	15.62
452.531	15.67
452.734	15.6
452.938	15.69
453.141	15.67
453.345	15.68
453.548	15.7
453.752	15.77
453.955	15.88
454.158	15.83
454.362	15.73
454.565	15.74
454.769	15.8
454.972	15.75
455.175	15.7
455.379	15.67
455.582	15.63
455.785	15.69
455.988	15.59
456.192	15.62
456.395	15.54
456.598	15.57
456.801	15.45
457.005	15.4
457.208	15.52
457.411	15.42
457.614	15.51
457.817	15.5
458.021	15.35
458.224	15.33
458.427	15.31
458.63	15.39
458.833	15.38
459.036	15.41
459.239	15.39
459.442	15.39
459.645	15.49
459.848	15.46
460.051	15.45
460.254	15.49
460.457	15.55
460.66	15.55
460.863	15.51
461.066	15.55
461.269	15.57
461.472	15.55
461.675	15.55
461.878	15.55
462.081	15.64
462.284	15.66
462.486	15.67
462.689	15.64
462.892	15.67
463.095	15.74
463.298	15.76
463.5	15.73
463.703	15.74
463.906	15.71
464.109	15.63
464.311	15.57
464.514	15.53
464.717	15.5
464.92	15.62
465.122	15.63
465.325	15.58
465.528	15.54
465.73	15.54
465.933	15.65
466.135	15.62
466.338	15.72
466.541	15.72
466.743	15.74
466.946	15.81
467.148	15.78
467.351	15.79
467.553	15.89
467.756	15.9
467.958	15.94
468.161	15.92
468.363	15.97
468.566	15.94
468.768	15.91
468.971	16
469.173	15.92
469.375	15.94
469.578	16.01
469.78	15.92
469.983	15.93
470.185	15.95
470.387	15.95
470.59	15.98
470.792	15.93
470.994	16
471.196	16.01
471.399	16.14
471.601	16.15
471.803	16.09
472.005	16.19
472.208	16.2
472.41	16.29
472.612	16.29
472.814	16.29
473.016	16.25
473.218	16.27
473.421	16.32
473.623	16.27
473.825	16.3
474.027	16.4
474.229	16.41
474.431	16.5
474.633	16.32
474.835	16.38
475.037	16.38
475.239	16.46
475.441	16.48
475.643	16.39
475.845	16.4
476.047	16.3
476.249	16.23
476.451	16.25
476.653	16.12
476.855	16.17
477.057	16.1
477.258	16.24
477.46	16.23
477.662	16.2
477.864	16.25
478.066	16.28
478.268	16.32
478.469	16.27
478.671	16.18
478.873	16.24
479.075	16.28
479.276	16.26
479.478	16.16
479.68	16.2
479.882	16.22
480.083	16.14
480.285	16.13
480.487	16.11
480.688	16.26
480.89	16.24
481.091	16.17
481.293	16.13
481.495	16.14
481.696	16.09
481.898	16.09
482.099	16.07
482.301	16.07
482.502	15.99
482.704	15.95
482.905	15.88
483.107	15.86
483.308	15.87
483.51	15.85
483.711	15.81
483.913	15.78
484.114	15.76
484.315	15.74
484.517	15.73
484.718	15.72
484.92	15.7
485.121	15.7
485.322	15.67
485.524	15.66
485.725	15.7
485.926	15.73
486.127	15.78
486.329	15.74
486.53	15.77
486.731	15.77
486.932	15.8
487.134	15.83
487.335	15.82
487.536	15.86
487.737	15.89
487.938	15.88
488.139	15.9
488.341	15.93
488.542	15.99
488.743	15.97
488.944	15.99
489.145	15.99
489.346	16.07
489.547	16.07
489.748	16.09
489.949	16.1
490.15	16.13
490.351	16.08
490.552	16.05
490.753	16.08
490.954	16.09
491.155	16.1
491.356	16.11
491.557	16.07
491.758	16.12
491.959	16.11
492.159	16.13
492.36	16.1
492.561	16.13
492.762	16.15
492.963	16.18
493.164	16.2
493.364	16.23
493.565	16.28
493.766	16.36
493.967	16.4
494.167	16.45
494.368	16.43
494.569	16.45
494.769	16.54
494.97	16.67
495.171	16.65
495.371	16.74
495.572	16.79
495.773	16.78
495.973	16.75
496.174	16.78
496.375	16.84
496.575	16.9
496.776	16.95
496.976	16.95
497.177	16.91
497.377	16.87
497.578	16.86
497.778	16.91
497.979	17.01
498.179	17.02
498.38	17.08
498.58	17.09
498.78	17.12
498.981	17.12
499.181	17.17
499.382	17.21
499.582	17.31
499.782	17.44
499.983	17.49
500.183	17.52
500.383	17.64
500.584	17.61
500.784	17.71
500.984	17.8
501.184	17.96
501.385	18.01
501.585	18.07
501.785	18.1
501.985	18.06
502.185	18.02
502.386	18.06
502.586	18.06
502.786	18.15
502.986	18.21
503.186	18.26
503.386	18.34
503.586	18.34
503.786	18.4
503.987	18.5
504.187	18.48
504.387	18.57
504.587	18.57
504.787	18.6
504.987	18.64
505.187	18.59
505.387	18.61
505.587	18.6
505.786	18.69
505.986	18.71
506.186	18.69
506.386	18.72
506.586	18.77
506.786	18.8
506.986	18.78
507.186	18.81
507.386	18.94
507.585	18.99
507.785	19.03
507.985	19.04
508.185	19.06
508.384	19.17
508.584	19.3
508.784	19.38
508.984	19.47
509.183	19.61
509.383	19.64
509.583	19.7
509.782	19.76
509.982	19.77
510.182	19.86
510.381	20.02
510.581	20.06
510.781	20.11
510.98	20.16
511.18	20.18
511.379	20.22
511.579	20.38
511.778	20.32
511.978	20.42
512.177	20.53
512.377	20.61
512.576	20.61
512.776	20.68
512.975	20.78
513.175	20.79
513.374	20.88
513.573	21
513.773	20.96
513.972	21.17
514.172	21.14
514.371	21.2
514.57	21.31
514.77	21.37
514.969	21.44
515.168	21.46
515.367	21.5
515.567	21.64
515.766	21.64
515.965	21.81
516.164	21.78
516.364	21.94
516.563	21.94
516.762	21.87
516.961	21.93
517.16	21.93
517.359	22.02
517.559	22.1
517.758	22.14
517.957	22.22
518.156	22.23
518.355	22.27
518.554	22.26
518.753	22.38
518.952	22.52
519.151	22.6
519.35	22.65
519.549	22.71
519.748	22.77
519.947	22.85
520.146	22.95
520.345	22.97
520.544	23.11
520.743	23.22
520.942	23.28
521.141	23.28
521.339	23.37
521.538	23.55
521.737	23.56
521.936	23.65
522.135	23.71
522.333	23.65
522.532	23.78
522.731	23.88
522.93	23.97
523.129	24.06
523.327	24.17
523.526	24.12
523.725	24.09
523.923	24.25
524.122	24.33
524.321	24.36
524.519	24.44
524.718	24.44
524.917	24.4
525.115	24.46
525.314	24.5
525.512	24.5
525.711	24.6
525.909	24.62
526.108	24.64
526.306	24.59
526.505	24.6
526.703	24.58
526.902	24.6
527.1	24.67
527.299	24.7
527.497	24.62
527.696	24.71
527.894	24.7
528.092	24.7
528.291	24.66
528.489	24.66
528.688	24.71
528.886	24.71
529.084	24.72
529.283	24.73
529.481	24.71
529.679	24.8
529.877	24.8
530.076	24.8
530.274	24.89
530.472	24.95
530.67	25.04
530.869	25.09
531.067	25.2
531.265	25.29
531.463	25.4
531.661	25.52
531.859	25.51
532.057	25.55
532.255	25.56
532.454	25.57
532.652	25.64
532.85	25.6
533.048	25.63
533.246	25.69
533.444	25.68
533.642	25.58
533.84	25.57
534.038	25.66
534.236	25.68
534.434	25.75
534.632	25.82
534.83	25.8
535.027	25.95
535.225	25.98
535.423	26.01
535.621	26.06
535.819	26.15
536.017	26.2
536.215	26.24
536.412	26.32
536.61	26.43
536.808	26.45
537.006	26.54
537.203	26.59
537.401	26.59
537.599	26.67
537.797	26.73
537.994	26.91
538.192	26.92
538.39	27.03
538.587	27.16
538.785	27.22
538.983	27.31
539.18	27.45
539.378	27.5
539.575	27.62
539.773	27.67
539.97	27.77
540.168	27.82
540.366	27.9
540.563	27.88
540.761	27.83
540.958	27.86
541.155	27.9
541.353	27.87
541.55	27.92
541.748	27.92
541.945	27.96
542.143	27.98
542.34	27.98
542.537	28.02
542.735	28.12
542.932	28.17
543.129	28.26
543.327	28.45
543.524	28.65
543.721	28.85
543.919	29.17
544.116	29.37
544.313	29.67
544.51	30.03
544.708	30.35
544.905	30.61
545.102	30.96
545.299	31.2
545.496	31.35
545.693	31.42
545.891	31.45
546.088	31.36
546.285	31.31
546.482	31.19
546.679	30.93
546.876	30.76
547.073	30.62
547.27	30.47
547.467	30.29
547.664	30.09
547.861	29.96
548.058	29.9
548.255	29.79
548.452	29.78
548.649	29.73
548.846	29.77
549.043	29.68
549.24	29.66
549.437	29.53
549.633	29.44
549.83	29.35
550.027	29.39
550.224	29.27
550.421	29.22
550.618	29.05
550.814	28.93
551.011	28.84
551.208	28.75
551.405	28.63
551.601	28.6
551.798	28.5
551.995	28.48
552.191	28.37
552.388	28.32
552.585	28.3
552.781	28.37
552.978	28.38
553.175	28.46
553.371	28.51
553.568	28.47
553.764	28.48
553.961	28.58
554.157	28.57
554.354	28.53
554.55	28.53
554.747	28.48
554.943	28.43
555.14	28.33
555.336	28.24
555.533	28.25
555.729	28.32
555.926	28.27
556.122	28.21
556.318	28.19
556.515	28.34
556.711	28.41
556.907	28.57
557.104	28.58
557.3	28.68
557.496	28.61
557.693	28.49
557.889	28.54
558.085	28.62
558.281	28.64
558.478	28.74
558.674	28.61
558.87	28.63
559.066	28.55
559.262	28.67
559.459	28.72
559.655	28.84
559.851	28.99
560.047	29.11
560.243	29
560.439	28.96
560.635	28.88
560.831	28.91
561.027	28.87
561.223	28.83
561.419	28.73
561.615	28.67
561.811	28.7
562.007	28.62
562.203	28.34
562.399	28.35
562.595	28.34
562.791	28.35
562.987	28.34
563.183	28.26
563.379	28.3
563.575	28.26
563.771	28.24
563.966	28.17
564.162	28.31
564.358	28.3
564.554	28.26
564.75	28.28
564.945	28.23
565.141	28.25
565.337	28.28
565.533	28.31
565.728	28.3
565.924	28.24
566.12	28.27
566.315	28.2
566.511	28.32
566.707	28.46
566.902	28.54
567.098	28.64
567.293	28.74
567.489	28.79
567.684	28.69
567.88	28.73
568.076	28.81
568.271	28.81
568.467	28.78
568.662	28.74
568.858	28.69
569.053	28.63
569.248	28.62
569.444	28.47
569.639	28.41
569.835	28.48
570.03	28.51
570.225	28.51
570.421	28.53
570.616	28.52
570.812	28.52
571.007	28.54
571.202	28.53
571.397	28.55
571.593	28.6
571.788	28.63
571.983	28.65
572.178	28.55
572.374	28.62
572.569	28.58
572.764	28.57
572.959	28.58
573.154	28.59
573.35	28.62
573.545	28.54
573.74	28.58
573.935	28.55
574.13	28.54
574.325	28.68
574.52	28.78
574.715	28.93
574.91	29.05
575.105	29.12
575.3	29.16
575.495	29.32
575.69	29.51
575.885	29.66
576.08	29.83
576.275	30
576.47	30.26
576.665	30.24
576.86	30.39
577.055	30.5
577.25	30.69
577.444	30.87
577.639	30.91
577.834	31.13
578.029	31.18
578.224	31.18
578.418	31.25
578.613	31.24
578.808	31.26
579.003	31.16
579.197	31.18
579.392	31.12
579.587	31.08
579.781	31.12
579.976	30.94
580.171	30.92
580.365	31.09
580.56	31
580.755	30.99
580.949	31.1
581.144	31.03
581.338	31.15
581.533	31.27
581.727	31.41
581.922	31.41
582.116	31.53
582.311	31.74
582.505	31.68
582.7	31.9
582.894	31.85
583.089	31.86
583.283	32.03
583.478	31.93
583.672	31.92
583.866	31.82
584.061	31.65
584.255	31.53
584.449	31.48
584.644	31.56
584.838	31.6
585.032	31.68
585.226	31.68
585.421	31.83
585.615	31.97
585.809	32.07
586.003	32.19
586.198	32.41
586.392	32.67
586.586	32.57
586.78	32.56
586.974	32.51
587.168	32.61
587.363	32.62
587.557	32.39
587.751	32.17
587.945	32.01
588.139	31.82
588.333	31.68
588.527	31.45
588.721	31.39
588.915	31.37
589.109	31.29
589.303	31.2
589.497	31.18
589.691	31.06
589.885	31.15
590.079	31.15
590.273	31.28
590.466	31.32
590.66	31.46
590.854	31.52
591.048	31.49
591.242	31.56
591.436	31.65
591.629	31.73
591.823	31.98
592.017	32.07
592.211	32.16
592.404	32.04
592.598	32.04
592.792	32.11
592.986	32.06
593.179	32.17
593.373	32.04
593.567	31.96
593.76	31.75
593.954	31.66
594.147	31.46
594.341	31.21
594.535	31.15
594.728	31.14
594.922	30.95
595.115	30.8
595.309	30.62
595.502	30.56
595.696	30.46
595.889	30.57
596.083	30.55
596.276	30.59
596.47	30.69
596.663	30.86
596.856	30.94
597.05	30.99
597.243	31.17
597.437	31.27
597.63	31.5
597.823	31.54
598.017	31.57
598.21	31.81
598.403	32.02
598.596	32.21
598.79	32.13
598.983	32.12
599.176	32.23
599.369	32.28
599.563	32.29
599.756	32.26
599.949	32.45
600.142	32.4
600.335	32.12
600.528	32.06
600.722	31.98
600.915	32.13
601.108	32
601.301	32.13
601.494	32.17
601.687	32.13
601.88	32.04
602.073	31.91
602.266	31.9
602.459	31.83
602.652	31.73
602.845	31.62
603.038	31.49
603.231	31.54
603.424	31.22
603.617	31.07
603.809	31.02
604.002	30.96
604.195	31
604.388	30.98
604.581	31.05
604.774	31.11
604.966	31.17
605.159	31.22
605.352	31.31
605.545	31.38
605.737	31.51
605.93	31.67
606.123	31.97
606.316	32
606.508	32.3
606.701	32.41
606.894	32.57
607.086	32.89
607.279	33.11
607.471	33.28
607.664	33.72
607.857	33.92
608.049	34.22
608.242	34.52
608.434	35.21
608.627	35.74
608.819	36.69
609.012	37.71
609.204	38.81
609.397	40.02
609.589	41.43
609.782	42.77
609.974	44.38
610.166	46.13
610.359	47.5
610.551	48.88
610.743	50.16
610.936	51.15
611.128	52
611.32	52.55
611.513	52.74
611.705	52.83
611.897	52.66
612.09	52.17
612.282	51.53
612.474	51.17
612.666	50.3
612.858	49.65
613.051	48.88
613.243	47.97
613.435	47.21
613.627	46.74
613.819	45.92
614.011	45.38
614.203	45.05
614.395	44.38
614.588	43.5
614.78	43.02
614.972	42.3
615.164	41.7
615.356	41.15
615.548	40.52
615.74	39.88
615.932	39.53
616.124	38.92
616.315	38.08
616.507	37.57
616.699	37.1
616.891	36.57
617.083	36.27
617.275	36.03
617.467	35.85
617.659	35.7
617.85	35.58
618.042	35.44
618.234	35.36
618.426	35.56
618.618	35.29
618.809	35.34
619.001	35.36
619.193	35.35
619.384	35.28
619.576	35.15
619.768	34.95
619.959	34.96
620.151	34.93
620.343	34.99
620.534	34.8
620.726	34.96
620.917	34.94
621.109	34.89
621.301	34.83
621.492	34.93
621.684	35.17
621.875	35.38
622.067	35.29
622.258	35.3
622.45	35.3
622.641	35.32
622.832	35.33
623.024	35.35
623.215	35.43
623.407	35.3
623.598	35.17
623.789	35.16
623.981	34.95
624.172	35.1
624.363	34.99
624.555	35.07
624.746	34.97
624.937	34.97
625.129	35
625.32	34.95
625.511	35.15
625.702	35.08
625.893	34.93
626.085	35.04
626.276	34.92
626.467	34.91
626.658	34.83
626.849	34.99
627.04	34.89
627.231	34.73
627.422	34.59
627.614	34.53
627.805	34.67
627.996	34.71
628.187	34.84
628.378	35.07
628.569	35.19
628.76	35.36
628.951	35.5
629.142	35.77
629.332	36.25
629.523	36.59
629.714	37
629.905	37.24
630.096	37.24
630.287	37.36
630.478	37.39
630.669	37.45
630.859	37.3
631.05	37.14
631.241	36.9
631.432	36.58
631.623	36.24
631.813	35.65
632.004	35.21
632.195	35.08
632.385	34.69
632.576	34.25
632.767	33.94
632.957	33.9
633.148	33.75
633.339	33.75
633.529	33.49
633.72	33.54
633.91	33.49
634.101	33.48
634.292	33.3
634.482	33.14
634.673	33.02
634.863	33.2
635.054	33.1
635.244	33.11
635.435	32.97
635.625	33.13
635.815	33.3
636.006	33.33
636.196	33.4
636.387	33.66
636.577	33.65
636.767	33.92
636.958	33.93
637.148	33.89
637.338	33.83
637.529	34.02
637.719	33.99
637.909	34.04
638.099	34
638.29	34
638.48	33.87
638.67	34.07
638.86	33.87
639.05	33.89
639.241	33.83
639.431	33.99
639.621	33.73
639.811	33.66
640.001	33.55
640.191	33.64
640.381	33.6
640.571	33.66
640.761	33.81
640.951	34.16
641.141	33.93
641.331	34.02
641.521	33.81
641.711	34.08
641.901	34.03
642.091	34.08
642.281	34.16
642.471	34.15
642.661	33.98
642.851	33.93
643.041	33.82
643.231	34.04
643.42	34.23
643.61	34.48
643.8	34.4
643.99	34.45
644.18	34.43
644.369	34.36
644.559	34.42
644.749	34.71
644.939	34.64
645.128	34.73
645.318	34.61
645.508	34.59
645.697	34.52
645.887	34.42
646.076	34.45
646.266	34.43
646.456	34.67
646.645	34.56
646.835	34.34
647.024	34.49
647.214	34.35
647.403	34.43
647.593	34.12
647.782	34.02
647.972	34.19
648.161	34.28
648.351	34.32
648.54	34.22
648.73	34.21
648.919	34.3
649.108	34.33
649.298	34.43
649.487	34.36
649.677	34.77
649.866	35.06
650.055	35.11
650.244	35.23
650.434	35.2
650.623	35.03
650.812	35.11
651.002	35.28
651.191	35.21
651.38	35.1
651.569	35.19
651.758	35.16
651.947	35.05
652.137	35.14
652.326	35
652.515	34.99
652.704	35.17
652.893	35.35
653.082	35.17
653.271	35.21
653.46	35.34
653.649	35.4
653.838	35.46
654.027	35.41
654.216	35.24
654.405	35.23
654.594	35.06
654.783	34.93
654.972	34.74
655.161	34.81
655.35	34.7
655.539	34.69
655.728	34.57
655.916	34.44
656.105	34.38
656.294	34.33
656.483	34.16
656.672	34.24
656.86	34.4
657.049	34.32
657.238	34.15
657.427	34.06
657.615	33.93
657.804	33.74
657.993	33.54
658.181	33.37
658.37	33.22
658.559	33.33
658.747	33.32
658.936	33.21
659.125	32.9
659.313	33.01
659.502	33.05
659.69	33.14
659.879	33.23
660.067	33.37
660.256	33.35
660.444	33.6
660.633	33.77
660.821	33.78
661.01	33.99
661.198	34.61
661.387	34.73
661.575	34.87
661.763	35.01
661.952	35.21
662.14	35.23
662.328	35.67
662.517	35.57
662.705	35.64
662.893	35.97
663.082	35.68
663.27	35.42
663.458	35.55
663.646	35.7
663.834	35.51
664.023	35.24
664.211	35.21
664.399	35.07
664.587	35.36
664.775	35.03
664.963	34.72
665.152	34.91
665.34	34.77
665.528	34.83
665.716	34.67
665.904	34.81
666.092	34.96
666.28	35.01
666.468	35.1
666.656	34.83
666.844	34.98
667.032	35.2
667.22	35.32
667.408	35.76
667.596	35.5
667.784	35.63
667.971	35.42
668.159	35.7
668.347	36.04
668.535	35.87
668.723	36.03
668.911	36.23
669.098	36.17
669.286	35.99
669.474	35.98
669.662	36.19
669.849	36.16
670.037	36.3
670.225	36.07
670.413	35.65
670.6	35.71
670.788	35.49
670.976	35.34
671.163	35.07
671.351	35.45
671.538	34.87
671.726	34.83
671.913	34.85
672.101	34.77
672.289	34.98
672.476	35
672.664	35.16
672.851	35.47
673.039	35.56
673.226	35.56
673.413	35.2
673.601	35.58
673.788	35.27
673.976	35.14
674.163	35.21
674.35	35.1
674.538	35.56
674.725	35.69
674.912	35.68
675.1	35.62
675.287	35.71
675.474	35.57
675.662	35.81
675.849	35.83
676.036	35.73
676.223	35.62
676.411	35.42
676.598	35.13
676.785	34.94
676.972	34.89
677.159	34.88
677.346	34.98
677.533	35.17
677.721	34.81
677.908	35
678.095	35.18
678.282	35.47
678.469	35.5
678.656	35.39
678.843	35.23
679.03	35.38
679.217	35.28
679.404	35.35
679.591	35.34
679.778	35.48
679.964	35.35
680.151	35.54
680.338	35.29
680.525	35.11
680.712	35.01
680.899	35.13
681.086	34.71
681.272	34.7
681.459	34.64
681.646	34.75
681.833	34.84
682.02	34.87
682.206	34.55
682.393	34.47
682.58	34.76
682.766	34.98
682.953	34.92
683.14	35.29
683.326	35.53
683.513	35.38
683.7	35.45
683.886	35.22
684.073	35.38
684.259	35.45
684.446	35.65
684.632	35.76
684.819	35.69
685.005	35.88
685.192	35.64
685.378	35.6
685.565	35.96
685.751	35.83
685.938	35.98
686.124	36.18
686.31	36.16
686.497	36.33
686.683	36.16
686.87	36.21
687.056	36.07
687.242	35.97
687.429	35.96
687.615	35.73
687.801	35.9
687.987	36.01
688.174	35.74
688.36	36.06
688.546	35.8
688.732	35.78
688.918	35.7
689.105	35.82
689.291	36.09
689.477	36.18
689.663	36.14
689.849	35.94
690.035	35.95
690.221	35.87
690.407	35.53
690.593	35.83
690.779	35.64
690.965	35.83
691.151	35.69
691.337	35.69
691.523	35.66
691.709	35.87
691.895	35.87
692.081	35.51
692.267	35.52
692.453	35.6
692.639	35.3
692.825	35.81
693.011	35.72
693.196	35.53
693.382	35.46
693.568	35.55
693.754	35.32
693.94	35.27
694.125	35.58
694.311	35.74
694.497	35.79
694.682	35.89
694.868	35.59
695.054	35.61
695.239	35.87
695.425	35.85
695.611	35.46
695.796	35.37
695.982	35.64
696.168	35.46
696.353	35.13
696.539	34.78
696.724	34.67
696.91	34.53
697.095	34.52
697.281	34.3
697.466	34.38
697.652	34.41
697.837	34.19
698.023	34.01
698.208	34.15
698.393	34.05
698.579	34.15
698.764	34.02
698.949	34.15
699.135	34.09
699.32	34
699.505	33.9
699.691	34.09
699.876	34.2
700.061	34.05
700.246	34
700.432	34.4
700.617	34.57
700.802	34.68
700.987	34.74
701.172	34.89
701.358	35.33
701.543	35.44
701.728	35.36
701.913	35.62
702.098	36.33
702.283	36.19
702.468	36.18
702.653	36.25
702.838	36.6
703.023	36.89
703.208	36.62
703.393	36.73
703.578	37.11
703.763	37.76
703.948	37.88
704.133	37.64
704.318	38.45
704.503	38.93
704.688	39.34
704.873	39.62
705.057	39.85
705.242	40.54
705.427	41
705.612	40.97
705.797	40.75
705.981	41.39
706.166	41.61
706.351	41.51
706.536	41.32
706.72	41.36
706.905	41.58
707.09	41.92
707.274	41.89
707.459	42.18
707.644	42.56
707.828	42.72
708.013	42.78
708.197	43.1
708.382	43.05
708.567	43.41
708.751	43.39
708.936	43.21
709.12	42.72
709.305	42.67
709.489	42
709.673	41.75
709.858	41.47
710.042	41.13
710.227	40.73
710.411	40.74
710.596	40.2
710.78	40.24
710.964	40.38
711.149	40.1
711.333	40.1
711.517	40.32
711.702	40.15
711.886	40.03
712.07	39.75
712.254	39.52
712.438	39.2
712.623	39.21
712.807	39.07
712.991	38.59
713.175	38.82
713.359	38.31
713.544	37.63
713.728	37.37
713.912	37
714.096	36.85
714.28	36.54
714.464	36.4
714.648	36.2
714.832	35.49
715.016	35.49
715.2	34.99
715.384	34.96
715.568	35.14
715.752	34.72
715.936	34.86
716.12	34.74
716.304	34.74
716.488	34.8
716.671	34.46
716.855	34.7
717.039	34.11
717.223	34.25
717.407	34.04
717.59	33.79
717.774	33.91
717.958	34.03
718.142	34.34
718.325	34.68
718.509	34.53
718.693	34.84
718.877	34.82
719.06	35.28
719.244	35.13
719.428	35.24
719.611	35.29
719.795	35.42
719.978	35.2
720.162	35.18
720.345	34.88
720.529	35.03
720.713	34.91
720.896	35.04
721.08	35.24
721.263	35.4
721.446	35.41
721.63	35.53
721.813	35.72
721.997	35.49
722.18	35.25
722.364	34.77
722.547	34.44
722.73	33.89
722.914	34
723.097	33.94
723.28	33.58
723.464	33.22
723.647	32.77
723.83	33.29
724.013	33.55
724.197	33.41
724.38	33.97
724.563	34.06
724.746	34.99
724.929	34.66
725.112	34.33
725.296	34.22
725.479	34.7
725.662	35.26
725.845	34.68
726.028	34.9
726.211	35.2
726.394	35.1
726.577	34.89
726.76	34.79
726.943	35.48
727.126	35.5
727.309	35.95
727.492	36.18
727.675	35.94
727.858	35.63
728.041	35.8
728.224	35.25
728.407	35.39
728.589	35.72
728.772	35.62
728.955	34.75
729.138	34.59
729.321	34.68
729.503	34.35
729.686	34.2
729.869	34.49
730.052	34.18
730.234	34.8
730.417	34.26
730.6	34.14
730.782	34.27
730.965	34.94
731.148	35.62
731.33	35.21
731.513	35.31
731.695	35.32
731.878	35.28
732.061	35.35
732.243	35.43
732.426	36.03
732.608	36.02
732.791	36.12
732.973	35.67
733.156	35.52
733.338	35.45
733.52	35.6
733.703	36
733.885	35.84
734.068	35.38
734.25	34.64
734.432	34.53
734.615	34.45
734.797	34.08
734.979	34.12
735.162	34.25
735.344	34.64
735.526	34.53
735.708	34.39
735.891	34.35
736.073	35.02
736.255	35.32
736.437	34.95
736.619	35.47
736.802	35.63
736.984	35.51
737.166	35.48
737.348	35.23
737.53	35.31
737.712	35.21
737.894	35.11
738.076	35.06
738.258	35.4
738.44	35.84
738.622	35.48
738.804	35.21
738.986	35.72
739.168	35.16
739.35	35.24
739.532	34.86
739.714	34.84
739.896	34.85
740.078	34.59
740.259	34.23
740.441	33.98
740.623	34.05
740.805	34.78
740.987	34.24
741.168	35.01
741.35	35.25
741.532	35.79
741.714	36.02
741.895	36.36
742.077	36.64
742.259	37.15
742.44	37.23
742.622	37.58
742.804	37.15
742.985	37.48
743.167	37.54
743.348	37.39
743.53	37.15
743.711	37.39
743.893	37.6
744.075	37.32
744.256	37.11
744.438	37.6
744.619	37.48
744.8	37.68
744.982	38.03
745.163	38.08
745.345	38.56
745.526	39.1
745.707	39.09
745.889	39.11
746.07	39.25
746.252	39.08
746.433	38.38
746.614	38.87
746.795	38.28
746.977	38.07
747.158	37.49
747.339	37.14
747.52	36.39
747.702	36.54
747.883	36.21
748.064	36.48
748.245	36.56
748.426	36.77
748.607	36
748.788	36.73
748.97	36.88
749.151	36.83
749.332	36.62
749.513	37.57
749.694	37.11
749.875	36.89
750.056	36.95
750.237	37.12
750.418	37.17
750.599	37.15
750.78	36.55
750.96	36.29
751.141	36.41
751.322	37.27
751.503	36.31
751.684	36.57
751.865	36.88
752.046	36.29
752.226	35.98
752.407	36.24
752.588	36.5
752.769	37.14
752.949	37.06
753.13	36.71
753.311	36.54
753.492	37.01
753.672	36.66
753.853	37.09
754.034	37.2
754.214	36.77
754.395	36.57
754.575	36.54
754.756	35.91
754.937	36.47
755.117	37.76
755.298	37.65
755.478	37.94
755.659	38.33
755.839	38.4
756.02	38.81
756.2	39.84
756.381	39.71
756.561	39.56
756.741	39.49
756.922	38.78
757.102	37.04
757.283	35.98
757.463	35.27
757.643	34.59
757.823	33.8
758.004	33.04
758.184	32.1
758.364	31.66
758.545	31.01
758.725	30.94
758.905	30.91
759.085	31.28
759.265	31.28
759.446	30.88
759.626	30.74
759.806	31.54
759.986	30.92
760.166	31.2
760.346	31.21
760.526	31.77
760.706	31.65
760.886	31.25
761.066	31.57
761.246	32.33
761.426	32.93
761.606	33.45
761.786	32.95
761.966	33.62
762.146	33.36
762.326	33.27
762.506	33.38
762.686	33.44
762.866	33.16
763.046	33.07
763.225	32.53
763.405	32.25
763.585	31.74
763.765	31.45
763.945	31.45
764.124	31.66
764.304	31.82
764.484	31.44
764.664	31.34
764.843	31.71
765.023	31.96
765.203	32.36
765.382	32.42
765.562	32.49
765.741	33.18
765.921	33.28
766.101	33.42
766.28	33.69
766.46	33.83
766.639	33.82
766.819	34.1
766.998	33.97
767.178	33.62
767.357	34.1
767.537	34.7
767.716	34.4
767.896	34.56
768.075	34.39
768.254	34.5
768.434	35.1
768.613	35.02
768.792	35
768.972	35.18
769.151	36.08
769.33	35.52
769.51	35.24
769.689	35.42
769.868	35.83
770.047	36.08
770.226	36.46
770.406	37.04
770.585	38.67
770.764	38.45
770.943	38.13
771.122	37.2
771.301	37.8
771.48	37.69
771.66	37.43
771.839	37.1
772.018	36.76
772.197	35.97
772.376	35.14
772.555	34.19
772.734	34.36
772.913	34.35
773.092	34.4
773.271	34.35
773.449	33.99
773.628	34.21
773.807	34.06
773.986	34.72
774.165	35.21
774.344	35.36
774.523	35.63
774.701	35.92
774.88	35.67
775.059	36.77
775.238	36.76
775.417	38.2
775.595	38.52
775.774	38.75
775.953	38.36
776.131	38.68
776.31	38.2
776.489	37.93
776.667	38.06
776.846	39.17
777.025	38.95
777.203	38.83
777.382	37.79
777.56	38.17
777.739	38.23
777.917	37.76
778.096	38.08
778.274	37.71
778.453	37.43
778.631	37.21
778.81	36.69
778.988	36.16
779.166	35.84
779.345	36.41
779.523	35.39
779.702	35.07
779.88	36.42
780.058	36.12
780.237	37.53
780.415	37.48
780.593	37.55
780.771	37.49
780.95	38.14
781.128	37.85
781.306	38.27
781.484	39.21
781.662	38.63
781.841	37.67
782.019	36.66
782.197	35.24
782.375	35.97
782.553	35.64
782.731	36.04
782.909	35.85
783.087	36.28
783.265	36.11
783.443	35.6
783.621	36.53
783.799	36.68
783.977	37.87
784.155	37.73
784.333	37.12
784.511	37.34
784.689	36.51
784.867	36.35
785.045	37
785.223	37.42
785.4	36.99
785.578	38.91
785.756	38.61
785.934	38.46
786.112	39.77
786.289	40.01
786.467	39.21
786.645	39.74
786.823	39.8
787	38.99
787.178	37.66
787.356	38.14
787.533	35.86
787.711	35.99
787.889	35.41
788.066	34.74
788.244	34.53
788.421	34.35
788.599	33.93
788.776	33.33
788.954	34
789.131	33.83
789.309	33.64
789.486	33.48
789.664	32.96
789.841	33.19
790.019	33.95
790.196	33.75
790.373	34.77
790.551	35.57
790.728	35.86
790.906	35.29
791.083	35.83
791.26	34.63
791.437	34.81
791.615	36.47
791.792	36.4
791.969	35.59
792.146	35.27
792.324	35.6
792.501	34.94
792.678	35.6
792.855	34.71
793.032	33.9
793.209	34.46
793.387	34.13
793.564	32.99
793.741	33.28
793.918	33.3
794.095	33.37
794.272	32.34
794.449	31.93
794.626	31.21
794.803	32.18
794.98	32.88
795.157	33.33
795.334	33.4
795.511	32.27
795.688	31.37
795.864	31.37
796.041	31.64
796.218	31.6
796.395	31.54
796.572	30.85
796.749	30.97
796.925	30.9
797.102	31.7
797.279	32.25
797.456	33.02
797.632	32.73
797.809	32.71
797.986	32.76
798.162	33.88
798.339	34.05
798.516	34.19
798.692	33.05
798.869	32.75
799.046	32.33
799.222	32.26
799.399	32.56
799.575	32.37
799.752	32.76
799.928	31.57
800.105	30.34
800.281	29.86
800.458	30.09
800.634	31.69
800.811	32.71
800.987	32.06
801.163	31.91
801.34	32.19
801.516	33.63
801.692	33.26
801.869	34.83
802.045	35.06
802.221	35.49
802.398	35.97
802.574	34.96
802.75	35.13
802.926	35.33
803.103	34.17
803.279	33.31
803.455	32.67
803.631	32.72
803.807	31.91
803.983	30.88
804.16	31
804.336	31.59
804.512	31.89
804.688	31.8
804.864	31.93
805.04	33.72
805.216	34.71
805.392	34.37
805.568	34.1
805.744	33.32
805.92	34.87
806.096	35.34
806.272	34.56
806.448	33.74
806.623	32.74
806.799	32.65
806.975	32.74
807.151	32.06
807.327	33.16
807.503	32.45
807.678	33.87
807.854	34.08
808.03	33.06
808.206	33.24
808.381	33.25
808.557	33.07
808.733	33.16
808.908	32.68
809.084	32.74
809.26	31.17
809.435	32
809.611	31
809.787	30.41
809.962	30.62
810.138	31.21
810.313	31.6
810.489	31.95
810.664	31.97
810.84	31.57
811.015	32.52
811.191	33.02
811.366	33.26
811.542	32.95
811.717	32.45
811.892	32.1
812.068	29.97
812.243	28.89
812.419	28.57
812.594	28.16
812.769	28
812.944	26.05
813.12	24.78
813.295	24.28
813.47	24.43
813.645	23.79
813.821	23.26
813.996	23.01
814.171	23.8
814.346	23.36
814.521	23.06
814.697	23.57
814.872	23.88
815.047	26.18
815.222	26.97
815.397	27.13
815.572	28.85
815.747	29.51
815.922	30.35
816.097	30.57
816.272	28.64
816.447	28.99
816.622	27.95
816.797	29.33
816.972	29.44
817.147	29.71
817.322	29.11
817.496	28.34
817.671	28.33
817.846	27.74
818.021	27.72
818.196	29.76
818.371	29.59
818.545	29.96
818.72	29.5
818.895	29.03
819.069	28.06
819.244	29.01
819.419	29.54
819.594	29.34
819.768	29.41
819.943	29.75
820.117	28.62
820.292	28.06
820.467	27.89
820.641	27.98
820.816	27.59
820.99	27.22
821.165	26.98
821.339	26.61
821.514	26.64
821.688	26.53
821.863	26.1
822.037	25.9
822.212	25.84
822.386	25.66
822.56	25.46
822.735	25.39
822.909	25.11
823.084	25.09
823.258	24.94
823.432	24.74
823.606	24.55
823.781	24.54
823.955	24.78
824.129	24.94
824.303	25.03
824.478	24.75
824.652	24.86
824.826	25.41
825	25.11
825.174	24.94
825.348	25.04
825.523	25.21
825.697	25.09
825.871	25.47
826.045	25.54
826.219	25.84
826.393	26.06
826.567	25.45
826.741	25.55
826.915	25.28
827.089	25.7
827.263	25.48
827.437	25.59
827.611	25.57
827.784	25.63
827.958	25.21
828.132	24.6
828.306	24.67
828.48	25.03
828.654	24.63
828.827	25.09
829.001	24.93
829.175	25.17
829.349	24.91
829.522	24.27
829.696	23.15
829.87	23.13
830.044	22.97
830.217	23.46
830.391	22.43
830.565	22.62
830.738	21.9
830.912	21.68
831.085	21.51
831.259	22.2
831.432	24.02
831.606	24.78
831.779	26.07
831.953	27.31
832.126	26.75
832.3	26.48
832.473	26.34
832.647	27.66
832.82	27.56
832.994	27.26
833.167	27.19
833.34	27.08
833.514	27.2
833.687	26.37
833.86	25.61
834.034	25.36
834.207	25.82
834.38	25.58
834.553	25.02
834.727	25.01
834.9	25.29
835.073	25.1
835.246	25.48
835.419	25.42
835.593	25.98
835.766	26.41
835.939	26.87
836.112	27.2
836.285	27.2
836.458	26.67
836.631	26.82
836.804	26.96
836.977	26.55
837.15	25.52
837.323	25.01
837.496	25.61
837.669	25.24
837.842	24.58
838.015	23.42
838.188	24.57
838.361	25.4
838.533	25.6
838.706	26.06
838.879	26.77
839.052	27.39
839.225	28.36
839.398	25.56
839.57	26.11
839.743	26.45
839.916	28.85
840.088	28.25
840.261	29.8
840.434	30.34
840.607	29.07
840.779	29.38
840.952	29.61
841.124	28.04
841.297	30.17
841.47	30.96
841.642	32.25
841.815	30.48
841.987	30.45
842.16	29.61
842.332	28.07
842.505	29.19
842.677	28.7
842.85	27.9
843.022	31.32
843.194	31.29
843.367	30.15
843.539	27.76
843.712	28.84
843.884	30.15
844.056	32.41
844.229	33.03
844.401	33.64
844.573	34.42
844.745	35.17
844.918	33.2
845.09	36.28
845.262	36.64
845.434	39.43
845.606	39.11
845.779	40.67
845.951	35.73
846.123	35.9
846.295	35.51
846.467	36.25
846.639	35.6
846.811	38.39
846.983	34.26
847.155	37.31
847.327	35.63
847.499	34.7
847.671	35.16
847.843	39.64
848.015	40.49
848.187	39.04
848.359	40.55
848.531	40.2
848.703	35.82
848.875	34.89
849.047	34.79
849.218	34.61
849.39	37.4
849.562	32.34
849.734	28.04
849.905	29.23
850.077	31.36
850.249	27.05
850.421	28.3
850.592	27.74
850.764	27.25
850.936	20.2
851.107	19.71
851.279	17.67
851.451	21.93
851.622	25.65
851.794	22.22
851.965	23.25
852.137	24.89
852.308	24.28
852.48	24.28
852.651	20.74
852.823	25.15
852.994	21.87
853.166	24.09
853.337	21.27
853.509	19.89
853.68	19.56
853.851	19.83
854.023	15.52
854.194	13.83
854.365	15.91
854.537	22.95
854.708	21.04
854.879	23.93
855.05	21.83
855.222	18.28
855.393	19.02
855.564	18.1
855.735	16.1
855.906	19.66
856.078	19.82
856.249	20.52
856.42	15.99
856.591	18.37
856.762	18.9
856.933	20.63
857.104	26.37
857.275	28.28
857.446	33.85
857.617	33.97
857.788	34.69
857.959	32.72
858.13	32.24
858.301	36.09
858.472	32.39
858.643	28.87
858.814	24.84
858.985	23.06
859.155	24.12
859.326	23.18
859.497	26.16
859.668	24.25
859.839	25.88
860.009	26.12
860.18	24.44
860.351	30.53
860.522	32.79
860.692	34.32
860.863	34.32
861.034	31.21
861.204	31.8
861.375	30.89
861.546	33.03
861.716	36.51
861.887	36.78
862.057	35.83
862.228	33.76
862.398	32.29
862.569	32.29
862.739	34.8
862.91	36.39
863.08	34.56
863.251	34.46
863.421	34.38
863.592	29.06
863.762	30.4
863.932	32.15
864.103	30.02
864.273	27.14
864.443	23.3
864.614	21.15
864.784	18.94
864.954	18.67
865.125	15.38
865.295	17.04
865.465	21.54
865.635	14.78
865.805	14.94
865.976	16.84
866.146	20.77
866.316	26.24
866.486	32.07
866.656	33.44
866.826	32.09
866.996	31.26
867.166	29.5
867.336	28.9
867.506	31.16
867.676	24.67
867.846	26.27
868.016	28.8
868.186	27.55
868.356	21.03
868.526	22.4
868.696	23.46
868.866	30.45
869.036	28.93
869.206	27.47
869.376	26.08
869.545	30.67
869.715	26.55
869.885	22.89
870.055	24.58
870.224	20.61
870.394	15.86
870.564	13.5
870.734	7.66
870.903	6.56
871.073	11.39
871.243	11.94
871.412	13.24
871.582	15.76
871.751	18.27
871.921	17.86
872.091	24.44
872.26	27.97
872.43	29.82
872.599	29.53
872.769	31.98
872.938	29.65
873.108	29.66
873.277	26.18
873.446	23.78
873.616	19.01
873.785	19.39
873.955	16.82
874.124	16.73
874.293	15.35
874.463	16.3
874.632	16.69
874.801	16.73
874.971	20.61
875.14	20.38
875.309	23
875.478	25.83
875.647	24.88
875.817	20.69
875.986	22.43
876.155	25.94
876.324	25.93
876.493	24.21
876.662	23.44
876.831	21.4
877	25.39
877.17	25.78
877.339	24.05
877.508	24.29
877.677	28.28
877.846	23.75
878.015	19.62
878.184	19.12
878.352	19.35
878.521	22.98
878.69	23.11
878.859	22.69
879.028	20.25
879.197	22.21
879.366	21.75
879.534	21.04
879.703	20.7
879.872	21.2
880.041	19.99
880.21	20.41
880.378	19.63
880.547	19.25
880.716	19.52
880.884	19.49
881.053	20.69
881.222	20.61
881.39	21.3
881.559	22.71
881.727	23.07
881.896	23.93
882.065	23.8
882.233	23.9
882.402	24.19
882.57	24.1
882.739	24.84
882.907	24.2
883.076	24.77
883.244	24.23
883.412	23.79
883.581	23.63
883.749	23.68
883.918	23.32
884.086	22.26
884.254	22.13
884.423	22.36
884.591	21.72
884.759	21.89
884.927	21.52
885.096	22.19
885.264	20.89
885.432	19.72
885.6	19
885.769	20.05
885.937	22.17
886.105	23.22
886.273	21.93
886.441	22.15
886.609	22.64
886.777	22.59
886.945	20.67
887.113	21.43
887.281	24.18
887.449	24.65
887.617	23.31
887.785	24.08
887.953	20.65
888.121	20.89
888.289	17.16
888.457	16.3
888.625	17.51
888.793	20.38
888.961	23.85
889.129	23.08
889.296	22.27
889.464	23.43
889.632	20.36
889.8	23.84
889.967	24.51
890.135	32.88
