Data from 2938750__Reflection_03.txt Node
Date: Sat Mar 14 14:43:07 EDT 2015
User: robert
Spectrometer: USB4E03002
Autoset integration time: false
Trigger mode: 4
Integration Time (sec): 1.000000E-1
Scans to average: 10
Electric dark correction enabled: false
Nonlinearity correction enabled: false
Boxcar width: 5
Stray light correction enabled: false
XAxis mode: Wavelengths
Stop averaging: false
Number of Pixels in Spectrum: 3648
>>>>>Begin Spectral Data<<<<<
177.575	-19.31
177.794	-27.72
178.014	-13.64
178.233	2.48
178.452	-55.56
178.672	-2975
178.891	149.8
179.11	115.15
179.33	88.93
179.549	104.14
179.768	117.8
179.987	113.46
180.207	96.11
180.426	84.72
180.645	120.95
180.864	115.17
181.084	252.52
181.303	303.95
181.522	294.17
181.741	366.17
181.96	247.91
182.179	232.65
182.398	205.39
182.618	228.37
182.837	207.69
183.056	323.36
183.275	239.46
183.494	111.64
183.713	117.42
183.932	46.33
184.151	14.81
184.37	41.82
184.589	72.66
184.808	76.55
185.027	99.32
185.246	103.56
185.465	105.75
185.684	101.46
185.903	111.89
186.122	94.67
186.341	114.54
186.56	135.54
186.779	223.3
186.998	260.97
187.216	2422.73
187.435	490.82
187.654	1913.33
187.873	1088.1
188.092	770.37
188.311	303.68
188.53	1183.72
188.748	-1781.25
188.967	-2021.74
189.186	-245.05
189.405	566.67
189.623	193.13
189.842	98.05
190.061	50.66
190.28	77.69
190.498	88.56
190.717	129
190.936	65.54
191.154	109.18
191.373	112.47
191.592	89.92
191.81	138.48
192.029	114.1
192.248	152.29
192.466	172.8
192.685	154.04
192.904	289.8
193.122	243.51
193.341	-7487.5
193.559	-542.05
193.778	-110.56
193.996	-86.85
194.215	-83.67
194.433	-92.03
194.652	-94.01
194.87	-56.12
195.089	-86.98
195.307	-84.94
195.526	-57.89
195.744	-193.18
195.963	410.59
196.181	200.43
196.399	127.88
196.618	112.16
196.836	93.72
197.055	102.21
197.273	116.58
197.491	108.7
197.71	94.93
197.928	102.79
198.146	118.86
198.365	103.37
198.583	79.12
198.801	63.53
199.019	72.45
199.238	132.14
199.456	164.94
199.674	84.23
199.892	89.68
200.111	32.52
200.329	61.51
200.547	51.34
200.765	35.75
200.983	64.82
201.202	63.37
201.42	90.53
201.638	45.01
201.856	61.11
202.074	83.12
202.292	88.04
202.51	105.47
202.728	69.35
202.946	90.53
203.165	154.9
203.383	109.16
203.601	126.09
203.819	47.18
204.037	62.88
204.255	18.54
204.473	25.04
204.691	5.48
204.909	25.19
205.127	27.91
205.345	28.9
205.562	35.45
205.78	34.34
205.998	43.63
206.216	55.69
206.434	36.39
206.652	68.16
206.87	61
207.088	82.12
207.306	90.26
207.523	119.72
207.741	215.17
207.959	408.59
208.177	212.96
208.395	114.09
208.612	101.27
208.83	115.46
209.048	101.18
209.266	153.35
209.483	114.47
209.701	99
209.919	65.04
210.136	45.15
210.354	47.18
210.572	78.11
210.79	118.84
211.007	126.14
211.225	200
211.442	184.32
211.66	121.1
211.878	87.08
212.095	86.58
212.313	86.51
212.53	69.78
212.748	47.92
212.966	30.74
213.183	11.16
213.401	18.88
213.618	8.14
213.836	-21.2
214.053	-78.5
214.271	-134.83
214.488	-107.47
214.705	-109.72
214.923	-85.54
215.14	-32.71
215.358	-30.33
215.575	10.79
215.793	-51.51
216.01	-1.7
216.227	38.7
216.445	75.57
216.662	50.5
216.879	46.74
217.097	41.68
217.314	14.26
217.531	22.69
217.749	44.52
217.966	40.69
218.183	64.77
218.4	52.38
218.618	52.19
218.835	47.62
219.052	53.21
219.269	52.69
219.487	57.56
219.704	59.06
219.921	46.23
220.138	41.77
220.355	42.78
220.572	30.13
220.79	33.69
221.007	27.27
221.224	19.81
221.441	29.02
221.658	26.8
221.875	22.87
222.092	24.42
222.309	16.03
222.526	6.34
222.743	9.66
222.96	15.56
223.177	19.57
223.394	27.23
223.611	29.72
223.828	22.35
224.045	17.77
224.262	11.6
224.479	15.43
224.696	17.62
224.913	18.73
225.13	19.43
225.347	17.92
225.564	14.36
225.781	8.4
225.997	11.17
226.214	9.84
226.431	13.51
226.648	12.69
226.865	8.96
227.082	9.24
227.298	8.63
227.515	7.2
227.732	4.03
227.949	3.29
228.165	2.73
228.382	2.44
228.599	2.54
228.816	2.38
229.032	3.82
229.249	3.79
229.466	4.64
229.682	3.95
229.899	3.99
230.116	4.66
230.332	4.94
230.549	4.59
230.765	3.42
230.982	3.93
231.199	3.43
231.415	3.92
231.632	4.06
231.848	2.55
232.065	4.64
232.281	4.17
232.498	6
232.714	6.21
232.931	9.25
233.147	9.88
233.364	7.48
233.58	8.37
233.797	7.22
234.013	8.58
234.23	8.51
234.446	6.49
234.662	6.62
234.879	7.74
235.095	9.75
235.312	8.4
235.528	9.3
235.744	10.48
235.961	11.07
236.177	10.5
236.393	10.26
236.61	10.39
236.826	10.66
237.042	11.58
237.258	9.4
237.475	7.24
237.691	8.48
237.907	9.27
238.123	7.98
238.339	7.57
238.556	7.12
238.772	7.46
238.988	8.21
239.204	9.34
239.42	8.45
239.636	8.98
239.853	9.18
240.069	8.21
240.285	7.23
240.501	7.08
240.717	6.71
240.933	6.21
241.149	5.04
241.365	4.57
241.581	4.34
241.797	4.77
242.013	4.89
242.229	5.06
242.445	5.19
242.661	5.46
242.877	5.76
243.093	5.99
243.309	6.08
243.525	6.56
243.741	6.48
243.957	6.68
244.173	5.8
244.388	5.48
244.604	5.39
244.82	4.69
245.036	4.61
245.252	3.96
245.468	3.22
245.683	3.35
245.899	3.44
246.115	3.42
246.331	3.14
246.547	3.66
246.762	3.49
246.978	3.25
247.194	3.1
247.409	2.62
247.625	2.92
247.841	2.97
248.057	2.99
248.272	3.06
248.488	3.33
248.703	3.65
248.919	3.42
249.135	3.08
249.35	3.34
249.566	4.06
249.782	5.02
249.997	4.56
250.213	5.13
250.428	5.01
250.644	4.64
250.859	4.32
251.075	4.44
251.29	4.08
251.506	4.85
251.721	4.81
251.937	4.28
252.152	4.22
252.368	4.92
252.583	4.88
252.798	4.9
253.014	4.7
253.229	4.97
253.445	4.73
253.66	5.41
253.875	4.68
254.091	3.91
254.306	4
254.521	3.35
254.737	2.82
254.952	2.09
255.167	1.3
255.383	1.97
255.598	1.27
255.813	0.99
256.028	-0.46
256.244	0.63
256.459	1.46
256.674	2.1
256.889	3.18
257.104	2.69
257.32	2.35
257.535	1.88
257.75	1.13
257.965	2.02
258.18	1.8
258.395	1.81
258.61	1.52
258.826	1.63
259.041	1.24
259.256	0.97
259.471	1.26
259.686	1.57
259.901	1.94
260.116	2.05
260.331	2.07
260.546	1.97
260.761	2.57
260.976	2.89
261.191	2.78
261.406	2.86
261.621	2.92
261.836	2.79
262.05	3.08
262.265	3.17
262.48	3.58
262.695	3.62
262.91	4.84
263.125	4.26
263.34	4.54
263.555	5.31
263.769	5.68
263.984	5.96
264.199	6.7
264.414	6.26
264.629	5.83
264.843	5.58
265.058	5.02
265.273	3.91
265.488	4.04
265.702	3.45
265.917	2.52
266.132	2.71
266.346	1.87
266.561	1.63
266.776	1.6
266.99	1.8
267.205	1.56
267.42	1.35
267.634	1.33
267.849	1.06
268.063	1.31
268.278	1.28
268.492	1.02
268.707	1.86
268.922	1.87
269.136	1.85
269.351	1.89
269.565	1.51
269.78	1.66
269.994	1.84
270.209	2.26
270.423	1.85
270.637	2.11
270.852	2.18
271.066	2.16
271.281	1.85
271.495	2.14
271.709	2.34
271.924	2.97
272.138	2.6
272.353	2.61
272.567	2.71
272.781	2.7
272.996	2.86
273.21	2.49
273.424	2.12
273.638	2.21
273.853	1.94
274.067	2.23
274.281	2.26
274.495	2.7
274.71	2.85
274.924	2.74
275.138	2.8
275.352	2.94
275.566	3.35
275.781	3.32
275.995	3.58
276.209	3.51
276.423	3.09
276.637	2.82
276.851	2.64
277.065	2.6
277.279	2.37
277.493	2.88
277.707	2.69
277.921	2.57
278.135	2.89
278.349	2.92
278.563	2.96
278.777	3.17
278.991	3
279.205	3.22
279.419	2.88
279.633	2.44
279.847	2.11
280.061	1.92
280.275	1.69
280.489	1.19
280.703	1.45
280.917	1.15
281.131	0.78
281.344	0.84
281.558	0.67
281.772	1.08
281.986	1.27
282.2	1.31
282.414	1.39
282.627	1.32
282.841	1.53
283.055	1.09
283.269	1.62
283.482	1.82
283.696	1.55
283.91	1.58
284.123	1.52
284.337	1.79
284.551	1.31
284.764	1.02
284.978	1.17
285.192	1.44
285.405	1.54
285.619	1.42
285.833	1.41
286.046	1.5
286.26	1.59
286.473	1.33
286.687	1.29
286.9	1.74
287.114	1.88
287.327	1.98
287.541	2.01
287.754	1.74
287.968	1.62
288.181	1.54
288.395	1.69
288.608	1.5
288.822	2.02
289.035	2.01
289.248	1.73
289.462	1.89
289.675	1.87
289.889	1.52
290.102	1.9
290.315	2.08
290.529	2.17
290.742	2.27
290.955	2.02
291.169	1.85
291.382	2.23
291.595	2.4
291.808	2.68
292.022	2.97
292.235	3.21
292.448	3.2
292.661	2.66
292.875	2.62
293.088	2.59
293.301	3.09
293.514	2.62
293.727	2.29
293.94	2.59
294.153	1.98
294.367	1.69
294.58	1.54
294.793	1.72
295.006	2.47
295.219	2.43
295.432	2.32
295.645	2.24
295.858	2.2
296.071	1.88
296.284	1.53
296.497	1.83
296.71	1.64
296.923	1.93
297.136	1.73
297.349	1.29
297.562	1.31
297.775	1.44
297.988	1.18
298.201	1.34
298.414	1.13
298.626	1.26
298.839	0.93
299.052	1.06
299.265	0.7
299.478	0.83
299.691	0.66
299.903	0.58
300.116	0.41
300.329	0.79
300.542	0.89
300.755	1.28
300.967	1.08
301.18	1.49
301.393	1.63
301.605	2.05
301.818	1.83
302.031	2.32
302.243	2.6
302.456	2.78
302.669	2.73
302.881	2.48
303.094	2.43
303.307	2.72
303.519	2.56
303.732	2.66
303.944	2.55
304.157	2.54
304.37	2.47
304.582	2.28
304.795	2.43
305.007	2.64
305.22	2.53
305.432	2.64
305.645	2.53
305.857	2.68
306.069	2.44
306.282	2.53
306.494	2.94
306.707	2.64
306.919	2.56
307.132	2.66
307.344	2.91
307.556	3.15
307.769	3.12
307.981	3.14
308.193	3.49
308.406	3.48
308.618	3.06
308.83	2.96
309.043	3.31
309.255	3.44
309.467	3.06
309.679	2.63
309.892	2.83
310.104	2.54
310.316	2.66
310.528	2.33
310.74	2.2
310.953	2.32
311.165	2.15
311.377	2.15
311.589	2.24
311.801	2.43
312.013	2.1
312.225	1.93
312.437	2.1
312.649	2.23
312.862	2.19
313.074	2.32
313.286	2.49
313.498	2.23
313.71	2.44
313.922	2.18
314.134	2.05
314.346	2.3
314.558	2.2
314.77	2.38
314.982	2.18
315.193	2.22
315.405	2.26
315.617	1.88
315.829	2.48
316.041	2.03
316.253	2.24
316.465	2.25
316.677	2.52
316.888	2.79
317.1	2.61
317.312	2.31
317.524	2.45
317.736	2.69
317.947	3.37
318.159	3.81
318.371	3.96
318.583	3.9
318.794	3.97
319.006	4.23
319.218	4.35
319.43	4.61
319.641	4.71
319.853	3.99
320.064	3.91
320.276	3.32
320.488	3.02
320.699	3.15
320.911	3.21
321.123	3.14
321.334	2.88
321.546	3.11
321.757	3.19
321.969	3.02
322.18	3.8
322.392	3.97
322.603	4.32
322.815	4.15
323.026	3.81
323.238	4.01
323.449	4.11
323.661	4.26
323.872	4.22
324.083	4.34
324.295	4.73
324.506	4.66
324.718	4.51
324.929	4.61
325.14	4.49
325.352	4.9
325.563	4.76
325.774	5.06
325.986	5.23
326.197	5.35
326.408	5.37
326.62	5.5
326.831	5.59
327.042	5.95
327.253	5.95
327.464	6.41
327.676	6.76
327.887	7.06
328.098	7.08
328.309	7.25
328.52	7.51
328.732	7.76
328.943	7.49
329.154	7.88
329.365	7.88
329.576	7.84
329.787	7.53
329.998	7.37
330.209	7.68
330.42	7.57
330.631	7.44
330.842	7.66
331.053	8.1
331.264	8.61
331.475	9.32
331.686	9.66
331.897	10.05
332.108	10.21
332.319	10.38
332.53	10.1
332.741	10.36
332.952	10.38
333.163	9.93
333.374	9.76
333.585	9.69
333.795	9.22
334.006	9.14
334.217	9.39
334.428	9.39
334.639	9.11
334.849	8.91
335.06	8.9
335.271	9.26
335.482	9.47
335.692	9.26
335.903	9.38
336.114	9.08
336.325	8.68
336.535	8.37
336.746	8.7
336.957	8.96
337.167	9.37
337.378	9.48
337.589	9.25
337.799	9.02
338.01	8.8
338.22	8.74
338.431	8.97
338.642	9.19
338.852	9.04
339.063	8.82
339.273	8.84
339.484	8.76
339.694	8.6
339.905	8.91
340.115	9.1
340.326	9.33
340.536	9.47
340.746	9.67
340.957	9.54
341.167	9.37
341.378	9.5
341.588	9.59
341.799	9.3
342.009	9.14
342.219	8.99
342.43	8.78
342.64	8.99
342.85	8.95
343.061	9.01
343.271	9.05
343.481	9.31
343.691	9.3
343.902	8.89
344.112	9.18
344.322	9.25
344.532	9.41
344.743	9.54
344.953	9.46
345.163	9.05
345.373	8.59
345.583	8.52
345.793	8.59
346.004	8.7
346.214	9.2
346.424	8.86
346.634	8.92
346.844	8.76
347.054	9.16
347.264	9.07
347.474	9.29
347.684	9.43
347.894	9.75
348.104	9.77
348.314	9.83
348.524	9.79
348.734	10.12
348.944	10.13
349.154	10.26
349.364	9.89
349.574	10.03
349.784	10.2
349.994	10.12
350.204	9.88
350.413	9.81
350.623	9.38
350.833	9.14
351.043	9
351.253	9.16
351.463	8.94
351.672	8.96
351.882	8.92
352.092	8.88
352.302	8.99
352.511	9.05
352.721	8.87
352.931	8.72
353.141	8.95
353.35	9.01
353.56	8.99
353.77	8.6
353.979	8.25
354.189	8.32
354.399	8.12
354.608	8
354.818	7.99
355.027	8.22
355.237	8.35
355.447	8.27
355.656	8.21
355.866	7.94
356.075	8.14
356.285	8.31
356.494	7.98
356.704	7.97
356.913	8
357.123	8.07
357.332	8.18
357.542	8.16
357.751	7.93
357.96	7.61
358.17	7.59
358.379	7.53
358.589	7.62
358.798	7.79
359.007	7.74
359.217	7.64
359.426	7.34
359.635	7.38
359.845	7.15
360.054	7.21
360.263	7.42
360.472	7.47
360.682	7.56
360.891	7.57
361.1	7.59
361.309	7.74
361.519	7.84
361.728	8.17
361.937	7.97
362.146	8.09
362.355	7.93
362.564	8.04
362.774	7.91
362.983	7.97
363.192	7.93
363.401	7.93
363.61	7.75
363.819	7.82
364.028	7.57
364.237	7.38
364.446	7.42
364.655	7.46
364.864	7.36
365.073	7.6
365.282	7.53
365.491	7.59
365.7	7.59
365.909	7.69
366.118	7.76
366.327	7.71
366.536	7.82
366.745	7.93
366.954	8.19
367.162	8.09
367.371	8
367.58	8.07
367.789	8.02
367.998	7.83
368.207	8.04
368.415	8.15
368.624	8.41
368.833	8.72
369.042	8.58
369.25	8.39
369.459	8.69
369.668	8.7
369.877	8.51
370.085	8.41
370.294	8.69
370.503	8.39
370.711	7.97
370.92	7.8
371.129	7.44
371.337	7.46
371.546	7.36
371.754	6.99
371.963	6.79
372.171	6.89
372.38	6.9
372.589	6.7
372.797	6.82
373.006	6.93
373.214	6.84
373.423	7.04
373.631	7.02
373.84	7.05
374.048	7.17
374.256	7.37
374.465	7.44
374.673	7.37
374.882	7.42
375.09	7.56
375.298	7.71
375.507	7.87
375.715	7.61
375.923	7.74
376.132	7.93
376.34	7.7
376.548	7.61
376.757	7.69
376.965	7.68
377.173	7.61
377.381	7.61
377.59	7.6
377.798	7.6
378.006	7.65
378.214	7.54
378.423	7.58
378.631	7.82
378.839	7.91
379.047	7.83
379.255	7.79
379.463	7.71
379.671	7.41
379.879	7.12
380.088	7.15
380.296	7.3
380.504	7.35
380.712	7.41
380.92	7.33
381.128	7.37
381.336	7.24
381.544	7.33
381.752	7.37
381.96	7.66
382.168	7.84
382.376	7.82
382.584	7.75
382.791	7.8
382.999	7.57
383.207	7.63
383.415	7.72
383.623	7.82
383.831	7.89
384.039	7.95
384.247	7.94
384.454	7.74
384.662	7.74
384.87	7.72
385.078	7.81
385.285	7.68
385.493	7.67
385.701	7.39
385.909	7.43
386.116	7.37
386.324	7.29
386.532	7.1
386.739	7.13
386.947	7.13
387.155	7.19
387.362	7.17
387.57	7.28
387.778	7.24
387.985	7.13
388.193	7.06
388.4	6.97
388.608	7.17
388.816	7.17
389.023	7.3
389.231	7.26
389.438	7.35
389.646	7.32
389.853	7.31
390.061	7.59
390.268	7.9
390.475	7.62
390.683	7.8
390.89	7.92
391.098	8.18
391.305	8.13
391.512	8.1
391.72	7.87
391.927	7.6
392.135	7.66
392.342	7.37
392.549	7.27
392.756	7.42
392.964	7.33
393.171	7.13
393.378	6.97
393.586	7.05
393.793	7.05
394	7.17
394.207	7.44
394.414	7.44
394.622	7.62
394.829	7.78
395.036	7.78
395.243	7.84
395.45	7.82
395.657	7.91
395.864	7.91
396.072	7.9
396.279	8.01
396.486	7.89
396.693	7.79
396.9	7.88
397.107	7.71
397.314	7.83
397.521	7.67
397.728	7.66
397.935	7.58
398.142	7.46
398.349	7.51
398.556	7.43
398.763	7.45
398.97	7.46
399.177	7.34
399.383	7.28
399.59	7.09
399.797	7.32
400.004	7.33
400.211	7.25
400.418	7.39
400.625	7.36
400.831	7.15
401.038	7.18
401.245	7.25
401.452	7.19
401.658	7.25
401.865	7.32
402.072	7.28
402.279	7.34
402.485	7.44
402.692	7.41
402.899	7.39
403.105	7.82
403.312	7.78
403.519	7.78
403.725	7.76
403.932	7.86
404.138	7.88
404.345	7.77
404.552	7.88
404.758	7.96
404.965	8.02
405.171	8.05
405.378	7.92
405.584	8
405.791	7.92
405.997	7.96
406.204	7.97
406.41	8.06
406.617	8.12
406.823	8.06
407.029	7.98
407.236	7.87
407.442	7.95
407.649	7.84
407.855	7.74
408.061	7.83
408.268	8
408.474	7.92
408.68	8.07
408.887	8.06
409.093	8.15
409.299	8.22
409.505	8.23
409.712	8.22
409.918	8.34
410.124	8.34
410.33	8.4
410.537	8.28
410.743	8.29
410.949	8.11
411.155	8.19
411.361	8.03
411.567	7.99
411.773	7.94
411.98	7.87
412.186	7.76
412.392	7.88
412.598	7.87
412.804	7.91
413.01	7.82
413.216	7.91
413.422	7.98
413.628	8.02
413.834	7.98
414.04	8.07
414.246	7.92
414.452	8.04
414.658	7.94
414.864	7.91
415.07	7.89
415.275	8.01
415.481	8
415.687	7.82
415.893	7.61
416.099	7.64
416.305	7.66
416.511	7.76
416.716	7.71
416.922	7.65
417.128	7.69
417.334	7.74
417.539	7.75
417.745	7.58
417.951	7.62
418.157	7.85
418.362	7.88
418.568	7.83
418.774	7.89
418.979	7.88
419.185	7.96
419.391	7.95
419.596	7.93
419.802	7.98
420.008	8.07
420.213	8.74
420.419	8.6
420.624	8.5
420.83	8.59
421.035	8.59
421.241	8.53
421.446	8.51
421.652	8.57
421.857	8.65
422.063	8.53
422.268	8.55
422.474	7.95
422.679	8
422.885	8.12
423.09	8.06
423.295	8.04
423.501	8.04
423.706	8.06
423.911	7.94
424.117	7.85
424.322	8
424.527	7.95
424.733	7.93
424.938	7.96
425.143	7.89
425.349	7.89
425.554	7.9
425.759	8.03
425.964	8.01
426.169	8.09
426.375	8.1
426.58	8.03
426.785	8.06
426.99	8
427.195	7.98
427.4	8.06
427.605	8.05
427.811	8.04
428.016	7.94
428.221	7.96
428.426	7.91
428.631	7.91
428.836	7.98
429.041	7.95
429.246	8.11
429.451	8.02
429.656	7.98
429.861	7.97
430.066	7.99
430.271	8
430.476	8.01
430.681	7.98
430.886	8.05
431.09	8.04
431.295	8.16
431.5	8.05
431.705	8.05
431.91	8.19
432.115	8.16
432.32	8.24
432.524	8.28
432.729	8.27
432.934	8.29
433.139	8.26
433.343	8.2
433.548	8.24
433.753	8.37
433.958	8.44
434.162	8.4
434.367	8.56
434.572	8.5
434.776	8.64
434.981	8.78
435.186	8.91
435.39	9.01
435.595	9.09
435.799	9.03
436.004	9.08
436.209	9.07
436.413	9.17
436.618	9.08
436.822	9.11
437.027	9
437.231	8.89
437.436	8.73
437.64	8.57
437.845	8.48
438.049	8.48
438.253	8.39
438.458	8.4
438.662	8.22
438.867	8.14
439.071	8.1
439.275	8.04
439.48	8
439.684	8.09
439.888	8.17
440.093	8.29
440.297	8.24
440.501	8.19
440.706	8.17
440.91	8.14
441.114	8.21
441.318	8.2
441.523	8.2
441.727	8.23
441.931	8.19
442.135	8.25
442.339	8.15
442.543	8.2
442.748	8.3
442.952	8.41
443.156	8.48
443.36	8.43
443.564	8.38
443.768	8.46
443.972	8.47
444.176	8.49
444.38	8.42
444.584	8.46
444.788	8.47
444.992	8.48
445.196	8.43
445.4	8.43
445.604	8.44
445.808	8.42
446.012	8.38
446.216	8.33
446.42	8.31
446.624	8.25
446.828	8.19
447.032	8.23
447.235	8.21
447.439	8.22
447.643	8.18
447.847	8.26
448.051	8.35
448.254	8.34
448.458	8.37
448.662	8.38
448.866	8.4
449.069	8.42
449.273	8.37
449.477	8.34
449.681	8.36
449.884	8.36
450.088	8.2
450.292	8.18
450.495	8.19
450.699	8.16
450.902	8.12
451.106	8.16
451.31	8.23
451.513	8.21
451.717	8.11
451.92	7.98
452.124	8
452.327	8.03
452.531	8
452.734	8.02
452.938	8.01
453.141	8.09
453.345	8.23
453.548	8.12
453.752	8.1
453.955	8.22
454.158	8.29
454.362	8.43
454.565	8.45
454.769	8.48
454.972	8.43
455.175	8.56
455.379	8.53
455.582	8.44
455.785	8.47
455.988	8.55
456.192	8.54
456.395	8.57
456.598	8.43
456.801	8.52
457.005	8.44
457.208	8.46
457.411	8.36
457.614	8.4
457.817	8.43
458.021	8.41
458.224	8.43
458.427	8.42
458.63	8.4
458.833	8.45
459.036	8.37
459.239	8.47
459.442	8.45
459.645	8.44
459.848	8.39
460.051	8.4
460.254	8.4
460.457	8.38
460.66	8.34
460.863	8.39
461.066	8.31
461.269	8.38
461.472	8.33
461.675	8.4
461.878	8.47
462.081	8.57
462.284	8.49
462.486	8.59
462.689	8.61
462.892	8.63
463.095	8.57
463.298	8.78
463.5	8.75
463.703	8.72
463.906	8.7
464.109	8.75
464.311	8.6
464.514	8.58
464.717	8.55
464.92	8.46
465.122	8.45
465.325	8.5
465.528	8.46
465.73	8.39
465.933	8.46
466.135	8.58
466.338	8.61
466.541	8.65
466.743	8.67
466.946	8.64
467.148	8.74
467.351	8.86
467.553	8.88
467.756	8.85
467.958	8.93
468.161	8.84
468.363	8.76
468.566	8.57
468.768	8.65
468.971	8.72
469.173	8.74
469.375	8.6
469.578	8.6
469.78	8.53
469.983	8.5
470.185	8.49
470.387	8.6
470.59	8.56
470.792	8.7
470.994	8.68
471.196	8.67
471.399	8.62
471.601	8.72
471.803	8.68
472.005	8.74
472.208	8.7
472.41	8.65
472.612	8.69
472.814	8.67
473.016	8.65
473.218	8.64
473.421	8.56
473.623	8.61
473.825	8.64
474.027	8.58
474.229	8.6
474.431	8.58
474.633	8.71
474.835	8.68
475.037	8.52
475.239	8.49
475.441	8.4
475.643	8.47
475.845	8.48
476.047	8.42
476.249	8.41
476.451	8.33
476.653	8.45
476.855	8.36
477.057	8.4
477.258	8.59
477.46	8.69
477.662	8.86
477.864	8.8
478.066	8.78
478.268	8.81
478.469	8.79
478.671	8.85
478.873	8.76
479.075	8.77
479.276	8.71
479.478	8.69
479.68	8.63
479.882	8.55
480.083	8.61
480.285	8.6
480.487	8.62
480.688	8.65
480.89	8.68
481.091	8.69
481.293	8.69
481.495	8.71
481.696	8.7
481.898	8.72
482.099	8.69
482.301	8.68
482.502	8.68
482.704	8.66
482.905	8.66
483.107	8.63
483.308	8.62
483.51	8.66
483.711	8.62
483.913	8.61
484.114	8.6
484.315	8.58
484.517	8.58
484.718	8.6
484.92	8.62
485.121	8.63
485.322	8.66
485.524	8.67
485.725	8.67
485.926	8.71
486.127	8.76
486.329	8.73
486.53	8.77
486.731	8.77
486.932	8.76
487.134	8.74
487.335	8.72
487.536	8.67
487.737	8.68
487.938	8.68
488.139	8.68
488.341	8.65
488.542	8.7
488.743	8.71
488.944	8.69
489.145	8.71
489.346	8.7
489.547	8.76
489.748	8.81
489.949	8.85
490.15	8.82
490.351	8.82
490.552	8.82
490.753	8.8
490.954	8.8
491.155	8.8
491.356	8.77
491.557	8.78
491.758	8.76
491.959	8.72
492.159	8.7
492.36	8.69
492.561	8.75
492.762	8.73
492.963	8.75
493.164	8.75
493.364	8.78
493.565	8.84
493.766	8.86
493.967	8.88
494.167	8.89
494.368	8.92
494.569	8.96
494.769	8.87
494.97	8.96
495.171	9
495.371	8.98
495.572	9
495.773	9.03
495.973	9.05
496.174	9.02
496.375	9.11
496.575	9.21
496.776	9.2
496.976	9.22
497.177	9.18
497.377	9.13
497.578	9.23
497.778	9.2
497.979	9.2
498.179	9.23
498.38	9.25
498.58	9.19
498.78	9.11
498.981	9.09
499.181	9.12
499.382	9.15
499.582	9.15
499.782	9.07
499.983	9.08
500.183	9.15
500.383	9.26
500.584	9.24
500.784	9.29
500.984	9.32
501.184	9.31
501.385	9.34
501.585	9.36
501.785	9.42
501.985	9.42
502.185	9.45
502.386	9.33
502.586	9.25
502.786	9.36
502.986	9.43
503.186	9.42
503.386	9.5
503.586	9.51
503.786	9.6
503.987	9.56
504.187	9.62
504.387	9.68
504.587	9.69
504.787	9.65
504.987	9.68
505.187	9.58
505.387	9.59
505.587	9.54
505.786	9.47
505.986	9.49
506.186	9.47
506.386	9.48
506.586	9.41
506.786	9.43
506.986	9.4
507.186	9.37
507.386	9.44
507.585	9.49
507.785	9.54
507.985	9.58
508.185	9.53
508.384	9.56
508.584	9.57
508.784	9.5
508.984	9.56
509.183	9.6
509.383	9.63
509.583	9.63
509.782	9.64
509.982	9.68
510.182	9.69
510.381	9.67
510.581	9.71
510.781	9.75
510.98	9.8
511.18	9.8
511.379	9.82
511.579	9.8
511.778	9.79
511.978	9.71
512.177	9.71
512.377	9.74
512.576	9.79
512.776	9.87
512.975	9.81
513.175	9.87
513.374	9.83
513.573	9.87
513.773	9.89
513.972	9.91
514.172	9.98
514.371	10.05
514.57	10.1
514.77	10.12
514.969	10.08
515.168	10.16
515.367	10.16
515.567	10.26
515.766	10.28
515.965	10.25
516.164	10.3
516.364	10.36
516.563	10.31
516.762	10.32
516.961	10.37
517.16	10.31
517.359	10.25
517.559	10.28
517.758	10.23
517.957	10.16
518.156	10.21
518.355	10.21
518.554	10.13
518.753	10.14
518.952	10.1
519.151	10.09
519.35	10.13
519.549	10.13
519.748	10.16
519.947	10.2
520.146	10.28
520.345	10.29
520.544	10.32
520.743	10.38
520.942	10.37
521.141	10.39
521.339	10.42
521.538	10.45
521.737	10.52
521.936	10.57
522.135	10.54
522.333	10.54
522.532	10.52
522.731	10.51
522.93	10.52
523.129	10.51
523.327	10.52
523.526	10.52
523.725	10.55
523.923	10.52
524.122	10.49
524.321	10.53
524.519	10.5
524.718	10.54
524.917	10.55
525.115	10.57
525.314	10.56
525.512	10.61
525.711	10.61
525.909	10.6
526.108	10.62
526.306	10.64
526.505	10.63
526.703	10.63
526.902	10.61
527.1	10.6
527.299	10.55
527.497	10.56
527.696	10.5
527.894	10.47
528.092	10.45
528.291	10.47
528.489	10.44
528.688	10.43
528.886	10.42
529.084	10.4
529.283	10.4
529.481	10.45
529.679	10.45
529.877	10.51
530.076	10.55
530.274	10.55
530.472	10.54
530.67	10.6
530.869	10.61
531.067	10.62
531.265	10.68
531.463	10.69
531.661	10.68
531.859	10.68
532.057	10.67
532.255	10.63
532.454	10.64
532.652	10.66
532.85	10.65
533.048	10.71
533.246	10.73
533.444	10.78
533.642	10.8
533.84	10.85
534.038	10.89
534.236	10.91
534.434	10.93
534.632	11.04
534.83	11.08
535.027	11.07
535.225	11.1
535.423	11.09
535.621	11.05
535.819	11.01
536.017	11.02
536.215	11.06
536.412	11.04
536.61	11.15
536.808	11.06
537.006	11.06
537.203	11.16
537.401	11.16
537.599	11.29
537.797	11.33
537.994	11.44
538.192	11.46
538.39	11.45
538.587	11.58
538.785	11.58
538.983	11.68
539.18	11.81
539.378	11.85
539.575	11.88
539.773	11.87
539.97	11.9
540.168	11.93
540.366	11.93
540.563	11.95
540.761	11.94
540.958	11.97
541.155	12.02
541.353	12.03
541.55	12.03
541.748	12.07
541.945	12.09
542.143	12.14
542.34	12.19
542.537	12.28
542.735	12.37
542.932	12.38
543.129	12.45
543.327	12.51
543.524	12.58
543.721	12.71
543.919	12.88
544.116	13.02
544.313	13.25
544.51	13.38
544.708	13.62
544.905	13.73
545.102	14
545.299	14.14
545.496	14.27
545.693	14.36
545.891	14.38
546.088	14.35
546.285	14.35
546.482	14.28
546.679	14.24
546.876	14.11
547.073	14.09
547.27	13.94
547.467	13.89
547.664	13.82
547.861	13.72
548.058	13.65
548.255	13.59
548.452	13.55
548.649	13.47
548.846	13.41
549.043	13.35
549.24	13.28
549.437	13.23
549.633	13.16
549.83	13.16
550.027	13.14
550.224	13.22
550.421	13.22
550.618	13.16
550.814	13.15
551.011	13.19
551.208	13.09
551.405	13.2
551.601	13.2
551.798	13.17
551.995	13
552.191	13.11
552.388	13.05
552.585	13
552.781	13.04
552.978	13.02
553.175	12.9
553.371	12.99
553.568	12.82
553.764	12.87
553.961	12.86
554.157	12.89
554.354	12.71
554.55	12.6
554.747	12.59
554.943	12.6
555.14	12.57
555.336	12.57
555.533	12.6
555.729	12.71
555.926	12.75
556.122	12.85
556.318	12.93
556.515	13.11
556.711	13.19
556.907	13.2
557.104	13.1
557.3	13.1
557.496	13.13
557.693	13.07
557.889	12.99
558.085	12.95
558.281	12.91
558.478	12.95
558.674	12.96
558.87	12.98
559.066	13.05
559.262	13.14
559.459	13.09
559.655	13.11
559.851	13.1
560.047	13.14
560.243	13
560.439	12.86
560.635	12.83
560.831	12.75
561.027	12.73
561.223	12.64
561.419	12.51
561.615	12.54
561.811	12.61
562.007	12.65
562.203	12.7
562.399	12.8
562.595	12.89
562.791	12.9
562.987	12.89
563.183	13.03
563.379	13.14
563.575	13.29
563.771	13.37
563.966	13.4
564.162	13.52
564.358	13.51
564.554	13.6
564.75	13.65
564.945	13.65
565.141	13.52
565.337	13.35
565.533	13.19
565.728	13.12
565.924	12.97
566.12	12.92
566.315	12.85
566.511	12.82
566.707	12.63
566.902	12.55
567.098	12.56
567.293	12.74
567.489	12.74
567.684	12.89
567.88	12.86
568.076	12.96
568.271	12.97
568.467	12.97
568.662	12.94
568.858	13.06
569.053	13.05
569.248	13.05
569.444	12.89
569.639	12.93
569.835	12.89
570.03	12.92
570.225	12.89
570.421	12.83
570.616	12.8
570.812	12.88
571.007	12.83
571.202	12.83
571.397	12.81
571.593	12.79
571.788	12.91
571.983	12.93
572.178	12.97
572.374	12.98
572.569	13.04
572.764	13.02
572.959	13
573.154	13.06
573.35	13.16
573.545	13.18
573.74	13.28
573.935	13.28
574.13	13.34
574.325	13.33
574.52	13.43
574.715	13.48
574.91	13.51
575.105	13.63
575.3	13.68
575.495	13.67
575.69	13.72
575.885	13.67
576.08	13.7
576.275	13.75
576.47	13.96
576.665	13.96
576.86	14.02
577.055	14.15
577.25	14.18
577.444	14.31
577.639	14.41
577.834	14.56
578.029	14.84
578.224	14.88
578.418	14.97
578.613	14.97
578.808	15.13
579.003	15.19
579.197	15.25
579.392	15.14
579.587	15.14
579.781	15.1
579.976	14.92
580.171	14.86
580.365	14.88
580.56	14.8
580.755	14.69
580.949	14.68
581.144	14.58
581.338	14.65
581.533	14.74
581.727	14.84
581.922	14.86
582.116	15.15
582.311	15.09
582.505	15.23
582.7	15.35
582.894	15.3
583.089	15.29
583.283	15.25
583.478	15.4
583.672	15.45
583.866	15.28
584.061	15.16
584.255	15.07
584.449	15.13
584.644	15.05
584.838	14.95
585.032	15.12
585.226	15.22
585.421	15.44
585.615	15.31
585.809	15.46
586.003	15.52
586.198	15.68
586.392	15.78
586.586	15.79
586.78	15.82
586.974	15.8
587.168	15.81
587.363	15.62
587.557	15.45
587.751	15.43
587.945	15.27
588.139	15.35
588.333	15.39
588.527	15.29
588.721	15.23
588.915	15.17
589.109	15.11
589.303	15.14
589.497	15.24
589.691	15.18
589.885	15.12
590.079	15.15
590.273	15.06
590.466	15.13
590.66	15.04
590.854	15.12
591.048	15.14
591.242	15.35
591.436	15.41
591.629	15.38
591.823	15.51
592.017	15.66
592.211	15.76
592.404	15.9
592.598	15.99
592.792	16.01
592.986	16.15
593.179	16.11
593.373	15.94
593.567	15.8
593.76	15.83
593.954	15.82
594.147	15.76
594.341	15.66
594.535	15.5
594.728	15.27
594.922	15.23
595.115	15.02
595.309	14.89
595.502	14.95
595.696	14.93
595.889	14.92
596.083	14.9
596.276	14.84
596.47	14.69
596.663	14.75
596.856	14.87
597.05	14.97
597.243	14.96
597.437	15.05
597.63	15.02
597.823	15.05
598.017	15.08
598.21	15.12
598.403	15.35
598.596	15.64
598.79	15.68
598.983	15.66
599.176	15.58
599.369	15.73
599.563	15.82
599.756	15.81
599.949	15.99
600.142	16.12
600.335	16.21
600.528	15.92
600.722	15.76
600.915	15.69
601.108	15.63
601.301	15.65
601.494	15.56
601.687	15.4
601.88	15.55
602.073	15.38
602.266	15.23
602.459	15.21
602.652	15.31
602.845	15.26
603.038	15.33
603.231	15.31
603.424	15.34
603.617	15.33
603.809	15.46
604.002	15.3
604.195	15.34
604.388	15.33
604.581	15.27
604.774	15.22
604.966	15.28
605.159	15.24
605.352	15.23
605.545	15.26
605.737	15.25
605.93	15.39
606.123	15.62
606.316	15.64
606.508	15.63
606.701	15.73
606.894	15.85
607.086	15.91
607.279	16.09
607.471	16.22
607.664	16.38
607.857	16.77
608.049	16.83
608.242	16.9
608.434	17.17
608.627	17.74
608.819	18.23
609.012	18.84
609.204	19.49
609.397	20.16
609.589	20.96
609.782	21.82
609.974	22.53
610.166	23.47
610.359	24.46
610.551	25.45
610.743	26.29
610.936	26.86
611.128	27.38
611.32	27.81
611.513	28.01
611.705	28.21
611.897	28.13
612.09	28.26
612.282	28.16
612.474	27.76
612.666	27.39
612.858	26.9
613.051	26.65
613.243	26.39
613.435	25.83
613.627	25.64
613.819	25.18
614.011	24.84
614.203	24.22
614.395	23.39
614.588	23.2
614.78	22.72
614.972	22.31
615.164	21.82
615.356	21.34
615.548	21.1
615.74	20.68
615.932	20.26
616.124	19.94
616.315	19.69
616.507	19.64
616.699	19.25
616.891	19.18
617.083	18.86
617.275	18.83
617.467	18.67
617.659	18.45
617.85	18.31
618.042	18.32
618.234	18.09
618.426	18.09
618.618	18.09
618.809	17.99
619.001	17.9
619.193	18.15
619.384	18.05
619.576	18.03
619.768	18.04
619.959	18.04
620.151	17.95
620.343	18.01
620.534	18.02
620.726	17.99
620.917	18.14
621.109	17.89
621.301	17.76
621.492	17.8
621.684	17.75
621.875	17.84
622.067	17.88
622.258	17.96
622.45	18.18
622.641	18.2
622.832	18.31
623.024	18.41
623.215	18.43
623.407	18.4
623.598	18.27
623.789	18.31
623.981	18.24
624.172	18.21
624.363	18.28
624.555	18.17
624.746	18.06
624.937	18.08
625.129	17.83
625.32	17.95
625.511	17.99
625.702	17.96
625.893	17.82
626.085	18.03
626.276	18.03
626.467	17.96
626.658	17.99
626.849	18.03
627.04	17.82
627.231	17.96
627.422	17.99
627.614	18.11
627.805	18.26
627.996	18.44
628.187	18.38
628.378	18.41
628.569	18.51
628.76	18.52
628.951	18.55
629.142	18.81
629.332	18.91
629.523	19.07
629.714	19.14
629.905	19.41
630.096	19.45
630.287	19.78
630.478	19.93
630.669	19.96
630.859	20.11
631.05	20.22
631.241	20.16
631.432	20.1
631.623	19.81
631.813	19.57
632.004	19.35
632.195	19.31
632.385	18.78
632.576	18.71
632.767	18.65
632.957	18.52
633.148	18.34
633.339	18.25
633.529	18.11
633.72	18.3
633.91	18.24
634.101	18.2
634.292	18.08
634.482	18.3
634.673	18.04
634.863	17.81
635.054	17.82
635.244	17.87
635.435	17.74
635.625	17.65
635.815	17.59
636.006	17.69
636.196	17.5
636.387	17.38
636.577	17.28
636.767	17.44
636.958	17.69
637.148	17.6
637.338	17.54
637.529	17.71
637.719	17.88
637.909	17.73
638.099	17.73
638.29	17.96
638.48	18.1
638.67	18.16
638.86	18.34
639.05	18.1
639.241	18.05
639.431	18.11
639.621	18.17
639.811	17.93
640.001	18.02
640.191	17.83
640.381	17.67
640.571	17.6
640.761	17.64
640.951	17.54
641.141	17.84
641.331	17.82
641.521	17.93
641.711	17.98
641.901	18.47
642.091	18.37
642.281	18.48
642.471	18.66
642.661	18.71
642.851	18.77
643.041	18.74
643.231	18.8
643.42	18.86
643.61	18.98
643.8	18.98
643.99	18.8
644.18	19.14
644.369	19.38
644.559	19.45
644.749	19.56
644.939	19.55
645.128	19.72
645.318	19.66
645.508	19.9
645.697	19.51
645.887	19.83
646.076	19.77
646.266	19.61
646.456	19.51
646.645	19.61
646.835	19.73
647.024	19.73
647.214	19.59
647.403	19.87
647.593	19.66
647.782	19.83
647.972	19.48
648.161	19.82
648.351	19.83
648.54	19.78
648.73	19.71
648.919	19.67
649.108	19.5
649.298	19.67
649.487	19.44
649.677	19.66
649.866	19.75
650.055	19.96
650.244	19.8
650.434	19.71
650.623	19.72
650.812	19.6
651.002	19.56
651.191	19.7
651.38	19.64
651.569	19.61
651.758	19.52
651.947	19.5
652.137	19.46
652.326	19.49
652.515	19.72
652.704	19.79
652.893	19.81
653.082	19.97
653.271	20.06
653.46	20.11
653.649	20.12
653.838	20.39
654.027	20.58
654.216	20.31
654.405	20.31
654.594	20.22
654.783	20.04
654.972	20.23
655.161	20.16
655.35	20.1
655.539	20.03
655.728	20.12
655.916	19.94
656.105	19.91
656.294	20.11
656.483	20.11
656.672	20.07
656.86	20.25
657.049	20.25
657.238	20.3
657.427	20.4
657.615	20.37
657.804	20.24
657.993	20.12
658.181	20.24
658.37	20.13
658.559	20.07
658.747	20.1
658.936	20.08
659.125	19.98
659.313	19.91
659.502	19.75
659.69	19.84
659.879	19.96
660.067	20.08
660.256	19.76
660.444	19.78
660.633	19.78
660.821	19.84
661.01	20.04
661.198	20.18
661.387	20.45
661.575	20.81
661.763	21.06
661.952	21.04
662.14	21.14
662.328	21.53
662.517	21.74
662.705	21.81
662.893	21.72
663.082	21.68
663.27	21.62
663.458	21.32
663.646	21.06
663.834	20.72
664.023	20.73
664.211	20.46
664.399	20.19
664.587	19.99
664.775	20.4
664.963	20.54
665.152	20.52
665.34	20.57
665.528	20.75
665.716	20.65
665.904	20.8
666.092	20.85
666.28	21.07
666.468	21.26
666.656	21.24
666.844	21.05
667.032	21.15
667.22	21.2
667.408	21.15
667.596	21.36
667.784	21.58
667.971	21.47
668.159	21.73
668.347	21.62
668.535	21.68
668.723	21.92
668.911	21.97
669.098	21.86
669.286	21.71
669.474	22.04
669.662	21.82
669.849	21.96
670.037	22.07
670.225	21.87
670.413	22.16
670.6	21.88
670.788	21.85
670.976	21.8
671.163	22
671.351	21.88
671.538	21.74
671.726	21.98
671.913	21.88
672.101	21.85
672.289	22.06
672.476	21.63
672.664	21.91
672.851	21.86
673.039	22.05
673.226	21.88
673.413	22.15
673.601	22.23
673.788	22.09
673.976	22.27
674.163	22.3
674.35	22.23
674.538	22.45
674.725	22.34
674.912	22.48
675.1	22.44
675.287	22.57
675.474	22.57
675.662	22.74
675.849	22.77
676.036	22.66
676.223	22.86
676.411	22.96
676.598	23.26
676.785	23.06
676.972	23.2
677.159	23.09
677.346	22.95
677.533	23.08
677.721	22.98
677.908	23.16
678.095	23.05
678.282	22.79
678.469	22.61
678.656	22.37
678.843	22.64
679.03	22.68
679.217	22.66
679.404	22.69
679.591	22.62
679.778	22.48
679.964	22.17
680.151	22.28
680.338	22.52
680.525	22.82
680.712	23.05
680.899	23.11
681.086	22.99
681.272	23.05
681.459	23.03
681.646	23.15
681.833	23.25
682.02	23.44
682.206	23.44
682.393	23.27
682.58	23.23
682.766	23.19
682.953	23.31
683.14	23.39
683.326	23.2
683.513	23.22
683.7	22.97
683.886	23.01
684.073	23.19
684.259	23.23
684.446	23.49
684.632	23.4
684.819	23.27
685.005	23.28
685.192	23.43
685.378	23.76
685.565	23.97
685.751	24.09
685.938	24.31
686.124	24.33
686.31	24.32
686.497	24.31
686.683	24.28
686.87	24.18
687.056	24.06
687.242	23.83
687.429	23.8
687.615	23.62
687.801	24.1
687.987	24.2
688.174	24.01
688.36	24.06
688.546	24
688.732	24.31
688.918	24.8
689.105	24.83
689.291	25.1
689.477	25
689.663	25.31
689.849	25.18
690.035	24.87
690.221	25.08
690.407	25.32
690.593	25.07
690.779	24.79
690.965	24.54
691.151	24.74
691.337	24.58
691.523	25.02
691.709	25.16
691.895	25.11
692.081	25.17
692.267	25.08
692.453	25.19
692.639	25.74
692.825	25.76
693.011	25.84
693.196	25.78
693.382	25.8
693.568	25.77
693.754	25.68
693.94	25.24
694.125	25.19
694.311	25.1
694.497	24.78
694.682	24.91
694.868	24.91
695.054	24.83
695.239	24.84
695.425	25.01
695.611	25.22
695.796	25.04
695.982	25.6
696.168	25.55
696.353	25.72
696.539	25.71
696.724	25.38
696.91	25.15
697.095	25
697.281	24.84
697.466	24.9
697.652	24.66
697.837	24.88
698.023	24.62
698.208	24.65
698.393	24.24
698.579	24.21
698.764	24.11
698.949	24.13
699.135	24.17
699.32	24.27
699.505	24.44
699.691	24.17
699.876	24.22
700.061	24.53
700.246	24.5
700.432	25.11
700.617	25.11
700.802	25.31
700.987	25.75
701.172	26.17
701.358	26.33
701.543	26.36
701.728	26.76
701.913	26.77
702.098	26.65
702.283	26.71
702.468	26.72
702.653	26.94
702.838	26.81
703.023	26.84
703.208	26.94
703.393	26.95
703.578	26.9
703.763	27.34
703.948	27.62
704.133	27.61
704.318	28.11
704.503	28.33
704.688	28.21
704.873	28.67
705.057	29.03
705.242	29.25
705.427	29.29
705.612	29.27
705.797	29.11
705.981	28.86
706.166	29.47
706.351	29.16
706.536	29.67
706.72	30.12
706.905	30.29
707.09	30.43
707.274	30.54
707.459	30.61
707.644	30.45
707.828	30.42
708.013	30.34
708.197	30.23
708.382	30.09
708.567	29.45
708.751	29.47
708.936	29.44
709.12	29
709.305	28.88
709.489	29.45
709.673	29.25
709.858	28.87
710.042	29.08
710.227	29.25
710.411	29.55
710.596	29.44
710.78	29.28
710.964	29.15
711.149	29.34
711.333	29.54
711.517	29.17
711.702	29.6
711.886	29.95
712.07	29.85
712.254	29.63
712.438	29.55
712.623	29.59
712.807	29.25
712.991	29.21
713.175	29.01
713.359	28.52
713.544	28.16
713.728	28.08
713.912	27.89
714.096	27.56
714.28	27.21
714.464	26.97
714.648	27.02
714.832	27.26
715.016	27.14
715.2	27.09
715.384	26.7
715.568	26.97
715.752	26.73
715.936	27.17
716.12	27.31
716.304	26.85
716.488	26.97
716.671	26.74
716.855	26.75
717.039	26.63
717.223	26.6
717.407	26.74
717.59	26.5
717.774	26.34
717.958	26.08
718.142	25.43
718.325	26.02
718.509	26.16
718.693	26.56
718.877	26.53
719.06	26.82
719.244	26.82
719.428	27.4
719.611	27.31
719.795	27.47
719.978	27.11
720.162	28.02
720.345	28.06
720.529	27.94
720.713	27.67
720.896	28.18
721.08	28.31
721.263	27.86
721.446	27.35
721.63	27.25
721.813	27.23
721.997	27.27
722.18	27.04
722.364	27.16
722.547	27.41
722.73	27.77
722.914	27.47
723.097	27.13
723.28	27.74
723.464	27.95
723.647	28.47
723.83	28.29
724.013	28.69
724.197	28.82
724.38	28.78
724.563	28.7
724.746	28.35
724.929	27.93
725.112	28.32
725.296	28.65
725.479	28.62
725.662	28.23
725.845	28.79
726.028	28.7
726.211	28.73
726.394	28.48
726.577	28.79
726.76	29.08
726.943	29.09
727.126	28.69
727.309	27.88
727.492	28.15
727.675	27.84
727.858	27.36
728.041	27.11
728.224	27.02
728.407	26.81
728.589	26.15
728.772	25.68
728.955	25.58
729.138	25.55
729.321	25.83
729.503	25.63
729.686	26.2
729.869	26.74
730.052	26.88
730.234	26.66
730.417	26.91
730.6	27.34
730.782	27.71
730.965	27.58
731.148	27.58
731.33	27.66
731.513	27.45
731.695	27.33
731.878	27.26
732.061	26.97
732.243	27.29
732.426	27.48
732.608	27.69
732.791	27.81
732.973	28.27
733.156	28.63
733.338	28.84
733.52	29.25
733.703	29.39
733.885	29.26
734.068	29.59
734.25	29.57
734.432	29.39
734.615	29.07
734.797	28.66
734.979	28.69
735.162	28.6
735.344	28.39
735.526	28.51
735.708	28.63
735.891	28.95
736.073	29.07
736.255	29.49
736.437	29.9
736.619	29.88
736.802	30.35
736.984	30.67
737.166	30.77
737.348	30.75
737.53	30.6
737.712	30.91
737.894	30.82
738.076	31.14
738.258	31.27
738.44	30.6
738.622	30.69
738.804	30.76
738.986	30.95
739.168	31.14
739.35	31.36
739.532	31.86
739.714	31.15
739.896	31.29
740.078	31.09
740.259	31.1
740.441	31.99
740.623	32.16
740.805	31.78
740.987	31.59
741.168	30.88
741.35	30.56
741.532	30.15
741.714	30.14
741.895	30.07
742.077	29.97
742.259	29.3
742.44	29.17
742.622	29.12
742.804	29.26
742.985	29.13
743.167	29.34
743.348	29.97
743.53	30.1
743.711	30.2
743.893	30.46
744.075	30.63
744.256	31.37
744.438	30.79
744.619	30.87
744.8	31.06
744.982	30.76
745.163	30.79
745.345	30.16
745.526	29.43
745.707	30.65
745.889	30.63
746.07	30.41
746.252	30.21
746.433	30.82
746.614	31.24
746.795	31.2
746.977	31.37
747.158	31.43
747.339	31.53
747.52	31.88
747.702	30.87
747.883	30.49
748.064	30.63
748.245	30.71
748.426	30.92
748.607	30.21
748.788	29.68
748.97	29.73
749.151	29.97
749.332	30.11
749.513	30.1
749.694	29.79
749.875	29.26
750.056	28.81
750.237	28.25
750.418	28.44
750.599	28.4
750.78	29.06
750.96	29.86
751.141	30.1
751.322	30.63
751.503	30.79
751.684	31.53
751.865	32.19
752.046	33.44
752.226	33.39
752.407	32.88
752.588	33.61
752.769	33.1
752.949	32.03
753.13	31.37
753.311	31.32
753.492	31.54
753.672	31.13
753.853	30.88
754.034	30.21
754.214	30.73
754.395	30.91
754.575	30.39
754.756	30.54
754.937	30.93
755.117	31.36
755.298	31.49
755.478	31.2
755.659	32.06
755.839	32.26
756.02	32.16
756.2	32.3
756.381	32.23
756.561	32.71
756.741	32.75
756.922	32.94
757.102	32.72
757.283	33.08
757.463	33.03
757.643	32.51
757.823	32.81
758.004	32.32
758.184	32.05
758.364	31.63
758.545	31.06
758.725	30.88
758.905	30.91
759.085	30.69
759.265	30.09
759.446	30.06
759.626	30.24
759.806	29.52
759.986	29.68
760.166	29
760.346	28.96
760.526	28.59
760.706	28.84
760.886	28.47
761.066	28.41
761.246	27.51
761.426	27.68
761.606	27.49
761.786	27.81
761.966	28.01
762.146	28.11
762.326	28.31
762.506	28.39
762.686	28.49
762.866	28.95
763.046	29.58
763.225	29.95
763.405	29.94
763.585	29.77
763.765	30.07
763.945	29.75
764.124	29.66
764.304	29.25
764.484	29.5
764.664	29.1
764.843	29
765.023	28.55
765.203	28.46
765.382	28.41
765.562	28.64
765.741	28.68
765.921	28.75
766.101	28.98
766.28	29.78
766.46	30.4
766.639	30.28
766.819	30.74
766.998	31.44
767.178	31.51
767.357	31.75
767.537	31.56
767.716	31.03
767.896	31.78
768.075	32.08
768.254	32.34
768.434	31.57
768.613	32.71
768.792	32.46
768.972	32.17
769.151	33.06
769.33	32.54
769.51	33.45
769.689	34.15
769.868	33.8
770.047	33.52
770.226	33.37
770.406	34.1
770.585	33.62
770.764	33.51
770.943	34.56
771.122	33.99
771.301	34.24
771.48	33.77
771.66	33.46
771.839	33.4
772.018	33.78
772.197	34.14
772.376	34.63
772.555	35.2
772.734	35.1
772.913	34.62
773.092	34.8
773.271	34.78
773.449	34.69
773.628	34.82
773.807	35.19
773.986	35.37
774.165	34.93
774.344	34.68
774.523	34.71
774.701	34.9
774.88	34.66
775.059	34.93
775.238	35.31
775.417	35.08
775.595	35.28
775.774	35.92
775.953	35.92
776.131	35.87
776.31	35.5
776.489	35.1
776.667	34.82
776.846	34.82
777.025	35.2
777.203	35.8
777.382	35.83
777.56	34.77
777.739	34.28
777.917	34.37
778.096	34.43
778.274	34.53
778.453	34.14
778.631	34.54
778.81	34.52
778.988	33.94
779.166	33.64
779.345	33.62
779.523	35
779.702	34.8
779.88	34.96
780.058	34.74
780.237	34.41
780.415	34.54
780.593	34.21
780.771	34.73
780.95	34.17
781.128	34
781.306	34.08
781.484	32.81
781.662	32.76
781.841	32.93
782.019	33.2
782.197	33.16
782.375	32.65
782.553	32.82
782.731	32.79
782.909	33.53
783.087	34.03
783.265	35.12
783.443	36.35
783.621	35.9
783.799	36.03
783.977	35.66
784.155	36.31
784.333	37.32
784.511	36.71
784.689	36
784.867	35.48
785.045	33.7
785.223	33.33
785.4	33.09
785.578	33.88
785.756	33.27
785.934	33.67
786.112	33.19
786.289	32.92
786.467	33.82
786.645	34.02
786.823	34.46
787	34.97
787.178	33.89
787.356	33.35
787.533	33.94
787.711	34.06
787.889	33.44
788.066	33.53
788.244	33.52
788.421	33.48
788.599	32.62
788.776	33.46
788.954	34.03
789.131	34.01
789.309	34.33
789.486	33.85
789.664	33.51
789.841	33.71
790.019	33.94
790.196	33.73
790.373	33.43
790.551	33.39
790.728	32.16
790.906	31.49
791.083	31.2
791.26	31.15
791.437	30.69
791.615	31.68
791.792	31.7
791.969	31.52
792.146	31.86
792.324	31.97
792.501	32.94
792.678	33.33
792.855	34.43
793.032	35.14
793.209	34.47
793.387	35.14
793.564	35.21
793.741	35.79
793.918	35.39
794.095	34.98
794.272	34.87
794.449	35.46
794.626	35.44
794.803	35.09
794.98	36.08
795.157	35.68
795.334	35.06
795.511	33.56
795.688	33.23
795.864	34.11
796.041	33.53
796.218	33.62
796.395	32.53
796.572	32.3
796.749	31.99
796.925	30.85
797.102	32.02
797.279	31.99
797.456	32.37
797.632	32.08
797.809	31.35
797.986	31.81
798.162	31.65
798.339	31.77
798.516	31.63
798.692	32.07
798.869	31.96
799.046	31.62
799.222	31.87
799.399	31.69
799.575	32.47
799.752	32.31
799.928	33.05
800.105	32.63
800.281	33.31
800.458	33.91
800.634	33.34
800.811	34.02
800.987	33.55
801.163	33.08
801.34	33.38
801.516	32.69
801.692	33.05
801.869	33.8
802.045	34.3
802.221	32.94
802.398	31.64
802.574	32.97
802.75	32.69
802.926	33.51
803.103	33.33
803.279	33.56
803.455	34.26
803.631	34.33
803.807	33.38
803.983	33.17
804.16	34.02
804.336	34.59
804.512	34.96
804.688	35.26
804.864	34.29
805.04	34.24
805.216	34.39
805.392	34.45
805.568	33.77
805.744	34.25
805.92	34.13
806.096	34.06
806.272	34.21
806.448	32.62
806.623	32.1
806.799	32.29
806.975	32.12
807.151	30.77
807.327	28.87
807.503	29.1
807.678	29.21
807.854	28.71
808.03	28.33
808.206	29.1
808.381	30.2
808.557	31.07
808.733	31.39
808.908	31.76
809.084	33.94
809.26	34.96
809.435	36.1
809.611	35.93
809.787	35.91
809.962	36.2
810.138	36.33
810.313	35.06
810.489	34.76
810.664	35.19
810.84	34.95
811.015	33.08
811.191	32.29
811.366	31.39
811.542	30.61
811.717	31.72
811.892	31.24
812.068	32.19
812.243	32.76
812.419	32.87
812.594	32.79
812.769	32.32
812.944	32.85
813.12	33.26
813.295	32.78
813.47	31.51
813.645	29.99
813.821	31.28
813.996	30.54
814.171	30.46
814.346	29.38
814.521	29.04
814.697	29.8
814.872	31.21
815.047	32.01
815.222	32.46
815.397	33.51
815.572	35.31
815.747	34.38
815.922	32.43
816.097	32.2
816.272	32.34
816.447	32.04
816.622	32.95
816.797	31.75
816.972	32.49
817.147	32.38
817.322	33.33
817.496	32.44
817.671	32.6
817.846	32.4
818.021	31.94
818.196	31.82
818.371	31.11
818.545	30.73
818.72	30.18
818.895	28.56
819.069	28.52
819.244	28.68
819.419	29.14
819.594	29.35
819.768	29.49
819.943	30.07
820.117	29.66
820.292	29.96
820.467	29.3
820.641	29.16
820.816	28.89
820.99	28.19
821.165	28
821.339	27.5
821.514	27.08
821.688	27.16
821.863	26.96
822.037	26.81
822.212	26.72
822.386	26.7
822.56	26.63
822.735	26.61
822.909	26.59
823.084	26.27
823.258	26.42
823.432	26.35
823.606	26.14
823.781	25.86
823.955	25.82
824.129	25.64
824.303	25.6
824.478	25.5
824.652	25.29
824.826	25.47
825	25.48
825.174	25.23
825.348	25.18
825.523	25.33
825.697	25.69
825.871	25.94
826.045	25.95
826.219	25.31
826.393	25.27
826.567	25.44
826.741	25.28
826.915	25.18
827.089	25.31
827.263	25.48
827.437	25.31
827.611	25.31
827.784	24.99
827.958	25.07
828.132	25.8
828.306	26.12
828.48	26.24
828.654	26.69
828.827	26.85
829.001	26.09
829.175	26.49
829.349	27.03
829.522	27.32
829.696	28.44
829.87	28.11
830.044	27.96
830.217	28.36
830.391	28.57
830.565	28.25
830.738	28.05
830.912	29.22
831.085	28.33
831.259	28.29
831.432	28.47
831.606	28.11
831.779	28.36
831.953	28.87
832.126	28.24
832.3	28.34
832.473	27.98
832.647	27.81
832.82	26.63
832.994	26.49
833.167	26.13
833.34	25.26
833.514	25.26
833.687	25.71
833.86	25.58
834.034	25.06
834.207	25.31
834.38	25.61
834.553	25.71
834.727	26.05
834.9	26.25
835.073	26.52
835.246	26.97
835.419	26.79
835.593	27.1
835.766	27.21
835.939	27.83
836.112	27.69
836.285	26.69
836.458	27.11
836.631	27.6
836.804	27.78
836.977	27.91
837.15	27.36
837.323	28.68
837.496	27.29
837.669	26.61
837.842	27.18
838.015	27.75
838.188	29.83
838.361	28.8
838.533	28.39
838.706	28.45
838.879	28.54
839.052	28.73
839.225	28.02
839.398	29.95
839.57	31.73
839.743	31.67
839.916	31.86
840.088	31.41
840.261	33.7
840.434	34.64
840.607	36.57
840.779	36.09
840.952	36.37
841.124	35.9
841.297	35.65
841.47	34.38
841.642	33.17
841.815	33.34
841.987	31.64
842.16	31.85
842.332	32.96
842.505	30.69
842.677	30.86
842.85	31.5
843.022	32.13
843.194	31.01
843.367	29.85
843.539	31.07
843.712	26.51
843.884	30.26
844.056	29.25
844.229	26.48
844.401	26.21
844.573	26.02
844.745	27.19
844.918	28.02
845.09	29.95
845.262	32.61
845.434	32.42
845.606	35.36
845.779	35.03
845.951	33.15
846.123	34.82
846.295	35.66
846.467	35.98
846.639	35.38
846.811	38.51
846.983	37.21
847.155	36.99
847.327	37.9
847.499	38.6
847.671	36.46
847.843	37.4
848.015	37.72
848.187	36.74
848.359	35.07
848.531	36.17
848.703	32.95
848.875	32.63
849.047	33.27
849.218	30.89
849.39	34.35
849.562	35.39
849.734	34.12
849.905	34.56
850.077	40.16
850.249	42.57
850.421	39.41
850.592	39.66
850.764	41.02
850.936	38.01
851.107	40.03
851.279	39.59
851.451	41.01
851.622	43.04
851.794	41.1
851.965	37.93
852.137	38.59
852.308	38.86
852.48	38.76
852.651	38.86
852.823	37.89
852.994	36.94
853.166	31.88
853.337	30.18
853.509	28.25
853.68	30.32
853.851	29.99
854.023	28.98
854.194	30.87
854.365	29.98
854.537	29.73
854.708	35.7
854.879	34.17
855.05	37.81
855.222	39.53
855.393	40.64
855.564	42.6
855.735	41.67
855.906	42.38
856.078	42.66
856.249	40.83
856.42	41.02
856.591	38.46
856.762	41.1
856.933	38.39
857.104	37.71
857.275	38.19
857.446	35.83
857.617	37.72
857.788	38.04
857.959	36.99
858.13	38.87
858.301	38.66
858.472	36.09
858.643	36.79
858.814	35.52
858.985	35.04
859.155	33.78
859.326	39.46
859.497	39.24
859.668	35.58
859.839	32.67
860.009	28.81
860.18	27.05
860.351	28.3
860.522	26.91
860.692	30.73
860.863	29.65
861.034	33.51
861.204	26.26
861.375	23.63
861.546	26.98
861.716	31.15
861.887	29.33
862.057	32.88
862.228	36.22
862.398	37.46
862.569	35.51
862.739	35.49
862.91	28.03
863.08	27.75
863.251	26.06
863.421	24.19
863.592	20.23
863.762	24.42
863.932	24.74
864.103	21.83
864.273	21.49
864.443	22.53
864.614	21.38
864.784	26.51
864.954	30.04
865.125	32.64
865.295	35.17
865.465	35.19
865.635	36.96
865.805	39.01
865.976	41.18
866.146	39.68
866.316	37.96
866.486	39.33
866.656	37.5
866.826	34.08
866.996	34.36
867.166	34.45
867.336	40.62
867.506	41.12
867.676	34.75
867.846	33.98
868.016	34.78
868.186	32.94
868.356	27.82
868.526	27.43
868.696	27.86
868.866	30.36
869.036	28.27
869.206	24.32
869.376	20.85
869.545	25.95
869.715	27.03
869.885	27.39
870.055	33.24
870.224	37.75
870.394	40.56
870.564	41.64
870.734	42.7
870.903	43.12
871.073	42.66
871.243	41.73
871.412	37.22
871.582	36.59
871.751	39.86
871.921	34.23
872.091	35.46
872.26	34.83
872.43	35.94
872.599	33.58
872.769	35.18
872.938	36.03
873.108	39.38
873.277	43.67
873.446	43.32
873.616	38.55
873.785	39.55
873.955	35.95
874.124	36.25
874.293	30.06
874.463	33.16
874.632	33.77
874.801	32.77
874.971	31.19
875.14	24.55
875.309	26.67
875.478	26.75
875.647	31.04
875.817	30.23
875.986	27.43
876.155	33.62
876.324	26.46
876.493	21.63
876.662	21.27
876.831	21.1
877	24.06
877.17	19.67
877.339	21.92
877.508	22.96
877.677	27.94
877.846	32.35
878.015	25.94
878.184	28.31
878.352	30.5
878.521	27.99
878.69	27.89
878.859	27.02
879.028	23.97
879.197	22.39
879.366	17.97
879.534	15.74
879.703	14.21
879.872	14.97
880.041	18.77
880.21	19.49
880.378	20.13
880.547	19.84
880.716	20
880.884	22.44
881.053	22.1
881.222	21.64
881.39	20.85
881.559	20.33
881.727	20.64
881.896	19.72
882.065	19.21
882.233	19.93
882.402	19.58
882.57	19.6
882.739	19.29
882.907	19.69
883.076	19.99
883.244	19.92
883.412	19.47
883.581	19.77
883.749	19.01
883.918	19.28
884.086	18.4
884.254	20.01
884.423	20.64
884.591	20.01
884.759	20.38
884.927	20.88
885.096	21.79
885.264	21.98
885.432	21.43
885.6	23.46
885.769	23.8
885.937	23.85
886.105	22.52
886.273	21.74
886.441	21.81
886.609	19.94
886.777	19.8
886.945	19.36
887.113	19.83
887.281	17.76
887.449	19.75
887.617	20.44
887.785	21.69
887.953	21.43
888.121	22.82
888.289	23.15
888.457	23.78
888.625	23.02
888.793	23.22
888.961	27.82
889.129	30.43
889.296	27.6
889.464	28.01
889.632	28.85
889.8	26.94
889.967	23.91
890.135	26.25
