Data from 2938719__Reflection_03.txt Node
Date: Tue Mar 17 18:36:29 EDT 2015
User: robert
Spectrometer: USB4E03002
Autoset integration time: false
Trigger mode: 4
Integration Time (sec): 1.000000E-1
Scans to average: 10
Electric dark correction enabled: false
Nonlinearity correction enabled: false
Boxcar width: 5
Stray light correction enabled: false
XAxis mode: Wavelengths
Stop averaging: false
Number of Pixels in Spectrum: 3648
>>>>>Begin Spectral Data<<<<<
177.575	-3.92
177.794	262.5
178.014	-654.55
178.233	116.67
178.452	-1247.62
178.672	-4100
178.891	173.13
179.11	168.38
179.33	157.88
179.549	234.59
179.768	284.91
179.987	831.87
180.207	437.5
180.426	399.08
180.645	-9837.5
180.864	641.51
181.084	274.48
181.303	-765.22
181.522	-781.97
181.741	963.49
181.96	427.43
182.179	696.97
182.398	452.76
182.618	-10725
182.837	1109.09
183.056	755.7
183.275	581.05
183.494	-343.97
183.713	1511.11
183.932	432.73
184.151	-568.97
184.37	-98.58
184.589	-293.64
184.808	-246.38
185.027	-338.71
185.246	-1241.18
185.465	235.22
185.684	327.92
185.903	252.84
186.122	484.82
186.341	-893.88
186.56	465.42
186.779	246.5
186.998	184.93
187.216	171.43
187.435	151.67
187.654	204.2
187.873	226.62
188.092	166.88
188.311	128.71
188.53	146.1
188.748	154.81
188.967	182.06
189.186	182.28
189.405	273.41
189.623	337.54
189.842	343.95
190.061	299.22
190.28	431.4
190.498	471.67
190.717	2351.43
190.936	-1528.95
191.154	512
191.373	243.98
191.592	180.54
191.81	133.27
192.029	125.5
192.248	121.9
192.466	216.75
192.685	156.34
192.904	159.57
193.122	161.09
193.341	151.78
193.559	150.43
193.778	149.08
193.996	181.89
194.215	152.76
194.433	123.8
194.652	224.35
194.87	82.33
195.089	70.83
195.307	50.51
195.526	50.08
195.744	57.82
195.963	63.24
196.181	95.53
196.399	53.15
196.618	82.19
196.836	115.86
197.055	89.33
197.273	138.19
197.491	204.53
197.71	145.32
197.928	213.31
198.146	166.89
198.365	173.29
198.583	112.89
198.801	147.86
199.019	167.39
199.238	92.69
199.456	89.59
199.674	76.01
199.892	73.34
200.111	77.96
200.329	64.56
200.547	78.26
200.765	71.3
200.983	76.3
201.202	80.53
201.42	67.97
201.638	75.24
201.856	94.9
202.074	56.09
202.292	52.27
202.51	77.35
202.728	94.37
202.946	158.82
203.165	-256.52
203.383	-35.69
203.601	4100
203.819	-486.67
204.037	-108.46
204.255	-83.33
204.473	3000
204.691	673.44
204.909	503.33
205.127	247.48
205.345	139
205.562	103.32
205.78	85.19
205.998	93.17
206.216	90.38
206.434	72.78
206.652	80.68
206.87	83.67
207.088	53.82
207.306	46.25
207.523	47.42
207.741	51
207.959	47.1
208.177	49.58
208.395	40.1
208.612	34.9
208.83	37.71
209.048	38.74
209.266	42.28
209.483	62
209.701	79.41
209.919	63.75
210.136	133.96
210.354	214.67
210.572	124.29
210.79	204.55
211.007	219.57
211.225	129.46
211.442	94.29
211.66	89.27
211.878	36.58
212.095	44.27
212.313	38.57
212.53	29.22
212.748	37.32
212.966	54.87
213.183	58.04
213.401	63.19
213.618	69.61
213.836	74.19
214.053	74.04
214.271	74.65
214.488	81.48
214.705	91.54
214.923	77.35
215.14	74.51
215.358	52.4
215.575	72.12
215.793	78.21
216.01	71.3
216.227	79.29
216.445	75.68
216.662	85.27
216.879	80.48
217.097	73.28
217.314	53.21
217.531	58.04
217.749	60.61
217.966	58.56
218.183	40.03
218.4	35.47
218.618	38.01
218.835	32.68
219.052	43.08
219.269	41.73
219.487	52.84
219.704	73.23
219.921	54.45
220.138	35.46
220.355	33.46
220.572	38.03
220.79	33.17
221.007	26.2
221.224	24.38
221.441	18.29
221.658	15.35
221.875	3.32
222.092	5.95
222.309	6.14
222.526	19.51
222.743	15.61
222.96	10.91
223.177	18.01
223.394	11.63
223.611	11.18
223.828	17.02
224.045	17.21
224.262	19.37
224.479	17.71
224.696	17.63
224.913	13.29
225.13	16.33
225.347	21.4
225.564	18.14
225.781	19.8
225.997	19.41
226.214	14.99
226.431	13
226.648	13.66
226.865	14.4
227.082	14.52
227.298	10.91
227.515	7.77
227.732	7.29
227.949	6.64
228.165	5.7
228.382	5.64
228.599	5.77
228.816	6.09
229.032	5.68
229.249	4.22
229.466	3.67
229.682	5.04
229.899	5.48
230.116	4.63
230.332	3.64
230.549	4.12
230.765	4.8
230.982	4.13
231.199	3.73
231.415	4.54
231.632	5.47
231.848	5.58
232.065	5.72
232.281	6.29
232.498	5.35
232.714	6.08
232.931	5.42
233.147	3.09
233.364	3.12
233.58	1.87
233.797	0.27
234.013	-1.1
234.23	0.54
234.446	-1.38
234.662	-2.25
234.879	-0.04
235.095	2.36
235.312	4.19
235.528	5.18
235.744	5.9
235.961	5.9
236.177	6.13
236.393	7.8
236.61	7.41
236.826	8.92
237.042	9.46
237.258	9.98
237.475	8.52
237.691	6.56
237.907	4.95
238.123	4.06
238.339	4.4
238.556	3.75
238.772	2.72
238.988	2.07
239.204	3.4
239.42	3.76
239.636	2.4
239.853	2.24
240.069	2.36
240.285	3.3
240.501	3.24
240.717	3.67
240.933	4.16
241.149	4.07
241.365	3.83
241.581	3.05
241.797	2.76
242.013	3.22
242.229	3.45
242.445	3.71
242.661	3.69
242.877	4.11
243.093	4.61
243.309	5.02
243.525	5.54
243.741	5.83
243.957	5.9
244.173	6.08
244.388	5.66
244.604	5.52
244.82	5.75
245.036	5.79
245.252	5.06
245.468	4.46
245.683	3.77
245.899	3.55
246.115	3.16
246.331	3.26
246.547	3.1
246.762	3.75
246.978	3.74
247.194	3.56
247.409	3.58
247.625	3.71
247.841	3.62
248.057	3.78
248.272	3.67
248.488	3.71
248.703	3.63
248.919	3.9
249.135	3.22
249.35	3.12
249.566	2.73
249.782	2.51
249.997	2.69
250.213	2.93
250.428	3.24
250.644	3.66
250.859	3.93
251.075	4.35
251.29	4.41
251.506	4.72
251.721	4.84
251.937	4.88
252.152	5.37
252.368	5.04
252.583	4.79
252.798	4.19
253.014	4
253.229	4.42
253.445	4.38
253.66	4.37
253.875	4.29
254.091	4.21
254.306	5.03
254.521	3.94
254.737	4.2
254.952	4.07
255.167	4.72
255.383	4.69
255.598	4.24
255.813	3.59
256.028	3.16
256.244	3.45
256.459	3.21
256.674	3.25
256.889	3.64
257.104	3.04
257.32	2.77
257.535	2.33
257.75	2.21
257.965	2.06
258.18	2.44
258.395	2.85
258.61	2.76
258.826	2.6
259.041	2.04
259.256	2.19
259.471	2.38
259.686	2.6
259.901	2.55
260.116	2.49
260.331	2.63
260.546	2.55
260.761	2.49
260.976	2.38
261.191	2.6
261.406	3.16
261.621	3.32
261.836	2.92
262.05	2.93
262.265	2.97
262.48	2.79
262.695	2.72
262.91	3.05
263.125	2.61
263.34	3.13
263.555	3.18
263.769	2.38
263.984	1.84
264.199	2.66
264.414	2.2
264.629	2.19
264.843	2.57
265.058	2.84
265.273	2.65
265.488	2.67
265.702	2.12
265.917	1.9
266.132	1.84
266.346	1.94
266.561	2.28
266.776	2.79
266.99	3.31
267.205	3.05
267.42	2.74
267.634	2.59
267.849	2.87
268.063	2.77
268.278	2.61
268.492	3.21
268.707	2.98
268.922	2.77
269.136	2.04
269.351	1.16
269.565	1.59
269.78	1.35
269.994	1.17
270.209	1.31
270.423	1.5
270.637	1.63
270.852	1.69
271.066	1.87
271.281	1.63
271.495	2.3
271.709	2.74
271.924	2.53
272.138	2.5
272.353	2.54
272.567	2.42
272.781	2.67
272.996	2.61
273.21	2.16
273.424	2.34
273.638	2.37
273.853	2.41
274.067	2.23
274.281	2.33
274.495	2.45
274.71	2.38
274.924	2.36
275.138	2.03
275.352	2.08
275.566	2.13
275.781	1.8
275.995	1.97
276.209	1.64
276.423	1.29
276.637	1.16
276.851	1.16
277.065	1.44
277.279	1.28
277.493	1.22
277.707	1.35
277.921	1.28
278.135	1.11
278.349	1.09
278.563	0.71
278.777	0.93
278.991	1.21
279.205	1.24
279.419	1.34
279.633	1.58
279.847	1.46
280.061	1.39
280.275	1.38
280.489	1.84
280.703	1.31
280.917	1.49
281.131	1.61
281.344	1.35
281.558	1.19
281.772	0.93
281.986	0.91
282.2	0.94
282.414	1.08
282.627	1.44
282.841	1.61
283.055	1.95
283.269	2.28
283.482	2.55
283.696	2.58
283.91	2.62
284.123	2.45
284.337	2.58
284.551	2.5
284.764	2.38
284.978	2.12
285.192	1.98
285.405	1.81
285.619	1.73
285.833	1.57
286.046	1.63
286.26	1.64
286.473	1.92
286.687	1.92
286.9	2.11
287.114	2.27
287.327	2.42
287.541	2.12
287.754	2.31
287.968	2.08
288.181	2.06
288.395	1.8
288.608	2.08
288.822	1.97
289.035	1.66
289.248	1.63
289.462	1.45
289.675	1.27
289.889	1.6
290.102	1.88
290.315	2.15
290.529	2.22
290.742	2.45
290.955	2.45
291.169	2.39
291.382	2.41
291.595	2.47
291.808	2.4
292.022	2.69
292.235	2.41
292.448	2.1
292.661	1.87
292.875	2
293.088	1.85
293.301	1.73
293.514	2.06
293.727	2.34
293.94	2.22
294.153	2.36
294.367	2.5
294.58	2.72
294.793	2.94
295.006	3.06
295.219	2.91
295.432	3.16
295.645	3.17
295.858	2.99
296.071	3.03
296.284	3.27
296.497	3.15
296.71	2.89
296.923	2.99
297.136	2.66
297.349	2.53
297.562	2.41
297.775	2.38
297.988	2.38
298.201	2.37
298.414	2.38
298.626	2.28
298.839	2.3
299.052	2.34
299.265	2.38
299.478	2.53
299.691	2.66
299.903	2.65
300.116	2.44
300.329	2.04
300.542	2.11
300.755	1.91
300.967	1.63
301.18	1.84
301.393	1.9
301.605	1.68
301.818	1.7
302.031	1.75
302.243	2.09
302.456	2.25
302.669	2.8
302.881	2.93
303.094	3.25
303.307	3.6
303.519	3.71
303.732	3.78
303.944	3.48
304.157	3.43
304.37	3.37
304.582	2.83
304.795	2.56
305.007	2.42
305.22	2.22
305.432	2.1
305.645	2.36
305.857	1.92
306.069	1.52
306.282	1.77
306.494	1.91
306.707	1.84
306.919	1.91
307.132	2.26
307.344	2.17
307.556	2.25
307.769	1.84
307.981	1.15
308.193	1.38
308.406	1.87
308.618	2.06
308.83	2.22
309.043	2.21
309.255	2.69
309.467	2.62
309.679	2.96
309.892	2.99
310.104	3.25
310.316	3.56
310.528	3.69
310.74	3.74
310.953	3.5
311.165	3.53
311.377	3.56
311.589	3.23
311.801	3.18
312.013	3.24
312.225	3.3
312.437	3.34
312.649	3.31
312.862	3.16
313.074	3.19
313.286	3.68
313.498	3.61
313.71	3.77
313.922	4.1
314.134	4.22
314.346	4.03
314.558	4.09
314.77	4.09
314.982	4.25
315.193	4.45
315.405	4.03
315.617	3.44
315.829	3.15
316.041	3.3
316.253	3.22
316.465	3.39
316.677	3.25
316.888	2.95
317.1	2.97
317.312	2.82
317.524	2.5
317.736	2.77
317.947	3.35
318.159	3.84
318.371	4.09
318.583	4.17
318.794	3.97
319.006	4
319.218	4.23
319.43	4.44
319.641	4.53
319.853	5.07
320.064	5.24
320.276	5.04
320.488	4.71
320.699	4.74
320.911	4.68
321.123	5.15
321.334	5.21
321.546	5.45
321.757	5.01
321.969	5.25
322.18	4.83
322.392	5.01
322.603	4.82
322.815	5.43
323.026	5.17
323.238	5.49
323.449	5.11
323.661	4.89
323.872	4.63
324.083	4.89
324.295	4.44
324.506	4.49
324.718	4.22
324.929	4.8
325.14	4.66
325.352	4.54
325.563	4.32
325.774	4.35
325.986	4.8
326.197	4.95
326.408	4.95
326.62	5.33
326.831	5.6
327.042	5.5
327.253	5.27
327.464	4.89
327.676	4.93
327.887	5.22
328.098	5.44
328.309	5.06
328.52	4.94
328.732	5.08
328.943	5.33
329.154	5.64
329.365	6.04
329.576	6.2
329.787	6.84
329.998	7.02
330.209	7.11
330.42	6.98
330.631	7.43
330.842	7.75
331.053	7.8
331.264	7.27
331.475	6.61
331.686	6.81
331.897	6.78
332.108	6.61
332.319	6.65
332.53	6.37
332.741	6.4
332.952	6.37
333.163	6.42
333.374	6.27
333.585	6.27
333.795	6.58
334.006	6.66
334.217	6.42
334.428	6.14
334.639	6.06
334.849	6.2
335.06	6.43
335.271	6.17
335.482	5.8
335.692	6.11
335.903	6.24
336.114	6.2
336.325	6.25
336.535	6.5
336.746	6.76
336.957	6.87
337.167	6.89
337.378	6.66
337.589	7.03
337.799	7.32
338.01	7.28
338.22	7.55
338.431	7.46
338.642	6.94
338.852	6.85
339.063	6.66
339.273	6.46
339.484	6.25
339.694	6.17
339.905	6.1
340.115	5.9
340.326	5.82
340.536	5.46
340.746	5.34
340.957	5.62
341.167	5.51
341.378	5.62
341.588	5.46
341.799	5.73
342.009	5.64
342.219	5.46
342.43	5.41
342.64	5.26
342.85	5.61
343.061	5.79
343.271	5.87
343.481	5.54
343.691	5.57
343.902	5.67
344.112	5.51
344.322	5.95
344.532	6.03
344.743	6.01
344.953	5.93
345.163	5.69
345.373	5.52
345.583	5.42
345.793	5.68
346.004	5.84
346.214	6.03
346.424	6.16
346.634	5.85
346.844	5.73
347.054	5.88
347.264	6.12
347.474	6.28
347.684	6.47
347.894	6.45
348.104	6.61
348.314	6.31
348.524	6.6
348.734	6.52
348.944	6.74
349.154	6.95
349.364	7.03
349.574	6.79
349.784	6.54
349.994	6.56
350.204	6.77
350.413	6.81
350.623	6.94
350.833	6.52
351.043	6.5
351.253	6.27
351.463	6.25
351.672	6.24
351.882	6.4
352.092	6.48
352.302	6.58
352.511	6.18
352.721	6.08
352.931	6.02
353.141	6.11
353.35	6.07
353.56	6.25
353.77	6.13
353.979	5.89
354.189	5.8
354.399	5.88
354.608	5.48
354.818	5.69
355.027	5.77
355.237	5.66
355.447	5.69
355.656	5.85
355.866	5.87
356.075	6.01
356.285	6
356.494	5.95
356.704	5.89
356.913	6.01
357.123	5.78
357.332	5.52
357.542	5.79
357.751	5.76
357.96	5.67
358.17	5.59
358.379	5.22
358.589	5.35
358.798	5.28
359.007	5.33
359.217	5.23
359.426	5.17
359.635	5.17
359.845	4.81
360.054	4.95
360.263	5
360.472	4.79
360.682	5.02
360.891	5.04
361.1	5.12
361.309	5.18
361.519	5.27
361.728	5.38
361.937	5.44
362.146	5.62
362.355	5.54
362.564	5.55
362.774	5.68
362.983	5.63
363.192	5.61
363.401	5.6
363.61	5.51
363.819	5.55
364.028	5.62
364.237	5.71
364.446	5.58
364.655	5.51
364.864	5.46
365.073	5.39
365.282	5.42
365.491	5.25
365.7	5.19
365.909	5.14
366.118	5.28
366.327	5.14
366.536	5.15
366.745	5.27
366.954	5.4
367.162	5.48
367.371	5.62
367.58	5.75
367.789	5.84
367.998	5.75
368.207	5.92
368.415	5.83
368.624	6.07
368.833	5.92
369.042	5.92
369.25	5.87
369.459	5.69
369.668	5.32
369.877	5.22
370.085	5.32
370.294	5.28
370.503	5
370.711	4.74
370.92	4.41
371.129	4.37
371.337	4.4
371.546	4.33
371.754	4.44
371.963	4.74
372.171	4.68
372.38	4.58
372.589	4.63
372.797	4.96
373.006	5.35
373.214	5.52
373.423	5.44
373.631	5.28
373.84	5.24
374.048	5.16
374.256	5.08
374.465	4.95
374.673	5.08
374.882	5.26
375.09	5.16
375.298	5.12
375.507	5.15
375.715	5.16
375.923	5.22
376.132	5.27
376.34	5.39
376.548	5.33
376.757	5.47
376.965	5.33
377.173	5.12
377.381	5.04
377.59	4.87
377.798	4.89
378.006	5.07
378.214	4.93
378.423	4.81
378.631	4.6
378.839	4.73
379.047	4.61
379.255	4.71
379.463	4.65
379.671	4.39
379.879	4.51
380.088	4.5
380.296	4.35
380.504	4.46
380.712	4.63
380.92	4.38
381.128	4.19
381.336	4.21
381.544	4.23
381.752	4.35
381.96	4.43
382.168	4.27
382.376	4.22
382.584	4.38
382.791	4.46
382.999	4.43
383.207	4.58
383.415	4.6
383.623	4.68
383.831	4.66
384.039	4.9
384.247	4.87
384.454	4.87
384.662	4.76
384.87	4.43
385.078	4.37
385.285	4.15
385.493	4.2
385.701	4.05
385.909	4.09
386.116	4.04
386.324	3.96
386.532	3.96
386.739	3.87
386.947	3.96
387.155	4.3
387.362	4.35
387.57	4.52
387.778	4.46
387.985	4.58
388.193	4.48
388.4	4.44
388.608	4.42
388.816	4.57
389.023	4.79
389.231	4.77
389.438	4.82
389.646	4.72
389.853	4.62
390.061	4.58
390.268	4.52
390.475	4.5
390.683	4.43
390.89	4.34
391.098	4.27
391.305	4.17
391.512	4.22
391.72	3.82
391.927	3.9
392.135	4.03
392.342	4.11
392.549	4.13
392.756	4.22
392.964	4.22
393.171	4.33
393.378	4.46
393.586	4.44
393.793	4.44
394	4.66
394.207	4.56
394.414	4.54
394.622	4.48
394.829	4.52
395.036	4.32
395.243	4.39
395.45	4.25
395.657	4.23
395.864	4.28
396.072	4.27
396.279	4.24
396.486	4.2
396.693	4.04
396.9	4.06
397.107	4.25
397.314	4.61
397.521	4.61
397.728	4.6
397.935	4.51
398.142	4.56
398.349	4.48
398.556	4.4
398.763	4.47
398.97	4.44
399.177	4.41
399.383	4.18
399.59	3.79
399.797	3.61
400.004	3.73
400.211	3.57
400.418	3.56
400.625	3.59
400.831	3.76
401.038	3.65
401.245	3.72
401.452	3.93
401.658	3.94
401.865	4.11
402.072	4.25
402.279	4.12
402.485	4.2
402.692	4.12
402.899	4.06
403.105	3.92
403.312	3.87
403.519	3.83
403.725	3.69
403.932	3.76
404.138	3.71
404.345	3.65
404.552	3.68
404.758	3.74
404.965	3.7
405.171	3.71
405.378	3.7
405.584	3.78
405.791	3.77
405.997	3.82
406.204	3.79
406.41	3.72
406.617	3.73
406.823	3.65
407.029	3.64
407.236	3.69
407.442	3.72
407.649	3.81
407.855	3.96
408.061	3.99
408.268	3.97
408.474	3.97
408.68	4.01
408.887	4.1
409.093	4.22
409.299	4.12
409.505	4.08
409.712	4.07
409.918	3.98
410.124	3.93
410.33	3.88
410.537	3.85
410.743	3.86
410.949	3.82
411.155	3.77
411.361	3.74
411.567	3.84
411.773	3.96
411.98	3.9
412.186	3.87
412.392	3.77
412.598	3.73
412.804	3.86
413.01	3.81
413.216	3.87
413.422	3.8
413.628	3.81
413.834	3.79
414.04	3.69
414.246	3.69
414.452	3.82
414.658	3.93
414.864	3.97
415.07	3.87
415.275	3.99
415.481	4.07
415.687	4.17
415.893	4.1
416.099	4.12
416.305	4.13
416.511	4.25
416.716	4.21
416.922	4.08
417.128	4.07
417.334	4.03
417.539	3.93
417.745	3.93
417.951	3.94
418.157	3.97
418.362	3.91
418.568	3.84
418.774	3.85
418.979	3.89
419.185	3.89
419.391	3.93
419.596	3.94
419.802	3.87
420.008	3.82
420.213	3.81
420.419	3.79
420.624	3.82
420.83	3.84
421.035	3.75
421.241	3.65
421.446	3.63
421.652	3.63
421.857	3.63
422.063	3.68
422.268	3.67
422.474	3.63
422.679	3.56
422.885	3.56
423.09	3.51
423.295	3.52
423.501	3.56
423.706	3.62
423.911	3.53
424.117	3.53
424.322	3.55
424.527	3.46
424.733	3.46
424.938	3.51
425.143	3.54
425.349	3.6
425.554	3.59
425.759	3.62
425.964	3.59
426.169	3.6
426.375	3.62
426.58	3.65
426.785	3.75
426.99	3.77
427.195	3.73
427.4	3.77
427.605	3.76
427.811	3.89
428.016	3.81
428.221	3.84
428.426	3.87
428.631	3.9
428.836	3.92
429.041	3.94
429.246	3.95
429.451	4.02
429.656	3.98
429.861	4
430.066	3.89
430.271	4.02
430.476	4.05
430.681	4.13
430.886	4.1
431.09	4.08
431.295	4.13
431.5	4.05
431.705	4.07
431.91	4.01
432.115	4
432.32	4.03
432.524	3.84
432.729	3.78
432.934	3.8
433.139	3.84
433.343	3.74
433.548	3.65
433.753	3.77
433.958	3.78
434.162	3.83
434.367	3.79
434.572	3.88
434.776	4.1
434.981	4.21
435.186	4.17
435.39	4.18
435.595	4.32
435.799	4.46
436.004	4.3
436.209	4.27
436.413	4.24
436.618	4.29
436.822	4.13
437.027	4.06
437.231	4.08
437.436	4.03
437.64	3.97
437.845	3.88
438.049	3.72
438.253	3.86
438.458	3.9
438.662	3.98
438.867	3.96
439.071	3.98
439.275	3.89
439.48	3.77
439.684	3.85
439.888	3.87
440.093	3.88
440.297	3.95
440.501	3.86
440.706	3.91
440.91	3.87
441.114	3.84
441.318	3.86
441.523	3.92
441.727	4
441.931	3.93
442.135	3.91
442.339	3.88
442.543	3.91
442.748	4.04
442.952	4.01
443.156	4
443.36	4.1
443.564	4.03
443.768	4.04
443.972	4.07
444.176	4.1
444.38	4.05
444.584	4.07
444.788	4.09
444.992	4.05
445.196	4
445.4	4.02
445.604	3.92
445.808	4
446.012	3.97
446.216	3.89
446.42	3.92
446.624	4
446.828	3.97
447.032	3.83
447.235	3.84
447.439	3.78
447.643	3.74
447.847	3.81
448.051	3.77
448.254	3.82
448.458	3.86
448.662	3.9
448.866	3.81
449.069	3.86
449.273	4.01
449.477	3.99
449.681	4.06
449.884	4.1
450.088	4.06
450.292	4.08
450.495	3.95
450.699	3.98
450.902	3.91
451.106	4
451.31	3.93
451.513	3.91
451.717	3.93
451.92	3.93
452.124	3.93
452.327	3.96
452.531	3.87
452.734	4
452.938	4.05
453.141	4.07
453.345	3.96
453.548	3.96
453.752	3.91
453.955	3.89
454.158	3.92
454.362	3.76
454.565	3.79
454.769	3.85
454.972	3.87
455.175	3.88
455.379	3.8
455.582	3.81
455.785	3.88
455.988	3.86
456.192	3.84
456.395	3.72
456.598	3.88
456.801	3.72
457.005	3.71
457.208	3.61
457.411	3.63
457.614	3.8
457.817	3.8
458.021	3.71
458.224	3.83
458.427	3.81
458.63	3.92
458.833	3.85
459.036	3.87
459.239	3.89
459.442	3.96
459.645	3.81
459.848	3.73
460.051	3.81
460.254	3.84
460.457	3.79
460.66	3.82
460.863	3.74
461.066	3.75
461.269	3.81
461.472	3.82
461.675	3.74
461.878	3.81
462.081	3.8
462.284	3.76
462.486	3.77
462.689	3.72
462.892	3.67
463.095	3.71
463.298	3.7
463.5	3.67
463.703	3.71
463.906	3.81
464.109	3.83
464.311	3.86
464.514	3.84
464.717	3.85
464.92	3.85
465.122	3.88
465.325	3.96
465.528	4.1
465.73	4.16
465.933	4.11
466.135	4.07
466.338	4.03
466.541	4
466.743	4.07
466.946	4.05
467.148	4.11
467.351	4.1
467.553	3.97
467.756	3.92
467.958	4
468.161	3.98
468.363	4
468.566	4.05
468.768	4.14
468.971	4.05
469.173	4.12
469.375	4.06
469.578	4.1
469.78	4.15
469.983	4.1
470.185	4.06
470.387	4.02
470.59	4.02
470.792	3.99
470.994	4.01
471.196	4.07
471.399	4.06
471.601	4.22
471.803	4.18
472.005	4.2
472.208	4.2
472.41	4.12
472.612	4.18
472.814	4.2
473.016	4.25
473.218	4.24
473.421	4.16
473.623	4.21
473.825	4.07
474.027	4.02
474.229	4.09
474.431	4.07
474.633	4
474.835	3.96
475.037	3.94
475.239	3.87
475.441	3.69
475.643	3.8
475.845	3.71
476.047	3.76
476.249	3.85
476.451	3.75
476.653	3.79
476.855	3.86
477.057	3.96
477.258	3.98
477.46	3.95
477.662	4.06
477.864	4
478.066	4.04
478.268	4.07
478.469	4.06
478.671	4.1
478.873	4.09
479.075	4.1
479.276	4.06
479.478	4
479.68	4.01
479.882	3.95
480.083	3.97
480.285	4.05
480.487	4.01
480.688	4
480.89	3.96
481.091	4.01
481.293	3.99
481.495	3.99
481.696	3.99
481.898	3.98
482.099	3.98
482.301	3.92
482.502	3.86
482.704	3.83
482.905	3.87
483.107	3.84
483.308	3.77
483.51	3.76
483.711	3.75
483.913	3.75
484.114	3.74
484.315	3.74
484.517	3.74
484.718	3.72
484.92	3.72
485.121	3.66
485.322	3.69
485.524	3.7
485.725	3.74
485.926	3.73
486.127	3.68
486.329	3.7
486.53	3.69
486.731	3.69
486.932	3.71
487.134	3.75
487.335	3.75
487.536	3.74
487.737	3.76
487.938	3.7
488.139	3.71
488.341	3.76
488.542	3.74
488.743	3.77
488.944	3.78
489.145	3.77
489.346	3.73
489.547	3.76
489.748	3.76
489.949	3.77
490.15	3.81
490.351	3.81
490.552	3.82
490.753	3.84
490.954	3.84
491.155	3.86
491.356	3.88
491.557	3.88
491.758	3.9
491.959	3.91
492.159	3.88
492.36	3.9
492.561	3.93
492.762	3.92
492.963	3.91
493.164	3.97
493.364	4
493.565	3.98
493.766	4
493.967	4.01
494.167	4.03
494.368	4.14
494.569	4.09
494.769	4.02
494.97	4.04
495.171	4.11
495.371	4.03
495.572	4.02
495.773	4.08
495.973	4.12
496.174	4.08
496.375	4.04
496.575	4.01
496.776	4.06
496.976	4.09
497.177	4.09
497.377	4.05
497.578	4.14
497.778	4.17
497.979	4.06
498.179	4.12
498.38	4.18
498.58	4.23
498.78	4.28
498.981	4.31
499.181	4.32
499.382	4.32
499.582	4.37
499.782	4.34
499.983	4.27
500.183	4.47
500.383	4.46
500.584	4.47
500.784	4.52
500.984	4.5
501.184	4.46
501.385	4.51
501.585	4.5
501.785	4.52
501.985	4.46
502.185	4.52
502.386	4.46
502.586	4.41
502.786	4.4
502.986	4.3
503.186	4.31
503.386	4.26
503.586	4.23
503.786	4.32
503.987	4.34
504.187	4.43
504.387	4.4
504.587	4.44
504.787	4.5
504.987	4.48
505.187	4.56
505.387	4.63
505.587	4.78
505.786	4.81
505.986	4.86
506.186	4.87
506.386	4.92
506.586	5
506.786	4.97
506.986	4.96
507.186	5.08
507.386	5.16
507.585	5.07
507.785	5.04
507.985	5.04
508.185	4.96
508.384	4.92
508.584	4.92
508.784	4.9
508.984	4.94
509.183	4.96
509.383	4.93
509.583	4.93
509.782	4.99
509.982	4.97
510.182	5.03
510.381	5.05
510.581	5.15
510.781	5.14
510.98	5.23
511.18	5.22
511.379	5.24
511.579	5.28
511.778	5.27
511.978	5.3
512.177	5.38
512.377	5.31
512.576	5.41
512.776	5.43
512.975	5.51
513.175	5.46
513.374	5.49
513.573	5.47
513.773	5.51
513.972	5.59
514.172	5.68
514.371	5.65
514.57	5.73
514.77	5.67
514.969	5.77
515.168	5.81
515.367	5.89
515.567	5.98
515.766	6.05
515.965	6.06
516.164	6.01
516.364	6.02
516.563	6.11
516.762	6.12
516.961	6.23
517.16	6.16
517.359	6.12
517.559	6.14
517.758	6.07
517.957	6.12
518.156	6.06
518.355	6.09
518.554	6.03
518.753	6.03
518.952	6.09
519.151	6.14
519.35	6.16
519.549	6.23
519.748	6.24
519.947	6.32
520.146	6.36
520.345	6.5
520.544	6.58
520.743	6.65
520.942	6.72
521.141	6.76
521.339	6.73
521.538	6.76
521.737	6.84
521.936	6.82
522.135	6.8
522.333	6.82
522.532	6.8
522.731	6.82
522.93	6.93
523.129	6.94
523.327	6.92
523.526	6.92
523.725	7.03
523.923	6.96
524.122	7.08
524.321	7.19
524.519	7.18
524.718	7.28
524.917	7.34
525.115	7.35
525.314	7.37
525.512	7.43
525.711	7.48
525.909	7.49
526.108	7.54
526.306	7.59
526.505	7.66
526.703	7.74
526.902	7.77
527.1	7.79
527.299	7.84
527.497	7.87
527.696	7.93
527.894	7.93
528.092	7.96
528.291	7.99
528.489	8
528.688	8
528.886	8.04
529.084	8.08
529.283	8.15
529.481	8.19
529.679	8.27
529.877	8.28
530.076	8.38
530.274	8.43
530.472	8.51
530.67	8.61
530.869	8.64
531.067	8.62
531.265	8.64
531.463	8.7
531.661	8.75
531.859	8.83
532.057	8.9
532.255	8.95
532.454	9.01
532.652	9.04
532.85	9.07
533.048	9.14
533.246	9.23
533.444	9.31
533.642	9.33
533.84	9.37
534.038	9.38
534.236	9.46
534.434	9.56
534.632	9.57
534.83	9.65
535.027	9.67
535.225	9.75
535.423	9.82
535.621	9.9
535.819	9.95
536.017	10
536.215	10.03
536.412	10.06
536.61	10
536.808	10.1
537.006	10.16
537.203	10.25
537.401	10.31
537.599	10.37
537.797	10.43
537.994	10.46
538.192	10.58
538.39	10.73
538.587	10.84
538.785	11
538.983	11.11
539.18	11.11
539.378	11.18
539.575	11.26
539.773	11.31
539.97	11.39
540.168	11.45
540.366	11.47
540.563	11.44
540.761	11.48
540.958	11.47
541.155	11.45
541.353	11.53
541.55	11.58
541.748	11.59
541.945	11.6
542.143	11.6
542.34	11.66
542.537	11.71
542.735	11.79
542.932	11.8
543.129	11.96
543.327	12.04
543.524	12.17
543.721	12.29
543.919	12.42
544.116	12.57
544.313	12.75
544.51	12.88
544.708	13
544.905	13.1
545.102	13.35
545.299	13.37
545.496	13.53
545.693	13.59
545.891	13.67
546.088	13.68
546.285	13.75
546.482	13.69
546.679	13.67
546.876	13.67
547.073	13.71
547.27	13.62
547.467	13.66
547.664	13.61
547.861	13.61
548.058	13.6
548.255	13.67
548.452	13.61
548.649	13.68
548.846	13.79
549.043	13.82
549.24	13.87
549.437	13.93
549.633	13.92
549.83	13.88
550.027	13.83
550.224	13.83
550.421	13.8
550.618	13.9
550.814	13.91
551.011	13.93
551.208	13.99
551.405	14.05
551.601	14.09
551.798	14.24
551.995	14.32
552.191	14.45
552.388	14.48
552.585	14.57
552.781	14.59
552.978	14.7
553.175	14.65
553.371	14.74
553.568	14.74
553.764	14.74
553.961	14.76
554.157	14.78
554.354	14.71
554.55	14.77
554.747	14.85
554.943	14.84
555.14	14.78
555.336	14.83
555.533	14.72
555.729	14.66
555.926	14.57
556.122	14.52
556.318	14.58
556.515	14.65
556.711	14.63
556.907	14.6
557.104	14.59
557.3	14.66
557.496	14.71
557.693	14.8
557.889	14.95
558.085	15.1
558.281	15.17
558.478	15.15
558.674	15.18
558.87	15.22
559.066	15.31
559.262	15.38
559.459	15.39
559.655	15.48
559.851	15.48
560.047	15.55
560.243	15.58
560.439	15.59
560.635	15.72
560.831	15.72
561.027	15.82
561.223	15.89
561.419	15.94
561.615	16.01
561.811	16.03
562.007	16.16
562.203	16.09
562.399	16.1
562.595	16.23
562.791	16.36
562.987	16.48
563.183	16.41
563.379	16.47
563.575	16.55
563.771	16.6
563.966	16.65
564.162	16.75
564.358	16.82
564.554	16.85
564.75	16.84
564.945	16.81
565.141	16.88
565.337	16.98
565.533	16.85
565.728	16.86
565.924	16.82
566.12	16.87
566.315	16.78
566.511	16.89
566.707	16.89
566.902	16.87
567.098	16.92
567.293	16.94
567.489	16.95
567.684	17.12
567.88	17.2
568.076	17.32
568.271	17.36
568.467	17.46
568.662	17.37
568.858	17.54
569.053	17.74
569.248	17.77
569.444	17.77
569.639	17.94
569.835	17.93
570.03	17.98
570.225	18
570.421	18.01
570.616	18.04
570.812	18.13
571.007	18.12
571.202	18.08
571.397	18.02
571.593	18.06
571.788	18.05
571.983	18.03
572.178	18.03
572.374	18
572.569	18.02
572.764	18.05
572.959	18.15
573.154	18.19
573.35	18.18
573.545	18.34
573.74	18.46
573.935	18.43
574.13	18.46
574.325	18.45
574.52	18.55
574.715	18.63
574.91	18.68
575.105	18.66
575.3	18.69
575.495	18.74
575.69	18.82
575.885	18.75
576.08	18.79
576.275	18.95
576.47	19.07
576.665	19.08
576.86	19.17
577.055	19.32
577.25	19.44
577.444	19.52
577.639	19.69
577.834	19.66
578.029	19.82
578.224	19.83
578.418	19.96
578.613	20.05
578.808	20.22
579.003	20.21
579.197	20.17
579.392	20.17
579.587	20.18
579.781	20.16
579.976	20.29
580.171	20.27
580.365	20.38
580.56	20.31
580.755	20.33
580.949	20.33
581.144	20.31
581.338	20.36
581.533	20.3
581.727	20.31
581.922	20.42
582.116	20.35
582.311	20.49
582.505	20.71
582.7	20.71
582.894	20.84
583.089	20.75
583.283	20.99
583.478	20.96
583.672	20.92
583.866	20.97
584.061	21.01
584.255	21.02
584.449	20.89
584.644	20.87
584.838	20.98
585.032	20.84
585.226	20.87
585.421	20.74
585.615	20.89
585.809	21.28
586.003	21.42
586.198	21.46
586.392	21.59
586.586	21.82
586.78	21.88
586.974	21.97
587.168	22.06
587.363	22.13
587.557	22.25
587.751	22.17
587.945	21.97
588.139	22.02
588.333	21.92
588.527	21.91
588.721	21.65
588.915	21.5
589.109	21.33
589.303	21.31
589.497	21.4
589.691	21.3
589.885	21.37
590.079	21.45
590.273	21.42
590.466	21.4
590.66	21.37
590.854	21.43
591.048	21.52
591.242	21.69
591.436	21.74
591.629	21.79
591.823	21.76
592.017	21.72
592.211	21.78
592.404	21.73
592.598	21.96
592.792	22.11
592.986	22.26
593.179	22.17
593.373	22.15
593.567	22.19
593.76	22.04
593.954	22.08
594.147	22.16
594.341	22.09
594.535	21.92
594.728	21.72
594.922	21.56
595.115	21.44
595.309	21.55
595.502	21.47
595.696	21.42
595.889	21.48
596.083	21.54
596.276	21.53
596.47	21.48
596.663	21.55
596.856	21.53
597.05	21.57
597.243	21.59
597.437	21.54
597.63	21.64
597.823	21.78
598.017	21.81
598.21	21.73
598.403	21.69
598.596	21.76
598.79	21.76
598.983	21.87
599.176	21.98
599.369	22.09
599.563	22.1
599.756	22.13
599.949	22.07
600.142	22.05
600.335	22.09
600.528	22.08
600.722	21.97
600.915	22.15
601.108	22.08
601.301	21.97
601.494	21.93
601.687	21.96
601.88	21.89
602.073	21.83
602.266	21.74
602.459	21.79
602.652	21.78
602.845	21.95
603.038	21.88
603.231	21.8
603.424	21.83
603.617	21.81
603.809	21.84
604.002	21.72
604.195	21.71
604.388	21.81
604.581	21.78
604.774	21.86
604.966	21.82
605.159	21.73
605.352	21.87
605.545	21.86
605.737	21.84
605.93	21.92
606.123	22.14
606.316	22.19
606.508	22.33
606.701	22.41
606.894	22.51
607.086	22.43
607.279	22.71
607.471	22.91
607.664	22.99
607.857	23.36
608.049	23.55
608.242	23.73
608.434	24.25
608.627	24.57
608.819	25.13
609.012	25.61
609.204	26.41
609.397	27.16
609.589	27.86
609.782	28.79
609.974	29.63
610.166	30.5
610.359	31.41
610.551	32.07
610.743	32.85
610.936	33.44
611.128	34.02
611.32	34.41
611.513	34.67
611.705	34.93
611.897	35.06
612.09	34.84
612.282	34.55
612.474	34.09
612.666	33.83
612.858	33.46
613.051	33.04
613.243	32.59
613.435	32.17
613.627	31.74
613.819	31.09
614.011	30.59
614.203	30.25
614.395	29.94
614.588	29.72
614.78	29.3
614.972	28.86
615.164	28.51
615.356	28.1
615.548	27.7
615.74	27.25
615.932	26.88
616.124	26.45
616.315	26.25
616.507	25.9
616.699	25.64
616.891	25.35
617.083	25.03
617.275	24.98
617.467	24.79
617.659	24.76
617.85	24.56
618.042	24.52
618.234	24.53
618.426	24.35
618.618	24.15
618.809	23.97
619.001	23.89
619.193	24.03
619.384	23.84
619.576	23.88
619.768	23.77
619.959	23.86
620.151	23.94
620.343	23.78
620.534	23.72
620.726	23.78
620.917	23.97
621.109	24.1
621.301	24.1
621.492	24.1
621.684	24.06
621.875	24.11
622.067	24.15
622.258	24.17
622.45	24.28
622.641	24.31
622.832	24.48
623.024	24.49
623.215	24.38
623.407	24.39
623.598	24.56
623.789	24.53
623.981	24.44
624.172	24.56
624.363	24.53
624.555	24.49
624.746	24.55
624.937	24.43
625.129	24.53
625.32	24.51
625.511	24.4
625.702	24.17
625.893	24.24
626.085	24.24
626.276	24.11
626.467	24.15
626.658	24.19
626.849	24.21
627.04	24.18
627.231	23.94
627.422	24.01
627.614	24.23
627.805	24.36
627.996	24.31
628.187	24.59
628.378	24.68
628.569	24.65
628.76	24.65
628.951	24.64
629.142	24.94
629.332	24.99
629.523	25.08
629.714	24.93
629.905	25.08
630.096	25.23
630.287	24.93
630.478	24.98
630.669	25.08
630.859	25.15
631.05	25.13
631.241	24.89
631.432	25
631.623	24.8
631.813	24.92
632.004	24.91
632.195	24.75
632.385	24.79
632.576	24.71
632.767	24.57
632.957	24.44
633.148	24.28
633.339	24.21
633.529	23.96
633.72	23.92
633.91	23.7
634.101	23.42
634.292	23.35
634.482	23.28
634.673	23.06
634.863	23.1
635.054	23
635.244	23.03
635.435	22.99
635.625	23.05
635.815	23.04
636.006	22.9
636.196	22.97
636.387	22.94
636.577	23.05
636.767	23.2
636.958	23.22
637.148	23.29
637.338	23.24
637.529	23.31
637.719	23.31
637.909	23.47
638.099	23.66
638.29	23.59
638.48	23.57
638.67	23.55
638.86	23.56
639.05	23.44
639.241	23.44
639.431	23.53
639.621	23.51
639.811	23.49
640.001	23.27
640.191	23.18
640.381	23.28
640.571	23.2
640.761	23.1
640.951	23.06
641.141	22.97
641.331	23
641.521	22.97
641.711	22.83
641.901	22.91
642.091	23.07
642.281	23.11
642.471	23.02
642.661	23.12
642.851	23.25
643.041	23.19
643.231	23.29
643.42	23.02
643.61	22.98
643.8	23.2
643.99	23.28
644.18	23.37
644.369	23.41
644.559	23.56
644.749	23.67
644.939	23.51
645.128	23.56
645.318	23.45
645.508	23.78
645.697	23.75
645.887	23.58
646.076	23.33
646.266	22.98
646.456	22.94
646.645	22.84
646.835	22.63
647.024	22.81
647.214	22.68
647.403	22.94
647.593	22.97
647.782	23.13
647.972	23.13
648.161	23.39
648.351	23.52
648.54	23.52
648.73	23.63
648.919	23.85
649.108	23.87
649.298	23.87
649.487	23.85
649.677	23.69
649.866	23.53
650.055	23.64
650.244	23.55
650.434	23.6
650.623	23.67
650.812	23.66
651.002	23.78
651.191	23.57
651.38	23.8
651.569	23.78
651.758	23.99
651.947	24.06
652.137	24.37
652.326	24.33
652.515	24.27
652.704	24.19
652.893	24.05
653.082	23.93
653.271	23.91
653.46	23.76
653.649	23.71
653.838	23.47
654.027	23.54
654.216	23.16
654.405	23.38
654.594	23.45
654.783	23.48
654.972	23.48
655.161	23.64
655.35	23.78
655.539	23.69
655.728	23.71
655.916	23.68
656.105	23.36
656.294	23.56
656.483	23.42
656.672	23.37
656.86	23.39
657.049	23.62
657.238	23.47
657.427	23.45
657.615	23.43
657.804	23.37
657.993	23.44
658.181	23.66
658.37	23.51
658.559	23.59
658.747	23.75
658.936	23.7
659.125	23.4
659.313	23.42
659.502	23.34
659.69	23.32
659.879	23.33
660.067	23.38
660.256	23.53
660.444	23.7
660.633	23.68
660.821	23.67
661.01	23.83
661.198	23.96
661.387	24.07
661.575	24.17
661.763	24.48
661.952	24.41
662.14	24.5
662.328	24.36
662.517	24.21
662.705	24.32
662.893	24.09
663.082	23.84
663.27	24.11
663.458	23.88
663.646	23.89
663.834	23.79
664.023	23.86
664.211	23.92
664.399	23.85
664.587	24
664.775	23.78
664.963	23.6
665.152	23.84
665.34	23.75
665.528	23.81
665.716	23.87
665.904	23.81
666.092	23.85
666.28	23.62
666.468	23.53
666.656	23.41
666.844	23.3
667.032	23.49
667.22	23.6
667.408	23.38
667.596	23.37
667.784	23.33
667.971	23.36
668.159	23.37
668.347	23.59
668.535	23.75
668.723	23.89
668.911	23.85
669.098	24.02
669.286	23.8
669.474	23.86
669.662	24.04
669.849	24.06
670.037	24.2
670.225	24.26
670.413	24.23
670.6	24.09
670.788	23.97
670.976	24.21
671.163	24.11
671.351	24
671.538	23.98
671.726	24.05
671.913	24.29
672.101	23.99
672.289	24.08
672.476	23.92
672.664	24.23
672.851	24.02
673.039	24.02
673.226	24.05
673.413	24.23
673.601	24.2
673.788	23.75
673.976	23.24
674.163	23.44
674.35	23.3
674.538	23.66
674.725	23.44
674.912	23.63
675.1	23.45
675.287	23.67
675.474	23.76
675.662	23.89
675.849	24.19
676.036	24.41
676.223	24.34
676.411	24.48
676.598	24.21
676.785	24.35
676.972	24.15
677.159	24.37
677.346	24.44
677.533	24.34
677.721	24.43
677.908	24.15
678.095	24.14
678.282	24.29
678.469	23.97
678.656	23.98
678.843	23.86
679.03	23.87
679.217	23.74
679.404	23.37
679.591	23.29
679.778	23.25
679.964	23.36
680.151	23.31
680.338	23.29
680.525	23.32
680.712	23.33
680.899	23.53
681.086	23.92
681.272	23.99
681.459	24.03
681.646	24.15
681.833	24.14
682.02	24.06
682.206	24.21
682.393	23.94
682.58	24.17
682.766	24.12
682.953	23.77
683.14	23.74
683.326	23.9
683.513	23.95
683.7	23.81
683.886	23.74
684.073	23.99
684.259	24.06
684.446	24.41
684.632	24.57
684.819	24.55
685.005	24.88
685.192	24.5
685.378	24.4
685.565	24.42
685.751	24.52
685.938	24.67
686.124	24.55
686.31	24.54
686.497	24.36
686.683	24.19
686.87	24.14
687.056	23.96
687.242	24.08
687.429	24
687.615	24.17
687.801	23.98
687.987	23.81
688.174	24.21
688.36	23.81
688.546	23.93
688.732	23.82
688.918	24.15
689.105	24.23
689.291	24.11
689.477	23.91
689.663	23.83
689.849	23.97
690.035	23.9
690.221	23.52
690.407	23.98
690.593	23.94
690.779	23.79
690.965	23.47
691.151	23.39
691.337	23.41
691.523	23.42
691.709	23.57
691.895	23.63
692.081	23.65
692.267	23.73
692.453	23.62
692.639	23.5
692.825	23.67
693.011	24
693.196	23.8
693.382	23.65
693.568	23.74
693.754	23.33
693.94	23.43
694.125	23.73
694.311	23.76
694.497	23.51
694.682	23.45
694.868	23.35
695.054	23.26
695.239	23.64
695.425	23.81
695.611	24.08
695.796	24.24
695.982	23.87
696.168	23.72
696.353	23.34
696.539	23.47
696.724	23.35
696.91	23.56
697.095	23.44
697.281	23.17
697.466	23.25
697.652	23.37
697.837	23.39
698.023	23.51
698.208	23.47
698.393	23.73
698.579	23.74
698.764	23.77
698.949	23.64
699.135	23.49
699.32	23.65
699.505	23.46
699.691	23.25
699.876	23.23
700.061	23.3
700.246	23.43
700.432	23.13
700.617	23.24
700.802	23.52
700.987	23.71
701.172	23.76
701.358	23.65
701.543	24.14
701.728	24.12
701.913	24.38
702.098	24.59
702.283	24.57
702.468	24.82
702.653	24.68
702.838	24.43
703.023	24.29
703.208	24.36
703.393	24.38
703.578	24.15
703.763	24.22
703.948	24.28
704.133	24.33
704.318	24.5
704.503	24.81
704.688	24.82
704.873	25.37
705.057	25.72
705.242	26.35
705.427	26.9
705.612	27.29
705.797	27.56
705.981	27.96
706.166	28.15
706.351	28.16
706.536	28.57
706.72	28.78
706.905	28.56
707.09	28.74
707.274	28.7
707.459	28.61
707.644	28.62
707.828	28.68
708.013	28.36
708.197	28.37
708.382	28.24
708.567	27.93
708.751	28.09
708.936	27.91
709.12	27.84
709.305	27.48
709.489	27.76
709.673	27.77
709.858	27.97
710.042	28
710.227	27.81
710.411	28.37
710.596	28.4
710.78	28.22
710.964	28.24
711.149	27.93
711.333	28.24
711.517	27.88
711.702	27.66
711.886	27.32
712.07	27.41
712.254	27.25
712.438	26.47
712.623	26.16
712.807	26.17
712.991	26.02
713.175	25.9
713.359	25.64
713.544	25.32
713.728	24.96
713.912	25.14
714.096	25.01
714.28	25.21
714.464	25.23
714.648	25.09
714.832	24.65
715.016	24.74
715.2	24.82
715.384	24.69
715.568	24.85
715.752	25.04
715.936	24.55
716.12	23.94
716.304	23.54
716.488	23.67
716.671	23.74
716.855	23.73
717.039	23.63
717.223	23.96
717.407	23.81
717.59	23.52
717.774	23.46
717.958	23.27
718.142	23.66
718.325	23.65
718.509	23.47
718.693	23.88
718.877	24.55
719.06	24.73
719.244	24.32
719.428	24.12
719.611	24.58
719.795	24.48
719.978	24.71
720.162	25.12
720.345	25.51
720.529	25.75
720.713	25.49
720.896	24.99
721.08	25.19
721.263	24.97
721.446	25.43
721.63	24.98
721.813	25.11
721.997	24.85
722.18	24.35
722.364	24.31
722.547	24.17
722.73	24.56
722.914	24.68
723.097	24.22
723.28	24.32
723.464	23.94
723.647	23.63
723.83	23.56
724.013	23.95
724.197	23.83
724.38	23.77
724.563	24
724.746	23.67
724.929	23.56
725.112	23.43
725.296	23.65
725.479	23.8
725.662	24.41
725.845	24.43
726.028	24.19
726.211	24.42
726.394	24.34
726.577	23.99
726.76	23.85
726.943	24.09
727.126	24.3
727.309	23.87
727.492	23.78
727.675	23.48
727.858	23.65
728.041	24.07
728.224	24.08
728.407	24.21
728.589	24.41
728.772	24.29
728.955	24.01
729.138	24.09
729.321	24.46
729.503	24.55
729.686	24.66
729.869	24.68
730.052	24.37
730.234	24.4
730.417	23.83
730.6	23.48
730.782	23.69
730.965	24.05
731.148	24.46
731.33	24.29
731.513	24.25
731.695	23.8
731.878	23.89
732.061	23.81
732.243	23.77
732.426	24.08
732.608	24.81
732.791	24.8
732.973	24.49
733.156	24.19
733.338	24.27
733.52	24.53
733.703	24.58
733.885	24.23
734.068	24.77
734.25	24.54
734.432	24.48
734.615	23.98
734.797	23.74
734.979	23.61
735.162	23.17
735.344	23.2
735.526	22.94
735.708	23.82
735.891	23.89
736.073	23.78
736.255	24.09
736.437	24.47
736.619	24.83
736.802	24.9
736.984	24.88
737.166	25.27
737.348	25.12
737.53	25.3
737.712	24.66
737.894	24.88
738.076	25.13
738.258	25.26
738.44	25.21
738.622	24.82
738.804	25.12
738.986	25.35
739.168	25.66
739.35	25.9
739.532	25.72
739.714	25.9
739.896	25.76
740.078	25.29
740.259	24.73
740.441	24.44
740.623	24.69
740.805	24.17
740.987	24.29
741.168	23.38
741.35	23.42
741.532	23.81
741.714	24.09
741.895	24.31
742.077	24.58
742.259	24.48
742.44	24.58
742.622	24.25
742.804	24.92
742.985	25.12
743.167	25.93
743.348	26.09
743.53	25.55
743.711	24.77
743.893	24.54
744.075	24.18
744.256	24.34
744.438	24.74
744.619	24.79
744.8	24.61
744.982	24.47
745.163	24.7
745.345	24.3
745.526	24.95
745.707	25.73
745.889	26.12
746.07	26.44
746.252	26.42
746.433	26.65
746.614	26.94
746.795	26.77
746.977	26.36
747.158	25.84
747.339	26.12
747.52	25.58
747.702	25.48
747.883	25.66
748.064	26.14
748.245	26.81
748.426	26.13
748.607	25.34
748.788	25.57
748.97	25.64
749.151	26.09
749.332	26.37
749.513	26.94
749.694	27.25
749.875	26.81
750.056	25.79
750.237	25.5
750.418	25.64
750.599	26.2
750.78	26.1
750.96	26.77
751.141	26.43
751.322	26.4
751.503	25.82
751.684	25.6
751.865	25.66
752.046	25.66
752.226	25.1
752.407	25.48
752.588	25.71
752.769	25.42
752.949	24.73
753.13	24.47
753.311	24.74
753.492	24.9
753.672	24.48
753.853	24.51
754.034	25.23
754.214	25.49
754.395	25.22
754.575	25.17
754.756	25.63
754.937	25.71
755.117	26.36
755.298	26.1
755.478	26.43
755.659	26.68
755.839	27.35
756.02	26.77
756.2	27.43
756.381	27.29
756.561	27.23
756.741	26.69
756.922	27.19
757.102	26.48
757.283	25.9
757.463	25.15
757.643	24.89
757.823	24
758.004	24.64
758.184	24.18
758.364	24.1
758.545	23.97
758.725	24.28
758.905	23.94
759.085	24.25
759.265	23.71
759.446	23.67
759.626	23.43
759.806	23.28
759.986	22.55
760.166	22.74
760.346	22.72
760.526	22.3
760.706	21.53
760.886	21.65
761.066	21.44
761.246	22.24
761.426	22.75
761.606	22.55
761.786	23.01
761.966	23.41
762.146	23.03
762.326	23.29
762.506	23.6
762.686	24.33
762.866	24.36
763.046	24.4
763.225	24.19
763.405	23.64
763.585	24.06
763.765	23.68
763.945	23.46
764.124	23.41
764.304	22.99
764.484	22.92
764.664	22.47
764.843	22.36
765.023	22.29
765.203	22.8
765.382	23.27
765.562	23.45
765.741	23.69
765.921	23.95
766.101	24.21
766.28	24.79
766.46	24.67
766.639	25.44
766.819	25.65
766.998	25.89
767.178	25.32
767.357	25.21
767.537	25.44
767.716	25.54
767.896	24.97
768.075	25.15
768.254	24.89
768.434	25.45
768.613	26.16
768.792	26.28
768.972	26.59
769.151	26.52
769.33	26.97
769.51	26.66
769.689	26.3
769.868	27.47
770.047	27.29
770.226	27.45
770.406	27.69
770.585	26.89
770.764	26.45
770.943	26.51
771.122	26.78
771.301	26.16
771.48	25.84
771.66	25.71
771.839	24.8
772.018	24.59
772.197	24.73
772.376	24.69
772.555	24.11
772.734	24.37
772.913	24.15
773.092	24.12
773.271	24.59
773.449	24.07
773.628	24.32
773.807	24.74
773.986	25.79
774.165	25.85
774.344	25.3
774.523	25.56
774.701	26.12
774.88	25.78
775.059	25.87
775.238	25.66
775.417	26.37
775.595	26.32
775.774	26.37
775.953	25.59
776.131	25.54
776.31	25.57
776.489	25.04
776.667	24.55
776.846	24.52
777.025	23.94
777.203	23.36
777.382	23.09
777.56	22.74
777.739	23.4
777.917	23.14
778.096	23.38
778.274	23.45
778.453	24.24
778.631	24.74
778.81	24.55
778.988	25.08
779.166	26.18
779.345	26.38
779.523	27.03
779.702	25.99
779.88	26.64
780.058	26.4
780.237	25.88
780.415	25.56
780.593	25.52
780.771	26.56
780.95	26.75
781.128	26.59
781.306	26.45
781.484	26.58
781.662	26.89
781.841	26.83
782.019	27.21
782.197	27.8
782.375	27.73
782.553	27.85
782.731	27.17
782.909	26.33
783.087	26.4
783.265	26.95
783.443	26.59
783.621	26.84
783.799	26.04
783.977	25.3
784.155	25.4
784.333	25.99
784.511	25.16
784.689	24.76
784.867	25.74
785.045	25.25
785.223	24.36
785.4	24.53
785.578	24.19
785.756	24.49
785.934	24.66
786.112	24.66
786.289	23.95
786.467	23.85
786.645	23.76
786.823	23.89
787	24.77
787.178	25.13
787.356	24.96
787.533	23.56
787.711	24.06
787.889	24
788.066	23.59
788.244	23.96
788.421	23.77
788.599	23.44
788.776	22.57
788.954	21.3
789.131	21.6
789.309	22.32
789.486	23.37
789.664	23.77
789.841	23.49
790.019	24.75
790.196	24.03
790.373	24.68
790.551	25.39
790.728	26
790.906	26.79
791.083	27.33
791.26	26.8
791.437	26.01
791.615	25.39
791.792	25.34
791.969	24.15
792.146	25.19
792.324	24.43
792.501	24.55
792.678	25.14
792.855	25.88
793.032	25.31
793.209	25.72
793.387	27.35
793.564	27.77
793.741	27.9
793.918	28.83
794.095	27.46
794.272	28.28
794.449	28.31
794.626	27.03
794.803	25.88
794.98	26.06
795.157	26.44
795.334	25.39
795.511	24.34
795.688	24.2
795.864	22.93
796.041	23.74
796.218	23.63
796.395	23.35
796.572	23.62
796.749	24.82
796.925	25.02
797.102	24.16
797.279	24.48
797.456	24.8
797.632	25.48
797.809	25.67
797.986	26.3
798.162	26.08
798.339	26.47
798.516	26.3
798.692	24.69
798.869	23.33
799.046	22.73
799.222	22.83
799.399	23.62
799.575	22.58
799.752	22.21
799.928	21.22
800.105	21.09
800.281	20.9
800.458	21.68
800.634	22.43
800.811	22.58
800.987	22.86
801.163	22.25
801.34	21.45
801.516	22.26
801.692	23.52
801.869	24
802.045	24.07
802.221	23.55
802.398	23.53
802.574	23.69
802.75	24.82
802.926	25.45
803.103	25.86
803.279	25.75
803.455	26.78
803.631	27.05
803.807	27.51
803.983	27.09
804.16	27.82
804.336	26.95
804.512	26.51
804.688	26.23
804.864	25.49
805.04	26.4
805.216	27.92
805.392	26.65
805.568	25.05
805.744	24
805.92	24.33
806.096	22.27
806.272	22.07
806.448	23.02
806.623	24
806.799	24.09
806.975	23.51
807.151	22.27
807.327	22.31
807.503	23.19
807.678	23.29
807.854	22.88
808.03	25.12
808.206	27.04
808.381	26.01
808.557	23.87
808.733	23.79
808.908	23.78
809.084	24.32
809.26	23.92
809.435	24.27
809.611	24.52
809.787	25.46
809.962	23.89
810.138	22.41
810.313	22.57
810.489	24.18
810.664	25.71
810.84	26.36
811.015	27.04
811.191	28.66
811.366	28.91
811.542	28.3
811.717	28.22
811.892	29.31
812.068	29.68
812.243	29.7
812.419	28.54
812.594	26.79
812.769	26.07
812.944	24.07
813.12	22.76
813.295	22.35
813.47	23.02
813.645	22.43
813.821	21.79
813.996	22.11
814.171	23.12
814.346	22.88
814.521	23.99
814.697	23.22
814.872	23.68
815.047	23.38
815.222	22.43
815.397	22.5
815.572	23.47
815.747	23.92
815.922	23.07
816.097	22.65
816.272	23.42
816.447	23.28
816.622	24.28
816.797	24.93
816.972	25.21
817.147	25.34
817.322	24.35
817.496	24.36
817.671	24.04
817.846	24.08
818.021	23.38
818.196	23.29
818.371	23.57
818.545	23.06
818.72	22.66
818.895	22.36
819.069	22.26
819.244	22.18
819.419	22.06
819.594	22.48
819.768	22.49
819.943	22.43
820.117	21.81
820.292	21.26
820.467	21.41
820.641	20.42
820.816	20.48
820.99	20.55
821.165	20.49
821.339	20.3
821.514	20.55
821.688	20.24
821.863	20.17
822.037	20.5
822.212	20.37
822.386	20.35
822.56	20.55
822.735	20.59
822.909	20.54
823.084	20.65
823.258	20.62
823.432	20.25
823.606	20.29
823.781	20.38
823.955	20.29
824.129	20.28
824.303	20
824.478	19.97
824.652	19.77
824.826	19.94
825	20.09
825.174	20.06
825.348	20.39
825.523	20.32
825.697	20.73
825.871	20.64
826.045	21.15
826.219	21.71
826.393	21.75
826.567	22.15
826.741	22.05
826.915	21.98
827.089	21.95
827.263	21.81
827.437	21.97
827.611	21.82
827.784	21.57
827.958	21.03
828.132	20.79
828.306	20.97
828.48	20.78
828.654	20.67
828.827	20.2
829.001	20.32
829.175	20.12
829.349	19.98
829.522	19.23
829.696	19.93
829.87	20.38
830.044	20.51
830.217	20.77
830.391	19.71
830.565	19.65
830.738	20.22
830.912	20.91
831.085	21.79
831.259	23.42
831.432	23.96
831.606	22.79
831.779	22.53
831.953	22.72
832.126	22.45
832.3	22.72
832.473	22.99
832.647	22.83
832.82	22.35
832.994	21.17
833.167	20.81
833.34	20.23
833.514	20.09
833.687	20.43
833.86	20.05
834.034	19.94
834.207	19.72
834.38	19.4
834.553	19.76
834.727	18.8
834.9	19.08
835.073	17.75
835.246	18.7
835.419	19.3
835.593	18.63
835.766	19.44
835.939	18.34
836.112	19.74
836.285	20.2
836.458	20.12
836.631	21.38
836.804	22.59
836.977	22.98
837.15	22.48
837.323	21.02
837.496	21.28
837.669	20.4
837.842	22.54
838.015	21.26
838.188	19.82
838.361	19.98
838.533	18.75
838.706	17.75
838.879	19.27
839.052	18.84
839.225	19.28
839.398	19.04
839.57	19.37
839.743	19.29
839.916	18.69
840.088	19.34
840.261	19.45
840.434	20.71
840.607	21.41
840.779	20.11
840.952	20.92
841.124	23.31
841.297	24.61
841.47	24.17
841.642	24.24
841.815	25.49
841.987	26.04
842.16	26.45
842.332	26.64
842.505	25.46
842.677	29.55
842.85	30.16
843.022	27.76
843.194	27.71
843.367	27.75
843.539	28.6
843.712	28.84
843.884	29.59
844.056	27.91
844.229	29.05
844.401	28.91
844.573	25.27
844.745	25.17
844.918	28.03
845.09	28.8
845.262	31.74
845.434	31.32
845.606	31.95
845.779	30.85
845.951	33.94
846.123	33.66
846.295	37.26
846.467	40.98
846.639	41.46
846.811	40.73
846.983	38.72
847.155	35.7
847.327	34.75
847.499	35.33
847.671	36.1
847.843	34.08
848.015	31.17
848.187	27.45
848.359	24.15
848.531	23.01
848.703	23.16
848.875	23.29
849.047	28.2
849.218	29.78
849.39	29.27
849.562	26.93
849.734	25.22
849.905	29.6
850.077	31.47
850.249	32.97
850.421	31.83
850.592	36.23
850.764	36.95
850.936	31.24
851.107	29.9
851.279	25.88
851.451	26.53
851.622	28.17
851.794	24.06
851.965	23.25
852.137	24.42
852.308	23.45
852.48	21.13
852.651	20.8
852.823	23.43
852.994	24.4
853.166	29.8
853.337	35.87
853.509	36.25
853.68	39.05
853.851	41.02
854.023	38.66
854.194	42.5
854.365	41.85
854.537	43.4
854.708	45.55
854.879	45.18
855.05	42.99
855.222	38.64
855.393	38.1
855.564	38.22
855.735	40.25
855.906	41.24
856.078	38.02
856.249	33.86
856.42	32.04
856.591	28.61
856.762	28.08
856.933	26.39
857.104	26.61
857.275	27.71
857.446	30.9
857.617	26.66
857.788	25.41
857.959	30.21
858.13	34.18
858.301	36.67
858.472	36.69
858.643	39.62
858.814	38.14
858.985	36.43
859.155	32.99
859.326	28.27
859.497	28.41
859.668	32.44
859.839	22.29
860.009	19.54
860.18	12.55
860.351	13.23
860.522	11.08
860.692	13.59
860.863	13.28
861.034	19.91
861.204	19.06
861.375	22.65
861.546	16.15
861.716	22.08
861.887	25.49
862.057	28.5
862.228	28.12
862.398	29.72
862.569	30.71
862.739	35.72
862.91	33.12
863.08	28.16
863.251	24.13
863.421	28.19
863.592	28.34
863.762	26.8
863.932	26.97
864.103	29.09
864.273	29.89
864.443	27.42
864.614	28.39
864.784	28.97
864.954	35.11
865.125	35.19
865.295	35.47
865.465	36.23
865.635	37.63
865.805	39.33
865.976	38.41
866.146	35.57
866.316	37.7
866.486	35.7
866.656	33.32
866.826	33.64
866.996	35.58
867.166	36.25
867.336	35.31
867.506	32.73
867.676	34.06
867.846	32
868.016	34.98
868.186	31.55
868.356	33.32
868.526	35.78
868.696	35.95
868.866	36.08
869.036	40.08
869.206	45.31
869.376	46.48
869.545	42.24
869.715	42.82
869.885	41.38
870.055	46.08
870.224	43.6
870.394	37.66
870.564	38.67
870.734	38.32
870.903	31.45
871.073	23.06
871.243	22.14
871.412	27.25
871.582	26.62
871.751	29.52
871.921	25.27
872.091	27.09
872.26	30.14
872.43	26.64
872.599	26.12
872.769	28.57
872.938	32.14
873.108	32.53
873.277	29.58
873.446	31.31
873.616	24.44
873.785	23.97
873.955	23.69
874.124	25.19
874.293	27.47
874.463	26.75
874.632	26.36
874.801	28.19
874.971	25.21
875.14	25.71
875.309	27.23
875.478	31.22
875.647	36.98
875.817	36.83
875.986	34.11
876.155	33.54
876.324	31.22
876.493	29.64
876.662	28.65
876.831	30.8
877	27.83
877.17	27.22
877.339	26.49
877.508	23.88
877.677	25.03
877.846	27.51
878.015	22.79
878.184	23.56
878.352	22.29
878.521	17.05
878.69	14.94
878.859	18.4
879.028	13.77
879.197	13.95
879.366	12.27
879.534	11.43
879.703	8.88
879.872	10.29
880.041	12.97
880.21	13.95
880.378	15.11
880.547	15.73
880.716	16.38
880.884	17.18
881.053	16.23
881.222	16.37
881.39	16.72
881.559	16.98
881.727	16.88
881.896	16.74
882.065	17.16
882.233	17.01
882.402	17.39
882.57	17.39
882.739	17.49
882.907	18.66
883.076	18.96
883.244	18.86
883.412	19.14
883.581	19.87
883.749	18.62
883.918	18.84
884.086	19.04
884.254	19.91
884.423	19.98
884.591	19.73
884.759	18.89
884.927	19.91
885.096	21.1
885.264	21.9
885.432	21.83
885.6	23.95
885.769	23.97
885.937	23.27
886.105	22.55
886.273	23.88
886.441	25.83
886.609	27.05
886.777	25.29
886.945	23.39
887.113	24.43
887.281	25.3
887.449	26.05
887.617	26.89
887.785	27.75
887.953	28.05
888.121	27.15
888.289	25.78
888.457	23.64
888.625	27.6
888.793	29.74
888.961	30.6
889.129	33.71
889.296	31.99
889.464	31.29
889.632	36.11
889.8	35.05
889.967	34.34
890.135	37.61
