Data from 2938710__Reflection_01.txt Node
Date: Tue Mar 17 19:31:21 EDT 2015
User: robert
Spectrometer: USB4E03002
Autoset integration time: false
Trigger mode: 4
Integration Time (sec): 1.000000E-1
Scans to average: 10
Electric dark correction enabled: false
Nonlinearity correction enabled: false
Boxcar width: 5
Stray light correction enabled: false
XAxis mode: Wavelengths
Stop averaging: false
Number of Pixels in Spectrum: 3648
>>>>>Begin Spectral Data<<<<<
177.575	112.11
177.794	81.25
178.014	78.06
178.233	45.41
178.452	39.2
178.672	80.72
178.891	43.73
179.11	59.86
179.33	-5.22
179.549	32.1
179.768	1.65
179.987	10.48
180.207	330.43
180.426	23.42
180.645	76.15
180.864	66
181.084	27.77
181.303	34.77
181.522	-7.86
181.741	31.92
181.96	-2.84
182.179	-39.83
182.398	-9.18
182.618	21.08
182.837	31.25
183.056	3.04
183.275	-30.12
183.494	3.78
183.713	7.62
183.932	54.46
184.151	7.12
184.37	-15.13
184.589	29.58
184.808	-17.53
185.027	-49.59
185.246	-132.82
185.465	-231.79
185.684	-238.33
185.903	-84.73
186.122	-123.66
186.341	-227.27
186.56	-106.3
186.779	-61.46
186.998	-107.08
187.216	-85.59
187.435	-75
187.654	11.38
187.873	63.37
188.092	148.58
188.311	534.21
188.53	289.2
188.748	189.1
188.967	125.33
189.186	155.05
189.405	110.12
189.623	126.35
189.842	132.18
190.061	191.46
190.28	124.34
190.498	210.53
190.717	134.69
190.936	130.05
191.154	809.09
191.373	-222.03
191.592	95.62
191.81	242.5
192.029	434.09
192.248	2533.33
192.466	5.26
192.685	34.3
192.904	438.89
193.122	467.69
193.341	1021.43
193.559	-3366.67
193.778	-355.56
193.996	92.45
194.215	25.93
194.433	169.43
194.652	215.62
194.87	36
195.089	31.78
195.307	391.14
195.526	764.52
195.744	400
195.963	69.89
196.181	52.63
196.399	77
196.618	68.18
196.836	43.43
197.055	36.14
197.273	-15.59
197.491	-72.37
197.71	-53.2
197.928	-25.29
198.146	-10.69
198.365	25.99
198.583	-20.33
198.801	8.19
199.019	45.7
199.238	59.19
199.456	66.3
199.674	60.29
199.892	84.7
200.111	59.82
200.329	49.54
200.547	74.79
200.765	321.05
200.983	490.91
201.202	-0.89
201.42	110.76
201.638	130.94
201.856	109
202.074	81.63
202.292	78.04
202.51	51.87
202.728	127.74
202.946	239.35
203.165	-1205.56
203.383	-7860
203.601	585
203.819	562.07
204.037	-1105.41
204.255	1153.85
204.473	-838
204.691	-1008.7
204.909	-486.49
205.127	-176.51
205.345	-242.57
205.562	333.33
205.78	-95.42
205.998	-13.43
206.216	2.18
206.434	-0.26
206.652	21.33
206.87	49.22
207.088	37.48
207.306	76.78
207.523	67.88
207.741	54.62
207.959	39.67
208.177	48.77
208.395	39.83
208.612	36.6
208.83	11.99
209.048	-8.77
209.266	-47.54
209.483	7.59
209.701	-16.72
209.919	-176.74
210.136	-302.91
210.354	-752.27
210.572	-157.06
210.79	2800
211.007	-175.7
211.225	-26.59
211.442	4.05
211.66	-14.93
211.878	-22.22
212.095	-20.14
212.313	-2.93
212.53	-17.82
212.748	-9.75
212.966	-32.75
213.183	-38.52
213.401	-23.88
213.618	-20.29
213.836	-31.83
214.053	-58.62
214.271	-82.69
214.488	-49.87
214.705	-39.94
214.923	-10.96
215.14	-21.19
215.358	-11.17
215.575	-2.69
215.793	-28.46
216.01	-39.04
216.227	-34.43
216.445	-11.22
216.662	34.67
216.879	47.98
217.097	64.93
217.314	64.46
217.531	34.48
217.749	17.63
217.966	14.95
218.183	17.78
218.4	21.51
218.618	15.66
218.835	6.04
219.052	-9.83
219.269	-46.12
219.487	-66.94
219.704	-57.55
219.921	-49.47
220.138	-54.85
220.355	-52.45
220.572	-48
220.79	-26.4
221.007	-19.66
221.224	-11.58
221.441	-20.84
221.658	-6.49
221.875	-9.88
222.092	1.89
222.309	8.99
222.526	8.86
222.743	12.18
222.96	7.94
223.177	2.44
223.394	4.99
223.611	8.02
223.828	11.48
224.045	12.06
224.262	12.65
224.479	7.12
224.696	8.06
224.913	6.89
225.13	1.61
225.347	-1.41
225.564	2.31
225.781	1.23
225.997	-2.69
226.214	-3.08
226.431	-4.99
226.648	-6.4
226.865	-4.84
227.082	-4.57
227.298	-4.16
227.515	-3.35
227.732	0.56
227.949	0.46
228.165	0.68
228.382	1.53
228.599	2.01
228.816	3.71
229.032	3.9
229.249	3.49
229.466	3.51
229.682	3.93
229.899	4.32
230.116	4.15
230.332	3.43
230.549	2.45
230.765	2.96
230.982	2.18
231.199	-0.55
231.415	-1.03
231.632	-0.84
231.848	-2.26
232.065	-2.79
232.281	-3.09
232.498	-3.57
232.714	-2.59
232.931	-0.93
233.147	-4.26
233.364	-3.48
233.58	-3.12
233.797	-1.94
234.013	-1.9
234.23	0.08
234.446	0.58
234.662	1.71
234.879	-0.62
235.095	-0.56
235.312	-0.21
235.528	1.55
235.744	1.03
235.961	0.18
236.177	-0.38
236.393	0.56
236.61	0.42
236.826	-2.24
237.042	-2.69
237.258	-0.91
237.475	-1.94
237.691	-3.13
237.907	-2.76
238.123	-2.14
238.339	-1.67
238.556	0.61
238.772	-1.1
238.988	-1.09
239.204	0.66
239.42	2.59
239.636	2.83
239.853	2.37
240.069	2.82
240.285	1.89
240.501	2.11
240.717	3.37
240.933	3.12
241.149	2.79
241.365	2.06
241.581	2.04
241.797	1.63
242.013	1.4
242.229	1.85
242.445	2.21
242.661	2.96
242.877	2.62
243.093	2.3
243.309	1.52
243.525	1.76
243.741	2.08
243.957	1.55
244.173	1.34
244.388	1.81
244.604	1.3
244.82	1.01
245.036	1.36
245.252	2.09
245.468	2.58
245.683	3.55
245.899	4.04
246.115	4.35
246.331	4.96
246.547	4.75
246.762	4.24
246.978	4.46
247.194	4.87
247.409	4.31
247.625	4.1
247.841	4.04
248.057	4.06
248.272	3.77
248.488	3.64
248.703	3.41
248.919	3.84
249.135	4.52
249.35	4.43
249.566	3.51
249.782	3.78
249.997	3.63
250.213	3.58
250.428	3.27
250.644	3.49
250.859	3.36
251.075	3.78
251.29	3.14
251.506	2.92
251.721	3.13
251.937	3.92
252.152	4.09
252.368	4.06
252.583	4.47
252.798	3.92
253.014	3.37
253.229	3.13
253.445	2.63
253.66	2.23
253.875	1.36
254.091	1.85
254.306	0.99
254.521	0.34
254.737	1.38
254.952	1.17
255.167	0.63
255.383	1.22
255.598	1.49
255.813	1.34
256.028	1.87
256.244	2.44
256.459	1.41
256.674	1.06
256.889	1.58
257.104	0.62
257.32	0.15
257.535	1.49
257.75	1.52
257.965	1.7
258.18	2.1
258.395	1.99
258.61	1.94
258.826	2.08
259.041	2.15
259.256	1.98
259.471	1.87
259.686	1.76
259.901	1.59
260.116	1.76
260.331	1.65
260.546	1.44
260.761	1.45
260.976	1.26
261.191	1.26
261.406	1.26
261.621	1.32
261.836	1.71
262.05	1.75
262.265	1.55
262.48	1.12
262.695	1.39
262.91	1.7
263.125	1.48
263.34	1.7
263.555	1.89
263.769	1.74
263.984	2.13
264.199	1.96
264.414	2.22
264.629	2.58
264.843	2.59
265.058	2.32
265.273	2.11
265.488	2.29
265.702	2.36
265.917	2.56
266.132	2.76
266.346	2.29
266.561	2.42
266.776	2.47
266.99	2.24
267.205	2.59
267.42	2.73
267.634	2.83
267.849	2.62
268.063	2.87
268.278	2.35
268.492	2.26
268.707	2.52
268.922	1.93
269.136	2.29
269.351	2.06
269.565	1.77
269.78	1.53
269.994	0.95
270.209	0.88
270.423	0.34
270.637	0.66
270.852	0.68
271.066	0.62
271.281	1.11
271.495	0.5
271.709	1.07
271.924	1.22
272.138	1.32
272.353	1.77
272.567	2.12
272.781	2.31
272.996	2.07
273.21	2.43
273.424	2.68
273.638	2.63
273.853	2.99
274.067	2.84
274.281	2.62
274.495	2.42
274.71	2.15
274.924	1.94
275.138	2.11
275.352	2.35
275.566	1.91
275.781	1.33
275.995	1.33
276.209	1.13
276.423	1.14
276.637	1.31
276.851	1.41
277.065	1.27
277.279	1.21
277.493	0.76
277.707	0.51
277.921	0.58
278.135	1.3
278.349	0.97
278.563	0.9
278.777	0.63
278.991	0.36
279.205	0.27
279.419	0.3
279.633	0.26
279.847	0.56
280.061	0.62
280.275	0.6
280.489	0.17
280.703	0.18
280.917	0.29
281.131	0.2
281.344	0.31
281.558	0.36
281.772	0.68
281.986	0.63
282.2	0.75
282.414	0.74
282.627	0.83
282.841	0.67
283.055	0.91
283.269	0.92
283.482	0.81
283.696	0.82
283.91	1.2
284.123	1.09
284.337	1.29
284.551	1.39
284.764	1.35
284.978	1.57
285.192	1.99
285.405	2.03
285.619	2.05
285.833	2.26
286.046	2.5
286.26	2.31
286.473	2.63
286.687	2.54
286.9	2.48
287.114	2.31
287.327	2.21
287.541	1.8
287.754	2.01
287.968	2.14
288.181	2.16
288.395	2.14
288.608	2.27
288.822	2.3
289.035	2.24
289.248	2.18
289.462	2.78
289.675	2.52
289.889	2.6
290.102	2.17
290.315	2.33
290.529	2.47
290.742	2.23
290.955	2.19
291.169	1.94
291.382	1.78
291.595	1.57
291.808	1.15
292.022	1.26
292.235	1.59
292.448	1.69
292.661	1.64
292.875	1.44
293.088	1.61
293.301	1.72
293.514	1.57
293.727	1.65
293.94	2.05
294.153	2.12
294.367	2.3
294.58	2.22
294.793	2.51
295.006	2.42
295.219	2.63
295.432	2.13
295.645	2.18
295.858	2.24
296.071	2.56
296.284	2.5
296.497	2.59
296.71	2.58
296.923	2.26
297.136	2.61
297.349	2.7
297.562	2.65
297.775	3.19
297.988	3.15
298.201	3.3
298.414	3.28
298.626	3.56
298.839	3.53
299.052	3.38
299.265	3.58
299.478	3.07
299.691	3.39
299.903	3.53
300.116	3.47
300.329	3.6
300.542	3.69
300.755	3.45
300.967	2.9
301.18	3.09
301.393	3.4
301.605	3.36
301.818	3.41
302.031	3.3
302.243	3.31
302.456	3.28
302.669	3.21
302.881	3.32
303.094	3.71
303.307	3.93
303.519	4.06
303.732	3.85
303.944	4.26
304.157	4.71
304.37	4.38
304.582	4.41
304.795	4.78
305.007	4.94
305.22	4.83
305.432	4.6
305.645	4.98
305.857	4.98
306.069	5.27
306.282	4.95
306.494	4.26
306.707	4.41
306.919	4.41
307.132	4.29
307.344	4.14
307.556	4.07
307.769	4.56
307.981	4.24
308.193	4.32
308.406	4.43
308.618	4.63
308.83	4.74
309.043	4.87
309.255	4.95
309.467	4.93
309.679	4.66
309.892	4.97
310.104	4.9
310.316	4.93
310.528	4.73
310.74	4.46
310.953	4.65
311.165	4.89
311.377	5.07
311.589	4.92
311.801	4.66
312.013	5
312.225	4.99
312.437	4.68
312.649	4.76
312.862	4.81
313.074	4.87
313.286	5.04
313.498	5.13
313.71	4.84
313.922	5.07
314.134	5.19
314.346	4.95
314.558	4.62
314.77	5.07
314.982	4.79
315.193	5.03
315.405	5.26
315.617	4.89
315.829	4.6
316.041	4.37
316.253	4.33
316.465	4.46
316.677	4.77
316.888	4.8
317.1	5.1
317.312	5.33
317.524	5.25
317.736	5.06
317.947	5.09
318.159	5.64
318.371	5.94
318.583	6.11
318.794	6.13
319.006	6.08
319.218	5.98
319.43	5.87
319.641	5.83
319.853	6.24
320.064	6.37
320.276	6.34
320.488	6.11
320.699	6.56
320.911	6.56
321.123	6.97
321.334	6.79
321.546	7.46
321.757	6.96
321.969	7.56
322.18	7.22
322.392	7.08
322.603	7.26
322.815	6.74
323.026	6.57
323.238	6.56
323.449	6.36
323.661	6.65
323.872	6.57
324.083	6.68
324.295	6.45
324.506	6.39
324.718	6.54
324.929	6.37
325.14	6.78
325.352	7.11
325.563	7.04
325.774	7.05
325.986	7.12
326.197	7.27
326.408	7.73
326.62	8.17
326.831	8.22
327.042	8.18
327.253	8.25
327.464	8.38
327.676	8.13
327.887	8.53
328.098	8.66
328.309	8.78
328.52	8.51
328.732	8.3
328.943	8.24
329.154	8.62
329.365	8.99
329.576	9.36
329.787	9.41
329.998	9.31
330.209	9.39
330.42	9.36
330.631	9.28
330.842	9.86
331.053	9.99
331.264	9.89
331.475	9.56
331.686	9.71
331.897	9.5
332.108	9.83
332.319	10.21
332.53	10.05
332.741	10.08
332.952	10.41
333.163	10.29
333.374	10.46
333.585	10.53
333.795	11.01
334.006	10.95
334.217	11.23
334.428	11.04
334.639	11.14
334.849	11.22
335.06	11.32
335.271	11.23
335.482	11.06
335.692	11.42
335.903	11.38
336.114	11.28
336.325	11.75
336.535	11.67
336.746	11.75
336.957	11.47
337.167	11.54
337.378	11.77
337.589	11.66
337.799	11.66
338.01	11.72
338.22	11.77
338.431	11.84
338.642	11.45
338.852	11.45
339.063	11.6
339.273	11.85
339.484	11.97
339.694	11.77
339.905	11.65
340.115	11.84
340.326	11.21
340.536	11.34
340.746	11.14
340.957	11.34
341.167	11.61
341.378	11.36
341.588	11.12
341.799	10.93
342.009	11.04
342.219	11.17
342.43	11.22
342.64	11.07
342.85	10.93
343.061	11.08
343.271	10.67
343.481	10.28
343.691	10.28
343.902	10.14
344.112	10.29
344.322	10.4
344.532	10.36
344.743	10.03
344.953	10.37
345.163	10.23
345.373	10.23
345.583	10.2
345.793	10.56
346.004	10.63
346.214	10.82
346.424	10.64
346.634	10.55
346.844	10.65
347.054	10.79
347.264	10.9
347.474	10.86
347.684	10.74
347.894	10.86
348.104	10.83
348.314	10.74
348.524	10.76
348.734	10.79
348.944	10.69
349.154	10.78
349.364	10.81
349.574	10.46
349.784	10.71
349.994	10.59
350.204	10.43
350.413	10.27
350.623	10.2
350.833	10.19
351.043	9.84
351.253	9.9
351.463	9.9
351.672	10.05
351.882	10.32
352.092	10.04
352.302	10.19
352.511	10.72
352.721	10.52
352.931	10.51
353.141	10.72
353.35	10.99
353.56	10.92
353.77	10.47
353.979	10.26
354.189	10.29
354.399	10.31
354.608	10.24
354.818	10.26
355.027	10.42
355.237	10.48
355.447	10.55
355.656	10.55
355.866	10.39
356.075	10.52
356.285	10.49
356.494	10.44
356.704	10.57
356.913	10.87
357.123	10.66
357.332	10.29
357.542	10.44
357.751	10.16
357.96	10.36
358.17	10.44
358.379	10.57
358.589	10.64
358.798	10.53
359.007	10.58
359.217	10.3
359.426	10.2
359.635	10.67
359.845	10.69
360.054	10.69
360.263	10.32
360.472	10.46
360.682	10.78
360.891	10.84
361.1	10.64
361.309	10.54
361.519	10.35
361.728	10.38
361.937	10.35
362.146	10.3
362.355	10.24
362.564	10.38
362.774	10.29
362.983	10.07
363.192	10.04
363.401	10.48
363.61	10.5
363.819	10.74
364.028	10.68
364.237	10.47
364.446	10.42
364.655	10.4
364.864	10.45
365.073	10.28
365.282	10.04
365.491	9.85
365.7	9.38
365.909	9.35
366.118	9.22
366.327	9.17
366.536	9.23
366.745	9.19
366.954	9.49
367.162	9.4
367.371	9.56
367.58	9.5
367.789	9.4
367.998	9.72
368.207	9.59
368.415	9.86
368.624	9.76
368.833	9.73
369.042	9.66
369.25	9.55
369.459	9.54
369.668	9.73
369.877	10.03
370.085	10.05
370.294	10.02
370.503	10.15
370.711	9.9
370.92	10.01
371.129	10.18
371.337	9.93
371.546	9.67
371.754	9.59
371.963	9.26
372.171	9.08
372.38	9.35
372.589	9.17
372.797	9.02
373.006	8.73
373.214	8.76
373.423	8.56
373.631	8.77
373.84	8.86
374.048	9.05
374.256	9.2
374.465	9.06
374.673	8.8
374.882	8.62
375.09	8.5
375.298	8.53
375.507	8.28
375.715	8.16
375.923	8.11
376.132	8.15
376.34	7.93
376.548	7.82
376.757	8.01
376.965	7.9
377.173	7.84
377.381	7.9
377.59	8.2
377.798	8.36
378.006	8.25
378.214	8.46
378.423	8.37
378.631	8.49
378.839	8.58
379.047	8.54
379.255	8.62
379.463	8.82
379.671	8.85
379.879	8.47
380.088	8.42
380.296	8.62
380.504	8.35
380.712	8.17
380.92	7.84
381.128	7.66
381.336	7.61
381.544	7.47
381.752	7.18
381.96	7.07
382.168	7.43
382.376	7.42
382.584	7.28
382.791	7.23
382.999	7.17
383.207	7.16
383.415	7.24
383.623	7.19
383.831	7.22
384.039	7.56
384.247	7.61
384.454	7.3
384.662	7.08
384.87	7.07
385.078	7.12
385.285	7.34
385.493	7.33
385.701	7.34
385.909	7.27
386.116	7.38
386.324	7.28
386.532	7.29
386.739	7.45
386.947	7.51
387.155	7.62
387.362	7.79
387.57	7.55
387.778	7.65
387.985	7.7
388.193	7.57
388.4	7.51
388.608	7.37
388.816	7.19
389.023	7.28
389.231	7.2
389.438	7.13
389.646	6.93
389.853	7.14
390.061	7.24
390.268	7.08
390.475	7.35
390.683	7.32
390.89	7.37
391.098	7.59
391.305	7.41
391.512	7.57
391.72	7.5
391.927	7.65
392.135	7.46
392.342	7.27
392.549	7.21
392.756	7.19
392.964	7.19
393.171	7.1
393.378	6.97
393.586	7.03
393.793	7.08
394	7.15
394.207	7.15
394.414	7.19
394.622	7.08
394.829	7.05
395.036	6.76
395.243	6.64
395.45	6.57
395.657	6.57
395.864	6.54
396.072	6.35
396.279	6.37
396.486	6.17
396.693	6.07
396.9	6.05
397.107	6.08
397.314	6.15
397.521	6.45
397.728	6.46
397.935	6.18
398.142	6.13
398.349	6.25
398.556	6.22
398.763	6.2
398.97	6.39
399.177	6.56
399.383	6.47
399.59	6.48
399.797	6.26
400.004	6.33
400.211	6.59
400.418	6.74
400.625	6.8
400.831	6.76
401.038	6.83
401.245	6.77
401.452	6.75
401.658	6.89
401.865	7
402.072	7.01
402.279	7.09
402.485	7.12
402.692	6.98
402.899	6.91
403.105	7.08
403.312	6.98
403.519	7.04
403.725	7.07
403.932	6.9
404.138	6.89
404.345	7.04
404.552	6.93
404.758	6.9
404.965	6.95
405.171	6.96
405.378	6.93
405.584	6.98
405.791	6.96
405.997	6.96
406.204	7.22
406.41	7.27
406.617	7.08
406.823	7.27
407.029	7.21
407.236	7.3
407.442	7.24
407.649	7.1
407.855	7.07
408.061	6.88
408.268	6.9
408.474	6.73
408.68	6.64
408.887	6.86
409.093	6.78
409.299	6.96
409.505	6.81
409.712	6.73
409.918	6.74
410.124	6.87
410.33	6.98
410.537	7.03
410.743	7.17
410.949	7.23
411.155	7.02
411.361	6.9
411.567	6.74
411.773	6.66
411.98	6.62
412.186	6.65
412.392	6.52
412.598	6.4
412.804	6.32
413.01	6.32
413.216	6.4
413.422	6.35
413.628	6.49
413.834	6.54
414.04	6.65
414.246	6.69
414.452	6.69
414.658	6.79
414.864	6.9
415.07	6.99
415.275	6.85
415.481	6.79
415.687	6.78
415.893	6.81
416.099	6.86
416.305	6.99
416.511	6.95
416.716	7
416.922	6.91
417.128	7
417.334	7
417.539	7.09
417.745	7
417.951	7.06
418.157	6.95
418.362	6.93
418.568	6.86
418.774	6.93
418.979	6.97
419.185	6.99
419.391	6.99
419.596	7.02
419.802	6.99
420.008	7.01
420.213	7.67
420.419	7.66
420.624	7.7
420.83	7.62
421.035	7.62
421.241	7.57
421.446	7.61
421.652	7.53
421.857	7.49
422.063	7.52
422.268	7.56
422.474	6.93
422.679	6.97
422.885	6.91
423.09	7
423.295	7.04
423.501	6.99
423.706	7
423.911	7.01
424.117	6.94
424.322	6.9
424.527	6.97
424.733	7.02
424.938	7.01
425.143	7
425.349	6.97
425.554	6.92
425.759	6.99
425.964	7.02
426.169	7.08
426.375	7.13
426.58	7.17
426.785	7.08
426.99	7.11
427.195	7.12
427.4	7.2
427.605	7.18
427.811	7.29
428.016	7.22
428.221	7.15
428.426	7.13
428.631	7.2
428.836	7.12
429.041	7.05
429.246	7.12
429.451	7.21
429.656	7.06
429.861	7.14
430.066	7.1
430.271	7.17
430.476	7.17
430.681	7.18
430.886	7.2
431.09	7.19
431.295	7.26
431.5	7.18
431.705	7.04
431.91	7.17
432.115	7.2
432.32	7.25
432.524	7.23
432.729	7.19
432.934	7.22
433.139	7.17
433.343	7.22
433.548	7.23
433.753	7.26
433.958	7.34
434.162	7.42
434.367	7.37
434.572	7.3
434.776	7.41
434.981	7.49
435.186	7.5
435.39	7.55
435.595	7.55
435.799	7.55
436.004	7.59
436.209	7.57
436.413	7.51
436.618	7.56
436.822	7.67
437.027	7.6
437.231	7.54
437.436	7.46
437.64	7.5
437.845	7.54
438.049	7.48
438.253	7.38
438.458	7.56
438.662	7.56
438.867	7.5
439.071	7.44
439.275	7.38
439.48	7.41
439.684	7.46
439.888	7.46
440.093	7.43
440.297	7.45
440.501	7.47
440.706	7.4
440.91	7.43
441.114	7.55
441.318	7.54
441.523	7.63
441.727	7.66
441.931	7.69
442.135	7.67
442.339	7.8
442.543	7.79
442.748	7.86
442.952	7.84
443.156	7.74
443.36	7.67
443.564	7.69
443.768	7.6
443.972	7.59
444.176	7.58
444.38	7.54
444.584	7.47
444.788	7.52
444.992	7.51
445.196	7.5
445.4	7.58
445.604	7.55
445.808	7.58
446.012	7.56
446.216	7.59
446.42	7.61
446.624	7.67
446.828	7.65
447.032	7.67
447.235	7.65
447.439	7.72
447.643	7.69
447.847	7.69
448.051	7.68
448.254	7.7
448.458	7.64
448.662	7.65
448.866	7.59
449.069	7.68
449.273	7.68
449.477	7.72
449.681	7.68
449.884	7.75
450.088	7.74
450.292	7.75
450.495	7.71
450.699	7.71
450.902	7.7
451.106	7.74
451.31	7.53
451.513	7.47
451.717	7.43
451.92	7.41
452.124	7.23
452.327	7.21
452.531	7.22
452.734	7.3
452.938	7.32
453.141	7.25
453.345	7.1
453.548	7.25
453.752	7.24
453.955	7.26
454.158	7.25
454.362	7.29
454.565	7.34
454.769	7.34
454.972	7.23
455.175	7.16
455.379	7.21
455.582	7.38
455.785	7.26
455.988	7.32
456.192	7.25
456.395	7.24
456.598	7.26
456.801	7.33
457.005	7.33
457.208	7.43
457.411	7.47
457.614	7.46
457.817	7.41
458.021	7.45
458.224	7.46
458.427	7.51
458.63	7.51
458.833	7.56
459.036	7.51
459.239	7.55
459.442	7.56
459.645	7.58
459.848	7.61
460.051	7.55
460.254	7.57
460.457	7.59
460.66	7.59
460.863	7.54
461.066	7.56
461.269	7.6
461.472	7.5
461.675	7.49
461.878	7.44
462.081	7.31
462.284	7.43
462.486	7.41
462.689	7.34
462.892	7.3
463.095	7.43
463.298	7.34
463.5	7.25
463.703	7.35
463.906	7.44
464.109	7.49
464.311	7.57
464.514	7.51
464.717	7.51
464.92	7.47
465.122	7.5
465.325	7.44
465.528	7.44
465.73	7.6
465.933	7.55
466.135	7.42
466.338	7.5
466.541	7.53
466.743	7.52
466.946	7.52
467.148	7.6
467.351	7.57
467.553	7.59
467.756	7.63
467.958	7.52
468.161	7.55
468.363	7.5
468.566	7.36
468.768	7.37
468.971	7.39
469.173	7.38
469.375	7.43
469.578	7.38
469.78	7.33
469.983	7.26
470.185	7.29
470.387	7.3
470.59	7.39
470.792	7.45
470.994	7.41
471.196	7.44
471.399	7.43
471.601	7.42
471.803	7.5
472.005	7.46
472.208	7.56
472.41	7.54
472.612	7.54
472.814	7.57
473.016	7.58
473.218	7.63
473.421	7.72
473.623	7.7
473.825	7.64
474.027	7.52
474.229	7.53
474.431	7.55
474.633	7.52
474.835	7.47
475.037	7.51
475.239	7.56
475.441	7.48
475.643	7.37
475.845	7.35
476.047	7.4
476.249	7.55
476.451	7.64
476.653	7.55
476.855	7.56
477.057	7.66
477.258	7.63
477.46	7.58
477.662	7.61
477.864	7.55
478.066	7.61
478.268	7.54
478.469	7.53
478.671	7.51
478.873	7.54
479.075	7.59
479.276	7.52
479.478	7.5
479.68	7.51
479.882	7.55
480.083	7.6
480.285	7.59
480.487	7.68
480.688	7.65
480.89	7.69
481.091	7.68
481.293	7.7
481.495	7.77
481.696	7.82
481.898	7.81
482.099	7.8
482.301	7.79
482.502	7.74
482.704	7.73
482.905	7.74
483.107	7.73
483.308	7.72
483.51	7.69
483.711	7.67
483.913	7.66
484.114	7.63
484.315	7.61
484.517	7.63
484.718	7.68
484.92	7.66
485.121	7.66
485.322	7.63
485.524	7.64
485.725	7.64
485.926	7.62
486.127	7.62
486.329	7.67
486.53	7.68
486.731	7.66
486.932	7.64
487.134	7.65
487.335	7.64
487.536	7.64
487.737	7.68
487.938	7.68
488.139	7.68
488.341	7.67
488.542	7.66
488.743	7.7
488.944	7.69
489.145	7.71
489.346	7.69
489.547	7.68
489.748	7.68
489.949	7.62
490.15	7.67
490.351	7.72
490.552	7.71
490.753	7.7
490.954	7.68
491.155	7.7
491.356	7.7
491.557	7.75
491.758	7.79
491.959	7.81
492.159	7.83
492.36	7.79
492.561	7.75
492.762	7.76
492.963	7.69
493.164	7.73
493.364	7.71
493.565	7.65
493.766	7.57
493.967	7.57
494.167	7.51
494.368	7.5
494.569	7.53
494.769	7.58
494.97	7.63
495.171	7.77
495.371	7.72
495.572	7.73
495.773	7.83
495.973	7.92
496.174	7.9
496.375	7.91
496.575	8
496.776	7.98
496.976	7.95
497.177	7.94
497.377	7.95
497.578	7.95
497.778	7.89
497.979	7.96
498.179	7.98
498.38	8.03
498.58	8.08
498.78	8.06
498.981	8.11
499.181	8.14
499.382	8.17
499.582	8.18
499.782	8.17
499.983	8.35
500.183	8.26
500.383	8.22
500.584	8.08
500.784	8.16
500.984	8.18
501.184	8.16
501.385	8.14
501.585	8.13
501.785	8.06
501.985	8.19
502.185	8.09
502.386	8.1
502.586	8.18
502.786	8.29
502.986	8.25
503.186	8.31
503.386	8.24
503.586	8.23
503.786	8.24
503.987	8.27
504.187	8.17
504.387	8.26
504.587	8.28
504.787	8.24
504.987	8.27
505.187	8.34
505.387	8.34
505.587	8.46
505.786	8.49
505.986	8.61
506.186	8.69
506.386	8.76
506.586	8.77
506.786	8.82
506.986	8.87
507.186	8.88
507.386	8.89
507.585	8.86
507.785	8.82
507.985	8.96
508.185	8.95
508.384	8.93
508.584	9.02
508.784	9.08
508.984	9.09
509.183	9.07
509.383	9.13
509.583	9.15
509.782	9.21
509.982	9.33
510.182	9.3
510.381	9.26
510.581	9.33
510.781	9.3
510.98	9.31
511.18	9.42
511.379	9.52
511.579	9.5
511.778	9.57
511.978	9.63
512.177	9.68
512.377	9.67
512.576	9.8
512.776	9.78
512.975	9.8
513.175	9.81
513.374	9.79
513.573	9.78
513.773	9.88
513.972	9.87
514.172	9.87
514.371	9.85
514.57	9.92
514.77	9.94
514.969	9.98
515.168	10.05
515.367	10.1
515.567	10.15
515.766	10.28
515.965	10.28
516.164	10.24
516.364	10.28
516.563	10.35
516.762	10.49
516.961	10.49
517.16	10.6
517.359	10.7
517.559	10.82
517.758	10.88
517.957	10.95
518.156	11
518.355	11.13
518.554	11.2
518.753	11.26
518.952	11.33
519.151	11.42
519.35	11.49
519.549	11.55
519.748	11.61
519.947	11.6
520.146	11.62
520.345	11.71
520.544	11.8
520.743	11.9
520.942	11.99
521.141	12
521.339	12.1
521.538	12.14
521.737	12.17
521.936	12.14
522.135	12.34
522.333	12.46
522.532	12.5
522.731	12.6
522.93	12.67
523.129	12.71
523.327	12.81
523.526	12.87
523.725	12.94
523.923	13.01
524.122	13.15
524.321	13.19
524.519	13.22
524.718	13.35
524.917	13.45
525.115	13.56
525.314	13.68
525.512	13.77
525.711	13.89
525.909	14.02
526.108	14.16
526.306	14.22
526.505	14.32
526.703	14.49
526.902	14.58
527.1	14.6
527.299	14.67
527.497	14.75
527.696	14.81
527.894	14.87
528.092	14.95
528.291	15.02
528.489	15.1
528.688	15.17
528.886	15.19
529.084	15.22
529.283	15.33
529.481	15.37
529.679	15.43
529.877	15.5
530.076	15.58
530.274	15.6
530.472	15.68
530.67	15.78
530.869	15.89
531.067	16.02
531.265	16.18
531.463	16.22
531.661	16.37
531.859	16.48
532.057	16.58
532.255	16.7
532.454	16.87
532.652	16.98
532.85	17.02
533.048	17.1
533.246	17.17
533.444	17.22
533.642	17.31
533.84	17.38
534.038	17.48
534.236	17.57
534.434	17.6
534.632	17.63
534.83	17.71
535.027	17.86
535.225	17.96
535.423	18.06
535.621	18.14
535.819	18.34
536.017	18.43
536.215	18.52
536.412	18.62
536.61	18.76
536.808	18.85
537.006	18.95
537.203	18.98
537.401	19.04
537.599	19.14
537.797	19.25
537.994	19.31
538.192	19.42
538.39	19.54
538.587	19.7
538.785	19.88
538.983	20.06
539.18	20.25
539.378	20.44
539.575	20.72
539.773	20.87
539.97	21.12
540.168	21.23
540.366	21.45
540.563	21.62
540.761	21.78
540.958	21.87
541.155	22.03
541.353	22.13
541.55	22.24
541.748	22.31
541.945	22.43
542.143	22.46
542.34	22.59
542.537	22.62
542.735	22.76
542.932	22.88
543.129	23.05
543.327	23.19
543.524	23.42
543.721	23.7
543.919	23.98
544.116	24.31
544.313	24.74
544.51	25.09
544.708	25.44
544.905	25.73
545.102	26.02
545.299	26.27
545.496	26.52
545.693	26.63
545.891	26.69
546.088	26.65
546.285	26.55
546.482	26.37
546.679	26.25
546.876	26.11
547.073	25.96
547.27	25.7
547.467	25.61
547.664	25.4
547.861	25.35
548.058	25.17
548.255	25.17
548.452	25.11
548.649	25.09
548.846	25.03
549.043	25.08
549.24	25.07
549.437	25.17
549.633	25.07
549.83	25.06
550.027	24.97
550.224	24.92
550.421	24.86
550.618	24.77
550.814	24.77
551.011	24.71
551.208	24.56
551.405	24.46
551.601	24.39
551.798	24.35
551.995	24.38
552.191	24.36
552.388	24.42
552.585	24.39
552.781	24.41
552.978	24.35
553.175	24.35
553.371	24.39
553.568	24.4
553.764	24.36
553.961	24.28
554.157	24.27
554.354	24.21
554.55	24.1
554.747	24.09
554.943	24.04
555.14	23.99
555.336	23.92
555.533	24.03
555.729	24.11
555.926	24.1
556.122	24.09
556.318	24.09
556.515	24.15
556.711	24.2
556.907	24.23
557.104	24.33
557.3	24.43
557.496	24.56
557.693	24.42
557.889	24.23
558.085	24.34
558.281	24.48
558.478	24.33
558.674	24.42
558.87	24.48
559.066	24.5
559.262	24.43
559.459	24.47
559.655	24.51
559.851	24.58
560.047	24.68
560.243	24.75
560.439	24.69
560.635	24.85
560.831	24.69
561.027	24.56
561.223	24.58
561.419	24.64
561.615	24.54
561.811	24.43
562.007	24.42
562.203	24.4
562.399	24.34
562.595	24.48
562.791	24.47
562.987	24.65
563.183	24.79
563.379	24.86
563.575	25.02
563.771	25.06
563.966	25.13
564.162	25.13
564.358	25.25
564.554	25.29
564.75	25.22
564.945	25.22
565.141	25.18
565.337	25.17
565.533	25.11
565.728	25
565.924	25.04
566.12	25.11
566.315	25.16
566.511	25.12
566.707	25.16
566.902	25.17
567.098	25.21
567.293	25.2
567.489	25.21
567.684	25.3
567.88	25.31
568.076	25.38
568.271	25.39
568.467	25.45
568.662	25.54
568.858	25.54
569.053	25.52
569.248	25.48
569.444	25.51
569.639	25.49
569.835	25.4
570.03	25.48
570.225	25.51
570.421	25.38
570.616	25.3
570.812	25.36
571.007	25.39
571.202	25.46
571.397	25.5
571.593	25.55
571.788	25.66
571.983	25.77
572.178	25.75
572.374	25.67
572.569	25.86
572.764	25.91
572.959	25.88
573.154	25.82
573.35	25.76
573.545	25.87
573.74	25.83
573.935	25.86
574.13	25.93
574.325	26
574.52	26.11
574.715	26.12
574.91	26.17
575.105	26.27
575.3	26.35
575.495	26.56
575.69	26.62
575.885	26.8
576.08	26.86
576.275	26.92
576.47	27.05
576.665	27.11
576.86	27.28
577.055	27.41
577.25	27.49
577.444	27.72
577.639	27.8
577.834	27.78
578.029	27.81
578.224	27.93
578.418	28
578.613	28.06
578.808	28.18
579.003	28.1
579.197	28.28
579.392	28.28
579.587	28.23
579.781	28.21
579.976	28.25
580.171	28.31
580.365	28.11
580.56	27.97
580.755	27.84
580.949	27.82
581.144	27.9
581.338	27.71
581.533	27.75
581.727	27.81
581.922	27.94
582.116	28.05
582.311	28
582.505	28.23
582.7	28.36
582.894	28.58
583.089	28.73
583.283	28.77
583.478	28.95
583.672	28.87
583.866	28.85
584.061	28.77
584.255	28.6
584.449	28.63
584.644	28.69
584.838	28.86
585.032	28.86
585.226	28.78
585.421	28.95
585.615	29.01
585.809	29.17
586.003	29.35
586.198	29.49
586.392	29.56
586.586	29.71
586.78	29.8
586.974	29.68
587.168	29.71
587.363	29.76
587.557	29.46
587.751	29.3
587.945	29.27
588.139	29.08
588.333	28.93
588.527	28.97
588.721	28.82
588.915	28.59
589.109	28.59
589.303	28.45
589.497	28.47
589.691	28.61
589.885	28.7
590.079	28.78
590.273	28.86
590.466	29.03
590.66	29.06
590.854	29.28
591.048	29.57
591.242	29.73
591.436	30.07
591.629	30.08
591.823	30.16
592.017	30.13
592.211	30.06
592.404	30.17
592.598	30.18
592.792	30.34
592.986	30.33
593.179	30.27
593.373	30.16
593.567	29.97
593.76	29.92
593.954	29.78
594.147	29.78
594.341	29.63
594.535	29.47
594.728	29.26
594.922	29.14
595.115	28.94
595.309	28.84
595.502	28.8
595.696	28.73
595.889	28.72
596.083	28.71
596.276	28.63
596.47	28.75
596.663	28.79
596.856	28.86
597.05	28.7
597.243	28.77
597.437	28.82
597.63	28.89
597.823	28.97
598.017	29.03
598.21	29.14
598.403	29.29
598.596	29.27
598.79	29.41
598.983	29.42
599.176	29.61
599.369	29.62
599.563	29.66
599.756	29.59
599.949	29.45
600.142	29.46
600.335	29.43
600.528	29.32
600.722	29.21
600.915	28.92
601.108	28.93
601.301	28.93
601.494	28.92
601.687	28.77
601.88	28.75
602.073	28.73
602.266	28.59
602.459	28.48
602.652	28.43
602.845	28.46
603.038	28.53
603.231	28.53
603.424	28.53
603.617	28.44
603.809	28.52
604.002	28.55
604.195	28.62
604.388	28.68
604.581	28.79
604.774	28.87
604.966	28.91
605.159	28.99
605.352	28.96
605.545	29.02
605.737	29.08
605.93	29.09
606.123	29.19
606.316	29.24
606.508	29.25
606.701	29.32
606.894	29.54
607.086	29.76
607.279	30
607.471	30.3
607.664	30.66
607.857	31.08
608.049	31.51
608.242	31.99
608.434	32.76
608.627	33.84
608.819	34.91
609.012	36.14
609.204	37.54
609.397	38.88
609.589	40.45
609.782	41.98
609.974	43.75
610.166	45.52
610.359	47.29
610.551	48.95
610.743	50.19
610.936	51.34
611.128	52.16
611.32	52.68
611.513	53.02
611.705	53.1
611.897	53.01
612.09	52.32
612.282	51.6
612.474	50.58
612.666	49.38
612.858	48.48
613.051	47.51
613.243	46.4
613.435	45.56
613.627	44.69
613.819	43.97
614.011	43.13
614.203	42.37
614.395	41.7
614.588	40.95
614.78	40.15
614.972	39.16
615.164	38.35
615.356	37.67
615.548	37.01
615.74	36.42
615.932	35.73
616.124	35.15
616.315	34.8
616.507	34.23
616.699	33.87
616.891	33.56
617.083	33.29
617.275	32.89
617.467	32.55
617.659	32.05
617.85	31.79
618.042	31.67
618.234	31.58
618.426	31.38
618.618	31.15
618.809	30.82
619.001	30.78
619.193	30.88
619.384	30.85
619.576	30.95
619.768	31.06
619.959	31.08
620.151	31.02
620.343	30.89
620.534	30.9
620.726	30.83
620.917	31.22
621.109	31.16
621.301	31.2
621.492	31.2
621.684	31.23
621.875	31.33
622.067	31.16
622.258	31.21
622.45	31.18
622.641	31.3
622.832	31.49
623.024	31.41
623.215	31.64
623.407	31.71
623.598	31.86
623.789	31.83
623.981	31.85
624.172	31.93
624.363	31.92
624.555	32.21
624.746	32.13
624.937	32.09
625.129	32.06
625.32	31.94
625.511	31.9
625.702	31.88
625.893	31.92
626.085	31.85
626.276	31.94
626.467	31.8
626.658	31.6
626.849	31.48
627.04	31.45
627.231	31.39
627.422	31.42
627.614	31.35
627.805	31.36
627.996	31.39
628.187	31.41
628.378	31.49
628.569	31.58
628.76	31.76
628.951	32.07
629.142	32.34
629.332	32.69
629.523	32.89
629.714	33.03
629.905	33.3
630.096	33.45
630.287	33.66
630.478	33.71
630.669	33.76
630.859	33.48
631.05	33.33
631.241	33.15
631.432	32.69
631.623	32.57
631.813	32.34
632.004	31.88
632.195	31.72
632.385	31.34
632.576	30.98
632.767	30.8
632.957	30.87
633.148	30.72
633.339	30.39
633.529	30.35
633.72	30.16
633.91	30.08
634.101	30.07
634.292	29.97
634.482	30.09
634.673	30.17
634.863	30.21
635.054	29.89
635.244	29.71
635.435	29.85
635.625	29.71
635.815	29.57
636.006	29.47
636.196	29.59
636.387	29.4
636.577	29.33
636.767	29.36
636.958	29.25
637.148	29.32
637.338	29.47
637.529	29.57
637.719	29.76
637.909	29.83
638.099	29.83
638.29	29.83
638.48	29.87
638.67	29.62
638.86	29.35
639.05	29.17
639.241	29.28
639.431	29.11
639.621	29.07
639.811	29.23
640.001	29.18
640.191	29.3
640.381	29.03
640.571	29.15
640.761	29.3
640.951	29.55
641.141	29.66
641.331	29.88
641.521	29.8
641.711	29.79
641.901	29.46
642.091	29.54
642.281	29.35
642.471	29.48
642.661	29.46
642.851	29.79
643.041	29.72
643.231	29.64
643.42	29.46
643.61	29.74
643.8	29.56
643.99	29.7
644.18	29.72
644.369	29.8
644.559	29.73
644.749	29.63
644.939	29.37
645.128	29.46
645.318	29.6
645.508	29.7
645.697	29.64
645.887	29.7
646.076	29.75
646.266	29.57
646.456	29.6
646.645	29.59
646.835	29.65
647.024	29.71
647.214	29.71
647.403	29.85
647.593	29.88
647.782	29.88
647.972	30.22
648.161	30.34
648.351	30.9
648.54	30.95
648.73	31.19
648.919	31.25
649.108	31.43
649.298	31.37
649.487	31.37
649.677	31.41
649.866	31.42
650.055	31.03
650.244	30.93
650.434	30.53
650.623	30.57
650.812	30.54
651.002	30.44
651.191	30.18
651.38	29.99
651.569	29.77
651.758	29.76
651.947	29.88
652.137	30.05
652.326	29.98
652.515	30.05
652.704	30.02
652.893	30.02
653.082	30.11
653.271	30.31
653.46	30.43
653.649	30.62
653.838	30.42
654.027	30.45
654.216	30.45
654.405	30.53
654.594	30.63
654.783	30.46
654.972	30.39
655.161	30.3
655.35	30.2
655.539	30.14
655.728	29.85
655.916	29.94
656.105	29.74
656.294	29.73
656.483	29.69
656.672	29.53
656.86	29.73
657.049	29.53
657.238	29.71
657.427	29.8
657.615	30.05
657.804	30.16
657.993	29.92
658.181	29.93
658.37	29.85
658.559	29.83
658.747	29.81
658.936	29.6
659.125	29.7
659.313	29.7
659.502	29.62
659.69	29.52
659.879	29.48
660.067	29.71
660.256	29.81
660.444	29.92
660.633	30.13
660.821	30.05
661.01	30.39
661.198	30.67
661.387	30.66
661.575	30.67
661.763	30.79
661.952	30.91
662.14	30.76
662.328	30.67
662.517	30.58
662.705	30.21
662.893	30.42
663.082	30.22
663.27	29.84
663.458	29.86
663.646	29.91
663.834	29.59
664.023	29.52
664.211	29.8
664.399	29.79
664.587	29.92
664.775	29.95
664.963	29.98
665.152	30.1
665.34	30.44
665.528	30.3
665.716	30.16
665.904	30.29
666.092	30.44
666.28	30.16
666.468	30.25
666.656	30.15
666.844	30.09
667.032	30.13
667.22	30.14
667.408	29.68
667.596	29.69
667.784	29.86
667.971	29.88
668.159	29.85
668.347	30.1
668.535	30.02
668.723	29.91
668.911	29.96
669.098	29.82
669.286	29.65
669.474	29.89
669.662	29.73
669.849	29.72
670.037	29.75
670.225	29.79
670.413	29.78
670.6	29.66
670.788	29.58
670.976	29.55
671.163	29.52
671.351	29.64
671.538	29.65
671.726	29.44
671.913	29.43
672.101	29.23
672.289	29.47
672.476	29.16
672.664	29.34
672.851	29.51
673.039	29.77
673.226	29.83
673.413	29.78
673.601	29.72
673.788	30
673.976	29.78
674.163	30.14
674.35	29.94
674.538	30.08
674.725	30.02
674.912	30.1
675.1	30.14
675.287	30.3
675.474	30.12
675.662	30.35
675.849	30.32
676.036	30.62
676.223	30.31
676.411	30
676.598	30.19
676.785	30.01
676.972	30.05
677.159	29.9
677.346	29.8
677.533	29.92
677.721	29.7
677.908	29.97
678.095	29.93
678.282	30.13
678.469	30.32
678.656	30.36
678.843	30.56
679.03	30.56
679.217	30.71
679.404	30.8
679.591	30.65
679.778	30.72
679.964	30.65
680.151	30.62
680.338	30.58
680.525	30.61
680.712	30.46
680.899	30.56
681.086	30.74
681.272	30.62
681.459	30.45
681.646	30.51
681.833	30.52
682.02	30.5
682.206	30.4
682.393	30.42
682.58	30.31
682.766	30.41
682.953	30.33
683.14	30
683.326	30.13
683.513	29.96
683.7	30.01
683.886	30.12
684.073	30.23
684.259	30.57
684.446	30.49
684.632	30.75
684.819	30.68
685.005	30.92
685.192	30.96
685.378	30.77
685.565	31.22
685.751	31.36
685.938	31.63
686.124	31.73
686.31	31.43
686.497	31.88
686.683	32.03
686.87	32.22
687.056	31.96
687.242	32
687.429	32.03
687.615	31.84
687.801	31.94
687.987	31.7
688.174	31.61
688.36	31.66
688.546	31.41
688.732	31.17
688.918	31.1
689.105	30.95
689.291	31.11
689.477	31.16
689.663	31.3
689.849	31.31
690.035	31.19
690.221	30.93
690.407	30.84
690.593	30.74
690.779	30.75
690.965	30.67
691.151	30.53
691.337	30.3
691.523	30.52
691.709	30.68
691.895	30.61
692.081	30.45
692.267	30.48
692.453	30.66
692.639	30.72
692.825	30.59
693.011	30.52
693.196	30.82
693.382	31.13
693.568	30.85
693.754	30.5
693.94	30.4
694.125	30.7
694.311	30.51
694.497	30.69
694.682	30.53
694.868	30.52
695.054	30.81
695.239	31
695.425	30.54
695.611	30.82
695.796	30.87
695.982	31.06
696.168	30.99
696.353	31.38
696.539	30.81
696.724	30.95
696.91	30.99
697.095	30.89
697.281	30.74
697.466	30.93
697.652	30.82
697.837	30.76
698.023	30.48
698.208	30.61
698.393	30.45
698.579	30.71
698.764	30.66
698.949	30.75
699.135	30.92
699.32	30.85
699.505	30.94
699.691	30.97
699.876	31.08
700.061	31.19
700.246	30.8
700.432	30.95
700.617	30.77
700.802	30.72
700.987	30.64
701.172	30.28
701.358	30.5
701.543	30.05
701.728	29.95
701.913	29.71
702.098	29.72
702.283	29.87
702.468	29.86
702.653	30.2
702.838	30.13
703.023	30.24
703.208	30.64
703.393	30.52
703.578	30.77
703.763	31
703.948	31.51
704.133	31.77
704.318	32.11
704.503	32.02
704.688	32.17
704.873	32.59
705.057	33.21
705.242	33.38
705.427	33.44
705.612	34.06
705.797	34.2
705.981	34.22
706.166	34.39
706.351	34.85
706.536	35.36
706.72	35.46
706.905	35.89
707.09	35.68
707.274	35.7
707.459	35.9
707.644	35.63
707.828	35.59
708.013	36.12
708.197	36.08
708.382	36.12
708.567	35.99
708.751	35.83
708.936	35.56
709.12	35.26
709.305	35.14
709.489	35.52
709.673	35.51
709.858	35.75
710.042	35.38
710.227	35.6
710.411	35.14
710.596	35.26
710.78	35.03
710.964	35.42
711.149	35.44
711.333	35.53
711.517	35.07
711.702	35.09
711.886	34.94
712.07	34.72
712.254	34.43
712.438	34.3
712.623	34.15
712.807	33.88
712.991	33.17
713.175	32.91
713.359	32.62
713.544	32.45
713.728	32.08
713.912	31.55
714.096	31.53
714.28	31.45
714.464	31.36
714.648	30.89
714.832	31.03
715.016	31.22
715.2	31.14
715.384	30.9
715.568	30.96
715.752	31.17
715.936	31.17
716.12	31.19
716.304	31.13
716.488	31.11
716.671	31.2
716.855	31.31
717.039	31.11
717.223	31.13
717.407	30.96
717.59	30.44
717.774	30.34
717.958	30.62
718.142	30.13
718.325	30.21
718.509	30.13
718.693	30.26
718.877	30.23
719.06	30.07
719.244	30.24
719.428	30.12
719.611	30.45
719.795	30.33
719.978	30.14
720.162	30.38
720.345	30.3
720.529	30.23
720.713	29.75
720.896	29.83
721.08	30.18
721.263	29.97
721.446	30.1
721.63	30.32
721.813	30.59
721.997	30.6
722.18	30.7
722.364	30.45
722.547	30.77
722.73	31.06
722.914	31.21
723.097	30.61
723.28	30.55
723.464	30.99
723.647	30.8
723.83	30.47
724.013	30.37
724.197	29.79
724.38	29.43
724.563	29.61
724.746	29.99
724.929	29.24
725.112	29.53
725.296	29.64
725.479	29.6
725.662	29.63
725.845	29.72
726.028	29.71
726.211	30.31
726.394	30.56
726.577	30.11
726.76	29.96
726.943	30.48
727.126	30.02
727.309	30.33
727.492	30.41
727.675	30.54
727.858	30.13
728.041	30.35
728.224	30.65
728.407	31.06
728.589	31.45
728.772	31.6
728.955	31.48
729.138	31.75
729.321	31.46
729.503	31.33
729.686	31.68
729.869	32.01
730.052	31.74
730.234	31.59
730.417	31.27
730.6	30.94
730.782	30.67
730.965	30.97
731.148	31.25
731.33	31.25
731.513	31.05
731.695	30.54
731.878	30.75
732.061	31.02
732.243	30.3
732.426	30.53
732.608	30.76
732.791	30.88
732.973	30.3
733.156	30.06
733.338	30.04
733.52	30.14
733.703	30.14
733.885	29.97
734.068	29.93
734.25	30.46
734.432	30.56
734.615	30.62
734.797	30.35
734.979	30.75
735.162	30.82
735.344	30.68
735.526	30.65
735.708	31.27
735.891	30.9
736.073	30.57
736.255	30.6
736.437	29.58
736.619	29.02
736.802	29.21
736.984	29.19
737.166	29.29
737.348	29.35
737.53	29.41
737.712	28.56
737.894	28.87
738.076	29.61
738.258	29.15
738.44	30.16
738.622	30.52
738.804	30.42
738.986	30.26
739.168	30.1
739.35	30.47
739.532	30.43
739.714	31.11
739.896	31.73
740.078	31.18
740.259	31.45
740.441	30.84
740.623	31.29
740.805	31.73
740.987	31.99
741.168	31.85
741.35	31.41
741.532	31.15
741.714	30.94
741.895	30.26
742.077	29.79
742.259	30.04
742.44	30.54
742.622	30.49
742.804	30.28
742.985	30.28
743.167	30.69
743.348	30.88
743.53	30.97
743.711	30.84
743.893	31.01
744.075	31.37
744.256	30.79
744.438	30.62
744.619	29.73
744.8	29.64
744.982	30.08
745.163	30.17
745.345	30.74
745.526	30.71
745.707	30.13
745.889	29.69
746.07	30.05
746.252	29.72
746.433	29.9
746.614	30.13
746.795	29.96
746.977	29.08
747.158	29.34
747.339	28.96
747.52	29.2
747.702	29.59
747.883	29.72
748.064	29.73
748.245	30.1
748.426	30.14
748.607	30.4
748.788	30.5
748.97	30.73
749.151	30.17
749.332	30.17
749.513	30.36
749.694	30.28
749.875	30.34
750.056	30.37
750.237	30.1
750.418	29.42
750.599	29.12
750.78	28.86
750.96	29.11
751.141	28.98
751.322	28.85
751.503	28.6
751.684	28.53
751.865	28.71
752.046	28.55
752.226	28.82
752.407	29.33
752.588	29.5
752.769	29.03
752.949	28.79
753.13	28.84
753.311	28.56
753.492	27.88
753.672	28.07
753.853	28.5
754.034	28.03
754.214	28.7
754.395	28.68
754.575	28.17
754.756	28.84
754.937	28.49
755.117	28.6
755.298	28.89
755.478	29.47
755.659	29.38
755.839	28.79
756.02	29.1
756.2	28.07
756.381	27.94
756.561	28.7
756.741	28.88
756.922	29.02
757.102	29.32
757.283	29.46
757.463	29.49
757.643	29.81
757.823	29.6
758.004	29.2
758.184	30.17
758.364	30.54
758.545	30.53
758.725	30.43
758.905	30.3
759.085	29.75
759.265	29.49
759.446	29.3
759.626	29.25
759.806	29.33
759.986	29.7
760.166	29.09
760.346	28.65
760.526	28.95
760.706	29.34
760.886	29.73
761.066	30.26
761.246	30.42
761.426	31.09
761.606	30.87
761.786	31.27
761.966	31.27
762.146	31.38
762.326	31.64
762.506	30.99
762.686	30.72
762.866	30.75
763.046	30.91
763.225	30.85
763.405	30.23
763.585	30.52
763.765	30.25
763.945	30.24
764.124	30.38
764.304	30.3
764.484	30.58
764.664	30.82
764.843	30.75
765.023	30.19
765.203	30.21
765.382	30.21
765.562	30.02
765.741	30.39
765.921	30.26
766.101	30.25
766.28	29.89
766.46	29.82
766.639	29.51
766.819	29.61
766.998	29.98
767.178	29.63
767.357	30.04
767.537	29.65
767.716	29.17
767.896	28.98
768.075	29.1
768.254	29.22
768.434	29.31
768.613	29.03
768.792	29.29
768.972	29.36
769.151	30.11
769.33	29.57
769.51	30.32
769.689	31.07
769.868	31.45
770.047	31.39
770.226	32.03
770.406	31.94
770.585	31.67
770.764	31.22
770.943	31.71
771.122	31.15
771.301	31.51
771.48	30.99
771.66	30.41
771.839	30.27
772.018	29.91
772.197	28.13
772.376	28.04
772.555	29.38
772.734	29.23
772.913	28.91
773.092	28.99
773.271	28.64
773.449	28.37
773.628	28.91
773.807	29.34
773.986	28.88
774.165	30.1
774.344	30.85
774.523	30.07
774.701	29.98
774.88	30.14
775.059	30.23
775.238	30.4
775.417	30.51
775.595	29.85
775.774	29.29
775.953	30.21
776.131	30.44
776.31	28.75
776.489	27.98
776.667	28.32
776.846	27.23
777.025	27.09
777.203	27.33
777.382	27.06
777.56	27.2
777.739	28.61
777.917	27.85
778.096	27.79
778.274	28.51
778.453	28.38
778.631	28.32
778.81	28.86
778.988	29.33
779.166	28.86
779.345	29.82
779.523	29.27
779.702	27.79
779.88	28.8
780.058	29
780.237	29.5
780.415	30.31
780.593	30.05
780.771	29.9
780.95	29.37
781.128	29.49
781.306	28.83
781.484	28.62
781.662	28.55
781.841	27.56
782.019	26.42
782.197	26.32
782.375	25.99
782.553	26.21
782.731	26.13
782.909	25.92
783.087	26.59
783.265	26.18
783.443	26.73
783.621	27.03
783.799	27.23
783.977	27.9
784.155	27
784.333	27.15
784.511	27.61
784.689	26.94
784.867	26.32
785.045	25.64
785.223	26.5
785.4	27.7
785.578	26.65
785.756	26.58
785.934	26.71
786.112	26.98
786.289	27.07
786.467	25.97
786.645	27.18
786.823	27.32
787	27.77
787.178	26.99
787.356	25.71
787.533	26.86
787.711	26.89
787.889	26.11
788.066	27.28
788.244	27
788.421	27.05
788.599	26.97
788.776	27.61
788.954	27.31
789.131	28
789.309	28
789.486	28.04
789.664	27.71
789.841	27.73
790.019	26.24
790.196	26.23
790.373	26.42
790.551	26.19
790.728	26
790.906	26.83
791.083	26.63
791.26	26.29
791.437	27.15
791.615	27.12
791.792	27.12
791.969	28.24
792.146	28.14
792.324	28.83
792.501	27.32
792.678	27.54
792.855	26.95
793.032	27.12
793.209	28.59
793.387	27.22
793.564	27.89
793.741	28.67
793.918	29.06
794.095	28.82
794.272	28.45
794.449	30.52
794.626	29.66
794.803	29.33
794.98	29.01
795.157	27.95
795.334	27.43
795.511	27.74
795.688	27.72
795.864	27.57
796.041	28.1
796.218	27.33
796.395	26.04
796.572	26.28
796.749	25.98
796.925	25.61
797.102	26.46
797.279	28.04
797.456	27.37
797.632	27.99
797.809	27.71
797.986	27.9
798.162	27.56
798.339	27.41
798.516	27.75
798.692	28.29
798.869	28.69
799.046	28.64
799.222	27.29
799.399	28.14
799.575	27.56
799.752	27.19
799.928	27.32
800.105	27.42
800.281	27.55
800.458	27.26
800.634	27.73
800.811	28.07
800.987	27.21
801.163	27.55
801.34	26.81
801.516	26.27
801.692	26.41
801.869	26.68
802.045	27.22
802.221	27.99
802.398	27.47
802.574	27.76
802.75	27.75
802.926	27.88
803.103	27.62
803.279	27.61
803.455	28.22
803.631	26.94
803.807	26.05
803.983	27
804.16	27.14
804.336	27.89
804.512	27.04
804.688	26.22
804.864	26.8
805.04	26.22
805.216	25.66
805.392	25.54
805.568	26.39
805.744	28.21
805.92	28.72
806.096	29.25
806.272	29.04
806.448	28.96
806.623	29.56
806.799	29.34
806.975	30.73
807.151	29.85
807.327	29.78
807.503	29.2
807.678	27.53
807.854	27.47
808.03	27.15
808.206	28.24
808.381	28.45
808.557	27.8
808.733	26.94
808.908	27.09
809.084	28.65
809.26	28.48
809.435	29.5
809.611	29.68
809.787	29.04
809.962	29.13
810.138	28.18
810.313	28.76
810.489	28.8
810.664	30.42
810.84	29.49
811.015	29.28
811.191	30.23
811.366	29.84
811.542	30.75
811.717	30.78
811.892	30.65
812.068	29.33
812.243	28.14
812.419	28.91
812.594	27.49
812.769	27.86
812.944	27.59
813.12	27.47
813.295	27.78
813.47	26.79
813.645	27.11
813.821	25.74
813.996	28.95
814.171	30.58
814.346	30.59
814.521	31.61
814.697	32.14
814.872	32.67
815.047	32.23
815.222	31.01
815.397	30.69
815.572	29.51
815.747	30.95
815.922	30.07
816.097	29.65
816.272	28.8
816.447	27.2
816.622	25.99
816.797	25.09
816.972	24.43
817.147	24.92
817.322	25.3
817.496	24.15
817.671	24.57
817.846	23.14
818.021	23.57
818.196	23.74
818.371	24.52
818.545	24.43
818.72	25.23
818.895	25.36
819.069	25.46
819.244	26.26
819.419	28.24
819.594	27.8
819.768	28.29
819.943	27.08
820.117	27.64
820.292	27.97
820.467	28.43
820.641	28
820.816	28.52
820.99	28.87
821.165	28.65
821.339	28.31
821.514	28.14
821.688	28.37
821.863	28.37
822.037	28.33
822.212	28.31
822.386	28.09
822.56	28.32
822.735	28.09
822.909	27.98
823.084	27.93
823.258	27.77
823.432	27.55
823.606	27.23
823.781	27.24
823.955	27.22
824.129	27.1
824.303	27.18
824.478	26.8
824.652	26.9
824.826	26.88
825	26.94
825.174	27.03
825.348	27.44
825.523	27.58
825.697	28.1
825.871	27.79
826.045	27.94
826.219	27.62
826.393	27.91
826.567	27.71
826.741	27.53
826.915	27.08
827.089	27.42
827.263	27.82
827.437	27.75
827.611	27.26
827.784	27.27
827.958	26.92
828.132	27.16
828.306	27.14
828.48	27.24
828.654	27.54
828.827	27.88
829.001	26.96
829.175	25.85
829.349	26.23
829.522	26.08
829.696	25.64
829.87	25.9
830.044	25.51
830.217	25.14
830.391	24.33
830.565	23.61
830.738	22.55
830.912	23.64
831.085	24.54
831.259	24.21
831.432	23.88
831.606	25.32
831.779	24.85
831.953	25.24
832.126	24.07
832.3	25.08
832.473	25.28
832.647	25.88
832.82	26.07
832.994	26.32
833.167	27.03
833.34	27.06
833.514	26.71
833.687	26.85
833.86	27.36
834.034	27.9
834.207	27.42
834.38	28.16
834.553	28.1
834.727	27.8
834.9	27.28
835.073	26.61
835.246	27.07
835.419	27.26
835.593	27.12
835.766	26.98
835.939	26.25
836.112	26.93
836.285	25.58
836.458	24.92
836.631	25.67
836.804	25.82
836.977	25.53
837.15	24.57
837.323	24.51
837.496	24.25
837.669	23.06
837.842	25.06
838.015	24.46
838.188	23.32
838.361	22.91
838.533	23.49
838.706	22.83
838.879	24.36
839.052	25.55
839.225	25.14
839.398	25.46
839.57	25.43
839.743	25.62
839.916	24.79
840.088	26.65
840.261	28.56
840.434	26.67
840.607	27.6
840.779	25.13
840.952	24.58
841.124	23.77
841.297	23.92
841.47	24.69
841.642	23.29
841.815	24.68
841.987	24.23
842.16	22.81
842.332	22.83
842.505	22.28
842.677	22.7
842.85	19.69
843.022	20.06
843.194	20.56
843.367	21.3
843.539	22.58
843.712	22.53
843.884	22.91
844.056	23.53
844.229	24.01
844.401	26.42
844.573	28.74
844.745	30.61
844.918	32.33
845.09	32.22
845.262	32.89
845.434	32.34
845.606	28.58
845.779	28.52
845.951	25.21
846.123	24.33
846.295	22.43
846.467	23.75
846.639	26.37
846.811	27.24
846.983	26.3
847.155	20.72
847.327	23.27
847.499	25.7
847.671	22.67
847.843	25.89
848.015	30.63
848.187	26.93
848.359	25.71
848.531	25.92
848.703	23.28
848.875	24.49
849.047	26.9
849.218	25.27
849.39	22.37
849.562	26.18
849.734	25.58
849.905	21.35
850.077	23.93
850.249	24.16
850.421	24.88
850.592	22.48
850.764	22.93
850.936	24.3
851.107	21.65
851.279	21.17
851.451	20.65
851.622	17.68
851.794	16.24
851.965	18.57
852.137	17.12
852.308	12.37
852.48	17
852.651	12.59
852.823	13.53
852.994	15.09
853.166	16.99
853.337	11.78
853.509	16.14
853.68	18.72
853.851	16.57
854.023	17.08
854.194	16.88
854.365	13.2
854.537	14.06
854.708	13.92
854.879	14.49
855.05	14.03
855.222	16
855.393	12.38
855.564	13.52
855.735	15.32
855.906	12.83
856.078	17.12
856.249	20.25
856.42	23.39
856.591	20.97
856.762	23.9
856.933	26.53
857.104	26.22
857.275	31.16
857.446	27.9
857.617	28.57
857.788	31.08
857.959	28.4
858.13	26.13
858.301	25.34
858.472	24.99
858.643	21.98
858.814	21.79
858.985	23.21
859.155	19.66
859.326	22.29
859.497	20.45
859.668	22.89
859.839	20.72
860.009	20.88
860.18	18.14
860.351	15.91
860.522	15.61
860.692	12.62
860.863	14.63
861.034	16.62
861.204	17.4
861.375	20.5
861.546	14.68
861.716	14.52
861.887	10.93
862.057	16.06
862.228	18.72
862.398	19.16
862.569	23.61
862.739	18.99
862.91	14.99
863.08	13.89
863.251	6.03
863.421	9.07
863.592	17.37
863.762	17.49
863.932	16.47
864.103	16.6
864.273	16.06
864.443	15.49
864.614	17.93
864.784	18.36
864.954	15.92
865.125	18
865.295	18.01
865.465	12.36
865.635	18.81
865.805	14.36
865.976	14.03
866.146	17.58
866.316	17.29
866.486	20.48
866.656	19.83
866.826	21.23
866.996	21.16
867.166	21.66
867.336	22.27
867.506	19.42
867.676	21.83
867.846	21.28
868.016	18.52
868.186	16.02
868.356	17.29
868.526	16.36
868.696	14
868.866	17.36
869.036	18.28
869.206	19.43
869.376	19.88
869.545	18.53
869.715	19.17
869.885	17.3
870.055	16.68
870.224	12.01
870.394	11.35
870.564	16.64
870.734	17.79
870.903	13.68
871.073	12.71
871.243	13.63
871.412	17.99
871.582	16.33
871.751	14.27
871.921	15.44
872.091	19.29
872.26	24.3
872.43	19.2
872.599	17.64
872.769	19.05
872.938	22.11
873.108	16.58
873.277	16
873.446	17.17
873.616	16.61
873.785	15.68
873.955	16.04
874.124	12.86
874.293	19.11
874.463	18.99
874.632	19.11
874.801	11.85
874.971	11.84
875.14	9.07
875.309	8.65
875.478	11.99
875.647	16.24
875.817	13.44
875.986	15.32
876.155	12.54
876.324	13.65
876.493	17.56
876.662	21.59
876.831	23.88
877	21.79
877.17	22.92
877.339	23.21
877.508	21.12
877.677	25.83
877.846	25.56
878.015	24.23
878.184	20.97
878.352	16.79
878.521	16.68
878.69	20.11
878.859	22.25
879.028	21.9
879.197	21.98
879.366	21.91
879.534	21.03
879.703	22.05
879.872	22.38
880.041	22.03
880.21	20.59
880.378	19.67
880.547	19.06
880.716	18.88
880.884	20.34
881.053	20.35
881.222	21.67
881.39	20.27
881.559	19.87
881.727	20.05
881.896	20.26
882.065	21.38
882.233	22.46
882.402	22.34
882.57	22.57
882.739	21.64
882.907	22.11
883.076	21.81
883.244	22.78
883.412	23.47
883.581	22.66
883.749	23.37
883.918	23.41
884.086	23.48
884.254	23.33
884.423	23.55
884.591	24.55
884.759	23.87
884.927	21.75
885.096	20.57
885.264	19.09
885.432	21.09
885.6	20.19
885.769	18.89
885.937	16.2
886.105	16.24
886.273	16.77
886.441	16.19
886.609	18.04
886.777	20.2
886.945	19.17
887.113	20.13
887.281	17.74
887.449	16.73
887.617	18.71
887.785	20.55
887.953	19.87
888.121	16.94
888.289	14.74
888.457	12.34
888.625	16.73
888.793	19.12
888.961	18.17
889.129	18.51
889.296	19.22
889.464	18.72
889.632	17.93
889.8	19.09
889.967	21.21
890.135	26.08
