Data from 2938818__Reflection_01.txt Node
Date: Thu Mar 12 14:54:57 EDT 2015
User: robert
Spectrometer: USB4E03002
Autoset integration time: false
Trigger mode: 4
Integration Time (sec): 1.000000E-1
Scans to average: 10
Electric dark correction enabled: false
Nonlinearity correction enabled: false
Boxcar width: 5
Stray light correction enabled: false
XAxis mode: Wavelengths
Stop averaging: false
Number of Pixels in Spectrum: 3648
>>>>>Begin Spectral Data<<<<<
177.575	-424.09
177.794	-505.33
178.014	-334.34
178.233	-284.47
178.452	-262.13
178.672	-301.12
178.891	-260.81
179.11	-353.92
179.33	-376.15
179.549	-409.37
179.768	-508.88
179.987	-432.34
180.207	-506.13
180.426	-769.47
180.645	-1880.45
180.864	-2485.44
181.084	-6295.12
181.303	2150
181.522	25000
181.741	-7300
181.96	-1858.97
182.179	-4281.16
182.398	-11632
182.618	-8396.87
182.837	6797.5
183.056	2372.17
183.275	950
183.494	1154.31
183.713	1105.83
183.932	772.02
184.151	762.67
184.37	657.47
184.589	746.22
184.808	789.46
185.027	817.93
185.246	793.94
185.465	1121.9
185.684	1477.56
185.903	755.18
186.122	747.86
186.341	981.27
186.56	805.6
186.779	892.68
186.998	694.49
187.216	521.5
187.435	584.17
187.654	723.22
187.873	633.79
188.092	650.57
188.311	1056.73
188.53	874.85
188.748	709.07
188.967	1070
189.186	629.46
189.405	890.31
189.623	1143.4
189.842	1228.46
190.061	1444.66
190.28	1399.05
190.498	1031.72
190.717	832.46
190.936	1383.11
191.154	1323.58
191.373	599.81
191.592	790.55
191.81	581.67
192.029	660.52
192.248	707.93
192.466	607.87
192.685	708.53
192.904	700.22
193.122	975.75
193.341	909.84
193.559	1010.11
193.778	3022.58
193.996	-2379.65
194.215	-1591.95
194.433	-16058.82
194.652	1237.12
194.87	3018.39
195.089	1825.83
195.307	2578.9
195.526	2548.28
195.744	2386.47
195.963	3197.03
196.181	1612.18
196.399	1309.28
196.618	2709.17
196.836	5525.45
197.055	-2151.85
197.273	6377.08
197.491	5487.93
197.71	10480
197.928	7458.54
198.146	4740.98
198.365	1175.84
198.583	1240.4
198.801	884.68
199.019	1023.87
199.238	1130.08
199.456	722.76
199.674	1141.37
199.892	1352.85
200.111	1494.08
200.329	1272.77
200.547	1286.57
200.765	-111450
200.983	6310.53
201.202	-13861.11
201.42	18078.57
201.638	2494.34
201.856	22133.33
202.074	-17906.67
202.292	4110.29
202.51	6222.45
202.728	1642.47
202.946	2084.03
203.165	1047.97
203.383	1160.73
203.601	813.24
203.819	514.96
204.037	739.45
204.255	839.41
204.473	992.15
204.691	2444.21
204.909	1521.28
205.127	2159
205.345	1570.83
205.562	-27662.5
205.78	1836.72
205.998	1052.38
206.216	951.59
206.434	559.16
206.652	455.11
206.87	442.56
207.088	373.5
207.306	327.23
207.523	335.33
207.741	309.15
207.959	283.41
208.177	287.55
208.395	351.27
208.612	398.01
208.83	480.19
209.048	572.81
209.266	375.73
209.483	420.37
209.701	459.2
209.919	422.93
210.136	444.78
210.354	472.88
210.572	478.2
210.79	428.95
211.007	418.39
211.225	376.9
211.442	374.26
211.66	417.48
211.878	352.24
212.095	332.13
212.313	291.42
212.53	293.84
212.748	290.85
212.966	324.05
213.183	325
213.401	282.93
213.618	317.26
213.836	307.47
214.053	353.54
214.271	365.99
214.488	450.9
214.705	513.58
214.923	488.96
215.14	555.15
215.358	583.21
215.575	541.24
215.793	802.26
216.01	622.39
216.227	786.92
216.445	601.12
216.662	504.41
216.879	405.73
217.097	479.14
217.314	504.94
217.531	405.38
217.749	458.08
217.966	423.58
218.183	380.66
218.4	385.35
218.618	309.99
218.835	307.55
219.052	278.88
219.269	268.46
219.487	242.13
219.704	229.56
219.921	227.69
220.138	191.36
220.355	197.7
220.572	180.86
220.79	173.48
221.007	178.4
221.224	174.22
221.441	176.21
221.658	184.86
221.875	173.39
222.092	151.7
222.309	147.84
222.526	153.38
222.743	140.58
222.96	134.15
223.177	138.67
223.394	132.13
223.611	127.45
223.828	125.78
224.045	114.85
224.262	111.79
224.479	116.06
224.696	102.58
224.913	95.42
225.13	98.14
225.347	96.13
225.564	91.71
225.781	87.4
225.997	83.54
226.214	79.28
226.431	71.6
226.648	62.5
226.865	53.19
227.082	48.22
227.298	42.12
227.515	34.27
227.732	30.31
227.949	27.97
228.165	25.18
228.382	23.02
228.599	21.05
228.816	20.26
229.032	20.45
229.249	19.6
229.466	19.12
229.682	18.8
229.899	19.72
230.116	20.22
230.332	19.42
230.549	20.4
230.765	20.4
230.982	21.47
231.199	21.61
231.415	22.94
231.632	24.67
231.848	25.74
232.065	26.04
232.281	27.58
232.498	27.88
232.714	31.03
232.931	31.84
233.147	32.09
233.364	30.54
233.58	31.04
233.797	31.25
234.013	31.81
234.23	32.23
234.446	32.77
234.662	31.9
234.879	32.41
235.095	31.31
235.312	31.18
235.528	32.36
235.744	34.13
235.961	36.5
236.177	36.49
236.393	36.29
236.61	37.07
236.826	37.56
237.042	37.43
237.258	38.28
237.475	38.7
237.691	38.89
237.907	38.15
238.123	38.5
238.339	36.52
238.556	35.99
238.772	35.11
238.988	34.44
239.204	34.56
239.42	33.13
239.636	32.49
239.853	30.01
240.069	28.6
240.285	27.42
240.501	25.37
240.717	23.15
240.933	21.21
241.149	20.08
241.365	18.26
241.581	16.5
241.797	16.38
242.013	14.82
242.229	14.01
242.445	13.15
242.661	12.74
242.877	12.38
243.093	12.62
243.309	13.39
243.525	12.99
243.741	13.26
243.957	14.45
244.173	14.18
244.388	14.8
244.604	15.05
244.82	15.16
245.036	14.38
245.252	14.31
245.468	13.17
245.683	11.65
245.899	11.44
246.115	10.78
246.331	9.88
246.547	9.33
246.762	8.85
246.978	8.81
247.194	8.81
247.409	8.59
247.625	8.29
247.841	8.79
248.057	9.15
248.272	9.1
248.488	9.68
248.703	9.9
248.919	10.6
249.135	11.29
249.35	11.68
249.566	12.01
249.782	12.94
249.997	14.16
250.213	13.55
250.428	13.51
250.644	13.99
250.859	13.28
251.075	12.72
251.29	12.92
251.506	12.4
251.721	12.02
251.937	12.34
252.152	12.67
252.368	12.51
252.583	12.69
252.798	13.03
253.014	13.18
253.229	14.25
253.445	15.14
253.66	15.09
253.875	16.06
254.091	17.62
254.306	18.48
254.521	19.02
254.737	19.39
254.952	19.83
255.167	19.79
255.383	20.24
255.598	19.71
255.813	19.18
256.028	19.6
256.244	18.9
256.459	18.1
256.674	16.92
256.889	16.76
257.104	16.26
257.32	16.14
257.535	14.44
257.75	13.65
257.965	12.88
258.18	12.19
258.395	10.81
258.61	9.65
258.826	8.7
259.041	7.99
259.256	7.43
259.471	7.16
259.686	6.87
259.901	6.99
260.116	6.86
260.331	6.75
260.546	6.69
260.761	6.87
260.976	7.34
261.191	7.94
261.406	8.68
261.621	8.99
261.836	9.36
262.05	9.72
262.265	10.21
262.48	10.42
262.695	10.75
262.91	11.63
263.125	11.82
263.34	11.78
263.555	11.6
263.769	11.59
263.984	11.44
264.199	11.39
264.414	11.57
264.629	11.97
264.843	11.76
265.058	11.6
265.273	10.82
265.488	11.28
265.702	11.6
265.917	11.85
266.132	11.88
266.346	12.34
266.561	11.92
266.776	11.88
266.99	10.82
267.205	11.11
267.42	11.35
267.634	11.9
267.849	11.1
268.063	10.9
268.278	10.83
268.492	10.81
268.707	10.4
268.922	10.95
269.136	10.79
269.351	11.47
269.565	11.3
269.78	10.77
269.994	10.67
270.209	10.72
270.423	10.56
270.637	10.15
270.852	10
271.066	9.98
271.281	9.44
271.495	9.28
271.709	9.17
271.924	9.25
272.138	9.52
272.353	9.2
272.567	9.47
272.781	9.62
272.996	9.52
273.21	9.49
273.424	9.54
273.638	9.75
273.853	9.82
274.067	9.72
274.281	9.98
274.495	9.79
274.71	10.23
274.924	10.14
275.138	9.77
275.352	9.81
275.566	9.71
275.781	9.92
275.995	9.79
276.209	10.01
276.423	10.28
276.637	9.87
276.851	10.12
277.065	9.41
277.279	9.4
277.493	9.71
277.707	10.02
277.921	10.02
278.135	9.69
278.349	9.63
278.563	9.25
278.777	9.2
278.991	9.07
279.205	9.07
279.419	9.06
279.633	9.39
279.847	9.4
280.061	9.47
280.275	9.14
280.489	9.42
280.703	9.51
280.917	9.5
281.131	8.94
281.344	8.88
281.558	8.44
281.772	8.58
281.986	7.91
282.2	7.4
282.414	7.19
282.627	7.31
282.841	7.16
283.055	7.35
283.269	7.51
283.482	7.89
283.696	7.68
283.91	7.67
284.123	7.48
284.337	7.27
284.551	7.31
284.764	7.13
284.978	7.22
285.192	7.05
285.405	6.71
285.619	6.61
285.833	6.66
286.046	6.76
286.26	6.62
286.473	6.62
286.687	7.05
286.9	7.43
287.114	7.58
287.327	7.58
287.541	7.54
287.754	7.76
287.968	7.61
288.181	7.45
288.395	7.33
288.608	7.63
288.822	7.62
289.035	7.62
289.248	7.27
289.462	7.23
289.675	7.19
289.889	7.12
290.102	6.55
290.315	6.44
290.529	6.31
290.742	6.5
290.955	6.58
291.169	6.47
291.382	6.24
291.595	6.5
291.808	6.45
292.022	6.36
292.235	6.46
292.448	7.05
292.661	7.48
292.875	7.5
293.088	7.7
293.301	7.79
293.514	8.24
293.727	8.72
293.94	8.54
294.153	8.67
294.367	8.89
294.58	9.11
294.793	8.79
295.006	8.56
295.219	8.75
295.432	8.57
295.645	8.41
295.858	8.31
296.071	8
296.284	8.09
296.497	7.86
296.71	7.53
296.923	7.51
297.136	7.65
297.349	8.02
297.562	7.96
297.775	7.92
297.988	7.74
298.201	7.71
298.414	7.89
298.626	7.81
298.839	8.11
299.052	8.45
299.265	8.28
299.478	8.29
299.691	8.19
299.903	8.37
300.116	8.54
300.329	9.07
300.542	9.17
300.755	9.45
300.967	9.57
301.18	9.52
301.393	9.69
301.605	9.68
301.818	9.98
302.031	10.02
302.243	9.88
302.456	10.17
302.669	10.08
302.881	10.12
303.094	9.89
303.307	9.79
303.519	9.64
303.732	9.47
303.944	9.83
304.157	9.61
304.37	9.42
304.582	9.63
304.795	9.27
305.007	9.64
305.22	9.61
305.432	9.7
305.645	10.22
305.857	10.58
306.069	10.95
306.282	10.87
306.494	11.08
306.707	10.96
306.919	11.14
307.132	11.49
307.344	11.25
307.556	11.18
307.769	11.09
307.981	10.87
308.193	10.66
308.406	10.23
308.618	10.67
308.83	10.79
309.043	11.07
309.255	10.82
309.467	10.78
309.679	10.46
309.892	10.56
310.104	10.7
310.316	11.15
310.528	11.28
310.74	11.55
310.953	11.44
311.165	11.46
311.377	11.36
311.589	11.47
311.801	11.55
312.013	11.93
312.225	12.06
312.437	12.04
312.649	11.67
312.862	11.74
313.074	11.67
313.286	11.7
313.498	11.62
313.71	12.05
313.922	12.4
314.134	11.98
314.346	11.46
314.558	11.32
314.77	11.57
314.982	11.81
315.193	12.13
315.405	11.87
315.617	11.7
315.829	11.47
316.041	11.31
316.253	11.46
316.465	11.72
316.677	12.63
316.888	12.61
317.1	12.51
317.312	12.57
317.524	12.34
317.736	13.17
317.947	13.79
318.159	14.59
318.371	14.96
318.583	14.67
318.794	14.88
319.006	14.76
319.218	15.08
319.43	14.94
319.641	14.86
319.853	15.13
320.064	14.65
320.276	14.29
320.488	13.91
320.699	13.42
320.911	13.22
321.123	13.44
321.334	13.57
321.546	14.07
321.757	14.27
321.969	14.42
322.18	14.07
322.392	14.07
322.603	14.03
322.815	14.27
323.026	14.4
323.238	14.87
323.449	15.2
323.661	14.89
323.872	14.42
324.083	14.63
324.295	14.29
324.506	14.3
324.718	14.48
324.929	14.72
325.14	14.38
325.352	14.34
325.563	13.92
325.774	13.33
325.986	13.39
326.197	13.66
326.408	13.47
326.62	14.03
326.831	13.93
327.042	14.02
327.253	13.53
327.464	14.05
327.676	14.3
327.887	14.56
328.098	14.75
328.309	14.69
328.52	14.68
328.732	15.02
328.943	14.72
329.154	15.25
329.365	15.01
329.576	15.06
329.787	14.91
329.998	14.66
330.209	14.8
330.42	14.98
330.631	15.53
330.842	15.31
331.053	15.16
331.264	14.99
331.475	15.09
331.686	15.21
331.897	15.65
332.108	15.59
332.319	15.74
332.53	15.51
332.741	15.23
332.952	14.83
333.163	15.05
333.374	15.07
333.585	15.3
333.795	15.37
334.006	15.39
334.217	15.49
334.428	15.71
334.639	15.72
334.849	15.58
335.06	15.68
335.271	16.04
335.482	16.07
335.692	16.36
335.903	16.81
336.114	16.66
336.325	17.08
336.535	17.22
336.746	17.16
336.957	17.1
337.167	17.38
337.378	17.61
337.589	17.31
337.799	17.28
338.01	16.95
338.22	16.84
338.431	17.21
338.642	16.78
338.852	16.49
339.063	16.08
339.273	16.25
339.484	16.51
339.694	16.3
339.905	16.35
340.115	15.9
340.326	16.1
340.536	15.81
340.746	15.08
340.957	14.84
341.167	14.86
341.378	14.97
341.588	14.75
341.799	14.49
342.009	14.44
342.219	14.3
342.43	14.47
342.64	14.09
342.85	13.89
343.061	13.93
343.271	14.17
343.481	13.94
343.691	13.97
343.902	14.09
344.112	14.05
344.322	14.3
344.532	14.35
344.743	14.44
344.953	14.44
345.163	14.55
345.373	14.56
345.583	14.49
345.793	14.68
346.004	14.99
346.214	14.94
346.424	15.08
346.634	14.97
346.844	14.95
347.054	14.7
347.264	14.52
347.474	14.49
347.684	14.59
347.894	14.68
348.104	14.62
348.314	14.34
348.524	14.28
348.734	14.27
348.944	14.09
349.154	14.27
349.364	14.46
349.574	14.6
349.784	14.84
349.994	14.7
350.204	14.4
350.413	14.36
350.623	14.43
350.833	14.34
351.043	14.29
351.253	14.37
351.463	14.15
351.672	14.11
351.882	14.04
352.092	13.59
352.302	13.28
352.511	13.37
352.721	13.4
352.931	13.31
353.141	13.3
353.35	13.17
353.56	13.11
353.77	13.09
353.979	13.03
354.189	13.15
354.399	13.27
354.608	13.44
354.818	13.47
355.027	13.56
355.237	13.39
355.447	13.21
355.656	12.97
355.866	12.92
356.075	12.84
356.285	12.79
356.494	12.47
356.704	12.53
356.913	12.54
357.123	12.6
357.332	12.37
357.542	12.46
357.751	12.5
357.96	12.45
358.17	12.26
358.379	12.11
358.589	12.17
358.798	12.02
359.007	11.82
359.217	11.64
359.426	11.54
359.635	11.48
359.845	11.23
360.054	11.16
360.263	11.14
360.472	11.27
360.682	11.09
360.891	10.94
361.1	11.01
361.309	10.85
361.519	10.95
361.728	10.72
361.937	10.64
362.146	10.62
362.355	10.68
362.564	10.69
362.774	10.75
362.983	10.79
363.192	10.85
363.401	11
363.61	11.2
363.819	11.2
364.028	11.4
364.237	11.48
364.446	11.45
364.655	11.24
364.864	11.37
365.073	11.37
365.282	11.38
365.491	11.34
365.7	11.37
365.909	11.55
366.118	11.58
366.327	11.58
366.536	11.35
366.745	11.45
366.954	11.77
367.162	11.62
367.371	11.48
367.58	11.86
367.789	11.63
367.998	11.57
368.207	11.33
368.415	11.38
368.624	11.41
368.833	11.71
369.042	11.58
369.25	11.48
369.459	11.65
369.668	11.73
369.877	11.56
370.085	11.76
370.294	11.86
370.503	11.63
370.711	11.47
370.92	11.27
371.129	11.3
371.337	11.29
371.546	11.14
371.754	11.17
371.963	10.99
372.171	10.85
372.38	10.84
372.589	10.74
372.797	11.1
373.006	11.11
373.214	11.24
373.423	11.01
373.631	11.3
373.84	11.38
374.048	11.11
374.256	11.02
374.465	10.92
374.673	11.02
374.882	11.11
375.09	10.66
375.298	10.48
375.507	10.59
375.715	10.82
375.923	10.44
376.132	10.59
376.34	10.54
376.548	10.53
376.757	10.59
376.965	10.33
377.173	10.16
377.381	10.41
377.59	10.48
377.798	10.46
378.006	10.28
378.214	10.66
378.423	10.41
378.631	10.32
378.839	10.17
379.047	10.28
379.255	10.53
379.463	10.58
379.671	10.35
379.879	10.23
380.088	9.97
380.296	9.83
380.504	9.52
380.712	9.57
380.92	9.73
381.128	9.78
381.336	9.61
381.544	9.29
381.752	9.36
381.96	9.36
382.168	9.41
382.376	9.61
382.584	9.7
382.791	9.64
382.999	9.8
383.207	9.79
383.415	10.1
383.623	9.92
383.831	10.07
384.039	9.77
384.247	9.88
384.454	10.08
384.662	9.92
384.87	9.85
385.078	9.8
385.285	9.33
385.493	9.21
385.701	8.98
385.909	9.05
386.116	8.92
386.324	9.04
386.532	8.88
386.739	8.75
386.947	8.74
387.155	8.68
387.362	8.75
387.57	8.91
387.778	8.96
387.985	8.99
388.193	9.14
388.4	9.17
388.608	9.33
388.816	9.46
389.023	9.36
389.231	9.11
389.438	9.09
389.646	9.02
389.853	9.08
390.061	8.89
390.268	8.84
390.475	8.63
390.683	8.71
390.89	8.34
391.098	8.21
391.305	8.01
391.512	8.27
391.72	8.15
391.927	8.05
392.135	7.96
392.342	7.88
392.549	7.86
392.756	7.77
392.964	7.73
393.171	7.83
393.378	7.9
393.586	8.07
393.793	7.78
394	7.97
394.207	7.85
394.414	7.92
394.622	8.1
394.829	7.92
395.036	7.97
395.243	7.9
395.45	7.76
395.657	7.71
395.864	7.71
396.072	7.94
396.279	7.8
396.486	8.01
396.693	7.89
396.9	7.66
397.107	7.66
397.314	7.63
397.521	7.78
397.728	8
397.935	8.02
398.142	7.95
398.349	7.92
398.556	7.88
398.763	7.72
398.97	7.77
399.177	8.09
399.383	8.17
399.59	8.18
399.797	8
400.004	7.93
400.211	7.84
400.418	7.88
400.625	7.86
400.831	7.84
401.038	7.97
401.245	7.88
401.452	7.74
401.658	7.64
401.865	7.83
402.072	7.85
402.279	7.74
402.485	7.87
402.692	7.65
402.899	7.8
403.105	7.78
403.312	7.78
403.519	7.8
403.725	7.72
403.932	7.74
404.138	7.74
404.345	7.64
404.552	7.6
404.758	7.68
404.965	7.83
405.171	7.48
405.378	7.61
405.584	7.71
405.791	7.74
405.997	7.66
406.204	7.71
406.41	7.67
406.617	7.83
406.823	7.81
407.029	7.76
407.236	7.87
407.442	8.12
407.649	8.26
407.855	8.17
408.061	8.04
408.268	8.17
408.474	8.05
408.68	7.95
408.887	7.74
409.093	7.89
409.299	7.59
409.505	7.35
409.712	7.41
409.918	7.26
410.124	7.28
410.33	7.43
410.537	7.39
410.743	7.5
410.949	7.43
411.155	7.55
411.361	7.56
411.567	7.55
411.773	7.54
411.98	7.37
412.186	7.26
412.392	7.16
412.598	7.17
412.804	7.21
413.01	7.31
413.216	7.32
413.422	7.14
413.628	7.11
413.834	7.18
414.04	7.4
414.246	7.43
414.452	7.43
414.658	7.24
414.864	7.12
415.07	7.2
415.275	6.96
415.481	6.94
415.687	7
415.893	6.89
416.099	6.78
416.305	6.6
416.511	6.45
416.716	6.39
416.922	6.42
417.128	6.37
417.334	6.21
417.539	6.25
417.745	6.18
417.951	6.06
418.157	6.09
418.362	6.12
418.568	6.13
418.774	6.08
418.979	5.98
419.185	5.91
419.391	5.85
419.596	5.8
419.802	5.78
420.008	5.75
420.213	5.84
420.419	5.74
420.624	5.7
420.83	5.61
421.035	5.67
421.241	5.76
421.446	5.78
421.652	5.75
421.857	5.81
422.063	5.74
422.268	5.76
422.474	5.62
422.679	5.6
422.885	5.43
423.09	5.42
423.295	5.29
423.501	5.19
423.706	5.14
423.911	5.17
424.117	5.02
424.322	5.08
424.527	5.04
424.733	5.09
424.938	5.1
425.143	5.2
425.349	5.32
425.554	5.43
425.759	5.58
425.964	5.65
426.169	5.65
426.375	5.79
426.58	5.79
426.785	5.94
426.99	6.01
427.195	6.13
427.4	6.21
427.605	6.16
427.811	6.15
428.016	6.07
428.221	6.11
428.426	6.13
428.631	6.06
428.836	6.18
429.041	6.18
429.246	6.15
429.451	6.13
429.656	6.14
429.861	6.15
430.066	6.22
430.271	6.3
430.476	6.32
430.681	6.36
430.886	6.4
431.09	6.4
431.295	6.24
431.5	6.19
431.705	6.05
431.91	6
432.115	5.99
432.32	5.92
432.524	5.81
432.729	5.76
432.934	5.68
433.139	5.68
433.343	5.59
433.548	5.56
433.753	5.63
433.958	5.73
434.162	5.98
434.367	5.91
434.572	5.96
434.776	6.01
434.981	5.98
435.186	6.06
435.39	6.06
435.595	6.1
435.799	6.14
436.004	6.08
436.209	6
436.413	5.75
436.618	5.68
436.822	5.66
437.027	5.68
437.231	5.69
437.436	5.63
437.64	5.61
437.845	5.61
438.049	5.63
438.253	5.65
438.458	5.65
438.662	5.64
438.867	5.72
439.071	5.63
439.275	5.57
439.48	5.53
439.684	5.49
439.888	5.48
440.093	5.38
440.297	5.35
440.501	5.35
440.706	5.33
440.91	5.35
441.114	5.33
441.318	5.44
441.523	5.44
441.727	5.55
441.931	5.57
442.135	5.56
442.339	5.58
442.543	5.57
442.748	5.56
442.952	5.58
443.156	5.65
443.36	5.62
443.564	5.61
443.768	5.53
443.972	5.42
444.176	5.46
444.38	5.5
444.584	5.52
444.788	5.6
444.992	5.61
445.196	5.62
445.4	5.58
445.604	5.55
445.808	5.48
446.012	5.55
446.216	5.48
446.42	5.48
446.624	5.41
446.828	5.33
447.032	5.25
447.235	5.24
447.439	5.21
447.643	5.17
447.847	5.18
448.051	5.18
448.254	5.15
448.458	5.2
448.662	5.26
448.866	5.28
449.069	5.38
449.273	5.46
449.477	5.46
449.681	5.53
449.884	5.54
450.088	5.6
450.292	5.63
450.495	5.62
450.699	5.72
450.902	5.58
451.106	5.55
451.31	5.63
451.513	5.64
451.717	5.62
451.92	5.55
452.124	5.7
452.327	5.67
452.531	5.77
452.734	5.77
452.938	5.69
453.141	5.71
453.345	5.72
453.548	5.75
453.752	5.8
453.955	5.94
454.158	5.97
454.362	5.95
454.565	6
454.769	5.98
454.972	6.06
455.175	6.22
455.379	6.39
455.582	6.5
455.785	6.38
455.988	6.4
456.192	6.24
456.395	6.19
456.598	6.18
456.801	6.21
457.005	6.09
457.208	6.06
457.411	5.91
457.614	5.66
457.817	5.59
458.021	5.59
458.224	5.64
458.427	5.66
458.63	5.68
458.833	5.68
459.036	5.57
459.239	5.62
459.442	5.64
459.645	5.6
459.848	5.64
460.051	5.67
460.254	5.65
460.457	5.54
460.66	5.51
460.863	5.5
461.066	5.46
461.269	5.49
461.472	5.51
461.675	5.51
461.878	5.53
462.081	5.61
462.284	5.66
462.486	5.74
462.689	5.77
462.892	5.72
463.095	5.69
463.298	5.67
463.5	5.71
463.703	5.68
463.906	5.72
464.109	5.81
464.311	5.89
464.514	5.98
464.717	6.06
464.92	6.04
465.122	6.19
465.325	6.21
465.528	6.32
465.73	6.35
465.933	6.24
466.135	6.18
466.338	6.2
466.541	6.13
466.743	5.96
466.946	5.86
467.148	5.91
467.351	5.93
467.553	6.02
467.756	5.96
467.958	5.91
468.161	5.97
468.363	6.02
468.566	5.96
468.768	5.94
468.971	5.92
469.173	5.85
469.375	5.85
469.578	5.73
469.78	5.58
469.983	5.67
470.185	5.76
470.387	5.93
470.59	5.93
470.792	5.8
470.994	5.82
471.196	5.83
471.399	5.9
471.601	5.95
471.803	6.03
472.005	6.13
472.208	5.97
472.41	5.86
472.612	5.83
472.814	5.71
473.016	5.82
473.218	5.83
473.421	5.84
473.623	5.92
473.825	5.75
474.027	5.78
474.229	5.79
474.431	5.82
474.633	5.88
474.835	5.72
475.037	5.82
475.239	5.82
475.441	5.84
475.643	5.86
475.845	5.82
476.047	5.89
476.249	5.79
476.451	5.84
476.653	5.78
476.855	5.75
477.057	5.73
477.258	5.63
477.46	5.61
477.662	5.63
477.864	5.6
478.066	5.54
478.268	5.49
478.469	5.52
478.671	5.43
478.873	5.5
479.075	5.47
479.276	5.46
479.478	5.38
479.68	5.41
479.882	5.4
480.083	5.35
480.285	5.39
480.487	5.35
480.688	5.34
480.89	5.33
481.091	5.25
481.293	5.21
481.495	5.22
481.696	5.28
481.898	5.17
482.099	5.01
482.301	4.93
482.502	4.81
482.704	4.77
482.905	4.71
483.107	4.67
483.308	4.65
483.51	4.6
483.711	4.54
483.913	4.5
484.114	4.49
484.315	4.51
484.517	4.52
484.718	4.53
484.92	4.52
485.121	4.51
485.322	4.48
485.524	4.48
485.725	4.55
485.926	4.56
486.127	4.57
486.329	4.6
486.53	4.59
486.731	4.57
486.932	4.61
487.134	4.68
487.335	4.69
487.536	4.74
487.737	4.74
487.938	4.73
488.139	4.73
488.341	4.78
488.542	4.8
488.743	4.8
488.944	4.82
489.145	4.82
489.346	4.78
489.547	4.8
489.748	4.78
489.949	4.78
490.15	4.77
490.351	4.79
490.552	4.74
490.753	4.72
490.954	4.74
491.155	4.75
491.356	4.76
491.557	4.77
491.758	4.8
491.959	4.84
492.159	4.84
492.36	4.86
492.561	4.85
492.762	4.92
492.963	4.96
493.164	4.99
493.364	5.08
493.565	5.13
493.766	5.21
493.967	5.13
494.167	5.17
494.368	5.25
494.569	5.32
494.769	5.41
494.97	5.38
495.171	5.48
495.371	5.52
495.572	5.53
495.773	5.54
495.973	5.58
496.174	5.71
496.375	5.73
496.575	5.69
496.776	5.7
496.976	5.7
497.177	5.72
497.377	5.68
497.578	5.75
497.778	5.77
497.979	5.82
498.179	5.81
498.38	5.81
498.58	5.79
498.78	5.87
498.981	5.78
499.181	5.81
499.382	5.83
499.582	5.92
499.782	5.89
499.983	5.9
500.183	5.96
500.383	5.99
500.584	5.96
500.784	5.97
500.984	5.98
501.184	6.11
501.385	6.17
501.585	6.25
501.785	6.17
501.985	6.18
502.185	6.28
502.386	6.26
502.586	6.23
502.786	6.33
502.986	6.43
503.186	6.51
503.386	6.54
503.586	6.6
503.786	6.62
503.987	6.67
504.187	6.74
504.387	6.67
504.587	6.67
504.787	6.84
504.987	6.85
505.187	6.86
505.387	6.85
505.587	6.9
505.786	6.82
505.986	6.88
506.186	6.96
506.386	6.98
506.586	7.05
506.786	7.1
506.986	7.08
507.186	7.15
507.386	7.25
507.585	7.3
507.785	7.37
507.985	7.47
508.185	7.46
508.384	7.37
508.584	7.37
508.784	7.38
508.984	7.39
509.183	7.43
509.383	7.37
509.583	7.36
509.782	7.32
509.982	7.25
510.182	7.28
510.381	7.31
510.581	7.48
510.781	7.52
510.98	7.58
511.18	7.62
511.379	7.63
511.579	7.66
511.778	7.7
511.978	7.8
512.177	7.94
512.377	8.02
512.576	8.07
512.776	8.02
512.975	8.03
513.175	8.14
513.374	8.18
513.573	8.19
513.773	8.33
513.972	8.31
514.172	8.4
514.371	8.47
514.57	8.45
514.77	8.5
514.969	8.61
515.168	8.77
515.367	8.7
515.567	8.79
515.766	8.88
515.965	8.98
516.164	9.09
516.364	9.07
516.563	9.11
516.762	9.17
516.961	9.27
517.16	9.3
517.359	9.34
517.559	9.5
517.758	9.51
517.957	9.52
518.156	9.49
518.355	9.59
518.554	9.63
518.753	9.66
518.952	9.73
519.151	9.73
519.35	9.77
519.549	9.82
519.748	9.82
519.947	9.91
520.146	10.02
520.345	10.07
520.544	10.09
520.743	10.26
520.942	10.28
521.141	10.36
521.339	10.4
521.538	10.53
521.737	10.57
521.936	10.64
522.135	10.73
522.333	10.86
522.532	10.9
522.731	11
522.93	11.01
523.129	11.12
523.327	11.15
523.526	11.22
523.725	11.32
523.923	11.39
524.122	11.46
524.321	11.47
524.519	11.36
524.718	11.45
524.917	11.5
525.115	11.54
525.314	11.57
525.512	11.58
525.711	11.62
525.909	11.63
526.108	11.65
526.306	11.64
526.505	11.66
526.703	11.77
526.902	11.79
527.1	11.77
527.299	11.77
527.497	11.75
527.696	11.72
527.894	11.69
528.092	11.68
528.291	11.68
528.489	11.69
528.688	11.67
528.886	11.64
529.084	11.61
529.283	11.61
529.481	11.59
529.679	11.63
529.877	11.68
530.076	11.74
530.274	11.75
530.472	11.76
530.67	11.82
530.869	11.92
531.067	12.01
531.265	12.1
531.463	12.19
531.661	12.31
531.859	12.38
532.057	12.45
532.255	12.56
532.454	12.62
532.652	12.67
532.85	12.72
533.048	12.72
533.246	12.79
533.444	12.86
533.642	12.91
533.84	12.92
534.038	12.98
534.236	12.99
534.434	12.99
534.632	13.08
534.83	13.14
535.027	13.14
535.225	13.25
535.423	13.24
535.621	13.28
535.819	13.3
536.017	13.38
536.215	13.37
536.412	13.44
536.61	13.46
536.808	13.45
537.006	13.53
537.203	13.57
537.401	13.67
537.599	13.72
537.797	13.78
537.994	13.84
538.192	13.92
538.39	14.05
538.587	14.19
538.785	14.31
538.983	14.41
539.18	14.43
539.378	14.53
539.575	14.57
539.773	14.65
539.97	14.6
540.168	14.57
540.366	14.54
540.563	14.5
540.761	14.48
540.958	14.47
541.155	14.42
541.353	14.42
541.55	14.36
541.748	14.35
541.945	14.3
542.143	14.35
542.34	14.35
542.537	14.39
542.735	14.41
542.932	14.4
543.129	14.43
543.327	14.5
543.524	14.59
543.721	14.75
543.919	14.78
544.116	14.88
544.313	15.01
544.51	15.09
544.708	15.19
544.905	15.26
545.102	15.5
545.299	15.63
545.496	15.7
545.693	15.75
545.891	15.76
546.088	15.87
546.285	15.92
546.482	15.91
546.679	15.98
546.876	15.88
547.073	15.95
547.27	15.85
547.467	15.81
547.664	15.84
547.861	15.84
548.058	15.86
548.255	15.89
548.452	15.93
548.649	16
548.846	16.09
549.043	16.22
549.24	16.29
549.437	16.3
549.633	16.31
549.83	16.38
550.027	16.44
550.224	16.43
550.421	16.32
550.618	16.32
550.814	16.27
551.011	16.41
551.208	16.38
551.405	16.36
551.601	16.41
551.798	16.51
551.995	16.64
552.191	16.66
552.388	16.67
552.585	16.72
552.781	16.75
552.978	16.71
553.175	16.62
553.371	16.7
553.568	16.76
553.764	16.75
553.961	16.68
554.157	16.63
554.354	16.64
554.55	16.64
554.747	16.77
554.943	16.96
555.14	17.11
555.336	17.17
555.533	17.15
555.729	17.18
555.926	17.36
556.122	17.42
556.318	17.32
556.515	17.33
556.711	17.39
556.907	17.37
557.104	17.25
557.3	17.2
557.496	17.17
557.693	17.12
557.889	17.11
558.085	17.08
558.281	17.22
558.478	17.31
558.674	17.35
558.87	17.35
559.066	17.37
559.262	17.34
559.459	17.35
559.655	17.35
559.851	17.42
560.047	17.48
560.243	17.49
560.439	17.44
560.635	17.47
560.831	17.4
561.027	17.53
561.223	17.44
561.419	17.45
561.615	17.46
561.811	17.54
562.007	17.57
562.203	17.49
562.399	17.43
562.595	17.48
562.791	17.43
562.987	17.55
563.183	17.42
563.379	17.58
563.575	17.6
563.771	17.61
563.966	17.58
564.162	17.68
564.358	17.77
564.554	17.72
564.75	17.65
564.945	17.65
565.141	17.54
565.337	17.61
565.533	17.47
565.728	17.42
565.924	17.46
566.12	17.52
566.315	17.54
566.511	17.54
566.707	17.48
566.902	17.51
567.098	17.54
567.293	17.7
567.489	17.69
567.684	17.82
567.88	17.85
568.076	17.91
568.271	17.86
568.467	17.65
568.662	17.8
568.858	18.01
569.053	18.09
569.248	18.1
569.444	17.94
569.639	17.88
569.835	17.87
570.03	17.89
570.225	17.87
570.421	17.85
570.616	18.02
570.812	17.84
571.007	17.63
571.202	17.5
571.397	17.51
571.593	17.49
571.788	17.6
571.983	17.57
572.178	17.68
572.374	17.73
572.569	17.75
572.764	17.66
572.959	17.69
573.154	17.86
573.35	17.95
573.545	18
573.74	18.1
573.935	18.07
574.13	18.06
574.325	18.03
574.52	17.95
574.715	17.91
574.91	17.98
575.105	18.01
575.3	17.92
575.495	18.01
575.69	18.13
575.885	18.25
576.08	18.27
576.275	18.35
576.47	18.4
576.665	18.45
576.86	18.71
577.055	18.8
577.25	18.86
577.444	19.01
577.639	19.13
577.834	19.15
578.029	19.25
578.224	19.4
578.418	19.47
578.613	19.51
578.808	19.69
579.003	19.59
579.197	19.63
579.392	19.64
579.587	19.59
579.781	19.48
579.976	19.37
580.171	19.26
580.365	19.24
580.56	19.35
580.755	19.46
580.949	19.36
581.144	19.51
581.338	19.5
581.533	19.61
581.727	19.73
581.922	19.8
582.116	19.84
582.311	19.92
582.505	19.92
582.7	19.88
582.894	19.94
583.089	20.03
583.283	19.77
583.478	19.76
583.672	19.84
583.866	19.87
584.061	19.87
584.255	19.9
584.449	19.87
584.644	19.9
584.838	19.83
585.032	19.72
585.226	19.75
585.421	19.94
585.615	20.06
585.809	20.05
586.003	20.07
586.198	20.19
586.392	20.21
586.586	20.28
586.78	20.23
586.974	20.4
587.168	20.23
587.363	20.3
587.557	20.38
587.751	20.3
587.945	20.16
588.139	20.02
588.333	19.8
588.527	19.8
588.721	19.65
588.915	19.63
589.109	19.4
589.303	19.66
589.497	19.57
589.691	19.3
589.885	19.26
590.079	19.45
590.273	19.55
590.466	19.59
590.66	19.6
590.854	19.6
591.048	19.72
591.242	19.82
591.436	19.76
591.629	19.74
591.823	20.11
592.017	20.12
592.211	19.96
592.404	19.95
592.598	19.97
592.792	20
592.986	20.13
593.179	20.03
593.373	20.07
593.567	20.06
593.76	20.14
593.954	19.88
594.147	19.85
594.341	19.85
594.535	19.87
594.728	19.86
594.922	19.82
595.115	19.71
595.309	19.73
595.502	19.68
595.696	19.61
595.889	19.53
596.083	19.55
596.276	19.66
596.47	19.76
596.663	19.72
596.856	19.68
597.05	19.62
597.243	19.66
597.437	19.67
597.63	19.79
597.823	19.91
598.017	19.96
598.21	19.97
598.403	20.05
598.596	20.15
598.79	20.21
598.983	20.25
599.176	20.3
599.369	20.34
599.563	20.48
599.756	20.46
599.949	20.47
600.142	20.62
600.335	20.76
600.528	20.58
600.722	20.47
600.915	20.55
601.108	20.61
601.301	20.66
601.494	20.69
601.687	20.62
601.88	20.62
602.073	20.43
602.266	20.28
602.459	20.24
602.652	20.34
602.845	20.24
603.038	20.25
603.231	20.3
603.424	20.24
603.617	20.07
603.809	19.96
604.002	20.03
604.195	20.21
604.388	20.2
604.581	20
604.774	19.94
604.966	19.98
605.159	19.86
605.352	19.9
605.545	19.94
605.737	20.18
605.93	20.36
606.123	20.38
606.316	20.46
606.508	20.51
606.701	20.82
606.894	20.91
607.086	20.94
607.279	21.19
607.471	21.22
607.664	21.39
607.857	21.52
608.049	21.64
608.242	21.72
608.434	21.79
608.627	22.24
608.819	22.51
609.012	22.89
609.204	23.32
609.397	23.71
609.589	24.15
609.782	24.67
609.974	25.37
610.166	25.84
610.359	26.49
610.551	27.04
610.743	27.34
610.936	27.72
611.128	28.04
611.32	28.27
611.513	28.44
611.705	28.67
611.897	28.55
612.09	28.17
612.282	28.16
612.474	27.78
612.666	27.52
612.858	27.48
613.051	27.29
613.243	27.22
613.435	27.18
613.627	27
613.819	26.5
614.011	26.49
614.203	26.52
614.395	26.12
614.588	26.01
614.78	25.76
614.972	25.31
615.164	25.08
615.356	24.69
615.548	24.27
615.74	23.96
615.932	23.79
616.124	23.49
616.315	23.12
616.507	23
616.699	22.76
616.891	22.54
617.083	22.31
617.275	22.21
617.467	22.23
617.659	22.25
617.85	22.29
618.042	22.52
618.234	22.67
618.426	22.8
618.618	22.77
618.809	22.81
619.001	22.93
619.193	23.2
619.384	23.17
619.576	23.2
619.768	23.28
619.959	23.55
620.151	23.61
620.343	23.53
620.534	23.45
620.726	23.51
620.917	23.56
621.109	23.56
621.301	23.53
621.492	23.55
621.684	23.46
621.875	23.45
622.067	23.12
622.258	22.91
622.45	22.9
622.641	22.94
622.832	23.02
623.024	22.98
623.215	22.96
623.407	22.92
623.598	23.19
623.789	23.15
623.981	23.05
624.172	23.03
624.363	23.01
624.555	23.03
624.746	22.88
624.937	22.76
625.129	22.69
625.32	22.61
625.511	22.62
625.702	22.23
625.893	22.26
626.085	22.18
626.276	22.15
626.467	22.17
626.658	22.08
626.849	22.18
627.04	22.1
627.231	22.26
627.422	22.24
627.614	22.23
627.805	22.41
627.996	22.43
628.187	22.59
628.378	22.68
628.569	22.86
628.76	23.02
628.951	23.12
629.142	23.41
629.332	23.46
629.523	23.62
629.714	23.81
629.905	23.89
630.096	23.98
630.287	24.05
630.478	24.08
630.669	23.9
630.859	24.07
631.05	23.85
631.241	23.68
631.432	23.5
631.623	23.28
631.813	23
632.004	22.69
632.195	22.51
632.385	22.26
632.576	22.14
632.767	22.22
632.957	21.95
633.148	21.96
633.339	21.93
633.529	21.82
633.72	21.99
633.91	21.95
634.101	22.01
634.292	22.13
634.482	22.23
634.673	22.13
634.863	22.11
635.054	22.29
635.244	22.35
635.435	22.35
635.625	22.48
635.815	22.52
636.006	22.63
636.196	22.79
636.387	22.59
636.577	22.64
636.767	22.86
636.958	22.9
637.148	22.66
637.338	22.57
637.529	22.54
637.719	22.6
637.909	22.52
638.099	22.67
638.29	22.69
638.48	22.91
638.67	23.07
638.86	22.87
639.05	22.75
639.241	23.07
639.431	23.17
639.621	23.33
639.811	23.38
640.001	23.51
640.191	23.37
640.381	23.33
640.571	23.28
640.761	23.23
640.951	23.7
641.141	23.7
641.331	23.49
641.521	23.63
641.711	23.79
641.901	23.75
642.091	23.78
642.281	23.66
642.471	23.73
642.661	23.74
642.851	23.71
643.041	23.56
643.231	23.62
643.42	23.8
643.61	23.63
643.8	23.55
643.99	23.65
644.18	23.65
644.369	23.82
644.559	23.89
644.749	23.98
644.939	24.15
645.128	24.13
645.318	24.19
645.508	23.86
645.697	23.71
645.887	23.7
646.076	23.69
646.266	23.79
646.456	23.66
646.645	23.58
646.835	23.35
647.024	23.04
647.214	23.02
647.403	23.06
647.593	23.44
647.782	23.87
647.972	23.63
648.161	23.56
648.351	23.39
648.54	23.57
648.73	23.38
648.919	23.45
649.108	23.4
649.298	23.48
649.487	23.43
649.677	23.24
649.866	23.15
650.055	23.23
650.244	23.13
650.434	23.35
650.623	23.34
650.812	23.53
651.002	23.85
651.191	23.84
651.38	23.97
651.569	23.99
651.758	23.94
651.947	23.66
652.137	23.67
652.326	23.67
652.515	23.6
652.704	23.87
652.893	23.89
653.082	23.73
653.271	24.06
653.46	23.88
653.649	24.09
653.838	24.13
654.027	24.56
654.216	24.55
654.405	24.84
654.594	24.55
654.783	24.19
654.972	24.32
655.161	24.25
655.35	24.25
655.539	24.29
655.728	23.96
655.916	23.98
656.105	23.97
656.294	23.93
656.483	23.71
656.672	23.88
656.86	23.82
657.049	23.66
657.238	23.72
657.427	23.56
657.615	23.22
657.804	23.35
657.993	23.12
658.181	22.92
658.37	22.9
658.559	22.89
658.747	22.81
658.936	22.65
659.125	23.06
659.313	23.11
659.502	22.92
659.69	22.97
659.879	22.9
660.067	23.08
660.256	23.07
660.444	23.24
660.633	23.07
660.821	23.27
661.01	23.69
661.198	23.25
661.387	23.33
661.575	23.61
661.763	23.74
661.952	23.93
662.14	24.08
662.328	24.44
662.517	24.61
662.705	25.15
662.893	24.97
663.082	24.63
663.27	24.83
663.458	24.8
663.646	24.66
663.834	25
664.023	24.86
664.211	24.82
664.399	24.55
664.587	24.6
664.775	24.35
664.963	24.43
665.152	24.88
665.34	24.88
665.528	24.8
665.716	24.72
665.904	24.51
666.092	24.77
666.28	24.8
666.468	25.02
666.656	24.7
666.844	24.78
667.032	24.77
667.22	24.32
667.408	24.27
667.596	24.48
667.784	24.46
667.971	24.59
668.159	24.3
668.347	23.86
668.535	23.52
668.723	23.73
668.911	23.72
669.098	23.92
669.286	24.21
669.474	24.27
669.662	24.03
669.849	24.4
670.037	24.35
670.225	24.42
670.413	24.9
670.6	25.3
670.788	25.17
670.976	25.32
671.163	25.1
671.351	25.09
671.538	25.08
671.726	25.2
671.913	25.16
672.101	25.01
672.289	25.07
672.476	24.92
672.664	24.95
672.851	25.09
673.039	25.18
673.226	25.36
673.413	25.47
673.601	25.29
673.788	25.17
673.976	25.06
674.163	25.12
674.35	25.36
674.538	25.47
674.725	25.27
674.912	25.47
675.1	25.33
675.287	25.2
675.474	25.31
675.662	25.55
675.849	25.49
676.036	25.66
676.223	25.83
676.411	25.68
676.598	25.78
676.785	25.78
676.972	25.5
677.159	25.36
677.346	25.19
677.533	24.97
677.721	24.79
677.908	24.99
678.095	24.57
678.282	24.5
678.469	24.52
678.656	24.33
678.843	24.36
679.03	24.51
679.217	24.54
679.404	24.72
679.591	24.58
679.778	24.71
679.964	24.59
680.151	24.83
680.338	24.76
680.525	24.55
680.712	24.43
680.899	24.4
681.086	24.13
681.272	24
681.459	24.16
681.646	24.58
681.833	24.58
682.02	24.66
682.206	24.8
682.393	24.78
682.58	24.71
682.766	25.11
682.953	25.26
683.14	25.43
683.326	25.88
683.513	25.82
683.7	25.71
683.886	25.74
684.073	25.83
684.259	25.79
684.446	26
684.632	26.28
684.819	26.04
685.005	25.9
685.192	26.06
685.378	25.75
685.565	25.79
685.751	25.68
685.938	25.89
686.124	25.93
686.31	25.61
686.497	25.47
686.683	25.71
686.87	25.85
687.056	25.86
687.242	25.7
687.429	26.01
687.615	25.99
687.801	26.15
687.987	26.12
688.174	26.07
688.36	26.31
688.546	26.36
688.732	26.25
688.918	26.32
689.105	26.21
689.291	26.37
689.477	26.17
689.663	26.22
689.849	26.19
690.035	26.17
690.221	26.52
690.407	26.7
690.593	26.96
690.779	26.99
690.965	26.76
691.151	26.95
691.337	27.12
691.523	27.22
691.709	27.25
691.895	27.25
692.081	27.03
692.267	27.01
692.453	27.09
692.639	26.86
692.825	26.62
693.011	26.95
693.196	27.14
693.382	27.13
693.568	26.98
693.754	26.91
693.94	27
694.125	27.09
694.311	26.7
694.497	26.6
694.682	26.65
694.868	27.25
695.054	27.3
695.239	27.17
695.425	27.24
695.611	27.3
695.796	27.22
695.982	26.97
696.168	27.04
696.353	27.24
696.539	26.95
696.724	26.98
696.91	26.18
697.095	25.85
697.281	25.79
697.466	25.18
697.652	25.25
697.837	24.91
698.023	24.84
698.208	24.61
698.393	24.35
698.579	24.42
698.764	24.18
698.949	24.32
699.135	24.43
699.32	24.24
699.505	24.42
699.691	24.19
699.876	24.34
700.061	24.6
700.246	24.81
700.432	24.73
700.617	24.66
700.802	24.95
700.987	25.1
701.172	24.91
701.358	25.15
701.543	25.58
701.728	26.12
701.913	26.28
702.098	26.12
702.283	26.16
702.468	26.52
702.653	26.9
702.838	26.97
703.023	27.4
703.208	27.91
703.393	27.89
703.578	27.99
703.763	28.11
703.948	28.33
704.133	28.53
704.318	28.48
704.503	28.83
704.688	29.12
704.873	29.18
705.057	29
705.242	29.32
705.427	29.8
705.612	29.85
705.797	29.84
705.981	30.41
706.166	30.45
706.351	30.69
706.536	30.9
706.72	30.47
706.905	30.85
707.09	30.54
707.274	30.49
707.459	30.39
707.644	30.47
707.828	30.31
708.013	29.92
708.197	29.85
708.382	29.87
708.567	29.63
708.751	29.57
708.936	29.06
709.12	29.46
709.305	29.15
709.489	29.22
709.673	29.18
709.858	29.45
710.042	29.73
710.227	29.5
710.411	29.52
710.596	29.68
710.78	30.1
710.964	30.48
711.149	30.59
711.333	30.43
711.517	30.36
711.702	30.43
711.886	30.09
712.07	29.95
712.254	30.18
712.438	30.2
712.623	29.75
712.807	29.62
712.991	29.33
713.175	29.03
713.359	29.03
713.544	28.92
713.728	28.65
713.912	28.74
714.096	28.37
714.28	28.29
714.464	28.09
714.648	28.37
714.832	27.78
715.016	27.45
715.2	27.35
715.384	27.29
715.568	27
715.752	26.77
715.936	26.46
716.12	26.45
716.304	26.6
716.488	26.43
716.671	25.93
716.855	26.31
717.039	26.7
717.223	26.87
717.407	27
717.59	27.47
717.774	27.57
717.958	27.98
718.142	28.25
718.325	27.98
718.509	28.25
718.693	28.72
718.877	28.61
719.06	28.57
719.244	28.48
719.428	29.05
719.611	28.8
719.795	29.02
719.978	28.96
720.162	29.02
720.345	29.19
720.529	29.26
720.713	29.48
720.896	29.98
721.08	29.91
721.263	30.24
721.446	29.72
721.63	29.98
721.813	29.84
721.997	30
722.18	30.16
722.364	30.14
722.547	29.99
722.73	29.72
722.914	29.49
723.097	29.71
723.28	29.44
723.464	29.61
723.647	29.37
723.83	29.28
724.013	29.15
724.197	29.41
724.38	29.58
724.563	29.7
724.746	30.09
724.929	30.66
725.112	31.35
725.296	31.59
725.479	31.37
725.662	31.16
725.845	31.4
726.028	30.91
726.211	30.29
726.394	29.96
726.577	29.79
726.76	29.5
726.943	29.08
727.126	28.04
727.309	27.87
727.492	28.15
727.675	28.39
727.858	28.39
728.041	28.9
728.224	29.04
728.407	28.91
728.589	28.68
728.772	28.62
728.955	28.54
729.138	28.58
729.321	28.4
729.503	28.32
729.686	28.01
729.869	28
730.052	27.74
730.234	27.92
730.417	27.99
730.6	28.3
730.782	28.55
730.965	28.84
731.148	29.15
731.33	29.18
731.513	29.3
731.695	29.43
731.878	29.37
732.061	29.17
732.243	28.57
732.426	28.79
732.608	28.95
732.791	28.72
732.973	28.65
733.156	28.31
733.338	28.43
733.52	27.9
733.703	28.43
733.885	28.26
734.068	28.88
734.25	29.46
734.432	29.36
734.615	29.22
734.797	29.61
734.979	29.53
735.162	29.69
735.344	29.94
735.526	30.32
735.708	30.41
735.891	31.09
736.073	31.09
736.255	31.35
736.437	31.81
736.619	31.67
736.802	31.2
736.984	31.42
737.166	31.93
737.348	32.16
737.53	32.27
737.712	31.85
737.894	31.42
738.076	31.34
738.258	30.9
738.44	30.76
738.622	32.02
738.804	32.51
738.986	32.24
739.168	31.97
739.35	31.88
739.532	31.8
739.714	31.64
739.896	31.66
740.078	31.87
740.259	31.71
740.441	31.89
740.623	30.77
740.805	30.42
740.987	31.05
741.168	31.28
741.35	30.9
741.532	31.46
741.714	32.03
741.895	31.87
742.077	32.14
742.259	32.93
742.44	32.83
742.622	33.47
742.804	33.72
742.985	33.3
743.167	33.29
743.348	34.08
743.53	33.69
743.711	33.53
743.893	34.36
744.075	33.9
744.256	33.46
744.438	33.53
744.619	33.63
744.8	33.83
744.982	34.12
745.163	34.1
745.345	34.25
745.526	34.9
745.707	35.17
745.889	34.48
746.07	34.79
746.252	35.04
746.433	35.43
746.614	34.86
746.795	34.79
746.977	34.79
747.158	35.24
747.339	34.87
747.52	34.52
747.702	34.43
747.883	34.63
748.064	34.73
748.245	34.75
748.426	34
748.607	34.3
748.788	34.33
748.97	34.4
749.151	33.9
749.332	33.41
749.513	32.69
749.694	32.57
749.875	32.75
750.056	32.43
750.237	32.68
750.418	33.05
750.599	33.46
750.78	33.37
750.96	32.76
751.141	32.76
751.322	33.14
751.503	33.56
751.684	33.38
751.865	34.1
752.046	33.54
752.226	33.54
752.407	33.81
752.588	33.18
752.769	33.56
752.949	33.94
753.13	34.16
753.311	34.17
753.492	34.34
753.672	34.97
753.853	34.39
754.034	35.81
754.214	35.56
754.395	35.53
754.575	35.99
754.756	35.51
754.937	35.9
755.117	36.22
755.298	36.15
755.478	36.29
755.659	35.88
755.839	35.67
756.02	34.74
756.2	34.81
756.381	34.37
756.561	34.58
756.741	34.65
756.922	34.06
757.102	33.54
757.283	33.24
757.463	32.55
757.643	32.51
757.823	32.56
758.004	32.89
758.184	32.69
758.364	33.36
758.545	32.7
758.725	33
758.905	32.87
759.085	32.69
759.265	33.22
759.446	33.54
759.626	33.11
759.806	32.94
759.986	32.87
760.166	32.78
760.346	32.39
760.526	32.29
760.706	31.57
760.886	31.24
761.066	31.63
761.246	31.27
761.426	31.31
761.606	30.99
761.786	30.82
761.966	29.77
762.146	29.35
762.326	29.03
762.506	28.65
762.686	29.04
762.866	28.96
763.046	28.52
763.225	28.2
763.405	27.9
763.585	27.55
763.765	27.52
763.945	27.6
764.124	27.52
764.304	27.91
764.484	27.83
764.664	27.52
764.843	27.86
765.023	28.07
765.203	28.3
765.382	28.51
765.562	29.14
765.741	29.09
765.921	29.82
766.101	31
766.28	30.78
766.46	31.68
766.639	31.89
766.819	32.04
766.998	32.21
767.178	33.02
767.357	33.18
767.537	34.36
767.716	34.79
767.896	34.64
768.075	34.02
768.254	34.2
768.434	34.02
768.613	34.87
768.792	36.03
768.972	36.05
769.151	36
769.33	36.36
769.51	36.24
769.689	36.8
769.868	36.67
770.047	37.61
770.226	38.02
770.406	38.76
770.585	37.64
770.764	36.79
770.943	36.99
771.122	36.69
771.301	37.01
771.48	37.09
771.66	37.18
771.839	38.57
772.018	38.02
772.197	38.09
772.376	38.26
772.555	39.57
772.734	39.9
772.913	40.31
773.092	39.54
773.271	39.07
773.449	38.78
773.628	38.41
773.807	37.62
773.986	37.11
774.165	37.09
774.344	36.53
774.523	36.14
774.701	36.76
774.88	37
775.059	38.64
775.238	38.83
775.417	38.74
775.595	39.7
775.774	39.45
775.953	40.11
776.131	40.74
776.31	41.2
776.489	41.61
776.667	40.7
776.846	39.98
777.025	38.84
777.203	39.42
777.382	39.5
777.56	38.98
777.739	39.17
777.917	39.71
778.096	39.38
778.274	38.53
778.453	37.77
778.631	37.81
778.81	37.73
778.988	37.7
779.166	38.03
779.345	38.58
779.523	38.67
779.702	38.56
779.88	38.1
780.058	39.02
780.237	39.54
780.415	40.44
780.593	41.03
780.771	42.04
780.95	43.47
781.128	43.01
781.306	41.5
781.484	41.77
781.662	42.64
781.841	43.47
782.019	43.37
782.197	44.27
782.375	44.87
782.553	44.68
782.731	43.73
782.909	42.75
783.087	43.56
783.265	44
783.443	44.15
783.621	44.67
783.799	43.86
783.977	42.68
784.155	42.63
784.333	41.09
784.511	40.28
784.689	40.99
784.867	42.15
785.045	41.26
785.223	41.77
785.4	41.69
785.578	41.46
785.756	40.66
785.934	41.21
786.112	39.82
786.289	39.74
786.467	40.4
786.645	40.48
786.823	38.83
787	39.56
787.178	39.31
787.356	38.63
787.533	37.72
787.711	39.05
787.889	37.58
788.066	37.52
788.244	37.54
788.421	37.36
788.599	37.78
788.776	38.26
788.954	37.11
789.131	37.12
789.309	37.81
789.486	38.74
789.664	38.7
789.841	39.52
790.019	40.67
790.196	41.5
790.373	41.48
790.551	40.8
790.728	40.66
790.906	40.91
791.083	41.8
791.26	41.87
791.437	40.8
791.615	39.24
791.792	40.17
791.969	39.78
792.146	39.74
792.324	40.34
792.501	40.54
792.678	40.88
792.855	42.41
793.032	41.85
793.209	41.69
793.387	42.85
793.564	43.49
793.741	42.34
793.918	42.83
794.095	42.96
794.272	42.95
794.449	43.52
794.626	44.37
794.803	43.53
794.98	44.04
795.157	43.92
795.334	43.29
795.511	43.51
795.688	44.09
795.864	42.66
796.041	42.44
796.218	42.84
796.395	41.77
796.572	41.12
796.749	40.5
796.925	40.39
797.102	41.15
797.279	40.5
797.456	41.63
797.632	41.03
797.809	41.56
797.986	42.54
798.162	41.65
798.339	41.47
798.516	42.05
798.692	42.92
798.869	42.76
799.046	42.12
799.222	42.29
799.399	41.24
799.575	41.64
799.752	42.04
799.928	40.23
800.105	40.29
800.281	41.67
800.458	41.54
800.634	41.33
800.811	40.91
800.987	40.76
801.163	41.33
801.34	40.7
801.516	40.21
801.692	40.85
801.869	43.11
802.045	43.53
802.221	43.17
802.398	43.58
802.574	42.31
802.75	41.96
802.926	41.84
803.103	41.79
803.279	43.26
803.455	43.73
803.631	42.78
803.807	41.09
803.983	41.94
804.16	41.89
804.336	41.85
804.512	43.66
804.688	45.27
804.864	45.85
805.04	47.19
805.216	47.82
805.392	49.46
805.568	50.35
805.744	51.75
805.92	52.01
806.096	53.38
806.272	53.38
806.448	53.68
806.623	53.3
806.799	52.95
806.975	51.21
807.151	50.62
807.327	49.44
807.503	48.51
807.678	47.5
807.854	45.56
808.03	44.33
808.206	43.21
808.381	43.17
808.557	43.04
808.733	43.48
808.908	44.82
809.084	45.03
809.26	45.29
809.435	46.79
809.611	46.17
809.787	47.02
809.962	47.35
810.138	47.71
810.313	48.24
810.489	50.12
810.664	50.48
810.84	50.68
811.015	49.95
811.191	49.97
811.366	49.02
811.542	49.83
811.717	51.12
811.892	52.61
812.068	52.1
812.243	51.35
812.419	49.65
812.594	49.35
812.769	48.78
812.944	49.98
813.12	50.07
813.295	51.37
813.47	50.48
813.645	50.7
813.821	49.74
813.996	50.95
814.171	50.94
814.346	51.29
814.521	51.29
814.697	51.21
814.872	51.5
815.047	51.4
815.222	49.72
815.397	50.03
815.572	48.91
815.747	47.39
815.922	47.49
816.097	47.28
816.272	46.88
816.447	45.88
816.622	46.85
816.797	45.69
816.972	45.68
817.147	46.54
817.322	46.98
817.496	45.12
817.671	45.65
817.846	44.87
818.021	44.09
818.196	43.92
818.371	45.36
818.545	44.85
818.72	45.08
818.895	43.93
819.069	41.67
819.244	40.34
819.419	40.97
819.594	40.42
819.768	38.9
819.943	38.02
820.117	36.17
820.292	33.66
820.467	30.79
820.641	28.17
820.816	26.45
820.99	25.45
821.165	24.33
821.339	23.64
821.514	22.62
821.688	21.84
821.863	21.45
822.037	21.08
822.212	20.85
822.386	20.79
822.56	20.83
822.735	21.15
822.909	21.02
823.084	21.2
823.258	20.82
823.432	20.91
823.606	21.28
823.781	21.69
823.955	21.78
824.129	22.07
824.303	22.06
824.478	22.11
824.652	22.53
824.826	23.1
825	23.47
825.174	24.8
825.348	25.39
825.523	25.8
825.697	25.73
825.871	26.45
826.045	26.51
826.219	26.7
826.393	27.38
826.567	27.17
826.741	27.45
826.915	27.4
827.089	26.71
827.263	26.63
827.437	25.98
827.611	26.23
827.784	26.35
827.958	25.98
828.132	26.46
828.306	26.18
828.48	26.45
828.654	27.11
828.827	27.12
829.001	26.96
829.175	27.3
829.349	29.74
829.522	29.95
829.696	30.92
829.87	33.65
830.044	35.52
830.217	37.36
830.391	37.7
830.565	38.75
830.738	41.07
830.912	42.64
831.085	43.22
831.259	42.52
831.432	43.12
831.606	42.08
831.779	39.45
831.953	39.02
832.126	37.89
832.3	39.11
832.473	37.39
832.647	35.36
832.82	35.49
832.994	35.32
833.167	34.78
833.34	34.03
833.514	33.05
833.687	32.73
833.86	31.57
834.034	31.26
834.207	30.15
834.38	30.27
834.553	30.37
834.727	30.22
834.9	30.17
835.073	30.38
835.246	30.47
835.419	31.61
835.593	32.36
835.766	33.12
835.939	34.05
836.112	34.65
836.285	35.12
836.458	36.77
836.631	38.02
836.804	39.38
836.977	41.86
837.15	43.21
837.323	44.02
837.496	45.5
837.669	47.05
837.842	48.9
838.015	50.63
838.188	52.01
838.361	52.95
838.533	52.57
838.706	53.89
838.879	51.59
839.052	51.52
839.225	51.57
839.398	50.91
839.57	50.27
839.743	48.19
839.916	48.29
840.088	49.13
840.261	49.03
840.434	50.42
840.607	47.84
840.779	47.96
840.952	48.53
841.124	48.18
841.297	50.95
841.47	52.56
841.642	53.58
841.815	54.75
841.987	54.53
842.16	55.64
842.332	55.38
842.505	57.97
842.677	60.32
842.85	63.8
843.022	68.2
843.194	67.05
843.367	68.95
843.539	70.89
843.712	73.04
843.884	75.11
844.056	78.12
844.229	79.32
844.401	82.56
844.573	82.55
844.745	79.88
844.918	77.49
845.09	80.11
845.262	80.5
845.434	83.04
845.606	81.78
845.779	81.13
845.951	80.64
846.123	83.06
846.295	81.04
846.467	81.83
846.639	84.42
846.811	86.51
846.983	87.8
847.155	87.58
847.327	86.66
847.499	87.98
847.671	90.34
847.843	91.41
848.015	91.33
848.187	92.14
848.359	92.96
848.531	92.42
848.703	92.57
848.875	88.38
849.047	91.5
849.218	91.64
849.39	92.23
849.562	92.27
849.734	91.44
849.905	91.21
850.077	91.65
850.249	87.51
850.421	86.07
850.592	87.91
850.764	89.8
850.936	89.24
851.107	87.58
851.279	86.43
851.451	87.68
851.622	84.51
851.794	85.85
851.965	86.7
852.137	92.81
852.308	94.18
852.48	95.57
852.651	98.39
852.823	98.22
852.994	100.54
853.166	97.26
853.337	97.33
853.509	99.29
853.68	96.13
853.851	96.27
854.023	90.87
854.194	91.21
854.365	85.68
854.537	88.46
854.708	86.93
854.879	83.35
855.05	86.03
855.222	84.04
855.393	85.71
855.564	86.41
855.735	83.86
855.906	85.76
856.078	85.34
856.249	87.54
856.42	79.97
856.591	79.66
856.762	82.57
856.933	80.99
857.104	82.47
857.275	82.84
857.446	84.54
857.617	93.09
857.788	90.82
857.959	89.85
858.13	92.27
858.301	94.96
858.472	98.22
858.643	96
858.814	100.42
858.985	99.5
859.155	100.71
859.326	101.62
859.497	99.37
859.668	105.16
859.839	103.27
860.009	103.8
860.18	107.51
860.351	103.09
860.522	108.74
860.692	106.36
860.863	109.13
861.034	108.21
861.204	103.83
861.375	102.6
861.546	99.36
861.716	103.18
861.887	101.77
862.057	96.85
862.228	98.1
862.398	94.94
862.569	97.48
862.739	91.29
862.91	92.62
863.08	94.3
863.251	90.01
863.421	91.99
863.592	92.77
863.762	97.57
863.932	104.43
864.103	102.81
864.273	100.31
864.443	98.52
864.614	104.51
864.784	101.84
864.954	103.65
865.125	106.56
865.295	109.74
865.465	106.81
865.635	105.28
865.805	101.24
865.976	106.08
866.146	112.97
866.316	114.78
866.486	112.24
866.656	116.43
866.826	114.99
866.996	116.71
867.166	115.23
867.336	117.48
867.506	115.42
867.676	117.92
867.846	117.22
868.016	118.01
868.186	123.87
868.356	124.98
868.526	123.73
868.696	123.46
868.866	120.85
869.036	117.91
869.206	118.62
869.376	115.36
869.545	114.55
869.715	117.89
869.885	116.17
870.055	109.51
870.224	110.27
870.394	109.16
870.564	110.34
870.734	112.54
870.903	112.76
871.073	115.62
871.243	119.53
871.412	114.05
871.582	108.23
871.751	109.94
871.921	110.46
872.091	111.18
872.26	111.45
872.43	112.27
872.599	114.15
872.769	111.38
872.938	109.48
873.108	107.27
873.277	112.3
873.446	118.06
873.616	110.93
873.785	108.59
873.955	108.11
874.124	109.96
874.293	103.41
874.463	99.75
874.632	100.58
874.801	102.27
874.971	102.1
875.14	101.34
875.309	96.61
875.478	98.74
875.647	96.97
875.817	96.76
875.986	97.65
876.155	105.58
876.324	106.58
876.493	112.52
876.662	106.95
876.831	111.53
877	111.89
877.17	113.45
877.339	112.21
877.508	113.43
877.677	111.05
877.846	102.62
878.015	97.18
878.184	93.93
878.352	89.82
878.521	92.9
878.69	86.37
878.859	82.68
879.028	77.01
879.197	72.1
879.366	71.41
879.534	67.69
879.703	66.32
879.872	61.79
880.041	56.2
880.21	51.46
880.378	45.79
880.547	43.19
880.716	40.53
880.884	38.94
881.053	36.65
881.222	34.31
881.39	32.22
881.559	31.42
881.727	30.06
881.896	29.28
882.065	28.63
882.233	28.51
882.402	28.04
882.57	27.64
882.739	28.12
882.907	28.36
883.076	28.2
883.244	28.62
883.412	29.23
883.581	29.69
883.749	30.54
883.918	31.46
884.086	31.62
884.254	33.59
884.423	34.26
884.591	34.17
884.759	36.1
884.927	37.98
885.096	39.67
885.264	40.55
885.432	42.78
885.6	45.78
885.769	48.49
885.937	52.37
886.105	54
886.273	59.16
886.441	63.91
886.609	65.73
886.777	67.19
886.945	69.63
887.113	72.81
887.281	75.48
887.449	79.31
887.617	82.59
887.785	83.45
887.953	85.1
888.121	85.07
888.289	86.03
888.457	88.04
888.625	93.43
888.793	95.54
888.961	96.61
889.129	93.63
889.296	90.98
889.464	89.45
889.632	89.12
889.8	86.51
889.967	84.34
890.135	85.1
