Data from 2938837__Reflection_01.txt Node
Date: Thu Mar 12 10:47:37 EDT 2015
User: robert
Spectrometer: USB4E03002
Autoset integration time: false
Trigger mode: 4
Integration Time (sec): 1.000000E-1
Scans to average: 10
Electric dark correction enabled: false
Nonlinearity correction enabled: false
Boxcar width: 5
Stray light correction enabled: false
XAxis mode: Wavelengths
Stop averaging: false
Number of Pixels in Spectrum: 3648
>>>>>Begin Spectral Data<<<<<
177.575	245.54
177.794	395.95
178.014	387.14
178.233	413.66
178.452	397.97
178.672	417.72
178.891	488.95
179.11	485.09
179.33	441.82
179.549	386.27
179.768	369.86
179.987	681.58
180.207	614.58
180.426	701.95
180.645	513.42
180.864	361.1
181.084	436.22
181.303	386.71
181.522	382.29
181.741	556.21
181.96	1144.3
182.179	1213.91
182.398	704.38
182.618	468.27
182.837	427.83
183.056	540.73
183.275	2198.72
183.494	1134.39
183.713	1636.11
183.932	-6674.07
184.151	5325.81
184.37	653.7
184.589	1310.45
184.808	1314.79
185.027	1510.45
185.246	3976.09
185.465	-1645.54
185.684	1964.65
185.903	194400
186.122	688.75
186.341	422.37
186.56	325.36
186.779	320.43
186.998	315.77
187.216	294.72
187.435	268.8
187.654	281.88
187.873	217.08
188.092	247.01
188.311	211.93
188.53	224.3
188.748	225.69
188.967	286.87
189.186	415.35
189.405	345.49
189.623	313.03
189.842	316.88
190.061	276.3
190.28	271.78
190.498	292.5
190.717	256.38
190.936	253.05
191.154	303.17
191.373	276.99
191.592	251.01
191.81	264.71
192.029	375.7
192.248	350.81
192.466	368.41
192.685	396.01
192.904	294.27
193.122	301.09
193.341	370.47
193.559	299.4
193.778	284.79
193.996	261.56
194.215	268.86
194.433	227.9
194.652	261.4
194.87	389.16
195.089	439.24
195.307	577.13
195.526	1170.59
195.744	1835
195.963	-23816.67
196.181	-1282.88
196.399	-783.06
196.618	-684.14
196.836	-339.4
197.055	-386.73
197.273	-1955.22
197.491	7521.05
197.71	34475
197.928	1560.42
198.146	1364.1
198.365	2157.35
198.583	1223.64
198.801	626.38
199.019	441.71
199.238	313.29
199.456	341.4
199.674	353.11
199.892	337.97
200.111	319.02
200.329	296.62
200.547	248.53
200.765	250.64
200.983	268.29
201.202	305.16
201.42	283.11
201.638	265.75
201.856	295.36
202.074	305.59
202.292	472.97
202.51	665.46
202.728	561.54
202.946	685.16
203.165	417.8
203.383	416.55
203.601	298.21
203.819	386.74
204.037	406.68
204.255	324.34
204.473	287.98
204.691	228.54
204.909	224.06
205.127	232.61
205.345	208.63
205.562	223.43
205.78	228.78
205.998	274.2
206.216	200.95
206.434	192.09
206.652	191.22
206.87	211.05
207.088	203.65
207.306	183.61
207.523	169.57
207.741	172.11
207.959	169.14
208.177	155.8
208.395	140.76
208.612	153.87
208.83	170.71
209.048	176.18
209.266	180.34
209.483	164.7
209.701	186.53
209.919	193.47
210.136	218.84
210.354	263.16
210.572	309.58
210.79	356.33
211.007	519.38
211.225	668.81
211.442	690.71
211.66	598.27
211.878	1138.46
212.095	431.77
212.313	388.29
212.53	325.73
212.748	235.94
212.966	182.75
213.183	144.36
213.401	114.63
213.618	120.08
213.836	118.57
214.053	98.59
214.271	102.91
214.488	159.92
214.705	175.2
214.923	155.93
215.14	157.05
215.358	161.22
215.575	177.99
215.793	165.93
216.01	161.85
216.227	162.59
216.445	163.41
216.662	182.8
216.879	177.62
217.097	173.41
217.314	171.79
217.531	189.88
217.749	181.61
217.966	164.82
218.183	158.13
218.4	152.57
218.618	149.92
218.835	141.53
219.052	140.69
219.269	151.87
219.487	143.51
219.704	138.74
219.921	116.12
220.138	112.14
220.355	120.7
220.572	118.49
220.79	112.34
221.007	123.9
221.224	120.77
221.441	114.8
221.658	95.72
221.875	88.35
222.092	80.93
222.309	85.24
222.526	92.01
222.743	81.28
222.96	78.17
223.177	78.7
223.394	72.39
223.611	70.95
223.828	71.95
224.045	74.65
224.262	70.36
224.479	76.31
224.696	73.67
224.913	67.47
225.13	67.15
225.347	67.06
225.564	60.54
225.781	58.16
225.997	52.3
226.214	44.82
226.431	40.73
226.648	36.8
226.865	32.03
227.082	29.3
227.298	25.83
227.515	20.91
227.732	18.8
227.949	18.65
228.165	16.16
228.382	16.39
228.599	15.02
228.816	13.97
229.032	13.9
229.249	13.39
229.466	13.18
229.682	13.1
229.899	13.71
230.116	13.72
230.332	13.48
230.549	14.42
230.765	14.5
230.982	15.95
231.199	16.4
231.415	16.82
231.632	17.68
231.848	18.86
232.065	19.51
232.281	20.44
232.498	20.34
232.714	22.21
232.931	21.79
233.147	21.83
233.364	22.14
233.58	22.78
233.797	23.67
234.013	24.13
234.23	22.97
234.446	22.27
234.662	21.22
234.879	22.06
235.095	21.17
235.312	21.07
235.528	20.46
235.744	19.71
235.961	19.85
236.177	19.09
236.393	20
236.61	20.81
236.826	22.15
237.042	22.36
237.258	22.9
237.475	22.87
237.691	22.66
237.907	24.28
238.123	26.29
238.339	26.79
238.556	26.7
238.772	25.72
238.988	24.8
239.204	23.46
239.42	22.63
239.636	20.49
239.853	20.67
240.069	20.28
240.285	18.11
240.501	16.9
240.717	15.06
240.933	14.11
241.149	13.74
241.365	13.52
241.581	13.09
241.797	12.7
242.013	11.87
242.229	11.39
242.445	10.91
242.661	11
242.877	10.92
243.093	11.13
243.309	11.29
243.525	10.94
243.741	10.93
243.957	11.16
244.173	12.32
244.388	13.65
244.604	13.45
244.82	14.27
245.036	13.7
245.252	13.41
245.468	12.59
245.683	12.01
245.899	11.43
246.115	10.99
246.331	10.01
246.547	9.16
246.762	8.63
246.978	8.16
247.194	7.8
247.409	7.89
247.625	7.37
247.841	7.25
248.057	7.44
248.272	7.69
248.488	7.82
248.703	8.03
248.919	8.16
249.135	8.66
249.35	9.31
249.566	9.94
249.782	10.88
249.997	12.07
250.213	12.35
250.428	12.34
250.644	12.3
250.859	12.31
251.075	12.94
251.29	13
251.506	12.94
251.721	12.97
251.937	12.13
252.152	11.17
252.368	11.21
252.583	11.99
252.798	12.59
253.014	12.26
253.229	12.59
253.445	12.74
253.66	12.61
253.875	12.07
254.091	12.29
254.306	13.41
254.521	14.48
254.737	14.4
254.952	13.54
255.167	14.04
255.383	14.02
255.598	13.85
255.813	13.58
256.028	14.39
256.244	13.9
256.459	13.32
256.674	14.09
256.889	13.43
257.104	12.3
257.32	12.56
257.535	11.35
257.75	11.17
257.965	9.91
258.18	10.13
258.395	9.52
258.61	9.07
258.826	8.74
259.041	8.15
259.256	8.03
259.471	7.74
259.686	7.58
259.901	7.41
260.116	7.26
260.331	7.38
260.546	7.22
260.761	7.08
260.976	7.3
261.191	7.55
261.406	7.12
261.621	7.46
261.836	8.26
262.05	8.26
262.265	8.91
262.48	9.38
262.695	9.94
262.91	9.57
263.125	10.37
263.34	10.49
263.555	10.17
263.769	10.43
263.984	10.24
264.199	9.67
264.414	9.75
264.629	9.14
264.843	8.49
265.058	8.46
265.273	9.14
265.488	8.71
265.702	9.06
265.917	8.78
266.132	8.75
266.346	8.44
266.561	8.29
266.776	8.53
266.99	8.36
267.205	8.66
267.42	8.38
267.634	8.22
267.849	8.33
268.063	7.95
268.278	7.97
268.492	8.71
268.707	8.76
268.922	9.19
269.136	9.47
269.351	9.31
269.565	9.54
269.78	9.09
269.994	9.18
270.209	9.16
270.423	9.31
270.637	9.65
270.852	8.6
271.066	8.11
271.281	7.63
271.495	7.04
271.709	7.17
271.924	6.58
272.138	6.56
272.353	6.43
272.567	6.01
272.781	5.64
272.996	5.3
273.21	5.87
273.424	5.8
273.638	6.02
273.853	6.02
274.067	5.89
274.281	6.23
274.495	6.43
274.71	6.37
274.924	6.65
275.138	7.37
275.352	7.8
275.566	8.06
275.781	8.44
275.995	8.24
276.209	8.89
276.423	9.5
276.637	9.98
276.851	10.24
277.065	10.08
277.279	10.02
277.493	10.18
277.707	10.35
277.921	10.27
278.135	10.33
278.349	10.5
278.563	9.55
278.777	9.32
278.991	9.11
279.205	8.63
279.419	9.22
279.633	9.39
279.847	8.97
280.061	8.79
280.275	8.36
280.489	8.28
280.703	8.25
280.917	8.51
281.131	8.81
281.344	8.46
281.558	9
281.772	8.45
281.986	8.28
282.2	8.04
282.414	8.11
282.627	8.16
282.841	8.18
283.055	8.09
283.269	7.91
283.482	7.43
283.696	7.22
283.91	6.88
284.123	6.46
284.337	6.37
284.551	6.57
284.764	6.45
284.978	6.19
285.192	5.88
285.405	5.8
285.619	5.77
285.833	5.91
286.046	5.99
286.26	6.13
286.473	6.75
286.687	7.04
286.9	6.9
287.114	6.9
287.327	7.29
287.541	7.49
287.754	7.67
287.968	8.03
288.181	8.23
288.395	8.18
288.608	7.94
288.822	8.07
289.035	7.95
289.248	8.05
289.462	8.3
289.675	8.28
289.889	8.35
290.102	8.41
290.315	8.4
290.529	8.13
290.742	8.28
290.955	8.56
291.169	8.31
291.382	8.25
291.595	8.45
291.808	8.16
292.022	8.38
292.235	8.51
292.448	8.48
292.661	8.25
292.875	8.39
293.088	8.41
293.301	8.14
293.514	8.15
293.727	8.25
293.94	8.17
294.153	8.29
294.367	8.3
294.58	8.19
294.793	8.16
295.006	8.23
295.219	8.13
295.432	8.3
295.645	8.16
295.858	8.14
296.071	8.17
296.284	8.28
296.497	8.14
296.71	7.94
296.923	8.1
297.136	8.26
297.349	8.23
297.562	8.44
297.775	8.49
297.988	9.01
298.201	9.36
298.414	9.42
298.626	9.46
298.839	9.91
299.052	10.24
299.265	10.34
299.478	10.37
299.691	10.67
299.903	10.77
300.116	10.66
300.329	10.78
300.542	10.83
300.755	11.25
300.967	11.32
301.18	11.13
301.393	10.8
301.605	10.87
301.818	11.31
302.031	11.66
302.243	11.54
302.456	11.93
302.669	11.64
302.881	11.29
303.094	10.78
303.307	10.95
303.519	10.97
303.732	11.3
303.944	11.3
304.157	10.72
304.37	10.3
304.582	10.5
304.795	10.36
305.007	10.74
305.22	11.08
305.432	11.13
305.645	11.13
305.857	11.28
306.069	11.48
306.282	11.5
306.494	12.07
306.707	12.32
306.919	12.29
307.132	12.22
307.344	11.75
307.556	12.03
307.769	12.46
307.981	12.41
308.193	12.1
308.406	11.96
308.618	12.09
308.83	11.85
309.043	11.76
309.255	11.5
309.467	11.94
309.679	12.28
309.892	12.19
310.104	11.84
310.316	11.69
310.528	11.83
310.74	11.67
310.953	11.52
311.165	11.69
311.377	11.72
311.589	11.93
311.801	11.79
312.013	11.55
312.225	11.38
312.437	11.31
312.649	11.61
312.862	11.52
313.074	11.52
313.286	11.69
313.498	11.72
313.71	11.71
313.922	11.97
314.134	12.03
314.346	12.45
314.558	12.71
314.77	13.23
314.982	13.23
315.193	13.49
315.405	13.89
315.617	13.98
315.829	13.67
316.041	13.92
316.253	13.86
316.465	13.87
316.677	13.74
316.888	13.67
317.1	13.43
317.312	13.19
317.524	13.32
317.736	13.4
317.947	13.34
318.159	13.89
318.371	13.78
318.583	13.49
318.794	13.1
319.006	13.04
319.218	12.96
319.43	12.9
319.641	12.85
319.853	12.21
320.064	11.91
320.276	11.84
320.488	11.62
320.699	11.6
320.911	12.06
321.123	12.59
321.334	12.22
321.546	12.32
321.757	12.21
321.969	12.52
322.18	12.56
322.392	12.28
322.603	12.57
322.815	12.4
323.026	12.57
323.238	12.12
323.449	11.84
323.661	11.9
323.872	12.11
324.083	12.17
324.295	12.04
324.506	12.56
324.718	12.59
324.929	12.16
325.14	11.87
325.352	11.98
325.563	11.86
325.774	11.81
325.986	11.74
326.197	11.36
326.408	11.59
326.62	11.38
326.831	11.35
327.042	11.33
327.253	11.78
327.464	12.3
327.676	12.02
327.887	12.4
328.098	12.52
328.309	12.76
328.52	12.94
328.732	12.99
328.943	13.38
329.154	13.36
329.365	13.6
329.576	13.53
329.787	13.3
329.998	13.63
330.209	13.46
330.42	13.71
330.631	13.76
330.842	13.6
331.053	13.87
331.264	13.45
331.475	13.27
331.686	13.12
331.897	13.55
332.108	13.23
332.319	13.2
332.53	13.02
332.741	12.52
332.952	12.66
333.163	12.77
333.374	12.57
333.585	12.92
333.795	13
334.006	13.29
334.217	12.73
334.428	13.32
334.639	13.35
334.849	13.49
335.06	14
335.271	13.91
335.482	13.79
335.692	13.26
335.903	13
336.114	12.83
336.325	12.57
336.535	12.46
336.746	12.21
336.957	11.79
337.167	11.98
337.378	11.94
337.589	11.75
337.799	11.89
338.01	12.39
338.22	12.36
338.431	12.66
338.642	12.71
338.852	13.01
339.063	13.25
339.273	13.52
339.484	13.42
339.694	13.28
339.905	13.22
340.115	12.97
340.326	13.04
340.536	13.11
340.746	12.92
340.957	12.92
341.167	12.66
341.378	11.9
341.588	11.6
341.799	11.44
342.009	11.03
342.219	11.15
342.43	11.25
342.64	10.95
342.85	11.09
343.061	10.95
343.271	10.67
343.481	10.68
343.691	11.11
343.902	11.32
344.112	11.45
344.322	11.54
344.532	11.4
344.743	11.68
344.953	11.73
345.163	11.62
345.373	11.55
345.583	11.73
345.793	11.7
346.004	11.63
346.214	11.5
346.424	11.36
346.634	11.51
346.844	11.65
347.054	11.53
347.264	11.45
347.474	11.32
347.684	11.25
347.894	11.35
348.104	11.56
348.314	11.55
348.524	11.78
348.734	12.21
348.944	11.97
349.154	11.91
349.364	11.55
349.574	11.43
349.784	11.44
349.994	11.84
350.204	11.65
350.413	11.25
350.623	11.64
350.833	11.25
351.043	10.87
351.253	11.29
351.463	11.37
351.672	11.32
351.882	11.58
352.092	11.58
352.302	11.25
352.511	11.21
352.721	11.51
352.931	11.13
353.141	11.36
353.35	11.27
353.56	10.86
353.77	10.4
353.979	10.51
354.189	10.15
354.399	10.21
354.608	10.38
354.818	10.54
355.027	10.22
355.237	10.12
355.447	10
355.656	9.9
355.866	10
356.075	10.37
356.285	10.37
356.494	10.47
356.704	10.34
356.913	10.09
357.123	10.09
357.332	10.38
357.542	10.4
357.751	10.25
357.96	10.25
358.17	10.28
358.379	10.28
358.589	10.25
358.798	10.34
359.007	10.42
359.217	10.49
359.426	10.37
359.635	10.27
359.845	10.12
360.054	10.36
360.263	10.43
360.472	10.42
360.682	10.19
360.891	10.05
361.1	9.91
361.309	9.84
361.519	9.62
361.728	9.7
361.937	9.48
362.146	9.57
362.355	9.32
362.564	9.32
362.774	9.21
362.983	9.31
363.192	9.35
363.401	9.39
363.61	9.38
363.819	9.76
364.028	9.49
364.237	9.6
364.446	9.5
364.655	9.49
364.864	9.38
365.073	9.27
365.282	9.05
365.491	9.27
365.7	9.18
365.909	9.33
366.118	9.12
366.327	9.42
366.536	9.69
366.745	9.68
366.954	9.83
367.162	9.66
367.371	9.85
367.58	9.95
367.789	9.68
367.998	9.34
368.207	9.26
368.415	9.38
368.624	9.1
368.833	8.76
369.042	9.09
369.25	9.24
369.459	9.45
369.668	9.31
369.877	9.35
370.085	9.53
370.294	9.77
370.503	9.59
370.711	9.34
370.92	9.43
371.129	9.41
371.337	8.78
371.546	8.55
371.754	8.48
371.963	8.45
372.171	8.37
372.38	8.36
372.589	8.34
372.797	8.35
373.006	8.32
373.214	8.34
373.423	8.24
373.631	8.55
373.84	8.65
374.048	8.52
374.256	8.36
374.465	8.27
374.673	7.98
374.882	8.09
375.09	8.12
375.298	8.19
375.507	8.06
375.715	8.06
375.923	8.07
376.132	7.83
376.34	7.8
376.548	7.87
376.757	7.85
376.965	7.97
377.173	7.96
377.381	7.68
377.59	7.68
377.798	7.68
378.006	7.62
378.214	7.56
378.423	7.79
378.631	7.81
378.839	7.75
379.047	7.7
379.255	7.68
379.463	7.54
379.671	7.85
379.879	7.82
380.088	7.82
380.296	7.83
380.504	7.92
380.712	8.01
380.92	8
381.128	7.85
381.336	7.95
381.544	7.92
381.752	7.88
381.96	7.75
382.168	7.76
382.376	7.5
382.584	7.69
382.791	7.46
382.999	7.07
383.207	7.26
383.415	7.24
383.623	7.21
383.831	7
384.039	7.05
384.247	6.86
384.454	7.03
384.662	7.29
384.87	7.06
385.078	7.27
385.285	7.24
385.493	7
385.701	7.01
385.909	7
386.116	7.09
386.324	7.06
386.532	7.23
386.739	6.97
386.947	6.88
387.155	6.84
387.362	6.52
387.57	6.54
387.778	6.78
387.985	6.76
388.193	6.58
388.4	6.67
388.608	6.77
388.816	6.74
389.023	6.76
389.231	6.73
389.438	6.53
389.646	6.57
389.853	6.7
390.061	6.17
390.268	6.28
390.475	6.4
390.683	6.29
390.89	5.95
391.098	5.67
391.305	5.6
391.512	5.51
391.72	5.62
391.927	5.64
392.135	5.43
392.342	5.71
392.549	5.7
392.756	5.48
392.964	5.44
393.171	5.55
393.378	5.76
393.586	5.64
393.793	5.69
394	5.66
394.207	5.64
394.414	5.62
394.622	5.66
394.829	5.52
395.036	5.66
395.243	5.66
395.45	5.62
395.657	5.54
395.864	5.63
396.072	5.57
396.279	5.56
396.486	5.53
396.693	5.65
396.9	5.62
397.107	5.8
397.314	5.82
397.521	5.8
397.728	5.79
397.935	5.77
398.142	5.65
398.349	5.61
398.556	5.61
398.763	5.65
398.97	5.66
399.177	5.54
399.383	5.61
399.59	5.3
399.797	5.26
400.004	5.28
400.211	5.18
400.418	5.41
400.625	5.28
400.831	5.44
401.038	5.35
401.245	5.27
401.452	5.39
401.658	5.06
401.865	5.47
402.072	5.64
402.279	5.64
402.485	5.6
402.692	5.48
402.899	5.58
403.105	5.26
403.312	5.29
403.519	5.51
403.725	5.21
403.932	5.33
404.138	5.12
404.345	4.82
404.552	4.78
404.758	4.87
404.965	4.85
405.171	4.72
405.378	5.02
405.584	5.03
405.791	4.71
405.997	4.96
406.204	4.93
406.41	4.94
406.617	5.05
406.823	5.03
407.029	4.9
407.236	4.88
407.442	5.14
407.649	5.01
407.855	4.94
408.061	4.99
408.268	4.99
408.474	5.23
408.68	5.16
408.887	5.17
409.093	5.02
409.299	5.21
409.505	5.16
409.712	5.11
409.918	5.09
410.124	5.19
410.33	5.18
410.537	5.06
410.743	4.78
410.949	4.79
411.155	4.77
411.361	4.97
411.567	5.08
411.773	5.22
411.98	5.15
412.186	5.1
412.392	5.02
412.598	4.9
412.804	4.93
413.01	5.02
413.216	5.03
413.422	5.07
413.628	4.98
413.834	4.8
414.04	4.81
414.246	4.73
414.452	4.61
414.658	4.66
414.864	4.83
415.07	4.78
415.275	4.84
415.481	4.88
415.687	4.84
415.893	4.9
416.099	4.81
416.305	4.71
416.511	4.66
416.716	4.72
416.922	4.51
417.128	4.41
417.334	4.46
417.539	4.3
417.745	4.24
417.951	4.25
418.157	4.2
418.362	4.2
418.568	4.29
418.774	4.3
418.979	4.31
419.185	4.37
419.391	4.39
419.596	4.22
419.802	4.32
420.008	4.35
420.213	4.89
420.419	4.84
420.624	4.76
420.83	4.56
421.035	4.55
421.241	4.61
421.446	4.57
421.652	4.53
421.857	4.58
422.063	4.53
422.268	4.49
422.474	3.96
422.679	3.92
422.885	4.05
423.09	4.08
423.295	4.1
423.501	3.98
423.706	4.01
423.911	3.95
424.117	3.94
424.322	3.92
424.527	3.95
424.733	3.96
424.938	3.97
425.143	3.92
425.349	4
425.554	3.97
425.759	4.01
425.964	3.96
426.169	4.07
426.375	4.09
426.58	3.99
426.785	3.99
426.99	3.89
427.195	3.93
427.4	3.93
427.605	3.9
427.811	3.98
428.016	3.9
428.221	3.86
428.426	3.77
428.631	3.81
428.836	3.92
429.041	3.9
429.246	3.99
429.451	3.87
429.656	3.91
429.861	3.97
430.066	3.98
430.271	4.01
430.476	4.15
430.681	4.21
430.886	4.22
431.09	4.25
431.295	4.35
431.5	4.34
431.705	4.39
431.91	4.33
432.115	4.22
432.32	4.18
432.524	4.21
432.729	4.25
432.934	4.18
433.139	4.18
433.343	4.08
433.548	4.01
433.753	4.03
433.958	4.08
434.162	4.13
434.367	4.1
434.572	4.1
434.776	4.02
434.981	4
435.186	4.01
435.39	4.09
435.595	4.27
435.799	4.15
436.004	4.14
436.209	4.17
436.413	4.11
436.618	4.05
436.822	4.04
437.027	4.09
437.231	4.08
437.436	4.17
437.64	4.13
437.845	4.03
438.049	4.17
438.253	4.17
438.458	4.13
438.662	4.14
438.867	4.19
439.071	4.2
439.275	4.24
439.48	4.16
439.684	4.04
439.888	3.97
440.093	4.01
440.297	3.92
440.501	3.89
440.706	3.89
440.91	3.93
441.114	3.95
441.318	3.96
441.523	3.98
441.727	4.01
441.931	4.09
442.135	4
442.339	3.91
442.543	3.9
442.748	4.01
442.952	4.04
443.156	3.96
443.36	4.05
443.564	4
443.768	3.92
443.972	3.98
444.176	4.02
444.38	4.11
444.584	4.08
444.788	4.06
444.992	3.98
445.196	3.95
445.4	3.91
445.604	3.81
445.808	3.75
446.012	3.72
446.216	3.65
446.42	3.61
446.624	3.53
446.828	3.6
447.032	3.59
447.235	3.61
447.439	3.62
447.643	3.63
447.847	3.68
448.051	3.69
448.254	3.74
448.458	3.73
448.662	3.73
448.866	3.78
449.069	3.73
449.273	3.76
449.477	3.7
449.681	3.65
449.884	3.67
450.088	3.69
450.292	3.73
450.495	3.72
450.699	3.73
450.902	3.79
451.106	3.83
451.31	3.87
451.513	3.93
451.717	3.98
451.92	3.93
452.124	3.92
452.327	3.94
452.531	3.94
452.734	3.89
452.938	3.91
453.141	3.96
453.345	3.97
453.548	3.9
453.752	3.79
453.955	3.77
454.158	3.74
454.362	3.8
454.565	3.78
454.769	3.89
454.972	4.06
455.175	4.1
455.379	4.06
455.582	4.07
455.785	4.14
455.988	4.22
456.192	4.31
456.395	4.38
456.598	4.36
456.801	4.26
457.005	4.07
457.208	3.97
457.411	3.94
457.614	3.85
457.817	3.82
458.021	3.77
458.224	3.76
458.427	3.68
458.63	3.75
458.833	3.7
459.036	3.72
459.239	3.77
459.442	3.71
459.645	3.62
459.848	3.65
460.051	3.55
460.254	3.57
460.457	3.54
460.66	3.55
460.863	3.5
461.066	3.51
461.269	3.49
461.472	3.43
461.675	3.58
461.878	3.74
462.081	3.74
462.284	3.86
462.486	3.91
462.689	3.87
462.892	3.93
463.095	3.99
463.298	4.11
463.5	4.09
463.703	4.24
463.906	4.17
464.109	4.09
464.311	4.08
464.514	4.11
464.717	4.05
464.92	4.18
465.122	4.17
465.325	4.14
465.528	4.16
465.73	4.16
465.933	4.04
466.135	3.96
466.338	3.91
466.541	3.97
466.743	4.08
466.946	4.12
467.148	4.17
467.351	4.15
467.553	4.16
467.756	4.11
467.958	4.12
468.161	4.19
468.363	4.26
468.566	4.24
468.768	4.23
468.971	4.08
469.173	4.06
469.375	3.95
469.578	3.94
469.78	3.94
469.983	3.87
470.185	3.93
470.387	3.79
470.59	3.72
470.792	3.89
470.994	3.96
471.196	3.97
471.399	4.01
471.601	4.01
471.803	4.07
472.005	3.95
472.208	3.87
472.41	3.93
472.612	3.96
472.814	3.96
473.016	3.94
473.218	3.93
473.421	3.91
473.623	3.84
473.825	3.81
474.027	3.68
474.229	3.79
474.431	3.9
474.633	3.84
474.835	3.95
475.037	3.94
475.239	3.89
475.441	3.89
475.643	3.98
475.845	3.98
476.047	3.95
476.249	4.08
476.451	4.06
476.653	4.02
476.855	3.97
477.057	3.92
477.258	3.98
477.46	3.9
477.662	3.81
477.864	3.82
478.066	3.8
478.268	3.87
478.469	3.79
478.671	3.81
478.873	3.8
479.075	3.73
479.276	3.71
479.478	3.65
479.68	3.64
479.882	3.68
480.083	3.61
480.285	3.64
480.487	3.65
480.688	3.64
480.89	3.61
481.091	3.57
481.293	3.56
481.495	3.53
481.696	3.48
481.898	3.45
482.099	3.42
482.301	3.36
482.502	3.3
482.704	3.23
482.905	3.2
483.107	3.13
483.308	3.13
483.51	3.12
483.711	3.11
483.913	3.09
484.114	3.08
484.315	3.07
484.517	3.06
484.718	3.07
484.92	3.09
485.121	3.09
485.322	3.1
485.524	3.12
485.725	3.13
485.926	3.1
486.127	3.11
486.329	3.12
486.53	3.12
486.731	3.1
486.932	3.08
487.134	3.08
487.335	3.09
487.536	3.1
487.737	3.07
487.938	3.06
488.139	3.1
488.341	3.14
488.542	3.14
488.743	3.14
488.944	3.17
489.145	3.23
489.346	3.23
489.547	3.21
489.748	3.21
489.949	3.23
490.15	3.27
490.351	3.29
490.552	3.28
490.753	3.27
490.954	3.26
491.155	3.27
491.356	3.26
491.557	3.24
491.758	3.27
491.959	3.31
492.159	3.36
492.36	3.32
492.561	3.35
492.762	3.37
492.963	3.39
493.164	3.46
493.364	3.47
493.565	3.49
493.766	3.53
493.967	3.55
494.167	3.56
494.368	3.56
494.569	3.64
494.769	3.7
494.97	3.71
495.171	3.73
495.371	3.73
495.572	3.79
495.773	3.7
495.973	3.73
496.174	3.68
496.375	3.74
496.575	3.73
496.776	3.72
496.976	3.65
497.177	3.62
497.377	3.63
497.578	3.64
497.778	3.61
497.979	3.68
498.179	3.72
498.38	3.79
498.58	3.74
498.78	3.76
498.981	3.8
499.181	3.77
499.382	3.82
499.582	3.83
499.782	3.82
499.983	3.94
500.183	3.98
500.383	3.99
500.584	4
500.784	4.02
500.984	4.07
501.184	4.1
501.385	4.14
501.585	4.14
501.785	4.23
501.985	4.27
502.185	4.13
502.386	4.11
502.586	4.09
502.786	4.1
502.986	4.17
503.186	4.1
503.386	4.12
503.586	4.17
503.786	4.19
503.987	4.13
504.187	4.27
504.387	4.39
504.587	4.51
504.787	4.67
504.987	4.74
505.187	4.76
505.387	4.88
505.587	4.9
505.786	5.05
505.986	5.08
506.186	5.18
506.386	5.02
506.586	5.05
506.786	5
506.986	4.88
507.186	4.89
507.386	4.93
507.585	4.91
507.785	5.02
507.985	5.02
508.185	5.08
508.384	5.05
508.584	5.13
508.784	5.13
508.984	5.14
509.183	5.27
509.383	5.31
509.583	5.32
509.782	5.33
509.982	5.35
510.182	5.33
510.381	5.32
510.581	5.46
510.781	5.52
510.98	5.56
511.18	5.61
511.379	5.56
511.579	5.57
511.778	5.64
511.978	5.71
512.177	5.65
512.377	5.69
512.576	5.83
512.776	5.79
512.975	5.84
513.175	5.88
513.374	5.98
513.573	6.19
513.773	6.35
513.972	6.34
514.172	6.43
514.371	6.61
514.57	6.72
514.77	6.7
514.969	6.74
515.168	6.79
515.367	6.87
515.567	6.93
515.766	6.86
515.965	6.84
516.164	6.91
516.364	6.92
516.563	6.87
516.762	6.91
516.961	6.98
517.16	7.16
517.359	7.25
517.559	7.32
517.758	7.41
517.957	7.45
518.156	7.51
518.355	7.6
518.554	7.74
518.753	7.86
518.952	7.86
519.151	7.94
519.35	8.02
519.549	8.1
519.748	8.21
519.947	8.3
520.146	8.42
520.345	8.55
520.544	8.68
520.743	8.68
520.942	8.8
521.141	8.97
521.339	9.11
521.538	9.22
521.737	9.26
521.936	9.32
522.135	9.45
522.333	9.55
522.532	9.55
522.731	9.54
522.93	9.73
523.129	9.79
523.327	9.83
523.526	9.91
523.725	9.98
523.923	10.04
524.122	10.11
524.321	10.14
524.519	10.2
524.718	10.33
524.917	10.44
525.115	10.47
525.314	10.5
525.512	10.59
525.711	10.68
525.909	10.72
526.108	10.85
526.306	10.9
526.505	10.95
526.703	11.07
526.902	11.19
527.1	11.3
527.299	11.39
527.497	11.49
527.696	11.59
527.894	11.63
528.092	11.67
528.291	11.75
528.489	11.84
528.688	11.91
528.886	11.93
529.084	11.93
529.283	12
529.481	12.08
529.679	12.12
529.877	12.17
530.076	12.27
530.274	12.39
530.472	12.43
530.67	12.52
530.869	12.57
531.067	12.72
531.265	12.86
531.463	12.92
531.661	12.96
531.859	13.11
532.057	13.22
532.255	13.25
532.454	13.33
532.652	13.39
532.85	13.47
533.048	13.55
533.246	13.61
533.444	13.65
533.642	13.69
533.84	13.78
534.038	13.88
534.236	13.9
534.434	13.96
534.632	13.99
534.83	14.09
535.027	14.11
535.225	14.26
535.423	14.36
535.621	14.43
535.819	14.52
536.017	14.64
536.215	14.72
536.412	14.81
536.61	14.89
536.808	14.97
537.006	14.98
537.203	15.08
537.401	15.13
537.599	15.16
537.797	15.29
537.994	15.43
538.192	15.52
538.39	15.56
538.587	15.72
538.785	15.84
538.983	15.99
539.18	16.19
539.378	16.34
539.575	16.39
539.773	16.43
539.97	16.49
540.168	16.53
540.366	16.55
540.563	16.54
540.761	16.53
540.958	16.54
541.155	16.53
541.353	16.54
541.55	16.54
541.748	16.6
541.945	16.64
542.143	16.63
542.34	16.65
542.537	16.67
542.735	16.79
542.932	16.84
543.129	16.92
543.327	17.06
543.524	17.2
543.721	17.33
543.919	17.48
544.116	17.68
544.313	17.88
544.51	18.02
544.708	18.13
544.905	18.21
545.102	18.38
545.299	18.54
545.496	18.63
545.693	18.63
545.891	18.63
546.088	18.57
546.285	18.5
546.482	18.48
546.679	18.5
546.876	18.53
547.073	18.53
547.27	18.47
547.467	18.46
547.664	18.4
547.861	18.49
548.058	18.47
548.255	18.54
548.452	18.65
548.649	18.71
548.846	18.7
549.043	18.72
549.24	18.72
549.437	18.81
549.633	18.75
549.83	18.8
550.027	18.75
550.224	18.84
550.421	18.94
550.618	18.88
550.814	18.91
551.011	18.95
551.208	19.12
551.405	19.21
551.601	19.14
551.798	19.17
551.995	19.08
552.191	19
552.388	19
552.585	18.91
552.781	18.88
552.978	18.84
553.175	18.81
553.371	18.69
553.568	18.65
553.764	18.67
553.961	18.81
554.157	18.92
554.354	19.06
554.55	19.16
554.747	19.26
554.943	19.36
555.14	19.5
555.336	19.53
555.533	19.55
555.729	19.65
555.926	19.77
556.122	19.67
556.318	19.63
556.515	19.53
556.711	19.41
556.907	19.51
557.104	19.5
557.3	19.47
557.496	19.69
557.693	19.65
557.889	19.55
558.085	19.38
558.281	19.46
558.478	19.66
558.674	19.84
558.87	19.92
559.066	19.83
559.262	19.86
559.459	19.77
559.655	19.61
559.851	19.78
560.047	19.79
560.243	19.96
560.439	20.01
560.635	19.81
560.831	19.71
561.027	19.81
561.223	19.76
561.419	19.91
561.615	19.88
561.811	20.05
562.007	19.91
562.203	19.98
562.399	20.02
562.595	19.93
562.791	20.01
562.987	20.01
563.183	19.96
563.379	19.94
563.575	19.79
563.771	19.97
563.966	19.91
564.162	20.07
564.358	20.09
564.554	20.11
564.75	20.07
564.945	20.14
565.141	20.3
565.337	20.23
565.533	20.29
565.728	20.21
565.924	20.21
566.12	20.13
566.315	20.04
566.511	20.01
566.707	19.93
566.902	20.01
567.098	19.98
567.293	19.94
567.489	19.97
567.684	19.89
567.88	19.91
568.076	19.87
568.271	19.98
568.467	20.04
568.662	20.05
568.858	20.03
569.053	20.08
569.248	20.07
569.444	20
569.639	20
569.835	20.1
570.03	20.25
570.225	20.21
570.421	20.12
570.616	20.15
570.812	20.12
571.007	20.2
571.202	20.22
571.397	20.19
571.593	20.09
571.788	20.2
571.983	20.2
572.178	20.23
572.374	20.35
572.569	20.27
572.764	20.23
572.959	20.25
573.154	20.25
573.35	20.23
573.545	20.36
573.74	20.42
573.935	20.36
574.13	20.3
574.325	20.31
574.52	20.31
574.715	20.41
574.91	20.45
575.105	20.48
575.3	20.37
575.495	20.44
575.69	20.32
575.885	20.48
576.08	20.54
576.275	20.68
576.47	20.66
576.665	20.62
576.86	20.72
577.055	20.83
577.25	20.85
577.444	21.12
577.639	21
577.834	21.16
578.029	21.11
578.224	21.17
578.418	21.16
578.613	21.11
578.808	21.09
579.003	21
579.197	21
579.392	21.07
579.587	21.02
579.781	21.03
579.976	21.02
580.171	21.07
580.365	21.01
580.56	21.2
580.755	21.16
580.949	21.34
581.144	21.49
581.338	21.4
581.533	21.57
581.727	21.54
581.922	21.5
582.116	21.51
582.311	21.6
582.505	21.44
582.7	21.18
582.894	21.37
583.089	21.21
583.283	21.25
583.478	21.43
583.672	21.29
583.866	21.29
584.061	21.46
584.255	21.48
584.449	21.4
584.644	21.66
584.838	21.89
585.032	21.96
585.226	22.03
585.421	21.99
585.615	21.84
585.809	21.86
586.003	21.94
586.198	21.92
586.392	22
586.586	22.1
586.78	22.07
586.974	22.08
587.168	22.06
587.363	22.19
587.557	22.17
587.751	22.23
587.945	22.33
588.139	22.3
588.333	22.31
588.527	22.19
588.721	22.31
588.915	22.26
589.109	22.12
589.303	22.21
589.497	22.11
589.691	22.14
589.885	22.2
590.079	22.04
590.273	22.02
590.466	22.13
590.66	22.16
590.854	21.97
591.048	22.07
591.242	22.19
591.436	22.16
591.629	22.4
591.823	22.33
592.017	22.31
592.211	22.5
592.404	22.59
592.598	22.48
592.792	22.62
592.986	22.61
593.179	22.55
593.373	22.51
593.567	22.34
593.76	22.14
593.954	22.17
594.147	22.23
594.341	22.11
594.535	22.03
594.728	22.13
594.922	22.07
595.115	22.17
595.309	22.22
595.502	22.31
595.696	22.4
595.889	22.5
596.083	22.52
596.276	22.45
596.47	22.42
596.663	22.45
596.856	22.4
597.05	22.5
597.243	22.47
597.437	22.43
597.63	22.36
597.823	22.3
598.017	22.16
598.21	22.13
598.403	22.19
598.596	22.27
598.79	22.22
598.983	22.26
599.176	22.1
599.369	22.16
599.563	22.25
599.756	22.33
599.949	22.41
600.142	22.42
600.335	22.6
600.528	22.59
600.722	22.76
600.915	22.99
601.108	22.96
601.301	23.03
601.494	23.04
601.687	23.06
601.88	22.9
602.073	22.85
602.266	22.81
602.459	22.72
602.652	22.66
602.845	22.48
603.038	22.34
603.231	22.28
603.424	22.37
603.617	22.22
603.809	22.14
604.002	22.32
604.195	22.34
604.388	22.29
604.581	22.28
604.774	22.33
604.966	22.37
605.159	22.41
605.352	22.39
605.545	22.24
605.737	22.27
605.93	22.32
606.123	22.16
606.316	22.19
606.508	22.43
606.701	22.44
606.894	22.53
607.086	22.65
607.279	22.7
607.471	22.88
607.664	23
607.857	23.19
608.049	23.32
608.242	23.66
608.434	23.9
608.627	24.13
608.819	24.48
609.012	24.69
609.204	25.2
609.397	25.4
609.589	26.04
609.782	26.65
609.974	27.24
610.166	27.84
610.359	28.29
610.551	28.74
610.743	29.04
610.936	29.4
611.128	29.79
611.32	29.78
611.513	30.2
611.705	29.99
611.897	29.78
612.09	29.68
612.282	29.4
612.474	29.2
612.666	29.12
612.858	29.11
613.051	28.83
613.243	28.61
613.435	28.63
613.627	28.3
613.819	28.12
614.011	28.11
614.203	27.81
614.395	27.54
614.588	27.2
614.78	26.72
614.972	26.39
615.164	26.04
615.356	25.79
615.548	25.2
615.74	25.17
615.932	25.02
616.124	24.67
616.315	24.47
616.507	24.43
616.699	24.29
616.891	24.27
617.083	24.18
617.275	24.29
617.467	24.16
617.659	24.19
617.85	23.9
618.042	23.78
618.234	23.61
618.426	23.67
618.618	23.65
618.809	23.69
619.001	23.85
619.193	23.89
619.384	23.97
619.576	24.04
619.768	24.01
619.959	24.25
620.151	24.33
620.343	24.42
620.534	24.32
620.726	24.48
620.917	24.55
621.109	24.27
621.301	24.09
621.492	24.15
621.684	24.01
621.875	23.99
622.067	23.85
622.258	23.86
622.45	24.17
622.641	24.16
622.832	24.09
623.024	24.1
623.215	24.02
623.407	24.1
623.598	24.14
623.789	24.38
623.981	24.52
624.172	24.69
624.363	24.58
624.555	24.5
624.746	24.39
624.937	24.11
625.129	24.18
625.32	24.26
625.511	24.34
625.702	24.2
625.893	24.12
626.085	24
626.276	23.88
626.467	23.94
626.658	23.82
626.849	23.94
627.04	24.24
627.231	24.24
627.422	24.36
627.614	24.4
627.805	24.54
627.996	24.53
628.187	24.62
628.378	24.63
628.569	24.73
628.76	24.86
628.951	25.05
629.142	25
629.332	24.98
629.523	25.13
629.714	25.12
629.905	25.11
630.096	25.01
630.287	25.2
630.478	25.31
630.669	25.21
630.859	25.21
631.05	25.11
631.241	25.08
631.432	25.1
631.623	24.79
631.813	24.71
632.004	24.5
632.195	24.62
632.385	24.36
632.576	24.35
632.767	24.47
632.957	24.27
633.148	24.28
633.339	24.2
633.529	23.96
633.72	23.95
633.91	23.97
634.101	23.92
634.292	23.81
634.482	23.89
634.673	23.99
634.863	23.9
635.054	24.13
635.244	24.1
635.435	23.98
635.625	23.99
635.815	24.08
636.006	24.05
636.196	24.18
636.387	24.34
636.577	24.29
636.767	24.28
636.958	24.5
637.148	24.23
637.338	24.17
637.529	24.22
637.719	24.5
637.909	24.63
638.099	24.66
638.29	24.74
638.48	24.57
638.67	24.6
638.86	24.34
639.05	24
639.241	24.24
639.431	24.4
639.621	24.57
639.811	24.48
640.001	24.38
640.191	24.55
640.381	24.34
640.571	24.39
640.761	24.59
640.951	24.67
641.141	24.96
641.331	24.75
641.521	24.81
641.711	24.85
641.901	24.89
642.091	25.02
642.281	24.86
642.471	24.82
642.661	25.07
642.851	24.91
643.041	24.96
643.231	24.84
643.42	25.01
643.61	24.82
643.8	24.85
643.99	24.9
644.18	24.81
644.369	24.81
644.559	24.97
644.749	24.67
644.939	24.81
645.128	24.74
645.318	24.83
645.508	24.85
645.697	25.02
645.887	24.97
646.076	24.73
646.266	24.88
646.456	24.84
646.645	24.88
646.835	25.08
647.024	25.02
647.214	25.07
647.403	24.92
647.593	24.9
647.782	24.79
647.972	24.93
648.161	25.39
648.351	25.32
648.54	25.36
648.73	25.36
648.919	25.29
649.108	25.28
649.298	25.41
649.487	25.43
649.677	25.33
649.866	25.48
650.055	25.32
650.244	25.03
650.434	25.03
650.623	25.03
650.812	25.21
651.002	25.34
651.191	25.34
651.38	25.36
651.569	25.33
651.758	25.6
651.947	25.5
652.137	25.5
652.326	25.26
652.515	25.49
652.704	25.39
652.893	25.31
653.082	25.38
653.271	25.39
653.46	25.22
653.649	25.34
653.838	25.17
654.027	25.02
654.216	25.1
654.405	25.58
654.594	25.22
654.783	25.29
654.972	25.34
655.161	25.07
655.35	24.94
655.539	25
655.728	25.05
655.916	25.05
656.105	25.24
656.294	25.31
656.483	25.2
656.672	25.19
656.86	25.08
657.049	24.73
657.238	24.99
657.427	24.96
657.615	24.9
657.804	24.74
657.993	24.79
658.181	24.75
658.37	24.61
658.559	24.53
658.747	24.6
658.936	24.66
659.125	25.15
659.313	24.98
659.502	25.06
659.69	25.04
659.879	25.09
660.067	25.09
660.256	24.93
660.444	25.05
660.633	24.98
660.821	24.91
661.01	25.07
661.198	24.62
661.387	24.87
661.575	24.61
661.763	24.71
661.952	24.76
662.14	24.66
662.328	25
662.517	25.1
662.705	25.26
662.893	25.46
663.082	25.74
663.27	25.92
663.458	25.69
663.646	26.03
663.834	25.94
664.023	26
664.211	26.03
664.399	25.92
664.587	25.76
664.775	25.81
664.963	25.82
665.152	25.59
665.34	25.41
665.528	25.61
665.716	25.75
665.904	25.82
666.092	25.93
666.28	25.96
666.468	26.01
666.656	26.1
666.844	26.25
667.032	26.12
667.22	26.05
667.408	26.19
667.596	26.15
667.784	26
667.971	26.22
668.159	26.18
668.347	26.1
668.535	25.92
668.723	25.65
668.911	25.29
669.098	25.23
669.286	25.26
669.474	25.24
669.662	25.33
669.849	25.44
670.037	25.33
670.225	25.36
670.413	25.18
670.6	25.39
670.788	25.53
670.976	25.76
671.163	25.98
671.351	26.06
671.538	25.79
671.726	25.73
671.913	25.86
672.101	25.81
672.289	25.62
672.476	25.84
672.664	25.94
672.851	25.93
673.039	26.09
673.226	26.1
673.413	26.09
673.601	26.4
673.788	26.33
673.976	26.19
674.163	26.14
674.35	26.26
674.538	26.51
674.725	26.26
674.912	26.48
675.1	26.18
675.287	26.26
675.474	26.23
675.662	26.33
675.849	26.42
676.036	26.6
676.223	26.7
676.411	26.46
676.598	26.61
676.785	26.71
676.972	26.55
677.159	26.63
677.346	26.62
677.533	26.42
677.721	26.27
677.908	26.41
678.095	26.15
678.282	26
678.469	26.17
678.656	25.81
678.843	25.76
679.03	25.83
679.217	25.95
679.404	25.78
679.591	25.99
679.778	26.06
679.964	25.79
680.151	25.95
680.338	26.11
680.525	26.17
680.712	26.45
680.899	26.55
681.086	26.51
681.272	26.39
681.459	26.28
681.646	26.19
681.833	26.19
682.02	25.99
682.206	25.98
682.393	25.95
682.58	25.91
682.766	25.81
682.953	25.76
683.14	25.86
683.326	26.12
683.513	26.53
683.7	26.7
683.886	26.57
684.073	27
684.259	26.89
684.446	26.91
684.632	27.02
684.819	26.98
685.005	27.14
685.192	27.1
685.378	26.9
685.565	27.03
685.751	27.04
685.938	27.18
686.124	27.26
686.31	27.28
686.497	27.42
686.683	27.36
686.87	27.22
687.056	27.28
687.242	27.27
687.429	27.36
687.615	27.1
687.801	26.82
687.987	27.05
688.174	26.98
688.36	26.87
688.546	26.89
688.732	26.8
688.918	26.97
689.105	27.01
689.291	27.01
689.477	26.92
689.663	26.96
689.849	27.35
690.035	27.34
690.221	27.34
690.407	27.48
690.593	27.57
690.779	28.01
690.965	27.56
691.151	27.34
691.337	27.47
691.523	27.72
691.709	27.66
691.895	27.36
692.081	27.43
692.267	27.55
692.453	27.76
692.639	27.51
692.825	27.59
693.011	28.1
693.196	28.4
693.382	28.47
693.568	28.26
693.754	28.33
693.94	28.1
694.125	27.91
694.311	27.66
694.497	27.56
694.682	27.44
694.868	27.05
695.054	26.87
695.239	26.77
695.425	26.39
695.611	26.44
695.796	26.33
695.982	26.82
696.168	26.73
696.353	26.86
696.539	26.67
696.724	26.76
696.91	26.99
697.095	26.95
697.281	26.78
697.466	26.97
697.652	26.9
697.837	26.69
698.023	26.26
698.208	26.24
698.393	26.3
698.579	26.49
698.764	26.47
698.949	26.1
699.135	26.08
699.32	26.21
699.505	26.06
699.691	25.99
699.876	26.19
700.061	26.44
700.246	26.35
700.432	26.19
700.617	26.12
700.802	26.17
700.987	26.54
701.172	26.37
701.358	26.29
701.543	26.59
701.728	26.85
701.913	27
702.098	27.29
702.283	27.47
702.468	27.47
702.653	27.56
702.838	27.8
703.023	27.63
703.208	28.33
703.393	28.3
703.578	28.4
703.763	28.5
703.948	28.68
704.133	28.49
704.318	28.77
704.503	28.87
704.688	29.01
704.873	29.23
705.057	29.36
705.242	29.25
705.427	29.49
705.612	29.33
705.797	29.4
705.981	29.39
706.166	29.7
706.351	29.69
706.536	29.96
706.72	29.8
706.905	30.11
707.09	30.16
707.274	30.27
707.459	30.7
707.644	30.91
707.828	30.77
708.013	30.8
708.197	30.48
708.382	30.25
708.567	30.32
708.751	30.55
708.936	30.2
709.12	29.96
709.305	30.12
709.489	29.8
709.673	29.98
709.858	30.12
710.042	29.92
710.227	30.12
710.411	30.55
710.596	30.32
710.78	30.24
710.964	30.33
711.149	30.78
711.333	30.68
711.517	30.44
711.702	30.14
711.886	29.99
712.07	30.21
712.254	30.32
712.438	30.31
712.623	30.41
712.807	30.52
712.991	29.8
713.175	29.36
713.359	29.14
713.544	28.78
713.728	28.87
713.912	29.19
714.096	28.6
714.28	28.63
714.464	28.43
714.648	28.1
714.832	28.11
715.016	28.55
715.2	28.7
715.384	29.02
715.568	29.31
715.752	28.91
715.936	28.56
716.12	28.54
716.304	28.13
716.488	28.19
716.671	28.35
716.855	28.03
717.039	27.8
717.223	27.7
717.407	27.33
717.59	27.48
717.774	27.96
717.958	28.04
718.142	28.33
718.325	28.49
718.509	28.52
718.693	28.74
718.877	28.74
719.06	28.98
719.244	28.86
719.428	28.64
719.611	28.54
719.795	27.96
719.978	27.97
720.162	28.21
720.345	28.34
720.529	28.12
720.713	27.92
720.896	28.19
721.08	28.47
721.263	29.57
721.446	29.46
721.63	29.28
721.813	29.46
721.997	29.79
722.18	30.05
722.364	30.32
722.547	30.68
722.73	30.59
722.914	30.89
723.097	30.73
723.28	30.23
723.464	30.65
723.647	30.93
723.83	31.09
724.013	30.96
724.197	30.71
724.38	30.61
724.563	29.84
724.746	29.87
724.929	29.84
725.112	30.14
725.296	29.69
725.479	29.81
725.662	29.73
725.845	30.05
726.028	30.04
726.211	29.75
726.394	29.44
726.577	29.88
726.76	30.12
726.943	29.8
727.126	29.18
727.309	29.46
727.492	29.16
727.675	29.39
727.858	29.3
728.041	29.39
728.224	29.7
728.407	29.65
728.589	29.97
728.772	30.26
728.955	30.28
729.138	30.77
729.321	30.91
729.503	31.39
729.686	31.19
729.869	30.93
730.052	30.61
730.234	30.63
730.417	30.7
730.6	30.6
730.782	30.13
730.965	30.26
731.148	30.17
731.33	29.96
731.513	30.15
731.695	30.1
731.878	29.84
732.061	30.12
732.243	30.52
732.426	30.41
732.608	30.27
732.791	30.71
732.973	30.42
733.156	30.59
733.338	30.46
733.52	29.93
733.703	30.12
733.885	30.71
734.068	30.67
734.25	30.72
734.432	31.03
734.615	31.01
734.797	31.01
734.979	31.14
735.162	31.32
735.344	31.7
735.526	31.67
735.708	31.83
735.891	31.67
736.073	31.51
736.255	31.24
736.437	31.41
736.619	31.66
736.802	31.43
736.984	31.61
737.166	31.36
737.348	31.01
737.53	31.43
737.712	31.24
737.894	31.57
738.076	31.93
738.258	31.74
738.44	31.62
738.622	31.63
738.804	31.6
738.986	31.52
739.168	31.91
739.35	32.6
739.532	32.46
739.714	32.35
739.896	32.32
740.078	31.89
740.259	31.58
740.441	31.93
740.623	31.79
740.805	31.95
740.987	31.97
741.168	31.04
741.35	30.59
741.532	31.19
741.714	31.74
741.895	31.64
742.077	32.18
742.259	32.48
742.44	32.42
742.622	32.56
742.804	32.65
742.985	33.21
743.167	32.99
743.348	32.87
743.53	32.74
743.711	32.68
743.893	32.82
744.075	32.92
744.256	33.34
744.438	33.17
744.619	32.65
744.8	32.37
744.982	31.69
745.163	32.56
745.345	32.82
745.526	32.34
745.707	32.13
745.889	32.81
746.07	32.54
746.252	32.61
746.433	32.67
746.614	33.5
746.795	34.58
746.977	34.84
747.158	34.41
747.339	34.81
747.52	35.34
747.702	34.96
747.883	33.81
748.064	34.31
748.245	33.53
748.426	33.57
748.607	33.92
748.788	33.2
748.97	33.01
749.151	32.96
749.332	32.83
749.513	32.98
749.694	33.89
749.875	34.4
750.056	34.26
750.237	34.61
750.418	34.91
750.599	34.7
750.78	34.51
750.96	34.46
751.141	34.79
751.322	34.2
751.503	33.77
751.684	33.54
751.865	33.66
752.046	33.44
752.226	33.5
752.407	33.13
752.588	32.67
752.769	32.98
752.949	33.24
753.13	33.91
753.311	34.23
753.492	33.77
753.672	33.2
753.853	33.39
754.034	33.33
754.214	33.85
754.395	33.97
754.575	34.16
754.756	34.39
754.937	34.36
755.117	33.53
755.298	33.37
755.478	33.45
755.659	33.57
755.839	33.21
756.02	33.56
756.2	33.24
756.381	32.83
756.561	33.08
756.741	33.21
756.922	33.28
757.102	33.2
757.283	34.01
757.463	34.91
757.643	35.65
757.823	35.58
758.004	34.96
758.184	35.03
758.364	35.12
758.545	34.03
758.725	33.43
758.905	33.27
759.085	33.79
759.265	33.91
759.446	33.08
759.626	32.93
759.806	32.73
759.986	32.58
760.166	32.54
760.346	32.7
760.526	33.64
760.706	34.11
760.886	34.45
761.066	34.07
761.246	33.46
761.426	33.88
761.606	33.09
761.786	33.1
761.966	33.09
762.146	32.37
762.326	32.56
762.506	32.16
762.686	31.6
762.866	31.09
763.046	30.86
763.225	30.74
763.405	30.2
763.585	29.6
763.765	29.31
763.945	29.54
764.124	29.49
764.304	29.27
764.484	29.31
764.664	29.41
764.843	29.77
765.023	30.22
765.203	30.12
765.382	30.5
765.562	31.37
765.741	32.33
765.921	32.48
766.101	32.89
766.28	32.96
766.46	33.58
766.639	33.71
766.819	33.91
766.998	33.8
767.178	33.81
767.357	34.08
767.537	34.6
767.716	34.53
767.896	34.4
768.075	34.13
768.254	34.56
768.434	34.24
768.613	34.79
768.792	34.69
768.972	34.65
769.151	34.4
769.33	33.73
769.51	33.56
769.689	33.13
769.868	34.15
770.047	36.06
770.226	35.06
770.406	35.56
770.585	35.76
770.764	35.94
770.943	37.26
771.122	37.89
771.301	38.79
771.48	38.81
771.66	39.03
771.839	38.46
772.018	37.4
772.197	39.2
772.376	39.11
772.555	38.87
772.734	39.12
772.913	38.37
773.092	39.15
773.271	39.11
773.449	39.13
773.628	38.37
773.807	38.54
773.986	38.39
774.165	36.62
774.344	36.17
774.523	35.19
774.701	35.11
774.88	34.56
775.059	34.09
775.238	34.84
775.417	34.53
775.595	35.82
775.774	34.6
775.953	34.31
776.131	36.05
776.31	35.64
776.489	36.34
776.667	36.09
776.846	36.17
777.025	35.87
777.203	34.86
777.382	35.51
777.56	34.55
777.739	35.97
777.917	36.3
778.096	35.52
778.274	35.52
778.453	36.25
778.631	36.43
778.81	36.3
778.988	36.18
779.166	36.91
779.345	36.74
779.523	37.6
779.702	37.88
779.88	39.33
780.058	38.87
780.237	39.14
780.415	38.89
780.593	38.91
780.771	39.38
780.95	39.89
781.128	39.42
781.306	38.8
781.484	37.91
781.662	37.34
781.841	36.09
782.019	36.01
782.197	36.32
782.375	35.87
782.553	36.28
782.731	36.29
782.909	37.13
783.087	37.39
783.265	38.06
783.443	39.18
783.621	38.96
783.799	39.12
783.977	40.36
784.155	40.1
784.333	40.22
784.511	39.5
784.689	39.76
784.867	38.48
785.045	37.71
785.223	37.82
785.4	37.26
785.578	37.29
785.756	38.06
785.934	38.22
786.112	37.89
786.289	37.4
786.467	37.52
786.645	37.59
786.823	38.9
787	40.38
787.178	40.37
787.356	39.26
787.533	38.99
787.711	38.33
787.889	36.85
788.066	37
788.244	37.44
788.421	38.14
788.599	37.54
788.776	36.71
788.954	36.5
789.131	36.77
789.309	37.74
789.486	38.49
789.664	38.93
789.841	39.56
790.019	39.78
790.196	39.77
790.373	37.86
790.551	38.04
790.728	38.82
790.906	38.9
791.083	38.24
791.26	38.67
791.437	37.41
791.615	35.92
791.792	36.62
791.969	37.59
792.146	37.73
792.324	40.21
792.501	40.75
792.678	40.89
792.855	39.94
793.032	40.19
793.209	40.18
793.387	41.28
793.564	42.11
793.741	42.19
793.918	41.1
794.095	41.75
794.272	40.61
794.449	39.66
794.626	40
794.803	41.02
794.98	41.3
795.157	40.47
795.334	40.3
795.511	40.62
795.688	40.95
795.864	40.68
796.041	40.94
796.218	40.32
796.395	40.23
796.572	38.47
796.749	38.3
796.925	38.53
797.102	39.09
797.279	39.97
797.456	39.74
797.632	38.88
797.809	39.58
797.986	38.71
798.162	40.73
798.339	41.14
798.516	42.59
798.692	42.29
798.869	41.48
799.046	40.93
799.222	40.33
799.399	39.9
799.575	40.06
799.752	40.27
799.928	40.08
800.105	37.76
800.281	37.76
800.458	37.46
800.634	36.42
800.811	38.2
800.987	38.93
801.163	38.03
801.34	39.36
801.516	39.41
801.692	39.71
801.869	40.45
802.045	42.13
802.221	42.42
802.398	41.66
802.574	43.58
802.75	42.55
802.926	41.92
803.103	43.15
803.279	42.6
803.455	43.21
803.631	42.94
803.807	42.9
803.983	42.95
804.16	42.36
804.336	42.34
804.512	41.62
804.688	41.7
804.864	42.85
805.04	42.09
805.216	42.08
805.392	41.46
805.568	41.42
805.744	41.66
805.92	41.15
806.096	42.3
806.272	43.11
806.448	43.84
806.623	45.17
806.799	44.09
806.975	45.17
807.151	44.85
807.327	44.58
807.503	42.98
807.678	42.87
807.854	42.74
808.03	42.44
808.206	42.05
808.381	41.22
808.557	39.68
808.733	40.19
808.908	39.23
809.084	39.47
809.26	38.9
809.435	40.59
809.611	40.14
809.787	39.87
809.962	40.41
810.138	40.69
810.313	41
810.489	41.39
810.664	40.78
810.84	40.72
811.015	40.99
811.191	42.24
811.366	42.26
811.542	42
811.717	42.94
811.892	41.93
812.068	42.26
812.243	42.75
812.419	42.97
812.594	44.04
812.769	45.71
812.944	44.34
813.12	44.22
813.295	43.74
813.47	43.95
813.645	44.2
813.821	45.18
813.996	43.8
814.171	44.01
814.346	43.93
814.521	43.41
814.697	42.81
814.872	44.68
815.047	44.22
815.222	45.14
815.397	46.4
815.572	46.9
815.747	46.38
815.922	47.47
816.097	45.93
816.272	45.13
816.447	45.38
816.622	45.77
816.797	45.6
816.972	46.67
817.147	45.42
817.322	43.22
817.496	41.91
817.671	42.6
817.846	41.52
818.021	42.41
818.196	44.14
818.371	44.23
818.545	42.84
818.72	42.85
818.895	41.33
819.069	40.6
819.244	41.49
819.419	40.74
819.594	39.98
819.768	39.73
819.943	38.14
820.117	36.16
820.292	35.31
820.467	34.84
820.641	33.2
820.816	33.03
820.99	32.24
821.165	31.3
821.339	30.84
821.514	30.62
821.688	30.17
821.863	29.9
822.037	29.62
822.212	29.71
822.386	29.39
822.56	29.28
822.735	29.1
822.909	29.14
823.084	29.31
823.258	29.32
823.432	29.15
823.606	29.43
823.781	29.62
823.955	29.94
824.129	29.83
824.303	30.22
824.478	30.69
824.652	30.83
824.826	31.21
825	31.1
825.174	31.21
825.348	31.49
825.523	31.09
825.697	31.05
825.871	31.11
826.045	31.01
826.219	30.86
826.393	30.5
826.567	30.69
826.741	30.82
826.915	31.34
827.089	32.11
827.263	31.75
827.437	31.72
827.611	31.87
827.784	31.68
827.958	31.66
828.132	31.06
828.306	31.86
828.48	31.7
828.654	31.24
828.827	30.76
829.001	30.01
829.175	30.71
829.349	32.42
829.522	32.66
829.696	32.71
829.87	34.19
830.044	36.28
830.217	36.58
830.391	38.14
830.565	38.96
830.738	39.98
830.912	41.24
831.085	41.84
831.259	41.71
831.432	41.51
831.606	42.69
831.779	41.09
831.953	39.3
832.126	38.62
832.3	37.55
832.473	37.88
832.647	38.18
832.82	37.75
832.994	37.23
833.167	37.22
833.34	37.02
833.514	36.51
833.687	36.3
833.86	36.59
834.034	36.22
834.207	36.67
834.38	36.26
834.553	36.23
834.727	36.14
834.9	36.11
835.073	35.64
835.246	35.94
835.419	36.66
835.593	36.7
835.766	37.15
835.939	38.6
836.112	38.47
836.285	39.12
836.458	40
836.631	41.46
836.804	42.01
836.977	41.84
837.15	43.57
837.323	44.31
837.496	46.06
837.669	47.64
837.842	46.42
838.015	48.1
838.188	49.6
838.361	49.25
838.533	50.36
838.706	51.61
838.879	52.84
839.052	51.61
839.225	51.23
839.398	49.69
839.57	49.05
839.743	50.5
839.916	49.07
840.088	48.92
840.261	49.15
840.434	47.86
840.607	47.22
840.779	46.28
840.952	46.11
841.124	45.2
841.297	46.63
841.47	47.01
841.642	47.8
841.815	48.87
841.987	48.03
842.16	47.9
842.332	47.73
842.505	49.41
842.677	50.72
842.85	51.12
843.022	52.47
843.194	55.33
843.367	56.25
843.539	57.01
843.712	55.07
843.884	57.44
844.056	59.58
844.229	61.62
844.401	59.5
844.573	63.91
844.745	67.24
844.918	66.23
845.09	63.97
845.262	62.25
845.434	60.02
845.606	62.85
845.779	62.92
845.951	62.53
846.123	60.05
846.295	62.91
846.467	59.87
846.639	63.21
846.811	61.96
846.983	60.49
847.155	63.92
847.327	63.69
847.499	63.42
847.671	63.36
847.843	60.44
848.015	62.89
848.187	60.46
848.359	60.79
848.531	56.27
848.703	56.29
848.875	57.67
849.047	57.28
849.218	58.3
849.39	62.86
849.562	65.73
849.734	67.61
849.905	65.13
850.077	68.1
850.249	68.13
850.421	70.27
850.592	70.89
850.764	71.78
850.936	70.98
851.107	71.81
851.279	65.79
851.451	63.14
851.622	62.44
851.794	63.79
851.965	63.55
852.137	63.14
852.308	62.16
852.48	66.87
852.651	65.21
852.823	65.76
852.994	64.75
853.166	66.44
853.337	66.04
853.509	69.61
853.68	69.27
853.851	71.97
854.023	71.16
854.194	75.63
854.365	72.17
854.537	78.33
854.708	76.98
854.879	76.55
855.05	76.25
855.222	79.5
855.393	79.73
855.564	81.22
855.735	76.66
855.906	74.53
856.078	70.13
856.249	70.4
856.42	66.39
856.591	66.26
856.762	62.43
856.933	66.06
857.104	63.97
857.275	63.39
857.446	63.09
857.617	68.26
857.788	71.93
857.959	73.33
858.13	77.67
858.301	77.06
858.472	78.2
858.643	85.61
858.814	83.29
858.985	85.23
859.155	85.56
859.326	81.91
859.497	80.28
859.668	79.77
859.839	80.15
860.009	74.48
860.18	72.31
860.351	73.98
860.522	70.67
860.692	69.79
860.863	70.31
861.034	72.33
861.204	75.05
861.375	72.05
861.546	73.32
861.716	69.99
861.887	73.26
862.057	77.35
862.228	75.53
862.398	75.57
862.569	74.85
862.739	75.18
862.91	69.46
863.08	69.36
863.251	69.26
863.421	68.89
863.592	70.36
863.762	72.36
863.932	71.25
864.103	70.75
864.273	72.89
864.443	76.67
864.614	73.93
864.784	75.18
864.954	73.18
865.125	76.64
865.295	80.74
865.465	82.63
865.635	80.84
865.805	82.83
865.976	84.31
866.146	79.89
866.316	72.73
866.486	76.33
866.656	78.29
866.826	82.16
866.996	77.52
867.166	77.13
867.336	73.97
867.506	77.24
867.676	78.2
867.846	76.58
868.016	80.87
868.186	82.26
868.356	84.96
868.526	83.63
868.696	82.82
868.866	85.77
869.036	82.45
869.206	82.6
869.376	78.11
869.545	71.46
869.715	70.29
869.885	71.49
870.055	69.26
870.224	62.67
870.394	61.8
870.564	61.68
870.734	62.89
870.903	57.03
871.073	60.65
871.243	59.63
871.412	60.21
871.582	65.55
871.751	63.24
871.921	68.52
872.091	71.21
872.26	73.5
872.43	74.54
872.599	70.23
872.769	71.53
872.938	68.59
873.108	68.4
873.277	68.77
873.446	67
873.616	67.85
873.785	65.3
873.955	65.64
874.124	64.7
874.293	63.42
874.463	69.56
874.632	67.53
874.801	69.28
874.971	72.52
875.14	75.87
875.309	74
875.478	72.84
875.647	72.97
875.817	71.21
875.986	73.69
876.155	70.29
876.324	66.22
876.493	71.52
876.662	71.7
876.831	66.95
877	67.21
877.17	67.5
877.339	65.81
877.508	63.75
877.677	65.35
877.846	60.75
878.015	63.16
878.184	61.24
878.352	61.09
878.521	59.69
878.69	61.29
878.859	59.14
879.028	59.43
879.197	62.16
879.366	62.25
879.534	56.94
879.703	54.72
879.872	51.1
880.041	49.99
880.21	47.4
880.378	45.49
880.547	42.47
880.716	40.53
880.884	38.61
881.053	36.87
881.222	36.79
881.39	37.48
881.559	37.22
881.727	36.28
881.896	35.84
882.065	35.07
882.233	34.62
882.402	34.12
882.57	33.94
882.739	33.9
882.907	33.31
883.076	32.38
883.244	32.17
883.412	32.58
883.581	34.03
883.749	34.44
883.918	35.11
884.086	35.94
884.254	37.78
884.423	39.1
884.591	40.43
884.759	42.3
884.927	44.41
885.096	46.43
885.264	47.82
885.432	47.3
885.6	47.61
885.769	47.59
885.937	48.65
886.105	48.67
886.273	50.38
886.441	51.7
886.609	54.35
886.777	55.09
886.945	54.14
887.113	56.89
887.281	57.29
887.449	61.63
887.617	66.95
887.785	69.87
887.953	72.66
888.121	70.18
888.289	71.5
888.457	71.57
888.625	75.98
888.793	79.13
888.961	75.17
889.129	77.03
889.296	77.17
889.464	75.63
889.632	74.02
889.8	73.97
889.967	80.68
890.135	79.54
