Data from 2938759__Reflection_11.txt Node
Date: Fri Mar 13 18:48:29 EDT 2015
User: robert
Spectrometer: USB4E03002
Autoset integration time: false
Trigger mode: 4
Integration Time (sec): 1.000000E-1
Scans to average: 10
Electric dark correction enabled: false
Nonlinearity correction enabled: false
Boxcar width: 5
Stray light correction enabled: false
XAxis mode: Wavelengths
Stop averaging: false
Number of Pixels in Spectrum: 3648
>>>>>Begin Spectral Data<<<<<
177.575	-72.73
177.794	-1107.14
178.014	0.86
178.233	72.97
178.452	15300
178.672	166.47
178.891	225.81
179.11	333.71
179.33	300.81
179.549	495.18
179.768	179.09
179.987	229.03
180.207	652.27
180.426	238.04
180.645	920
180.864	-136.19
181.084	-21.98
181.303	-62.5
181.522	-84.11
181.741	-61.64
181.96	0
182.179	11.87
182.398	42.37
182.618	43.56
182.837	40.47
183.056	72.46
183.275	2.72
183.494	40.71
183.713	239.68
183.932	755
184.151	-28600
184.37	-38.36
184.589	-62.95
184.808	20.96
185.027	22.31
185.246	39.52
185.465	6.85
185.684	39.19
185.903	93.61
186.122	205.41
186.341	-17.05
186.56	615.38
186.779	48.63
186.998	32.77
187.216	69.23
187.435	71.62
187.654	51.28
187.873	33.88
188.092	61.35
188.311	80.86
188.53	79.59
188.748	19.37
188.967	-34.88
189.186	-21.66
189.405	67.32
189.623	114.83
189.842	187.36
190.061	178.95
190.28	97.98
190.498	136.53
190.717	142.96
190.936	136.17
191.154	124.84
191.373	93.94
191.592	202.06
191.81	-2781.25
192.029	-985
192.248	-157.32
192.466	-83.2
192.685	-113.17
192.904	-243.79
193.122	-1121.28
193.341	-844.74
193.559	-1030.77
193.778	4427.27
193.996	229.61
194.215	140.11
194.433	206.54
194.652	370.83
194.87	4000
195.089	54.88
195.307	409.68
195.526	111.46
195.744	42.86
195.963	37.63
196.181	64.43
196.399	36.16
196.618	2.41
196.836	30.41
197.055	-21.25
197.273	-103.14
197.491	-57.33
197.71	-66.77
197.928	-189.24
198.146	-181.41
198.365	-263.64
198.583	-323.96
198.801	-144.22
199.019	-28.83
199.238	-71.47
199.456	-41.74
199.674	10.49
199.892	-2.8
200.111	-0.7
200.329	22.53
200.547	25.89
200.765	55.91
200.983	69.64
201.202	47.89
201.42	38.62
201.638	-8.03
201.856	44.8
202.074	50.71
202.292	36.43
202.51	17.65
202.728	-14.49
202.946	21.96
203.165	19.25
203.383	-70.1
203.601	-186.96
203.819	26.34
204.037	37.5
204.255	-9.69
204.473	-79.32
204.691	-19.78
204.909	31.87
205.127	17.68
205.345	5.8
205.562	9.97
205.78	-23.67
205.998	10.21
206.216	-0.51
206.434	14.5
206.652	1.83
206.87	12.32
207.088	-12.52
207.306	-16.19
207.523	-10.98
207.741	-3.82
207.959	13.34
208.177	16.6
208.395	28.1
208.612	-28.68
208.83	-14.13
209.048	24.6
209.266	41.46
209.483	55.46
209.701	30.05
209.919	52.23
210.136	37.21
210.354	3.22
210.572	38.18
210.79	8.47
211.007	28.22
211.225	28.68
211.442	18.96
211.66	18.17
211.878	27.2
212.095	42.29
212.313	9.19
212.53	38.35
212.748	50.23
212.966	16.32
213.183	1.62
213.401	15.31
213.618	8.46
213.836	-7.84
214.053	-49.75
214.271	-58.33
214.488	-0.56
214.705	-3.71
214.923	16.59
215.14	10.18
215.358	9.33
215.575	40.18
215.793	32.34
216.01	49.45
216.227	61.88
216.445	57.12
216.662	57.52
216.879	44.97
217.097	44.19
217.314	22.06
217.531	17.39
217.749	17.63
217.966	0.96
218.183	16.55
218.4	3.04
218.618	-11.72
218.835	-12.05
219.052	-8.32
219.269	-7.43
219.487	-5.52
219.704	0.59
219.921	6.78
220.138	10.41
220.355	9.81
220.572	3.84
220.79	1.65
221.007	0
221.224	-11.48
221.441	-6.32
221.658	-2.81
221.875	2.93
222.092	9.2
222.309	8.8
222.526	0.47
222.743	-5.83
222.96	-3.1
223.177	-4.59
223.394	-1.34
223.611	1.32
223.828	5.43
224.045	2.08
224.262	-2.27
224.479	-1.18
224.696	2.9
224.913	8.96
225.13	9.86
225.347	6.82
225.564	7.07
225.781	5.39
225.997	8.2
226.214	6.73
226.431	3.85
226.648	6.13
226.865	3.61
227.082	0.88
227.298	1.27
227.515	2.57
227.732	1.85
227.949	1.63
228.165	2.12
228.382	2.84
228.599	2.95
228.816	3.18
229.032	3.22
229.249	2.68
229.466	3.5
229.682	3.43
229.899	4.56
230.116	4.42
230.332	3.87
230.549	3.7
230.765	1.52
230.982	0.06
231.199	-0.11
231.415	-0.7
231.632	-0.81
231.848	-1
232.065	-1.83
232.281	-4.62
232.498	-4
232.714	-2.17
232.931	-2.31
233.147	0.02
233.364	3.21
233.58	3.17
233.797	1.74
234.013	3.13
234.23	1.74
234.446	2.54
234.662	2.22
234.879	2.88
235.095	4.75
235.312	5.75
235.528	5.02
235.744	2.15
235.961	2.5
236.177	4.99
236.393	6.42
236.61	6.82
236.826	6.6
237.042	8.5
237.258	8.32
237.475	7.53
237.691	5.29
237.907	3.93
238.123	5.39
238.339	4.9
238.556	2.72
238.772	-0.31
238.988	-0.32
239.204	0.9
239.42	-0.38
239.636	1.01
239.853	0.53
240.069	2.36
240.285	3.78
240.501	3.02
240.717	2.28
240.933	2.92
241.149	3.24
241.365	2.84
241.581	2.35
241.797	2.34
242.013	1.77
242.229	1.79
242.445	1.22
242.661	0.49
242.877	0.12
243.093	0.63
243.309	0.24
243.525	0.49
243.741	0.42
243.957	0.79
244.173	1.19
244.388	1.88
244.604	1.34
244.82	1.54
245.036	1.87
245.252	2.14
245.468	2.24
245.683	2.45
245.899	2.34
246.115	2.44
246.331	2.2
246.547	2.07
246.762	1.43
246.978	1.72
247.194	1.33
247.409	1.53
247.625	1.63
247.841	1.38
248.057	1.35
248.272	1.44
248.488	1.26
248.703	1.19
248.919	0.86
249.135	1.02
249.35	0.77
249.566	1.18
249.782	1.34
249.997	1.24
250.213	1.62
250.428	1.06
250.644	0.72
250.859	1.52
251.075	0.96
251.29	0.84
251.506	1.16
251.721	1.21
251.937	1.44
252.152	0.98
252.368	0.69
252.583	0.59
252.798	1.2
253.014	0.7
253.229	-0.06
253.445	0.26
253.66	0.67
253.875	0.14
254.091	0.93
254.306	0.99
254.521	1.16
254.737	2.06
254.952	2.76
255.167	3.35
255.383	3.57
255.598	3.88
255.813	4.03
256.028	4.06
256.244	4.48
256.459	4.19
256.674	3.29
256.889	3.21
257.104	3.04
257.32	2.64
257.535	1.49
257.75	1.21
257.965	0.87
258.18	0.64
258.395	0.67
258.61	0.31
258.826	-0.03
259.041	0.12
259.256	0.22
259.471	0.05
259.686	0.05
259.901	0.25
260.116	0.37
260.331	0.5
260.546	0.7
260.761	0.59
260.976	0.65
261.191	0.8
261.406	0.67
261.621	0.63
261.836	0.7
262.05	0.37
262.265	0.26
262.48	0.18
262.695	0.15
262.91	-0.2
263.125	-0.04
263.34	0.12
263.555	0.04
263.769	-0.07
263.984	-0.48
264.199	0.12
264.414	0.71
264.629	1.12
264.843	1.33
265.058	1.2
265.273	1.59
265.488	1.19
265.702	0.81
265.917	0.64
266.132	1.26
266.346	1.28
266.561	0.81
266.776	0.8
266.99	0.89
267.205	0.44
267.42	0.01
267.634	0.12
267.849	0.38
268.063	0.99
268.278	1.26
268.492	1.1
268.707	1.57
268.922	1.51
269.136	1.03
269.351	0.68
269.565	0.69
269.78	1.23
269.994	0.82
270.209	0.53
270.423	0.09
270.637	0.04
270.852	0.16
271.066	-0.29
271.281	-0.19
271.495	0.05
271.709	0.21
271.924	0.63
272.138	0.67
272.353	0.74
272.567	0.98
272.781	1.17
272.996	0.81
273.21	0.52
273.424	0.74
273.638	1
273.853	1.07
274.067	0.95
274.281	0.64
274.495	0.61
274.71	0.9
274.924	0.91
275.138	0.94
275.352	1.2
275.566	1.67
275.781	1.52
275.995	0.92
276.209	0.85
276.423	0.52
276.637	0.93
276.851	1.28
277.065	0.99
277.279	0.31
277.493	0.15
277.707	-0.02
277.921	-0.33
278.135	0.05
278.349	0.65
278.563	0.98
278.777	1.39
278.991	0.95
279.205	0.58
279.419	0.1
279.633	0.92
279.847	0.78
280.061	0.87
280.275	1.29
280.489	1.18
280.703	1.22
280.917	0.71
281.131	0.52
281.344	0.54
281.558	0.64
281.772	1.01
281.986	1.18
282.2	1.32
282.414	1.13
282.627	0.68
282.841	0.72
283.055	0.41
283.269	0.61
283.482	0.68
283.696	0.96
283.91	0.53
284.123	0.72
284.337	0.27
284.551	0.07
284.764	0.43
284.978	0.52
285.192	0.2
285.405	0.6
285.619	0.76
285.833	1.05
286.046	1.08
286.26	1.3
286.473	1.31
286.687	1.3
286.9	1.56
287.114	1.53
287.327	1.61
287.541	2.16
287.754	1.69
287.968	1.6
288.181	1.37
288.395	1.08
288.608	1.11
288.822	1.02
289.035	1.29
289.248	1.09
289.462	0.84
289.675	0.64
289.889	0.34
290.102	0.47
290.315	0.12
290.529	0.02
290.742	0.08
290.955	0.22
291.169	0.29
291.382	0.17
291.595	0.51
291.808	0.49
292.022	0.59
292.235	0.68
292.448	0.57
292.661	0.82
292.875	1.09
293.088	1.3
293.301	1.23
293.514	0.81
293.727	0.85
293.94	0.54
294.153	0.83
294.367	0.84
294.58	0.6
294.793	0.86
295.006	0.88
295.219	0.65
295.432	0.44
295.645	0.46
295.858	0.73
296.071	0.65
296.284	0.85
296.497	0.78
296.71	1.07
296.923	1.46
297.136	1.51
297.349	1.56
297.562	1.47
297.775	1.62
297.988	1.92
298.201	2.04
298.414	2.14
298.626	2.31
298.839	2.38
299.052	2.39
299.265	2.13
299.478	2.09
299.691	2.29
299.903	2.3
300.116	2.39
300.329	2.29
300.542	2.09
300.755	2.23
300.967	2.26
301.18	2.33
301.393	2.1
301.605	1.95
301.818	1.79
302.031	1.44
302.243	1.69
302.456	1.55
302.669	0.91
302.881	1.1
303.094	1.15
303.307	1.04
303.519	1
303.732	1.18
303.944	1.44
304.157	1.66
304.37	1.7
304.582	1.77
304.795	1.97
305.007	2.69
305.22	2.71
305.432	2.64
305.645	2.38
305.857	2.67
306.069	2.82
306.282	2.78
306.494	2.87
306.707	2.98
306.919	3.29
307.132	2.87
307.344	2.7
307.556	2.55
307.769	2.64
307.981	2.82
308.193	2.79
308.406	2.76
308.618	2.95
308.83	2.72
309.043	3.06
309.255	3.06
309.467	3.41
309.679	3.31
309.892	3.31
310.104	3.22
310.316	3.12
310.528	3.13
310.74	2.8
310.953	2.65
311.165	2.77
311.377	2.85
311.589	2.75
311.801	2.62
312.013	2.51
312.225	2.61
312.437	2.6
312.649	2.69
312.862	2.66
313.074	2.88
313.286	3.21
313.498	3.37
313.71	3
313.922	2.99
314.134	3.19
314.346	3.64
314.558	3.73
314.77	3.93
314.982	3.8
315.193	3.68
315.405	3.97
315.617	4
315.829	3.78
316.041	4.5
316.253	4.82
316.465	4.71
316.677	4.62
316.888	4.49
317.1	4.3
317.312	4.69
317.524	4.86
317.736	4.77
317.947	4.33
318.159	4.5
318.371	4.21
318.583	3.77
318.794	3.91
319.006	4.22
319.218	4.46
319.43	4.89
319.641	4.92
319.853	4.99
320.064	5.36
320.276	5.6
320.488	6.1
320.699	5.74
320.911	6.07
321.123	6.35
321.334	6.17
321.546	5.86
321.757	5.47
321.969	5.14
322.18	5.32
322.392	5.31
322.603	5.46
322.815	5.46
323.026	5.73
323.238	6.03
323.449	6.02
323.661	5.91
323.872	6.21
324.083	6.58
324.295	6.85
324.506	7.32
324.718	7.34
324.929	7.63
325.14	7.79
325.352	8.11
325.563	8.02
325.774	8.18
325.986	8.41
326.197	8.66
326.408	9.18
326.62	9.77
326.831	9.66
327.042	10.01
327.253	10.17
327.464	10.52
327.676	11
327.887	11.59
328.098	11.91
328.309	12.38
328.52	13.06
328.732	13.22
328.943	12.92
329.154	13.12
329.365	13.07
329.576	13.24
329.787	13.38
329.998	13.42
330.209	13.64
330.42	14.04
330.631	13.93
330.842	14.14
331.053	14.25
331.264	14.64
331.475	14.49
331.686	15.18
331.897	15.31
332.108	15.5
332.319	15.61
332.53	15.93
332.741	16.03
332.952	16.33
333.163	15.78
333.374	15.84
333.585	16.07
333.795	16.79
334.006	16.29
334.217	16.58
334.428	16.14
334.639	16.3
334.849	15.95
335.06	16.06
335.271	16.16
335.482	16.32
335.692	16.41
335.903	16.47
336.114	16.69
336.325	16.97
336.535	16.94
336.746	17.4
336.957	17.29
337.167	17.52
337.378	17.48
337.589	17.8
337.799	17.82
338.01	17.59
338.22	17.77
338.431	17.62
338.642	17.74
338.852	17.81
339.063	17.75
339.273	17.72
339.484	17.76
339.694	17.7
339.905	17.33
340.115	17.62
340.326	18.07
340.536	17.96
340.746	17.62
340.957	17.66
341.167	17.64
341.378	17.97
341.588	18.02
341.799	17.85
342.009	17.97
342.219	18.09
342.43	18.15
342.64	17.81
342.85	17.81
343.061	18.06
343.271	18.1
343.481	17.96
343.691	17.66
343.902	17.6
344.112	17.74
344.322	17.78
344.532	18.01
344.743	17.85
344.953	18.14
345.163	18.32
345.373	18.35
345.583	18.22
345.793	18.42
346.004	18.36
346.214	18.34
346.424	18.36
346.634	18.43
346.844	18.14
347.054	18.06
347.264	17.8
347.474	17.72
347.684	17.55
347.894	17.87
348.104	17.99
348.314	18.07
348.524	18.16
348.734	18.26
348.944	18.04
349.154	18.4
349.364	18.66
349.574	18.83
349.784	18.98
349.994	19.08
350.204	18.85
350.413	18.55
350.623	18.61
350.833	18.6
351.043	18.58
351.253	18.56
351.463	18.24
351.672	18.14
351.882	17.96
352.092	17.98
352.302	17.94
352.511	17.91
352.721	17.82
352.931	17.85
353.141	17.81
353.35	17.36
353.56	17.35
353.77	17.39
353.979	17.3
354.189	17.28
354.399	16.83
354.608	16.51
354.818	16.38
355.027	16.41
355.237	16.27
355.447	16.42
355.656	16.64
355.866	16.61
356.075	16.58
356.285	16.72
356.494	16.62
356.704	16.64
356.913	16.88
357.123	16.82
357.332	16.83
357.542	16.82
357.751	16.64
357.96	16.57
358.17	16.61
358.379	16.51
358.589	16.3
358.798	16.64
359.007	16.73
359.217	16.57
359.426	16.66
359.635	16.54
359.845	16.76
360.054	16.59
360.263	16.72
360.472	16.64
360.682	16.6
360.891	16.48
361.1	16.26
361.309	16.08
361.519	15.94
361.728	15.97
361.937	15.98
362.146	15.79
362.355	15.88
362.564	15.66
362.774	15.72
362.983	15.7
363.192	15.94
363.401	15.91
363.61	16.14
363.819	16.32
364.028	16.32
364.237	16.53
364.446	16.37
364.655	16.44
364.864	16.52
365.073	16.37
365.282	16.45
365.491	16.35
365.7	16.38
365.909	16.44
366.118	16.65
366.327	16.5
366.536	16.27
366.745	16.44
366.954	16.44
367.162	16.37
367.371	16.52
367.58	16.24
367.789	16.27
367.998	16.07
368.207	15.94
368.415	15.47
368.624	15.51
368.833	15.68
369.042	15.63
369.25	15.63
369.459	15.56
369.668	15.62
369.877	15.87
370.085	15.85
370.294	16.02
370.503	15.98
370.711	16.17
370.92	16.17
371.129	15.98
371.337	15.9
371.546	15.88
371.754	15.97
371.963	15.92
372.171	15.96
372.38	16.3
372.589	16.26
372.797	16.21
373.006	16.32
373.214	16.5
373.423	16.86
373.631	17.13
373.84	17.13
374.048	17.09
374.256	17.08
374.465	17.03
374.673	16.59
374.882	16.59
375.09	16.48
375.298	16.35
375.507	16.23
375.715	15.94
375.923	15.88
376.132	15.87
376.34	15.87
376.548	15.76
376.757	15.77
376.965	15.77
377.173	15.72
377.381	15.83
377.59	15.84
377.798	15.74
378.006	15.77
378.214	15.59
378.423	15.29
378.631	15.31
378.839	15.28
379.047	15.12
379.255	14.95
379.463	14.93
379.671	14.86
379.879	14.92
380.088	14.93
380.296	14.92
380.504	14.81
380.712	15
380.92	14.99
381.128	14.98
381.336	14.97
381.544	15.25
381.752	15.15
381.96	15.1
382.168	15.16
382.376	15.3
382.584	15.54
382.791	15.63
382.999	15.72
383.207	15.89
383.415	15.73
383.623	15.85
383.831	15.74
384.039	15.97
384.247	16.01
384.454	15.95
384.662	15.81
384.87	15.7
385.078	15.69
385.285	15.68
385.493	15.57
385.701	15.7
385.909	15.7
386.116	15.8
386.324	15.81
386.532	15.89
386.739	15.78
386.947	15.79
387.155	15.77
387.362	15.75
387.57	15.62
387.778	15.59
387.985	15.65
388.193	15.63
388.4	15.71
388.608	15.71
388.816	15.6
389.023	15.77
389.231	15.77
389.438	15.87
389.646	16.07
389.853	16.11
390.061	15.97
390.268	15.98
390.475	16.14
390.683	15.99
390.89	15.88
391.098	15.84
391.305	15.65
391.512	15.63
391.72	15.59
391.927	15.51
392.135	15.46
392.342	15.49
392.549	15.47
392.756	15.41
392.964	15.38
393.171	15.41
393.378	15.51
393.586	15.75
393.793	15.91
394	15.9
394.207	15.8
394.414	15.83
394.622	15.88
394.829	15.81
395.036	15.76
395.243	15.84
395.45	15.83
395.657	15.7
395.864	15.56
396.072	15.28
396.279	15.21
396.486	15.38
396.693	15.32
396.9	15.33
397.107	15.41
397.314	15.38
397.521	15.25
397.728	15.24
397.935	15.48
398.142	15.51
398.349	15.7
398.556	15.7
398.763	15.69
398.97	15.89
399.177	15.99
399.383	16.07
399.59	15.94
399.797	16.1
400.004	16.2
400.211	16.12
400.418	16.08
400.625	16.09
400.831	16.06
401.038	15.97
401.245	15.95
401.452	15.74
401.658	15.5
401.865	15.44
402.072	15.12
402.279	14.9
402.485	14.81
402.692	14.85
402.899	14.87
403.105	14.97
403.312	15.08
403.519	15.14
403.725	15.22
403.932	15.33
404.138	15.58
404.345	15.71
404.552	15.9
404.758	16.04
404.965	16.08
405.171	16
405.378	15.88
405.584	15.83
405.791	15.82
405.997	15.81
406.204	15.84
406.41	15.78
406.617	15.89
406.823	15.73
407.029	15.69
407.236	15.72
407.442	15.59
407.649	15.74
407.855	15.69
408.061	15.5
408.268	15.51
408.474	15.67
408.68	15.8
408.887	15.86
409.093	16.1
409.299	16.09
409.505	16.05
409.712	16.27
409.918	16.26
410.124	16.34
410.33	16.52
410.537	16.67
410.743	16.61
410.949	16.59
411.155	16.57
411.361	16.47
411.567	16.42
411.773	16.29
411.98	16.22
412.186	16.32
412.392	16.33
412.598	16.32
412.804	16.1
413.01	16.16
413.216	16.1
413.422	16.1
413.628	16.1
413.834	16.19
414.04	16.36
414.246	16.39
414.452	16.27
414.658	16.24
414.864	16.11
415.07	16.29
415.275	16.32
415.481	16.33
415.687	16.32
415.893	16.31
416.099	16.31
416.305	16.19
416.511	16.26
416.716	16.32
416.922	16.4
417.128	16.63
417.334	16.67
417.539	16.63
417.745	16.46
417.951	16.44
418.157	16.45
418.362	16.4
418.568	16.51
418.774	16.52
418.979	16.47
419.185	16.47
419.391	16.33
419.596	16.3
419.802	16.32
420.008	16.53
420.213	16
420.419	16.04
420.624	16.11
420.83	16.07
421.035	16.07
421.241	16.08
421.446	16.1
421.652	16.22
421.857	16.28
422.063	16.24
422.268	16.23
422.474	16.75
422.679	16.85
422.885	16.83
423.09	16.88
423.295	16.99
423.501	17.05
423.706	16.96
423.911	16.9
424.117	16.92
424.322	16.98
424.527	16.99
424.733	17.05
424.938	16.98
425.143	16.98
425.349	17
425.554	16.83
425.759	16.8
425.964	16.91
426.169	16.94
426.375	16.93
426.58	16.91
426.785	16.93
426.99	16.88
427.195	16.9
427.4	16.97
427.605	16.95
427.811	17.08
428.016	17.25
428.221	17.27
428.426	17.25
428.631	17.26
428.836	17.31
429.041	17.38
429.246	17.4
429.451	17.58
429.656	17.64
429.861	17.71
430.066	17.7
430.271	17.57
430.476	17.55
430.681	17.6
430.886	17.6
431.09	17.6
431.295	17.56
431.5	17.61
431.705	17.52
431.91	17.58
432.115	17.68
432.32	17.76
432.524	17.73
432.729	17.71
432.934	17.72
433.139	17.92
433.343	17.91
433.548	17.96
433.753	18.06
433.958	18.03
434.162	17.99
434.367	17.95
434.572	17.97
434.776	18.06
434.981	18.17
435.186	18.28
435.39	18.16
435.595	18.18
435.799	18.1
436.004	18.08
436.209	18.16
436.413	18.3
436.618	18.29
436.822	18.38
437.027	18.48
437.231	18.46
437.436	18.44
437.64	18.51
437.845	18.59
438.049	18.69
438.253	18.8
438.458	18.76
438.662	18.72
438.867	18.78
439.071	18.73
439.275	18.66
439.48	18.75
439.684	18.76
439.888	18.72
440.093	18.72
440.297	18.67
440.501	18.58
440.706	18.64
440.91	18.62
441.114	18.65
441.318	18.6
441.523	18.67
441.727	18.66
441.931	18.62
442.135	18.66
442.339	18.62
442.543	18.7
442.748	18.68
442.952	18.59
443.156	18.59
443.36	18.64
443.564	18.64
443.768	18.61
443.972	18.56
444.176	18.52
444.38	18.56
444.584	18.58
444.788	18.51
444.992	18.57
445.196	18.61
445.4	18.56
445.604	18.51
445.808	18.47
446.012	18.47
446.216	18.47
446.42	18.56
446.624	18.44
446.828	18.45
447.032	18.44
447.235	18.37
447.439	18.38
447.643	18.32
447.847	18.28
448.051	18.36
448.254	18.37
448.458	18.29
448.662	18.22
448.866	18.34
449.069	18.28
449.273	18.26
449.477	18.38
449.681	18.37
449.884	18.49
450.088	18.5
450.292	18.52
450.495	18.54
450.699	18.63
450.902	18.74
451.106	18.78
451.31	18.73
451.513	18.77
451.717	18.78
451.92	18.76
452.124	18.69
452.327	18.67
452.531	18.62
452.734	18.55
452.938	18.5
453.141	18.51
453.345	18.42
453.548	18.55
453.752	18.56
453.955	18.44
454.158	18.44
454.362	18.57
454.565	18.62
454.769	18.69
454.972	18.76
455.175	18.75
455.379	18.7
455.582	18.78
455.785	18.81
455.988	18.84
456.192	18.88
456.395	18.91
456.598	18.78
456.801	18.94
457.005	19.02
457.208	18.93
457.411	19.11
457.614	19.09
457.817	18.98
458.021	19.04
458.224	19.07
458.427	19
458.63	19.03
458.833	19.07
459.036	18.91
459.239	18.82
459.442	18.89
459.645	18.87
459.848	18.82
460.051	18.84
460.254	18.83
460.457	18.83
460.66	18.89
460.863	18.87
461.066	18.9
461.269	19
461.472	18.98
461.675	18.95
461.878	18.89
462.081	18.93
462.284	18.98
462.486	18.86
462.689	18.83
462.892	18.81
463.095	18.87
463.298	18.8
463.5	18.77
463.703	18.81
463.906	18.81
464.109	18.74
464.311	18.8
464.514	18.66
464.717	18.73
464.92	18.65
465.122	18.62
465.325	18.65
465.528	18.67
465.73	18.52
465.933	18.38
466.135	18.49
466.338	18.58
466.541	18.66
466.743	18.75
466.946	18.84
467.148	18.94
467.351	18.94
467.553	18.9
467.756	18.96
467.958	19.08
468.161	19.33
468.363	19.3
468.566	19.38
468.768	19.23
468.971	19.25
469.173	19.12
469.375	19.15
469.578	19.2
469.78	19.15
469.983	19.21
470.185	19.15
470.387	18.99
470.59	18.92
470.792	18.85
470.994	19.02
471.196	19.07
471.399	19.12
471.601	19.09
471.803	19.11
472.005	19.13
472.208	19.1
472.41	19.14
472.612	19.19
472.814	19.27
473.016	19.32
473.218	19.25
473.421	19.17
473.623	19.17
473.825	19.22
474.027	19.3
474.229	19.37
474.431	19.4
474.633	19.5
474.835	19.6
475.037	19.59
475.239	19.59
475.441	19.67
475.643	19.73
475.845	19.76
476.047	19.73
476.249	19.5
476.451	19.48
476.653	19.43
476.855	19.38
477.057	19.25
477.258	19.19
477.46	19.11
477.662	19
477.864	19.01
478.066	18.98
478.268	18.96
478.469	19.09
478.671	19.13
478.873	19.13
479.075	19.04
479.276	19.08
479.478	19.06
479.68	19.09
479.882	19.14
480.083	19.17
480.285	19.19
480.487	19.22
480.688	19.2
480.89	19.11
481.091	19.11
481.293	19.24
481.495	19.27
481.696	19.31
481.898	19.29
482.099	19.28
482.301	19.27
482.502	19.32
482.704	19.3
482.905	19.29
483.107	19.29
483.308	19.26
483.51	19.18
483.711	19.15
483.913	19.15
484.114	19.14
484.315	19.13
484.517	19.08
484.718	19.01
484.92	19.01
485.121	18.98
485.322	18.98
485.524	18.95
485.725	18.99
485.926	19.02
486.127	19.03
486.329	19.03
486.53	19.02
486.731	19.07
486.932	19.1
487.134	19.08
487.335	19.12
487.536	19.15
487.737	19.2
487.938	19.19
488.139	19.18
488.341	19.13
488.542	19.15
488.743	19.17
488.944	19.15
489.145	19.15
489.346	19.2
489.547	19.17
489.748	19.15
489.949	19.15
490.15	19.19
490.351	19.26
490.552	19.33
490.753	19.33
490.954	19.33
491.155	19.32
491.356	19.36
491.557	19.31
491.758	19.33
491.959	19.34
492.159	19.37
492.36	19.38
492.561	19.29
492.762	19.25
492.963	19.27
493.164	19.25
493.364	19.32
493.565	19.32
493.766	19.39
493.967	19.45
494.167	19.47
494.368	19.49
494.569	19.51
494.769	19.53
494.97	19.6
495.171	19.58
495.371	19.66
495.572	19.69
495.773	19.68
495.973	19.63
496.174	19.66
496.375	19.63
496.575	19.6
496.776	19.63
496.976	19.71
497.177	19.65
497.377	19.69
497.578	19.69
497.778	19.68
497.979	19.69
498.179	19.59
498.38	19.57
498.58	19.62
498.78	19.62
498.981	19.59
499.181	19.48
499.382	19.55
499.582	19.56
499.782	19.5
499.983	19.43
500.183	19.44
500.383	19.61
500.584	19.65
500.784	19.56
500.984	19.6
501.184	19.66
501.385	19.85
501.585	19.85
501.785	19.8
501.985	19.93
502.185	19.94
502.386	20
502.586	19.98
502.786	19.94
502.986	20.02
503.186	20.03
503.386	20.05
503.586	20.03
503.786	20.01
503.987	20.14
504.187	19.95
504.387	19.98
504.587	19.86
504.787	19.92
504.987	20.06
505.187	20.12
505.387	20.08
505.587	20.04
505.786	19.96
505.986	19.96
506.186	19.94
506.386	20.13
506.586	20.25
506.786	20.33
506.986	20.33
507.186	20.28
507.386	20.33
507.585	20.42
507.785	20.44
507.985	20.52
508.185	20.55
508.384	20.64
508.584	20.69
508.784	20.63
508.984	20.62
509.183	20.62
509.383	20.65
509.583	20.63
509.782	20.62
509.982	20.6
510.182	20.6
510.381	20.68
510.581	20.58
510.781	20.48
510.98	20.53
511.18	20.52
511.379	20.55
511.579	20.55
511.778	20.55
511.978	20.53
512.177	20.64
512.377	20.68
512.576	20.68
512.776	20.79
512.975	20.88
513.175	20.87
513.374	20.91
513.573	20.91
513.773	20.92
513.972	20.94
514.172	20.97
514.371	20.97
514.57	20.94
514.77	20.91
514.969	20.91
515.168	20.89
515.367	20.96
515.567	21.08
515.766	21.09
515.965	21.17
516.164	21.21
516.364	21.18
516.563	21.17
516.762	21.25
516.961	21.37
517.16	21.36
517.359	21.43
517.559	21.35
517.758	21.3
517.957	21.32
518.156	21.32
518.355	21.29
518.554	21.36
518.753	21.39
518.952	21.37
519.151	21.27
519.35	21.31
519.549	21.27
519.748	21.3
519.947	21.34
520.146	21.39
520.345	21.33
520.544	21.45
520.743	21.44
520.942	21.48
521.141	21.51
521.339	21.64
521.538	21.58
521.737	21.69
521.936	21.76
522.135	21.8
522.333	21.75
522.532	21.8
522.731	21.81
522.93	21.77
523.129	21.78
523.327	21.85
523.526	21.81
523.725	21.87
523.923	21.84
524.122	21.89
524.321	21.88
524.519	22.02
524.718	22.08
524.917	22.06
525.115	22.13
525.314	22.17
525.512	22.17
525.711	22.22
525.909	22.19
526.108	22.22
526.306	22.23
526.505	22.28
526.703	22.26
526.902	22.31
527.1	22.32
527.299	22.36
527.497	22.35
527.696	22.36
527.894	22.35
528.092	22.39
528.291	22.39
528.489	22.36
528.688	22.33
528.886	22.3
529.084	22.24
529.283	22.25
529.481	22.21
529.679	22.17
529.877	22.13
530.076	22.12
530.274	22.07
530.472	22.05
530.67	22.11
530.869	22.18
531.067	22.3
531.265	22.37
531.463	22.43
531.661	22.53
531.859	22.62
532.057	22.69
532.255	22.79
532.454	22.86
532.652	22.94
532.85	22.91
533.048	22.94
533.246	22.91
533.444	22.93
533.642	22.89
533.84	22.92
534.038	22.91
534.236	22.97
534.434	22.92
534.632	22.94
534.83	22.96
535.027	23.07
535.225	23
535.423	23.04
535.621	23.09
535.819	23.15
536.017	23.12
536.215	23.15
536.412	23.13
536.61	23.19
536.808	23.2
537.006	23.2
537.203	23.12
537.401	23.17
537.599	23.21
537.797	23.2
537.994	23.22
538.192	23.32
538.39	23.43
538.587	23.46
538.785	23.51
538.983	23.62
539.18	23.71
539.378	23.89
539.575	23.97
539.773	23.97
539.97	24.01
540.168	24.06
540.366	24.03
540.563	23.96
540.761	24.01
540.958	23.97
541.155	23.98
541.353	23.94
541.55	23.93
541.748	23.92
541.945	23.94
542.143	23.96
542.34	23.99
542.537	23.94
542.735	24.04
542.932	23.99
543.129	24.07
543.327	24.06
543.524	24.16
543.721	24.18
543.919	24.22
544.116	24.34
544.313	24.44
544.51	24.5
544.708	24.68
544.905	24.73
545.102	24.83
545.299	24.97
545.496	25.03
545.693	25.08
545.891	25.07
546.088	25.11
546.285	25
546.482	24.91
546.679	24.84
546.876	24.79
547.073	24.79
547.27	24.8
547.467	24.68
547.664	24.71
547.861	24.65
548.058	24.66
548.255	24.64
548.452	24.69
548.649	24.78
548.846	24.8
549.043	24.88
549.24	24.84
549.437	24.98
549.633	24.92
549.83	24.84
550.027	24.85
550.224	24.93
550.421	25.01
550.618	25
550.814	24.99
551.011	25.01
551.208	24.93
551.405	24.95
551.601	24.83
551.798	24.94
551.995	24.99
552.191	24.99
552.388	24.95
552.585	24.89
552.781	24.83
552.978	24.87
553.175	24.9
553.371	24.96
553.568	24.94
553.764	24.97
553.961	24.97
554.157	24.93
554.354	24.9
554.55	24.92
554.747	25.04
554.943	25.05
555.14	25.03
555.336	25
555.533	25
555.729	25.12
555.926	24.94
556.122	24.99
556.318	25.02
556.515	25.12
556.711	25.17
556.907	25.09
557.104	25.17
557.3	25.14
557.496	25.11
557.693	25.04
557.889	24.88
558.085	25.05
558.281	25.01
558.478	25.03
558.674	24.93
558.87	24.9
559.066	25
559.262	25.02
559.459	25.08
559.655	25.1
559.851	25.21
560.047	25.41
560.243	25.42
560.439	25.55
560.635	25.65
560.831	25.79
561.027	25.74
561.223	25.64
561.419	25.64
561.615	25.64
561.811	25.69
562.007	25.64
562.203	25.5
562.399	25.53
562.595	25.57
562.791	25.54
562.987	25.54
563.183	25.42
563.379	25.56
563.575	25.59
563.771	25.6
563.966	25.62
564.162	25.59
564.358	25.74
564.554	25.64
564.75	25.61
564.945	25.42
565.141	25.5
565.337	25.64
565.533	25.59
565.728	25.66
565.924	25.73
566.12	25.74
566.315	25.85
566.511	25.73
566.707	25.92
566.902	25.76
567.098	25.95
567.293	25.77
567.489	25.76
567.684	25.87
567.88	25.86
568.076	25.75
568.271	25.72
568.467	25.79
568.662	25.93
568.858	25.81
569.053	25.93
569.248	26.05
569.444	26.21
569.639	26.31
569.835	26.26
570.03	26.24
570.225	26.3
570.421	26.33
570.616	26.2
570.812	26.17
571.007	26.1
571.202	26.09
571.397	26.04
571.593	26.01
571.788	26.05
571.983	25.98
572.178	25.97
572.374	25.98
572.569	26.03
572.764	26.07
572.959	26.04
573.154	26.19
573.35	26.21
573.545	26.14
573.74	26.17
573.935	26.07
574.13	26.11
574.325	26.17
574.52	26.21
574.715	26.27
574.91	26.3
575.105	26.42
575.3	26.47
575.495	26.47
575.69	26.45
575.885	26.38
576.08	26.45
576.275	26.56
576.47	26.51
576.665	26.53
576.86	26.41
577.055	26.46
577.25	26.44
577.444	26.4
577.639	26.53
577.834	26.71
578.029	26.8
578.224	26.85
578.418	26.81
578.613	27.01
578.808	27.2
579.003	27.43
579.197	27.48
579.392	27.33
579.587	27.34
579.781	27.3
579.976	27.33
580.171	27.42
580.365	27.37
580.56	27.42
580.755	27.27
580.949	27.14
581.144	27.03
581.338	27.1
581.533	27.35
581.727	27.25
581.922	27.26
582.116	27.29
582.311	27.22
582.505	27.36
582.7	27.4
582.894	27.45
583.089	27.57
583.283	27.53
583.478	27.35
583.672	27.32
583.866	27.6
584.061	27.64
584.255	27.54
584.449	27.67
584.644	27.57
584.838	27.55
585.032	27.65
585.226	27.65
585.421	27.73
585.615	27.98
585.809	28.03
586.003	27.94
586.198	27.87
586.392	27.94
586.586	27.94
586.78	28.11
586.974	28.19
587.168	28.25
587.363	28.16
587.557	28.25
587.751	28.28
587.945	28.26
588.139	28.07
588.333	28.13
588.527	28.23
588.721	28.2
588.915	28
589.109	28
589.303	27.93
589.497	27.98
589.691	27.85
589.885	27.67
590.079	27.78
590.273	28.02
590.466	28.19
590.66	28.16
590.854	28.14
591.048	28.33
591.242	28.37
591.436	28.31
591.629	28.37
591.823	28.51
592.017	28.54
592.211	28.49
592.404	28.52
592.598	28.48
592.792	28.44
592.986	28.49
593.179	28.41
593.373	28.29
593.567	28.34
593.76	28.23
593.954	28.23
594.147	28.3
594.341	28.34
594.535	28.28
594.728	28.3
594.922	28.46
595.115	28.48
595.309	28.55
595.502	28.77
595.696	28.79
595.889	28.81
596.083	28.78
596.276	28.75
596.47	28.71
596.663	28.82
596.856	28.66
597.05	28.64
597.243	28.66
597.437	28.61
597.63	28.5
597.823	28.57
598.017	28.7
598.21	28.77
598.403	28.83
598.596	28.84
598.79	28.93
598.983	29.09
599.176	29
599.369	28.98
599.563	29.07
599.756	29.1
599.949	29.12
600.142	29.06
600.335	29.03
600.528	29.03
600.722	29.12
600.915	28.89
601.108	29.02
601.301	29.18
601.494	29.31
601.687	29.4
601.88	29.51
602.073	29.33
602.266	29.39
602.459	29.39
602.652	29.35
602.845	29.33
603.038	29.42
603.231	29.35
603.424	29.29
603.617	29.21
603.809	29.09
604.002	29.07
604.195	29.19
604.388	29.19
604.581	29.23
604.774	29.34
604.966	29.36
605.159	29.38
605.352	29.38
605.545	29.25
605.737	29.26
605.93	29.19
606.123	29.25
606.316	29.22
606.508	29.18
606.701	29.2
606.894	29.09
607.086	29.14
607.279	29.19
607.471	29.24
607.664	29.49
607.857	29.71
608.049	30.02
608.242	30.24
608.434	30.52
608.627	30.89
608.819	31.36
609.012	31.94
609.204	32.41
609.397	32.74
609.589	33.31
609.782	33.81
609.974	34.25
610.166	34.81
610.359	35.29
610.551	35.86
610.743	36.36
610.936	36.56
611.128	36.74
611.32	37.01
611.513	37.34
611.705	37.25
611.897	37.24
612.09	37.27
612.282	37.11
612.474	36.89
612.666	36.43
612.858	36.09
613.051	35.85
613.243	35.48
613.435	35.01
613.627	34.58
613.819	34.43
614.011	34.3
614.203	33.86
614.395	33.51
614.588	33.24
614.78	33.09
614.972	32.73
615.164	32.51
615.356	32.39
615.548	32.18
615.74	32.19
615.932	31.91
616.124	31.67
616.315	31.68
616.507	31.71
616.699	31.63
616.891	31.75
617.083	31.69
617.275	31.62
617.467	31.5
617.659	31.7
617.85	31.47
618.042	31.84
618.234	31.86
618.426	31.7
618.618	31.68
618.809	31.63
619.001	31.41
619.193	31.59
619.384	31.61
619.576	31.7
619.768	31.5
619.959	31.54
620.151	31.17
620.343	31.02
620.534	31.24
620.726	31.36
620.917	31.52
621.109	31.6
621.301	31.6
621.492	31.5
621.684	31.64
621.875	31.8
622.067	31.69
622.258	31.99
622.45	32.1
622.641	31.9
622.832	31.8
623.024	31.63
623.215	31.48
623.407	31.35
623.598	31.35
623.789	31.13
623.981	31.2
624.172	31.51
624.363	31.26
624.555	31.46
624.746	31.55
624.937	31.56
625.129	31.72
625.32	31.88
625.511	32
625.702	32.07
625.893	32.26
626.085	32.23
626.276	32.31
626.467	32.42
626.658	32.38
626.849	32.46
627.04	32.52
627.231	32.49
627.422	32.48
627.614	32.46
627.805	32.61
627.996	32.59
628.187	32.5
628.378	32.36
628.569	32.35
628.76	32.39
628.951	32.36
629.142	32.38
629.332	32.25
629.523	32.35
629.714	32.48
629.905	32.48
630.096	32.58
630.287	32.62
630.478	32.58
630.669	32.63
630.859	32.61
631.05	32.43
631.241	32.55
631.432	32.64
631.623	32.51
631.813	32.48
632.004	32.4
632.195	32.43
632.385	32.5
632.576	32.6
632.767	32.39
632.957	32.27
633.148	32.24
633.339	31.94
633.529	31.91
633.72	31.96
633.91	31.76
634.101	31.74
634.292	31.49
634.482	31.55
634.673	31.4
634.863	31.53
635.054	31.53
635.244	31.78
635.435	32.03
635.625	32.05
635.815	32.19
636.006	32.31
636.196	32.3
636.387	32.38
636.577	32.07
636.767	32.11
636.958	32.25
637.148	32.19
637.338	32.19
637.529	31.96
637.719	32.01
637.909	31.88
638.099	31.65
638.29	31.51
638.48	31.66
638.67	31.89
638.86	31.83
639.05	31.66
639.241	31.89
639.431	31.91
639.621	32.05
639.811	31.77
640.001	31.59
640.191	31.86
640.381	31.96
640.571	31.98
640.761	32.12
640.951	32.27
641.141	32.33
641.331	31.98
641.521	31.9
641.711	31.96
641.901	32.12
642.091	32.48
642.281	32.42
642.471	32.19
642.661	32.12
642.851	31.97
643.041	31.84
643.231	31.81
643.42	32.25
643.61	32.08
643.8	31.97
643.99	32.09
644.18	32.01
644.369	32.15
644.559	32.44
644.749	32.52
644.939	32.58
645.128	32.79
645.318	32.7
645.508	32.33
645.697	32.67
645.887	32.79
646.076	32.65
646.266	32.75
646.456	32.71
646.645	32.58
646.835	32.37
647.024	32.25
647.214	32.32
647.403	32.53
647.593	32.69
647.782	32.54
647.972	32.43
648.161	32.3
648.351	32.18
648.54	32.1
648.73	32.28
648.919	32.57
649.108	32.77
649.298	32.74
649.487	32.65
649.677	32.62
649.866	32.88
650.055	33.11
650.244	33.45
650.434	33.7
650.623	33.81
650.812	33.8
651.002	33.74
651.191	33.81
651.38	33.66
651.569	33.82
651.758	33.98
651.947	33.9
652.137	33.74
652.326	33.69
652.515	33.66
652.704	33.86
652.893	33.87
653.082	33.72
653.271	33.71
653.46	33.94
653.649	33.65
653.838	33.62
654.027	33.44
654.216	33.45
654.405	33.52
654.594	33.28
654.783	32.96
654.972	33.02
655.161	33.24
655.35	33.19
655.539	32.93
655.728	33.2
655.916	33.22
656.105	33.35
656.294	33.35
656.483	33.49
656.672	33.62
656.86	34.1
657.049	33.96
657.238	33.71
657.427	33.66
657.615	33.74
657.804	33.64
657.993	33.55
658.181	33.33
658.37	33.34
658.559	33.21
658.747	33.05
658.936	32.85
659.125	32.65
659.313	32.8
659.502	32.74
659.69	32.8
659.879	32.83
660.067	32.98
660.256	33.15
660.444	33.28
660.633	33.22
660.821	33.4
661.01	33.37
661.198	33.74
661.387	33.68
661.575	33.96
661.763	33.9
661.952	34.06
662.14	33.95
662.328	33.94
662.517	33.91
662.705	34.07
662.893	34.14
663.082	34.12
663.27	33.94
663.458	33.78
663.646	33.69
663.834	33.69
664.023	33.73
664.211	33.88
664.399	34.05
664.587	34.04
664.775	33.89
664.963	33.84
665.152	33.72
665.34	33.94
665.528	34.25
665.716	34.14
665.904	34.23
666.092	34.22
666.28	34.3
666.468	34.14
666.656	34.17
666.844	34.35
667.032	34.47
667.22	34.46
667.408	34.56
667.596	34.47
667.784	34.6
667.971	34.44
668.159	34.24
668.347	33.87
668.535	33.81
668.723	33.74
668.911	33.76
669.098	33.57
669.286	33.73
669.474	33.51
669.662	33.64
669.849	33.56
670.037	33.79
670.225	34.04
670.413	34.58
670.6	34.89
670.788	34.96
670.976	34.97
671.163	35.13
671.351	35.49
671.538	35.67
671.726	35.59
671.913	35.58
672.101	35.6
672.289	35.5
672.476	35.17
672.664	35.05
672.851	35.11
673.039	35.17
673.226	35.06
673.413	34.66
673.601	34.65
673.788	34.88
673.976	35.08
674.163	35.09
674.35	34.95
674.538	34.93
674.725	34.83
674.912	34.91
675.1	34.89
675.287	34.91
675.474	34.94
675.662	35.13
675.849	34.96
676.036	34.95
676.223	34.9
676.411	34.84
676.598	35
676.785	35.1
676.972	34.81
677.159	34.81
677.346	34.58
677.533	34.67
677.721	34.38
677.908	34.49
678.095	34.5
678.282	34.65
678.469	34.85
678.656	34.92
678.843	35.09
679.03	35.12
679.217	35.17
679.404	35.43
679.591	35.51
679.778	35.66
679.964	35.61
680.151	35.46
680.338	35.45
680.525	35.37
680.712	35.38
680.899	35.2
681.086	35.28
681.272	35.16
681.459	35.16
681.646	34.9
681.833	34.82
682.02	34.81
682.206	34.76
682.393	34.7
682.58	34.7
682.766	34.54
682.953	34.68
683.14	34.86
683.326	34.98
683.513	35.09
683.7	35.4
683.886	35.6
684.073	35.49
684.259	35.56
684.446	35.52
684.632	35.84
684.819	36.02
685.005	35.81
685.192	35.65
685.378	35.95
685.565	36.02
685.751	36.17
685.938	35.91
686.124	35.72
686.31	35.56
686.497	35.64
686.683	35.33
686.87	35.18
687.056	35.13
687.242	35.15
687.429	34.87
687.615	34.59
687.801	34.23
687.987	34.59
688.174	34.96
688.36	35.17
688.546	35.23
688.732	35.27
688.918	35.34
689.105	35.55
689.291	35.59
689.477	35.68
689.663	35.84
689.849	36.27
690.035	36.15
690.221	36.03
690.407	36.12
690.593	36.12
690.779	36.13
690.965	36.07
691.151	35.98
691.337	36.01
691.523	36
691.709	35.99
691.895	35.68
692.081	35.42
692.267	35.81
692.453	35.79
692.639	35.58
692.825	35.64
693.011	35.68
693.196	36.05
693.382	35.79
693.568	35.89
693.754	35.8
693.94	35.6
694.125	35.61
694.311	35.25
694.497	35.31
694.682	35.22
694.868	35.24
695.054	35.18
695.239	35.02
695.425	35.41
695.611	35.43
695.796	35.3
695.982	35.12
696.168	35.56
696.353	35.46
696.539	35.19
696.724	35.36
696.91	35.24
697.095	35.31
697.281	35.29
697.466	35.25
697.652	35.07
697.837	35.26
698.023	35.51
698.208	35.09
698.393	35.41
698.579	35.58
698.764	35.59
698.949	35.67
699.135	35.66
699.32	35.67
699.505	35.55
699.691	35.53
699.876	35.42
700.061	35.22
700.246	35.57
700.432	35.3
700.617	35.03
700.802	34.8
700.987	34.76
701.172	34.73
701.358	34.55
701.543	34.58
701.728	34.74
701.913	34.69
702.098	35
702.283	34.93
702.468	34.64
702.653	34.98
702.838	35.04
703.023	35.02
703.208	35.06
703.393	35.2
703.578	34.88
703.763	34.79
703.948	34.76
704.133	34.8
704.318	34.75
704.503	35.38
704.688	35.57
704.873	36.1
705.057	36.7
705.242	37.01
705.427	37.02
705.612	37.68
705.797	37.99
705.981	38.18
706.166	38.09
706.351	38.29
706.536	38.55
706.72	38.68
706.905	38.64
707.09	38.34
707.274	38.19
707.459	38.58
707.644	38.71
707.828	38.91
708.013	39.3
708.197	39.73
708.382	39.46
708.567	39.2
708.751	39.07
708.936	39.2
709.12	39.08
709.305	38.99
709.489	38.77
709.673	38.65
709.858	38.39
710.042	37.97
710.227	37.9
710.411	37.83
710.596	37.77
710.78	37.78
710.964	37.52
711.149	37.46
711.333	37.61
711.517	37.47
711.702	37.62
711.886	37.38
712.07	37.61
712.254	37.33
712.438	37.54
712.623	37.5
712.807	37.64
712.991	37.62
713.175	37.62
713.359	37.45
713.544	37.59
713.728	37.14
713.912	37.17
714.096	36.84
714.28	37.05
714.464	36.78
714.648	36.79
714.832	36.23
715.016	36.01
715.2	35.62
715.384	35.36
715.568	35.46
715.752	35.57
715.936	35.65
716.12	35.78
716.304	35.33
716.488	35.49
716.671	35.35
716.855	35.36
717.039	35.42
717.223	35.67
717.407	35.84
717.59	35.46
717.774	35.14
717.958	35.19
718.142	34.93
718.325	35.68
718.509	35.27
718.693	35.51
718.877	35.55
719.06	35.57
719.244	35.57
719.428	35.48
719.611	35.76
719.795	36.27
719.978	35.61
720.162	35.84
720.345	35.18
720.529	35.71
720.713	35.6
720.896	35.43
721.08	35.37
721.263	35.28
721.446	35.45
721.63	35.04
721.813	34.41
721.997	34.66
722.18	34.72
722.364	35.02
722.547	34.8
722.73	34.67
722.914	35.17
723.097	35.5
723.28	35.35
723.464	35.05
723.647	35.26
723.83	35.47
724.013	35.82
724.197	35.69
724.38	35.47
724.563	35.56
724.746	35.48
724.929	35.31
725.112	34.98
725.296	35.36
725.479	35.52
725.662	35.6
725.845	35.71
726.028	35.41
726.211	35.58
726.394	35.57
726.577	35.71
726.76	35.82
726.943	35.8
727.126	36.04
727.309	35.88
727.492	35.8
727.675	35.96
727.858	35.89
728.041	35.96
728.224	35.88
728.407	35.96
728.589	35.95
728.772	35.84
728.955	35.94
729.138	36.13
729.321	36.26
729.503	36.04
729.686	36.06
729.869	36.22
730.052	36.77
730.234	36.54
730.417	36.53
730.6	36.59
730.782	36.77
730.965	36.91
731.148	36.32
731.33	35.92
731.513	36.43
731.695	36.38
731.878	36.81
732.061	36.26
732.243	36.26
732.426	36.14
732.608	35.88
732.791	35.69
732.973	35.51
733.156	36.06
733.338	36.37
733.52	36.24
733.703	36.2
733.885	35.81
734.068	36.03
734.25	36.18
734.432	36.47
734.615	36.55
734.797	36.75
734.979	36.38
735.162	35.99
735.344	36.02
735.526	35.84
735.708	35.71
735.891	35.31
736.073	35.1
736.255	35.35
736.437	35.29
736.619	35.75
736.802	35.51
736.984	35.78
737.166	35.88
737.348	36.13
737.53	36.86
737.712	37.27
737.894	37.5
738.076	37.65
738.258	37.67
738.44	37.85
738.622	37.98
738.804	38.24
738.986	38.4
739.168	38.4
739.35	38.31
739.532	37.94
739.714	37.4
739.896	37.64
740.078	37.76
740.259	37.44
740.441	36.9
740.623	36.24
740.805	36.18
740.987	35.84
741.168	35.78
741.35	35.65
741.532	35.27
741.714	35.23
741.895	35.3
742.077	35.08
742.259	35.59
742.44	35.43
742.622	35.74
742.804	35.55
742.985	36.05
743.167	35.87
743.348	35.72
743.53	36.39
743.711	36.48
743.893	36.25
744.075	36.64
744.256	36.12
744.438	37.03
744.619	36.69
744.8	37.47
744.982	37.36
745.163	37.29
745.345	37.85
745.526	37.21
745.707	37.23
745.889	37.53
746.07	36.86
746.252	37.27
746.433	37.06
746.614	37.01
746.795	36.74
746.977	36.7
747.158	36.73
747.339	36.56
747.52	36.55
747.702	36.86
747.883	37.19
748.064	37.24
748.245	36.88
748.426	36.5
748.607	36.84
748.788	36.05
748.97	36.35
749.151	37.56
749.332	37.25
749.513	36.65
749.694	36.24
749.875	35.49
750.056	35.42
750.237	35.95
750.418	36.56
750.599	36.43
750.78	37.29
750.96	36.72
751.141	35.65
751.322	36.15
751.503	36.87
751.684	37.57
751.865	37.6
752.046	36.85
752.226	36.5
752.407	36.44
752.588	35.92
752.769	35.32
752.949	35.76
753.13	36.03
753.311	35.33
753.492	35.71
753.672	35.12
753.853	35.23
754.034	36.26
754.214	35.86
754.395	35.25
754.575	35.3
754.756	35.43
754.937	35.05
755.117	35.65
755.298	35.98
755.478	34.76
755.659	34.76
755.839	35.35
756.02	35.85
756.2	36.38
756.381	36.35
756.561	36.55
756.741	36.83
756.922	38.01
757.102	37.31
757.283	37.17
757.463	37.6
757.643	37.2
757.823	36.91
758.004	36.75
758.184	36.27
758.364	36.65
758.545	36.68
758.725	36.5
758.905	36.06
759.085	35.51
759.265	35.41
759.446	36.47
759.626	37.41
759.806	37.14
759.986	37.08
760.166	37.19
760.346	37.2
760.526	36.85
760.706	36.13
760.886	35.32
761.066	36.02
761.246	36.01
761.426	35.18
761.606	34.44
761.786	34.69
761.966	34.71
762.146	34.69
762.326	33.92
762.506	34.04
762.686	34.59
762.866	34.58
763.046	34.84
763.225	35.01
763.405	35.53
763.585	35.65
763.765	35.2
763.945	35.28
764.124	35.4
764.304	35.79
764.484	36.17
764.664	35.93
764.843	36.48
765.023	36.07
765.203	36.05
765.382	35.15
765.562	35.11
765.741	35.44
765.921	35.24
766.101	35.24
766.28	35.07
766.46	34.81
766.639	35.36
766.819	35.45
766.998	35.64
767.178	35.31
767.357	35.83
767.537	35.79
767.716	35.83
767.896	35.52
768.075	36.22
768.254	36.7
768.434	36.73
768.613	37.61
768.792	37
768.972	36.6
769.151	36.88
769.33	37.76
769.51	37.77
769.689	37.33
769.868	37.7
770.047	36.48
770.226	36.44
770.406	37.2
770.585	36.16
770.764	35.69
770.943	36.09
771.122	36.36
771.301	35.08
771.48	35.14
771.66	35.74
771.839	35.93
772.018	36.11
772.197	35.79
772.376	34.95
772.555	34.86
772.734	35.93
772.913	35.8
773.092	35.58
773.271	35.73
773.449	35.88
773.628	34.73
773.807	34.19
773.986	34.55
774.165	35.07
774.344	35.71
774.523	35.29
774.701	35.31
774.88	35.82
775.059	35.76
775.238	36.43
775.417	36.79
775.595	37.87
775.774	38.24
775.953	38.19
776.131	38.16
776.31	37.81
776.489	38.12
776.667	37.68
776.846	37.34
777.025	37.77
777.203	37.19
777.382	36.24
777.56	35.7
777.739	35.89
777.917	35.42
778.096	34.83
778.274	34.26
778.453	34.44
778.631	33.85
778.81	33.31
778.988	32.83
779.166	33.44
779.345	34.68
779.523	35.09
779.702	34.75
779.88	35.5
780.058	36.34
780.237	35.86
780.415	35.6
780.593	35.22
780.771	35
780.95	34.78
781.128	34.76
781.306	33.32
781.484	32.97
781.662	33.23
781.841	32.45
782.019	31.86
782.197	32.85
782.375	32.81
782.553	33.55
782.731	33.7
782.909	34.6
783.087	33.55
783.265	34.81
783.443	35.45
783.621	34.71
783.799	35
783.977	34.57
784.155	34.52
784.333	34.44
784.511	34.22
784.689	35.67
784.867	35.32
785.045	35.49
785.223	34.6
785.4	33.93
785.578	34.66
785.756	34.61
785.934	35.58
786.112	36.01
786.289	37.02
786.467	37.15
786.645	36.16
786.823	35.45
787	35.88
787.178	35.72
787.356	36.21
787.533	35.6
787.711	36.47
787.889	35.66
788.066	36.25
788.244	35.24
788.421	36.25
788.599	35.85
788.776	37.29
788.954	38.37
789.131	38.99
789.309	38.94
789.486	38.05
789.664	37.36
789.841	37.51
790.019	36.04
790.196	36.1
790.373	34.59
790.551	35.12
790.728	33.61
790.906	32.69
791.083	31.67
791.26	31.42
791.437	33.49
791.615	32.83
791.792	32.31
791.969	32.72
792.146	33.08
792.324	34.25
792.501	34.22
792.678	34.76
792.855	34.22
793.032	35.7
793.209	35.24
793.387	34.88
793.564	36.45
793.741	37.39
793.918	36.93
794.095	36.89
794.272	36.31
794.449	36.72
794.626	36.41
794.803	35.9
794.98	35.04
795.157	35.5
795.334	35.28
795.511	34.56
795.688	34.41
795.864	34.68
796.041	35.1
796.218	34.69
796.395	34.24
796.572	35.15
796.749	35.05
796.925	35.71
797.102	36.17
797.279	36.85
797.456	36.56
797.632	36.13
797.809	36.52
797.986	37.03
798.162	37.4
798.339	37.51
798.516	36.69
798.692	38.54
798.869	38.05
799.046	37.87
799.222	37.14
799.399	36.76
799.575	36.85
799.752	37.1
799.928	35.44
800.105	35.84
800.281	36.02
800.458	35.41
800.634	35.16
800.811	34.64
800.987	34.69
801.163	34.88
801.34	35.14
801.516	35.5
801.692	34.67
801.869	35.32
802.045	35.49
802.221	35.59
802.398	35.42
802.574	33.82
802.75	33.03
802.926	32.95
803.103	32.23
803.279	33.4
803.455	32.86
803.631	33.28
803.807	34.04
803.983	33.28
804.16	32.35
804.336	33.63
804.512	33.07
804.688	35.17
804.864	34.33
805.04	33.97
805.216	32.3
805.392	32.2
805.568	32.92
805.744	30.86
805.92	30
806.096	30.21
806.272	31.27
806.448	31.84
806.623	31.02
806.799	31.51
806.975	32.63
807.151	33.4
807.327	34.1
807.503	33.43
807.678	34.62
807.854	34.92
808.03	34.45
808.206	33.53
808.381	33.57
808.557	32.73
808.733	32.81
808.908	31.64
809.084	31.79
809.26	31.49
809.435	31.13
809.611	31.35
809.787	31.3
809.962	31.96
810.138	32.67
810.313	33.34
810.489	34.58
810.664	35.41
810.84	36.4
811.015	36
811.191	36.61
811.366	36.65
811.542	35.08
811.717	36.15
811.892	35.35
812.068	33.41
812.243	33.03
812.419	32.41
812.594	31.32
812.769	31.96
812.944	31.74
813.12	30.15
813.295	30.06
813.47	32.21
813.645	31.09
813.821	31.33
813.996	32.29
814.171	31.12
814.346	30.97
814.521	30.58
814.697	29.61
814.872	30.49
815.047	30.35
815.222	30.21
815.397	28.3
815.572	30.33
815.747	30.56
815.922	30.32
816.097	31.48
816.272	31.65
816.447	32.15
816.622	31.86
816.797	32.84
816.972	33.83
817.147	32.74
817.322	33.02
817.496	33.12
817.671	33.4
817.846	32.39
818.021	32.06
818.196	32.1
818.371	33.38
818.545	33.23
818.72	32.15
818.895	32.2
819.069	34.1
819.244	34.2
819.419	32.83
819.594	32.23
819.768	32.33
819.943	32.13
820.117	31.93
820.292	31.68
820.467	32.13
820.641	32.08
820.816	32
820.99	31.41
821.165	31.65
821.339	32
821.514	31.97
821.688	32.2
821.863	32.38
822.037	32.32
822.212	32.15
822.386	31.93
822.56	31.86
822.735	31.75
822.909	31.95
823.084	31.8
823.258	31.7
823.432	31.59
823.606	31.43
823.781	31.44
823.955	31.45
824.129	31.33
824.303	31.11
824.478	30.86
824.652	31.02
824.826	30.73
825	31.05
825.174	30.72
825.348	30.71
825.523	31.08
825.697	31.13
825.871	31.38
826.045	31.05
826.219	31.71
826.393	32.31
826.567	32.17
826.741	32.41
826.915	32.3
827.089	32.26
827.263	32.74
827.437	32.17
827.611	32.03
827.784	31.86
827.958	32
828.132	32.02
828.306	31.76
828.48	31.51
828.654	31.45
828.827	30.98
829.001	30.89
829.175	30.18
829.349	30.46
829.522	30.44
829.696	30.9
829.87	31.38
830.044	30.54
830.217	30.42
830.391	30.45
830.565	29.51
830.738	29.5
830.912	30.18
831.085	32.08
831.259	32.41
831.432	31.04
831.606	29.85
831.779	29.52
831.953	29.61
832.126	30.16
832.3	30.83
832.473	31.01
832.647	30.63
832.82	30.59
832.994	29.87
833.167	29.69
833.34	30.16
833.514	30.42
833.687	30.6
833.86	31.08
834.034	30.97
834.207	29.98
834.38	30.12
834.553	30.53
834.727	30.36
834.9	30.56
835.073	30.46
835.246	30.97
835.419	30.73
835.593	30.19
835.766	29.43
835.939	29.73
836.112	30.8
836.285	30.04
836.458	29.8
836.631	30.27
836.804	29.92
836.977	30.65
837.15	29.53
837.323	29.55
837.496	30.48
837.669	31.4
837.842	29.71
838.015	29.4
838.188	31.53
838.361	31.02
838.533	29.66
838.706	29.16
838.879	28.31
839.052	30.31
839.225	31.15
839.398	29.63
839.57	29.68
839.743	29.84
839.916	29.27
840.088	29.52
840.261	30.29
840.434	28.97
840.607	28.28
840.779	28.28
840.952	26.82
841.124	24.88
841.297	26.43
841.47	27.14
841.642	27.85
841.815	28.95
841.987	29.2
842.16	28.56
842.332	31.29
842.505	30.48
842.677	32.39
842.85	30.91
843.022	32.95
843.194	32.51
843.367	30.91
843.539	30.58
843.712	28.17
843.884	24.94
844.056	25.59
844.229	25.89
844.401	28.82
844.573	26.11
844.745	29.58
844.918	28.88
845.09	28.13
845.262	28.82
845.434	28.67
845.606	31.84
845.779	35.72
845.951	35.75
846.123	33.31
846.295	32.04
846.467	29.95
846.639	27.42
846.811	30.47
846.983	30.7
847.155	29
847.327	29.24
847.499	28.09
847.671	27.04
847.843	27.09
848.015	24.14
848.187	27.2
848.359	31.02
848.531	31.65
848.703	28.73
848.875	32.21
849.047	33.3
849.218	32.92
849.39	34.22
849.562	30.67
849.734	31.56
849.905	37.49
850.077	34.21
850.249	36.06
850.421	37.72
850.592	38.94
850.764	36.34
850.936	34.58
851.107	37.43
851.279	37.35
851.451	41.13
851.622	37.87
851.794	34.68
851.965	35.26
852.137	31.11
852.308	28.51
852.48	26.95
852.651	24.79
852.823	26.33
852.994	22.5
853.166	21.25
853.337	19.35
853.509	14.92
853.68	12.72
853.851	14.97
854.023	17.81
854.194	18.72
854.365	19.67
854.537	23.03
854.708	23.01
854.879	29.15
855.05	29.78
855.222	31.08
855.393	34.18
855.564	34.09
855.735	29.82
855.906	28.62
856.078	29.54
856.249	27.71
856.42	26.61
856.591	25.51
856.762	21.35
856.933	19
857.104	18.2
857.275	17.63
857.446	18.82
857.617	23.79
857.788	28.03
857.959	28.9
858.13	32.4
858.301	32.98
858.472	36.39
858.643	41.55
858.814	39.59
858.985	39.94
859.155	41.18
859.326	39.63
859.497	40.13
859.668	37.12
859.839	37.57
860.009	36.75
860.18	36.72
860.351	33.86
860.522	29.06
860.692	31.47
860.863	26.32
861.034	28.38
861.204	27.01
861.375	26.18
861.546	23.45
861.716	21.11
861.887	19.97
862.057	20.51
862.228	25.51
862.398	24.81
862.569	28.1
862.739	33.15
862.91	32.55
863.08	36.76
863.251	33.01
863.421	36.55
863.592	39.6
863.762	42.36
863.932	39.85
864.103	40.79
864.273	42.39
864.443	40.76
864.614	40.93
864.784	40.11
864.954	41.17
865.125	44.62
865.295	42.79
865.465	40.39
865.635	39.94
865.805	42.53
865.976	39.89
866.146	37.8
866.316	39.47
866.486	43.2
866.656	45.16
866.826	46.47
866.996	43.56
867.166	42.26
867.336	43.82
867.506	38.64
867.676	35.81
867.846	37.43
868.016	36.26
868.186	35.79
868.356	28.97
868.526	27.07
868.696	25.53
868.866	26.01
869.036	27.72
869.206	24.68
869.376	28.18
869.545	29.52
869.715	31.05
869.885	36.06
870.055	33.22
870.224	32.56
870.394	33.27
870.564	36.68
870.734	38.33
870.903	36.86
871.073	37.52
871.243	38.29
871.412	41.28
871.582	42.76
871.751	39.63
871.921	41.62
872.091	45.43
872.26	41.62
872.43	33.31
872.599	35.1
872.769	36.46
872.938	39.21
873.108	38.99
873.277	39.92
873.446	33.7
873.616	34.78
873.785	35.07
873.955	34.08
874.124	35.28
874.293	37.67
874.463	37.58
874.632	38.27
874.801	35.24
874.971	34.15
875.14	30.18
875.309	31.85
875.478	31.27
875.647	30.21
875.817	28.06
875.986	30.74
876.155	27.12
876.324	23.92
876.493	22.69
876.662	22.59
876.831	22.19
877	22.64
877.17	21.08
877.339	19.16
877.508	18.72
877.677	23.65
877.846	20.71
878.015	23.58
878.184	24.91
878.352	24.55
878.521	21.92
878.69	23.59
878.859	26.1
879.028	26.28
879.197	28.26
879.366	31.53
879.534	31.13
879.703	32.08
879.872	32.45
880.041	31.96
880.21	32.31
880.378	34.33
880.547	34.37
880.716	32.67
880.884	32.97
881.053	31.31
881.222	30.11
881.39	28.9
881.559	28.32
881.727	27.27
881.896	26.9
882.065	26.64
882.233	26.01
882.402	25.51
882.57	25.93
882.739	25.17
882.907	24.88
883.076	24.37
883.244	24.48
883.412	25.52
883.581	25.6
883.749	25.49
883.918	25.7
884.086	25.67
884.254	25.94
884.423	25.05
884.591	25.55
884.759	26.45
884.927	26.15
885.096	26.2
885.264	24.78
885.432	24.99
885.6	24.74
885.769	22.48
885.937	23.11
886.105	22.71
886.273	22.44
886.441	22.31
886.609	20.63
886.777	23.23
886.945	21.39
887.113	18.32
887.281	16.35
887.449	17.46
887.617	20.49
887.785	17.19
887.953	16.68
888.121	16.68
888.289	13.03
888.457	14.25
888.625	13.65
888.793	12.85
888.961	16.52
889.129	15.05
889.296	13.68
889.464	11.53
889.632	14.03
889.8	10.8
889.967	9.42
890.135	12.83
