Data from 2938835__Reflection_03.txt Node
Date: Thu Mar 12 11:29:39 EDT 2015
User: robert
Spectrometer: USB4E03002
Autoset integration time: false
Trigger mode: 4
Integration Time (sec): 1.000000E-1
Scans to average: 10
Electric dark correction enabled: false
Nonlinearity correction enabled: false
Boxcar width: 5
Stray light correction enabled: false
XAxis mode: Wavelengths
Stop averaging: false
Number of Pixels in Spectrum: 3648
>>>>>Begin Spectral Data<<<<<
177.575	799.7
177.794	1370.45
178.014	1281.67
178.233	1407.45
178.452	1297.97
178.672	1393.69
178.891	1670.82
179.11	1602.57
179.33	1466.36
179.549	1243.41
179.768	1204.01
179.987	2523.68
180.207	2251.19
180.426	2576.26
180.645	1803.16
180.864	1260.55
181.084	1551.03
181.303	1360.12
181.522	1441.68
181.741	2075.47
181.96	4244.3
182.179	4468.21
182.398	2502.55
182.618	1725.63
182.837	1568.16
183.056	1959.27
183.275	8138.46
183.494	3980.25
183.713	5811.11
183.932	-23277.78
184.151	19825.81
184.37	2375.88
184.589	4520.15
184.808	4301.41
185.027	4599.25
185.246	13484.78
185.465	-5513.39
185.684	6540.4
185.903	673600
186.122	2110.62
186.341	1303.31
186.56	984.73
186.779	1000.72
186.998	1066.46
187.216	1009.68
187.435	956.81
187.654	866.27
187.873	695.87
188.092	865.92
188.311	762.27
188.53	862.66
188.748	864.86
188.967	1091.9
189.186	1472.37
189.405	1175.4
189.623	1067.5
189.842	1051.42
190.061	967.96
190.28	967.29
190.498	1057.97
190.717	887.63
190.936	945.98
191.154	1192.06
191.373	1058.13
191.592	988.18
191.81	1018.62
192.029	1431.02
192.248	1339.68
192.466	1461.22
192.685	1580.52
192.904	1010.56
193.122	1023.57
193.341	1302.36
193.559	988.55
193.778	961.15
193.996	921.73
194.215	1049.45
194.433	890.87
194.652	992.69
194.87	1467.7
195.089	1735.15
195.307	2474.42
195.526	5376.47
195.744	7967.5
195.963	-108633.33
196.181	-5943.24
196.399	-3603.83
196.618	-2903.08
196.836	-1610.72
197.055	-1931.27
197.273	-9941.79
197.491	36063.16
197.71	170850
197.928	7127.08
198.146	5808.55
198.365	9873.53
198.583	5963.64
198.801	2784.68
199.019	1821.82
199.238	1179.9
199.456	1336.6
199.674	1333.07
199.892	1211.39
200.111	1102.79
200.329	1074.28
200.547	939.02
200.765	851.42
200.983	870.46
201.202	1066.51
201.42	1017.33
201.638	953.92
201.856	1053.17
202.074	1213.87
202.292	1773.78
202.51	2622.89
202.728	2137.5
202.946	2612.89
203.165	1596.49
203.383	1510.29
203.601	1073.7
203.819	1343.37
204.037	1493.56
204.255	1115.87
204.473	909.05
204.691	796.15
204.909	771.45
205.127	803.57
205.345	697.49
205.562	728.69
205.78	768.68
205.998	970.41
206.216	781.38
206.434	722.14
206.652	855.09
206.87	979.38
207.088	984.5
207.306	811.48
207.523	733.19
207.741	801.63
207.959	771.49
208.177	680.55
208.395	595.79
208.612	627.03
208.83	626.55
209.048	554.56
209.266	564.21
209.483	485.58
209.701	565.89
209.919	593.47
210.136	637.77
210.354	781.46
210.572	953.24
210.79	1049.54
211.007	1545.88
211.225	2140.19
211.442	2371.75
211.66	1854.62
211.878	3759.17
212.095	2219.4
212.313	1899.71
212.53	1774.54
212.748	1394.93
212.966	1103.52
213.183	891.1
213.401	701.38
213.618	676.82
213.836	681.13
214.053	727.86
214.271	630.7
214.488	649.65
214.705	757.24
214.923	649.31
215.14	615.04
215.358	627.03
215.575	684.83
215.793	637.43
216.01	693.53
216.227	683.49
216.445	634.05
216.662	741.57
216.879	684.64
217.097	658.86
217.314	626.97
217.531	732.69
217.749	728.17
217.966	678.2
218.183	628.3
218.4	520.99
218.618	525.4
218.835	524.43
219.052	477.51
219.269	487.27
219.487	438.64
219.704	459.25
219.921	377.19
220.138	353.59
220.355	379.63
220.572	393.05
220.79	391.77
221.007	392.92
221.224	389.86
221.441	389.97
221.658	331.72
221.875	326.83
222.092	307.54
222.309	324.98
222.526	354.52
222.743	323.13
222.96	292.74
223.177	294.48
223.394	276.89
223.611	260.18
223.828	251.05
224.045	266.65
224.262	263.83
224.479	254.46
224.696	247
224.913	222.31
225.13	203.55
225.347	199.57
225.564	191.27
225.781	182.62
225.997	170.95
226.214	161.8
226.431	138.6
226.648	122.02
226.865	106.92
227.082	95.9
227.298	82.85
227.515	72.31
227.732	63.54
227.949	58.05
228.165	51.44
228.382	46.97
228.599	43.73
228.816	41.07
229.032	39.86
229.249	39.33
229.466	37.96
229.682	37.85
229.899	38.61
230.116	39.32
230.332	39.85
230.549	42.59
230.765	44.96
230.982	46.35
231.199	50.21
231.415	52.66
231.632	55.64
231.848	59.57
232.065	62.03
232.281	66.32
232.498	68.96
232.714	70.94
232.931	70.6
233.147	70.59
233.364	71.54
233.58	70.52
233.797	69.78
234.013	69.18
234.23	67.9
234.446	68.59
234.662	68.12
234.879	68.34
235.095	67.43
235.312	66.99
235.528	68.01
235.744	68.08
235.961	67.85
236.177	66.42
236.393	68.25
236.61	68.27
236.826	67.94
237.042	67.61
237.258	68.13
237.475	68.62
237.691	70.6
237.907	69.56
238.123	70.4
238.339	71.08
238.556	72.8
238.772	69.77
238.988	67.55
239.204	65.86
239.42	64.38
239.636	61.36
239.853	58.25
240.069	56.11
240.285	53.08
240.501	48.95
240.717	44.25
240.933	40.76
241.149	37.84
241.365	35.56
241.581	33.71
241.797	31.49
242.013	29.46
242.229	28.3
242.445	27.07
242.661	26.52
242.877	26.55
243.093	26.9
243.309	27.26
243.525	27.62
243.741	28.87
243.957	30.07
244.173	30.93
244.388	33.38
244.604	33.96
244.82	34.29
245.036	33.82
245.252	33.11
245.468	31.05
245.683	28.78
245.899	26.86
246.115	25.18
246.331	23.21
246.547	21.61
246.762	20.16
246.978	19.36
247.194	18.35
247.409	17.61
247.625	17.04
247.841	17.12
248.057	17.51
248.272	18.01
248.488	18.4
248.703	18.89
248.919	20.06
249.135	21.2
249.35	22.51
249.566	24.27
249.782	27.01
249.997	29.57
250.213	30.7
250.428	31.03
250.644	31.4
250.859	31.17
251.075	32.1
251.29	31.96
251.506	31.34
251.721	30.85
251.937	30.11
252.152	29.08
252.368	28.02
252.583	28.8
252.798	30.08
253.014	30.9
253.229	32.49
253.445	33.28
253.66	34.35
253.875	35.25
254.091	36.77
254.306	39.14
254.521	41.27
254.737	43.58
254.952	43.09
255.167	43.9
255.383	43.12
255.598	42.57
255.813	41.43
256.028	41.54
256.244	40.9
256.459	39.56
256.674	38.8
256.889	36.89
257.104	34.47
257.32	33.83
257.535	30.92
257.75	29.63
257.965	27.16
258.18	25.25
258.395	23.11
258.61	21.44
258.826	20.33
259.041	18.81
259.256	17.8
259.471	16.85
259.686	16.12
259.901	15.79
260.116	15.42
260.331	15.51
260.546	15.8
260.761	15.63
260.976	16.01
261.191	16.49
261.406	16.68
261.621	17.48
261.836	18.34
262.05	19.25
262.265	20.56
262.48	21.47
262.695	22.13
262.91	23.1
263.125	24.84
263.34	25.73
263.555	26.16
263.769	27.42
263.984	28.03
264.199	29.14
264.414	29.4
264.629	29.21
264.843	29.64
265.058	29.77
265.273	28.63
265.488	27.45
265.702	26.87
265.917	26.17
266.132	25.61
266.346	24.98
266.561	24.33
266.776	23.99
266.99	23.38
267.205	22.86
267.42	22.26
267.634	22.79
267.849	22.91
268.063	22.73
268.278	23.08
268.492	23.27
268.707	23.59
268.922	23.58
269.136	23.64
269.351	23.82
269.565	23.66
269.78	23.45
269.994	22.86
270.209	22.65
270.423	22.56
270.637	21.82
270.852	20.94
271.066	20.19
271.281	19.53
271.495	19.2
271.709	18.83
271.924	18.34
272.138	18.22
272.353	18.29
272.567	17.88
272.781	17.69
272.996	17.81
273.21	18.49
273.424	18.5
273.638	19.05
273.853	19.25
274.067	19.47
274.281	20.21
274.495	20.56
274.71	20.33
274.924	20.61
275.138	20.73
275.352	20.76
275.566	21.08
275.781	21.51
275.995	21.22
276.209	21.44
276.423	21.88
276.637	22.11
276.851	22.3
277.065	22.14
277.279	22.33
277.493	22.21
277.707	22.88
277.921	22.67
278.135	22.68
278.349	22.99
278.563	22.52
278.777	22.29
278.991	21.91
279.205	21.97
279.419	22.27
279.633	22.63
279.847	22.88
280.061	22.11
280.275	21.31
280.489	21.25
280.703	20.36
280.917	20.11
281.131	19.75
281.344	19.3
281.558	18.79
281.772	18.53
281.986	17.89
282.2	17.26
282.414	17.21
282.627	17.24
282.841	17.13
283.055	17.4
283.269	17.57
283.482	17.52
283.696	17.31
283.91	17.06
284.123	16.48
284.337	16.38
284.551	16.51
284.764	16.14
284.978	15.96
285.192	15.3
285.405	14.9
285.619	14.64
285.833	14.48
286.046	14.41
286.26	14.53
286.473	14.86
286.687	15.26
286.9	15.25
287.114	15.38
287.327	15.65
287.541	16.25
287.754	16.81
287.968	17.35
288.181	17.56
288.395	17.74
288.608	17.83
288.822	17.98
289.035	17.63
289.248	17.66
289.462	17.77
289.675	17.48
289.889	17.26
290.102	16.82
290.315	16.49
290.529	16.62
290.742	16.73
290.955	16.68
291.169	16.38
291.382	16.47
291.595	16.74
291.808	17.16
292.022	17.7
292.235	17.95
292.448	18.34
292.661	18.19
292.875	18.09
293.088	18.25
293.301	18.57
293.514	18.86
293.727	18.77
293.94	18.27
294.153	17.62
294.367	17.45
294.58	17.12
294.793	16.88
295.006	16.79
295.219	16.84
295.432	16.66
295.645	16.08
295.858	15.68
296.071	15.61
296.284	15.41
296.497	15.2
296.71	14.84
296.923	14.76
297.136	14.79
297.349	14.84
297.562	14.58
297.775	14.47
297.988	14.64
298.201	15.2
298.414	15.15
298.626	15.62
298.839	16.24
299.052	16.7
299.265	17.06
299.478	17.32
299.691	17.98
299.903	18.44
300.116	19.01
300.329	19.46
300.542	19.45
300.755	19.89
300.967	20.32
301.18	20.49
301.393	20.25
301.605	20.56
301.818	21.02
302.031	21.02
302.243	21.35
302.456	21.35
302.669	21.55
302.881	21.62
303.094	21.69
303.307	21.14
303.519	21.17
303.732	21.21
303.944	21.13
304.157	21.16
304.37	21.27
304.582	21.32
304.795	21.49
305.007	21.77
305.22	21.69
305.432	21.48
305.645	21.91
305.857	21.86
306.069	22.24
306.282	22.34
306.494	22.37
306.707	22.29
306.919	22.17
307.132	21.79
307.344	21.41
307.556	21.52
307.769	21.75
307.981	21.72
308.193	21.45
308.406	21.39
308.618	21.24
308.83	20.99
309.043	20.46
309.255	20.24
309.467	20.53
309.679	20.28
309.892	20.27
310.104	19.76
310.316	19.44
310.528	19.31
310.74	18.76
310.953	18.64
311.165	18.54
311.377	18.69
311.589	19.11
311.801	18.94
312.013	19.24
312.225	19.15
312.437	19.9
312.649	20.51
312.862	20.83
313.074	21.65
313.286	21.9
313.498	22.32
313.71	22.41
313.922	22.32
314.134	22.71
314.346	22.81
314.558	23.32
314.77	23.29
314.982	23.19
315.193	23.22
315.405	23.27
315.617	23.44
315.829	23.66
316.041	24.37
316.253	24.44
316.465	24.5
316.677	24.42
316.888	24.68
317.1	24.66
317.312	24.57
317.524	24.93
317.736	25.4
317.947	25.85
318.159	25.98
318.371	25.96
318.583	25.92
318.794	26.1
319.006	26.64
319.218	26.31
319.43	26.34
319.641	26.83
319.853	26.63
320.064	26.84
320.276	27.11
320.488	27.33
320.699	27.48
320.911	28.18
321.123	28.48
321.334	28.68
321.546	29.06
321.757	29.54
321.969	29.38
322.18	29.75
322.392	29.12
322.603	28.55
322.815	27.97
323.026	27.92
323.238	27.18
323.449	26.54
323.661	25.92
323.872	25.47
324.083	24.91
324.295	24.81
324.506	24.37
324.718	24.05
324.929	23.92
325.14	23.67
325.352	23.52
325.563	23.76
325.774	23.77
325.986	23.91
326.197	23.67
326.408	23.82
326.62	23.38
326.831	23.56
327.042	24.02
327.253	24
327.464	24.35
327.676	24.28
327.887	24.5
328.098	24.71
328.309	24.8
328.52	25.36
328.732	25.4
328.943	26.09
329.154	26.6
329.365	26.74
329.576	27.2
329.787	27.72
329.998	28.32
330.209	28.1
330.42	28.26
330.631	28.3
330.842	28.35
331.053	28.51
331.264	28.09
331.475	28.02
331.686	27.75
331.897	27.99
332.108	27.47
332.319	27.12
332.53	26.83
332.741	26.6
332.952	26.48
333.163	26.41
333.374	26.16
333.585	26.26
333.795	26.01
334.006	25.87
334.217	25.59
334.428	25.93
334.639	26.04
334.849	25.9
335.06	25.87
335.271	25.78
335.482	25.51
335.692	25.43
335.903	25.48
336.114	25.39
336.325	25.83
336.535	25.55
336.746	25.46
336.957	25.18
337.167	25.45
337.378	25.79
337.589	26.07
337.799	26.13
338.01	26.41
338.22	26.34
338.431	26.48
338.642	26.23
338.852	26.31
339.063	26.06
339.273	26.1
339.484	25.9
339.694	25.42
339.905	25.29
340.115	25.36
340.326	25.48
340.536	25.16
340.746	24.9
340.957	24.7
341.167	24.74
341.378	24.58
341.588	24.51
341.799	24.43
342.009	24.25
342.219	24
342.43	23.63
342.64	23.41
342.85	23.75
343.061	23.82
343.271	23.64
343.481	23.57
343.691	23.66
343.902	23.35
344.112	23.08
344.322	23.2
344.532	23.15
344.743	23.27
344.953	22.97
345.163	22.73
345.373	22.44
345.583	22.55
345.793	22.16
346.004	21.93
346.214	21.99
346.424	22.26
346.634	22.55
346.844	22.69
347.054	22.92
347.264	23.33
347.474	23.46
347.684	23.73
347.894	23.88
348.104	24.49
348.314	24.43
348.524	24.46
348.734	24.7
348.944	24.34
349.154	24.13
349.364	23.82
349.574	23.6
349.784	23.27
349.994	23.58
350.204	23.34
350.413	23.18
350.623	23.68
350.833	23.53
351.043	23.24
351.253	23.6
351.463	23.74
351.672	23.81
351.882	23.79
352.092	24.01
352.302	23.28
352.511	23.48
352.721	23.11
352.931	22.58
353.141	22.52
353.35	22.75
353.56	22.26
353.77	21.77
353.979	21.89
354.189	21.53
354.399	21.19
354.608	21.4
354.818	21.54
355.027	21.43
355.237	21.39
355.447	21.25
355.656	20.93
355.866	20.81
356.075	21.36
356.285	21.08
356.494	21.05
356.704	21.1
356.913	20.88
357.123	20.37
357.332	20.3
357.542	20.09
357.751	20.08
357.96	20.14
358.17	20.03
358.379	19.89
358.589	19.73
358.798	19.81
359.007	19.78
359.217	19.82
359.426	19.48
359.635	19.55
359.845	19.38
360.054	19.21
360.263	18.91
360.472	18.94
360.682	18.56
360.891	18.42
361.1	18.13
361.309	17.94
361.519	17.63
361.728	17.75
361.937	17.7
362.146	17.89
362.355	17.71
362.564	17.89
362.774	17.54
362.983	17.52
363.192	17.55
363.401	17.85
363.61	17.84
363.819	18.33
364.028	18.43
364.237	18.53
364.446	18.67
364.655	19
364.864	19.08
365.073	19.49
365.282	19.45
365.491	19.62
365.7	19.49
365.909	19.84
366.118	19.66
366.327	19.63
366.536	19.71
366.745	19.68
366.954	19.49
367.162	19.25
367.371	19.45
367.58	19.78
367.789	19.64
367.998	19.44
368.207	19.28
368.415	19.2
368.624	19.27
368.833	19.03
369.042	19.06
369.25	19.29
369.459	19.54
369.668	19.16
369.877	18.79
370.085	18.56
370.294	18.59
370.503	18.19
370.711	18.13
370.92	18.09
371.129	18.1
371.337	17.77
371.546	17.65
371.754	17.33
371.963	17.31
372.171	17.35
372.38	17.51
372.589	17.6
372.797	17.85
373.006	17.55
373.214	17.32
373.423	17.3
373.631	17.35
373.84	17.26
374.048	17.41
374.256	17.21
374.465	17.15
374.673	17.16
374.882	16.87
375.09	16.87
375.298	16.77
375.507	16.74
375.715	16.45
375.923	16.27
376.132	16.22
376.34	15.61
376.548	15.61
376.757	15.38
376.965	15.19
377.173	15.37
377.381	14.99
377.59	15.23
377.798	15.22
378.006	15.27
378.214	15.25
378.423	15
378.631	15.25
378.839	15.37
379.047	15.31
379.255	15.29
379.463	15.23
379.671	15.45
379.879	15.45
380.088	15.36
380.296	15.57
380.504	15.86
380.712	16.08
380.92	16.16
381.128	16.24
381.336	16.42
381.544	16.4
381.752	16.21
381.96	16.22
382.168	16.03
382.376	16.13
382.584	16.02
382.791	15.87
382.999	15.66
383.207	15.54
383.415	15.32
383.623	15.27
383.831	15.21
384.039	15.28
384.247	15.17
384.454	15.52
384.662	15.5
384.87	15.4
385.078	15.26
385.285	15.31
385.493	15.19
385.701	15.21
385.909	15.09
386.116	15.04
386.324	14.89
386.532	14.69
386.739	14.17
386.947	13.98
387.155	13.86
387.362	13.52
387.57	13.58
387.778	13.82
387.985	13.64
388.193	13.68
388.4	13.74
388.608	13.98
388.816	13.99
389.023	13.95
389.231	13.85
389.438	13.73
389.646	13.74
389.853	13.62
390.061	13.18
390.268	13.28
390.475	13.27
390.683	13.11
390.89	12.51
391.098	12.53
391.305	12.43
391.512	12.41
391.72	12.26
391.927	12.28
392.135	11.94
392.342	12.01
392.549	11.98
392.756	11.8
392.964	11.71
393.171	11.97
393.378	12
393.586	11.92
393.793	11.92
394	11.9
394.207	11.88
394.414	12.07
394.622	12.2
394.829	12.09
395.036	12.24
395.243	12.38
395.45	12.39
395.657	12.32
395.864	12.64
396.072	12.71
396.279	12.74
396.486	12.69
396.693	12.64
396.9	12.39
397.107	12.53
397.314	12.6
397.521	12.63
397.728	12.64
397.935	12.68
398.142	12.54
398.349	12.53
398.556	12.67
398.763	12.81
398.97	12.75
399.177	12.76
399.383	12.67
399.59	12.3
399.797	12.08
400.004	12.04
400.211	11.92
400.418	11.93
400.625	12.03
400.831	12
401.038	11.83
401.245	12
401.452	12.07
401.658	11.87
401.865	12.08
402.072	12.29
402.279	12.4
402.485	12.42
402.692	12.41
402.899	12.12
403.105	12.13
403.312	12.31
403.519	12.32
403.725	12.14
403.932	12.1
404.138	11.89
404.345	11.68
404.552	11.48
404.758	11.44
404.965	11.4
405.171	11.25
405.378	11.23
405.584	10.96
405.791	10.71
405.997	10.87
406.204	11.07
406.41	11.18
406.617	11.17
406.823	11.11
407.029	11.09
407.236	11.08
407.442	11.24
407.649	11.25
407.855	11.23
408.061	11.26
408.268	11.17
408.474	11.09
408.68	10.99
408.887	10.98
409.093	10.91
409.299	10.87
409.505	10.69
409.712	10.75
409.918	10.61
410.124	10.65
410.33	10.73
410.537	10.66
410.743	10.7
410.949	10.73
411.155	10.8
411.361	11
411.567	11.16
411.773	11.29
411.98	11.31
412.186	11.31
412.392	11.29
412.598	11.07
412.804	11.11
413.01	11.03
413.216	11.18
413.422	11.15
413.628	10.87
413.834	10.78
414.04	10.82
414.246	10.69
414.452	10.48
414.658	10.6
414.864	10.86
415.07	10.87
415.275	10.85
415.481	10.53
415.687	10.37
415.893	10.4
416.099	10.13
416.305	9.89
416.511	9.65
416.716	9.52
416.922	9.16
417.128	8.94
417.334	8.82
417.539	8.6
417.745	8.47
417.951	8.34
418.157	8.32
418.362	8.21
418.568	8.15
418.774	8.02
418.979	8.09
419.185	8.06
419.391	7.92
419.596	7.7
419.802	7.67
420.008	7.66
420.213	7.6
420.419	7.5
420.624	7.43
420.83	7.3
421.035	7.37
421.241	7.38
421.446	7.31
421.652	7.27
421.857	7.3
422.063	7.28
422.268	7.25
422.474	7.2
422.679	7.14
422.885	7.22
423.09	7.24
423.295	7.25
423.501	7.13
423.706	7.06
423.911	7.06
424.117	7.08
424.322	7.04
424.527	7.05
424.733	7.08
424.938	7.07
425.143	7.04
425.349	7.16
425.554	7.14
425.759	7.28
425.964	7.48
426.169	7.58
426.375	7.74
426.58	7.82
426.785	7.98
426.99	8.07
427.195	8.19
427.4	8.3
427.605	8.36
427.811	8.44
428.016	8.37
428.221	8.37
428.426	8.38
428.631	8.28
428.836	8.32
429.041	8.23
429.246	8.33
429.451	8.23
429.656	8.35
429.861	8.37
430.066	8.51
430.271	8.53
430.476	8.6
430.681	8.67
430.886	8.73
431.09	8.86
431.295	8.85
431.5	8.72
431.705	8.77
431.91	8.52
432.115	8.35
432.32	8.14
432.524	8.11
432.729	8.13
432.934	8.03
433.139	8.06
433.343	7.88
433.548	7.89
433.753	7.93
433.958	8.07
434.162	8.15
434.367	8.22
434.572	8.31
434.776	8.26
434.981	8.35
435.186	8.43
435.39	8.4
435.595	8.59
435.799	8.51
436.004	8.56
436.209	8.35
436.413	8.38
436.618	8.34
436.822	8.38
437.027	8.33
437.231	8.17
437.436	8.1
437.64	8.01
437.845	7.97
438.049	7.99
438.253	7.91
438.458	7.96
438.662	7.87
438.867	7.78
439.071	7.71
439.275	7.69
439.48	7.58
439.684	7.44
439.888	7.36
440.093	7.18
440.297	7.07
440.501	7.03
440.706	7
440.91	7.01
441.114	7.01
441.318	6.98
441.523	7.1
441.727	7.15
441.931	7.24
442.135	7.23
442.339	7.26
442.543	7.44
442.748	7.45
442.952	7.54
443.156	7.54
443.36	7.63
443.564	7.61
443.768	7.5
443.972	7.42
444.176	7.43
444.38	7.39
444.584	7.36
444.788	7.19
444.992	7.07
445.196	6.88
445.4	6.8
445.604	6.61
445.808	6.56
446.012	6.45
446.216	6.35
446.42	6.29
446.624	6.29
446.828	6.31
447.032	6.33
447.235	6.4
447.439	6.4
447.643	6.44
447.847	6.61
448.051	6.68
448.254	6.78
448.458	6.95
448.662	6.96
448.866	7.05
449.069	7.05
449.273	7.13
449.477	7.24
449.681	7.42
449.884	7.47
450.088	7.5
450.292	7.61
450.495	7.68
450.699	7.72
450.902	7.87
451.106	7.91
451.31	7.99
451.513	8.07
451.717	7.92
451.92	7.91
452.124	7.85
452.327	7.89
452.531	7.75
452.734	7.76
452.938	7.68
453.141	7.75
453.345	7.75
453.548	7.74
453.752	7.67
453.955	7.77
454.158	7.71
454.362	7.85
454.565	7.84
454.769	7.98
454.972	8
455.175	8.01
455.379	7.99
455.582	8.09
455.785	8.03
455.988	8.04
456.192	8.06
456.395	8.04
456.598	7.84
456.801	7.78
457.005	7.68
457.208	7.71
457.411	7.76
457.614	7.61
457.817	7.32
458.021	7.19
458.224	7.16
458.427	7.02
458.63	7.03
458.833	7.02
459.036	6.94
459.239	6.86
459.442	6.74
459.645	6.63
459.848	6.59
460.051	6.6
460.254	6.66
460.457	6.61
460.66	6.71
460.863	6.73
461.066	6.81
461.269	6.87
461.472	6.95
461.675	7.07
461.878	7.27
462.081	7.43
462.284	7.57
462.486	7.59
462.689	7.59
462.892	7.69
463.095	7.82
463.298	7.85
463.5	7.79
463.703	7.95
463.906	7.97
464.109	7.9
464.311	7.84
464.514	7.97
464.717	8.05
464.92	8.27
465.122	8.25
465.325	8.29
465.528	8.43
465.73	8.57
465.933	8.45
466.135	8.41
466.338	8.42
466.541	8.49
466.743	8.42
466.946	8.46
467.148	8.36
467.351	8.24
467.553	8.18
467.756	8.12
467.958	8.13
468.161	8.14
468.363	8.18
468.566	8.07
468.768	8.03
468.971	8.01
469.173	8.01
469.375	7.92
469.578	7.9
469.78	7.88
469.983	7.76
470.185	7.88
470.387	7.89
470.59	7.84
470.792	7.97
470.994	7.95
471.196	7.94
471.399	7.88
471.601	7.94
471.803	7.93
472.005	7.94
472.208	7.91
472.41	7.77
472.612	7.74
472.814	7.75
473.016	7.79
473.218	7.93
473.421	7.87
473.623	7.82
473.825	7.83
474.027	7.85
474.229	7.95
474.431	8.05
474.633	8.16
474.835	8.16
475.037	8.07
475.239	8.01
475.441	7.94
475.643	8.02
475.845	8
476.047	7.91
476.249	7.94
476.451	7.75
476.653	7.65
476.855	7.51
477.057	7.56
477.258	7.52
477.46	7.41
477.662	7.26
477.864	7.21
478.066	7.22
478.268	7.28
478.469	7.29
478.671	7.27
478.873	7.21
479.075	7.08
479.276	6.99
479.478	7.02
479.68	6.91
479.882	6.94
480.083	6.85
480.285	6.76
480.487	6.76
480.688	6.61
480.89	6.61
481.091	6.46
481.293	6.36
481.495	6.22
481.696	6.04
481.898	5.94
482.099	5.76
482.301	5.64
482.502	5.47
482.704	5.28
482.905	5.2
483.107	5.04
483.308	4.98
483.51	4.94
483.711	4.88
483.913	4.85
484.114	4.84
484.315	4.85
484.517	4.82
484.718	4.86
484.92	4.89
485.121	4.92
485.322	4.98
485.524	5.07
485.725	5.12
485.926	5.13
486.127	5.15
486.329	5.17
486.53	5.12
486.731	5.12
486.932	5.11
487.134	5.09
487.335	5.08
487.536	5.06
487.737	5.04
487.938	5.02
488.139	5.06
488.341	5.09
488.542	5.1
488.743	5.17
488.944	5.26
489.145	5.31
489.346	5.37
489.547	5.38
489.748	5.42
489.949	5.41
490.15	5.4
490.351	5.4
490.552	5.41
490.753	5.42
490.954	5.38
491.155	5.36
491.356	5.34
491.557	5.34
491.758	5.38
491.959	5.38
492.159	5.44
492.36	5.56
492.561	5.59
492.762	5.67
492.963	5.76
493.164	5.86
493.364	5.92
493.565	6.01
493.766	6.09
493.967	6.21
494.167	6.35
494.368	6.42
494.569	6.44
494.769	6.54
494.97	6.57
495.171	6.61
495.371	6.62
495.572	6.73
495.773	6.8
495.973	6.82
496.174	6.77
496.375	6.8
496.575	6.8
496.776	6.79
496.976	6.76
497.177	6.77
497.377	6.71
497.578	6.73
497.778	6.67
497.979	6.74
498.179	6.78
498.38	6.83
498.58	6.84
498.78	6.87
498.981	6.91
499.181	7.01
499.382	7.11
499.582	7.26
499.782	7.31
499.983	7.44
500.183	7.41
500.383	7.49
500.584	7.56
500.784	7.65
500.984	7.77
501.184	7.86
501.385	7.84
501.585	7.83
501.785	7.83
501.985	7.9
502.185	7.82
502.386	7.84
502.586	7.9
502.786	7.9
502.986	7.87
503.186	7.81
503.386	7.87
503.586	7.95
503.786	7.93
503.987	7.92
504.187	7.92
504.387	8.08
504.587	8.12
504.787	8.13
504.987	8.25
505.187	8.25
505.387	8.38
505.587	8.33
505.786	8.41
505.986	8.41
506.186	8.53
506.386	8.53
506.586	8.48
506.786	8.43
506.986	8.36
507.186	8.29
507.386	8.33
507.585	8.22
507.785	8.16
507.985	8.11
508.185	8.22
508.384	8.2
508.584	8.28
508.784	8.26
508.984	8.39
509.183	8.51
509.383	8.55
509.583	8.64
509.782	8.75
509.982	8.9
510.182	8.94
510.381	8.95
510.581	9.04
510.781	9.06
510.98	9.12
511.18	9.17
511.379	9.08
511.579	9.18
511.778	9.23
511.978	9.29
512.177	9.24
512.377	9.32
512.576	9.41
512.776	9.38
512.975	9.41
513.175	9.47
513.374	9.59
513.573	9.85
513.773	10
513.972	9.99
514.172	10.08
514.371	10.24
514.57	10.32
514.77	10.42
514.969	10.52
515.168	10.68
515.367	10.77
515.567	10.81
515.766	10.7
515.965	10.65
516.164	10.76
516.364	10.73
516.563	10.72
516.762	10.69
516.961	10.66
517.16	10.72
517.359	10.72
517.559	10.72
517.758	10.65
517.957	10.74
518.156	10.73
518.355	10.78
518.554	10.85
518.753	10.96
518.952	11.02
519.151	11.11
519.35	11.24
519.549	11.32
519.748	11.44
519.947	11.64
520.146	11.78
520.345	12
520.544	12.16
520.743	12.32
520.942	12.39
521.141	12.6
521.339	12.77
521.538	12.85
521.737	12.94
521.936	13.1
522.135	13.14
522.333	13.26
522.532	13.25
522.731	13.25
522.93	13.32
523.129	13.5
523.327	13.48
523.526	13.49
523.725	13.62
523.923	13.72
524.122	13.77
524.321	13.85
524.519	13.83
524.718	13.87
524.917	13.92
525.115	13.9
525.314	13.88
525.512	13.95
525.711	14
525.909	13.96
526.108	13.98
526.306	14.04
526.505	14.08
526.703	14.13
526.902	14.18
527.1	14.21
527.299	14.31
527.497	14.33
527.696	14.37
527.894	14.4
528.092	14.43
528.291	14.44
528.489	14.48
528.688	14.5
528.886	14.52
529.084	14.57
529.283	14.65
529.481	14.7
529.679	14.79
529.877	14.89
530.076	15
530.274	15.16
530.472	15.3
530.67	15.45
530.869	15.6
531.067	15.83
531.265	15.99
531.463	16.16
531.661	16.27
531.859	16.42
532.057	16.54
532.255	16.6
532.454	16.62
532.652	16.69
532.85	16.73
533.048	16.77
533.246	16.81
533.444	16.84
533.642	16.92
533.84	17.02
534.038	17.14
534.236	17.22
534.434	17.34
534.632	17.48
534.83	17.61
535.027	17.74
535.225	17.89
535.423	18.05
535.621	18.21
535.819	18.37
536.017	18.46
536.215	18.52
536.412	18.63
536.61	18.7
536.808	18.82
537.006	18.9
537.203	19
537.401	19.19
537.599	19.34
537.797	19.52
537.994	19.65
538.192	19.92
538.39	20.08
538.587	20.3
538.785	20.62
538.983	20.85
539.18	21.09
539.378	21.23
539.575	21.34
539.773	21.28
539.97	21.36
540.168	21.37
540.366	21.34
540.563	21.36
540.761	21.35
540.958	21.3
541.155	21.23
541.353	21.23
541.55	21.23
541.748	21.25
541.945	21.34
542.143	21.31
542.34	21.37
542.537	21.47
542.735	21.59
542.932	21.67
543.129	21.8
543.327	22.07
543.524	22.37
543.721	22.71
543.919	22.99
544.116	23.34
544.313	23.8
544.51	24.17
544.708	24.42
544.905	24.7
545.102	25.11
545.299	25.4
545.496	25.58
545.693	25.62
545.891	25.55
546.088	25.56
546.285	25.49
546.482	25.36
546.679	25.22
546.876	25.16
547.073	25.13
547.27	24.94
547.467	24.85
547.664	24.73
547.861	24.76
548.058	24.76
548.255	24.89
548.452	24.95
548.649	25.04
548.846	25.16
549.043	25.21
549.24	25.15
549.437	25.16
549.633	25.21
549.83	25.32
550.027	25.36
550.224	25.48
550.421	25.35
550.618	25.42
550.814	25.36
551.011	25.36
551.208	25.37
551.405	25.45
551.601	25.51
551.798	25.4
551.995	25.32
552.191	25.18
552.388	25.04
552.585	24.99
552.781	24.82
552.978	24.9
553.175	24.96
553.371	24.92
553.568	24.9
553.764	24.96
553.961	25.04
554.157	25.12
554.354	25.22
554.55	25.31
554.747	25.34
554.943	25.49
555.14	25.55
555.336	25.55
555.533	25.68
555.729	25.8
555.926	25.74
556.122	25.9
556.318	26
556.515	26.06
556.711	26.08
556.907	26.27
557.104	26.48
557.3	26.42
557.496	26.48
557.693	26.5
557.889	26.48
558.085	26.6
558.281	26.6
558.478	26.68
558.674	26.61
558.87	26.67
559.066	26.55
559.262	26.49
559.459	26.35
559.655	26.29
559.851	26.3
560.047	26.42
560.243	26.4
560.439	26.32
560.635	26.09
560.831	26.17
561.027	26.14
561.223	26.14
561.419	26.14
561.615	26.26
561.811	26.37
562.007	26.32
562.203	26.34
562.399	26.45
562.595	26.45
562.791	26.63
562.987	26.53
563.183	26.64
563.379	26.68
563.575	26.67
563.771	26.71
563.966	26.68
564.162	26.7
564.358	26.57
564.554	26.35
564.75	26.34
564.945	26.26
565.141	26.33
565.337	26.24
565.533	26.25
565.728	26.1
565.924	26.06
566.12	26.1
566.315	26.13
566.511	26.14
566.707	26.21
566.902	26.23
567.098	26.28
567.293	26.36
567.489	26.34
567.684	26.3
567.88	26.42
568.076	26.46
568.271	26.44
568.467	26.5
568.662	26.53
568.858	26.55
569.053	26.74
569.248	26.77
569.444	26.82
569.639	26.86
569.835	26.93
570.03	27.02
570.225	27.03
570.421	26.95
570.616	26.87
570.812	26.78
571.007	26.76
571.202	26.64
571.397	26.59
571.593	26.5
571.788	26.53
571.983	26.5
572.178	26.54
572.374	26.58
572.569	26.59
572.764	26.64
572.959	26.71
573.154	26.78
573.35	26.73
573.545	26.81
573.74	26.74
573.935	26.81
574.13	26.79
574.325	26.74
574.52	26.78
574.715	26.87
574.91	26.92
575.105	27.06
575.3	27.04
575.495	27.23
575.69	27.23
575.885	27.53
576.08	27.67
576.275	27.96
576.47	28.06
576.665	28.18
576.86	28.4
577.055	28.56
577.25	28.69
577.444	28.95
577.639	29.09
577.834	29.21
578.029	29.3
578.224	29.29
578.418	29.42
578.613	29.5
578.808	29.55
579.003	29.56
579.197	29.67
579.392	29.56
579.587	29.65
579.781	29.66
579.976	29.82
580.171	29.77
580.365	30.04
580.56	30.06
580.755	30.06
580.949	30.09
581.144	30.26
581.338	30.2
581.533	30.49
581.727	30.52
581.922	30.52
582.116	30.52
582.311	30.77
582.505	30.55
582.7	30.54
582.894	30.7
583.089	30.76
583.283	30.71
583.478	30.92
583.672	30.85
583.866	30.94
584.061	30.93
584.255	30.95
584.449	30.92
584.644	31.06
584.838	31.23
585.032	31.35
585.226	31.63
585.421	31.81
585.615	31.83
585.809	31.92
586.003	31.93
586.198	32.1
586.392	32.2
586.586	32.09
586.78	32.06
586.974	32.09
587.168	32.13
587.363	32.05
587.557	31.88
587.751	31.68
587.945	31.71
588.139	31.6
588.333	31.49
588.527	31.33
588.721	31.44
588.915	31.46
589.109	31.16
589.303	31.05
589.497	30.81
589.691	30.82
589.885	30.99
590.079	30.83
590.273	30.85
590.466	30.9
590.66	30.86
590.854	30.91
591.048	30.91
591.242	31.11
591.436	31.07
591.629	31.27
591.823	31.45
592.017	31.43
592.211	31.51
592.404	31.61
592.598	31.52
592.792	31.81
592.986	31.57
593.179	31.46
593.373	31.32
593.567	31.31
593.76	31.21
593.954	30.99
594.147	30.9
594.341	30.72
594.535	30.59
594.728	30.55
594.922	30.23
595.115	30.2
595.309	30.16
595.502	30.22
595.696	29.99
595.889	29.87
596.083	29.66
596.276	29.46
596.47	29.36
596.663	29.2
596.856	29.17
597.05	29.35
597.243	29.37
597.437	29.5
597.63	29.6
597.823	29.74
598.017	29.91
598.21	30.26
598.403	30.59
598.596	30.96
598.79	31.21
598.983	31.39
599.176	31.28
599.369	31.55
599.563	31.64
599.756	31.65
599.949	31.89
600.142	31.98
600.335	31.99
600.528	32.04
600.722	32.07
600.915	32.14
601.108	32.12
601.301	32.12
601.494	32.03
601.687	31.98
601.88	31.82
602.073	31.44
602.266	31
602.459	30.75
602.652	30.51
602.845	30.34
603.038	30.21
603.231	30.14
603.424	30.12
603.617	29.99
603.809	29.77
604.002	29.7
604.195	29.76
604.388	29.87
604.581	29.96
604.774	30.02
604.966	29.94
605.159	29.91
605.352	29.9
605.545	29.94
605.737	30.1
605.93	30.29
606.123	30.52
606.316	30.8
606.508	31.12
606.701	31.39
606.894	31.71
607.086	32.09
607.279	32.36
607.471	32.64
607.664	32.86
607.857	33.09
608.049	33.45
608.242	33.84
608.434	34.26
608.627	34.7
608.819	35.33
609.012	35.86
609.204	37.01
609.397	38
609.589	39.26
609.782	40.58
609.974	41.85
610.166	43.1
610.359	44.33
610.551	45.46
610.743	46.54
610.936	47.5
611.128	48.4
611.32	48.62
611.513	48.94
611.705	48.78
611.897	48.7
612.09	48.37
612.282	47.92
612.474	47.22
612.666	46.73
612.858	46.24
613.051	45.64
613.243	44.94
613.435	44.55
613.627	44.17
613.819	43.82
614.011	43.78
614.203	43.31
614.395	42.82
614.588	42.44
614.78	41.86
614.972	41.44
615.164	40.63
615.356	40.11
615.548	39.41
615.74	38.8
615.932	38.13
616.124	37.07
616.315	36.81
616.507	36.64
616.699	36.31
616.891	36.07
617.083	35.6
617.275	35.62
617.467	35.3
617.659	35.25
617.85	35.14
618.042	35.22
618.234	35.23
618.426	34.88
618.618	34.73
618.809	34.69
619.001	34.72
619.193	34.96
619.384	35.01
619.576	35.32
619.768	35.15
619.959	35.13
620.151	35.16
620.343	35.27
620.534	35.42
620.726	35.43
620.917	35.49
621.109	35.39
621.301	35.24
621.492	35.35
621.684	35.39
621.875	35.39
622.067	35.5
622.258	35.57
622.45	35.7
622.641	35.56
622.832	35.57
623.024	35.66
623.215	35.68
623.407	35.78
623.598	35.61
623.789	35.61
623.981	35.73
624.172	35.81
624.363	35.76
624.555	35.47
624.746	35.47
624.937	35.23
625.129	35.25
625.32	34.98
625.511	34.96
625.702	34.79
625.893	34.62
626.085	34.45
626.276	34.13
626.467	33.96
626.658	33.81
626.849	33.77
627.04	33.84
627.231	33.81
627.422	34.04
627.614	33.89
627.805	34.09
627.996	34.22
628.187	34.43
628.378	34.7
628.569	35
628.76	35.41
628.951	35.63
629.142	36
629.332	36.1
629.523	36.36
629.714	36.68
629.905	36.86
630.096	36.99
630.287	37.27
630.478	37.43
630.669	37.47
630.859	37.37
631.05	37.25
631.241	37.07
631.432	36.85
631.623	36.59
631.813	36.45
632.004	36.13
632.195	35.93
632.385	35.43
632.576	35.17
632.767	34.87
632.957	34.65
633.148	34.73
633.339	34.59
633.529	34.38
633.72	34.21
633.91	34.07
634.101	33.84
634.292	33.81
634.482	34.02
634.673	34.2
634.863	34.19
635.054	34.44
635.244	34.23
635.435	34.24
635.625	34.5
635.815	34.53
636.006	34.61
636.196	34.86
636.387	34.85
636.577	34.82
636.767	34.62
636.958	34.69
637.148	34.41
637.338	34.6
637.529	34.78
637.719	34.82
637.909	35.03
638.099	35.05
638.29	35.16
638.48	35.34
638.67	35.32
638.86	35.46
639.05	35.47
639.241	35.64
639.431	35.7
639.621	35.42
639.811	35.39
640.001	35.44
640.191	35.43
640.381	35.32
640.571	35.25
640.761	35.32
640.951	35.17
641.141	35.45
641.331	35.39
641.521	35.57
641.711	35.89
641.901	36.01
642.091	36.02
642.281	36.09
642.471	36.02
642.661	36.14
642.851	36.35
643.041	36.62
643.231	36.44
643.42	36.61
643.61	36.56
643.8	36.38
643.99	36.5
644.18	36.31
644.369	36.4
644.559	36.77
644.749	36.75
644.939	36.62
645.128	36.5
645.318	36.56
645.508	36.49
645.697	36.58
645.887	36.62
646.076	36.52
646.266	36.63
646.456	36.69
646.645	36.66
646.835	36.64
647.024	36.53
647.214	36.61
647.403	36.56
647.593	36.52
647.782	36.25
647.972	36.57
648.161	36.71
648.351	36.76
648.54	36.75
648.73	36.43
648.919	36.6
649.108	36.56
649.298	36.78
649.487	36.91
649.677	37.04
649.866	37.39
650.055	37.2
650.244	37.16
650.434	37.26
650.623	37.28
650.812	37.54
651.002	37.39
651.191	37.55
651.38	37.46
651.569	37.45
651.758	37.55
651.947	37.57
652.137	37.47
652.326	37.27
652.515	37.4
652.704	37.56
652.893	37.74
653.082	37.83
653.271	38.07
653.46	38
653.649	38.2
653.838	37.92
654.027	37.71
654.216	38.02
654.405	38.45
654.594	38.07
654.783	37.93
654.972	37.77
655.161	37.81
655.35	37.49
655.539	37.37
655.728	37.38
655.916	37.46
656.105	37.33
656.294	37.28
656.483	36.96
656.672	37.09
656.86	37.04
657.049	36.92
657.238	36.69
657.427	36.45
657.615	36.47
657.804	36.05
657.993	35.97
658.181	35.91
658.37	35.57
658.559	35.52
658.747	35.39
658.936	35.24
659.125	35.23
659.313	35.15
659.502	35.45
659.69	35.45
659.879	35.55
660.067	35.68
660.256	35.86
660.444	36.17
660.633	36.26
660.821	36.48
661.01	36.68
661.198	36.88
661.387	37.07
661.575	36.89
661.763	37.1
661.952	37.35
662.14	37.78
662.328	38
662.517	38.09
662.705	38.17
662.893	38.28
663.082	38.42
663.27	38.4
663.458	38.75
663.646	39.25
663.834	39.34
664.023	39.48
664.211	39.61
664.399	39.62
664.587	39.79
664.775	39.69
664.963	39.72
665.152	39.79
665.34	40.07
665.528	39.89
665.716	39.64
665.904	39.76
666.092	39.71
666.28	39.3
666.468	39.2
666.656	38.9
666.844	39.22
667.032	39.44
667.22	39.52
667.408	39.57
667.596	39.54
667.784	39.43
667.971	39.3
668.159	39.07
668.347	38.76
668.535	38.83
668.723	38.77
668.911	38.53
669.098	38.26
669.286	38.08
669.474	37.86
669.662	38.07
669.849	38.51
670.037	38.86
670.225	39.13
670.413	39.48
670.6	39.29
670.788	39.77
670.976	40.16
671.163	40.26
671.351	40.44
671.538	40.5
671.726	40.38
671.913	40.19
672.101	39.87
672.289	39.57
672.476	39.44
672.664	39.92
672.851	39.69
673.039	39.78
673.226	40.11
673.413	39.86
673.601	39.89
673.788	40.11
673.976	40.18
674.163	40.41
674.35	40.7
674.538	41.05
674.725	41.11
674.912	41.29
675.1	41.09
675.287	41.1
675.474	41.49
675.662	41.74
675.849	41.81
676.036	41.74
676.223	41.74
676.411	41.77
676.598	41.76
676.785	41.64
676.972	41.38
677.159	41.48
677.346	41.11
677.533	41.02
677.721	40.87
677.908	40.6
678.095	40.59
678.282	40.29
678.469	40.15
678.656	39.76
678.843	39.53
679.03	39.53
679.217	39.44
679.404	39.2
679.591	38.9
679.778	38.86
679.964	38.64
680.151	38.61
680.338	38.5
680.525	38.69
680.712	38.95
680.899	39.08
681.086	39.14
681.272	38.91
681.459	39.43
681.646	39.54
681.833	39.39
682.02	39.51
682.206	39.63
682.393	39.71
682.58	39.42
682.766	39.37
682.953	39.59
683.14	39.8
683.326	40.82
683.513	40.99
683.7	41.16
683.886	41.18
684.073	41.65
684.259	41.79
684.446	42
684.632	42.42
684.819	42.56
685.005	42.27
685.192	42.28
685.378	41.5
685.565	41.44
685.751	41.4
685.938	41.63
686.124	41.63
686.31	41.23
686.497	41.49
686.683	41.28
686.87	41.51
687.056	41.62
687.242	41.64
687.429	41.82
687.615	41.87
687.801	42.13
687.987	42.24
688.174	42.01
688.36	42.36
688.546	42.38
688.732	42.39
688.918	42.11
689.105	42.23
689.291	42.41
689.477	42.75
689.663	42.71
689.849	42.58
690.035	42.69
690.221	42.83
690.407	43.04
690.593	43.27
690.779	43.62
690.965	43.53
691.151	43.81
691.337	43.63
691.523	43.07
691.709	42.98
691.895	43.45
692.081	43.49
692.267	43.37
692.453	43.56
692.639	43.2
692.825	43.59
693.011	44.09
693.196	44.16
693.382	44.45
693.568	44.5
693.754	44.63
693.94	44.1
694.125	44.23
694.311	44.44
694.497	44.22
694.682	44.51
694.868	44.52
695.054	44.42
695.239	44.12
695.425	43.41
695.611	43.81
695.796	43.36
695.982	43.51
696.168	43.2
696.353	43.14
696.539	42.47
696.724	42.08
696.91	41.42
697.095	41.11
697.281	40.56
697.466	40.74
697.652	40.31
697.837	40.12
698.023	39.6
698.208	39.2
698.393	38.74
698.579	38.86
698.764	38.5
698.949	38.23
699.135	38.3
699.32	38.46
699.505	38.39
699.691	38.21
699.876	38.31
700.061	38.69
700.246	39.25
700.432	39.75
700.617	40.17
700.802	40.58
700.987	41.07
701.172	41.13
701.358	41.5
701.543	41.98
701.728	42.6
701.913	43.38
702.098	44.07
702.283	44.63
702.468	44.9
702.653	45.35
702.838	46.08
703.023	46.56
703.208	47.4
703.393	47.72
703.578	48.27
703.763	48.96
703.948	48.79
704.133	48.53
704.318	48.61
704.503	48.75
704.688	48.88
704.873	48.95
705.057	49.07
705.242	48.76
705.427	49.04
705.612	49.23
705.797	49.43
705.981	50.02
706.166	50.32
706.351	50.38
706.536	50.6
706.72	50.52
706.905	50.88
707.09	51.16
707.274	51.68
707.459	52.01
707.644	51.89
707.828	52.01
708.013	52.09
708.197	52.13
708.382	52
708.567	52.15
708.751	52.07
708.936	51.72
709.12	51.57
709.305	51.26
709.489	50.63
709.673	50.34
709.858	49.82
710.042	49.67
710.227	49.53
710.411	49.56
710.596	49.31
710.78	49.37
710.964	49.67
711.149	49.68
711.333	49.59
711.517	49.68
711.702	49.73
711.886	49.93
712.07	49.6
712.254	49.72
712.438	49.51
712.623	49.55
712.807	49.27
712.991	48.84
713.175	48.52
713.359	48.57
713.544	48.51
713.728	48.45
713.912	47.77
714.096	47.66
714.28	47.1
714.464	47.4
714.648	47.06
714.832	47.22
715.016	47.26
715.2	47.17
715.384	46.77
715.568	46.45
715.752	45.97
715.936	46.18
716.12	46.06
716.304	46.39
716.488	45.78
716.671	45.97
716.855	46.07
717.039	46.13
717.223	46.53
717.407	46.6
717.59	46.98
717.774	47.26
717.958	47.5
718.142	47.81
718.325	47.68
718.509	47.99
718.693	48.59
718.877	48.5
719.06	48.26
719.244	47.9
719.428	48.18
719.611	48.61
719.795	49.02
719.978	49.67
720.162	49.83
720.345	50.4
720.529	50.9
720.713	50.85
720.896	51.04
721.08	51.55
721.263	52.47
721.446	52.49
721.63	52.49
721.813	52.36
721.997	51.92
722.18	52.13
722.364	52.44
722.547	52.24
722.73	51.72
722.914	51.84
723.097	51.83
723.28	51.62
723.464	52.34
723.647	52.68
723.83	52.54
724.013	52.68
724.197	53.02
724.38	53.24
724.563	53.26
724.746	53.47
724.929	53.83
725.112	54.08
725.296	53.49
725.479	53.44
725.662	53.38
725.845	54.22
726.028	53.7
726.211	53.05
726.394	52.11
726.577	51.59
726.76	51.55
726.943	51.03
727.126	50.36
727.309	50.66
727.492	50.2
727.675	49.91
727.858	49.21
728.041	49.45
728.224	50.11
728.407	50.09
728.589	50.81
728.772	50.82
728.955	51.05
729.138	51.44
729.321	51.43
729.503	51.76
729.686	51.67
729.869	51.97
730.052	51.95
730.234	51.54
730.417	51.99
730.6	51.79
730.782	51.9
730.965	51.95
731.148	52.19
731.33	52.37
731.513	52.04
731.695	51.84
731.878	52.19
732.061	52.14
732.243	52.38
732.426	51.98
732.608	52.09
732.791	52.07
732.973	51.77
733.156	51.54
733.338	51.64
733.52	51.92
733.703	52.53
733.885	52.46
734.068	53.04
734.25	53.04
734.432	53.67
734.615	53.65
734.797	54.34
734.979	54.77
735.162	55.11
735.344	54.54
735.526	54.35
735.708	54.39
735.891	54.17
736.073	53.98
736.255	54.07
736.437	54.11
736.619	54.2
736.802	53.96
736.984	54.18
737.166	54.79
737.348	55.55
737.53	55.77
737.712	55.64
737.894	56.23
738.076	56.36
738.258	56.46
738.44	56.27
738.622	56.44
738.804	56.62
738.986	56.62
739.168	56.01
739.35	56.3
739.532	56.41
739.714	56.66
739.896	56.47
740.078	56.88
740.259	56.64
740.441	57.32
740.623	57.62
740.805	57.79
740.987	57.68
741.168	57.96
741.35	58.22
741.532	59.37
741.714	60.33
741.895	60.18
742.077	60.48
742.259	61.39
742.44	61.46
742.622	61.71
742.804	61.57
742.985	61.7
743.167	61.67
743.348	61.77
743.53	61.51
743.711	60.54
743.893	61.46
744.075	61.85
744.256	61.78
744.438	62
744.619	62.39
744.8	62.42
744.982	62.81
745.163	63.69
745.345	63.89
745.526	63.83
745.707	64.3
745.889	63.68
746.07	63.05
746.252	63.54
746.433	63.22
746.614	62.89
746.795	62.88
746.977	62.98
747.158	62.41
747.339	62.63
747.52	62.86
747.702	62.93
747.883	63.36
748.064	63.88
748.245	63.51
748.426	63.42
748.607	64.59
748.788	64.91
748.97	65.09
749.151	65.52
749.332	66.17
749.513	66.1
749.694	66.27
749.875	66.47
750.056	67.27
750.237	66.7
750.418	67.79
750.599	66.52
750.78	65.94
750.96	65.9
751.141	65.97
751.322	64.83
751.503	64.71
751.684	65.05
751.865	64.58
752.046	64.04
752.226	64.88
752.407	64
752.588	63.97
752.769	64.93
752.949	64.56
753.13	65.04
753.311	65.32
753.492	65.34
753.672	65
753.853	65.72
754.034	65.5
754.214	65.73
754.395	65.98
754.575	66.3
754.756	66.77
754.937	66.95
755.117	65.76
755.298	65.85
755.478	66.09
755.659	66.18
755.839	65.94
756.02	65.91
756.2	65.28
756.381	65.19
756.561	66.16
756.741	65.02
756.922	65.78
757.102	66.14
757.283	66.21
757.463	65.86
757.643	65.93
757.823	65.96
758.004	65.48
758.184	65.01
758.364	64.87
758.545	63.7
758.725	63.68
758.905	62.91
759.085	63.05
759.265	62.77
759.446	62.18
759.626	61.75
759.806	60.84
759.986	60.44
760.166	60.56
760.346	60.48
760.526	60.41
760.706	60.32
760.886	59.85
761.066	59.84
761.246	59.44
761.426	59.19
761.606	58.37
761.786	57.85
761.966	57.65
762.146	56.85
762.326	56
762.506	55.24
762.686	54.63
762.866	53.7
763.046	52.75
763.225	52.05
763.405	51.26
763.585	50.5
763.765	50.3
763.945	49.76
764.124	49.75
764.304	49.77
764.484	50.21
764.664	50.34
764.843	51.11
765.023	51.83
765.203	52.18
765.382	53.29
765.562	54.61
765.741	55.54
765.921	57.09
766.101	57.72
766.28	58.81
766.46	59.3
766.639	59.99
766.819	60.61
766.998	61.14
767.178	61.88
767.357	62.77
767.537	63.7
767.716	64.29
767.896	64.13
768.075	64.73
768.254	64.6
768.434	65.32
768.613	66.04
768.792	65.7
768.972	66.29
769.151	66.7
769.33	66.59
769.51	67.79
769.689	68.09
769.868	68.34
770.047	69.94
770.226	70.34
770.406	70.28
770.585	71.48
770.764	72.98
770.943	73.44
771.122	73.73
771.301	74.28
771.48	72.72
771.66	73.08
771.839	73.78
772.018	72.86
772.197	73.92
772.376	74.14
772.555	74.22
772.734	74
772.913	73.66
773.092	74.24
773.271	74.21
773.449	74.58
773.628	75.18
773.807	75.41
773.986	75.31
774.165	74.28
774.344	74.99
774.523	73.9
774.701	73.32
774.88	74.54
775.059	75.37
775.238	75.78
775.417	75.79
775.595	75.77
775.774	75.85
775.953	75.86
776.131	77.09
776.31	75.94
776.489	76.6
776.667	77.71
776.846	76.18
777.025	74.85
777.203	74.54
777.382	76.03
777.56	75.76
777.739	76.24
777.917	76.46
778.096	75.6
778.274	76.19
778.453	76.53
778.631	76.95
778.81	77.02
778.988	77.34
779.166	78
779.345	77.43
779.523	77.48
779.702	77.16
779.88	79.11
780.058	79.28
780.237	79.65
780.415	79.37
780.593	79.41
780.771	80.55
780.95	82.45
781.128	82.24
781.306	82.13
781.484	82.56
781.662	82.63
781.841	81.04
782.019	81.24
782.197	81.45
782.375	81.43
782.553	81.94
782.731	81.97
782.909	81.59
783.087	83
783.265	83.18
783.443	82.47
783.621	83.47
783.799	83.44
783.977	84.47
784.155	84.6
784.333	84.58
784.511	83.41
784.689	82.69
784.867	82.35
785.045	81.03
785.223	80.68
785.4	81.17
785.578	79.74
785.756	80.3
785.934	79.31
786.112	80.21
786.289	80.85
786.467	82.19
786.645	82.1
786.823	81.26
787	81.55
787.178	80.91
787.356	79.79
787.533	79.36
787.711	78.34
787.889	78.01
788.066	76.62
788.244	75.71
788.421	75.55
788.599	74.81
788.776	74.56
788.954	73.95
789.131	74.59
789.309	75.63
789.486	76.02
789.664	77.8
789.841	78.37
790.019	78.48
790.196	78.49
790.373	76.5
790.551	78.51
790.728	79.62
790.906	81.83
791.083	84.65
791.26	85.38
791.437	85.46
791.615	83.88
791.792	85.56
791.969	87.09
792.146	88.6
792.324	91.14
792.501	90.33
792.678	90.08
792.855	89.4
793.032	86.74
793.209	86.78
793.387	87.23
793.564	88.92
793.741	87.97
793.918	87.34
794.095	86.87
794.272	85.74
794.449	86.34
794.626	87.78
794.803	86.48
794.98	86.56
795.157	84.87
795.334	84.54
795.511	83.34
795.688	82.89
795.864	81.45
796.041	81.34
796.218	83
796.395	82.72
796.572	80.32
796.749	80.64
796.925	80.4
797.102	80.91
797.279	81.15
797.456	80.88
797.632	80.15
797.809	80.5
797.986	80.34
798.162	79.55
798.339	79.51
798.516	80.67
798.692	80.82
798.869	80.54
799.046	80.28
799.222	81.05
799.399	80.78
799.575	81.86
799.752	82.66
799.928	83.73
800.105	82.75
800.281	82.26
800.458	82.89
800.634	82.34
800.811	83.57
800.987	84.24
801.163	83.76
801.34	85.88
801.516	86.24
801.692	88.24
801.869	87.37
802.045	89.06
802.221	89.76
802.398	88.38
802.574	89.21
802.75	90.23
802.926	90.55
803.103	92.76
803.279	93.02
803.455	94.19
803.631	94.35
803.807	96.75
803.983	97.32
804.16	98.38
804.336	99.23
804.512	100.59
804.688	101.08
804.864	101.63
805.04	99.51
805.216	97.32
805.392	96.82
805.568	96.57
805.744	95.49
805.92	94.34
806.096	94.88
806.272	97
806.448	98.76
806.623	99.39
806.799	100.21
806.975	100.19
807.151	102.63
807.327	101.45
807.503	99.11
807.678	99.86
807.854	99.88
808.03	99.61
808.206	98.91
808.381	95.51
808.557	94.27
808.733	93.66
808.908	94.3
809.084	93.31
809.26	92.93
809.435	94.83
809.611	94.53
809.787	93.83
809.962	93.27
810.138	92.61
810.313	94.03
810.489	94.09
810.664	95.14
810.84	95.04
811.015	95
811.191	96.57
811.366	96.15
811.542	95.41
811.717	96.65
811.892	97.05
812.068	98.23
812.243	97.89
812.419	98.33
812.594	98.18
812.769	98.58
812.944	98.45
813.12	98.01
813.295	97.84
813.47	98.63
813.645	100.52
813.821	100.18
813.996	99.34
814.171	100
814.346	98.15
814.521	97.14
814.697	97.58
814.872	98.96
815.047	99.57
815.222	100.73
815.397	100.17
815.572	99.1
815.747	98.63
815.922	98.91
816.097	98.48
816.272	98.79
816.447	101.52
816.622	102.1
816.797	102.65
816.972	102.86
817.147	100.49
817.322	99.09
817.496	97.52
817.671	98.01
817.846	96.99
818.021	96.38
818.196	96.06
818.371	93.45
818.545	91.64
818.72	89.82
818.895	87.91
819.069	86.21
819.244	87.41
819.419	85.6
819.594	83.1
819.768	80.76
819.943	77.56
820.117	74.28
820.292	71.47
820.467	68.66
820.641	64.87
820.816	61.56
820.99	58.9
821.165	54.94
821.339	52.28
821.514	50.11
821.688	48.71
821.863	47.49
822.037	46.17
822.212	45.38
822.386	44.1
822.56	43.54
822.735	43.24
822.909	43
823.084	43.18
823.258	43.19
823.432	43.41
823.606	43.56
823.781	43.81
823.955	44.4
824.129	44.68
824.303	45.71
824.478	46.65
824.652	47.52
824.826	48.6
825	49.64
825.174	50.62
825.348	51.68
825.523	52.71
825.697	53.42
825.871	54.18
826.045	54.41
826.219	54.92
826.393	55.03
826.567	54.01
826.741	54.07
826.915	54.2
827.089	54.98
827.263	55.02
827.437	54.66
827.611	54.89
827.784	54.99
827.958	55.46
828.132	55.38
828.306	55.75
828.48	57.52
828.654	57.99
828.827	58.5
829.001	58.23
829.175	59.5
829.349	62.18
829.522	63.91
829.696	66.52
829.87	69.05
830.044	72.62
830.217	75.82
830.391	78.04
830.565	80.56
830.738	84.54
830.912	88.58
831.085	90.87
831.259	90.84
831.432	92.05
831.606	91.54
831.779	89.9
831.953	88.14
832.126	85.7
832.3	83.53
832.473	81.88
832.647	78.16
832.82	75.32
832.994	72.6
833.167	71.92
833.34	69.19
833.514	66.65
833.687	65.67
833.86	64.42
834.034	63.56
834.207	63.45
834.38	62.77
834.553	62.46
834.727	62.96
834.9	63.72
835.073	63.96
835.246	65.64
835.419	68.85
835.593	70.69
835.766	72.17
835.939	74.95
836.112	76.95
836.285	79.26
836.458	82
836.631	84.88
836.804	87.98
836.977	89.29
837.15	93.74
837.323	94.12
837.496	96.17
837.669	101.86
837.842	104.16
838.015	106.72
838.188	109.49
838.361	112.59
838.533	114.13
838.706	115.4
838.879	115.51
839.052	112.69
839.225	115.73
839.398	114.36
839.57	109.56
839.743	109.96
839.916	108.48
840.088	108.16
840.261	107.82
840.434	107.05
840.607	107.43
840.779	109.35
840.952	111.3
841.124	109.45
841.297	112.63
841.47	115.08
841.642	114.58
841.815	118.26
841.987	120.2
842.16	122.44
842.332	123.64
842.505	126.08
842.677	124.42
842.85	125.21
843.022	130.87
843.194	135.11
843.367	141.63
843.539	147.24
843.712	145.1
843.884	146.66
844.056	149.25
844.229	156.57
844.401	157.66
844.573	169.49
844.745	177.27
844.918	176.55
845.09	173.15
845.262	174.38
845.434	169.74
845.606	179.74
845.779	180.76
845.951	187.41
846.123	182.21
846.295	181.08
846.467	175.96
846.639	177.33
846.811	173.83
846.983	171.97
847.155	172.97
847.327	176.07
847.499	171.6
847.671	174.1
847.843	168.28
848.015	173.73
848.187	174.52
848.359	182.34
848.531	176.3
848.703	177.15
848.875	185.33
849.047	182.71
849.218	188.71
849.39	196.73
849.562	199.88
849.734	202.45
849.905	204.43
850.077	209.36
850.249	206.95
850.421	209.72
850.592	208.3
850.764	206.96
850.936	216.69
851.107	215.19
851.279	207.3
851.451	203.03
851.622	209.66
851.794	205.35
851.965	199.91
852.137	194.86
852.308	197.95
852.48	203.67
852.651	203.99
852.823	200.79
852.994	200.65
853.166	205.03
853.337	202.35
853.509	200.86
853.68	203.7
853.851	211.01
854.023	215.56
854.194	216.28
854.365	218.45
854.537	222.54
854.708	225.5
854.879	224.68
855.05	229.34
855.222	234.15
855.393	232.04
855.564	232.73
855.735	229.06
855.906	231
856.078	220.17
856.249	215.25
856.42	208.42
856.591	201.15
856.762	195.91
856.933	198.44
857.104	192.27
857.275	188.34
857.446	187.3
857.617	187.54
857.788	187.21
857.959	194.65
858.13	202.5
858.301	208.35
858.472	213.66
858.643	226.44
858.814	224.01
858.985	233.93
859.155	240
859.326	234.07
859.497	238.6
859.668	240.27
859.839	237.43
860.009	229.19
860.18	221.6
860.351	220.87
860.522	213.32
860.692	201.39
860.863	202.44
861.034	210.35
861.204	213.63
861.375	206.55
861.546	204.23
861.716	209.57
861.887	218.28
862.057	226.08
862.228	222.47
862.398	229.98
862.569	237.55
862.739	239.91
862.91	227.8
863.08	229.14
863.251	229.63
863.421	227.26
863.592	221.99
863.762	215.33
863.932	206.65
864.103	208.48
864.273	198.56
864.443	204.74
864.614	205.49
864.784	204.71
864.954	207.13
865.125	220.02
865.295	222.18
865.465	227.63
865.635	228.57
865.805	238.71
865.976	237.85
866.146	242.09
866.316	229.63
866.486	224.33
866.656	228.65
866.826	229.26
866.996	217.16
867.166	230.12
867.336	229.73
867.506	235.75
867.676	225.17
867.846	227.6
868.016	235.38
868.186	241.5
868.356	243.76
868.526	237.94
868.696	230.13
868.866	236.92
869.036	220.26
869.206	216.66
869.376	213.9
869.545	217.15
869.715	221.4
869.885	219.77
870.055	217.18
870.224	218.63
870.394	217.16
870.564	222.48
870.734	220.52
870.903	223.24
871.073	225.67
871.243	218.6
871.412	216.58
871.582	211.64
871.751	213.28
871.921	220.42
872.091	217.91
872.26	218.49
872.43	216.73
872.599	206.33
872.769	205.98
872.938	203.95
873.108	200.33
873.277	194.25
873.446	195.74
873.616	192.16
873.785	193.44
873.955	194.53
874.124	201.93
874.293	200.79
874.463	210.09
874.632	206.73
874.801	205.21
874.971	213.38
875.14	228.66
875.309	219.21
875.478	215.46
875.647	208.55
875.817	209.07
875.986	204.31
876.155	200.88
876.324	198.59
876.493	200.33
876.662	204.21
876.831	197.31
877	190.29
877.17	194.96
877.339	194.82
877.508	190.46
877.677	186.4
877.846	176.92
878.015	177.88
878.184	176.13
878.352	175.9
878.521	172.77
878.69	170.75
878.859	165.91
879.028	161.61
879.197	159.12
879.366	150.99
879.534	140.6
879.703	137.24
879.872	130.07
880.041	121.55
880.21	113.8
880.378	104.45
880.547	96.66
880.716	90.74
880.884	85.6
881.053	80.95
881.222	77.61
881.39	74.22
881.559	71.17
881.727	67.69
881.896	65.64
882.065	64.15
882.233	62.65
882.402	62.05
882.57	61.03
882.739	59.88
882.907	58.99
883.076	59.03
883.244	59.77
883.412	60.98
883.581	62.37
883.749	63.79
883.918	64.56
884.086	67.44
884.254	69.78
884.423	72.55
884.591	75.33
884.759	78.91
884.927	81.33
885.096	85.03
885.264	89.97
885.432	95.22
885.6	99.32
885.769	104.54
885.937	108.12
886.105	113.16
886.273	117.05
886.441	125.04
886.609	132.22
886.777	142.57
886.945	147.81
887.113	153.04
887.281	153.25
887.449	152.98
887.617	158.2
887.785	168.61
887.953	177.85
888.121	183.7
888.289	191.3
888.457	192.87
888.625	189.66
888.793	200.63
888.961	200.81
889.129	211.21
889.296	229.61
889.464	236.24
889.632	233.4
889.8	227.13
889.967	239.98
890.135	235.01
