Data from 2938737__Reflection_18-05-58-623.txt Node
Date: Sun Mar 15 18:05:58 EDT 2015
User: robert
Spectrometer: USB4E03002
Autoset integration time: false
Trigger mode: 4
Integration Time (sec): 1.000000E-1
Scans to average: 10
Electric dark correction enabled: false
Nonlinearity correction enabled: false
Boxcar width: 5
Stray light correction enabled: false
XAxis mode: Wavelengths
Stop averaging: false
Number of Pixels in Spectrum: 3648
>>>>>Begin Spectral Data<<<<<
177.575	149.58
177.794	188.59
178.014	194.09
178.233	239.09
178.452	328.05
178.672	308.78
178.891	385.67
179.11	324.24
179.33	367.09
179.549	412.75
179.768	1087.9
179.987	532.94
180.207	278.28
180.426	274.13
180.645	259.94
180.864	216.78
181.084	258.5
181.303	249.71
181.522	313.13
181.741	328.42
181.96	416.85
182.179	394.5
182.398	471.17
182.618	612.67
182.837	525
183.056	413.92
183.275	495.91
183.494	327.49
183.713	291.78
183.932	307.07
184.151	321.15
184.37	411.25
184.589	648.64
184.808	493.95
185.027	369.52
185.246	324.89
185.465	365.59
185.684	367.22
185.903	416.89
186.122	530.04
186.341	594.47
186.56	330.11
186.779	216.81
186.998	198.7
187.216	199.73
187.435	213.36
187.654	270.48
187.873	289.04
188.092	248.95
188.311	264.88
188.53	262.13
188.748	211.05
188.967	233.37
189.186	270.96
189.405	229.33
189.623	238.31
189.842	261.37
190.061	270.2
190.28	244.28
190.498	494.69
190.717	427.88
190.936	375.97
191.154	442.09
191.373	-5435
191.592	-5480
191.81	-1251.72
192.029	-1335.48
192.248	-1118.18
192.466	-1181.36
192.685	1400
192.904	478.95
193.122	436.72
193.341	472.52
193.559	425.41
193.778	365.72
193.996	391.56
194.215	347.73
194.433	275.58
194.652	239.21
194.87	195.21
195.089	254.19
195.307	287.33
195.526	375.16
195.744	298.43
195.963	459.76
196.181	1498.63
196.399	843.92
196.618	677.3
196.836	793.29
197.055	1319.35
197.273	1134.55
197.491	845.1
197.71	545.45
197.928	326.75
198.146	338.82
198.365	294.01
198.583	232.88
198.801	278.16
199.019	316.16
199.238	257.36
199.456	292.26
199.674	331.21
199.892	380.77
200.111	351.68
200.329	390.79
200.547	435.48
200.765	562.23
200.983	383.53
201.202	291.38
201.42	300.17
201.638	875.81
201.856	683
202.074	1103.7
202.292	836.76
202.51	1704.3
202.728	6129.17
202.946	-3742.86
203.165	-1757.14
203.383	-1152.76
203.601	-955.48
203.819	-665.17
204.037	1172.03
204.255	676.89
204.473	684.07
204.691	420.38
204.909	285.5
205.127	288.19
205.345	200.12
205.562	193.8
205.78	231.74
205.998	235.87
206.216	229.49
206.434	270.31
206.652	256.35
206.87	229.72
207.088	260.11
207.306	328.16
207.523	284.26
207.741	447.1
207.959	348.11
208.177	285.88
208.395	241.31
208.612	237.72
208.83	252.79
209.048	237.79
209.266	307.75
209.483	297.54
209.701	261.62
209.919	282.41
210.136	205.08
210.354	213.16
210.572	216.01
210.79	190.05
211.007	179.64
211.225	183.9
211.442	217.18
211.66	168.7
211.878	176.6
212.095	182.83
212.313	173.44
212.53	190.3
212.748	174.57
212.966	179.73
213.183	188.19
213.401	168.69
213.618	156.97
213.836	172.3
214.053	199.75
214.271	200
214.488	197.37
214.705	242.24
214.923	214.05
215.14	434.15
215.358	278.97
215.575	323.8
215.793	296.62
216.01	248.12
216.227	189.12
216.445	162.95
216.662	165.91
216.879	161.96
217.097	145.49
217.314	144.91
217.531	118.76
217.749	124.48
217.966	128.14
218.183	131.49
218.4	141.2
218.618	152.98
218.835	157.31
219.052	153.26
219.269	150.41
219.487	141.35
219.704	141.86
219.921	139.18
220.138	141.94
220.355	122.75
220.572	122.02
220.79	117.93
221.007	113.5
221.224	95.74
221.441	74.58
221.658	66.56
221.875	71.24
222.092	78.28
222.309	81.66
222.526	87.46
222.743	96.71
222.96	95.12
223.177	80.08
223.394	80.52
223.611	87.08
223.828	85.88
224.045	87.34
224.262	82.26
224.479	74.02
224.696	72.24
224.913	66.17
225.13	57.05
225.347	57.91
225.564	61.88
225.781	53.92
225.997	48.48
226.214	47.05
226.431	40.92
226.648	34.63
226.865	30.5
227.082	26.92
227.298	22.93
227.515	22.04
227.732	20.38
227.949	16.81
228.165	14.7
228.382	14.73
228.599	13.96
228.816	14.03
229.032	13.62
229.249	13.54
229.466	13.17
229.682	13.8
229.899	12.13
230.116	11.14
230.332	12.87
230.549	14.27
230.765	15.47
230.982	16.57
231.199	16.34
231.415	17.67
231.632	18.05
231.848	18.85
232.065	18.29
232.281	22.16
232.498	23.46
232.714	22.76
232.931	23.39
233.147	23.22
233.364	20.21
233.58	19.85
233.797	20.3
234.013	21.12
234.23	20.82
234.446	20.38
234.662	16.97
234.879	16.48
235.095	15.81
235.312	16.09
235.528	13.77
235.744	16.37
235.961	16
236.177	14.54
236.393	15.97
236.61	16.85
236.826	17.35
237.042	19.54
237.258	20.7
237.475	23.66
237.691	23.01
237.907	24.9
238.123	25.08
238.339	25.43
238.556	25.72
238.772	23.45
238.988	23.88
239.204	23.89
239.42	23.24
239.636	21.04
239.853	17.35
240.069	15.72
240.285	12.78
240.501	11.08
240.717	12.25
240.933	11.24
241.149	10.66
241.365	9.72
241.581	8.97
241.797	8.99
242.013	9.46
242.229	9.77
242.445	10.05
242.661	10.04
242.877	10.56
243.093	9.71
243.309	9.87
243.525	9.71
243.741	9.8
243.957	10.75
244.173	10.7
244.388	9.53
244.604	9.58
244.82	9.77
245.036	10.64
245.252	10.38
245.468	9.98
245.683	9.77
245.899	9.62
246.115	8.92
246.331	8.07
246.547	8.24
246.762	8.81
246.978	8.66
247.194	8.19
247.409	8.31
247.625	8.22
247.841	8.22
248.057	8.21
248.272	8.33
248.488	9
248.703	9.39
248.919	8.97
249.135	9.17
249.35	9.15
249.566	9.68
249.782	9.49
249.997	9.46
250.213	9.41
250.428	9.71
250.644	10.37
250.859	10.47
251.075	10.6
251.29	11.26
251.506	11.06
251.721	11.55
251.937	10.9
252.152	11.37
252.368	11.44
252.583	12.36
252.798	12.55
253.014	11.71
253.229	11.75
253.445	11.55
253.66	12.08
253.875	12.42
254.091	13.52
254.306	14.98
254.521	14.39
254.737	14.59
254.952	14.22
255.167	13.6
255.383	15.08
255.598	14.84
255.813	15.77
256.028	14.85
256.244	14.42
256.459	13.67
256.674	12.89
256.889	12.54
257.104	12.35
257.32	12.22
257.535	12.35
257.75	10.9
257.965	10.19
258.18	9.61
258.395	9.37
258.61	8.78
258.826	7.76
259.041	7.85
259.256	7.92
259.471	7.72
259.686	7.48
259.901	7.39
260.116	7.48
260.331	7.25
260.546	7.08
260.761	7.14
260.976	7.08
261.191	7.17
261.406	7.13
261.621	7
261.836	7.14
262.05	7.15
262.265	6.79
262.48	6.69
262.695	7
262.91	7.27
263.125	7.27
263.34	7.98
263.555	8.64
263.769	8.23
263.984	8.55
264.199	8.2
264.414	8.35
264.629	8.76
264.843	8.36
265.058	8.05
265.273	7.35
265.488	7.63
265.702	7.02
265.917	6.53
266.132	6.9
266.346	6.58
266.561	7.27
266.776	7.52
266.99	6.93
267.205	7.23
267.42	7.6
267.634	7.82
267.849	7.67
268.063	7.7
268.278	8.26
268.492	8.23
268.707	8.47
268.922	8.32
269.136	7.88
269.351	8.99
269.565	8.54
269.78	8.17
269.994	8.21
270.209	8.11
270.423	8.46
270.637	8
270.852	7.82
271.066	7.37
271.281	7.25
271.495	7.62
271.709	7.33
271.924	7.38
272.138	7.28
272.353	7.23
272.567	7.1
272.781	6.72
272.996	6.74
273.21	6.43
273.424	6.62
273.638	6.53
273.853	6.26
274.067	6.11
274.281	6.7
274.495	6.81
274.71	7.1
274.924	7.03
275.138	7.14
275.352	7.77
275.566	8.54
275.781	8.51
275.995	8.23
276.209	7.85
276.423	7.6
276.637	6.92
276.851	7.15
277.065	6.81
277.279	6.7
277.493	6.88
277.707	6.01
277.921	5.19
278.135	5.33
278.349	5.19
278.563	5.39
278.777	5.46
278.991	6.17
279.205	6.31
279.419	6.41
279.633	7
279.847	6.58
280.061	5.93
280.275	6.58
280.489	6.86
280.703	6.85
280.917	7.69
281.131	7.31
281.344	7.39
281.558	7.01
281.772	6.68
281.986	6.46
282.2	6.71
282.414	7.63
282.627	7.47
282.841	7.16
283.055	7.52
283.269	6.94
283.482	7.44
283.696	6.77
283.91	7.04
284.123	6.78
284.337	6.4
284.551	6.09
284.764	5.51
284.978	5.35
285.192	5.27
285.405	4.98
285.619	4.91
285.833	4.58
286.046	4.8
286.26	4.43
286.473	4.8
286.687	5.04
286.9	5.13
287.114	5.46
287.327	5.55
287.541	5.62
287.754	5.79
287.968	6.14
288.181	6.18
288.395	6.01
288.608	6.27
288.822	6.01
289.035	6.12
289.248	6.49
289.462	6.44
289.675	6.46
289.889	6.25
290.102	6.37
290.315	6.03
290.529	6.33
290.742	6.76
290.955	6.76
291.169	6.78
291.382	6.3
291.595	6.1
291.808	6.32
292.022	6.33
292.235	6.84
292.448	7.03
292.661	6.69
292.875	6.43
293.088	6.35
293.301	6.23
293.514	6.69
293.727	7.25
293.94	7.05
294.153	6.82
294.367	6.87
294.58	6.13
294.793	5.83
295.006	6.19
295.219	6.1
295.432	6.08
295.645	6.05
295.858	5.78
296.071	5.57
296.284	5.65
296.497	5.68
296.71	5.5
296.923	5.99
297.136	5.94
297.349	5.67
297.562	5.87
297.775	5.87
297.988	5.94
298.201	6.11
298.414	6.28
298.626	6.42
298.839	6.51
299.052	6.5
299.265	6.89
299.478	7.21
299.691	7.67
299.903	8.14
300.116	7.99
300.329	8.46
300.542	8.47
300.755	8.42
300.967	8.67
301.18	8.52
301.393	8.79
301.605	8.43
301.818	8.05
302.031	7.97
302.243	7.82
302.456	7.85
302.669	7.2
302.881	7.09
303.094	7.13
303.307	6.56
303.519	6.72
303.732	6.5
303.944	6.3
304.157	6.47
304.37	6.72
304.582	6.52
304.795	6.46
305.007	6.97
305.22	7.23
305.432	6.94
305.645	7.34
305.857	7.4
306.069	7.92
306.282	8.02
306.494	8
306.707	7.54
306.919	7.39
307.132	7.47
307.344	6.85
307.556	6.97
307.769	7.22
307.981	7.26
308.193	7.01
308.406	6.67
308.618	7.11
308.83	7.36
309.043	7.79
309.255	8.01
309.467	8.03
309.679	8.61
309.892	8.5
310.104	8.35
310.316	8.21
310.528	8.49
310.74	8.8
310.953	8.35
311.165	8.23
311.377	8.34
311.589	8.6
311.801	9.01
312.013	8.57
312.225	8.66
312.437	8.98
312.649	9.26
312.862	9.17
313.074	8.52
313.286	8.96
313.498	8.95
313.71	8.67
313.922	8.21
314.134	7.86
314.346	8.47
314.558	8.64
314.77	8.73
314.982	8.75
315.193	8.56
315.405	9.07
315.617	9.17
315.829	9.32
316.041	9.68
316.253	9.95
316.465	10.35
316.677	10.41
316.888	10.36
317.1	10.31
317.312	10.25
317.524	10.73
317.736	11.25
317.947	10.65
318.159	10.51
318.371	10.61
318.583	11.06
318.794	10.72
319.006	10.34
319.218	10.2
319.43	10.06
319.641	10.19
319.853	9.86
320.064	9.87
320.276	10.33
320.488	11.07
320.699	11.31
320.911	11.01
321.123	11.4
321.334	11.74
321.546	11.12
321.757	11.37
321.969	11.75
322.18	11.97
322.392	11.69
322.603	11.26
322.815	10.43
323.026	9.47
323.238	9.37
323.449	9.77
323.661	9.62
323.872	10.37
324.083	10.34
324.295	10.11
324.506	10.03
324.718	10.22
324.929	10.41
325.14	10.48
325.352	10.63
325.563	10.7
325.774	10.27
325.986	10.36
326.197	10.39
326.408	10.41
326.62	10.73
326.831	11.05
327.042	11.18
327.253	11.13
327.464	11.62
327.676	12.11
327.887	11.84
328.098	11.6
328.309	11.64
328.52	11.45
328.732	11.38
328.943	11.34
329.154	11.37
329.365	11.35
329.576	12.06
329.787	11.67
329.998	11.55
330.209	11.87
330.42	12.48
330.631	12.51
330.842	12.79
331.053	13.33
331.264	13.33
331.475	13.12
331.686	13.06
331.897	12.33
332.108	12.36
332.319	12.44
332.53	12.35
332.741	12.08
332.952	12.17
333.163	12
333.374	11.83
333.585	11.5
333.795	11.71
334.006	11.61
334.217	11.74
334.428	11.76
334.639	12.13
334.849	11.99
335.06	11.62
335.271	11.86
335.482	12.22
335.692	12.3
335.903	12.03
336.114	12.03
336.325	12.07
336.535	11.98
336.746	12.07
336.957	11.82
337.167	12.22
337.378	12.76
337.589	12.64
337.799	12.56
338.01	12.55
338.22	12.97
338.431	12.91
338.642	13.11
338.852	13.4
339.063	13.46
339.273	13.17
339.484	13.07
339.694	12.98
339.905	12.88
340.115	12.69
340.326	12.54
340.536	12.13
340.746	12.05
340.957	11.75
341.167	11.54
341.378	11.7
341.588	11.85
341.799	11.82
342.009	11.7
342.219	11.6
342.43	11.42
342.64	11.15
342.85	11.1
343.061	10.83
343.271	10.91
343.481	10.89
343.691	10.77
343.902	10.6
344.112	10.23
344.322	10.15
344.532	10.23
344.743	10.21
344.953	10.29
345.163	10.14
345.373	10.36
345.583	10.51
345.793	10.67
346.004	10.62
346.214	10.83
346.424	11.21
346.634	11.25
346.844	11.25
347.054	11.34
347.264	11.4
347.474	11.89
347.684	11.58
347.894	11.14
348.104	10.92
348.314	10.64
348.524	10.21
348.734	10.07
348.944	9.78
349.154	9.67
349.364	10.11
349.574	10.15
349.784	10.08
349.994	10.39
350.204	10.63
350.413	10.54
350.623	10.99
350.833	11.28
351.043	11
351.253	11.14
351.463	11.32
351.672	11.02
351.882	10.89
352.092	11.01
352.302	11.14
352.511	11.21
352.721	11.32
352.931	11.44
353.141	11.38
353.35	11.57
353.56	11.46
353.77	11.3
353.979	11.22
354.189	11.38
354.399	11.15
354.608	11.08
354.818	10.9
355.027	10.8
355.237	10.6
355.447	10.32
355.656	10.31
355.866	10.28
356.075	10.24
356.285	10.25
356.494	9.99
356.704	9.98
356.913	10
357.123	10.02
357.332	9.74
357.542	9.68
357.751	10.09
357.96	9.86
358.17	10.07
358.379	10.17
358.589	10.04
358.798	9.95
359.007	9.99
359.217	9.86
359.426	9.69
359.635	10
359.845	9.75
360.054	9.55
360.263	9.49
360.472	9.31
360.682	9.19
360.891	9.16
361.1	9.28
361.309	9.31
361.519	9.19
361.728	9.2
361.937	9.09
362.146	9.05
362.355	8.98
362.564	9.28
362.774	9.54
362.983	9.52
363.192	9.31
363.401	9.21
363.61	9.08
363.819	9.3
364.028	9.41
364.237	9.42
364.446	9.67
364.655	9.72
364.864	9.46
365.073	8.96
365.282	8.89
365.491	9.29
365.7	9.55
365.909	9.56
366.118	9.65
366.327	9.51
366.536	9.45
366.745	9.19
366.954	9.39
367.162	9.42
367.371	9.78
367.58	9.88
367.789	9.76
367.998	9.52
368.207	9.62
368.415	9.3
368.624	9.28
368.833	9.52
369.042	9.64
369.25	9.31
369.459	9.39
369.668	9.09
369.877	9.08
370.085	9.17
370.294	9.34
370.503	9.39
370.711	9.33
370.92	9.08
371.129	9.05
371.337	8.96
371.546	8.72
371.754	8.66
371.963	8.86
372.171	8.92
372.38	8.86
372.589	8.78
372.797	8.91
373.006	8.93
373.214	9.09
373.423	9.05
373.631	9.12
373.84	9.5
374.048	9.54
374.256	9.48
374.465	9.28
374.673	9.32
374.882	9.22
375.09	8.98
375.298	9.08
375.507	9.09
375.715	9.13
375.923	9.09
376.132	9.13
376.34	9.07
376.548	9.19
376.757	9.08
376.965	9.02
377.173	8.77
377.381	8.77
377.59	8.51
377.798	8.88
378.006	8.64
378.214	8.73
378.423	8.59
378.631	8.49
378.839	8.32
379.047	8.53
379.255	8.42
379.463	8.52
379.671	8.04
379.879	8.06
380.088	7.76
380.296	7.93
380.504	7.97
380.712	8.02
380.92	8.1
381.128	8.26
381.336	8.05
381.544	8.1
381.752	8.17
381.96	8.49
382.168	8.66
382.376	8.51
382.584	8.32
382.791	8.42
382.999	8.22
383.207	8.16
383.415	7.84
383.623	7.89
383.831	7.59
384.039	7.51
384.247	7.28
384.454	7.27
384.662	7.14
384.87	7.11
385.078	6.82
385.285	6.86
385.493	7.02
385.701	7.02
385.909	7.08
386.116	7.25
386.324	7.15
386.532	7.35
386.739	7.2
386.947	7.22
387.155	7.54
387.362	7.72
387.57	7.57
387.778	7.33
387.985	7.37
388.193	7.34
388.4	7.26
388.608	7.56
388.816	7.56
389.023	7.67
389.231	7.7
389.438	7.34
389.646	6.92
389.853	7.16
390.061	7.17
390.268	7.25
390.475	7.02
390.683	7.1
390.89	6.97
391.098	6.79
391.305	6.63
391.512	6.66
391.72	6.75
391.927	6.73
392.135	6.49
392.342	6.44
392.549	6.3
392.756	6.3
392.964	6.19
393.171	6.01
393.378	6.16
393.586	6.08
393.793	6.09
394	5.99
394.207	6.16
394.414	6.28
394.622	6.23
394.829	6.39
395.036	6.4
395.243	6.37
395.45	6.67
395.657	6.77
395.864	6.76
396.072	6.71
396.279	6.71
396.486	6.72
396.693	6.8
396.9	6.85
397.107	6.64
397.314	6.89
397.521	6.88
397.728	6.76
397.935	6.75
398.142	6.67
398.349	6.62
398.556	6.75
398.763	6.66
398.97	6.53
399.177	6.28
399.383	6.22
399.59	5.98
399.797	6.11
400.004	5.81
400.211	5.67
400.418	5.97
400.625	5.96
400.831	5.7
401.038	5.77
401.245	5.73
401.452	5.87
401.658	5.92
401.865	5.96
402.072	5.83
402.279	6.03
402.485	6.1
402.692	6.11
402.899	6.09
403.105	6.07
403.312	5.86
403.519	5.87
403.725	5.79
403.932	5.74
404.138	5.75
404.345	5.81
404.552	5.69
404.758	5.5
404.965	5.29
405.171	5.4
405.378	5.51
405.584	5.73
405.791	5.64
405.997	5.75
406.204	5.84
406.41	5.76
406.617	5.58
406.823	5.74
407.029	5.9
407.236	6.05
407.442	5.93
407.649	5.98
407.855	5.92
408.061	6.03
408.268	6.06
408.474	5.85
408.68	6.03
408.887	6
409.093	5.79
409.299	5.78
409.505	5.66
409.712	5.54
409.918	5.28
410.124	5.24
410.33	5.2
410.537	5.14
410.743	5.14
410.949	5.19
411.155	5.47
411.361	5.55
411.567	5.45
411.773	5.52
411.98	5.51
412.186	5.68
412.392	5.81
412.598	5.77
412.804	5.71
413.01	5.99
413.216	5.83
413.422	5.71
413.628	5.55
413.834	5.42
414.04	5.42
414.246	5.66
414.452	5.4
414.658	4.94
414.864	4.87
415.07	5.1
415.275	4.93
415.481	4.83
415.687	4.79
415.893	4.86
416.099	4.94
416.305	5.01
416.511	4.83
416.716	5.06
416.922	5.31
417.128	5.42
417.334	5.34
417.539	5.3
417.745	5.4
417.951	5.35
418.157	5.34
418.362	5.3
418.568	5.16
418.774	5.22
418.979	5.01
419.185	4.94
419.391	4.75
419.596	4.58
419.802	4.59
420.008	4.51
420.213	4.55
420.419	4.69
420.624	4.63
420.83	4.61
421.035	4.54
421.241	4.62
421.446	4.51
421.652	4.52
421.857	4.55
422.063	4.55
422.268	4.5
422.474	4.44
422.679	4.35
422.885	4.41
423.09	4.43
423.295	4.46
423.501	4.43
423.706	4.5
423.911	4.52
424.117	4.54
424.322	4.55
424.527	4.6
424.733	4.56
424.938	4.49
425.143	4.49
425.349	4.46
425.554	4.45
425.759	4.54
425.964	4.51
426.169	4.53
426.375	4.52
426.58	4.44
426.785	4.44
426.99	4.43
427.195	4.45
427.4	4.38
427.605	4.47
427.811	4.38
428.016	4.35
428.221	4.43
428.426	4.45
428.631	4.41
428.836	4.49
429.041	4.44
429.246	4.55
429.451	4.54
429.656	4.67
429.861	4.51
430.066	4.59
430.271	4.5
430.476	4.44
430.681	4.36
430.886	4.28
431.09	4.22
431.295	4.21
431.5	4.07
431.705	4.05
431.91	4.08
432.115	4
432.32	4.06
432.524	4.09
432.729	4.08
432.934	4.26
433.139	4.36
433.343	4.35
433.548	4.3
433.753	4.41
433.958	4.5
434.162	4.49
434.367	4.55
434.572	4.29
434.776	4.34
434.981	4.31
435.186	4.27
435.39	4.22
435.595	4.36
435.799	4.36
436.004	4.36
436.209	4.27
436.413	4.06
436.618	4.13
436.822	4.36
437.027	4.27
437.231	4.31
437.436	4.27
437.64	4.28
437.845	4.14
438.049	4.12
438.253	4.22
438.458	4.29
438.662	4.34
438.867	4.29
439.071	4.22
439.275	4.32
439.48	4.2
439.684	4.25
439.888	4.31
440.093	4.36
440.297	4.39
440.501	4.26
440.706	4.23
440.91	4.28
441.114	4.32
441.318	4.38
441.523	4.28
441.727	4.39
441.931	4.34
442.135	4.26
442.339	4.13
442.543	4.16
442.748	4.08
442.952	4.09
443.156	4.07
443.36	4.03
443.564	4.04
443.768	4.13
443.972	4.13
444.176	4.13
444.38	4.25
444.584	4.33
444.788	4.38
444.992	4.43
445.196	4.38
445.4	4.31
445.604	4.32
445.808	4.3
446.012	4.21
446.216	4.13
446.42	4.07
446.624	4.05
446.828	4.05
447.032	4.06
447.235	4.06
447.439	4.04
447.643	4.07
447.847	4.1
448.051	4.1
448.254	4.11
448.458	4.15
448.662	4.2
448.866	4.05
449.069	4.02
449.273	3.9
449.477	3.9
449.681	3.92
449.884	4.01
450.088	3.99
450.292	3.91
450.495	3.84
450.699	3.89
450.902	3.98
451.106	4.08
451.31	4.19
451.513	4.24
451.717	4.26
451.92	4.33
452.124	4.27
452.327	4.17
452.531	4.22
452.734	4.3
452.938	4.33
453.141	4.31
453.345	4.37
453.548	4.35
453.752	4.3
453.955	4.32
454.158	4.28
454.362	4.32
454.565	4.37
454.769	4.46
454.972	4.45
455.175	4.33
455.379	4.32
455.582	4.35
455.785	4.25
455.988	4.32
456.192	4.23
456.395	4.1
456.598	4
456.801	4
457.005	3.85
457.208	3.96
457.411	3.89
457.614	3.81
457.817	3.72
458.021	3.76
458.224	3.77
458.427	3.79
458.63	3.89
458.833	3.88
459.036	3.9
459.239	3.93
459.442	3.91
459.645	3.99
459.848	3.99
460.051	3.99
460.254	3.99
460.457	3.9
460.66	3.94
460.863	3.96
461.066	3.89
461.269	3.88
461.472	3.99
461.675	3.95
461.878	3.91
462.081	3.93
462.284	3.93
462.486	3.92
462.689	4.03
462.892	4.08
463.095	4.07
463.298	4.35
463.5	4.29
463.703	4.21
463.906	4.27
464.109	4.33
464.311	4.32
464.514	4.35
464.717	4.5
464.92	4.61
465.122	4.64
465.325	4.53
465.528	4.44
465.73	4.55
465.933	4.44
466.135	4.45
466.338	4.41
466.541	4.42
466.743	4.44
466.946	4.37
467.148	4.27
467.351	4.23
467.553	4.27
467.756	4.23
467.958	4.09
468.161	4.19
468.363	4.13
468.566	4.2
468.768	4.12
468.971	4.09
469.173	3.91
469.375	3.94
469.578	3.9
469.78	3.85
469.983	3.85
470.185	3.97
470.387	3.91
470.59	3.97
470.792	3.91
470.994	3.97
471.196	4.01
471.399	4.15
471.601	4.03
471.803	4.02
472.005	4.11
472.208	4.13
472.41	4.2
472.612	4.29
472.814	4.23
473.016	4.3
473.218	4.39
473.421	4.31
473.623	4.4
473.825	4.55
474.027	4.51
474.229	4.53
474.431	4.42
474.633	4.36
474.835	4.3
475.037	4.36
475.239	4.27
475.441	4.24
475.643	4.18
475.845	4.07
476.047	3.92
476.249	3.95
476.451	3.98
476.653	4.06
476.855	3.92
477.057	3.96
477.258	3.86
477.46	3.9
477.662	3.89
477.864	4.01
478.066	4.04
478.268	4.07
478.469	4.08
478.671	4.04
478.873	4.15
479.075	4.3
479.276	4.16
479.478	4.28
479.68	4.28
479.882	4.29
480.083	4.29
480.285	4.31
480.487	4.35
480.688	4.36
480.89	4.29
481.091	4.15
481.293	4.11
481.495	4.16
481.696	4.12
481.898	3.98
482.099	3.89
482.301	3.8
482.502	3.7
482.704	3.68
482.905	3.65
483.107	3.64
483.308	3.63
483.51	3.6
483.711	3.59
483.913	3.53
484.114	3.56
484.315	3.56
484.517	3.59
484.718	3.61
484.92	3.61
485.121	3.6
485.322	3.63
485.524	3.6
485.725	3.64
485.926	3.61
486.127	3.62
486.329	3.63
486.53	3.6
486.731	3.6
486.932	3.63
487.134	3.61
487.335	3.61
487.536	3.6
487.737	3.59
487.938	3.56
488.139	3.56
488.341	3.61
488.542	3.64
488.743	3.71
488.944	3.7
489.145	3.67
489.346	3.74
489.547	3.79
489.748	3.75
489.949	3.77
490.15	3.79
490.351	3.8
490.552	3.81
490.753	3.74
490.954	3.69
491.155	3.68
491.356	3.67
491.557	3.61
491.758	3.58
491.959	3.62
492.159	3.69
492.36	3.66
492.561	3.65
492.762	3.6
492.963	3.64
493.164	3.72
493.364	3.71
493.565	3.74
493.766	3.78
493.967	3.79
494.167	3.8
494.368	3.77
494.569	3.83
494.769	3.87
494.97	3.93
495.171	3.93
495.371	3.84
495.572	3.92
495.773	3.92
495.973	3.94
496.174	3.95
496.375	3.93
496.575	3.91
496.776	3.97
496.976	4.03
497.177	4.05
497.377	4.12
497.578	4.18
497.778	4.1
497.979	4.11
498.179	4.12
498.38	4.11
498.58	4.23
498.78	4.26
498.981	4.2
499.181	4.23
499.382	4.23
499.582	4.13
499.782	4.14
499.983	4.26
500.183	4.26
500.383	4.24
500.584	4.31
500.784	4.3
500.984	4.35
501.184	4.45
501.385	4.44
501.585	4.53
501.785	4.58
501.985	4.63
502.185	4.56
502.386	4.6
502.586	4.78
502.786	4.74
502.986	4.67
503.186	4.66
503.386	4.61
503.586	4.6
503.786	4.49
503.987	4.54
504.187	4.44
504.387	4.58
504.587	4.56
504.787	4.51
504.987	4.52
505.187	4.57
505.387	4.68
505.587	4.67
505.786	4.63
505.986	4.67
506.186	4.75
506.386	4.84
506.586	4.81
506.786	4.81
506.986	4.7
507.186	4.85
507.386	4.84
507.585	4.83
507.785	4.77
507.985	4.79
508.185	4.88
508.384	4.85
508.584	4.8
508.784	4.8
508.984	4.94
509.183	5.02
509.383	4.98
509.583	5
509.782	4.96
509.982	5.06
510.182	5.17
510.381	5.15
510.581	5.26
510.781	5.43
510.98	5.51
511.18	5.44
511.379	5.46
511.579	5.4
511.778	5.44
511.978	5.43
512.177	5.43
512.377	5.41
512.576	5.47
512.776	5.44
512.975	5.31
513.175	5.27
513.374	5.31
513.573	5.37
513.773	5.48
513.972	5.48
514.172	5.59
514.371	5.71
514.57	5.77
514.77	5.8
514.969	5.72
515.168	5.82
515.367	5.88
515.567	5.96
515.766	5.93
515.965	5.91
516.164	5.96
516.364	5.93
516.563	5.85
516.762	5.84
516.961	5.86
517.16	5.96
517.359	6.02
517.559	6.11
517.758	6.12
517.957	6.23
518.156	6.28
518.355	6.31
518.554	6.34
518.753	6.4
518.952	6.44
519.151	6.44
519.35	6.57
519.549	6.6
519.748	6.59
519.947	6.64
520.146	6.61
520.345	6.69
520.544	6.73
520.743	6.87
520.942	6.86
521.141	6.92
521.339	7
521.538	6.91
521.737	6.94
521.936	7.02
522.135	7.05
522.333	7.1
522.532	7.13
522.731	7.14
522.93	7.16
523.129	7.3
523.327	7.44
523.526	7.5
523.725	7.61
523.923	7.67
524.122	7.64
524.321	7.68
524.519	7.8
524.718	7.74
524.917	7.77
525.115	7.82
525.314	7.87
525.512	7.82
525.711	7.87
525.909	8
526.108	7.94
526.306	7.99
526.505	8.06
526.703	8.05
526.902	8.19
527.1	8.27
527.299	8.24
527.497	8.28
527.696	8.34
527.894	8.36
528.092	8.33
528.291	8.43
528.489	8.48
528.688	8.49
528.886	8.51
529.084	8.54
529.283	8.56
529.481	8.64
529.679	8.67
529.877	8.68
530.076	8.68
530.274	8.73
530.472	8.76
530.67	8.84
530.869	8.91
531.067	8.98
531.265	8.98
531.463	9.1
531.661	9.11
531.859	9.21
532.057	9.31
532.255	9.41
532.454	9.42
532.652	9.5
532.85	9.5
533.048	9.6
533.246	9.65
533.444	9.72
533.642	9.72
533.84	9.82
534.038	9.86
534.236	9.88
534.434	9.89
534.632	9.98
534.83	9.94
535.027	10.05
535.225	10.02
535.423	10.06
535.621	10.15
535.819	10.24
536.017	10.25
536.215	10.26
536.412	10.29
536.61	10.36
536.808	10.38
537.006	10.44
537.203	10.52
537.401	10.58
537.599	10.61
537.797	10.6
537.994	10.6
538.192	10.7
538.39	10.73
538.587	10.86
538.785	10.88
538.983	10.97
539.18	11.05
539.378	11.09
539.575	11.17
539.773	11.25
539.97	11.31
540.168	11.36
540.366	11.36
540.563	11.37
540.761	11.43
540.958	11.51
541.155	11.49
541.353	11.55
541.55	11.55
541.748	11.58
541.945	11.62
542.143	11.61
542.34	11.62
542.537	11.66
542.735	11.72
542.932	11.76
543.129	11.83
543.327	11.95
543.524	11.99
543.721	12.06
543.919	12.17
544.116	12.25
544.313	12.38
544.51	12.51
544.708	12.55
544.905	12.63
545.102	12.73
545.299	12.72
545.496	12.8
545.693	12.86
545.891	12.91
546.088	12.93
546.285	12.95
546.482	13.01
546.679	13.02
546.876	13.2
547.073	13.3
547.27	13.29
547.467	13.4
547.664	13.44
547.861	13.56
548.058	13.63
548.255	13.69
548.452	13.74
548.649	13.84
548.846	13.98
549.043	13.87
549.24	13.84
549.437	13.88
549.633	13.89
549.83	13.85
550.027	13.74
550.224	13.81
550.421	13.81
550.618	13.83
550.814	13.71
551.011	13.66
551.208	13.85
551.405	13.94
551.601	13.97
551.798	14.09
551.995	14.27
552.191	14.4
552.388	14.39
552.585	14.4
552.781	14.41
552.978	14.47
553.175	14.52
553.371	14.52
553.568	14.49
553.764	14.44
553.961	14.45
554.157	14.4
554.354	14.44
554.55	14.5
554.747	14.56
554.943	14.68
555.14	14.75
555.336	14.73
555.533	14.73
555.729	14.77
555.926	14.95
556.122	14.77
556.318	14.77
556.515	14.83
556.711	14.81
556.907	14.75
557.104	14.81
557.3	14.83
557.496	14.93
557.693	14.98
557.889	15.11
558.085	15.08
558.281	15.26
558.478	15.25
558.674	15.1
558.87	15.25
559.066	15.49
559.262	15.5
559.459	15.52
559.655	15.61
559.851	15.68
560.047	15.57
560.243	15.61
560.439	15.86
560.635	15.91
560.831	16.01
561.027	15.85
561.223	15.66
561.419	15.69
561.615	15.66
561.811	15.51
562.007	15.32
562.203	15.4
562.399	15.34
562.595	15.14
562.791	15.24
562.987	15.27
563.183	15.38
563.379	15.43
563.575	15.45
563.771	15.48
563.966	15.78
564.162	16.14
564.358	16.2
564.554	16.28
564.75	16.25
564.945	16.32
565.141	16.39
565.337	16.46
565.533	16.46
565.728	16.61
565.924	16.67
566.12	16.55
566.315	16.44
566.511	16.47
566.707	16.55
566.902	16.61
567.098	16.6
567.293	16.71
567.489	16.75
567.684	16.75
567.88	16.63
568.076	16.71
568.271	16.69
568.467	16.65
568.662	16.73
568.858	16.72
569.053	16.76
569.248	16.78
569.444	16.64
569.639	16.61
569.835	16.78
570.03	16.8
570.225	16.72
570.421	16.91
570.616	16.96
570.812	16.86
571.007	16.85
571.202	16.97
571.397	17.01
571.593	17.15
571.788	17.22
571.983	16.99
572.178	17.04
572.374	17.09
572.569	17.03
572.764	17.09
572.959	17.1
573.154	17.16
573.35	17.09
573.545	17.03
573.74	16.97
573.935	16.98
574.13	17.18
574.325	17.18
574.52	17.22
574.715	17.2
574.91	17.18
575.105	17.37
575.3	17.36
575.495	17.43
575.69	17.55
575.885	17.66
576.08	17.75
576.275	17.83
576.47	17.96
576.665	18.01
576.86	18.09
577.055	18.17
577.25	18.05
577.444	18.12
577.639	18.21
577.834	18.1
578.029	18.02
578.224	18.11
578.418	18.13
578.613	18.11
578.808	18.29
579.003	18.24
579.197	18.15
579.392	18.27
579.587	18.43
579.781	18.59
579.976	18.76
580.171	18.7
580.365	18.57
580.56	18.59
580.755	18.51
580.949	18.48
581.144	18.57
581.338	18.76
581.533	18.88
581.727	18.81
581.922	18.64
582.116	18.45
582.311	18.58
582.505	18.74
582.7	18.72
582.894	18.75
583.089	18.59
583.283	18.6
583.478	18.56
583.672	18.38
583.866	18.35
584.061	18.32
584.255	18.45
584.449	18.55
584.644	18.47
584.838	18.62
585.032	18.79
585.226	18.99
585.421	19.06
585.615	19.2
585.809	19.31
586.003	19.24
586.198	19.25
586.392	19.41
586.586	19.38
586.78	19.36
586.974	19.26
587.168	19.18
587.363	18.92
587.557	18.88
587.751	18.79
587.945	18.72
588.139	18.84
588.333	18.87
588.527	18.84
588.721	18.7
588.915	18.57
589.109	18.42
589.303	18.48
589.497	18.62
589.691	18.64
589.885	18.71
590.079	18.62
590.273	18.57
590.466	18.62
590.66	18.61
590.854	18.78
591.048	19
591.242	19.2
591.436	19.18
591.629	19.24
591.823	19.4
592.017	19.3
592.211	19.51
592.404	19.55
592.598	19.55
592.792	19.55
592.986	19.48
593.179	19.39
593.373	19.24
593.567	19.28
593.76	19.23
593.954	19
594.147	19.16
594.341	19.07
594.535	18.93
594.728	19.04
594.922	18.91
595.115	18.91
595.309	18.88
595.502	19.04
595.696	18.93
595.889	18.86
596.083	18.95
596.276	18.9
596.47	18.96
596.663	18.98
596.856	18.84
597.05	18.96
597.243	19.04
597.437	19.07
597.63	19.06
597.823	19.11
598.017	19.25
598.21	19.21
598.403	19.2
598.596	19.16
598.79	19.19
598.983	19.29
599.176	19.32
599.369	19.32
599.563	19.27
599.756	19.28
599.949	19.41
600.142	19.57
600.335	19.51
600.528	19.35
600.722	19.4
600.915	19.63
601.108	19.66
601.301	19.7
601.494	19.41
601.687	19.37
601.88	19.19
602.073	19.12
602.266	18.83
602.459	18.87
602.652	19.02
602.845	19.14
603.038	18.99
603.231	18.91
603.424	18.82
603.617	19.05
603.809	19.14
604.002	19.25
604.195	19.23
604.388	19.24
604.581	19.33
604.774	19.34
604.966	19.14
605.159	19.22
605.352	19.16
605.545	19.33
605.737	19.34
605.93	19.31
606.123	19.19
606.316	19.27
606.508	19.44
606.701	19.36
606.894	19.46
607.086	19.45
607.279	19.48
607.471	19.73
607.664	19.79
607.857	19.86
608.049	20.12
608.242	20.44
608.434	20.54
608.627	20.75
608.819	21.07
609.012	21.27
609.204	21.73
609.397	22.1
609.589	22.41
609.782	22.62
609.974	22.99
610.166	23.36
610.359	23.71
610.551	24.09
610.743	24.29
610.936	24.5
611.128	24.76
611.32	25.02
611.513	24.88
611.705	24.94
611.897	24.89
612.09	24.73
612.282	24.51
612.474	24.25
612.666	24.18
612.858	23.97
613.051	23.82
613.243	23.5
613.435	23.16
613.627	23.21
613.819	22.98
614.011	22.83
614.203	22.99
614.395	22.84
614.588	22.72
614.78	22.32
614.972	22.31
615.164	22.15
615.356	22.03
615.548	21.85
615.74	21.68
615.932	21.55
616.124	21.36
616.315	21.15
616.507	21.13
616.699	21.04
616.891	20.95
617.083	20.82
617.275	20.74
617.467	20.65
617.659	20.78
617.85	20.72
618.042	20.81
618.234	20.77
618.426	20.71
618.618	20.62
618.809	20.63
619.001	20.69
619.193	20.85
619.384	20.55
619.576	20.45
619.768	20.5
619.959	20.41
620.151	20.23
620.343	20.48
620.534	20.27
620.726	20.35
620.917	20.47
621.109	20.55
621.301	20.34
621.492	20.66
621.684	20.88
621.875	20.66
622.067	20.87
622.258	21.17
622.45	20.9
622.641	21.14
622.832	21.17
623.024	21.21
623.215	21.35
623.407	21.3
623.598	21.29
623.789	21.24
623.981	21.39
624.172	21.41
624.363	21.24
624.555	21.55
624.746	21.43
624.937	21.23
625.129	21.18
625.32	20.9
625.511	21.21
625.702	21.3
625.893	21.41
626.085	21.37
626.276	21.21
626.467	21.32
626.658	21.25
626.849	21.19
627.04	21.28
627.231	21.17
627.422	21.42
627.614	21.32
627.805	21.3
627.996	21.24
628.187	21.02
628.378	21.09
628.569	20.96
628.76	20.8
628.951	20.75
629.142	20.6
629.332	20.64
629.523	20.59
629.714	20.51
629.905	20.38
630.096	20.5
630.287	20.89
630.478	20.93
630.669	20.75
630.859	20.89
631.05	21.14
631.241	21.24
631.432	21.38
631.623	21.26
631.813	21.31
632.004	21.14
632.195	20.86
632.385	20.67
632.576	20.51
632.767	20.59
632.957	20.48
633.148	20.26
633.339	20.39
633.529	20.28
633.72	20.37
633.91	20.23
634.101	20.49
634.292	20.53
634.482	20.5
634.673	20.6
634.863	20.52
635.054	20.61
635.244	20.54
635.435	20.43
635.625	20.45
635.815	20.38
636.006	20.6
636.196	20.55
636.387	20.64
636.577	20.63
636.767	20.56
636.958	20.79
637.148	20.83
637.338	20.8
637.529	21
637.719	20.99
637.909	20.95
638.099	20.71
638.29	20.52
638.48	20.39
638.67	20.39
638.86	20.4
639.05	20.29
639.241	20.2
639.431	20.59
639.621	20.49
639.811	20.44
640.001	20.59
640.191	20.76
640.381	20.78
640.571	20.88
640.761	20.91
640.951	21.03
641.141	21.09
641.331	21.24
641.521	21.19
641.711	21.08
641.901	21.37
642.091	21.1
642.281	20.84
642.471	21.07
642.661	21.13
642.851	21.03
643.041	21.21
643.231	21.17
643.42	21.12
643.61	20.96
643.8	21.04
643.99	20.66
644.18	20.67
644.369	20.79
644.559	20.87
644.749	20.82
644.939	20.7
645.128	20.66
645.318	20.78
645.508	20.81
645.697	20.88
645.887	20.97
646.076	21.3
646.266	21.36
646.456	21.35
646.645	21.22
646.835	21.3
647.024	21.44
647.214	21.2
647.403	21.33
647.593	21.19
647.782	21.21
647.972	21.12
648.161	20.87
648.351	21.13
648.54	21.24
648.73	21.4
648.919	21.37
649.108	21.46
649.298	21.55
649.487	21.12
649.677	21.24
649.866	21.35
650.055	21.11
650.244	21.13
650.434	21.01
650.623	21.04
650.812	21.04
651.002	20.9
651.191	20.91
651.38	21.06
651.569	21
651.758	20.88
651.947	20.76
652.137	20.98
652.326	20.96
652.515	21.05
652.704	20.88
652.893	20.79
653.082	20.95
653.271	21.3
653.46	21.1
653.649	21.09
653.838	21.23
654.027	21.28
654.216	21.35
654.405	21.5
654.594	21.61
654.783	21.63
654.972	21.55
655.161	21.43
655.35	21.02
655.539	21.26
655.728	21.49
655.916	21.42
656.105	21.32
656.294	21.4
656.483	21.03
656.672	20.83
656.86	20.99
657.049	21.2
657.238	21.37
657.427	21.4
657.615	21.17
657.804	21.14
657.993	21.03
658.181	21.07
658.37	20.8
658.559	20.96
658.747	20.96
658.936	20.78
659.125	20.94
659.313	20.62
659.502	20.53
659.69	20.48
659.879	20.34
660.067	20.5
660.256	20.39
660.444	20.64
660.633	20.66
660.821	20.77
661.01	21.01
661.198	20.75
661.387	20.89
661.575	20.89
661.763	21.1
661.952	21.21
662.14	21.04
662.328	21.06
662.517	20.88
662.705	21.02
662.893	21.05
663.082	20.94
663.27	20.98
663.458	21.17
663.646	21.49
663.834	21.49
664.023	21.65
664.211	21.71
664.399	21.66
664.587	21.56
664.775	21.36
664.963	21.17
665.152	21.43
665.34	21.27
665.528	20.97
665.716	21.13
665.904	21.03
666.092	21.08
666.28	21.12
666.468	21.2
666.656	21.49
666.844	21.61
667.032	21.69
667.22	21.32
667.408	21.39
667.596	21.69
667.784	21.15
667.971	21.32
668.159	21.52
668.347	21.61
668.535	21.92
668.723	22.01
668.911	22.01
669.098	21.93
669.286	22.12
669.474	22.14
669.662	22.13
669.849	22.25
670.037	22.11
670.225	21.97
670.413	22.29
670.6	22.05
670.788	21.79
670.976	21.73
671.163	21.78
671.351	21.72
671.538	21.78
671.726	21.82
671.913	22.02
672.101	22.03
672.289	21.84
672.476	21.44
672.664	21.6
672.851	21.63
673.039	21.63
673.226	21.49
673.413	21.29
673.601	21.2
673.788	21.08
673.976	20.88
674.163	20.68
674.35	20.8
674.538	20.87
674.725	20.92
674.912	21.09
675.1	21.21
675.287	21.7
675.474	21.91
675.662	22.07
675.849	21.9
676.036	22.3
676.223	22.39
676.411	22.37
676.598	22.19
676.785	21.91
676.972	21.87
677.159	21.82
677.346	21.66
677.533	21.69
677.721	21.28
677.908	21.5
678.095	21.16
678.282	21.4
678.469	21.45
678.656	21.52
678.843	21.74
679.03	21.61
679.217	21.65
679.404	21.58
679.591	21.49
679.778	22.01
679.964	21.6
680.151	21.56
680.338	21.42
680.525	21.36
680.712	21.36
680.899	21.33
681.086	21.46
681.272	21.4
681.459	21.43
681.646	21.34
681.833	21.03
682.02	21.5
682.206	21.5
682.393	21.59
682.58	21.82
682.766	22.19
682.953	21.92
683.14	21.72
683.326	21.88
683.513	21.73
683.7	22.21
683.886	22.24
684.073	22.22
684.259	22.15
684.446	21.9
684.632	21.84
684.819	21.35
685.005	21.48
685.192	21.33
685.378	21.23
685.565	21.31
685.751	20.93
685.938	21.14
686.124	20.89
686.31	21.04
686.497	21.25
686.683	21.1
686.87	21.19
687.056	21.39
687.242	21.95
687.429	21.84
687.615	21.83
687.801	21.86
687.987	21.72
688.174	22.11
688.36	22.51
688.546	22.35
688.732	22.35
688.918	22.52
689.105	22.03
689.291	21.74
689.477	21.75
689.663	21.89
689.849	22.15
690.035	22.05
690.221	21.97
690.407	21.55
690.593	21.84
690.779	21.94
690.965	21.89
691.151	22.1
691.337	22.41
691.523	22.73
691.709	23.01
691.895	22.84
692.081	22.87
692.267	22.88
692.453	22.91
692.639	22.83
692.825	23.08
693.011	22.91
693.196	22.93
693.382	22.52
693.568	22.28
693.754	21.79
693.94	21.83
694.125	22.18
694.311	22.34
694.497	22.55
694.682	22.71
694.868	22.54
695.054	22.84
695.239	23.28
695.425	22.91
695.611	23.16
695.796	23.13
695.982	22.77
696.168	22.46
696.353	22.21
696.539	21.83
696.724	21.64
696.91	21.54
697.095	21.69
697.281	21.62
697.466	21.89
697.652	21.67
697.837	21.88
698.023	22.07
698.208	21.88
698.393	21.79
698.579	21.91
698.764	21.98
698.949	21.76
699.135	21.51
699.32	21.12
699.505	21.01
699.691	20.77
699.876	20.69
700.061	20.57
700.246	20.74
700.432	20.71
700.617	20.79
700.802	20.65
700.987	20.97
701.172	21.07
701.358	21.45
701.543	21.8
701.728	22.07
701.913	21.71
702.098	21.85
702.283	22.25
702.468	22.46
702.653	22.18
702.838	22.32
703.023	22.05
703.208	22.15
703.393	21.83
703.578	21.89
703.763	21.88
703.948	22.57
704.133	22.83
704.318	22.66
704.503	22.76
704.688	23.08
704.873	23.43
705.057	23.89
705.242	23.78
705.427	24.42
705.612	24.47
705.797	24.96
705.981	24.71
706.166	24.74
706.351	24.94
706.536	24.87
706.72	24.95
706.905	25.18
707.09	24.83
707.274	24.73
707.459	24.23
707.644	24.45
707.828	24.24
708.013	24.23
708.197	24.06
708.382	24.1
708.567	24.06
708.751	24.18
708.936	23.57
709.12	23.9
709.305	23.88
709.489	24.37
709.673	24.31
709.858	24.16
710.042	24.36
710.227	24.15
710.411	23.77
710.596	24.11
710.78	24.09
710.964	24
711.149	24.26
711.333	24.39
711.517	24.14
711.702	23.62
711.886	23.93
712.07	23.64
712.254	24.09
712.438	24.31
712.623	24.02
712.807	23.95
712.991	24.01
713.175	23.43
713.359	23.32
713.544	23.12
713.728	23.23
713.912	23.12
714.096	23.23
714.28	22.76
714.464	22.54
714.648	22.26
714.832	22.08
715.016	22.36
715.2	22.47
715.384	22.69
715.568	22.94
715.752	23.15
715.936	22.86
716.12	22.6
716.304	22.78
716.488	23
716.671	23.24
716.855	23.42
717.039	22.65
717.223	22.48
717.407	22.01
717.59	21.97
717.774	21.71
717.958	21.82
718.142	22.09
718.325	21.83
718.509	21.23
718.693	21.34
718.877	20.63
719.06	21.41
719.244	21.67
719.428	22.23
719.611	21.68
719.795	21.34
719.978	20.99
720.162	21.24
720.345	21.66
720.529	21.9
720.713	21.91
720.896	22.49
721.08	22.82
721.263	23.16
721.446	22.93
721.63	23.08
721.813	23.45
721.997	23.73
722.18	23.11
722.364	22.76
722.547	22.84
722.73	22.75
722.914	23.16
723.097	22.99
723.28	22.51
723.464	22.37
723.647	23.09
723.83	23.78
724.013	24.08
724.197	24.52
724.38	25.01
724.563	25.07
724.746	25.01
724.929	24.63
725.112	24.3
725.296	24.17
725.479	24.51
725.662	23.88
725.845	23.01
726.028	22.84
726.211	22.78
726.394	22.48
726.577	22.48
726.76	22.54
726.943	22.68
727.126	22.8
727.309	22.76
727.492	22.56
727.675	22.62
727.858	22.69
728.041	22.95
728.224	22.99
728.407	23.38
728.589	23.21
728.772	22.68
728.955	22.84
729.138	22.52
729.321	22.75
729.503	23
729.686	22.83
729.869	22.96
730.052	22.64
730.234	21.97
730.417	21.77
730.6	21.74
730.782	22.51
730.965	22.05
731.148	22.32
731.33	22.54
731.513	22.95
731.695	23.32
731.878	23.43
732.061	23.52
732.243	24.42
732.426	24.4
732.608	24.41
732.791	24.13
732.973	24.19
733.156	24.17
733.338	24.17
733.52	23.91
733.703	23.98
733.885	23.96
734.068	24.18
734.25	23.91
734.432	23.97
734.615	24.35
734.797	24.11
734.979	24.44
735.162	24.46
735.344	23.74
735.526	23.1
735.708	23.39
735.891	23.48
736.073	23.26
736.255	23.51
736.437	23.78
736.619	23.84
736.802	24.69
736.984	24.15
737.166	24.52
737.348	24.88
737.53	26
737.712	25.74
737.894	25.78
738.076	26.01
738.258	25.35
738.44	24.32
738.622	23.97
738.804	23.9
738.986	24.02
739.168	24.01
739.35	23.92
739.532	23.18
739.714	23.6
739.896	23.11
740.078	22.75
740.259	23.18
740.441	23.8
740.623	23.6
740.805	23.15
740.987	23.44
741.168	23.88
741.35	24.57
741.532	24.69
741.714	23.45
741.895	24.25
742.077	24.22
742.259	24.11
742.44	25.14
742.622	24.96
742.804	25.1
742.985	24.97
743.167	24.26
743.348	24.83
743.53	24.89
743.711	25.55
743.893	25.1
744.075	25.28
744.256	24.5
744.438	23.51
744.619	24.67
744.8	24.66
744.982	24.65
745.163	25.01
745.345	23.4
745.526	23.34
745.707	22.97
745.889	23.05
746.07	24.01
746.252	24.81
746.433	25.12
746.614	25.46
746.795	25.67
746.977	26.05
747.158	25.54
747.339	26.36
747.52	26.82
747.702	27.02
747.883	26.9
748.064	26.07
748.245	25.81
748.426	25.67
748.607	24.67
748.788	24.68
748.97	24.23
749.151	23.95
749.332	22.85
749.513	22.24
749.694	24.05
749.875	24.4
750.056	24.11
750.237	24.33
750.418	23.84
750.599	24.38
750.78	24.23
750.96	24.44
751.141	24.52
751.322	25.38
751.503	25.64
751.684	24.97
751.865	24.96
752.046	25.14
752.226	24.68
752.407	25.84
752.588	25.53
752.769	25.94
752.949	26.03
753.13	26.44
753.311	26.81
753.492	26.26
753.672	26.13
753.853	26.01
754.034	26.53
754.214	26.61
754.395	25.39
754.575	25.17
754.756	24.85
754.937	25.4
755.117	25.77
755.298	25.5
755.478	25.9
755.659	24.89
755.839	24.81
756.02	24.43
756.2	25.51
756.381	25.32
756.561	25.26
756.741	25.12
756.922	24.62
757.102	24.86
757.283	24.11
757.463	24.08
757.643	24.44
757.823	24.93
758.004	24.69
758.184	23.8
758.364	24.76
758.545	24.83
758.725	24.57
758.905	24.64
759.085	23.61
759.265	24.03
759.446	23.58
759.626	23.55
759.806	22.81
759.986	22.38
760.166	22.32
760.346	22.12
760.526	22.52
760.706	22.5
760.886	22.95
761.066	22.88
761.246	23.58
761.426	23.97
761.606	23.98
761.786	23.23
761.966	23.85
762.146	24.23
762.326	23.92
762.506	23.82
762.686	23.46
762.866	23.55
763.046	23.95
763.225	22.83
763.405	22.83
763.585	22.01
763.765	22.7
763.945	22.48
764.124	22.39
764.304	22.4
764.484	22.22
764.664	22.51
764.843	22.09
765.023	21.91
765.203	22.58
765.382	22.7
765.562	23.57
765.741	23.85
765.921	24.22
766.101	24.44
766.28	24.08
766.46	23.92
766.639	24.36
766.819	24.66
766.998	24.71
767.178	25.14
767.357	25.14
767.537	25.26
767.716	24.74
767.896	24.63
768.075	24.76
768.254	25.34
768.434	25.52
768.613	25.33
768.792	25.32
768.972	25.99
769.151	25.83
769.33	26.2
769.51	24.9
769.689	25.51
769.868	25.6
770.047	25.65
770.226	25.88
770.406	25.69
770.585	26.15
770.764	26.1
770.943	25.63
771.122	24.88
771.301	24.46
771.48	26.22
771.66	26.91
771.839	26.3
772.018	26.15
772.197	26.47
772.376	26.86
772.555	26.61
772.734	26.78
772.913	26.96
773.092	27.91
773.271	28.07
773.449	28.19
773.628	27.32
773.807	28.46
773.986	28.33
774.165	27.82
774.344	28.69
774.523	27.49
774.701	27.19
774.88	27.92
775.059	27.94
775.238	28.03
775.417	27.48
775.595	27.08
775.774	26.51
775.953	27.09
776.131	26.64
776.31	25.77
776.489	26.58
776.667	26.42
776.846	25.52
777.025	25.21
777.203	25.54
777.382	26.38
777.56	27.31
777.739	27.74
777.917	26.53
778.096	28.53
778.274	29.35
778.453	29.73
778.631	29.93
778.81	29.81
778.988	30.22
779.166	29.35
779.345	29.22
779.523	28.82
779.702	28.23
779.88	28.51
780.058	27.63
780.237	27.2
780.415	28.11
780.593	27.7
780.771	28.17
780.95	28.31
781.128	28.52
781.306	27.78
781.484	27.88
781.662	27.46
781.841	28.14
782.019	27.48
782.197	26.66
782.375	25.34
782.553	25.93
782.731	25.63
782.909	26.32
783.087	27.44
783.265	28.07
783.443	29.6
783.621	29.75
783.799	31.14
783.977	32
784.155	33.18
784.333	34.23
784.511	32.85
784.689	33.17
784.867	31.53
785.045	30.7
785.223	30.38
785.4	27.98
785.578	28.23
785.756	26.36
785.934	25.72
786.112	25.7
786.289	25.7
786.467	26.52
786.645	27.01
786.823	27.95
787	28.79
787.178	28.4
787.356	28.75
787.533	29.56
787.711	29.52
787.889	29.1
788.066	28.61
788.244	29.19
788.421	29.94
788.599	28.82
788.776	27.73
788.954	27.13
789.131	28
789.309	27.58
789.486	27.81
789.664	28.19
789.841	28.39
790.019	27.36
790.196	25.09
790.373	24.84
790.551	25.02
790.728	25.6
790.906	24.68
791.083	25.38
791.26	25.81
791.437	24.95
791.615	25.58
791.792	25.43
791.969	26.54
792.146	27.5
792.324	26.98
792.501	28.09
792.678	28.44
792.855	28.86
793.032	26.54
793.209	26.28
793.387	27.49
793.564	27.25
793.741	28.07
793.918	27.99
794.095	28
794.272	29.28
794.449	27.93
794.626	28.11
794.803	28.86
794.98	29.49
795.157	29.53
795.334	28.52
795.511	27.77
795.688	26.54
795.864	26
796.041	26.05
796.218	26.26
796.395	27.21
796.572	26.25
796.749	25.93
796.925	27.02
797.102	28.17
797.279	27.78
797.456	28.08
797.632	28.7
797.809	30.09
797.986	30.34
798.162	29.44
798.339	28.55
798.516	28.57
798.692	29.29
798.869	28.63
799.046	28.12
799.222	27.97
799.399	27.35
799.575	29.24
799.752	28.27
799.928	28.97
800.105	28.18
800.281	28.45
800.458	30.74
800.634	29.56
800.811	29.46
800.987	28.5
801.163	28.37
801.34	29.51
801.516	28.71
801.692	29.16
801.869	29.43
802.045	30.4
802.221	30.85
802.398	29.07
802.574	29.81
802.75	29.61
802.926	29.36
803.103	30.67
803.279	29.76
803.455	28.12
803.631	27.4
803.807	25.87
803.983	26.47
804.16	26
804.336	24.95
804.512	24.68
804.688	25.91
804.864	27.38
805.04	26.62
805.216	26.93
805.392	27.95
805.568	28.67
805.744	29.29
805.92	28.32
806.096	27.71
806.272	30.39
806.448	30.84
806.623	28.88
806.799	28.42
806.975	27.42
807.151	26.66
807.327	25.41
807.503	26.85
807.678	27.69
807.854	27.39
808.03	26.76
808.206	25.5
808.381	23.86
808.557	25.47
808.733	23.19
808.908	23.98
809.084	26.32
809.26	26.96
809.435	26.24
809.611	25.39
809.787	26.72
809.962	27.58
810.138	27.25
810.313	28.5
810.489	26.79
810.664	29.85
810.84	30.82
811.015	30.47
811.191	32.36
811.366	31.89
811.542	33.28
811.717	33.79
811.892	35.91
812.068	35.63
812.243	34.97
812.419	36.92
812.594	35.26
812.769	36.3
812.944	34.43
813.12	32.3
813.295	32.29
813.47	30.35
813.645	29.19
813.821	27.14
813.996	26.24
814.171	28.52
814.346	27.65
814.521	29.4
814.697	27.37
814.872	30.22
815.047	31.49
815.222	31.64
815.397	31.4
815.572	31.82
815.747	32.16
815.922	34.33
816.097	34.19
816.272	33.64
816.447	32.23
816.622	33.84
816.797	32.33
816.972	33.05
817.147	33.95
817.322	33.84
817.496	33.07
817.671	34.3
817.846	34.15
818.021	33.31
818.196	32.94
818.371	33.2
818.545	31.47
818.72	30.11
818.895	30.17
819.069	28.51
819.244	29.39
819.419	29.07
819.594	27.63
819.768	26.99
819.943	26.61
820.117	27.13
820.292	26.9
820.467	26.16
820.641	25.81
820.816	24.03
820.99	23.4
821.165	22.79
821.339	22.43
821.514	22.2
821.688	21.91
821.863	21.22
822.037	20.98
822.212	20.3
822.386	20.08
822.56	20
822.735	20.04
822.909	19.91
823.084	19.75
823.258	19.71
823.432	19.74
823.606	19.36
823.781	19.71
823.955	19.37
824.129	19.59
824.303	19.98
824.478	20.08
824.652	20.13
824.826	20.38
825	20.91
825.174	21.13
825.348	21.13
825.523	21.89
825.697	22.01
825.871	22.6
826.045	23.09
826.219	22.51
826.393	23.02
826.567	23.09
826.741	23.09
826.915	23.39
827.089	23.7
827.263	23.64
827.437	23.55
827.611	23.8
827.784	23.99
827.958	24.22
828.132	24.65
828.306	24.01
828.48	24.2
828.654	24.31
828.827	23.78
829.001	23.29
829.175	23.93
829.349	24.25
829.522	23.9
829.696	24.47
829.87	25.28
830.044	26.97
830.217	29.01
830.391	29.53
830.565	30.35
830.738	30.86
830.912	31.02
831.085	30.61
831.259	32.29
831.432	32.95
831.606	33.45
831.779	31.82
831.953	30.45
832.126	28.94
832.3	29.35
832.473	28.84
832.647	28.38
832.82	27.42
832.994	25.98
833.167	25.37
833.34	24.51
833.514	23.22
833.687	22.99
833.86	22.42
834.034	22.77
834.207	22.88
834.38	22.92
834.553	22.88
834.727	24
834.9	24.65
835.073	23.95
835.246	24.45
835.419	25.13
835.593	25.75
835.766	25.93
835.939	25.46
836.112	25.23
836.285	24.72
836.458	25.55
836.631	25.37
836.804	25.38
836.977	27.63
837.15	27.42
837.323	27.67
837.496	29.83
837.669	29.23
837.842	30.49
838.015	34.24
838.188	37.59
838.361	36.97
838.533	37.66
838.706	39.9
838.879	38.87
839.052	40.7
839.225	41.24
839.398	37.12
839.57	42.3
839.743	43.43
839.916	40.11
840.088	39.21
840.261	41.77
840.434	40.02
840.607	39.54
840.779	37.85
840.952	37
841.124	36.94
841.297	40.23
841.47	36.03
841.642	33.7
841.815	35.89
841.987	34.1
842.16	35.7
842.332	42.22
842.505	44.59
842.677	46.66
842.85	49.06
843.022	49.5
843.194	48.89
843.367	49.46
843.539	54.56
843.712	52.25
843.884	52.65
844.056	50.74
844.229	45.96
844.401	48.28
844.573	50.05
844.745	48.1
844.918	46.86
845.09	48.72
845.262	51.12
845.434	43.27
845.606	48.1
845.779	51.22
845.951	50.11
846.123	50.43
846.295	43.76
846.467	42.58
846.639	46.89
846.811	47.51
846.983	46.65
847.155	47.75
847.327	52.28
847.499	52.06
847.671	50.77
847.843	53.91
848.015	57.59
848.187	57.94
848.359	58.91
848.531	58.66
848.703	58.56
848.875	62.44
849.047	62.77
849.218	63.48
849.39	62.47
849.562	64.99
849.734	61.81
849.905	63.05
850.077	69.39
850.249	70.34
850.421	68.01
850.592	69.7
850.764	65.68
850.936	65.63
851.107	60.19
851.279	57.31
851.451	57.81
851.622	61.04
851.794	55.18
851.965	52.24
852.137	52.45
852.308	51.09
852.48	53.74
852.651	52.1
852.823	49.98
852.994	55.38
853.166	58.27
853.337	59.26
853.509	54.86
853.68	52.8
853.851	56.31
854.023	54.9
854.194	59.46
854.365	54.55
854.537	57.13
854.708	61.57
854.879	59.66
855.05	54.69
855.222	57.87
855.393	53.77
855.564	56.04
855.735	55.27
855.906	55.42
856.078	53.86
856.249	51.84
856.42	54.38
856.591	53.67
856.762	48.45
856.933	52.36
857.104	44.21
857.275	48.65
857.446	49.98
857.617	48.25
857.788	47.84
857.959	46.74
858.13	50.34
858.301	53.47
858.472	53.14
858.643	59.48
858.814	65.44
858.985	70.81
859.155	69.31
859.326	71.97
859.497	70.79
859.668	73.63
859.839	75.42
860.009	80.86
860.18	75.07
860.351	71.67
860.522	68.16
860.692	65.55
860.863	64.47
861.034	65.22
861.204	63.73
861.375	64.35
861.546	66.07
861.716	62.48
861.887	59.17
862.057	59.78
862.228	61.79
862.398	63.31
862.569	59.64
862.739	58.56
862.91	54.93
863.08	56.28
863.251	53.73
863.421	55.3
863.592	62.08
863.762	59.89
863.932	59.6
864.103	58.57
864.273	59.54
864.443	66.71
864.614	65.9
864.784	64.58
864.954	61.78
865.125	67.19
865.295	64.26
865.465	62.13
865.635	63.12
865.805	61.06
865.976	60.43
866.146	59.08
866.316	49.5
866.486	54.26
866.656	63.1
866.826	63.67
866.996	60.86
867.166	54.56
867.336	55.11
867.506	56.38
867.676	62.32
867.846	65.67
868.016	69.62
868.186	75.06
868.356	72.44
868.526	72.05
868.696	72.76
868.866	69.98
869.036	75.43
869.206	74.72
869.376	69.49
869.545	66.7
869.715	66.81
869.885	64.89
870.055	60.74
870.224	60.65
870.394	60.07
870.564	62.39
870.734	59.82
870.903	61.19
871.073	59.99
871.243	59.14
871.412	60.16
871.582	60.74
871.751	59.05
871.921	59.57
872.091	56.85
872.26	55.42
872.43	50.66
872.599	55.04
872.769	53.82
872.938	56.72
873.108	61.04
873.277	58.4
873.446	54.12
873.616	58.04
873.785	59.72
873.955	61.89
874.124	60.48
874.293	66.61
874.463	66.35
874.632	68.96
874.801	66.79
874.971	63.81
875.14	66.91
875.309	70.46
875.478	73.34
875.647	72.82
875.817	74.44
875.986	77.14
876.155	69.08
876.324	70.89
876.493	68.99
876.662	72.23
876.831	75.45
877	76.92
877.17	79.15
877.339	73.4
877.508	76.19
877.677	71.44
877.846	71.41
878.015	75.36
878.184	69.47
878.352	66.44
878.521	67.13
878.69	62.19
878.859	56.97
879.028	53.71
879.197	51.4
879.366	49.44
879.534	54.22
879.703	48.45
879.872	45.84
880.041	40.74
880.21	39.35
880.378	35.42
880.547	34.59
880.716	32.78
880.884	31.92
881.053	30.08
881.222	28.75
881.39	26.28
881.559	25.63
881.727	24.96
881.896	24.4
882.065	23.82
882.233	23.47
882.402	23.11
882.57	22.65
882.739	22.02
882.907	23.24
883.076	23.08
883.244	23.71
883.412	24.6
883.581	25.34
883.749	26.15
883.918	25.93
884.086	26.59
884.254	27.41
884.423	28.74
884.591	28.68
884.759	28.88
884.927	28.73
885.096	27.66
885.264	29.61
885.432	30.31
885.6	32.85
885.769	34.72
885.937	36.92
886.105	36.31
886.273	37.03
886.441	40.97
886.609	40.71
886.777	44.56
886.945	47.9
887.113	46.94
887.281	44.59
887.449	43.87
887.617	45.24
887.785	40.53
887.953	49.08
888.121	51.07
888.289	54.64
888.457	53.56
888.625	52.57
888.793	52
888.961	56.45
889.129	62.77
889.296	63.3
889.464	64.24
889.632	70.19
889.8	64
889.967	64.41
890.135	60.45
