Data from 2938731__Reflection_02.txt Node
Date: Sun Mar 15 18:52:37 EDT 2015
User: robert
Spectrometer: USB4E03002
Autoset integration time: false
Trigger mode: 4
Integration Time (sec): 1.000000E-1
Scans to average: 10
Electric dark correction enabled: false
Nonlinearity correction enabled: false
Boxcar width: 5
Stray light correction enabled: false
XAxis mode: Wavelengths
Stop averaging: false
Number of Pixels in Spectrum: 3648
>>>>>Begin Spectral Data<<<<<
177.575	106.43
177.794	94.79
178.014	100.76
178.233	136.2
178.452	168.57
178.672	167.73
178.891	190.24
179.11	246.72
179.33	190.17
179.549	553.06
179.768	448.72
179.987	-259.7
180.207	1500
180.426	353.12
180.645	263.64
180.864	243.09
181.084	155.74
181.303	122.42
181.522	87.55
181.741	7.32
181.96	53.09
182.179	12.37
182.398	4.81
182.618	-63.18
182.837	-52.85
183.056	-12.91
183.275	-22.43
183.494	-80.5
183.713	-71.81
183.932	-136.65
184.151	-184
184.37	5.26
184.589	89
184.808	109.61
185.027	110.93
185.246	149.03
185.465	157.64
185.684	116.67
185.903	168.79
186.122	268.92
186.341	415.44
186.56	211.22
186.779	123.05
186.998	161.16
187.216	790.91
187.435	500
187.654	-16.67
187.873	327.78
188.092	-37.21
188.311	342.42
188.53	2100
188.748	48.04
188.967	40.51
189.186	14.01
189.405	-27.82
189.623	-56.42
189.842	-20.91
190.061	13.31
190.28	26.99
190.498	46.39
190.717	41.24
190.936	27.98
191.154	47.47
191.373	50.26
191.592	65.58
191.81	68.03
192.029	74.14
192.248	70
192.466	5.58
192.685	-1144.44
192.904	155.23
193.122	155.98
193.341	114.38
193.559	108.71
193.778	114.69
193.996	139.15
194.215	129.73
194.433	120.32
194.652	155.75
194.87	219.53
195.089	287.58
195.307	335.48
195.526	66.46
195.744	-43.57
195.963	25.45
196.181	82.56
196.399	-20
196.618	1.65
196.836	-266.67
197.055	-143.75
197.273	61.61
197.491	150
197.71	95.16
197.928	825
198.146	-180
198.365	-225.81
198.583	54.49
198.801	-60.28
199.019	27.66
199.238	144.83
199.456	-20
199.674	-21.43
199.892	223.81
200.111	115.67
200.329	103.28
200.547	205.77
200.765	-213.79
200.983	-85.12
201.202	-161.08
201.42	-413.24
201.638	2031.58
201.856	422.81
202.074	-57900
202.292	3336.84
202.51	372.77
202.728	288.81
202.946	307.09
203.165	157.39
203.383	146.79
203.601	121.73
203.819	142.23
204.037	265.07
204.255	240.76
204.473	189.55
204.691	356.1
204.909	41.23
205.127	70.19
205.345	76.76
205.562	51.67
205.78	86.29
205.998	-48.5
206.216	6.42
206.434	0.97
206.652	-20.21
206.87	-22.61
207.088	40.71
207.306	13.33
207.523	-33.89
207.741	-16.99
207.959	-10.98
208.177	-55.78
208.395	-0.91
208.612	9.78
208.83	9.56
209.048	13.55
209.266	15.49
209.483	-7.94
209.701	3.93
209.919	4.3
210.136	2.64
210.354	0.9
210.572	-5.47
210.79	13.22
211.007	-5.87
211.225	21.59
211.442	10.96
211.66	16.51
211.878	27.48
212.095	33.39
212.313	64.33
212.53	37.86
212.748	29.34
212.966	27.55
213.183	13.88
213.401	22.06
213.618	8.2
213.836	9.97
214.053	-11.78
214.271	-2.78
214.488	-32.64
214.705	-59.28
214.923	-18.48
215.14	-35.89
215.358	-80.17
215.575	-55.93
215.793	-46.36
216.01	-47.88
216.227	-34.72
216.445	-23.54
216.662	-40.33
216.879	-81.09
217.097	-89.71
217.314	-84.36
217.531	-80.42
217.749	-37.59
217.966	-63.04
218.183	-123.56
218.4	-65.59
218.618	-42.56
218.835	-52.36
219.052	-37.99
219.269	-18.26
219.487	-16.79
219.704	-20.91
219.921	-20.53
220.138	-21.35
220.355	-24.32
220.572	-28.82
220.79	-42.75
221.007	-25.21
221.224	-21.11
221.441	-24.38
221.658	-16.37
221.875	-4.2
222.092	-5.45
222.309	-3.4
222.526	-8.16
222.743	-3.8
222.96	6.75
223.177	0.46
223.394	-3.73
223.611	-0.81
223.828	-1.68
224.045	-2.68
224.262	-10.04
224.479	-16.4
224.696	-12.87
224.913	-5.78
225.13	-9.26
225.347	-11.21
225.564	-6.28
225.781	-9.77
225.997	-7.56
226.214	-4.71
226.431	-2.15
226.648	-0.86
226.865	5.98
227.082	4.84
227.298	3.97
227.515	4.9
227.732	5.3
227.949	3.62
228.165	1.85
228.382	0.16
228.599	1.55
228.816	1.5
229.032	1.59
229.249	1.01
229.466	1.97
229.682	3.27
229.899	1.2
230.116	1.27
230.332	1.68
230.549	2.93
230.765	4.61
230.982	3.9
231.199	3.87
231.415	3.13
231.632	2.14
231.848	-1.49
232.065	-6.04
232.281	-4.7
232.498	-7.86
232.714	-9.01
232.931	-7.73
233.147	-6.65
233.364	-8.19
233.58	-8.76
233.797	-8.57
234.013	-6.77
234.23	-3.13
234.446	-0.52
234.662	-2.31
234.879	-0.38
235.095	-0.53
235.312	-3.44
235.528	-6.02
235.744	-9.44
235.961	-7.48
236.177	-9.36
236.393	-10.11
236.61	-11.58
236.826	-14.07
237.042	-8.74
237.258	-9.92
237.475	-7.09
237.691	-5.26
237.907	-4.21
238.123	0.87
238.339	-1.61
238.556	2.35
238.772	2.24
238.988	-0.24
239.204	0.24
239.42	-0.56
239.636	2.09
239.853	0.43
240.069	-1.4
240.285	-2.21
240.501	-2.88
240.717	-0.52
240.933	-1.39
241.149	-0.3
241.365	0.69
241.581	2.37
241.797	3.65
242.013	3.09
242.229	3.55
242.445	4.95
242.661	5.52
242.877	5.17
243.093	4.19
243.309	4.83
243.525	3.98
243.741	4.3
243.957	4.14
244.173	2.82
244.388	2.78
244.604	3.23
244.82	2.79
245.036	2.5
245.252	3.98
245.468	4.25
245.683	3.81
245.899	4.67
246.115	4.82
246.331	4.84
246.547	4.83
246.762	4.69
246.978	4.39
247.194	4.06
247.409	3.96
247.625	4.07
247.841	4.1
248.057	3.98
248.272	3.67
248.488	3.02
248.703	2.46
248.919	1.95
249.135	1.46
249.35	1.28
249.566	1.43
249.782	0.97
249.997	0.44
250.213	-0.25
250.428	-0.31
250.644	-0.93
250.859	-0.95
251.075	-0.37
251.29	0.28
251.506	1.46
251.721	1.9
251.937	1.58
252.152	2.13
252.368	1.17
252.583	1.3
252.798	1.46
253.014	1.2
253.229	1.36
253.445	0.63
253.66	0.21
253.875	-0.52
254.091	-1.93
254.306	-1.99
254.521	-3.6
254.737	-4.4
254.952	-4.5
255.167	-5.02
255.383	-4.45
255.598	-3.82
255.813	-2.79
256.028	-1.92
256.244	-1.92
256.459	-1.54
256.674	-1.78
256.889	-1.15
257.104	0.6
257.32	0.25
257.535	0.74
257.75	1.67
257.965	1.87
258.18	2.01
258.395	1.9
258.61	2.62
258.826	3.15
259.041	3.6
259.256	3.97
259.471	3.88
259.686	4.04
259.901	3.78
260.116	3.74
260.331	3.83
260.546	3.65
260.761	3.89
260.976	3.62
261.191	3.36
261.406	3.07
261.621	3.07
261.836	3.39
262.05	3.41
262.265	3.93
262.48	4.03
262.695	3.97
262.91	4.41
263.125	4.05
263.34	4.47
263.555	5.35
263.769	5.14
263.984	4.65
264.199	4.65
264.414	4.68
264.629	4.34
264.843	4.01
265.058	3.6
265.273	3.26
265.488	3.27
265.702	3.12
265.917	2.14
266.132	3.06
266.346	3.31
266.561	3.03
266.776	3.32
266.99	3.22
267.205	2.57
267.42	2.25
267.634	2.14
267.849	1.97
268.063	2.01
268.278	2.2
268.492	1.65
268.707	1.48
268.922	1.08
269.136	0.11
269.351	0.64
269.565	1.52
269.78	1.89
269.994	1.66
270.209	1.71
270.423	0.89
270.637	0.14
270.852	-0.49
271.066	-0.2
271.281	-0.25
271.495	-0.49
271.709	-0.85
271.924	-1.35
272.138	-1.43
272.353	-0.85
272.567	-0.6
272.781	0.05
272.996	0.67
273.21	0.96
273.424	0.73
273.638	0.82
273.853	1.59
274.067	1.49
274.281	2.33
274.495	2.15
274.71	1.51
274.924	2.1
275.138	2.43
275.352	2.53
275.566	2.4
275.781	2.61
275.995	2.48
276.209	2.67
276.423	2.98
276.637	1.8
276.851	2.36
277.065	2.86
277.279	1.88
277.493	1.25
277.707	1.05
277.921	1.38
278.135	1.16
278.349	1.68
278.563	1.32
278.777	1.11
278.991	2.04
279.205	2.18
279.419	1.9
279.633	2.04
279.847	2.08
280.061	2.11
280.275	2.61
280.489	2.53
280.703	2.23
280.917	2.07
281.131	2.35
281.344	2.47
281.558	2.23
281.772	2.5
281.986	1.85
282.2	1.57
282.414	1.69
282.627	1.17
282.841	1.09
283.055	1.4
283.269	1.55
283.482	1.11
283.696	1.18
283.91	1.53
284.123	1.37
284.337	2.28
284.551	2.41
284.764	2.58
284.978	2.8
285.192	2.89
285.405	2.54
285.619	2.57
285.833	2.82
286.046	2.34
286.26	2.21
286.473	2.14
286.687	2
286.9	1.88
287.114	1.59
287.327	1.7
287.541	1.63
287.754	1.78
287.968	1.75
288.181	1.93
288.395	2.33
288.608	2.19
288.822	2.42
289.035	2.25
289.248	2.69
289.462	3.09
289.675	2.73
289.889	2.93
290.102	2.9
290.315	2.77
290.529	2.71
290.742	2.8
290.955	2.96
291.169	2.8
291.382	3.22
291.595	3.02
291.808	2.67
292.022	2.81
292.235	2.58
292.448	2.93
292.661	2.95
292.875	2.62
293.088	2.49
293.301	2.68
293.514	2.94
293.727	2.92
293.94	3.04
294.153	3.58
294.367	3.33
294.58	3.55
294.793	3.09
295.006	3.38
295.219	3.12
295.432	3.08
295.645	2.85
295.858	2.64
296.071	2.44
296.284	2.57
296.497	2.24
296.71	2.5
296.923	2.33
297.136	2.54
297.349	2.67
297.562	2.87
297.775	2.98
297.988	2.98
298.201	2.98
298.414	2.8
298.626	2.57
298.839	2.15
299.052	2.21
299.265	2.72
299.478	2.4
299.691	2.06
299.903	1.89
300.116	1.7
300.329	2.01
300.542	2.32
300.755	2.5
300.967	2.43
301.18	2.62
301.393	2.56
301.605	2.14
301.818	2.11
302.031	2.62
302.243	2.39
302.456	2.12
302.669	1.69
302.881	1.76
303.094	1.88
303.307	2.13
303.519	2.34
303.732	2.13
303.944	2.41
304.157	2.99
304.37	2
304.582	2.81
304.795	3
305.007	3.19
305.22	3.09
305.432	2.9
305.645	2.76
305.857	3.28
306.069	3.44
306.282	2.99
306.494	2.77
306.707	3.67
306.919	3.55
307.132	3.4
307.344	3.74
307.556	3.43
307.769	3.58
307.981	3.22
308.193	2.79
308.406	2.93
308.618	3.06
308.83	3.06
309.043	3.13
309.255	2.74
309.467	2.52
309.679	2.51
309.892	2.75
310.104	2.45
310.316	2.87
310.528	2.9
310.74	2.49
310.953	2.54
311.165	2.78
311.377	2.29
311.589	2.68
311.801	3.28
312.013	3.03
312.225	2.92
312.437	3.05
312.649	3.04
312.862	2.76
313.074	3.07
313.286	2.89
313.498	2.6
313.71	2.93
313.922	2.74
314.134	2.49
314.346	2.5
314.558	2.63
314.77	2.83
314.982	2.97
315.193	3.61
315.405	3.35
315.617	3.52
315.829	3.52
316.041	3.43
316.253	3.42
316.465	3.3
316.677	3.52
316.888	3.18
317.1	3.06
317.312	3
317.524	3.06
317.736	3.51
317.947	3.66
318.159	3.46
318.371	3.53
318.583	3.8
318.794	3.92
319.006	3.9
319.218	4.41
319.43	5.01
319.641	4.92
319.853	4.9
320.064	4.98
320.276	5.08
320.488	5.13
320.699	5.23
320.911	4.92
321.123	4.64
321.334	3.97
321.546	3.33
321.757	2.8
321.969	2.9
322.18	3.11
322.392	3.13
322.603	3.39
322.815	4.04
323.026	4.24
323.238	4.81
323.449	4.98
323.661	5.57
323.872	5.88
324.083	6.14
324.295	6.27
324.506	6.38
324.718	6.25
324.929	6.15
325.14	6.02
325.352	6.04
325.563	6.12
325.774	6.57
325.986	6.43
326.197	6.18
326.408	6.16
326.62	6.53
326.831	6.29
327.042	6.56
327.253	6.65
327.464	6.73
327.676	6.9
327.887	7.3
328.098	7.32
328.309	7.66
328.52	8.37
328.732	8.53
328.943	8.6
329.154	9.04
329.365	9.34
329.576	9.47
329.787	9.58
329.998	9.75
330.209	9.16
330.42	9.56
330.631	9.82
330.842	9.8
331.053	9.96
331.264	9.17
331.475	9.22
331.686	9.43
331.897	9.84
332.108	10.39
332.319	10.53
332.53	11.46
332.741	11.22
332.952	11.47
333.163	11.72
333.374	11.84
333.585	12.54
333.795	12.43
334.006	12.51
334.217	12.3
334.428	11.82
334.639	12.05
334.849	11.3
335.06	11.74
335.271	11.52
335.482	11.31
335.692	11.01
335.903	11.45
336.114	11.68
336.325	11.7
336.535	11.78
336.746	11.74
336.957	11.61
337.167	11.96
337.378	11.8
337.589	11.94
337.799	12.19
338.01	12.5
338.22	11.7
338.431	11.5
338.642	11.77
338.852	12.24
339.063	11.96
339.273	11.72
339.484	11.79
339.694	11.72
339.905	11.61
340.115	11.62
340.326	11.94
340.536	12.18
340.746	12.32
340.957	12.24
341.167	12.18
341.378	13.06
341.588	13.24
341.799	12.87
342.009	12.69
342.219	12.63
342.43	12.96
342.64	12.9
342.85	13.37
343.061	13.12
343.271	13.13
343.481	12.44
343.691	12.54
343.902	12.79
344.112	12.88
344.322	13.04
344.532	13.46
344.743	13.22
344.953	13.25
345.163	12.95
345.373	13.32
345.583	12.91
345.793	13.51
346.004	13.05
346.214	12.89
346.424	12.81
346.634	13.44
346.844	12.98
347.054	12.83
347.264	12.98
347.474	13.51
347.684	13.33
347.894	13.25
348.104	12.94
348.314	13.11
348.524	13.28
348.734	13.75
348.944	13.16
349.154	13.62
349.364	13.92
349.574	13.48
349.784	12.97
349.994	13.23
350.204	13.5
350.413	13.79
350.623	13.88
350.833	13.55
351.043	13.57
351.253	13.48
351.463	13.23
351.672	13.31
351.882	13.18
352.092	12.97
352.302	12.52
352.511	12.58
352.721	11.96
352.931	11.7
353.141	12.03
353.35	11.63
353.56	11.47
353.77	11.88
353.979	11.78
354.189	12.14
354.399	12.33
354.608	12.72
354.818	12.9
355.027	13.25
355.237	13.36
355.447	13.27
355.656	13.41
355.866	13.63
356.075	13.35
356.285	12.84
356.494	12.69
356.704	12.51
356.913	12.08
357.123	12
357.332	12.07
357.542	12.14
357.751	12.09
357.96	11.89
358.17	11.84
358.379	11.89
358.589	12.09
358.798	12.28
359.007	12.15
359.217	12.47
359.426	12.41
359.635	12.48
359.845	12.25
360.054	12.46
360.263	12.39
360.472	12.35
360.682	12.26
360.891	12.29
361.1	12.07
361.309	12.49
361.519	12.43
361.728	12.19
361.937	11.93
362.146	12.13
362.355	12.05
362.564	12.34
362.774	12.42
362.983	12.3
363.192	12.35
363.401	12.46
363.61	12.09
363.819	12.16
364.028	12.25
364.237	12.24
364.446	12.29
364.655	11.98
364.864	11.89
365.073	11.71
365.282	11.82
365.491	11.62
365.7	11.42
365.909	11.59
366.118	11.44
366.327	11.52
366.536	11.66
366.745	11.49
366.954	11.47
367.162	11.48
367.371	11.41
367.58	11.72
367.789	11.64
367.998	12
368.207	12.08
368.415	12.18
368.624	12.27
368.833	12.16
369.042	12.35
369.25	12.32
369.459	12.13
369.668	12.22
369.877	11.83
370.085	12.14
370.294	12.16
370.503	12.27
370.711	12.22
370.92	12.11
371.129	12.26
371.337	12.07
371.546	12.07
371.754	12.05
371.963	11.97
372.171	12.05
372.38	11.99
372.589	11.72
372.797	11.66
373.006	11.66
373.214	11.85
373.423	11.61
373.631	11.71
373.84	11.89
374.048	11.99
374.256	12.31
374.465	12.32
374.673	12.43
374.882	12.63
375.09	12.41
375.298	12.18
375.507	11.99
375.715	12.33
375.923	12.26
376.132	12.36
376.34	12.15
376.548	12.2
376.757	12.09
376.965	12.06
377.173	12.32
377.381	12.24
377.59	12.22
377.798	12.31
378.006	12.12
378.214	11.91
378.423	11.72
378.631	11.79
378.839	11.42
379.047	11.49
379.255	11.45
379.463	11.03
379.671	11.43
379.879	11.46
380.088	11.53
380.296	11.44
380.504	11.52
380.712	11.42
380.92	11.4
381.128	11.88
381.336	11.84
381.544	11.76
381.752	11.73
381.96	11.35
382.168	11.25
382.376	11.22
382.584	11.31
382.791	11.11
382.999	11.24
383.207	11.35
383.415	11.16
383.623	11.26
383.831	11.25
384.039	11.25
384.247	11.25
384.454	11.49
384.662	11.4
384.87	11.31
385.078	11.3
385.285	11.34
385.493	11.45
385.701	11.26
385.909	11.16
386.116	11.56
386.324	11.57
386.532	11.65
386.739	11.81
386.947	11.79
387.155	11.65
387.362	11.64
387.57	11.79
387.778	11.62
387.985	11.59
388.193	11.67
388.4	11.11
388.608	11.3
388.816	11.46
389.023	11.28
389.231	11.41
389.438	11.68
389.646	12.2
389.853	11.98
390.061	12.18
390.268	12.23
390.475	12.21
390.683	12.37
390.89	12.16
391.098	11.93
391.305	11.92
391.512	11.57
391.72	11.63
391.927	11.41
392.135	11.44
392.342	11.25
392.549	11.4
392.756	11.43
392.964	11.51
393.171	11.71
393.378	11.77
393.586	11.84
393.793	12.19
394	12.11
394.207	12.25
394.414	12.17
394.622	12.21
394.829	12.3
395.036	12.27
395.243	12.33
395.45	12.07
395.657	12.05
395.864	12.02
396.072	11.95
396.279	11.69
396.486	11.44
396.693	11.57
396.9	11.56
397.107	11.31
397.314	11.38
397.521	11.09
397.728	11.15
397.935	10.94
398.142	11.2
398.349	11.29
398.556	11.42
398.763	11.5
398.97	11.57
399.177	11.53
399.383	11.72
399.59	11.38
399.797	11.55
400.004	11.37
400.211	11.6
400.418	11.59
400.625	11.54
400.831	11.57
401.038	11.71
401.245	11.63
401.452	11.61
401.658	11.46
401.865	11.86
402.072	12.04
402.279	12.19
402.485	12.38
402.692	12.37
402.899	12.49
403.105	12.54
403.312	12.55
403.519	12.62
403.725	12.69
403.932	12.62
404.138	12.49
404.345	12.41
404.552	12.6
404.758	12.45
404.965	12.4
405.171	12.27
405.378	12.34
405.584	12.36
405.791	12.33
405.997	12.34
406.204	12.35
406.41	12.39
406.617	12.17
406.823	12.07
407.029	12.24
407.236	12.41
407.442	12.59
407.649	12.66
407.855	12.72
408.061	12.52
408.268	12.52
408.474	12.52
408.68	12.59
408.887	12.77
409.093	12.68
409.299	12.65
409.505	12.52
409.712	12.22
409.918	12.2
410.124	12.12
410.33	12.22
410.537	12.13
410.743	12.58
410.949	12.35
411.155	12.35
411.361	12.45
411.567	12.36
411.773	12.31
411.98	12.46
412.186	12.22
412.392	12.22
412.598	12.34
412.804	12.62
413.01	12.42
413.216	12.66
413.422	12.64
413.628	12.61
413.834	12.64
414.04	12.71
414.246	12.84
414.452	12.9
414.658	12.95
414.864	12.94
415.07	12.8
415.275	12.69
415.481	12.63
415.687	12.63
415.893	12.68
416.099	12.78
416.305	12.63
416.511	12.68
416.716	13.01
416.922	12.99
417.128	13.07
417.334	13.22
417.539	13.34
417.745	13.37
417.951	13.51
418.157	13.44
418.362	13.4
418.568	13.4
418.774	13.39
418.979	13.3
419.185	13.32
419.391	13.44
419.596	13.45
419.802	13.36
420.008	13.45
420.213	13.36
420.419	13.51
420.624	13.53
420.83	13.67
421.035	13.67
421.241	13.68
421.446	13.75
421.652	13.64
421.857	13.55
422.063	13.61
422.268	13.53
422.474	13.64
422.679	13.56
422.885	13.54
423.09	13.47
423.295	13.5
423.501	13.54
423.706	13.49
423.911	13.57
424.117	13.61
424.322	13.62
424.527	13.67
424.733	13.58
424.938	13.59
425.143	13.7
425.349	13.74
425.554	13.8
425.759	13.84
425.964	13.77
426.169	13.7
426.375	13.69
426.58	13.69
426.785	13.66
426.99	13.87
427.195	14.02
427.4	13.93
427.605	13.78
427.811	13.62
428.016	13.58
428.221	13.59
428.426	13.65
428.631	13.71
428.836	13.71
429.041	13.64
429.246	13.62
429.451	13.52
429.656	13.66
429.861	13.86
430.066	13.88
430.271	13.84
430.476	13.91
430.681	13.87
430.886	13.96
431.09	13.89
431.295	13.88
431.5	13.81
431.705	13.75
431.91	13.69
432.115	13.69
432.32	13.73
432.524	13.8
432.729	13.81
432.934	13.72
433.139	13.75
433.343	13.89
433.548	13.89
433.753	13.94
433.958	14
434.162	14
434.367	13.97
434.572	13.88
434.776	13.84
434.981	13.95
435.186	14.1
435.39	14.09
435.595	14.06
435.799	14.15
436.004	14.02
436.209	14.16
436.413	14.19
436.618	14.08
436.822	14.06
437.027	14.14
437.231	14
437.436	14
437.64	13.99
437.845	13.86
438.049	13.94
438.253	13.98
438.458	13.76
438.662	13.8
438.867	13.83
439.071	13.93
439.275	14.02
439.48	14.06
439.684	14.1
439.888	14.08
440.093	14.18
440.297	14.26
440.501	14.29
440.706	14.28
440.91	14.16
441.114	14.31
441.318	14.3
441.523	14.14
441.727	14.09
441.931	13.96
442.135	13.95
442.339	13.93
442.543	13.79
442.748	13.64
442.952	13.77
443.156	13.89
443.36	13.89
443.564	13.94
443.768	13.94
443.972	14.08
444.176	14.25
444.38	14.24
444.584	14.2
444.788	14.31
444.992	14.42
445.196	14.44
445.4	14.32
445.604	14.31
445.808	14.27
446.012	14.27
446.216	14.21
446.42	14.23
446.624	14.22
446.828	14.23
447.032	14.15
447.235	14.16
447.439	14.08
447.643	14.2
447.847	14.24
448.051	14.28
448.254	14.25
448.458	14.25
448.662	14.05
448.866	14.07
449.069	14.09
449.273	14.17
449.477	14.13
449.681	14.09
449.884	14.04
450.088	13.9
450.292	13.85
450.495	13.84
450.699	14
450.902	14.08
451.106	14.12
451.31	14.1
451.513	14.01
451.717	13.94
451.92	13.97
452.124	13.94
452.327	14.02
452.531	13.97
452.734	14.1
452.938	13.99
453.141	14.05
453.345	13.96
453.548	14.07
453.752	14.12
453.955	14.3
454.158	14.39
454.362	14.46
454.565	14.49
454.769	14.56
454.972	14.51
455.175	14.44
455.379	14.35
455.582	14.31
455.785	14.16
455.988	14.16
456.192	14.05
456.395	14.01
456.598	13.85
456.801	13.74
457.005	13.84
457.208	13.78
457.411	13.84
457.614	13.96
457.817	14.09
458.021	14.19
458.224	14.21
458.427	14.29
458.63	14.21
458.833	14.25
459.036	14.39
459.239	14.29
459.442	14.35
459.645	14.36
459.848	14.36
460.051	14.3
460.254	14.33
460.457	14.28
460.66	14.24
460.863	14.32
461.066	14.32
461.269	14.21
461.472	14.3
461.675	14.32
461.878	14.26
462.081	14.21
462.284	14.27
462.486	14.2
462.689	14.28
462.892	14.23
463.095	14.2
463.298	14.14
463.5	14.11
463.703	14.04
463.906	13.98
464.109	14.02
464.311	13.93
464.514	13.95
464.717	14.01
464.92	13.86
465.122	14
465.325	14.11
465.528	14.2
465.73	14.2
465.933	14.26
466.135	14.16
466.338	14.18
466.541	14.33
466.743	14.45
466.946	14.33
467.148	14.4
467.351	14.35
467.553	14.12
467.756	14.08
467.958	14.12
468.161	13.95
468.363	14.19
468.566	14.16
468.768	14.17
468.971	13.95
469.173	13.96
469.375	14.03
469.578	14
469.78	14.17
469.983	14.35
470.185	14.28
470.387	14.37
470.59	14.24
470.792	14.23
470.994	14.1
471.196	14.11
471.399	14.21
471.601	14.12
471.803	14.11
472.005	14.19
472.208	14.01
472.41	14
472.612	13.95
472.814	13.89
473.016	13.92
473.218	13.89
473.421	14
473.623	14
473.825	14.13
474.027	14.05
474.229	14.04
474.431	14.06
474.633	14.19
474.835	14.28
475.037	14.37
475.239	14.34
475.441	14.49
475.643	14.33
475.845	14.18
476.047	14.09
476.249	14.23
476.451	14.22
476.653	14.24
476.855	14.1
477.057	14.1
477.258	14.14
477.46	14.17
477.662	14.09
477.864	14.18
478.066	14.29
478.268	14.26
478.469	14.19
478.671	14.04
478.873	14.03
479.075	14.13
479.276	14.11
479.478	14.08
479.68	14.07
479.882	14.08
480.083	14.17
480.285	14.19
480.487	14.23
480.688	14.21
480.89	14.31
481.091	14.36
481.293	14.4
481.495	14.54
481.696	14.5
481.898	14.56
482.099	14.62
482.301	14.61
482.502	14.67
482.704	14.7
482.905	14.75
483.107	14.81
483.308	14.81
483.51	14.84
483.711	14.8
483.913	14.85
484.114	14.84
484.315	14.88
484.517	14.85
484.718	14.8
484.92	14.77
485.121	14.74
485.322	14.68
485.524	14.66
485.725	14.62
485.926	14.61
486.127	14.58
486.329	14.57
486.53	14.52
486.731	14.51
486.932	14.51
487.134	14.58
487.335	14.61
487.536	14.63
487.737	14.67
487.938	14.7
488.139	14.73
488.341	14.75
488.542	14.72
488.743	14.73
488.944	14.79
489.145	14.81
489.346	14.73
489.547	14.73
489.748	14.76
489.949	14.79
490.15	14.73
490.351	14.73
490.552	14.75
490.753	14.84
490.954	14.84
491.155	14.87
491.356	14.89
491.557	14.92
491.758	14.89
491.959	14.94
492.159	14.92
492.36	14.98
492.561	14.95
492.762	14.95
492.963	14.93
493.164	14.92
493.364	14.89
493.565	14.95
493.766	14.98
493.967	15.07
494.167	14.99
494.368	15.01
494.569	14.92
494.769	14.93
494.97	14.9
495.171	14.92
495.371	15.03
495.572	15.06
495.773	15.06
495.973	15.03
496.174	14.97
496.375	15.03
496.575	15.02
496.776	15.15
496.976	15.17
497.177	15.2
497.377	15.22
497.578	15.16
497.778	15.09
497.979	15.09
498.179	15.2
498.38	15.14
498.58	15.04
498.78	15.03
498.981	14.97
499.181	15
499.382	14.99
499.582	14.92
499.782	14.94
499.983	15.04
500.183	15.03
500.383	15.04
500.584	15.11
500.784	15.31
500.984	15.34
501.184	15.27
501.385	15.28
501.585	15.38
501.785	15.41
501.985	15.41
502.185	15.4
502.386	15.3
502.586	15.13
502.786	15.19
502.986	15.16
503.186	15.19
503.386	15.2
503.586	15.17
503.786	15.12
503.987	15.15
504.187	15.23
504.387	15.24
504.587	15.31
504.787	15.42
504.987	15.38
505.187	15.3
505.387	15.26
505.587	15.34
505.786	15.45
505.986	15.51
506.186	15.56
506.386	15.46
506.586	15.46
506.786	15.6
506.986	15.58
507.186	15.58
507.386	15.7
507.585	15.83
507.785	15.78
507.985	15.74
508.185	15.75
508.384	15.77
508.584	15.8
508.784	15.83
508.984	15.76
509.183	15.82
509.383	15.9
509.583	15.88
509.782	15.82
509.982	15.92
510.182	16.1
510.381	16.13
510.581	16.03
510.781	16.06
510.98	16.09
511.18	16.13
511.379	16.11
511.579	16.28
511.778	16.27
511.978	16.32
512.177	16.3
512.377	16.16
512.576	16.08
512.776	16.19
512.975	16.27
513.175	16.28
513.374	16.29
513.573	16.32
513.773	16.21
513.972	16.27
514.172	16.2
514.371	16.25
514.57	16.28
514.77	16.39
514.969	16.46
515.168	16.43
515.367	16.48
515.567	16.38
515.766	16.39
515.965	16.36
516.164	16.28
516.364	16.37
516.563	16.42
516.762	16.41
516.961	16.53
517.16	16.54
517.359	16.52
517.559	16.57
517.758	16.69
517.957	16.72
518.156	16.72
518.355	16.75
518.554	16.77
518.753	16.76
518.952	16.74
519.151	16.68
519.35	16.67
519.549	16.64
519.748	16.64
519.947	16.67
520.146	16.73
520.345	16.78
520.544	16.82
520.743	16.85
520.942	16.86
521.141	16.94
521.339	16.9
521.538	16.95
521.737	17.08
521.936	17.1
522.135	17.05
522.333	17
522.532	16.92
522.731	16.98
522.93	16.98
523.129	16.99
523.327	17.04
523.526	17.1
523.725	17.11
523.923	17.17
524.122	17.17
524.321	17.25
524.519	17.23
524.718	17.37
524.917	17.38
525.115	17.33
525.314	17.38
525.512	17.27
525.711	17.26
525.909	17.34
526.108	17.36
526.306	17.4
526.505	17.46
526.703	17.49
526.902	17.53
527.1	17.55
527.299	17.63
527.497	17.6
527.696	17.73
527.894	17.75
528.092	17.76
528.291	17.76
528.489	17.78
528.688	17.78
528.886	17.85
529.084	17.81
529.283	17.83
529.481	17.83
529.679	17.83
529.877	17.78
530.076	17.81
530.274	17.75
530.472	17.76
530.67	17.78
530.869	17.77
531.067	17.7
531.265	17.77
531.463	17.74
531.661	17.77
531.859	17.85
532.057	17.9
532.255	17.9
532.454	17.93
532.652	18.03
532.85	18.02
533.048	18.01
533.246	18.06
533.444	18.08
533.642	18.11
533.84	18.1
534.038	18.17
534.236	18.23
534.434	18.24
534.632	18.37
534.83	18.32
535.027	18.31
535.225	18.33
535.423	18.41
535.621	18.43
535.819	18.5
536.017	18.54
536.215	18.52
536.412	18.51
536.61	18.57
536.808	18.46
537.006	18.42
537.203	18.45
537.401	18.53
537.599	18.48
537.797	18.44
537.994	18.46
538.192	18.48
538.39	18.46
538.587	18.45
538.785	18.47
538.983	18.58
539.18	18.68
539.378	18.81
539.575	18.83
539.773	18.95
539.97	18.94
540.168	19.01
540.366	19
540.563	19.12
540.761	19.2
540.958	19.26
541.155	19.28
541.353	19.37
541.55	19.33
541.748	19.36
541.945	19.36
542.143	19.45
542.34	19.42
542.537	19.49
542.735	19.43
542.932	19.44
543.129	19.47
543.327	19.53
543.524	19.53
543.721	19.61
543.919	19.66
544.116	19.73
544.313	19.8
544.51	19.96
544.708	20.05
544.905	20.14
545.102	20.27
545.299	20.27
545.496	20.24
545.693	20.26
545.891	20.42
546.088	20.36
546.285	20.37
546.482	20.39
546.679	20.34
546.876	20.34
547.073	20.41
547.27	20.32
547.467	20.28
547.664	20.24
547.861	20.2
548.058	20.02
548.255	20.06
548.452	20.01
548.649	19.94
548.846	19.91
549.043	19.9
549.24	19.85
549.437	19.82
549.633	19.91
549.83	19.98
550.027	19.92
550.224	19.98
550.421	19.99
550.618	19.79
550.814	19.8
551.011	19.85
551.208	19.76
551.405	19.64
551.601	19.63
551.798	19.68
551.995	19.69
552.191	19.7
552.388	19.63
552.585	19.55
552.781	19.66
552.978	19.57
553.175	19.5
553.371	19.5
553.568	19.63
553.764	19.6
553.961	19.44
554.157	19.38
554.354	19.36
554.55	19.22
554.747	19.24
554.943	19.24
555.14	19.33
555.336	19.23
555.533	19.24
555.729	19.09
555.926	19.19
556.122	19.28
556.318	19.38
556.515	19.34
556.711	19.53
556.907	19.45
557.104	19.58
557.3	19.61
557.496	19.8
557.693	19.7
557.889	19.87
558.085	19.81
558.281	19.84
558.478	19.74
558.674	19.86
558.87	19.82
559.066	19.97
559.262	19.98
559.459	19.96
559.655	19.93
559.851	20.03
560.047	20.01
560.243	20.05
560.439	20
560.635	20.04
560.831	20.06
561.027	20.02
561.223	19.95
561.419	20.11
561.615	20.11
561.811	20.09
562.007	20.05
562.203	19.96
562.399	19.93
562.595	19.86
562.791	19.78
562.987	19.77
563.183	19.89
563.379	20.1
563.575	19.8
563.771	19.76
563.966	19.87
564.162	19.87
564.358	20.02
564.554	20.14
564.75	20.21
564.945	20.3
565.141	20.41
565.337	20.27
565.533	20.16
565.728	20.15
565.924	20.11
566.12	20.01
566.315	20.15
566.511	20.18
566.707	20.06
566.902	20.02
567.098	20.08
567.293	19.95
567.489	19.93
567.684	19.84
567.88	19.89
568.076	19.95
568.271	19.93
568.467	19.89
568.662	19.73
568.858	19.76
569.053	19.75
569.248	19.76
569.444	19.76
569.639	19.98
569.835	20.25
570.03	20.23
570.225	20.28
570.421	20.35
570.616	20.26
570.812	20.26
571.007	20.31
571.202	20.31
571.397	20.2
571.593	20.22
571.788	20.23
571.983	20.12
572.178	20.21
572.374	20.1
572.569	20.09
572.764	20.18
572.959	20.26
573.154	20.27
573.35	20.25
573.545	20.35
573.74	20.39
573.935	20.28
574.13	20.15
574.325	20.12
574.52	20.37
574.715	20.36
574.91	20.25
575.105	20.24
575.3	20.25
575.495	20.44
575.69	20.59
575.885	20.65
576.08	20.72
576.275	20.96
576.47	21
576.665	20.93
576.86	20.98
577.055	21.21
577.25	21.19
577.444	21.18
577.639	21.17
577.834	21.17
578.029	21.01
578.224	20.99
578.418	20.85
578.613	20.9
578.808	20.75
579.003	20.81
579.197	20.68
579.392	20.78
579.587	20.84
579.781	20.88
579.976	20.83
580.171	20.99
580.365	21.02
580.56	21.08
580.755	21.07
580.949	21.33
581.144	21.19
581.338	21.31
581.533	21.2
581.727	21.09
581.922	21.06
582.116	21
582.311	21.07
582.505	21.01
582.7	21.07
582.894	20.99
583.089	20.77
583.283	20.92
583.478	20.82
583.672	21.05
583.866	21.12
584.061	21.14
584.255	21.33
584.449	21.32
584.644	21.4
584.838	21.35
585.032	21.54
585.226	21.8
585.421	21.88
585.615	21.96
585.809	21.9
586.003	21.86
586.198	21.98
586.392	21.78
586.586	21.66
586.78	21.65
586.974	21.67
587.168	21.86
587.363	21.78
587.557	21.73
587.751	21.63
587.945	21.48
588.139	21.5
588.333	21.45
588.527	21.45
588.721	21.55
588.915	21.52
589.109	21.52
589.303	21.24
589.497	21.2
589.691	21.1
589.885	21.26
590.079	21.42
590.273	21.32
590.466	20.97
590.66	21.03
590.854	21.07
591.048	21.28
591.242	21.28
591.436	21.39
591.629	21.47
591.823	21.72
592.017	21.71
592.211	21.77
592.404	21.98
592.598	22.21
592.792	22.19
592.986	22.05
593.179	22.04
593.373	22.13
593.567	21.95
593.76	21.96
593.954	21.79
594.147	21.72
594.341	21.6
594.535	21.58
594.728	21.75
594.922	21.72
595.115	21.64
595.309	21.43
595.502	21.44
595.696	21.53
595.889	21.33
596.083	21.22
596.276	21.38
596.47	21.59
596.663	21.6
596.856	21.45
597.05	21.53
597.243	21.71
597.437	21.84
597.63	21.96
597.823	21.92
598.017	22.05
598.21	22.14
598.403	22.24
598.596	22.03
598.79	21.99
598.983	22.22
599.176	22.15
599.369	22.02
599.563	22.07
599.756	22.01
599.949	22.05
600.142	22.07
600.335	22.06
600.528	21.59
600.722	21.66
600.915	21.79
601.108	21.68
601.301	21.76
601.494	21.96
601.687	21.84
601.88	21.78
602.073	21.8
602.266	21.89
602.459	22.04
602.652	22.3
602.845	22.27
603.038	22.33
603.231	22.27
603.424	22.34
603.617	22.28
603.809	22.28
604.002	22.18
604.195	22.1
604.388	22.1
604.581	22.02
604.774	22.02
604.966	21.92
605.159	21.69
605.352	21.64
605.545	21.41
605.737	21.39
605.93	21.57
606.123	21.6
606.316	21.65
606.508	21.53
606.701	21.64
606.894	21.81
607.086	22
607.279	22.18
607.471	22.42
607.664	22.53
607.857	22.76
608.049	22.76
608.242	22.99
608.434	23.5
608.627	24.02
608.819	24.28
609.012	24.69
609.204	25.28
609.397	25.82
609.589	26.4
609.782	27.51
609.974	28.14
610.166	28.89
610.359	29.68
610.551	30.12
610.743	30.78
610.936	31.43
611.128	31.82
611.32	31.99
611.513	32.26
611.705	32.32
611.897	31.97
612.09	31.89
612.282	31.67
612.474	31.21
612.666	31.01
612.858	30.44
613.051	30.05
613.243	29.66
613.435	29.37
613.627	28.95
613.819	28.52
614.011	28.22
614.203	28.01
614.395	27.85
614.588	27.67
614.78	27.34
614.972	27.09
615.164	26.79
615.356	26.45
615.548	26.18
615.74	25.87
615.932	25.85
616.124	25.59
616.315	25.28
616.507	24.85
616.699	24.62
616.891	24.33
617.083	24.27
617.275	24.15
617.467	24.07
617.659	23.85
617.85	24
618.042	23.79
618.234	23.8
618.426	23.78
618.618	23.6
618.809	23.71
619.001	23.76
619.193	23.62
619.384	23.65
619.576	23.49
619.768	23.72
619.959	23.65
620.151	23.77
620.343	23.82
620.534	23.85
620.726	23.84
620.917	23.74
621.109	23.84
621.301	23.75
621.492	23.66
621.684	23.87
621.875	23.63
622.067	23.38
622.258	23.17
622.45	23.04
622.641	22.98
622.832	23.36
623.024	23.17
623.215	23.15
623.407	23.27
623.598	23.25
623.789	23.12
623.981	23.36
624.172	23.78
624.363	23.7
624.555	23.92
624.746	23.96
624.937	23.91
625.129	23.8
625.32	23.74
625.511	23.8
625.702	23.78
625.893	23.69
626.085	23.74
626.276	23.57
626.467	23.84
626.658	23.68
626.849	23.54
627.04	23.34
627.231	23.6
627.422	23.6
627.614	23.51
627.805	23.64
627.996	23.78
628.187	23.76
628.378	23.82
628.569	23.9
628.76	24.05
628.951	24.36
629.142	24.51
629.332	24.62
629.523	24.85
629.714	24.94
629.905	24.87
630.096	25
630.287	25.07
630.478	25.15
630.669	25.05
630.859	24.76
631.05	24.35
631.241	24.5
631.432	24.39
631.623	24.16
631.813	24.11
632.004	24.18
632.195	23.97
632.385	23.71
632.576	23.46
632.767	23.23
632.957	23.39
633.148	23.59
633.339	23.31
633.529	23.22
633.72	23.1
633.91	23.03
634.101	22.78
634.292	22.87
634.482	22.89
634.673	22.96
634.863	22.97
635.054	23.05
635.244	22.91
635.435	22.98
635.625	23.17
635.815	23.32
636.006	23.4
636.196	23.75
636.387	23.74
636.577	23.77
636.767	23.97
636.958	24.06
637.148	24.07
637.338	23.86
637.529	23.8
637.719	23.61
637.909	23.54
638.099	23.43
638.29	23.11
638.48	22.99
638.67	22.96
638.86	22.88
639.05	22.84
639.241	22.53
639.431	22.84
639.621	22.88
639.811	22.85
640.001	22.54
640.191	22.62
640.381	23.01
640.571	23.15
640.761	23.2
640.951	23.09
641.141	23.27
641.331	23.24
641.521	23.14
641.711	23.2
641.901	23.27
642.091	23.64
642.281	23.71
642.471	23.49
642.661	23.43
642.851	23.46
643.041	23.26
643.231	23.21
643.42	23.58
643.61	23.69
643.8	23.41
643.99	23.13
644.18	22.99
644.369	23.13
644.559	23.18
644.749	23.21
644.939	23.09
645.128	23.41
645.318	23.14
645.508	23.09
645.697	22.98
645.887	23.11
646.076	23.33
646.266	23.56
646.456	23.25
646.645	23.16
646.835	23.42
647.024	23.38
647.214	23.3
647.403	23.68
647.593	23.57
647.782	23.71
647.972	24.07
648.161	24.1
648.351	23.87
648.54	23.95
648.73	23.98
648.919	23.62
649.108	23.69
649.298	23.4
649.487	23.2
649.677	23.39
649.866	23.56
650.055	23.48
650.244	23.36
650.434	23.48
650.623	23.53
650.812	23.89
651.002	23.95
651.191	23.78
651.38	24.14
651.569	24.24
651.758	24.17
651.947	24.15
652.137	24.24
652.326	24.39
652.515	24.59
652.704	24.56
652.893	24.22
653.082	24.35
653.271	24.47
653.46	24.21
653.649	24.44
653.838	24.37
654.027	24.25
654.216	24.51
654.405	24.68
654.594	24.38
654.783	24.09
654.972	24.15
655.161	23.98
655.35	24.19
655.539	24.07
655.728	23.82
655.916	23.61
656.105	23.53
656.294	23.01
656.483	23.01
656.672	23.38
656.86	23.87
657.049	23.56
657.238	23.47
657.427	23.41
657.615	23.68
657.804	23.87
657.993	24.06
658.181	24.16
658.37	24.27
658.559	24.32
658.747	24.38
658.936	24.21
659.125	24.39
659.313	24.39
659.502	24.43
659.69	24.32
659.879	24.27
660.067	24.19
660.256	24.33
660.444	24.45
660.633	24.48
660.821	24.18
661.01	24.45
661.198	24.47
661.387	24.47
661.575	24.37
661.763	24.53
661.952	24.38
662.14	24.58
662.328	24.45
662.517	24.39
662.705	24.19
662.893	24.34
663.082	24.14
663.27	24.34
663.458	24.54
663.646	24.8
663.834	24.9
664.023	24.96
664.211	25.24
664.399	25.02
664.587	24.92
664.775	25.22
664.963	25.26
665.152	25.4
665.34	25.28
665.528	25.18
665.716	25.35
665.904	25.17
666.092	25.38
666.28	25.03
666.468	25.25
666.656	25.36
666.844	25.15
667.032	25.33
667.22	25.31
667.408	25.46
667.596	25.8
667.784	25.55
667.971	25.63
668.159	25.47
668.347	25.47
668.535	25.45
668.723	25.13
668.911	25.2
669.098	24.98
669.286	24.98
669.474	24.91
669.662	24.82
669.849	24.92
670.037	25.04
670.225	24.93
670.413	24.89
670.6	24.98
670.788	25.25
670.976	25.33
671.163	25.67
671.351	25.58
671.538	25.51
671.726	25.48
671.913	25.74
672.101	25.76
672.289	26.17
672.476	26.31
672.664	26.09
672.851	26.12
673.039	26.12
673.226	25.85
673.413	26.01
673.601	26.12
673.788	26.2
673.976	26.14
674.163	25.93
674.35	25.77
674.538	25.6
674.725	25.78
674.912	25.76
675.1	25.79
675.287	25.52
675.474	25.84
675.662	25.71
675.849	25.63
676.036	25.31
676.223	25.71
676.411	25.7
676.598	25.81
676.785	25.96
676.972	26.15
677.159	26.15
677.346	26.27
677.533	26.25
677.721	26.44
677.908	26.56
678.095	26.75
678.282	26.78
678.469	26.86
678.656	26.59
678.843	26.3
679.03	25.77
679.217	25.78
679.404	25.94
679.591	25.67
679.778	25.43
679.964	25.18
680.151	25.1
680.338	24.99
680.525	24.97
680.712	25.06
680.899	25.29
681.086	25.71
681.272	25.91
681.459	25.99
681.646	25.79
681.833	25.65
682.02	26.04
682.206	25.88
682.393	25.55
682.58	25.71
682.766	25.95
682.953	26.21
683.14	25.99
683.326	25.45
683.513	25.18
683.7	25.58
683.886	26.11
684.073	25.81
684.259	25.95
684.446	26.18
684.632	25.73
684.819	25.62
685.005	25.82
685.192	26.18
685.378	26.54
685.565	26.86
685.751	26.59
685.938	26.73
686.124	27.01
686.31	27.34
686.497	27.29
686.683	27.46
686.87	27.9
687.056	27.11
687.242	26.84
687.429	27.07
687.615	26.8
687.801	26.76
687.987	26.43
688.174	26.32
688.36	26.09
688.546	26.21
688.732	26.28
688.918	25.97
689.105	26.75
689.291	27.15
689.477	26.81
689.663	27.01
689.849	26.8
690.035	26.84
690.221	26.85
690.407	26.98
690.593	26.87
690.779	26.8
690.965	26.91
691.151	26.35
691.337	26.37
691.523	26.58
691.709	26.83
691.895	27.24
692.081	27.46
692.267	27.54
692.453	27.57
692.639	27.73
692.825	28.09
693.011	27.88
693.196	28.12
693.382	27.67
693.568	27.56
693.754	27.31
693.94	27.45
694.125	27.41
694.311	27.41
694.497	27.12
694.682	27.19
694.868	26.85
695.054	26.96
695.239	26.95
695.425	27.29
695.611	27.18
695.796	26.77
695.982	26.59
696.168	26.42
696.353	26.33
696.539	26.3
696.724	26.35
696.91	26.43
697.095	26.65
697.281	26.66
697.466	26.7
697.652	26.72
697.837	27.04
698.023	27.02
698.208	26.74
698.393	26.79
698.579	27.12
698.764	27.21
698.949	27.07
699.135	26.84
699.32	26.84
699.505	26.63
699.691	26.81
699.876	26.75
700.061	26.7
700.246	26.66
700.432	26.51
700.617	26.02
700.802	25.89
700.987	25.96
701.172	25.96
701.358	25.92
701.543	26.19
701.728	26.23
701.913	26.12
702.098	26.25
702.283	26.73
702.468	26.39
702.653	27.08
702.838	26.78
703.023	27.25
703.208	27.22
703.393	27.08
703.578	27.26
703.763	27.58
703.948	27.9
704.133	28.6
704.318	28.58
704.503	29.42
704.688	29.34
704.873	29.8
705.057	29.88
705.242	30.29
705.427	30.48
705.612	30.34
705.797	30.13
705.981	30.42
706.166	30.3
706.351	30.56
706.536	30.93
706.72	31.35
706.905	31.39
707.09	31.15
707.274	31.06
707.459	31.61
707.644	32
707.828	32.24
708.013	32.15
708.197	31.62
708.382	31.58
708.567	31.21
708.751	30.76
708.936	30.54
709.12	30.66
709.305	30.6
709.489	30.6
709.673	30.1
709.858	29.67
710.042	29.61
710.227	29.65
710.411	29.66
710.596	29.83
710.78	29.93
710.964	29.97
711.149	29.77
711.333	29.89
711.517	29.92
711.702	30.27
711.886	30.34
712.07	30.5
712.254	30.55
712.438	30.62
712.623	30.64
712.807	30.65
712.991	30.65
713.175	30.66
713.359	30.26
713.544	29.76
713.728	29.4
713.912	29.21
714.096	28.46
714.28	28.66
714.464	28.53
714.648	28.36
714.832	28.04
715.016	28.26
715.2	28.11
715.384	28.4
715.568	28.56
715.752	28.47
715.936	28.72
716.12	28.73
716.304	28.72
716.488	28.53
716.671	28.29
716.855	28.2
717.039	27.96
717.223	27.97
717.407	28.3
717.59	28.34
717.774	28.62
717.958	28.29
718.142	28.65
718.325	28.52
718.509	28.74
718.693	29.04
718.877	29.2
719.06	29.4
719.244	29.26
719.428	29.13
719.611	29.34
719.795	29.07
719.978	29.38
720.162	29.88
720.345	29.65
720.529	29.75
720.713	30.01
720.896	30.14
721.08	30.2
721.263	31.2
721.446	30.65
721.63	30.01
721.813	30.13
721.997	29.71
722.18	29.69
722.364	30.58
722.547	30.54
722.73	30.05
722.914	30.76
723.097	30.3
723.28	29.11
723.464	29.29
723.647	28.94
723.83	28.9
724.013	29.26
724.197	28.27
724.38	27.71
724.563	27.5
724.746	27.4
724.929	26.73
725.112	27.25
725.296	27.99
725.479	28.56
725.662	29.16
725.845	29.68
726.028	29.66
726.211	30.2
726.394	30.22
726.577	30.63
726.76	30.73
726.943	31.26
727.126	31.29
727.309	30.36
727.492	29.79
727.675	29.56
727.858	29.56
728.041	28.85
728.224	29.11
728.407	28.61
728.589	28.31
728.772	28.02
728.955	27.31
729.138	27
729.321	27.41
729.503	28.29
729.686	28.12
729.869	27.64
730.052	28.43
730.234	27.78
730.417	28.59
730.6	28.72
730.782	29.5
730.965	29.22
731.148	29.7
731.33	30.44
731.513	30.46
731.695	30.86
731.878	31.06
732.061	30.67
732.243	31.26
732.426	31.11
732.608	30.96
732.791	30.44
732.973	31.1
733.156	30.9
733.338	30.33
733.52	29.94
733.703	30.16
733.885	30.04
734.068	30.55
734.25	30.62
734.432	30.24
734.615	30.83
734.797	31.37
734.979	31.76
735.162	31.8
735.344	32.43
735.526	32.09
735.708	31.75
735.891	31.56
736.073	31.22
736.255	31.5
736.437	31.96
736.619	32.16
736.802	31.63
736.984	31.03
737.166	30.81
737.348	30.71
737.53	30.59
737.712	30.59
737.894	30.9
738.076	30.74
738.258	30.22
738.44	29.55
738.622	28.75
738.804	29.19
738.986	28.99
739.168	29.35
739.35	28.61
739.532	28.73
739.714	29.33
739.896	28.55
740.078	29.72
740.259	30.39
740.441	30.3
740.623	30.18
740.805	29.75
740.987	29.49
741.168	29.54
741.35	29.92
741.532	30.56
741.714	30.17
741.895	31.23
742.077	30.91
742.259	30.61
742.44	31.55
742.622	32.08
742.804	32.77
742.985	33.21
743.167	32.56
743.348	32.96
743.53	32.28
743.711	32.31
743.893	31.98
744.075	31.21
744.256	30.42
744.438	30.04
744.619	30.02
744.8	28.83
744.982	28.57
745.163	28.6
745.345	28.61
745.526	28.11
745.707	28.78
745.889	29.79
746.07	31.25
746.252	31.9
746.433	32.67
746.614	32.7
746.795	33.51
746.977	34.05
747.158	34.54
747.339	34.18
747.52	35.64
747.702	35.19
747.883	34.07
748.064	33.45
748.245	33.39
748.426	33.17
748.607	33.01
748.788	32.99
748.97	32.87
749.151	32.68
749.332	32.5
749.513	31.52
749.694	31.01
749.875	32.4
750.056	32.11
750.237	31.86
750.418	31.9
750.599	32.15
750.78	32.07
750.96	31.58
751.141	30.82
751.322	31.27
751.503	32.29
751.684	33.85
751.865	32.77
752.046	33.05
752.226	32.44
752.407	31.65
752.588	31.93
752.769	32.44
752.949	32.85
753.13	33.99
753.311	34.11
753.492	33.58
753.672	32.62
753.853	33.09
754.034	32.45
754.214	33.57
754.395	33.94
754.575	33.22
754.756	33.1
754.937	33.2
755.117	33.01
755.298	33.13
755.478	33.5
755.659	33.72
755.839	33.96
756.02	33.65
756.2	33.69
756.381	34.52
756.561	35.1
756.741	34.43
756.922	34.58
757.102	34.77
757.283	34.05
757.463	33.56
757.643	33.31
757.823	31.93
758.004	32.01
758.184	31.47
758.364	30.68
758.545	30.32
758.725	30.61
758.905	30.74
759.085	30.12
759.265	29.33
759.446	29.21
759.626	29.21
759.806	29.89
759.986	30.95
760.166	31.62
760.346	32.43
760.526	32.51
760.706	33
760.886	32.62
761.066	32.65
761.246	33.61
761.426	32.67
761.606	33.21
761.786	33.2
761.966	32.78
762.146	32.59
762.326	31.82
762.506	31.82
762.686	31.14
762.866	31.04
763.046	30.88
763.225	30.42
763.405	30.78
763.585	29.52
763.765	29.41
763.945	29.43
764.124	29.31
764.304	29.41
764.484	29.84
764.664	29.97
764.843	30.27
765.023	30.65
765.203	31.33
765.382	31.94
765.562	33.18
765.741	33.26
765.921	33.27
766.101	32.77
766.28	32.92
766.46	31.94
766.639	32.16
766.819	32.31
766.998	31.75
767.178	31.43
767.357	31.81
767.537	31.3
767.716	31.24
767.896	30.49
768.075	30.73
768.254	30.69
768.434	31.71
768.613	31.61
768.792	31.78
768.972	32.49
769.151	32.45
769.33	31.46
769.51	32.22
769.689	33.24
769.868	34.13
770.047	35.93
770.226	35.7
770.406	35.14
770.585	35.68
770.764	35.04
770.943	33.55
771.122	33.75
771.301	33.61
771.48	33.24
771.66	33.34
771.839	32.87
772.018	31.27
772.197	29.96
772.376	29.75
772.555	28.28
772.734	29.09
772.913	30.64
773.092	30.98
773.271	31.07
773.449	31.37
773.628	29.98
773.807	30.47
773.986	30.13
774.165	30.91
774.344	31.89
774.523	33.41
774.701	32.7
774.88	32.69
775.059	31.32
775.238	32.09
775.417	30.83
775.595	31
775.774	30.59
775.953	31.41
776.131	31.79
776.31	31.29
776.489	29.9
776.667	30.04
776.846	29.99
777.025	31.24
777.203	30.35
777.382	30.69
777.56	30.73
777.739	30.86
777.917	31.09
778.096	31.41
778.274	31.32
778.453	32.69
778.631	32.55
778.81	32.79
778.988	33.57
779.166	34.43
779.345	34.19
779.523	34.72
779.702	34.17
779.88	33.8
780.058	33.16
780.237	33.79
780.415	32.46
780.593	32.92
780.771	33.25
780.95	32.29
781.128	31.69
781.306	31.3
781.484	30.15
781.662	31.83
781.841	32.39
782.019	33.68
782.197	33.14
782.375	33.83
782.553	33.06
782.731	32.66
782.909	32.52
783.087	33.21
783.265	34.21
783.443	35.23
783.621	34.95
783.799	33.1
783.977	32.05
784.155	30.62
784.333	30.84
784.511	31.28
784.689	30.35
784.867	31.57
785.045	31.93
785.223	31.5
785.4	32.52
785.578	32.06
785.756	33.61
785.934	34.07
786.112	34.96
786.289	33.5
786.467	33.67
786.645	34.53
786.823	33.74
787	33.14
787.178	34.27
787.356	32.71
787.533	32.97
787.711	33.31
787.889	33.22
788.066	32.99
788.244	34.49
788.421	34.75
788.599	34.04
788.776	33.87
788.954	33.28
789.131	32.81
789.309	33.31
789.486	31.8
789.664	31.12
789.841	31.3
790.019	30.77
790.196	30.87
790.373	30.92
790.551	31.49
790.728	32.15
790.906	31.65
791.083	30.78
791.26	31.26
791.437	33.05
791.615	33.15
791.792	33.69
791.969	35.2
792.146	34.58
792.324	34.99
792.501	36.01
792.678	34.12
792.855	34.75
793.032	33.77
793.209	32.71
793.387	30.92
793.564	30.64
793.741	29.58
793.918	28.17
794.095	28.71
794.272	29.33
794.449	28.64
794.626	30.07
794.803	30.08
794.98	32.85
795.157	32.11
795.334	33.6
795.511	34.09
795.688	35.05
795.864	35.97
796.041	35.85
796.218	34.12
796.395	33.4
796.572	32.57
796.749	33.66
796.925	32.82
797.102	33.04
797.279	33.16
797.456	31.61
797.632	31.51
797.809	30.5
797.986	30.33
798.162	31.05
798.339	31.16
798.516	31.63
798.692	29.8
798.869	29.55
799.046	30.26
799.222	30.76
799.399	31.05
799.575	29.66
799.752	31.49
799.928	30.24
800.105	28.7
800.281	27.83
800.458	27.58
800.634	28.14
800.811	29.21
800.987	29.77
801.163	27.94
801.34	28.98
801.516	29.43
801.692	28.19
801.869	30.79
802.045	31.27
802.221	32.99
802.398	32.35
802.574	33.7
802.75	33.2
802.926	33.55
803.103	34.8
803.279	34.13
803.455	35.03
803.631	34.43
803.807	31.65
803.983	33.76
804.16	34.24
804.336	34.56
804.512	34.5
804.688	34.27
804.864	32.34
805.04	31.45
805.216	31.49
805.392	30.91
805.568	32.38
805.744	33.91
805.92	31.75
806.096	30.4
806.272	30.42
806.448	27.73
806.623	26.65
806.799	28.29
806.975	29.18
807.151	28.93
807.327	30.04
807.503	29.6
807.678	29
807.854	28.86
808.03	29.56
808.206	30.02
808.381	30.32
808.557	31.16
808.733	31.58
808.908	32.09
809.084	32.18
809.26	30.85
809.435	32.27
809.611	32.77
809.787	35.15
809.962	34.38
810.138	34.51
810.313	37.59
810.489	37.3
810.664	36.87
810.84	36.33
811.015	37.32
811.191	39.05
811.366	38.35
811.542	37.95
811.717	36.38
811.892	35.78
812.068	35.76
812.243	35.05
812.419	35.32
812.594	36.07
812.769	36.82
812.944	37.46
813.12	35.71
813.295	35.48
813.47	34.42
813.645	34.15
813.821	35.74
813.996	36.06
814.171	34.37
814.346	32.95
814.521	30.64
814.697	31.01
814.872	28.62
815.047	27.67
815.222	27.58
815.397	28.04
815.572	27.51
815.747	27.51
815.922	27.57
816.097	27.89
816.272	29.4
816.447	31.29
816.622	31.34
816.797	32.05
816.972	32.84
817.147	32.16
817.322	32.95
817.496	32.34
817.671	31.86
817.846	30.76
818.021	30.93
818.196	30.44
818.371	29.5
818.545	28.38
818.72	28.04
818.895	27.71
819.069	27.45
819.244	27.55
819.419	29.1
819.594	28.23
819.768	28.41
819.943	29.53
820.117	29.3
820.292	29.51
820.467	29.31
820.641	30.5
820.816	31.37
820.99	31.3
821.165	31.94
821.339	31.76
821.514	31.92
821.688	32.38
821.863	32.09
822.037	32.37
822.212	32.72
822.386	32.9
822.56	32.85
822.735	32.54
822.909	32.85
823.084	32.47
823.258	32.61
823.432	32.52
823.606	32.45
823.781	32.27
823.955	32.22
824.129	31.8
824.303	31.48
824.478	31.17
824.652	31.24
824.826	31.32
825	31.47
825.174	31.28
825.348	31.95
825.523	31.8
825.697	31.94
825.871	31.94
826.045	32.44
826.219	32.27
826.393	32.77
826.567	33.03
826.741	31.99
826.915	32.44
827.089	32
827.263	32.21
827.437	32.62
827.611	32.74
827.784	32.29
827.958	31.89
828.132	32.48
828.306	32.19
828.48	31.48
828.654	32.32
828.827	31.19
829.001	30.98
829.175	30.73
829.349	29.41
829.522	28.73
829.696	28.9
829.87	29
830.044	29.1
830.217	30.35
830.391	32.1
830.565	31.83
830.738	32.36
830.912	34.58
831.085	34.74
831.259	35.54
831.432	37.57
831.606	38.71
831.779	39
831.953	38.87
832.126	38.2
832.3	36.96
832.473	37.09
832.647	36.78
832.82	35.12
832.994	34.88
833.167	34.52
833.34	34.04
833.514	33.15
833.687	32.94
833.86	32.46
834.034	30.8
834.207	30.57
834.38	30.24
834.553	30.48
834.727	30.11
834.9	29.46
835.073	29.27
835.246	28.35
835.419	27.84
835.593	27.3
835.766	26.71
835.939	26.83
836.112	26.75
836.285	25.3
836.458	25.06
836.631	25.82
836.804	25.73
836.977	25
837.15	24.98
837.323	26.57
837.496	25.55
837.669	27.84
837.842	30.16
838.015	29.35
838.188	30.07
838.361	31.46
838.533	31.93
838.706	30.31
838.879	33.1
839.052	33.97
839.225	33.79
839.398	35.68
839.57	33.7
839.743	32.21
839.916	33.9
840.088	34.64
840.261	33.97
840.434	33.81
840.607	34.31
840.779	32.37
840.952	32.91
841.124	30.2
841.297	31.03
841.47	28.59
841.642	28.93
841.815	30
841.987	29.89
842.16	30.61
842.332	30.79
842.505	30.69
842.677	30.1
842.85	30.54
843.022	32.32
843.194	28.68
843.367	31.81
843.539	31.18
843.712	29.02
843.884	30
844.056	27.51
844.229	27.45
844.401	33.18
844.573	32.62
844.745	31.35
844.918	33.4
845.09	38.75
845.262	39.92
845.434	39.77
845.606	36.76
845.779	35.29
845.951	36.51
846.123	36.26
846.295	32.37
846.467	32.27
846.639	34.27
846.811	28.07
846.983	25.7
847.155	22.56
847.327	22.25
847.499	26.81
847.671	28.79
847.843	29.85
848.015	30.4
848.187	26.62
848.359	29.12
848.531	27.35
848.703	31.44
848.875	34.68
849.047	38.8
849.218	37.49
849.39	36.73
849.562	35.52
849.734	37.49
849.905	40.38
850.077	46.9
850.249	47.29
850.421	43.28
850.592	42.27
850.764	40.18
850.936	38.86
851.107	42.76
851.279	39.48
851.451	36.57
851.622	32.07
851.794	27.41
851.965	27.05
852.137	25.32
852.308	27.99
852.48	26.71
852.651	23.14
852.823	19.8
852.994	14.88
853.166	19.13
853.337	21.83
853.509	20.95
853.68	23.44
853.851	24.39
854.023	19.47
854.194	19.01
854.365	28.82
854.537	27.98
854.708	33.36
854.879	32.25
855.05	30.41
855.222	28.51
855.393	30.7
855.564	33.28
855.735	30.1
855.906	31.87
856.078	31.24
856.249	30.79
856.42	30.1
856.591	30.47
856.762	32.72
856.933	31.41
857.104	34.49
857.275	36.68
857.446	30.68
857.617	29.46
857.788	33.37
857.959	29.86
858.13	31.15
858.301	32.86
858.472	34.13
858.643	27.43
858.814	29.82
858.985	29.93
859.155	31.03
859.326	33.69
859.497	33.42
859.668	31.38
859.839	31.71
860.009	29.46
860.18	30.04
860.351	25.83
860.522	27.14
860.692	29.42
860.863	29.13
861.034	29.51
861.204	27.24
861.375	28.57
861.546	25.59
861.716	23.72
861.887	22.12
862.057	16.2
862.228	11.86
862.398	14.49
862.569	9.23
862.739	7.7
862.91	3.13
863.08	9.79
863.251	10.64
863.421	18.46
863.592	24.03
863.762	21.63
863.932	24.7
864.103	30.76
864.273	33.67
864.443	30.34
864.614	33.37
864.784	32.89
864.954	25.49
865.125	25.18
865.295	20.75
865.465	16.54
865.635	23.95
865.805	21.19
865.976	17.01
866.146	19.58
866.316	22.96
866.486	19.32
866.656	21.05
866.826	25.17
866.996	24.98
867.166	32.06
867.336	33.36
867.506	29.98
867.676	30.68
867.846	31.08
868.016	27.32
868.186	26.88
868.356	28.3
868.526	30.99
868.696	32.2
868.866	31.43
869.036	26.66
869.206	26.75
869.376	26.26
869.545	26.15
869.715	26.9
869.885	31.87
870.055	34.09
870.224	29.16
870.394	27.73
870.564	25.94
870.734	26.56
870.903	24.37
871.073	22.71
871.243	21.79
871.412	22.05
871.582	19.93
871.751	11.53
871.921	1.07
872.091	7.88
872.26	4.62
872.43	4.19
872.599	1.61
872.769	4.45
872.938	14.87
873.108	14.54
873.277	18.5
873.446	23.84
873.616	28.01
873.785	32.34
873.955	32.93
874.124	32.83
874.293	32.84
874.463	35
874.632	34.3
874.801	29.36
874.971	27.62
875.14	27.48
875.309	23.97
875.478	23.6
875.647	21.69
875.817	24.65
875.986	24.46
876.155	21.34
876.324	21.65
876.493	20.24
876.662	18.47
876.831	16.75
877	19.68
877.17	18.16
877.339	20.03
877.508	22.2
877.677	17.61
877.846	20.07
878.015	23.17
878.184	20.62
878.352	18.59
878.521	21.18
878.69	23.61
878.859	21.99
879.028	22.68
879.197	23.01
879.366	22.64
879.534	23.84
879.703	19.56
879.872	19.43
880.041	20.22
880.21	20.06
880.378	21.28
880.547	21.45
880.716	23.13
880.884	25.63
881.053	25.29
881.222	27.75
881.39	27.11
881.559	29.19
881.727	28.07
881.896	28.73
882.065	30.81
882.233	30.72
882.402	29.74
882.57	29.15
882.739	28.47
882.907	28.14
883.076	27.57
883.244	27.58
883.412	26.78
883.581	27.76
883.749	27.16
883.918	25.3
884.086	23.2
884.254	24.85
884.423	25.77
884.591	24.97
884.759	25.96
884.927	24.77
885.096	25.52
885.264	25.21
885.432	24.66
885.6	24.71
885.769	24.77
885.937	27.27
886.105	26.9
886.273	25.07
886.441	24.33
886.609	22.32
886.777	23.8
886.945	20
887.113	22.05
887.281	18.91
887.449	18.54
887.617	18.03
887.785	19.1
887.953	18.9
888.121	13.49
888.289	13.51
888.457	5.03
888.625	-2.92
888.793	-2.89
888.961	-6.99
889.129	-0.18
889.296	0.68
889.464	-2.97
889.632	-6.9
889.8	-14.18
889.967	-10.01
890.135	-6.12
