Data from 2938822__Reflection_02.txt Node
Date: Thu Mar 12 14:22:14 EDT 2015
User: robert
Spectrometer: USB4E03002
Autoset integration time: false
Trigger mode: 4
Integration Time (sec): 1.000000E-1
Scans to average: 10
Electric dark correction enabled: false
Nonlinearity correction enabled: false
Boxcar width: 5
Stray light correction enabled: false
XAxis mode: Wavelengths
Stop averaging: false
Number of Pixels in Spectrum: 3648
>>>>>Begin Spectral Data<<<<<
177.575	69.34
177.794	44.97
178.014	47.29
178.233	35.4
178.452	31.06
178.672	25.52
178.891	31.32
179.11	26.96
179.33	41.18
179.549	51.11
179.768	14.4
179.987	16.61
180.207	6.52
180.426	-17.13
180.645	-29.32
180.864	-56.31
181.084	-287.8
181.303	157.26
181.522	2281.82
181.741	-931.58
181.96	-266.67
182.179	-643.48
182.398	-1548
182.618	-834.37
182.837	765
183.056	262.61
183.275	180.9
183.494	167.24
183.713	159.17
183.932	70.54
184.151	104.74
184.37	100.9
184.589	89.46
184.808	68.92
185.027	85.43
185.246	118.18
185.465	189.42
185.684	115.61
185.903	106.99
186.122	102.27
186.341	181.94
186.56	111.48
186.779	105.57
186.998	108.66
187.216	137.28
187.435	143.54
187.654	101.64
187.873	68.97
188.092	86.21
188.311	78.55
188.53	113.45
188.748	53.94
188.967	81.07
189.186	47.49
189.405	26.21
189.623	-38.49
189.842	-89.43
190.061	-113.59
190.28	-81.52
190.498	-17.59
190.717	-8.12
190.936	-119.63
191.154	-95.2
191.373	-21.43
191.592	-13.18
191.81	-2.36
192.029	3.21
192.248	27.53
192.466	53.15
192.685	47.76
192.904	20.35
193.122	28.24
193.341	6.98
193.559	38.63
193.778	69.89
193.996	64.6
194.215	-3.45
194.433	-282.35
194.652	81.22
194.87	77.01
195.089	51.66
195.307	90.83
195.526	57.76
195.744	232.33
195.963	147.52
196.181	89.34
196.399	108.44
196.618	153.21
196.836	430.91
197.055	-62.22
197.273	389.58
197.491	681.03
197.71	1296.67
197.928	882.93
198.146	336.07
198.365	192.57
198.583	174
198.801	122.56
199.019	144.19
199.238	131.58
199.456	107.36
199.674	153.82
199.892	118.13
200.111	98.22
200.329	138.12
200.547	144.78
200.765	-1450
200.983	552.63
201.202	-994.44
201.42	1478.57
201.638	221.7
201.856	725
202.074	-106.67
202.292	38.24
202.51	220.41
202.728	90.32
202.946	163.89
203.165	121.96
203.383	57.09
203.601	95.29
203.819	56.56
204.037	44.95
204.255	41.64
204.473	102.89
204.691	332.63
204.909	179.43
205.127	282
205.345	214.58
205.562	-1312.5
205.78	188.28
205.998	80.95
206.216	53
206.434	77.49
206.652	76.84
206.87	78.05
207.088	67.85
207.306	46.08
207.523	43.48
207.741	32.62
207.959	49.49
208.177	44.39
208.395	38.24
208.612	66.53
208.83	63.45
209.048	97.77
209.266	60.43
209.483	63.99
209.701	94.13
209.919	101.36
210.136	102.23
210.354	87.03
210.572	79.94
210.79	74.23
211.007	69.09
211.225	62.44
211.442	46.4
211.66	49.14
211.878	47.15
212.095	49.21
212.313	35.17
212.53	35.53
212.748	41.55
212.966	38.34
213.183	34.59
213.401	26.49
213.618	25.34
213.836	37.03
214.053	52.05
214.271	47.78
214.488	54.65
214.705	56.2
214.923	53.15
215.14	63.47
215.358	65.27
215.575	71.75
215.793	79.1
216.01	95.52
216.227	95.93
216.445	75.73
216.662	65.26
216.879	49.32
217.097	32.98
217.314	55.51
217.531	32.87
217.749	40.38
217.966	39.1
218.183	42.24
218.4	26.2
218.618	25.41
218.835	8.19
219.052	2.16
219.269	5.75
219.487	15.13
219.704	18.4
219.921	26.2
220.138	27.36
220.355	32.63
220.572	34.87
220.79	29.29
221.007	24.67
221.224	31.47
221.441	33.13
221.658	29.2
221.875	18.23
222.092	15.53
222.309	14.69
222.526	10.02
222.743	6.4
222.96	-2.15
223.177	3.43
223.394	0.81
223.611	-1.31
223.828	-8.82
224.045	-2.01
224.262	11.3
224.479	8.93
224.696	8.31
224.913	13.26
225.13	14.07
225.347	16.98
225.564	11.61
225.781	13.46
225.997	18.22
226.214	21.66
226.431	18.86
226.648	15.54
226.865	14.68
227.082	11.71
227.298	8.66
227.515	8.15
227.732	9.14
227.949	10.12
228.165	9.81
228.382	7.99
228.599	7.23
228.816	7.53
229.032	7.17
229.249	6.61
229.466	7.07
229.682	7.81
229.899	7.29
230.116	6.85
230.332	5.76
230.549	6.79
230.765	6.07
230.982	5.71
231.199	5.19
231.415	4.5
231.632	5.2
231.848	4.81
232.065	5.34
232.281	6.34
232.498	6.03
232.714	6.75
232.931	5.27
233.147	6.83
233.364	6.04
233.58	7.32
233.797	7.83
234.013	8.82
234.23	9.72
234.446	8.31
234.662	7.85
234.879	8.73
235.095	8.98
235.312	8.36
235.528	8
235.744	8.54
235.961	9.79
236.177	10.48
236.393	8.35
236.61	8.79
236.826	10.01
237.042	8.64
237.258	8.99
237.475	9.7
237.691	10.67
237.907	11.02
238.123	12.6
238.339	9.57
238.556	9.5
238.772	10.61
238.988	8.61
239.204	8.51
239.42	8.58
239.636	7.67
239.853	7.06
240.069	6.22
240.285	6.36
240.501	4.77
240.717	5.51
240.933	5.32
241.149	5.68
241.365	6.08
241.581	5.66
241.797	6.68
242.013	6.42
242.229	6.1
242.445	6.69
242.661	6.57
242.877	6.7
243.093	5.92
243.309	6.54
243.525	6.21
243.741	5.97
243.957	6.95
244.173	6.21
244.388	6.44
244.604	6.88
244.82	6.7
245.036	6.34
245.252	7.58
245.468	8.29
245.683	7.61
245.899	7.12
246.115	7.27
246.331	6.93
246.547	6.83
246.762	6.89
246.978	6.87
247.194	6.84
247.409	7.07
247.625	6.78
247.841	6.94
248.057	7.19
248.272	7.32
248.488	7.45
248.703	7.03
248.919	7.05
249.135	6.88
249.35	6.76
249.566	6.58
249.782	6.1
249.997	5.92
250.213	5.41
250.428	4.77
250.644	4.77
250.859	4.54
251.075	4.39
251.29	5.17
251.506	5.15
251.721	5.2
251.937	5.94
252.152	6.48
252.368	6.55
252.583	5.91
252.798	6.11
253.014	6.04
253.229	6.26
253.445	7.17
253.66	6.82
253.875	6.73
254.091	6.85
254.306	5.71
254.521	5.37
254.737	5.61
254.952	6.01
255.167	5.98
255.383	5.93
255.598	5.87
255.813	5.38
256.028	5.4
256.244	5.9
256.459	5.46
256.674	5.5
256.889	6.34
257.104	5.83
257.32	6.07
257.535	5.11
257.75	5.75
257.965	5.51
258.18	5.38
258.395	5.06
258.61	5.08
258.826	4.99
259.041	4.77
259.256	4.65
259.471	4.69
259.686	4.9
259.901	5.17
260.116	4.92
260.331	4.97
260.546	4.99
260.761	5.03
260.976	5.05
261.191	5.37
261.406	5.68
261.621	5.63
261.836	5.33
262.05	4.8
262.265	5.16
262.48	5.26
262.695	5.35
262.91	5.58
263.125	5.83
263.34	5.32
263.555	4.95
263.769	5.06
263.984	4.51
264.199	5.07
264.414	5.5
264.629	4.89
264.843	4.45
265.058	4.03
265.273	3.97
265.488	3.78
265.702	3.89
265.917	3.59
266.132	4.05
266.346	4.6
266.561	4.74
266.776	4.98
266.99	4.98
267.205	4.9
267.42	5.28
267.634	5.63
267.849	5.47
268.063	5.98
268.278	6.56
268.492	6.22
268.707	6.21
268.922	6.12
269.136	5.78
269.351	5.74
269.565	6.22
269.78	5.99
269.994	5.79
270.209	5.67
270.423	5.33
270.637	5.27
270.852	5.15
271.066	5.04
271.281	4.69
271.495	4.65
271.709	4.78
271.924	4.73
272.138	4.59
272.353	4.31
272.567	4.66
272.781	4.79
272.996	4.8
273.21	4.72
273.424	4.73
273.638	5.24
273.853	4.95
274.067	4.47
274.281	4.43
274.495	4.7
274.71	5.02
274.924	4.94
275.138	4.35
275.352	4.22
275.566	4.35
275.781	4.4
275.995	4.02
276.209	4.39
276.423	4.76
276.637	4.9
276.851	4.83
277.065	4.87
277.279	4.92
277.493	5.37
277.707	5.42
277.921	5.13
278.135	5.05
278.349	5.18
278.563	5.05
278.777	5.24
278.991	5.11
279.205	5.25
279.419	5.14
279.633	4.94
279.847	5.1
280.061	4.69
280.275	4.62
280.489	4.72
280.703	4.64
280.917	4.77
281.131	4.58
281.344	4.6
281.558	4.51
281.772	4.39
281.986	4.26
282.2	3.74
282.414	4.04
282.627	4.12
282.841	4.15
283.055	4.28
283.269	4.5
283.482	4.41
283.696	4.51
283.91	4.37
284.123	4.41
284.337	4.48
284.551	4.48
284.764	4.32
284.978	4.57
285.192	4.53
285.405	4.36
285.619	4.1
285.833	4.18
286.046	3.73
286.26	4.03
286.473	3.83
286.687	3.83
286.9	4.29
287.114	4.34
287.327	4.14
287.541	3.85
287.754	4.16
287.968	4.26
288.181	4.25
288.395	4.63
288.608	4.35
288.822	4.53
289.035	4.66
289.248	4.67
289.462	4.91
289.675	4.79
289.889	4.66
290.102	4.14
290.315	4.13
290.529	4.15
290.742	4.17
290.955	3.92
291.169	4
291.382	4.01
291.595	3.98
291.808	3.5
292.022	3.99
292.235	4.48
292.448	4.96
292.661	5.02
292.875	4.94
293.088	5.05
293.301	5.42
293.514	6.02
293.727	6.54
293.94	6.47
294.153	7
294.367	6.97
294.58	7.07
294.793	7.21
295.006	7.48
295.219	7.42
295.432	7.56
295.645	7.46
295.858	7.34
296.071	6.88
296.284	7.16
296.497	6.96
296.71	6.66
296.923	6.84
297.136	6.67
297.349	6.77
297.562	7.03
297.775	7.03
297.988	7.14
298.201	6.74
298.414	7.06
298.626	6.94
298.839	7.08
299.052	7.46
299.265	6.97
299.478	6.98
299.691	6.87
299.903	7.1
300.116	7.25
300.329	7.52
300.542	7.87
300.755	7.98
300.967	8
301.18	8.13
301.393	8.23
301.605	8.41
301.818	8.74
302.031	8.66
302.243	8.6
302.456	8.24
302.669	8.14
302.881	8.19
303.094	8.29
303.307	8.1
303.519	8.13
303.732	7.91
303.944	8.17
304.157	8.16
304.37	8.16
304.582	8.16
304.795	8.29
305.007	8.41
305.22	8.57
305.432	8.29
305.645	8.72
305.857	8.78
306.069	9.14
306.282	9.29
306.494	9.47
306.707	9.51
306.919	9.79
307.132	10.12
307.344	10.31
307.556	10.12
307.769	10.01
307.981	10.31
308.193	10.36
308.406	10.24
308.618	10.33
308.83	10.22
309.043	10.5
309.255	10.12
309.467	10.21
309.679	9.95
309.892	9.93
310.104	10.16
310.316	10.12
310.528	10.39
310.74	10.63
310.953	10.56
311.165	10.56
311.377	10.39
311.589	10.45
311.801	10.47
312.013	10.52
312.225	10.69
312.437	10.59
312.649	10.26
312.862	9.86
313.074	9.65
313.286	9.45
313.498	9.69
313.71	9.84
313.922	10.21
314.134	10.01
314.346	9.94
314.558	10.02
314.77	10.06
314.982	10.4
315.193	10.92
315.405	10.73
315.617	10.74
315.829	10.28
316.041	10.19
316.253	10.5
316.465	10.27
316.677	10.59
316.888	10.56
317.1	10.8
317.312	10.54
317.524	9.9
317.736	10.59
317.947	11.12
318.159	11.59
318.371	12.11
318.583	11.86
318.794	12.38
319.006	11.98
319.218	11.96
319.43	11.77
319.641	11.93
319.853	12.2
320.064	11.36
320.276	10.96
320.488	10.86
320.699	10.6
320.911	10.42
321.123	10.47
321.334	10.5
321.546	10.45
321.757	10.48
321.969	10.23
322.18	10.26
322.392	10.23
322.603	10.42
322.815	10.48
323.026	10.43
323.238	10.34
323.449	10.36
323.661	10.78
323.872	10.59
324.083	10.71
324.295	10.64
324.506	10.62
324.718	11.21
324.929	11.14
325.14	11.28
325.352	11.18
325.563	11.06
325.774	10.82
325.986	10.79
326.197	11.03
326.408	11.08
326.62	11.12
326.831	11.02
327.042	10.87
327.253	10.93
327.464	10.97
327.676	10.83
327.887	10.75
328.098	10.6
328.309	10.51
328.52	10.79
328.732	10.57
328.943	10.8
329.154	11.29
329.365	11.25
329.576	11.04
329.787	10.73
329.998	10.79
330.209	11.23
330.42	11.4
330.631	11.78
330.842	11.44
331.053	11.4
331.264	11.18
331.475	10.83
331.686	10.73
331.897	10.71
332.108	11
332.319	11.27
332.53	10.86
332.741	10.91
332.952	10.55
333.163	10.65
333.374	10.88
333.585	10.91
333.795	11.22
334.006	11.38
334.217	11.17
334.428	11.01
334.639	10.79
334.849	10.69
335.06	10.65
335.271	10.76
335.482	10.4
335.692	10.44
335.903	10.64
336.114	10.13
336.325	10.05
336.535	10.31
336.746	10.41
336.957	10.36
337.167	10.34
337.378	10.13
337.589	9.94
337.799	9.99
338.01	9.75
338.22	9.78
338.431	10.25
338.642	10.09
338.852	10.09
339.063	9.74
339.273	9.59
339.484	9.76
339.694	9.91
339.905	9.85
340.115	9.79
340.326	10.02
340.536	9.74
340.746	9.33
340.957	9.21
341.167	9.25
341.378	9.41
341.588	9.68
341.799	9.66
342.009	9.76
342.219	9.99
342.43	10.08
342.64	9.96
342.85	9.88
343.061	9.96
343.271	10.11
343.481	10.07
343.691	9.92
343.902	10.15
344.112	10.09
344.322	10.2
344.532	9.99
344.743	10.25
344.953	10.13
345.163	10.14
345.373	9.91
345.583	9.76
345.793	10.09
346.004	10.25
346.214	9.89
346.424	9.82
346.634	9.66
346.844	9.78
347.054	9.59
347.264	9.53
347.474	9.61
347.684	9.84
347.894	9.8
348.104	8.97
348.314	8.94
348.524	9.08
348.734	9.4
348.944	9.42
349.154	9.55
349.364	9.53
349.574	9.41
349.784	9.52
349.994	9.52
350.204	9.5
350.413	9.86
350.623	9.74
350.833	9.55
351.043	9.29
351.253	9.2
351.463	9.22
351.672	9.03
351.882	9.05
352.092	8.94
352.302	8.97
352.511	8.89
352.721	9.04
352.931	8.84
353.141	8.78
353.35	8.68
353.56	8.93
353.77	8.65
353.979	8.62
354.189	8.76
354.399	8.69
354.608	8.42
354.818	8.48
355.027	8.37
355.237	8.51
355.447	8.72
355.656	8.6
355.866	8.25
356.075	7.98
356.285	8.35
356.494	8.18
356.704	8.09
356.913	8.45
357.123	8.56
357.332	8.6
357.542	8.63
357.751	8.53
357.96	8.58
358.17	8.64
358.379	8.78
358.589	8.64
358.798	8.55
359.007	8.67
359.217	8.46
359.426	8.46
359.635	8.26
359.845	8.16
360.054	8.16
360.263	8.16
360.472	8.12
360.682	8
360.891	7.96
361.1	8.13
361.309	7.95
361.519	7.95
361.728	7.97
361.937	8.15
362.146	8.14
362.355	8.17
362.564	8.14
362.774	8.25
362.983	8.44
363.192	8.28
363.401	8.11
363.61	8.33
363.819	8.25
364.028	8.23
364.237	8.09
364.446	8.07
364.655	7.77
364.864	7.98
365.073	7.87
365.282	7.89
365.491	7.93
365.7	8.14
365.909	8.16
366.118	8.22
366.327	8.07
366.536	7.95
366.745	7.93
366.954	8.29
367.162	8.08
367.371	8.08
367.58	8.07
367.789	8.03
367.998	7.77
368.207	7.56
368.415	7.36
368.624	7.56
368.833	7.68
369.042	7.49
369.25	7.25
369.459	7.08
369.668	6.71
369.877	6.82
370.085	6.76
370.294	6.97
370.503	6.9
370.711	7.09
370.92	6.66
371.129	6.83
371.337	6.9
371.546	6.87
371.754	7.24
371.963	7.44
372.171	6.94
372.38	6.86
372.589	6.74
372.797	6.71
373.006	6.52
373.214	6.88
373.423	6.62
373.631	6.97
373.84	6.88
374.048	6.66
374.256	6.59
374.465	6.69
374.673	7.03
374.882	7
375.09	6.77
375.298	6.79
375.507	6.75
375.715	6.74
375.923	6.33
376.132	6.29
376.34	6.19
376.548	6.34
376.757	6.41
376.965	5.99
377.173	5.95
377.381	6.24
377.59	6.03
377.798	6.01
378.006	5.97
378.214	6.19
378.423	6.31
378.631	6.3
378.839	6
379.047	6
379.255	6.23
379.463	6.31
379.671	5.98
379.879	6.12
380.088	6.05
380.296	6.03
380.504	6.03
380.712	6.08
380.92	6.04
381.128	6.47
381.336	6.31
381.544	6.19
381.752	5.93
381.96	5.92
382.168	5.84
382.376	5.7
382.584	5.53
382.791	5.25
382.999	5.13
383.207	5.15
383.415	4.98
383.623	4.85
383.831	4.83
384.039	4.81
384.247	5.06
384.454	5.03
384.662	5.06
384.87	5.11
385.078	5.03
385.285	4.75
385.493	4.65
385.701	4.52
385.909	4.48
386.116	4.56
386.324	4.74
386.532	4.49
386.739	4.57
386.947	4.54
387.155	4.43
387.362	4.53
387.57	4.65
387.778	4.57
387.985	4.6
388.193	4.8
388.4	4.8
388.608	4.84
388.816	5.01
389.023	4.89
389.231	4.68
389.438	4.76
389.646	4.68
389.853	4.74
390.061	4.73
390.268	4.6
390.475	4.53
390.683	4.44
390.89	4.23
391.098	4.1
391.305	3.91
391.512	4.06
391.72	4.14
391.927	4.19
392.135	4.07
392.342	4.15
392.549	4.13
392.756	4.08
392.964	4.11
393.171	4.19
393.378	4.24
393.586	4.47
393.793	4.38
394	4.4
394.207	4.29
394.414	4.17
394.622	4.25
394.829	4.3
395.036	4.11
395.243	4.18
395.45	4.09
395.657	4.01
395.864	3.96
396.072	3.98
396.279	3.75
396.486	3.79
396.693	3.92
396.9	3.66
397.107	3.65
397.314	3.77
397.521	3.7
397.728	3.91
397.935	4.01
398.142	4.08
398.349	4.16
398.556	4.35
398.763	4.3
398.97	4.38
399.177	4.48
399.383	4.5
399.59	4.53
399.797	4.46
400.004	4.21
400.211	4.06
400.418	3.93
400.625	3.73
400.831	3.59
401.038	3.62
401.245	3.54
401.452	3.58
401.658	3.52
401.865	3.55
402.072	3.58
402.279	3.55
402.485	3.6
402.692	3.62
402.899	3.75
403.105	3.74
403.312	3.89
403.519	3.85
403.725	3.76
403.932	3.73
404.138	3.76
404.345	3.56
404.552	3.51
404.758	3.56
404.965	3.5
405.171	3.47
405.378	3.58
405.584	3.49
405.791	3.51
405.997	3.49
406.204	3.48
406.41	3.42
406.617	3.56
406.823	3.56
407.029	3.61
407.236	3.71
407.442	3.61
407.649	3.57
407.855	3.51
408.061	3.52
408.268	3.48
408.474	3.42
408.68	3.38
408.887	3.28
409.093	3.3
409.299	3.23
409.505	3.17
409.712	3.25
409.918	3.05
410.124	3.14
410.33	3.31
410.537	3.41
410.743	3.38
410.949	3.44
411.155	3.67
411.361	3.72
411.567	3.6
411.773	3.46
411.98	3.36
412.186	3.51
412.392	3.38
412.598	3.18
412.804	3.26
413.01	3.29
413.216	3.29
413.422	3.02
413.628	3.08
413.834	3.26
414.04	3.3
414.246	3.44
414.452	3.42
414.658	3.36
414.864	3.35
415.07	3.38
415.275	3.39
415.481	3.5
415.687	3.54
415.893	3.47
416.099	3.34
416.305	3.42
416.511	3.26
416.716	3.17
416.922	3.22
417.128	3.21
417.334	3.07
417.539	3.07
417.745	2.99
417.951	3
418.157	3.01
418.362	2.98
418.568	2.97
418.774	3.01
418.979	3.02
419.185	2.94
419.391	2.91
419.596	2.99
419.802	3.09
420.008	3.01
420.213	2.38
420.419	2.45
420.624	2.46
420.83	2.43
421.035	2.45
421.241	2.52
421.446	2.61
421.652	2.6
421.857	2.59
422.063	2.56
422.268	2.66
422.474	3.28
422.679	3.27
422.885	3.32
423.09	3.3
423.295	3.17
423.501	3.1
423.706	3.04
423.911	3.06
424.117	2.91
424.322	2.83
424.527	2.8
424.733	2.75
424.938	2.67
425.143	2.59
425.349	2.64
425.554	2.76
425.759	2.79
425.964	2.83
426.169	2.74
426.375	2.85
426.58	2.9
426.785	2.9
426.99	2.93
427.195	2.97
427.4	3.05
427.605	3.02
427.811	3.02
428.016	3.02
428.221	3.1
428.426	3.23
428.631	3.2
428.836	3.2
429.041	3.2
429.246	3.08
429.451	3.01
429.656	2.94
429.861	2.96
430.066	3
430.271	2.95
430.476	2.82
430.681	2.66
430.886	2.71
431.09	2.66
431.295	2.54
431.5	2.58
431.705	2.69
431.91	2.52
432.115	2.54
432.32	2.42
432.524	2.39
432.729	2.47
432.934	2.51
433.139	2.41
433.343	2.45
433.548	2.51
433.753	2.57
433.958	2.46
434.162	2.69
434.367	2.65
434.572	2.74
434.776	2.88
434.981	2.79
435.186	2.87
435.39	2.93
435.595	2.94
435.799	2.92
436.004	2.83
436.209	2.89
436.413	2.87
436.618	2.88
436.822	2.81
437.027	2.71
437.231	2.77
437.436	2.75
437.64	2.75
437.845	2.7
438.049	2.73
438.253	2.74
438.458	2.75
438.662	2.7
438.867	2.66
439.071	2.75
439.275	2.75
439.48	2.64
439.684	2.61
439.888	2.66
440.093	2.64
440.297	2.63
440.501	2.6
440.706	2.58
440.91	2.52
441.114	2.54
441.318	2.49
441.523	2.49
441.727	2.6
441.931	2.65
442.135	2.66
442.339	2.61
442.543	2.57
442.748	2.73
442.952	2.7
443.156	2.85
443.36	2.83
443.564	2.85
443.768	2.79
443.972	2.73
444.176	2.8
444.38	2.75
444.584	2.78
444.788	2.87
444.992	2.85
445.196	2.88
445.4	2.85
445.604	2.85
445.808	2.84
446.012	2.88
446.216	2.87
446.42	2.8
446.624	2.73
446.828	2.78
447.032	2.76
447.235	2.71
447.439	2.61
447.643	2.58
447.847	2.54
448.051	2.54
448.254	2.53
448.458	2.54
448.662	2.6
448.866	2.59
449.069	2.53
449.273	2.52
449.477	2.47
449.681	2.59
449.884	2.54
450.088	2.52
450.292	2.44
450.495	2.27
450.699	2.23
450.902	2.09
451.106	2.12
451.31	2.1
451.513	2.12
451.717	2.13
451.92	2.09
452.124	2.12
452.327	2.17
452.531	2.3
452.734	2.37
452.938	2.38
453.141	2.37
453.345	2.36
453.548	2.46
453.752	2.51
453.955	2.54
454.158	2.47
454.362	2.6
454.565	2.57
454.769	2.52
454.972	2.56
455.175	2.71
455.379	2.78
455.582	2.79
455.785	2.7
455.988	2.63
456.192	2.62
456.395	2.65
456.598	2.59
456.801	2.7
457.005	2.63
457.208	2.57
457.411	2.51
457.614	2.35
457.817	2.36
458.021	2.46
458.224	2.52
458.427	2.56
458.63	2.6
458.833	2.57
459.036	2.5
459.239	2.58
459.442	2.65
459.645	2.65
459.848	2.72
460.051	2.76
460.254	2.68
460.457	2.59
460.66	2.49
460.863	2.52
461.066	2.55
461.269	2.56
461.472	2.58
461.675	2.56
461.878	2.5
462.081	2.57
462.284	2.66
462.486	2.67
462.689	2.65
462.892	2.69
463.095	2.7
463.298	2.65
463.5	2.69
463.703	2.61
463.906	2.65
464.109	2.68
464.311	2.68
464.514	2.57
464.717	2.55
464.92	2.58
465.122	2.76
465.325	2.81
465.528	2.86
465.73	2.8
465.933	2.7
466.135	2.6
466.338	2.59
466.541	2.59
466.743	2.55
466.946	2.52
467.148	2.59
467.351	2.52
467.553	2.49
467.756	2.47
467.958	2.5
468.161	2.59
468.363	2.67
468.566	2.63
468.768	2.54
468.971	2.51
469.173	2.52
469.375	2.46
469.578	2.42
469.78	2.41
469.983	2.41
470.185	2.45
470.387	2.51
470.59	2.45
470.792	2.37
470.994	2.41
471.196	2.51
471.399	2.58
471.601	2.66
471.803	2.69
472.005	2.7
472.208	2.64
472.41	2.62
472.612	2.56
472.814	2.55
473.016	2.56
473.218	2.43
473.421	2.44
473.623	2.46
473.825	2.41
474.027	2.36
474.229	2.19
474.431	2.21
474.633	2.2
474.835	2.2
475.037	2.25
475.239	2.36
475.441	2.37
475.643	2.31
475.845	2.29
476.047	2.28
476.249	2.24
476.451	2.34
476.653	2.32
476.855	2.37
477.057	2.28
477.258	2.25
477.46	2.27
477.662	2.34
477.864	2.38
478.066	2.33
478.268	2.27
478.469	2.28
478.671	2.27
478.873	2.35
479.075	2.32
479.276	2.26
479.478	2.26
479.68	2.26
479.882	2.36
480.083	2.36
480.285	2.38
480.487	2.45
480.688	2.51
480.89	2.51
481.091	2.42
481.293	2.43
481.495	2.49
481.696	2.57
481.898	2.51
482.099	2.42
482.301	2.35
482.502	2.33
482.704	2.31
482.905	2.29
483.107	2.28
483.308	2.29
483.51	2.29
483.711	2.28
483.913	2.25
484.114	2.26
484.315	2.28
484.517	2.3
484.718	2.31
484.92	2.31
485.121	2.3
485.322	2.29
485.524	2.31
485.725	2.35
485.926	2.37
486.127	2.37
486.329	2.37
486.53	2.36
486.731	2.38
486.932	2.4
487.134	2.41
487.335	2.42
487.536	2.45
487.737	2.42
487.938	2.39
488.139	2.39
488.341	2.44
488.542	2.47
488.743	2.42
488.944	2.4
489.145	2.38
489.346	2.39
489.547	2.4
489.748	2.36
489.949	2.38
490.15	2.38
490.351	2.38
490.552	2.34
490.753	2.3
490.954	2.33
491.155	2.33
491.356	2.33
491.557	2.29
491.758	2.3
491.959	2.31
492.159	2.32
492.36	2.34
492.561	2.26
492.762	2.27
492.963	2.29
493.164	2.32
493.364	2.38
493.565	2.4
493.766	2.46
493.967	2.41
494.167	2.47
494.368	2.45
494.569	2.48
494.769	2.56
494.97	2.6
495.171	2.65
495.371	2.64
495.572	2.6
495.773	2.58
495.973	2.52
496.174	2.64
496.375	2.67
496.575	2.69
496.776	2.66
496.976	2.62
497.177	2.56
497.377	2.57
497.578	2.6
497.778	2.65
497.979	2.72
498.179	2.75
498.38	2.75
498.58	2.75
498.78	2.77
498.981	2.76
499.181	2.89
499.382	2.91
499.582	2.89
499.782	2.93
499.983	2.92
500.183	2.9
500.383	2.88
500.584	2.74
500.784	2.63
500.984	2.64
501.184	2.71
501.385	2.65
501.585	2.65
501.785	2.62
501.985	2.62
502.185	2.66
502.386	2.73
502.586	2.8
502.786	2.89
502.986	2.98
503.186	3.03
503.386	2.94
503.586	2.98
503.786	3.04
503.987	3
504.187	3.01
504.387	2.96
504.587	2.92
504.787	3
504.987	3.09
505.187	3.13
505.387	3.12
505.587	3.21
505.786	3.21
505.986	3.21
506.186	3.35
506.386	3.39
506.586	3.49
506.786	3.44
506.986	3.46
507.186	3.43
507.386	3.44
507.585	3.5
507.785	3.53
507.985	3.54
508.185	3.6
508.384	3.54
508.584	3.59
508.784	3.55
508.984	3.59
509.183	3.57
509.383	3.57
509.583	3.65
509.782	3.66
509.982	3.69
510.182	3.74
510.381	3.72
510.581	3.8
510.781	3.81
510.98	3.86
511.18	3.93
511.379	3.99
511.579	4.04
511.778	4.07
511.978	4.17
512.177	4.3
512.377	4.37
512.576	4.44
512.776	4.47
512.975	4.44
513.175	4.47
513.374	4.51
513.573	4.55
513.773	4.56
513.972	4.61
514.172	4.56
514.371	4.52
514.57	4.55
514.77	4.6
514.969	4.68
515.168	4.86
515.367	4.91
515.567	4.96
515.766	5.02
515.965	5.22
516.164	5.33
516.364	5.44
516.563	5.48
516.762	5.57
516.961	5.66
517.16	5.65
517.359	5.63
517.559	5.7
517.758	5.75
517.957	5.7
518.156	5.69
518.355	5.74
518.554	5.72
518.753	5.74
518.952	5.75
519.151	5.82
519.35	5.89
519.549	5.96
519.748	6.07
519.947	6.06
520.146	6.18
520.345	6.25
520.544	6.28
520.743	6.45
520.942	6.52
521.141	6.63
521.339	6.62
521.538	6.74
521.737	6.77
521.936	6.85
522.135	7.09
522.333	7.27
522.532	7.31
522.731	7.34
522.93	7.35
523.129	7.51
523.327	7.56
523.526	7.68
523.725	7.82
523.923	7.94
524.122	7.96
524.321	8.05
524.519	8.04
524.718	8.14
524.917	8.23
525.115	8.31
525.314	8.35
525.512	8.36
525.711	8.41
525.909	8.41
526.108	8.52
526.306	8.58
526.505	8.62
526.703	8.72
526.902	8.82
527.1	8.87
527.299	8.97
527.497	9.04
527.696	9.14
527.894	9.18
528.092	9.26
528.291	9.27
528.489	9.29
528.688	9.31
528.886	9.33
529.084	9.35
529.283	9.39
529.481	9.38
529.679	9.42
529.877	9.47
530.076	9.54
530.274	9.57
530.472	9.62
530.67	9.69
530.869	9.78
531.067	9.86
531.265	9.99
531.463	10.08
531.661	10.2
531.859	10.29
532.057	10.31
532.255	10.34
532.454	10.37
532.652	10.45
532.85	10.53
533.048	10.57
533.246	10.64
533.444	10.63
533.642	10.67
533.84	10.69
534.038	10.69
534.236	10.72
534.434	10.78
534.632	10.84
534.83	10.91
535.027	10.93
535.225	10.98
535.423	11.01
535.621	11.07
535.819	11.1
536.017	11.13
536.215	11.2
536.412	11.31
536.61	11.37
536.808	11.43
537.006	11.49
537.203	11.58
537.401	11.62
537.599	11.67
537.797	11.68
537.994	11.71
538.192	11.79
538.39	11.94
538.587	11.97
538.785	12.05
538.983	12.09
539.18	12.12
539.378	12.19
539.575	12.28
539.773	12.38
539.97	12.5
540.168	12.63
540.366	12.69
540.563	12.67
540.761	12.74
540.958	12.74
541.155	12.76
541.353	12.75
541.55	12.81
541.748	12.84
541.945	12.84
542.143	12.87
542.34	12.89
542.537	12.85
542.735	12.91
542.932	12.88
543.129	12.94
543.327	13.07
543.524	13.17
543.721	13.18
543.919	13.25
544.116	13.39
544.313	13.46
544.51	13.55
544.708	13.74
544.905	13.83
545.102	14
545.299	14.06
545.496	14.12
545.693	14.16
545.891	14.22
546.088	14.21
546.285	14.11
546.482	14.08
546.679	14.01
546.876	13.95
547.073	13.87
547.27	13.82
547.467	13.81
547.664	13.7
547.861	13.65
548.058	13.65
548.255	13.69
548.452	13.69
548.649	13.68
548.846	13.78
549.043	13.83
549.24	13.9
549.437	13.85
549.633	13.84
549.83	13.9
550.027	13.83
550.224	13.75
550.421	13.7
550.618	13.79
550.814	13.78
551.011	13.74
551.208	13.58
551.405	13.51
551.601	13.54
551.798	13.64
551.995	13.72
552.191	13.94
552.388	13.99
552.585	14.07
552.781	14.03
552.978	14
553.175	14.03
553.371	14.19
553.568	14.27
553.764	14.27
553.961	14.22
554.157	14.17
554.354	14.04
554.55	14.02
554.747	14.03
554.943	14.15
555.14	14.22
555.336	14.14
555.533	13.99
555.729	13.96
555.926	14.08
556.122	14
556.318	13.84
556.515	13.8
556.711	13.78
556.907	13.62
557.104	13.61
557.3	13.68
557.496	13.75
557.693	13.77
557.889	13.79
558.085	13.87
558.281	14.07
558.478	14.29
558.674	14.4
558.87	14.58
559.066	14.62
559.262	14.64
559.459	14.56
559.655	14.66
559.851	14.84
560.047	14.84
560.243	14.77
560.439	14.67
560.635	14.54
560.831	14.52
561.027	14.51
561.223	14.61
561.419	14.57
561.615	14.64
561.811	14.74
562.007	14.66
562.203	14.76
562.399	14.71
562.595	14.75
562.791	14.84
562.987	14.79
563.183	14.64
563.379	14.75
563.575	14.77
563.771	14.85
563.966	14.71
564.162	14.8
564.358	14.75
564.554	14.73
564.75	14.76
564.945	14.72
565.141	14.71
565.337	14.87
565.533	14.7
565.728	14.59
565.924	14.48
566.12	14.47
566.315	14.44
566.511	14.45
566.707	14.47
566.902	14.47
567.098	14.57
567.293	14.68
567.489	14.62
567.684	14.71
567.88	14.8
568.076	14.83
568.271	14.84
568.467	14.83
568.662	14.86
568.858	15
569.053	15.04
569.248	15.01
569.444	14.98
569.639	14.97
569.835	14.95
570.03	14.97
570.225	15.09
570.421	15.1
570.616	15.12
570.812	15.09
571.007	14.89
571.202	14.83
571.397	14.71
571.593	14.8
571.788	14.83
571.983	14.89
572.178	15.01
572.374	14.91
572.569	14.92
572.764	14.84
572.959	14.78
573.154	14.91
573.35	14.89
573.545	15
573.74	14.99
573.935	14.99
574.13	14.91
574.325	14.91
574.52	14.95
574.715	15.01
574.91	15.12
575.105	15.24
575.3	15.27
575.495	15.35
575.69	15.45
575.885	15.44
576.08	15.37
576.275	15.56
576.47	15.56
576.665	15.66
576.86	15.61
577.055	15.69
577.25	15.67
577.444	15.65
577.639	15.73
577.834	15.68
578.029	15.8
578.224	16
578.418	15.95
578.613	15.94
578.808	15.94
579.003	15.98
579.197	15.91
579.392	15.95
579.587	16.06
579.781	16.12
579.976	16.1
580.171	16.06
580.365	15.94
580.56	15.96
580.755	16.03
580.949	15.88
581.144	15.91
581.338	16.01
581.533	16.15
581.727	16.16
581.922	16.02
582.116	15.96
582.311	16.01
582.505	16.09
582.7	16.08
582.894	16.02
583.089	16.23
583.283	16.21
583.478	16.15
583.672	16.09
583.866	16.17
584.061	16.18
584.255	16.36
584.449	16.31
584.644	16.25
584.838	16.31
585.032	16.37
585.226	16.24
585.421	16.41
585.615	16.44
585.809	16.61
586.003	16.48
586.198	16.72
586.392	16.69
586.586	16.7
586.78	16.78
586.974	16.86
587.168	16.72
587.363	16.77
587.557	16.59
587.751	16.63
587.945	16.33
588.139	16.4
588.333	16.21
588.527	16.2
588.721	16.11
588.915	16.03
589.109	15.9
589.303	16.08
589.497	16.03
589.691	16.07
589.885	15.83
590.079	16.04
590.273	16.01
590.466	16.04
590.66	16.09
590.854	16.12
591.048	16.12
591.242	16.1
591.436	16
591.629	16.14
591.823	16.21
592.017	16.38
592.211	16.25
592.404	16.34
592.598	16.26
592.792	16.24
592.986	16.32
593.179	16.3
593.373	16.42
593.567	16.42
593.76	16.24
593.954	16.25
594.147	16.3
594.341	16.34
594.535	16.21
594.728	16.26
594.922	16.16
595.115	16.15
595.309	16.31
595.502	16.12
595.696	16.18
595.889	16.38
596.083	16.28
596.276	16.35
596.47	16.33
596.663	16.39
596.856	16.4
597.05	16.38
597.243	16.42
597.437	16.38
597.63	16.48
597.823	16.51
598.017	16.53
598.21	16.62
598.403	16.65
598.596	16.81
598.79	16.78
598.983	16.87
599.176	16.88
599.369	16.88
599.563	16.91
599.756	16.82
599.949	16.82
600.142	16.71
600.335	16.73
600.528	16.59
600.722	16.41
600.915	16.4
601.108	16.36
601.301	16.4
601.494	16.37
601.687	16.4
601.88	16.68
602.073	16.59
602.266	16.52
602.459	16.53
602.652	16.6
602.845	16.61
603.038	16.7
603.231	16.66
603.424	16.63
603.617	16.54
603.809	16.48
604.002	16.31
604.195	16.41
604.388	16.54
604.581	16.51
604.774	16.42
604.966	16.47
605.159	16.39
605.352	16.4
605.545	16.56
605.737	16.75
605.93	16.83
606.123	16.98
606.316	17.03
606.508	17.08
606.701	17.32
606.894	17.38
607.086	17.39
607.279	17.53
607.471	17.63
607.664	17.61
607.857	17.85
608.049	18.04
608.242	18.21
608.434	18.45
608.627	18.69
608.819	18.75
609.012	19.17
609.204	19.61
609.397	20.03
609.589	20.52
609.782	21.1
609.974	21.51
610.166	21.98
610.359	22.49
610.551	22.83
610.743	23.29
610.936	23.8
611.128	24
611.32	24.18
611.513	24.33
611.705	24.38
611.897	24.33
612.09	24.07
612.282	23.84
612.474	23.51
612.666	23.24
612.858	22.91
613.051	22.57
613.243	22.45
613.435	22.35
613.627	22
613.819	21.78
614.011	21.53
614.203	21.42
614.395	21.33
614.588	21.06
614.78	20.76
614.972	20.35
615.164	20.09
615.356	19.81
615.548	19.35
615.74	19.26
615.932	18.99
616.124	18.65
616.315	18.52
616.507	18.12
616.699	18.02
616.891	18.12
617.083	17.89
617.275	17.89
617.467	17.88
617.659	17.83
617.85	17.79
618.042	17.87
618.234	18.18
618.426	18.2
618.618	18.21
618.809	18.26
619.001	18.15
619.193	18.41
619.384	18.24
619.576	18.3
619.768	18.55
619.959	18.77
620.151	18.72
620.343	18.61
620.534	18.65
620.726	18.84
620.917	18.78
621.109	18.7
621.301	18.74
621.492	18.83
621.684	18.72
621.875	18.43
622.067	18.02
622.258	17.91
622.45	17.94
622.641	17.72
622.832	17.74
623.024	17.85
623.215	17.94
623.407	17.89
623.598	18.19
623.789	18.27
623.981	18.33
624.172	18.39
624.363	18.42
624.555	18.36
624.746	18.39
624.937	18.16
625.129	18.16
625.32	18.16
625.511	18.13
625.702	17.89
625.893	17.87
626.085	17.94
626.276	18.15
626.467	18.26
626.658	18.26
626.849	18.3
627.04	18.41
627.231	18.37
627.422	18.42
627.614	18.46
627.805	18.51
627.996	18.61
628.187	18.67
628.378	18.54
628.569	18.49
628.76	18.56
628.951	18.59
629.142	18.68
629.332	18.72
629.523	18.69
629.714	18.74
629.905	18.89
630.096	18.89
630.287	18.82
630.478	18.95
630.669	18.98
630.859	19.09
631.05	19.12
631.241	19.09
631.432	19.05
631.623	19.01
631.813	18.85
632.004	18.6
632.195	18.42
632.385	18.34
632.576	18.15
632.767	18.03
632.957	17.76
633.148	17.61
633.339	17.53
633.529	17.53
633.72	17.62
633.91	17.5
634.101	17.51
634.292	17.56
634.482	17.57
634.673	17.6
634.863	17.67
635.054	17.82
635.244	17.89
635.435	17.98
635.625	17.94
635.815	17.86
636.006	17.91
636.196	17.92
636.387	17.77
636.577	17.7
636.767	17.71
636.958	17.62
637.148	17.55
637.338	17.66
637.529	17.47
637.719	17.47
637.909	17.48
638.099	17.63
638.29	17.46
638.48	17.49
638.67	17.83
638.86	17.73
639.05	17.78
639.241	17.87
639.431	17.71
639.621	17.87
639.811	17.98
640.001	17.8
640.191	17.91
640.381	18.09
640.571	18.29
640.761	17.94
640.951	18.35
641.141	18.41
641.331	18.27
641.521	18.31
641.711	18.39
641.901	18.36
642.091	18.56
642.281	18.47
642.471	18.48
642.661	18.38
642.851	18.55
643.041	18.16
643.231	18.11
643.42	17.98
643.61	18
643.8	18.01
643.99	18.05
644.18	18.13
644.369	18.26
644.559	18.44
644.749	18.29
644.939	18.26
645.128	18.24
645.318	18.37
645.508	18.54
645.697	18.47
645.887	18.48
646.076	18.56
646.266	18.68
646.456	18.73
646.645	18.66
646.835	18.72
647.024	18.72
647.214	18.91
647.403	19
647.593	18.94
647.782	18.99
647.972	18.79
648.161	18.82
648.351	18.53
648.54	18.43
648.73	18.17
648.919	18.36
649.108	18.38
649.298	18.3
649.487	18.22
649.677	18.23
649.866	18.22
650.055	18.29
650.244	18.14
650.434	18.42
650.623	18.36
650.812	18.63
651.002	18.52
651.191	18.52
651.38	18.6
651.569	18.6
651.758	18.56
651.947	18.56
652.137	18.52
652.326	18.49
652.515	18.28
652.704	18.52
652.893	18.31
653.082	18.42
653.271	18.52
653.46	18.55
653.649	18.58
653.838	18.7
654.027	18.92
654.216	18.93
654.405	19.08
654.594	19.05
654.783	18.84
654.972	19.17
655.161	18.98
655.35	18.8
655.539	18.65
655.728	18.46
655.916	18.61
656.105	18.35
656.294	18.41
656.483	18.3
656.672	18.27
656.86	18.25
657.049	17.87
657.238	18.21
657.427	18.14
657.615	18.17
657.804	18.35
657.993	18.06
658.181	18.15
658.37	17.86
658.559	17.99
658.747	18.15
658.936	18.18
659.125	18.36
659.313	18.15
659.502	18.14
659.69	18.09
659.879	18.08
660.067	18.25
660.256	18.31
660.444	18.64
660.633	18.54
660.821	18.6
661.01	18.65
661.198	18.53
661.387	18.43
661.575	18.57
661.763	18.68
661.952	18.8
662.14	18.64
662.328	18.82
662.517	18.76
662.705	18.89
662.893	18.76
663.082	18.77
663.27	18.87
663.458	19.25
663.646	19.36
663.834	19.42
664.023	19.08
664.211	19.3
664.399	19.09
664.587	19.18
664.775	19.24
664.963	19.21
665.152	19.39
665.34	19.54
665.528	19.43
665.716	19.43
665.904	19.32
666.092	19.66
666.28	19.53
666.468	19.56
666.656	19.46
666.844	19.44
667.032	19.44
667.22	19.12
667.408	18.94
667.596	18.63
667.784	18.45
667.971	18.37
668.159	18.35
668.347	18.29
668.535	18.16
668.723	18.1
668.911	17.91
669.098	18.16
669.286	18.28
669.474	18.54
669.662	18.86
669.849	18.98
670.037	19.17
670.225	18.98
670.413	19.31
670.6	19.63
670.788	19.64
670.976	19.57
671.163	19.24
671.351	19.37
671.538	19.24
671.726	19.32
671.913	19.41
672.101	19.25
672.289	19.28
672.476	19.13
672.664	19.04
672.851	19.29
673.039	19.41
673.226	19.57
673.413	19.61
673.601	19.44
673.788	19.26
673.976	19.18
674.163	19.25
674.35	19.29
674.538	19.21
674.725	18.85
674.912	18.87
675.1	18.84
675.287	18.79
675.474	18.57
675.662	18.7
675.849	18.56
676.036	18.56
676.223	18.57
676.411	18.65
676.598	18.79
676.785	19.26
676.972	19.15
677.159	19.25
677.346	19.34
677.533	19.34
677.721	19.42
677.908	19.45
678.095	19.38
678.282	19.47
678.469	19.52
678.656	19.53
678.843	19.57
679.03	19.49
679.217	19.55
679.404	19.47
679.591	19.55
679.778	19.6
679.964	19.7
680.151	19.91
680.338	19.79
680.525	19.69
680.712	19.53
680.899	19.27
681.086	19.32
681.272	19.34
681.459	19.2
681.646	19.13
681.833	19.01
682.02	19.13
682.206	18.92
682.393	18.98
682.58	18.86
682.766	19.09
682.953	19.11
683.14	19.19
683.326	19.16
683.513	19.5
683.7	19.56
683.886	19.68
684.073	19.57
684.259	19.58
684.446	19.74
684.632	20.07
684.819	19.82
685.005	19.77
685.192	19.66
685.378	19.6
685.565	19.22
685.751	19.4
685.938	19.18
686.124	19.39
686.31	19.49
686.497	19.58
686.683	19.51
686.87	19.92
687.056	19.98
687.242	19.79
687.429	20.17
687.615	20.48
687.801	20.49
687.987	20.79
688.174	20.75
688.36	20.68
688.546	20.82
688.732	20.97
688.918	20.88
689.105	20.97
689.291	21.16
689.477	20.89
689.663	20.98
689.849	20.97
690.035	20.64
690.221	20.84
690.407	20.97
690.593	20.89
690.779	20.58
690.965	20.3
691.151	20.06
691.337	20.25
691.523	20.4
691.709	20.37
691.895	20.11
692.081	20.49
692.267	19.95
692.453	19.87
692.639	19.62
692.825	19.64
693.011	19.64
693.196	19.78
693.382	19.7
693.568	19.2
693.754	18.89
693.94	19.42
694.125	19.46
694.311	19.63
694.497	19.99
694.682	19.95
694.868	20.37
695.054	20.71
695.239	20.73
695.425	20.82
695.611	21.1
695.796	21.08
695.982	20.63
696.168	20.55
696.353	20.82
696.539	20.37
696.724	20.39
696.91	20.04
697.095	19.9
697.281	19.94
697.466	19.85
697.652	19.93
697.837	20.09
698.023	20.12
698.208	20.11
698.393	19.86
698.579	20.02
698.764	20
698.949	20.01
699.135	20.27
699.32	20.28
699.505	20.14
699.691	19.95
699.876	19.92
700.061	19.9
700.246	19.86
700.432	20.06
700.617	19.81
700.802	19.72
700.987	19.56
701.172	19.3
701.358	19.35
701.543	19.63
701.728	19.89
701.913	20.03
702.098	20.43
702.283	20.76
702.468	20.66
702.653	21.09
702.838	21.28
703.023	21.64
703.208	21.44
703.393	21.24
703.578	21.2
703.763	21.21
703.948	21.26
704.133	20.97
704.318	21.14
704.503	21.48
704.688	21.61
704.873	21.91
705.057	22.02
705.242	22.27
705.427	22.74
705.612	22.93
705.797	23.12
705.981	23.3
706.166	23.54
706.351	23.3
706.536	23.17
706.72	22.85
706.905	22.75
707.09	22.73
707.274	23.11
707.459	23
707.644	22.78
707.828	22.88
708.013	22.92
708.197	22.81
708.382	22.69
708.567	22.88
708.751	22.92
708.936	22.65
709.12	22.76
709.305	22.68
709.489	23.08
709.673	23.51
709.858	23.43
710.042	23.49
710.227	23.31
710.411	23.46
710.596	23.51
710.78	23.55
710.964	24.14
711.149	23.94
711.333	23.67
711.517	23.41
711.702	23.24
711.886	22.98
712.07	22.77
712.254	23.07
712.438	22.91
712.623	22.7
712.807	22.78
712.991	22.44
713.175	22.75
713.359	22.89
713.544	22.48
713.728	22.21
713.912	22.19
714.096	21.84
714.28	21.51
714.464	21.48
714.648	21.57
714.832	21.38
715.016	21.34
715.2	20.9
715.384	20.8
715.568	20.45
715.752	20.35
715.936	20.22
716.12	20.13
716.304	19.96
716.488	19.6
716.671	19.12
716.855	19.15
717.039	18.84
717.223	18.79
717.407	18.47
717.59	19.33
717.774	19.36
717.958	19.68
718.142	19.88
718.325	20.5
718.509	21.05
718.693	21.56
718.877	21.75
719.06	22.13
719.244	22.25
719.428	22.99
719.611	22.57
719.795	22.72
719.978	22.61
720.162	22.84
720.345	22.35
720.529	22.24
720.713	22.15
720.896	22.21
721.08	22.44
721.263	22.6
721.446	22.02
721.63	22.12
721.813	22.18
721.997	22.48
722.18	22.24
722.364	22.44
722.547	22.37
722.73	21.85
722.914	21.64
723.097	21.53
723.28	21.35
723.464	21.66
723.647	21.67
723.83	22.06
724.013	21.99
724.197	22.57
724.38	22.49
724.563	22.41
724.746	23.02
724.929	23.28
725.112	23.5
725.296	23.72
725.479	23.19
725.662	23.01
725.845	22.81
726.028	22.38
726.211	22.28
726.394	22.57
726.577	22.19
726.76	22.03
726.943	22.15
727.126	21.66
727.309	21.72
727.492	21.54
727.675	21.38
727.858	21.06
728.041	21.64
728.224	21.44
728.407	21.27
728.589	21.03
728.772	21.14
728.955	20.72
729.138	20.86
729.321	20.95
729.503	21.08
729.686	21.47
729.869	21.55
730.052	20.81
730.234	21.22
730.417	20.74
730.6	20.86
730.782	20.9
730.965	21.07
731.148	21.18
731.33	21.32
731.513	21.93
731.695	21.77
731.878	21.35
732.061	21.49
732.243	21.24
732.426	21.99
732.608	22.52
732.791	22.29
732.973	22.36
733.156	22.07
733.338	22.11
733.52	21.99
733.703	21.92
733.885	22.28
734.068	22.65
734.25	22.22
734.432	22.05
734.615	22.11
734.797	22.67
734.979	22.85
735.162	23.2
735.344	22.9
735.526	22.4
735.708	22.91
735.891	23.42
736.073	23.43
736.255	23.79
736.437	23.67
736.619	23.59
736.802	23.22
736.984	23.13
737.166	22.98
737.348	23.13
737.53	23.7
737.712	23.4
737.894	23.42
738.076	23.61
738.258	23.91
738.44	24.12
738.622	24.45
738.804	24.23
738.986	23.61
739.168	24.19
739.35	24.22
739.532	23.96
739.714	24.02
739.896	23.82
740.078	23.44
740.259	22.93
740.441	22.64
740.623	22.06
740.805	22.84
740.987	23.65
741.168	23.54
741.35	23.57
741.532	23.99
741.714	23.94
741.895	23.39
742.077	23.51
742.259	24.08
742.44	24.51
742.622	24.85
742.804	24.18
742.985	23.82
743.167	23.12
743.348	22.54
743.53	22.19
743.711	21.94
743.893	22.36
744.075	22.26
744.256	21.63
744.438	21.29
744.619	21.9
744.8	22.54
744.982	22.89
745.163	23.15
745.345	23.83
745.526	24.56
745.707	25.07
745.889	24.88
746.07	25.62
746.252	26.23
746.433	26.04
746.614	25.06
746.795	24.41
746.977	24.47
747.158	24.55
747.339	23.75
747.52	22.88
747.702	22.84
747.883	22.89
748.064	22.64
748.245	22.58
748.426	22.73
748.607	23.24
748.788	23.54
748.97	23.19
749.151	23.52
749.332	24.41
749.513	24.83
749.694	24.33
749.875	24.47
750.056	24.12
750.237	24.23
750.418	24.32
750.599	24.25
750.78	24.64
750.96	24.71
751.141	24.14
751.322	23.92
751.503	23.53
751.684	24.12
751.865	24.24
752.046	23.87
752.226	24.63
752.407	24.32
752.588	23.47
752.769	23.12
752.949	23.25
753.13	23.6
753.311	23.53
753.492	23.65
753.672	23.98
753.853	23.98
754.034	24.61
754.214	24.03
754.395	24.62
754.575	25.91
754.756	25.96
754.937	26
755.117	26.04
755.298	26.27
755.478	25.85
755.659	25.01
755.839	24.86
756.02	24.93
756.2	24.94
756.381	24.23
756.561	24.03
756.741	24.81
756.922	24.63
757.102	24.56
757.283	24.01
757.463	24.42
757.643	24.68
757.823	24.92
758.004	24.78
758.184	24.15
758.364	24.96
758.545	24.58
758.725	23.84
758.905	23.85
759.085	23.03
759.265	22.93
759.446	22.96
759.626	22.74
759.806	22.49
759.986	22.38
760.166	22.48
760.346	22.29
760.526	22.43
760.706	21.84
760.886	21.64
761.066	22.03
761.246	22.34
761.426	22.42
761.606	22.86
761.786	23.11
761.966	23.44
762.146	22.99
762.326	22.41
762.506	22.35
762.686	22.86
762.866	23
763.046	22.96
763.225	23.12
763.405	23.23
763.585	22.76
763.765	22.61
763.945	22.29
764.124	22.47
764.304	22.76
764.484	22.44
764.664	22.43
764.843	22.21
765.023	22.13
765.203	22.19
765.382	22.04
765.562	22.33
765.741	22.3
765.921	22.54
766.101	22.59
766.28	22.45
766.46	23.06
766.639	23.05
766.819	23.43
766.998	23.44
767.178	23.62
767.357	23.76
767.537	24.56
767.716	24.89
767.896	24.59
768.075	24.87
768.254	25.56
768.434	26.36
768.613	26.83
768.792	27.52
768.972	28.24
769.151	27.82
769.33	27.97
769.51	27.09
769.689	27.56
769.868	27.72
770.047	28
770.226	27.6
770.406	27.1
770.585	26.24
770.764	25.39
770.943	25.32
771.122	25.29
771.301	24.67
771.48	25.01
771.66	25.02
771.839	26.56
772.018	26.07
772.197	26.09
772.376	25.91
772.555	26.37
772.734	27.58
772.913	28.32
773.092	29.07
773.271	29.47
773.449	29.93
773.628	29.74
773.807	28.31
773.986	28.48
774.165	29.61
774.344	30.15
774.523	30.69
774.701	30.49
774.88	29.99
775.059	30.01
775.238	30.11
775.417	29.77
775.595	30.35
775.774	30.3
775.953	31.08
776.131	30.23
776.31	29.53
776.489	28.86
776.667	28.21
776.846	28.53
777.025	28.28
777.203	28.87
777.382	28.15
777.56	27.75
777.739	28.33
777.917	27.99
778.096	28.71
778.274	28.25
778.453	27.65
778.631	28.47
778.81	27.61
778.988	27.69
779.166	27.21
779.345	28.28
779.523	27.88
779.702	28.12
779.88	28.17
780.058	27.85
780.237	28.17
780.415	29.08
780.593	28.72
780.771	29.03
780.95	29.11
781.128	28.93
781.306	28.24
781.484	28.17
781.662	27.42
781.841	27.67
782.019	27.66
782.197	28.12
782.375	28.68
782.553	27.8
782.731	28.22
782.909	27.49
783.087	27.66
783.265	28.08
783.443	28.3
783.621	28.73
783.799	28.28
783.977	27.45
784.155	27.96
784.333	27.19
784.511	28.27
784.689	28.2
784.867	28.44
785.045	28.25
785.223	28.14
785.4	28.2
785.578	28.11
785.756	27.98
785.934	28.46
786.112	28
786.289	27.71
786.467	27.14
786.645	27.2
786.823	27.6
787	28.63
787.178	28.74
787.356	28.7
787.533	28.06
787.711	28.9
787.889	28.47
788.066	27.72
788.244	28.21
788.421	28.7
788.599	28.82
788.776	28.42
788.954	27.63
789.131	27.56
789.309	27.5
789.486	28.37
789.664	28.17
789.841	28.79
790.019	29.41
790.196	29.09
790.373	28.97
790.551	29.41
790.728	29.73
790.906	29.51
791.083	28.96
791.26	28.57
791.437	28.18
791.615	28.91
791.792	29.82
791.969	29.4
792.146	30.07
792.324	29.28
792.501	28.8
792.678	28.84
792.855	30.47
793.032	31.21
793.209	31.82
793.387	32.58
793.564	30.88
793.741	29.28
793.918	30.57
794.095	30.37
794.272	31.09
794.449	30.78
794.626	30.36
794.803	28.75
794.98	28.48
795.157	28.34
795.334	27.63
795.511	28.13
795.688	28.23
795.864	27.31
796.041	27.27
796.218	26.99
796.395	26.93
796.572	27.33
796.749	27.48
796.925	28.38
797.102	28.51
797.279	29.23
797.456	29.17
797.632	30.08
797.809	31.47
797.986	31.23
798.162	31.69
798.339	31.53
798.516	32.06
798.692	32.12
798.869	30.96
799.046	31.42
799.222	30.72
799.399	31.4
799.575	31.34
799.752	29.96
799.928	29.56
800.105	28.56
800.281	28.72
800.458	28.91
800.634	30.09
800.811	30.17
800.987	29.29
801.163	29.08
801.34	28.57
801.516	27.85
801.692	28.37
801.869	29.08
802.045	29.32
802.221	30.05
802.398	29.22
802.574	27.66
802.75	27.52
802.926	28.07
803.103	28.51
803.279	29.26
803.455	28.65
803.631	28.33
803.807	26.42
803.983	26.7
804.16	26.26
804.336	26.86
804.512	26.34
804.688	27.59
804.864	27.43
805.04	26.12
805.216	25.57
805.392	27.22
805.568	26.88
805.744	28.57
805.92	28.37
806.096	28.28
806.272	28.27
806.448	28.91
806.623	28.8
806.799	28.43
806.975	29.23
807.151	29.14
807.327	27.94
807.503	28.05
807.678	27.77
807.854	28.88
808.03	28.72
808.206	28.52
808.381	28.56
808.557	28.6
808.733	28.94
808.908	29.35
809.084	29.48
809.26	30.03
809.435	30.5
809.611	29.46
809.787	28.52
809.962	28.05
810.138	27.38
810.313	28.29
810.489	28.45
810.664	28.2
810.84	28.79
811.015	29.2
811.191	29.64
811.366	28.69
811.542	30.22
811.717	31.93
811.892	34.36
812.068	34.68
812.243	33.38
812.419	32.09
812.594	32.84
812.769	32.02
812.944	31.83
813.12	31.27
813.295	33.35
813.47	32.81
813.645	32.4
813.821	30.4
813.996	29.74
814.171	30.47
814.346	32.18
814.521	30.47
814.697	31.04
814.872	30.72
815.047	30.71
815.222	29.39
815.397	29.13
815.572	27.52
815.747	26.38
815.922	25.87
816.097	25.63
816.272	25.37
816.447	25.43
816.622	25.7
816.797	25.48
816.972	24.53
817.147	24.2
817.322	25.24
817.496	24.76
817.671	25.74
817.846	27.15
818.021	27.97
818.196	27.5
818.371	28.6
818.545	28.52
818.72	27.81
818.895	27.76
819.069	27.6
819.244	27.24
819.419	28.95
819.594	29.18
819.768	28.45
819.943	27.67
820.117	27.38
820.292	26.38
820.467	25.5
820.641	25.39
820.816	25.3
820.99	25.02
821.165	23.99
821.339	23.68
821.514	22.96
821.688	23.01
821.863	22.98
822.037	22.95
822.212	23.03
822.386	22.87
822.56	22.69
822.735	22.72
822.909	22.49
823.084	22.83
823.258	22.32
823.432	22.51
823.606	22.38
823.781	22.45
823.955	22.46
824.129	22.43
824.303	22.55
824.478	22.29
824.652	22.13
824.826	22.06
825	21.54
825.174	22.25
825.348	22.26
825.523	22.39
825.697	22.43
825.871	22.25
826.045	22.19
826.219	21.61
826.393	21.76
826.567	21.93
826.741	22.41
826.915	23.1
827.089	22.38
827.263	22.3
827.437	22.16
827.611	21.93
827.784	22.14
827.958	22.06
828.132	22.7
828.306	23.27
828.48	23.63
828.654	23.83
828.827	23.54
829.001	23.8
829.175	23.6
829.349	24.2
829.522	24.39
829.696	24.68
829.87	24.93
830.044	24.98
830.217	24.83
830.391	24.73
830.565	24.57
830.738	24.18
830.912	24.56
831.085	25.81
831.259	25.57
831.432	26.29
831.606	26.22
831.779	24.99
831.953	25.91
832.126	25.85
832.3	26.09
832.473	25.79
832.647	25.84
832.82	25.77
832.994	26.13
833.167	26.16
833.34	25.71
833.514	25.16
833.687	25.39
833.86	24.54
834.034	24.29
834.207	23.47
834.38	23.78
834.553	24.22
834.727	24.63
834.9	24.23
835.073	24.58
835.246	24.68
835.419	25.44
835.593	26.01
835.766	26.42
835.939	27.29
836.112	28.4
836.285	28.05
836.458	28.25
836.631	28.2
836.804	29.02
836.977	28.64
837.15	28.66
837.323	28.14
837.496	29.16
837.669	29.26
837.842	28.83
838.015	28.36
838.188	28.77
838.361	29.81
838.533	30.05
838.706	29.65
838.879	30.46
839.052	31.36
839.225	31.59
839.398	29.8
839.57	30.44
839.743	29.89
839.916	30.49
840.088	31.5
840.261	30.32
840.434	31.39
840.607	30.21
840.779	28.51
840.952	26.99
841.124	26.4
841.297	27.53
841.47	25.52
841.642	27.62
841.815	27.9
841.987	26.63
842.16	27.59
842.332	28.03
842.505	29.26
842.677	30.39
842.85	31.54
843.022	33.68
843.194	33.51
843.367	37.57
843.539	36.21
843.712	36.8
843.884	38.66
844.056	39.44
844.229	37.39
844.401	37.96
844.573	40.01
844.745	40.56
844.918	40.93
845.09	41.27
845.262	40.22
845.434	43.62
845.606	45.38
845.779	44.82
845.951	43.8
846.123	47.33
846.295	46.59
846.467	43.51
846.639	44.84
846.811	44.6
846.983	47.56
847.155	46.69
847.327	41.04
847.499	38.36
847.671	39.02
847.843	37.99
848.015	35.46
848.187	38.32
848.359	42.42
848.531	40.25
848.703	37.89
848.875	33.82
849.047	35.73
849.218	34.28
849.39	34.74
849.562	38.17
849.734	42.67
849.905	39.9
850.077	37.25
850.249	32.71
850.421	35.8
850.592	39.43
850.764	39.48
850.936	38.15
851.107	44.25
851.279	42.77
851.451	44.27
851.622	41.47
851.794	43.44
851.965	46.96
852.137	52.53
852.308	50.33
852.48	49.45
852.651	50.28
852.823	47.78
852.994	44.11
853.166	43.56
853.337	38.04
853.509	34.87
853.68	34.54
853.851	29.81
854.023	24.74
854.194	25.15
854.365	25.31
854.537	25.89
854.708	28.27
854.879	27.94
855.05	30.15
855.222	28.35
855.393	32.41
855.564	34.1
855.735	34.4
855.906	34.03
856.078	34.93
856.249	33.01
856.42	32.42
856.591	31.58
856.762	34.43
856.933	32.67
857.104	35.22
857.275	38.01
857.446	40.88
857.617	42.24
857.788	41.93
857.959	40.17
858.13	40.73
858.301	43.62
858.472	46.57
858.643	48.11
858.814	50.38
858.985	51.18
859.155	47.31
859.326	45.91
859.497	43.45
859.668	44.04
859.839	44.92
860.009	43.57
860.18	44.15
860.351	41.64
860.522	39.92
860.692	38.05
860.863	37.95
861.034	36
861.204	34.94
861.375	38.26
861.546	39.71
861.716	43.7
861.887	45.27
862.057	39.56
862.228	44.71
862.398	42.5
862.569	46.86
862.739	46.57
862.91	48.17
863.08	50.22
863.251	48.87
863.421	50.24
863.592	47.94
863.762	47.7
863.932	53.9
864.103	47.34
864.273	46.36
864.443	42.88
864.614	43.18
864.784	44.94
864.954	41.84
865.125	41.23
865.295	40.82
865.465	34.11
865.635	33.52
865.805	33.24
865.976	33.82
866.146	37.17
866.316	35.28
866.486	33.47
866.656	35.04
866.826	37.87
866.996	39.09
867.166	34.74
867.336	40.62
867.506	42.09
867.676	39.76
867.846	40.87
868.016	39.68
868.186	46.77
868.356	45.87
868.526	40.34
868.696	40.29
868.866	41.14
869.036	41.58
869.206	42.24
869.376	39.32
869.545	40.74
869.715	39.93
869.885	41.62
870.055	36.96
870.224	36.09
870.394	37.94
870.564	35.07
870.734	33.34
870.903	38.27
871.073	34.92
871.243	39.8
871.412	38.49
871.582	40.21
871.751	41.57
871.921	39.65
872.091	41.16
872.26	41.28
872.43	44.6
872.599	45.92
872.769	44.77
872.938	46.21
873.108	41.99
873.277	40.03
873.446	39.46
873.616	35.56
873.785	35.06
873.955	33.75
874.124	34.73
874.293	35.96
874.463	35.06
874.632	36.51
874.801	37.52
874.971	38.89
875.14	39.96
875.309	37.9
875.478	40.23
875.647	39.1
875.817	42.54
875.986	37.93
876.155	32.83
876.324	34.45
876.493	32.52
876.662	33.62
876.831	33.67
877	35.29
877.17	37.07
877.339	37.14
877.508	39.52
877.677	38.62
877.846	38.05
878.015	42.93
878.184	44.09
878.352	42.94
878.521	42.37
878.69	40.99
878.859	38.07
879.028	37.88
879.197	37.21
879.366	36.81
879.534	36.19
879.703	36.25
879.872	32.33
880.041	29.27
880.21	28.98
880.378	27.92
880.547	26.93
880.716	26.29
880.884	25.54
881.053	24.17
881.222	24.79
881.39	24.6
881.559	24.26
881.727	23.82
881.896	23.59
882.065	23.38
882.233	23.21
882.402	23.05
882.57	23.33
882.739	23.14
882.907	23.74
883.076	22.93
883.244	22.24
883.412	22.84
883.581	22.61
883.749	23.03
883.918	23
884.086	22.88
884.254	24.26
884.423	24.6
884.591	24.6
884.759	24.1
884.927	24.39
885.096	24.28
885.264	22.55
885.432	23.75
885.6	25.52
885.769	26.34
885.937	27.26
886.105	25.71
886.273	25.7
886.441	26.27
886.609	27.64
886.777	26.55
886.945	27.24
887.113	31.39
887.281	35.21
887.449	32.64
887.617	30.7
887.785	31.04
887.953	27.65
888.121	25.65
888.289	25.18
888.457	24.42
888.625	29.68
888.793	29.23
888.961	30.15
889.129	24.91
889.296	24.94
889.464	25.28
889.632	24.52
889.8	27.85
889.967	30.22
890.135	33.78
