Data from 2938826__Reflection_01.txt Node
Date: Thu Mar 12 13:34:16 EDT 2015
User: robert
Spectrometer: USB4E03002
Autoset integration time: false
Trigger mode: 4
Integration Time (sec): 1.000000E-1
Scans to average: 10
Electric dark correction enabled: false
Nonlinearity correction enabled: false
Boxcar width: 5
Stray light correction enabled: false
XAxis mode: Wavelengths
Stop averaging: false
Number of Pixels in Spectrum: 3648
>>>>>Begin Spectral Data<<<<<
177.575	-1098.53
177.794	-2638.67
178.014	-5548.84
178.233	-2324.35
178.452	-2013.42
178.672	-2209.49
178.891	-2985.25
179.11	-4586.59
179.33	6470
179.549	-3822.55
179.768	-3303.97
179.987	3572.88
180.207	2047.06
180.426	2512.57
180.645	1997.7
180.864	941.77
181.084	643.67
181.303	743.09
181.522	635.53
181.741	775.47
181.96	677.35
182.179	602.09
182.398	575.66
182.618	755.94
182.837	824.64
183.056	798.92
183.275	1340.67
183.494	2877.14
183.713	1670.33
183.932	4950.6
184.151	-3854.46
184.37	-5300
184.589	-2206.47
184.808	-2256.14
185.027	-9075.61
185.246	4419.28
185.465	3203.45
185.684	2169.59
185.903	1791.63
186.122	1742.49
186.341	990.87
186.56	556.83
186.779	674.55
186.998	604.22
187.216	580.32
187.435	697.8
187.654	725.68
187.873	646.68
188.092	634.45
188.311	641.8
188.53	553.86
188.748	633.23
188.967	818.75
189.186	665.49
189.405	682.79
189.623	851.68
189.842	654.68
190.061	719.26
190.28	678.86
190.498	543.9
190.717	562.67
190.936	763.92
191.154	880.4
191.373	947.1
191.592	779.18
191.81	839.66
192.029	688.93
192.248	1195.83
192.466	1552.69
192.685	3293.55
192.904	-9894.87
193.122	-23176.47
193.341	8817.78
193.559	4325.26
193.778	31123.08
193.996	-3347.9
194.215	-1763.04
194.433	-928.44
194.652	-1068.82
194.87	-1662.66
195.089	-1354.45
195.307	-1091.11
195.526	-826.29
195.744	-810.54
195.963	-826.51
196.181	-1063.54
196.399	-1182.32
196.618	-2319.21
196.836	-2846.21
197.055	-2072.36
197.273	-1197.34
197.491	-1901.34
197.71	-2728.1
197.928	-2360.69
198.146	-3891.35
198.365	-3705.36
198.583	-43477.78
198.801	10954.29
199.019	4212.22
199.238	1814.22
199.456	1422.79
199.674	1316.21
199.892	1175.3
200.111	2062.23
200.329	838.14
200.547	713.55
200.765	721.34
200.983	792.58
201.202	805.27
201.42	1341.83
201.638	2479.14
201.856	2868.28
202.074	1640.71
202.292	1679.66
202.51	1041.82
202.728	2425.6
202.946	2575.95
203.165	2228.04
203.383	2267.2
203.601	1666.54
203.819	906.19
204.037	871.94
204.255	794.79
204.473	685.2
204.691	756.96
204.909	805.09
205.127	824.46
205.345	1444.55
205.562	1571.74
205.78	1977.1
205.998	1667.06
206.216	3821.1
206.434	3127.21
206.652	-3964.71
206.87	-3445.3
207.088	-2467.08
207.306	-2662.42
207.523	-4278
207.741	-9843.18
207.959	6918.75
208.177	2647.93
208.395	2143.33
208.612	1601.75
208.83	1714.18
209.048	867.66
209.266	895.6
209.483	783.64
209.701	570.83
209.919	495.85
210.136	444.83
210.354	435.86
210.572	472.54
210.79	711.22
211.007	582
211.225	586.65
211.442	515.61
211.66	524.79
211.878	494.59
212.095	577.69
212.313	620.45
212.53	614.86
212.748	547.61
212.966	614.74
213.183	473.71
213.401	557.7
213.618	495.16
213.836	605.04
214.053	721.44
214.271	872.07
214.488	1110.47
214.705	1012.34
214.923	962.32
215.14	1362.29
215.358	707.01
215.575	808.25
215.793	625.92
216.01	638.93
216.227	568.98
216.445	482.81
216.662	431.47
216.879	422.2
217.097	417.43
217.314	400.84
217.531	414.61
217.749	523.65
217.966	399.44
218.183	397.9
218.4	370.44
218.618	361.23
218.835	317.48
219.052	319.38
219.269	305.51
219.487	319.98
219.704	293.53
219.921	269.35
220.138	246.93
220.355	264.93
220.572	278.67
220.79	260.42
221.007	239.36
221.224	275.15
221.441	274.37
221.658	266.71
221.875	235.9
222.092	222.08
222.309	210.36
222.526	207.28
222.743	204.22
222.96	194.62
223.177	197.87
223.394	188.33
223.611	171.42
223.828	160.11
224.045	152.93
224.262	145.34
224.479	140.67
224.696	138.99
224.913	129.14
225.13	121.31
225.347	114.23
225.564	107.32
225.781	104.66
225.997	98.18
226.214	91.53
226.431	81.12
226.648	74.58
226.865	67.47
227.082	61.23
227.298	52.84
227.515	46.11
227.732	39.83
227.949	35.84
228.165	32.26
228.382	29.24
228.599	27.37
228.816	26.22
229.032	24.44
229.249	23.3
229.466	22.19
229.682	22.41
229.899	23.49
230.116	24.11
230.332	25.6
230.549	27.08
230.765	28.53
230.982	29.95
231.199	30.87
231.415	34.43
231.632	36.67
231.848	37.68
232.065	40.21
232.281	41.29
232.498	42.83
232.714	42.6
232.931	41.84
233.147	42.59
233.364	41.81
233.58	42.27
233.797	41.52
234.013	41.56
234.23	41.22
234.446	39.46
234.662	38.05
234.879	36.76
235.095	37.19
235.312	37.92
235.528	37.82
235.744	38.29
235.961	37.86
236.177	38.28
236.393	38.1
236.61	40.77
236.826	42.7
237.042	43.79
237.258	45.46
237.475	46.56
237.691	45.2
237.907	43.92
238.123	43.87
238.339	45.04
238.556	44.11
238.772	44.73
238.988	42.54
239.204	40.8
239.42	38.87
239.636	38.04
239.853	34.37
240.069	33.3
240.285	31.32
240.501	29.71
240.717	27.67
240.933	25.92
241.149	23.63
241.365	21.75
241.581	20.95
241.797	20.16
242.013	18.71
242.229	18.01
242.445	17.74
242.661	17.88
242.877	18.24
243.093	18.02
243.309	18.23
243.525	18.29
243.741	19.66
243.957	20.42
244.173	20.68
244.388	21.28
244.604	22.16
244.82	22.54
245.036	21.63
245.252	19.69
245.468	18.95
245.683	17.84
245.899	16.93
246.115	15.17
246.331	13.8
246.547	12.87
246.762	12.45
246.978	11.98
247.194	11.41
247.409	11.55
247.625	11.71
247.841	11.54
248.057	11.46
248.272	11.7
248.488	12.08
248.703	12.58
248.919	13.65
249.135	14.25
249.35	15.1
249.566	16.26
249.782	16.71
249.997	17.33
250.213	18.06
250.428	19.25
250.644	19.18
250.859	20.16
251.075	19.85
251.29	19.14
251.506	19.37
251.721	19.12
251.937	18.61
252.152	18.82
252.368	18.35
252.583	19.4
252.798	18.96
253.014	19.61
253.229	19.27
253.445	20.25
253.66	20.82
253.875	21.68
254.091	22.78
254.306	23.8
254.521	24.19
254.737	25.29
254.952	24.56
255.167	25.38
255.383	25.58
255.598	26.28
255.813	26.07
256.028	26.94
256.244	26.35
256.459	24.55
256.674	24.28
256.889	23.42
257.104	22.87
257.32	21.92
257.535	20.12
257.75	18.94
257.965	17.71
258.18	16.57
258.395	14.64
258.61	13.13
258.826	12.24
259.041	11.21
259.256	10.8
259.471	9.98
259.686	9.29
259.901	9.22
260.116	8.84
260.331	8.89
260.546	8.79
260.761	8.72
260.976	8.93
261.191	9.02
261.406	9.42
261.621	9.98
261.836	10.59
262.05	11.6
262.265	12.24
262.48	13.36
262.695	14.16
262.91	15.04
263.125	16.06
263.34	16.76
263.555	17.88
263.769	18.23
263.984	17.59
264.199	18.3
264.414	18.42
264.629	19.37
264.843	18.98
265.058	18.54
265.273	18.02
265.488	17.79
265.702	17.23
265.917	17.02
266.132	16.94
266.346	17.62
266.561	16.84
266.776	16.76
266.99	16.09
267.205	15.91
267.42	15.42
267.634	14.97
267.849	15.02
268.063	15.2
268.278	15.29
268.492	15.05
268.707	14.17
268.922	14.25
269.136	13.74
269.351	13.41
269.565	13.03
269.78	12.92
269.994	13.4
270.209	13.41
270.423	12.93
270.637	12.21
270.852	11.78
271.066	12.11
271.281	12.18
271.495	12.05
271.709	11.88
271.924	12.04
272.138	12.07
272.353	11.7
272.567	11.15
272.781	11.44
272.996	11.9
273.21	12.43
273.424	12.2
273.638	11.9
273.853	11.97
274.067	11.83
274.281	12.21
274.495	12.6
274.71	12.68
274.924	12.92
275.138	12.73
275.352	12.43
275.566	12.6
275.781	12.8
275.995	13.07
276.209	13.86
276.423	14.44
276.637	13.94
276.851	13.36
277.065	13.32
277.279	13.1
277.493	13.05
277.707	13.19
277.921	13.14
278.135	13.12
278.349	12.87
278.563	12.55
278.777	12.54
278.991	12.85
279.205	13.31
279.419	13.33
279.633	13.58
279.847	13.62
280.061	13.53
280.275	12.95
280.489	12.48
280.703	11.99
280.917	11.47
281.131	11.23
281.344	11.17
281.558	10.78
281.772	10.83
281.986	10.47
282.2	10.51
282.414	10.25
282.627	10.25
282.841	10.48
283.055	10.99
283.269	10.9
283.482	10.89
283.696	10.34
283.91	10.24
284.123	10.06
284.337	10.11
284.551	9.86
284.764	9.77
284.978	9.19
285.192	8.78
285.405	8.63
285.619	8.95
285.833	8.74
286.046	8.87
286.26	8.92
286.473	8.97
286.687	9.06
286.9	8.98
287.114	9.36
287.327	9.94
287.541	10.69
287.754	10.89
287.968	10.93
288.181	11.05
288.395	11.13
288.608	11.38
288.822	11.61
289.035	11.73
289.248	11.88
289.462	11.6
289.675	11.37
289.889	11.17
290.102	11.07
290.315	10.87
290.529	10.94
290.742	11
290.955	10.73
291.169	10.48
291.382	10.57
291.595	10.98
291.808	11.13
292.022	11.18
292.235	11.35
292.448	11.78
292.661	11.72
292.875	11.88
293.088	12.1
293.301	12.36
293.514	12.37
293.727	12.25
293.94	11.63
294.153	11.37
294.367	11.45
294.58	10.73
294.793	10.44
295.006	10.67
295.219	10.38
295.432	10.37
295.645	10.28
295.858	9.99
296.071	9.96
296.284	10.08
296.497	10.01
296.71	10.09
296.923	10.42
297.136	10.4
297.349	10.29
297.562	10.22
297.775	10.3
297.988	10.36
298.201	10.85
298.414	11.04
298.626	11.1
298.839	11.37
299.052	11.71
299.265	11.72
299.478	11.73
299.691	12.02
299.903	12.4
300.116	12.54
300.329	12.54
300.542	12.52
300.755	12.43
300.967	12.47
301.18	12.33
301.393	12.26
301.605	12.4
301.818	12.71
302.031	12.68
302.243	13.11
302.456	13.22
302.669	13.3
302.881	13.43
303.094	13.55
303.307	13.49
303.519	13.92
303.732	13.87
303.944	13.8
304.157	13.77
304.37	14.11
304.582	13.84
304.795	14.02
305.007	14.2
305.22	14.28
305.432	14.85
305.645	15.2
305.857	15.33
306.069	15.67
306.282	15.86
306.494	15.65
306.707	15.32
306.919	15.07
307.132	14.75
307.344	15.06
307.556	15.12
307.769	14.98
307.981	14.93
308.193	14.65
308.406	14.54
308.618	14.67
308.83	14.9
309.043	15.11
309.255	15.02
309.467	14.98
309.679	14.64
309.892	14.44
310.104	13.91
310.316	13.65
310.528	13.55
310.74	13.05
310.953	12.74
311.165	12.64
311.377	12.54
311.589	12.93
311.801	12.91
312.013	12.87
312.225	12.79
312.437	13.1
312.649	13.23
312.862	13.19
313.074	13.74
313.286	13.97
313.498	14.04
313.71	14.2
313.922	14.21
314.134	14.22
314.346	14.32
314.558	14.48
314.77	14.48
314.982	14.91
315.193	15.38
315.405	15.59
315.617	15.9
315.829	16.04
316.041	15.91
316.253	15.84
316.465	16.28
316.677	16.44
316.888	16.46
317.1	16.62
317.312	16.73
317.524	16.52
317.736	16.66
317.947	17.09
318.159	17.08
318.371	17.21
318.583	17.83
318.794	17.9
319.006	18.07
319.218	18.36
319.43	18.48
319.641	18.79
319.853	19.03
320.064	19.01
320.276	18.65
320.488	19.1
320.699	19.57
320.911	19.35
321.123	19.31
321.334	19.35
321.546	19.42
321.757	19.65
321.969	18.99
322.18	18.96
322.392	18.89
322.603	18.88
322.815	18.53
323.026	17.81
323.238	16.95
323.449	16.49
323.661	16.08
323.872	15.99
324.083	15.8
324.295	15.9
324.506	15.9
324.718	15.7
324.929	15.65
325.14	15.38
325.352	15.35
325.563	15.74
325.774	15.68
325.986	16.13
326.197	16.05
326.408	15.75
326.62	15.28
326.831	15.44
327.042	15.17
327.253	15.08
327.464	15.25
327.676	15.24
327.887	15.29
328.098	15.41
328.309	15.39
328.52	15.49
328.732	15.47
328.943	16.05
329.154	16.34
329.365	16.61
329.576	16.69
329.787	16.99
329.998	17.01
330.209	17.27
330.42	17.66
330.631	17.85
330.842	17.83
331.053	17.83
331.264	17.71
331.475	17.47
331.686	17.65
331.897	17.55
332.108	17.11
332.319	17.45
332.53	17.27
332.741	17.16
332.952	17.26
333.163	16.76
333.374	16.68
333.585	16.71
333.795	16.24
334.006	15.91
334.217	16.15
334.428	16.44
334.639	16.26
334.849	16.5
335.06	16.23
335.271	15.89
335.482	15.96
335.692	16.02
335.903	15.78
336.114	15.84
336.325	16.09
336.535	15.88
336.746	15.52
336.957	15.28
337.167	14.92
337.378	14.92
337.589	14.68
337.799	14.59
338.01	14.86
338.22	14.95
338.431	14.95
338.642	14.94
338.852	14.89
339.063	15.29
339.273	15.12
339.484	15.27
339.694	15.37
339.905	15.46
340.115	15.9
340.326	15.73
340.536	15.69
340.746	15.69
340.957	15.58
341.167	15.92
341.378	15.88
341.588	15.98
341.799	15.66
342.009	15.42
342.219	15.16
342.43	14.93
342.64	14.75
342.85	14.8
343.061	14.61
343.271	14.46
343.481	14.32
343.691	13.97
343.902	13.86
344.112	13.95
344.322	13.76
344.532	13.53
344.743	13.43
344.953	13.31
345.163	13.28
345.373	13.3
345.583	13.48
345.793	13.01
346.004	13.28
346.214	13.49
346.424	13.5
346.634	13.72
346.844	14.19
347.054	14.14
347.264	14.45
347.474	14.77
347.684	14.94
347.894	14.73
348.104	14.93
348.314	14.7
348.524	14.64
348.734	14.86
348.944	14.73
349.154	14.22
349.364	14.28
349.574	14.29
349.784	13.51
349.994	13.41
350.204	13.47
350.413	13.66
350.623	13.5
350.833	13.41
351.043	13.18
351.253	13.15
351.463	13.58
351.672	13.78
351.882	13.66
352.092	13.87
352.302	13.96
352.511	14.03
352.721	14.06
352.931	14.11
353.141	14.17
353.35	13.86
353.56	13.85
353.77	13.48
353.979	13.55
354.189	13.23
354.399	13.32
354.608	13.17
354.818	13.18
355.027	12.85
355.237	12.76
355.447	12.55
355.656	12.7
355.866	12.58
356.075	12.59
356.285	12.26
356.494	12.37
356.704	12.14
356.913	12.25
357.123	12.05
357.332	12.15
357.542	12.31
357.751	12.27
357.96	12.17
358.17	12.14
358.379	12.32
358.589	12.39
358.798	12.29
359.007	12.37
359.217	11.98
359.426	11.79
359.635	11.85
359.845	11.41
360.054	11.36
360.263	11.2
360.472	11.05
360.682	10.8
360.891	10.62
361.1	10.58
361.309	10.43
361.519	10.44
361.728	10.47
361.937	10.3
362.146	10.44
362.355	10.4
362.564	10.37
362.774	10.6
362.983	10.7
363.192	10.67
363.401	10.74
363.61	10.99
363.819	11.14
364.028	11.09
364.237	11.25
364.446	11.35
364.655	11.59
364.864	11.73
365.073	11.52
365.282	11.27
365.491	11.31
365.7	11.28
365.909	11.48
366.118	11.43
366.327	11.55
366.536	11.32
366.745	11.33
366.954	11.17
367.162	11.15
367.371	11.22
367.58	11.59
367.789	11.62
367.998	11.43
368.207	11.21
368.415	11.49
368.624	11.35
368.833	11.3
369.042	11.01
369.25	11.21
369.459	11.29
369.668	11.21
369.877	11.09
370.085	11.16
370.294	11.2
370.503	11.01
370.711	10.68
370.92	10.6
371.129	10.6
371.337	10.69
371.546	10.35
371.754	10.34
371.963	10.41
372.171	10.41
372.38	10.2
372.589	10.25
372.797	10.04
373.006	10.2
373.214	10.33
373.423	10.53
373.631	10.37
373.84	10.41
374.048	10.33
374.256	10.06
374.465	10.14
374.673	9.92
374.882	9.93
375.09	10.34
375.298	10.06
375.507	9.77
375.715	9.55
375.923	9.56
376.132	9.43
376.34	9.3
376.548	9.34
376.757	9.1
376.965	9.29
377.173	9.14
377.381	9.02
377.59	9.13
377.798	9.44
378.006	9.31
378.214	9.34
378.423	9.27
378.631	9.47
378.839	9.53
379.047	9.42
379.255	9.44
379.463	9.49
379.671	9.25
379.879	9.22
380.088	8.87
380.296	9.1
380.504	9.26
380.712	9.38
380.92	9.16
381.128	9.37
381.336	9.5
381.544	9.48
381.752	9.57
381.96	9.56
382.168	9.38
382.376	9.66
382.584	9.55
382.791	9.42
382.999	9.55
383.207	9.37
383.415	9.09
383.623	9.04
383.831	9.01
384.039	8.93
384.247	8.9
384.454	9.07
384.662	8.79
384.87	8.65
385.078	8.58
385.285	8.37
385.493	8.6
385.701	8.42
385.909	8.28
386.116	8.38
386.324	8.43
386.532	8.51
386.739	8.26
386.947	8.35
387.155	8.43
387.362	8.45
387.57	8.63
387.778	8.63
387.985	8.69
388.193	8.77
388.4	8.43
388.608	8.41
388.816	8.33
389.023	8.35
389.231	8.46
389.438	8.48
389.646	8.45
389.853	8.07
390.061	7.74
390.268	7.8
390.475	7.88
390.683	8.02
390.89	7.86
391.098	7.82
391.305	7.88
391.512	7.68
391.72	7.5
391.927	7.45
392.135	7.5
392.342	7.59
392.549	7.77
392.756	7.59
392.964	7.39
393.171	7.25
393.378	7.19
393.586	7.04
393.793	7.01
394	6.91
394.207	6.87
394.414	6.9
394.622	6.94
394.829	6.86
395.036	6.82
395.243	6.97
395.45	7.17
395.657	7.23
395.864	7.29
396.072	7.16
396.279	7.28
396.486	7.34
396.693	7.34
396.9	7.23
397.107	7.09
397.314	7.3
397.521	7.21
397.728	6.93
397.935	7.03
398.142	6.93
398.349	7.2
398.556	7.24
398.763	7.23
398.97	7.42
399.177	7.45
399.383	7.22
399.59	7.12
399.797	7.13
400.004	7.56
400.211	7.38
400.418	7.45
400.625	7.4
400.831	7.38
401.038	7.34
401.245	7.12
401.452	7.29
401.658	7.54
401.865	7.7
402.072	7.74
402.279	7.43
402.485	7.43
402.692	7.5
402.899	7.36
403.105	7.21
403.312	7.12
403.519	7.03
403.725	6.85
403.932	6.76
404.138	6.49
404.345	6.25
404.552	6.44
404.758	6.42
404.965	6.32
405.171	6.24
405.378	6.31
405.584	6.35
405.791	6.37
405.997	6.49
406.204	6.46
406.41	6.53
406.617	6.68
406.823	6.41
407.029	6.59
407.236	6.62
407.442	6.84
407.649	6.95
407.855	6.82
408.061	6.71
408.268	6.53
408.474	6.42
408.68	6.32
408.887	6.25
409.093	6.48
409.299	6.34
409.505	6.11
409.712	5.77
409.918	5.74
410.124	5.85
410.33	5.85
410.537	5.89
410.743	6.03
410.949	5.98
411.155	6.06
411.361	6.04
411.567	6.06
411.773	6.13
411.98	6.26
412.186	6.18
412.392	6.24
412.598	6.47
412.804	6.7
413.01	6.77
413.216	6.93
413.422	7.02
413.628	6.91
413.834	6.85
414.04	6.9
414.246	6.92
414.452	6.85
414.658	6.71
414.864	6.68
415.07	6.54
415.275	6.4
415.481	6.31
415.687	6.21
415.893	6.12
416.099	6.04
416.305	5.98
416.511	6.01
416.716	5.91
416.922	5.85
417.128	5.62
417.334	5.48
417.539	5.36
417.745	5.19
417.951	4.94
418.157	4.8
418.362	4.74
418.568	4.68
418.774	4.46
418.979	4.48
419.185	4.33
419.391	4.29
419.596	4.21
419.802	4.17
420.008	4.22
420.213	4.9
420.419	4.96
420.624	4.88
420.83	4.79
421.035	4.81
421.241	4.73
421.446	4.78
421.652	4.81
421.857	4.72
422.063	4.71
422.268	4.68
422.474	3.98
422.679	3.91
422.885	3.93
423.09	3.99
423.295	4.01
423.501	3.99
423.706	3.98
423.911	3.97
424.117	3.99
424.322	3.99
424.527	4.05
424.733	4.16
424.938	4.16
425.143	4.17
425.349	4.14
425.554	4.17
425.759	4.28
425.964	4.29
426.169	4.3
426.375	4.43
426.58	4.45
426.785	4.36
426.99	4.42
427.195	4.4
427.4	4.35
427.605	4.52
427.811	4.5
428.016	4.53
428.221	4.53
428.426	4.61
428.631	4.52
428.836	4.57
429.041	4.65
429.246	4.67
429.451	4.82
429.656	5.02
429.861	4.97
430.066	5.01
430.271	4.88
430.476	5
430.681	4.9
430.886	4.94
431.09	4.99
431.295	5.02
431.5	5.05
431.705	4.93
431.91	4.71
432.115	4.66
432.32	4.54
432.524	4.4
432.729	4.37
432.934	4.3
433.139	4.35
433.343	4.37
433.548	4.27
433.753	4.22
433.958	4.36
434.162	4.47
434.367	4.54
434.572	4.71
434.776	4.81
434.981	4.78
435.186	4.82
435.39	4.74
435.595	4.66
435.799	4.78
436.004	4.76
436.209	4.64
436.413	4.61
436.618	4.49
436.822	4.36
437.027	4.38
437.231	4.39
437.436	4.37
437.64	4.42
437.845	4.4
438.049	4.32
438.253	4.31
438.458	4.27
438.662	4.13
438.867	4.16
439.071	4.1
439.275	4.13
439.48	4.15
439.684	4.24
439.888	4.16
440.093	4.1
440.297	4.04
440.501	4.05
440.706	4.04
440.91	4.14
441.114	4.14
441.318	4.25
441.523	4.26
441.727	4.32
441.931	4.26
442.135	4.27
442.339	4.36
442.543	4.46
442.748	4.52
442.952	4.59
443.156	4.6
443.36	4.7
443.564	4.71
443.768	4.64
443.972	4.54
444.176	4.51
444.38	4.53
444.584	4.42
444.788	4.35
444.992	4.28
445.196	4.15
445.4	4.11
445.604	3.93
445.808	3.87
446.012	3.86
446.216	3.76
446.42	3.76
446.624	3.78
446.828	3.77
447.032	3.73
447.235	3.69
447.439	3.74
447.643	3.81
447.847	3.88
448.051	3.92
448.254	3.95
448.458	4.06
448.662	4.07
448.866	4.07
449.069	4.09
449.273	4.18
449.477	4.22
449.681	4.26
449.884	4.23
450.088	4.28
450.292	4.28
450.495	4.26
450.699	4.33
450.902	4.38
451.106	4.28
451.31	4.45
451.513	4.52
451.717	4.57
451.92	4.68
452.124	4.67
452.327	4.6
452.531	4.66
452.734	4.69
452.938	4.59
453.141	4.57
453.345	4.69
453.548	4.61
453.752	4.55
453.955	4.58
454.158	4.52
454.362	4.57
454.565	4.69
454.769	4.64
454.972	4.68
455.175	4.77
455.379	4.81
455.582	4.9
455.785	4.84
455.988	4.87
456.192	4.78
456.395	4.79
456.598	4.76
456.801	4.7
457.005	4.67
457.208	4.71
457.411	4.63
457.614	4.58
457.817	4.39
458.021	4.36
458.224	4.32
458.427	4.25
458.63	4.25
458.833	4.14
459.036	4.02
459.239	3.91
459.442	3.8
459.645	3.79
459.848	3.73
460.051	3.85
460.254	3.89
460.457	3.87
460.66	3.99
460.863	3.97
461.066	4.06
461.269	4.14
461.472	4.34
461.675	4.38
461.878	4.57
462.081	4.63
462.284	4.6
462.486	4.59
462.689	4.61
462.892	4.52
463.095	4.5
463.298	4.57
463.5	4.6
463.703	4.49
463.906	4.58
464.109	4.45
464.311	4.52
464.514	4.58
464.717	4.57
464.92	4.67
465.122	4.73
465.325	4.68
465.528	4.65
465.73	4.72
465.933	4.64
466.135	4.57
466.338	4.5
466.541	4.51
466.743	4.48
466.946	4.53
467.148	4.49
467.351	4.44
467.553	4.42
467.756	4.41
467.958	4.39
468.161	4.44
468.363	4.52
468.566	4.54
468.768	4.64
468.971	4.59
469.173	4.53
469.375	4.5
469.578	4.53
469.78	4.59
469.983	4.66
470.185	4.72
470.387	4.9
470.59	4.77
470.792	4.89
470.994	4.82
471.196	4.88
471.399	4.92
471.601	4.88
471.803	4.9
472.005	4.82
472.208	4.71
472.41	4.65
472.612	4.55
472.814	4.53
473.016	4.47
473.218	4.33
473.421	4.3
473.623	4.27
473.825	4.3
474.027	4.32
474.229	4.36
474.431	4.38
474.633	4.33
474.835	4.33
475.037	4.37
475.239	4.43
475.441	4.48
475.643	4.52
475.845	4.49
476.047	4.43
476.249	4.36
476.451	4.46
476.653	4.39
476.855	4.37
477.057	4.38
477.258	4.41
477.46	4.36
477.662	4.38
477.864	4.25
478.066	4.17
478.268	4.29
478.469	4.34
478.671	4.23
478.873	4.31
479.075	4.21
479.276	4.09
479.478	3.99
479.68	3.88
479.882	3.88
480.083	3.9
480.285	3.93
480.487	3.76
480.688	3.6
480.89	3.57
481.091	3.43
481.293	3.4
481.495	3.36
481.696	3.32
481.898	3.22
482.099	3.07
482.301	2.98
482.502	2.89
482.704	2.85
482.905	2.81
483.107	2.79
483.308	2.76
483.51	2.74
483.711	2.7
483.913	2.68
484.114	2.69
484.315	2.71
484.517	2.7
484.718	2.72
484.92	2.73
485.121	2.77
485.322	2.78
485.524	2.82
485.725	2.84
485.926	2.88
486.127	2.86
486.329	2.85
486.53	2.83
486.731	2.83
486.932	2.82
487.134	2.82
487.335	2.84
487.536	2.83
487.737	2.81
487.938	2.83
488.139	2.87
488.341	2.89
488.542	2.92
488.743	2.94
488.944	3.05
489.145	3.1
489.346	3.12
489.547	3.11
489.748	3.15
489.949	3.15
490.15	3.07
490.351	3
490.552	3
490.753	2.99
490.954	2.98
491.155	2.91
491.356	2.86
491.557	2.85
491.758	2.85
491.959	2.86
492.159	2.9
492.36	3
492.561	3.04
492.762	3.09
492.963	3.17
493.164	3.25
493.364	3.41
493.565	3.59
493.766	3.7
493.967	3.81
494.167	3.88
494.368	3.97
494.569	3.94
494.769	4.01
494.97	4.12
495.171	4.06
495.371	4.07
495.572	4.01
495.773	3.93
495.973	3.89
496.174	3.86
496.375	3.8
496.575	3.7
496.776	3.79
496.976	3.82
497.177	3.78
497.377	3.87
497.578	3.87
497.778	3.89
497.979	3.93
498.179	3.97
498.38	4.04
498.58	4.06
498.78	4.25
498.981	4.25
499.181	4.27
499.382	4.35
499.582	4.32
499.782	4.39
499.983	4.38
500.183	4.43
500.383	4.49
500.584	4.5
500.784	4.62
500.984	4.47
501.184	4.45
501.385	4.45
501.585	4.46
501.785	4.46
501.985	4.58
502.185	4.69
502.386	4.66
502.586	4.68
502.786	4.7
502.986	4.69
503.186	4.78
503.386	4.87
503.586	4.94
503.786	4.92
503.987	4.99
504.187	4.89
504.387	4.96
504.587	4.98
504.787	5.03
504.987	5.16
505.187	5.14
505.387	5.14
505.587	5.13
505.786	5.18
505.986	5.27
506.186	5.28
506.386	5.25
506.586	5.11
506.786	5.16
506.986	5.05
507.186	5.01
507.386	5.02
507.585	5.11
507.785	5.13
507.985	5.18
508.185	5.15
508.384	5.19
508.584	5.26
508.784	5.35
508.984	5.41
509.183	5.5
509.383	5.46
509.583	5.52
509.782	5.48
509.982	5.57
510.182	5.61
510.381	5.7
510.581	5.79
510.781	5.9
510.98	5.89
511.18	5.86
511.379	5.88
511.579	5.98
511.778	6.05
511.978	6.06
512.177	6.02
512.377	5.99
512.576	6.03
512.776	5.99
512.975	5.99
513.175	6.1
513.374	6.24
513.573	6.27
513.773	6.26
513.972	6.34
514.172	6.54
514.371	6.73
514.57	6.86
514.77	6.93
514.969	7.12
515.168	7.14
515.367	7.1
515.567	7.14
515.766	7.24
515.965	7.41
516.164	7.45
516.364	7.48
516.563	7.51
516.762	7.4
516.961	7.36
517.16	7.35
517.359	7.37
517.559	7.42
517.758	7.39
517.957	7.46
518.156	7.46
518.355	7.45
518.554	7.43
518.753	7.48
518.952	7.61
519.151	7.7
519.35	7.72
519.549	7.82
519.748	7.92
519.947	8.15
520.146	8.21
520.345	8.24
520.544	8.33
520.743	8.5
520.942	8.45
521.141	8.59
521.339	8.66
521.538	8.77
521.737	8.81
521.936	8.94
522.135	8.96
522.333	9.09
522.532	9.14
522.731	9.2
522.93	9.24
523.129	9.36
523.327	9.37
523.526	9.48
523.725	9.57
523.923	9.57
524.122	9.56
524.321	9.55
524.519	9.51
524.718	9.51
524.917	9.63
525.115	9.64
525.314	9.69
525.512	9.73
525.711	9.77
525.909	9.77
526.108	9.89
526.306	9.98
526.505	9.98
526.703	10.01
526.902	10.06
527.1	10.02
527.299	9.97
527.497	9.96
527.696	9.92
527.894	9.95
528.092	9.97
528.291	9.97
528.489	9.95
528.688	9.97
528.886	10.02
529.084	10.08
529.283	10.13
529.481	10.24
529.679	10.34
529.877	10.45
530.076	10.5
530.274	10.62
530.472	10.71
530.67	10.82
530.869	10.96
531.067	11.05
531.265	11.15
531.463	11.25
531.661	11.34
531.859	11.37
532.057	11.42
532.255	11.53
532.454	11.53
532.652	11.6
532.85	11.64
533.048	11.69
533.246	11.72
533.444	11.75
533.642	11.82
533.84	11.85
534.038	11.93
534.236	12.05
534.434	12.06
534.632	12.13
534.83	12.15
535.027	12.23
535.225	12.29
535.423	12.39
535.621	12.45
535.819	12.49
536.017	12.57
536.215	12.59
536.412	12.61
536.61	12.72
536.808	12.76
537.006	12.87
537.203	12.95
537.401	13.06
537.599	13.12
537.797	13.27
537.994	13.36
538.192	13.5
538.39	13.64
538.587	13.78
538.785	13.81
538.983	13.95
539.18	14
539.378	14.05
539.575	14
539.773	13.98
539.97	13.98
540.168	13.97
540.366	13.93
540.563	13.9
540.761	13.86
540.958	13.88
541.155	13.85
541.353	13.86
541.55	13.88
541.748	13.93
541.945	13.95
542.143	13.99
542.34	14.02
542.537	14.09
542.735	14.16
542.932	14.3
543.129	14.36
543.327	14.49
543.524	14.6
543.721	14.69
543.919	14.78
544.116	14.91
544.313	14.98
544.51	15.16
544.708	15.26
544.905	15.39
545.102	15.45
545.299	15.51
545.496	15.55
545.693	15.56
545.891	15.61
546.088	15.64
546.285	15.75
546.482	15.77
546.679	15.73
546.876	15.74
547.073	15.74
547.27	15.8
547.467	15.84
547.664	15.84
547.861	15.93
548.058	16.08
548.255	16.23
548.452	16.32
548.649	16.46
548.846	16.67
549.043	16.79
549.24	16.98
549.437	17.1
549.633	17.27
549.83	17.32
550.027	17.35
550.224	17.28
550.421	17.32
550.618	17.23
550.814	17.26
551.011	17.31
551.208	17.33
551.405	17.36
551.601	17.28
551.798	17.26
551.995	17.39
552.191	17.45
552.388	17.55
552.585	17.54
552.781	17.58
552.978	17.65
553.175	17.65
553.371	17.67
553.568	17.62
553.764	17.71
553.961	17.69
554.157	17.68
554.354	17.74
554.55	17.81
554.747	17.88
554.943	17.89
555.14	17.92
555.336	17.9
555.533	17.94
555.729	17.94
555.926	17.89
556.122	18.2
556.318	18.3
556.515	18.29
556.711	18.31
556.907	18.36
557.104	18.56
557.3	18.42
557.496	18.43
557.693	18.52
557.889	18.68
558.085	18.82
558.281	18.68
558.478	18.69
558.674	18.83
558.87	18.68
559.066	18.73
559.262	18.61
559.459	18.76
559.655	18.81
559.851	18.8
560.047	18.79
560.243	18.83
560.439	18.81
560.635	18.83
560.831	18.86
561.027	18.95
561.223	18.82
561.419	19
561.615	19.03
561.811	19.14
562.007	19.18
562.203	19.2
562.399	19.26
562.595	19.32
562.791	19.47
562.987	19.47
563.183	19.54
563.379	19.62
563.575	19.48
563.771	19.51
563.966	19.45
564.162	19.44
564.358	19.35
564.554	19.25
564.75	19.24
564.945	19.16
565.141	19.12
565.337	19.22
565.533	19.28
565.728	19.32
565.924	19.28
566.12	19.3
566.315	19.32
566.511	19.43
566.707	19.5
566.902	19.61
567.098	19.64
567.293	19.72
567.489	19.62
567.684	19.62
567.88	19.68
568.076	19.83
568.271	19.8
568.467	19.83
568.662	19.77
568.858	19.82
569.053	19.76
569.248	19.71
569.444	19.61
569.639	19.64
569.835	19.59
570.03	19.56
570.225	19.48
570.421	19.37
570.616	19.52
570.812	19.57
571.007	19.55
571.202	19.49
571.397	19.59
571.593	19.72
571.788	19.73
571.983	19.85
572.178	19.92
572.374	19.96
572.569	20.16
572.764	20.1
572.959	20.17
573.154	20.23
573.35	20.31
573.545	20.31
573.74	20.27
573.935	20.26
574.13	20.17
574.325	20.19
574.52	20.33
574.715	20.32
574.91	20.24
575.105	20.23
575.3	20.2
575.495	20.27
575.69	20.32
575.885	20.5
576.08	20.6
576.275	20.8
576.47	20.85
576.665	20.72
576.86	20.74
577.055	20.92
577.25	20.89
577.444	21.03
577.639	21.02
577.834	21.02
578.029	21.11
578.224	21.22
578.418	21.19
578.613	21.25
578.808	21.34
579.003	21.35
579.197	21.36
579.392	21.51
579.587	21.46
579.781	21.61
579.976	21.73
580.171	21.58
580.365	21.59
580.56	21.58
580.755	21.7
580.949	21.85
581.144	21.96
581.338	22.16
581.533	22.09
581.727	22.18
581.922	22.01
582.116	21.97
582.311	22.01
582.505	22.07
582.7	22.18
582.894	22.09
583.089	21.95
583.283	22.01
583.478	21.94
583.672	22.19
583.866	22.18
584.061	22.39
584.255	22.41
584.449	22.39
584.644	22.46
584.838	22.4
585.032	22.45
585.226	22.67
585.421	22.62
585.615	22.64
585.809	22.5
586.003	22.67
586.198	22.7
586.392	22.92
586.586	23
586.78	22.93
586.974	22.98
587.168	23
587.363	22.85
587.557	22.87
587.751	22.86
587.945	22.92
588.139	22.77
588.333	22.69
588.527	22.51
588.721	22.39
588.915	22.47
589.109	22.68
589.303	22.75
589.497	22.74
589.691	22.76
589.885	22.7
590.079	22.65
590.273	22.7
590.466	22.79
590.66	22.85
590.854	23.06
591.048	23.1
591.242	22.9
591.436	22.92
591.629	23.2
591.823	23.37
592.017	23.44
592.211	23.46
592.404	23.45
592.598	23.42
592.792	23.32
592.986	23.25
593.179	23.18
593.373	23.19
593.567	23.15
593.76	22.93
593.954	22.75
594.147	22.83
594.341	22.78
594.535	22.77
594.728	22.86
594.922	22.81
595.115	22.74
595.309	22.61
595.502	22.74
595.696	22.69
595.889	22.79
596.083	22.75
596.276	22.74
596.47	22.81
596.663	22.75
596.856	22.76
597.05	22.94
597.243	23.07
597.437	23.23
597.63	23.07
597.823	23.07
598.017	23.15
598.21	23.25
598.403	23.19
598.596	23.22
598.79	23.29
598.983	23.25
599.176	23.29
599.369	23.47
599.563	23.46
599.756	23.59
599.949	23.8
600.142	23.69
600.335	23.83
600.528	23.9
600.722	23.97
600.915	24.21
601.108	24.25
601.301	24.36
601.494	24.16
601.687	24.22
601.88	24.14
602.073	23.97
602.266	24.02
602.459	23.86
602.652	23.69
602.845	23.64
603.038	23.5
603.231	23.45
603.424	23.18
603.617	23.13
603.809	23.08
604.002	23.15
604.195	23.25
604.388	23.22
604.581	23.28
604.774	23.37
604.966	23.44
605.159	23.48
605.352	23.5
605.545	23.73
605.737	23.72
605.93	23.81
606.123	23.97
606.316	24.02
606.508	24.19
606.701	24.22
606.894	24.34
607.086	24.41
607.279	24.64
607.471	24.79
607.664	24.71
607.857	24.97
608.049	24.99
608.242	25.12
608.434	25.21
608.627	25.34
608.819	25.66
609.012	25.83
609.204	26.03
609.397	26.28
609.589	26.63
609.782	26.99
609.974	27.23
610.166	27.65
610.359	27.92
610.551	28.21
610.743	28.32
610.936	28.58
611.128	28.85
611.32	29.03
611.513	29.05
611.705	29.09
611.897	29.22
612.09	29.27
612.282	29.16
612.474	29
612.666	28.98
612.858	29.26
613.051	29.04
613.243	29.05
613.435	29.01
613.627	28.82
613.819	28.61
614.011	28.69
614.203	28.59
614.395	28.55
614.588	28.54
614.78	28.5
614.972	28.13
615.164	28.15
615.356	27.98
615.548	27.75
615.74	27.64
615.932	27.55
616.124	27.16
616.315	27.1
616.507	27.04
616.699	26.77
616.891	26.56
617.083	26.7
617.275	26.56
617.467	26.47
617.659	26.42
617.85	26.53
618.042	26.67
618.234	26.53
618.426	26.53
618.618	26.46
618.809	26.43
619.001	26.44
619.193	26.28
619.384	26.24
619.576	26.32
619.768	26.53
619.959	26.43
620.151	26.36
620.343	26.44
620.534	26.37
620.726	26.43
620.917	26.5
621.109	26.45
621.301	26.46
621.492	26.37
621.684	26.37
621.875	26.33
622.067	26.21
622.258	26.23
622.45	26.47
622.641	26.55
622.832	26.75
623.024	26.89
623.215	27.11
623.407	27.19
623.598	27.23
623.789	27.23
623.981	27.18
624.172	27.22
624.363	27.09
624.555	26.96
624.746	26.77
624.937	26.68
625.129	26.66
625.32	26.57
625.511	26.45
625.702	26.48
625.893	26.43
626.085	26.28
626.276	26.45
626.467	26.59
626.658	26.48
626.849	26.56
627.04	26.49
627.231	26.4
627.422	26.5
627.614	26.42
627.805	26.48
627.996	26.49
628.187	26.71
628.378	26.61
628.569	26.53
628.76	26.65
628.951	26.66
629.142	26.68
629.332	26.85
629.523	26.78
629.714	26.87
629.905	27.06
630.096	27.13
630.287	27.16
630.478	27.14
630.669	27.37
630.859	27.41
631.05	27.47
631.241	27.53
631.432	27.38
631.623	27.38
631.813	27.52
632.004	27.25
632.195	27.11
632.385	26.89
632.576	26.84
632.767	26.73
632.957	26.83
633.148	26.8
633.339	26.78
633.529	26.79
633.72	26.76
633.91	26.65
634.101	26.7
634.292	26.76
634.482	26.85
634.673	26.96
634.863	26.88
635.054	26.73
635.244	26.65
635.435	26.62
635.625	26.69
635.815	26.87
636.006	27.05
636.196	27.14
636.387	27.19
636.577	27.26
636.767	27.28
636.958	27.35
637.148	27.45
637.338	27.64
637.529	27.65
637.719	27.68
637.909	27.46
638.099	27.48
638.29	27.5
638.48	27.44
638.67	27.46
638.86	27.72
639.05	27.89
639.241	27.97
639.431	27.82
639.621	27.93
639.811	27.86
640.001	27.99
640.191	27.8
640.381	27.77
640.571	27.9
640.761	27.85
640.951	27.66
641.141	27.5
641.331	27.33
641.521	27.5
641.711	27.55
641.901	27.56
642.091	27.66
642.281	27.81
642.471	27.7
642.661	27.85
642.851	27.97
643.041	27.86
643.231	27.94
643.42	28.16
643.61	28.19
643.8	28.29
643.99	28.35
644.18	28.27
644.369	28.43
644.559	28.86
644.749	28.76
644.939	28.74
645.128	28.75
645.318	28.61
645.508	28.72
645.697	28.84
645.887	28.59
646.076	28.76
646.266	28.78
646.456	28.73
646.645	28.62
646.835	28.55
647.024	28.5
647.214	28.61
647.403	28.87
647.593	28.94
647.782	28.88
647.972	29.06
648.161	29.04
648.351	29.12
648.54	28.99
648.73	29.05
648.919	29.11
649.108	29.3
649.298	29.27
649.487	29.18
649.677	29.11
649.866	29.22
650.055	29.29
650.244	29.48
650.434	29.42
650.623	29.42
650.812	29.3
651.002	29.14
651.191	29.12
651.38	29.23
651.569	29.29
651.758	29.11
651.947	28.88
652.137	28.93
652.326	28.68
652.515	28.72
652.704	28.98
652.893	29.02
653.082	29.37
653.271	29.3
653.46	29.07
653.649	29.09
653.838	29.11
654.027	29.29
654.216	29.1
654.405	29.11
654.594	29.12
654.783	29.04
654.972	29.19
655.161	29.27
655.35	29.33
655.539	29.75
655.728	29.61
655.916	29.74
656.105	29.6
656.294	29.71
656.483	29.55
656.672	29.59
656.86	29.18
657.049	28.98
657.238	28.61
657.427	28.63
657.615	28.6
657.804	28.64
657.993	28.49
658.181	28.66
658.37	28.79
658.559	28.84
658.747	28.72
658.936	28.97
659.125	28.71
659.313	28.76
659.502	28.67
659.69	28.44
659.879	28.31
660.067	28.42
660.256	28.16
660.444	28.09
660.633	28.2
660.821	28.48
661.01	28.59
661.198	28.53
661.387	28.9
661.575	29.01
661.763	29.18
661.952	29.58
662.14	29.85
662.328	30.33
662.517	30.6
662.705	30.77
662.893	30.56
663.082	30.8
663.27	31.19
663.458	31.02
663.646	31.16
663.834	31.31
664.023	31.09
664.211	30.97
664.399	30.99
664.587	31
664.775	30.87
664.963	31.17
665.152	30.82
665.34	31.13
665.528	31
665.716	31.21
665.904	30.98
666.092	31.38
666.28	31.52
666.468	31.44
666.656	31.23
666.844	31.22
667.032	31.27
667.22	31.54
667.408	31.42
667.596	31.81
667.784	31.52
667.971	31.8
668.159	31.21
668.347	31.25
668.535	31.27
668.723	31.31
668.911	31.37
669.098	31.31
669.286	31.23
669.474	31.28
669.662	31.25
669.849	31.46
670.037	31.54
670.225	31.92
670.413	31.56
670.6	31.83
670.788	32.01
670.976	32.27
671.163	32.18
671.351	32.22
671.538	32.08
671.726	31.87
671.913	31.66
672.101	31.58
672.289	31.47
672.476	31.76
672.664	31.73
672.851	31.65
673.039	31.43
673.226	31.63
673.413	31.76
673.601	32
673.788	32.34
673.976	32.46
674.163	32.44
674.35	32.58
674.538	32.35
674.725	32.18
674.912	32.04
675.1	32.01
675.287	31.98
675.474	31.59
675.662	31.5
675.849	31.19
676.036	31.36
676.223	31.39
676.411	31.51
676.598	31.65
676.785	31.65
676.972	31.97
677.159	32.16
677.346	32.15
677.533	32.35
677.721	32.23
677.908	32.32
678.095	32.13
678.282	31.76
678.469	31.54
678.656	31.43
678.843	31.18
679.03	30.83
679.217	30.86
679.404	30.74
679.591	30.73
679.778	30.99
679.964	30.92
680.151	30.88
680.338	31.23
680.525	31.34
680.712	31.29
680.899	31.21
681.086	31.32
681.272	31.12
681.459	31.48
681.646	31.47
681.833	31.46
682.02	31.56
682.206	31.68
682.393	31.83
682.58	31.94
682.766	32.26
682.953	32.8
683.14	32.88
683.326	33.28
683.513	33.23
683.7	33.34
683.886	33.06
684.073	33.09
684.259	33.21
684.446	33.03
684.632	33.08
684.819	32.86
685.005	32.91
685.192	33.25
685.378	33.36
685.565	33.07
685.751	33.11
685.938	33.36
686.124	33.37
686.31	33.35
686.497	33.43
686.683	33.24
686.87	33.51
687.056	33.36
687.242	32.85
687.429	32.57
687.615	32.6
687.801	32.69
687.987	32.61
688.174	32.52
688.36	32.52
688.546	32.44
688.732	32.45
688.918	32.25
689.105	32.14
689.291	32.46
689.477	32.64
689.663	32.7
689.849	32.76
690.035	32.52
690.221	32.84
690.407	33.12
690.593	33.32
690.779	33.48
690.965	33.9
691.151	34.22
691.337	34.2
691.523	34.14
691.709	34.19
691.895	34.18
692.081	34.5
692.267	34.47
692.453	34.5
692.639	34.52
692.825	34.59
693.011	34.69
693.196	34.5
693.382	34.8
693.568	35.19
693.754	35.46
693.94	35.38
694.125	35.78
694.311	35.83
694.497	35.42
694.682	35.57
694.868	35.73
695.054	35.43
695.239	35.67
695.425	35.36
695.611	34.6
695.796	34.43
695.982	34.59
696.168	34.15
696.353	33.74
696.539	33.46
696.724	33.12
696.91	32.61
697.095	32.72
697.281	32.43
697.466	32.15
697.652	32.21
697.837	31.87
698.023	31.64
698.208	31.51
698.393	31.8
698.579	31.86
698.764	31.73
698.949	31.86
699.135	31.86
699.32	31.77
699.505	31.89
699.691	31.93
699.876	32.18
700.061	32.42
700.246	32.8
700.432	32.49
700.617	32.96
700.802	33.28
700.987	33.65
701.172	33.81
701.358	34.18
701.543	34.23
701.728	34.77
701.913	34.94
702.098	35.16
702.283	35.61
702.468	36.46
702.653	36.58
702.838	36.68
703.023	36.95
703.208	36.64
703.393	36.62
703.578	37.12
703.763	36.96
703.948	37.15
704.133	37.48
704.318	37.41
704.503	37.03
704.688	37.04
704.873	37.24
705.057	37.08
705.242	37.47
705.427	37.78
705.612	37.8
705.797	37.75
705.981	37.81
706.166	37.83
706.351	37.73
706.536	38.11
706.72	37.92
706.905	38.13
707.09	38.31
707.274	38.6
707.459	38.54
707.644	39.01
707.828	39.32
708.013	39.17
708.197	38.68
708.382	38.44
708.567	38.58
708.751	38.5
708.936	38.04
709.12	38.28
709.305	38.38
709.489	38.6
709.673	38.1
709.858	37.61
710.042	37.71
710.227	37.93
710.411	38.37
710.596	38.01
710.78	38.41
710.964	38.82
711.149	38.84
711.333	38.44
711.517	37.88
711.702	38.05
711.886	38.41
712.07	38.44
712.254	38.49
712.438	38.03
712.623	38.17
712.807	37.67
712.991	37.94
713.175	37.41
713.359	37.4
713.544	37.56
713.728	37.29
713.912	37.21
714.096	36.97
714.28	36.33
714.464	36.6
714.648	36.27
714.832	36.74
715.016	36.35
715.2	36.08
715.384	36.18
715.568	36.32
715.752	36.05
715.936	36.18
716.12	36.23
716.304	36.36
716.488	36.17
716.671	36.55
716.855	36.22
717.039	36.23
717.223	36.39
717.407	36.1
717.59	36.19
717.774	36.41
717.958	36.39
718.142	36.6
718.325	37.2
718.509	37.23
718.693	36.98
718.877	37.28
719.06	37.46
719.244	37.65
719.428	37.82
719.611	38.06
719.795	38.44
719.978	38.75
720.162	39
720.345	39.28
720.529	39.72
720.713	39.9
720.896	39.77
721.08	39.68
721.263	40.15
721.446	40.05
721.63	39.88
721.813	39.7
721.997	39.32
722.18	39.29
722.364	39.36
722.547	39.33
722.73	39.52
722.914	40.17
723.097	39.98
723.28	40.03
723.464	39.99
723.647	40.09
723.83	40.22
724.013	40.76
724.197	40.9
724.38	41.09
724.563	40.76
724.746	40.53
724.929	40.35
725.112	41.26
725.296	40.58
725.479	41.05
725.662	40.89
725.845	41.25
726.028	40.65
726.211	40.12
726.394	39.89
726.577	39.66
726.76	39.56
726.943	39.24
727.126	38.26
727.309	38.36
727.492	38.15
727.675	38.03
727.858	37.63
728.041	38.05
728.224	38.6
728.407	37.94
728.589	38.31
728.772	38.42
728.955	37.93
729.138	38.5
729.321	38.74
729.503	38.98
729.686	39.36
729.869	39.61
730.052	38.95
730.234	38.66
730.417	39.19
730.6	39.13
730.782	39.28
730.965	39.79
731.148	39.81
731.33	39.69
731.513	39.55
731.695	39.18
731.878	38.97
732.061	39.27
732.243	39.41
732.426	38.95
732.608	39.31
732.791	39.28
732.973	39.26
733.156	39.08
733.338	39.07
733.52	39.28
733.703	39.13
733.885	39.49
734.068	39.72
734.25	39.74
734.432	40.32
734.615	39.89
734.797	39.92
734.979	40.19
735.162	40.28
735.344	40.27
735.526	39.62
735.708	39.96
735.891	40.42
736.073	39.96
736.255	40.06
736.437	39.65
736.619	39.93
736.802	40.01
736.984	39.58
737.166	39.54
737.348	39.61
737.53	40.01
737.712	39.65
737.894	38.54
738.076	39.07
738.258	38.93
738.44	39.64
738.622	39.96
738.804	39.74
738.986	40.16
739.168	39.93
739.35	40.21
739.532	40.37
739.714	40.95
739.896	41.24
740.078	41.86
740.259	41.79
740.441	41.51
740.623	41.83
740.805	41.53
740.987	41.52
741.168	41.57
741.35	42.09
741.532	42.43
741.714	42.29
741.895	42.34
742.077	42.09
742.259	42.93
742.44	43.13
742.622	43.2
742.804	44.52
742.985	45.03
743.167	45.86
743.348	45.96
743.53	46.14
743.711	46.2
743.893	47.23
744.075	47.03
744.256	46.39
744.438	46.9
744.619	46.54
744.8	46.37
744.982	46.24
745.163	45.92
745.345	46.36
745.526	46.19
745.707	47.31
745.889	46.72
746.07	46.39
746.252	46.62
746.433	46.15
746.614	45.98
746.795	45.61
746.977	45.53
747.158	46.15
747.339	46.05
747.52	46.1
747.702	45.03
747.883	45.16
748.064	45.75
748.245	45.41
748.426	45.65
748.607	45.53
748.788	45.36
748.97	45.69
749.151	45.53
749.332	44.99
749.513	45.28
749.694	45.61
749.875	45.77
750.056	46.09
750.237	46.41
750.418	46.48
750.599	46.32
750.78	46.93
750.96	46.73
751.141	46.2
751.322	46.67
751.503	46.43
751.684	46.01
751.865	46.12
752.046	45.84
752.226	45.9
752.407	45.84
752.588	45.5
752.769	45.16
752.949	44.92
753.13	45.29
753.311	44.99
753.492	45.01
753.672	45.58
753.853	45.48
754.034	45.05
754.214	45.57
754.395	45.45
754.575	47.31
754.756	47.78
754.937	49.1
755.117	48.82
755.298	48.8
755.478	49.3
755.659	49.26
755.839	49.1
756.02	49.77
756.2	49.17
756.381	48.99
756.561	47.98
756.741	47.72
756.922	46.03
757.102	46.03
757.283	45.89
757.463	45.56
757.643	46.2
757.823	46.77
758.004	46.6
758.184	46.33
758.364	47.06
758.545	47.06
758.725	46.06
758.905	46.2
759.085	46.42
759.265	46.65
759.446	46.61
759.626	46.18
759.806	45.46
759.986	45.38
760.166	45.31
760.346	44.44
760.526	44.51
760.706	45.23
760.886	45.55
761.066	45.38
761.246	44.87
761.426	44.65
761.606	43.54
761.786	43.61
761.966	43.66
762.146	43.71
762.326	43.67
762.506	42.94
762.686	42.82
762.866	42.49
763.046	41.77
763.225	41.5
763.405	41.17
763.585	40.93
763.765	40.49
763.945	39.92
764.124	39.82
764.304	39.74
764.484	39.86
764.664	39.47
764.843	39.62
765.023	40.19
765.203	40.28
765.382	39.97
765.562	40.42
765.741	40.99
765.921	41.47
766.101	41.59
766.28	41.98
766.46	42.93
766.639	43.39
766.819	44.1
766.998	44.34
767.178	44.93
767.357	45.74
767.537	46.69
767.716	46.75
767.896	47.38
768.075	47.76
768.254	47.79
768.434	47.74
768.613	48.03
768.792	48.36
768.972	49.3
769.151	49.59
769.33	50.31
769.51	50.46
769.689	51.08
769.868	50.76
770.047	52.04
770.226	51.99
770.406	51.15
770.585	51.59
770.764	50.51
770.943	50.01
771.122	49.33
771.301	49.1
771.48	49.14
771.66	49.4
771.839	50.16
772.018	48.75
772.197	49.25
772.376	49.87
772.555	50.14
772.734	50.67
772.913	50.11
773.092	51.6
773.271	51.75
773.449	51.63
773.628	51.35
773.807	50.83
773.986	50.73
774.165	51.06
774.344	51.26
774.523	50.17
774.701	50.33
774.88	50.42
775.059	49.37
775.238	49.01
775.417	49.29
775.595	49.72
775.774	50.01
775.953	51.27
776.131	51.14
776.31	51.15
776.489	51.77
776.667	51.47
776.846	52.11
777.025	51.77
777.203	51.61
777.382	52.27
777.56	51.26
777.739	51.58
777.917	52.04
778.096	52.31
778.274	52.29
778.453	52.4
778.631	52.21
778.81	52.45
778.988	53.15
779.166	53.46
779.345	52.94
779.523	52.4
779.702	52.2
779.88	51.77
780.058	51.04
780.237	50.84
780.415	51.79
780.593	53.21
780.771	53.3
780.95	54.69
781.128	55.43
781.306	55.46
781.484	57.36
781.662	57.05
781.841	56.46
782.019	57.02
782.197	58.18
782.375	57.5
782.553	56.34
782.731	55.73
782.909	53.77
783.087	54.33
783.265	55.07
783.443	54.55
783.621	54.67
783.799	55.21
783.977	55.7
784.155	54.75
784.333	55.06
784.511	54.67
784.689	55.12
784.867	57
785.045	56.63
785.223	56.97
785.4	56.78
785.578	57.11
785.756	56.34
785.934	55.9
786.112	56.95
786.289	57.06
786.467	57.76
786.645	58.22
786.823	56.81
787	56.95
787.178	55.46
787.356	56.08
787.533	55.27
787.711	55.8
787.889	54.84
788.066	53.27
788.244	52.09
788.421	52
788.599	51.31
788.776	52.23
788.954	51.88
789.131	52.41
789.309	51.26
789.486	50.82
789.664	51.62
789.841	52.72
790.019	52.7
790.196	54.8
790.373	54.51
790.551	55.93
790.728	56.09
790.906	56.66
791.083	56.2
791.26	57.43
791.437	58.82
791.615	57.63
791.792	57.61
791.969	58.61
792.146	57.9
792.324	59.83
792.501	59.58
792.678	59.95
792.855	59.72
793.032	60.02
793.209	60.19
793.387	60.54
793.564	61.21
793.741	62.14
793.918	63.32
794.095	62.85
794.272	61.03
794.449	59.3
794.626	58.57
794.803	58.06
794.98	57.73
795.157	57.56
795.334	56.93
795.511	56.6
795.688	56.6
795.864	54.89
796.041	55.1
796.218	56.37
796.395	57.13
796.572	56.47
796.749	55.94
796.925	56.47
797.102	56.71
797.279	56.61
797.456	56.28
797.632	55.34
797.809	55.29
797.986	55.22
798.162	54.4
798.339	54.19
798.516	54.48
798.692	56.29
798.869	56.21
799.046	55.63
799.222	57.09
799.399	57.1
799.575	57.45
799.752	58.57
799.928	58.95
800.105	59.9
800.281	59.7
800.458	60.01
800.634	59.65
800.811	60.18
800.987	61.13
801.163	60.39
801.34	61.62
801.516	62.65
801.692	63.93
801.869	63.65
802.045	62.43
802.221	63.07
802.398	62.49
802.574	62.45
802.75	62.45
802.926	62.7
803.103	63.2
803.279	62.04
803.455	61.03
803.631	60.62
803.807	62.49
803.983	63.77
804.16	64.23
804.336	66.23
804.512	66.69
804.688	68.02
804.864	67.7
805.04	68.13
805.216	68.32
805.392	69.06
805.568	69.47
805.744	69.31
805.92	69.62
806.096	70.42
806.272	72.19
806.448	72.71
806.623	70.93
806.799	70.43
806.975	70.89
807.151	71.92
807.327	70.29
807.503	70.34
807.678	69.47
807.854	68.5
808.03	68.03
808.206	66.13
808.381	64.97
808.557	66.1
808.733	66.5
808.908	65.48
809.084	65.21
809.26	65.48
809.435	64.04
809.611	63.53
809.787	62.75
809.962	63.75
810.138	64.13
810.313	64.18
810.489	64.7
810.664	63.49
810.84	63.54
811.015	64.85
811.191	66.74
811.366	70.43
811.542	71.5
811.717	71.71
811.892	71
812.068	70.12
812.243	70.97
812.419	71.38
812.594	71.62
812.769	71.67
812.944	69.82
813.12	68.99
813.295	66.01
813.47	64.41
813.645	64.74
813.821	65.14
813.996	64.53
814.171	65.14
814.346	64.08
814.521	65.81
814.697	65.91
814.872	67.77
815.047	68.45
815.222	69.41
815.397	69.59
815.572	70.92
815.747	71.86
815.922	72.09
816.097	71.13
816.272	71.43
816.447	70.3
816.622	70.77
816.797	70.7
816.972	69.72
817.147	69.46
817.322	71.3
817.496	68.55
817.671	67.93
817.846	68.18
818.021	66.96
818.196	65.5
818.371	65.38
818.545	64.09
818.72	63.11
818.895	62.69
819.069	60.84
819.244	58.48
819.419	58.72
819.594	56.46
819.768	55.42
819.943	53.26
820.117	51.43
820.292	48.93
820.467	47.98
820.641	45.56
820.816	43.52
820.99	41.74
821.165	40.14
821.339	38.63
821.514	37.05
821.688	36.02
821.863	35.69
822.037	35.26
822.212	35.06
822.386	34.26
822.56	33.8
822.735	33.61
822.909	33.55
823.084	33.79
823.258	34.05
823.432	34.36
823.606	34.48
823.781	34.62
823.955	34.82
824.129	34.94
824.303	35.56
824.478	36.11
824.652	36.48
824.826	36.96
825	37.02
825.174	37.25
825.348	37.96
825.523	38.41
825.697	38.93
825.871	39.04
826.045	39.57
826.219	39.06
826.393	39.46
826.567	39.21
826.741	39.14
826.915	39.21
827.089	39.43
827.263	39.16
827.437	39.07
827.611	39.24
827.784	39.4
827.958	39.51
828.132	40.01
828.306	40.58
828.48	41.55
828.654	42.01
828.827	42.43
829.001	43.22
829.175	44.02
829.349	45.69
829.522	46.54
829.696	47.99
829.87	49.55
830.044	51.43
830.217	51.82
830.391	52.33
830.565	54.35
830.738	56.44
830.912	56.99
831.085	59.05
831.259	60.77
831.432	60.27
831.606	61.83
831.779	61.22
831.953	60.13
832.126	59.13
832.3	58.47
832.473	57.81
832.647	56.56
832.82	54.57
832.994	53.11
833.167	50.97
833.34	50.6
833.514	48.46
833.687	46.65
833.86	46.53
834.034	45.85
834.207	46.24
834.38	45.25
834.553	45.74
834.727	46.95
834.9	47.27
835.073	47.2
835.246	47.87
835.419	49.23
835.593	51.15
835.766	52.15
835.939	54.67
836.112	55.92
836.285	58.35
836.458	59.05
836.631	59.64
836.804	61.21
836.977	62.9
837.15	64.79
837.323	66.21
837.496	67.29
837.669	69.86
837.842	70.34
838.015	71.8
838.188	72.24
838.361	72.13
838.533	73.14
838.706	74.89
838.879	77.53
839.052	77.53
839.225	77.77
839.398	76.86
839.57	76.15
839.743	74.73
839.916	73.9
840.088	74.51
840.261	74.42
840.434	74.66
840.607	73.08
840.779	72.75
840.952	72.73
841.124	72.89
841.297	75.5
841.47	74.78
841.642	77.05
841.815	79.03
841.987	80.44
842.16	83.87
842.332	85.45
842.505	88.62
842.677	91.49
842.85	94.5
843.022	95.38
843.194	97.13
843.367	100.08
843.539	100.46
843.712	99.26
843.884	98.1
844.056	102.08
844.229	103.18
844.401	104.13
844.573	104.14
844.745	103.35
844.918	105.32
845.09	107.9
845.262	109.91
845.434	110.11
845.606	106.4
845.779	112.29
845.951	112.81
846.123	111.63
846.295	108.57
846.467	107.94
846.639	109.38
846.811	111.4
846.983	108.93
847.155	107.49
847.327	107.32
847.499	114.25
847.671	109.62
847.843	102.8
848.015	106.66
848.187	109.86
848.359	114.46
848.531	113.77
848.703	113.5
848.875	116.87
849.047	116.53
849.218	121
849.39	122.96
849.562	125.8
849.734	123.92
849.905	120.48
850.077	123.64
850.249	122.24
850.421	123.47
850.592	121.7
850.764	119.42
850.936	123.39
851.107	127.34
851.279	127.48
851.451	127.76
851.622	130.78
851.794	138.29
851.965	128.28
852.137	126.63
852.308	129.05
852.48	138.81
852.651	141.77
852.823	138.57
852.994	131.34
853.166	132.53
853.337	136.12
853.509	139.89
853.68	133.95
853.851	134.67
854.023	135.55
854.194	131.99
854.365	121.63
854.537	118.97
854.708	122.93
854.879	128.97
855.05	127.51
855.222	125.84
855.393	128.35
855.564	132.59
855.735	137.59
855.906	138.96
856.078	143
856.249	149.55
856.42	150.61
856.591	144.42
856.762	141.43
856.933	137.61
857.104	137.07
857.275	131.54
857.446	132.01
857.617	136.48
857.788	136.14
857.959	133.74
858.13	134.75
858.301	140.28
858.472	139.44
858.643	138.91
858.814	143.35
858.985	143.33
859.155	151.59
859.326	148.22
859.497	143.47
859.668	141.66
859.839	141.04
860.009	136.76
860.18	132.91
860.351	139.73
860.522	139.99
860.692	143.16
860.863	145.35
861.034	146.65
861.204	148.6
861.375	153.52
861.546	154.21
861.716	149.57
861.887	154.07
862.057	158.26
862.228	153.7
862.398	143.74
862.569	138.82
862.739	137.66
862.91	134.65
863.08	141.25
863.251	139.26
863.421	139.29
863.592	148.81
863.762	146.18
863.932	137.04
864.103	138.89
864.273	138.14
864.443	136.6
864.614	137.8
864.784	142.92
864.954	138.73
865.125	132.87
865.295	139.59
865.465	136.78
865.635	135.57
865.805	141.46
865.976	145.86
866.146	150.17
866.316	146.99
866.486	145.63
866.656	145.93
866.826	146.66
866.996	153.97
867.166	150.67
867.336	149.52
867.506	148.38
867.676	143.36
867.846	146.41
868.016	147.82
868.186	158.62
868.356	163.77
868.526	156.51
868.696	155.26
868.866	155.9
869.036	154.89
869.206	159.29
869.376	161.39
869.545	165.2
869.715	166.87
869.885	174.18
870.055	166.47
870.224	160.87
870.394	168.86
870.564	166.47
870.734	161.58
870.903	157.73
871.073	156.08
871.243	151.22
871.412	158.39
871.582	153.05
871.751	149.59
871.921	148.09
872.091	150.67
872.26	143.68
872.43	137.68
872.599	138.91
872.769	133.63
872.938	132.65
873.108	142.81
873.277	135.72
873.446	133.64
873.616	136.55
873.785	136.75
873.955	130.07
874.124	133.5
874.293	136.88
874.463	141.38
874.632	144.89
874.801	148.01
874.971	137.19
875.14	145.4
875.309	152.36
875.478	150.45
875.647	154.84
875.817	155.22
875.986	154.32
876.155	156.35
876.324	149.24
876.493	154.88
876.662	152.06
876.831	152.83
877	147.83
877.17	140.73
877.339	142.4
877.508	143.46
877.677	148.46
877.846	147.67
878.015	147.84
878.184	141.81
878.352	139.43
878.521	134.11
878.69	136.3
878.859	132.19
879.028	129.16
879.197	124.11
879.366	117.98
879.534	113.34
879.703	103.54
879.872	93.21
880.041	88.22
880.21	81.8
880.378	77.16
880.547	73.22
880.716	66.1
880.884	62.28
881.053	58
881.222	54.71
881.39	52.25
881.559	50.46
881.727	48.77
881.896	47.83
882.065	47.24
882.233	46.38
882.402	44.85
882.57	45.11
882.739	44.24
882.907	44.15
883.076	44.75
883.244	44.45
883.412	44.98
883.581	46.05
883.749	47.02
883.918	47.61
884.086	49.72
884.254	52.57
884.423	54.99
884.591	57.99
884.759	60.54
884.927	63.45
885.096	66.14
885.264	70.72
885.432	75.33
885.6	77.82
885.769	80.46
885.937	84.38
886.105	85.95
886.273	88.92
886.441	91.81
886.609	96.05
886.777	96.6
886.945	100.26
887.113	103.09
887.281	102.11
887.449	112.4
887.617	114.1
887.785	113.88
887.953	117.65
888.121	121.41
888.289	124.8
888.457	124.95
888.625	129.04
888.793	132.42
888.961	130.66
889.129	134.84
889.296	128.58
889.464	133.87
889.632	133.38
889.8	133.63
889.967	131.51
890.135	130.19
