Data from 2938808__Reflection_01.txt Node
Date: Thu Mar 12 21:53:19 EDT 2015
User: robert
Spectrometer: USB4E03002
Autoset integration time: false
Trigger mode: 4
Integration Time (sec): 1.000000E-1
Scans to average: 10
Electric dark correction enabled: false
Nonlinearity correction enabled: false
Boxcar width: 5
Stray light correction enabled: false
XAxis mode: Wavelengths
Stop averaging: false
Number of Pixels in Spectrum: 3648
>>>>>Begin Spectral Data<<<<<
177.575	525.12
177.794	426.29
178.014	496.59
178.233	509.52
178.452	445.42
178.672	445.18
178.891	464.65
179.11	438.72
179.33	422.94
179.549	405.01
179.768	421.47
179.987	444.78
180.207	469.31
180.426	470.14
180.645	454.73
180.864	533.81
181.084	552.54
181.303	507.45
181.522	533.02
181.741	655.84
181.96	606.54
182.179	647.45
182.398	601.27
182.618	591.53
182.837	600.76
183.056	597.81
183.275	627.85
183.494	683.15
183.713	676.65
183.932	654.35
184.151	626.94
184.37	646.78
184.589	676.77
184.808	729.76
185.027	1023.35
185.246	1031.84
185.465	1101.01
185.684	883.12
185.903	670.98
186.122	734.19
186.341	847.9
186.56	809.24
186.779	792.92
186.998	841.98
187.216	808.62
187.435	661.37
187.654	511.78
187.873	508.18
188.092	469.18
188.311	650.66
188.53	750.35
188.748	810.07
188.967	797.72
189.186	800.87
189.405	725.71
189.623	702.93
189.842	670.14
190.061	797.25
190.28	868.89
190.498	1384.5
190.717	1065.96
190.936	960.94
191.154	725.89
191.373	746.99
191.592	758.15
191.81	765.72
192.029	733.67
192.248	1078.89
192.466	897.83
192.685	890.73
192.904	747.35
193.122	651.02
193.341	549.86
193.559	594.66
193.778	548.18
193.996	513.04
194.215	464.56
194.433	460.14
194.652	401.88
194.87	453.87
195.089	469.58
195.307	428.65
195.526	432.39
195.744	488.06
195.963	538.67
196.181	523.28
196.399	501.07
196.618	557.52
196.836	635.1
197.055	601.07
197.273	530.61
197.491	452.08
197.71	446.6
197.928	388.5
198.146	375.49
198.365	357.72
198.583	360.87
198.801	395.83
199.019	400.5
199.238	376.79
199.456	367.24
199.674	359.12
199.892	414.66
200.111	484.99
200.329	558.5
200.547	512.96
200.765	482.64
200.983	489.44
201.202	510.04
201.42	485.22
201.638	521.38
201.856	621.15
202.074	740.43
202.292	694.52
202.51	575.86
202.728	583.59
202.946	599.67
203.165	644.84
203.383	696.35
203.601	640.77
203.819	616.74
204.037	577.31
204.255	573.79
204.473	521.84
204.691	466.19
204.909	486.89
205.127	536.64
205.345	515.59
205.562	527.06
205.78	463.43
205.998	429.47
206.216	412.55
206.434	445.53
206.652	422.86
206.87	427.69
207.088	483.68
207.306	457.85
207.523	412.42
207.741	427.47
207.959	407.29
208.177	405.35
208.395	424.07
208.612	452.43
208.83	430.4
209.048	408.31
209.266	421.01
209.483	398.97
209.701	412.4
209.919	502.8
210.136	463.28
210.354	545.27
210.572	561.55
210.79	508.83
211.007	448.86
211.225	398.41
211.442	384.75
211.66	390.73
211.878	409.01
212.095	362.8
212.313	327.86
212.53	353.27
212.748	313.27
212.966	310.24
213.183	330.47
213.401	346.19
213.618	358.25
213.836	374.75
214.053	357.15
214.271	346.82
214.488	412.3
214.705	392.39
214.923	339.11
215.14	356.23
215.358	385.3
215.575	393.47
215.793	393.59
216.01	437.76
216.227	471.67
216.445	485.35
216.662	457.19
216.879	461.14
217.097	519.14
217.314	683.98
217.531	579.91
217.749	565.07
217.966	510.02
218.183	495.57
218.4	456.13
218.618	406.61
218.835	378.94
219.052	383.61
219.269	349.24
219.487	328.58
219.704	315.25
219.921	299.09
220.138	263.94
220.355	262.81
220.572	256.33
220.79	241.48
221.007	249.04
221.224	252.24
221.441	242.44
221.658	240.66
221.875	224.11
222.092	219.21
222.309	224.65
222.526	227.61
222.743	222.34
222.96	222.35
223.177	222.47
223.394	207.43
223.611	201.49
223.828	198.81
224.045	191.99
224.262	189.97
224.479	178.21
224.696	165.92
224.913	152.46
225.13	140.26
225.347	127.86
225.564	114.68
225.781	107.28
225.997	95.03
226.214	90.42
226.431	82.37
226.648	74.41
226.865	67.89
227.082	60.08
227.298	54.88
227.515	48.64
227.732	45.06
227.949	41.92
228.165	38.72
228.382	37.12
228.599	34.29
228.816	32.99
229.032	32.27
229.249	31.41
229.466	31.59
229.682	31.49
229.899	32.63
230.116	33.49
230.332	33.96
230.549	34.82
230.765	35.12
230.982	37.01
231.199	39.17
231.415	42.24
231.632	44.04
231.848	46.47
232.065	48
232.281	50.74
232.498	50.09
232.714	52.38
232.931	54.23
233.147	54.46
233.364	52.87
233.58	52.21
233.797	51.6
234.013	50.99
234.23	49.44
234.446	49.1
234.662	47.72
234.879	48.2
235.095	46.83
235.312	46.01
235.528	46.08
235.744	48.57
235.961	48.82
236.177	47.84
236.393	49.77
236.61	48.78
236.826	49.33
237.042	49.73
237.258	49.72
237.475	50.97
237.691	51.14
237.907	52.04
238.123	50.49
238.339	50.24
238.556	50.98
238.772	48.69
238.988	49.65
239.204	47.99
239.42	46.56
239.636	44.94
239.853	42.73
240.069	41.24
240.285	38.78
240.501	35.97
240.717	33.44
240.933	31.19
241.149	29.13
241.365	27.23
241.581	25.95
241.797	24.56
242.013	22.97
242.229	22.31
242.445	21.56
242.661	21.47
242.877	21.65
243.093	21.61
243.309	21.66
243.525	22.3
243.741	23.11
243.957	24.14
244.173	24.42
244.388	25.97
244.604	26.23
244.82	25.98
245.036	25.1
245.252	24.36
245.468	23.66
245.683	22.21
245.899	21.09
246.115	19.61
246.331	17.92
246.547	17.14
246.762	16.23
246.978	15.65
247.194	15.72
247.409	15.41
247.625	15.23
247.841	14.96
248.057	15.23
248.272	15.24
248.488	15.55
248.703	16.09
248.919	16.71
249.135	17.56
249.35	18.68
249.566	19.44
249.782	20.85
249.997	22.36
250.213	23.26
250.428	24.09
250.644	24.93
250.859	25.89
251.075	25.76
251.29	25.63
251.506	25.34
251.721	25.45
251.937	25.31
252.152	24.66
252.368	24.03
252.583	24.7
252.798	24.81
253.014	24.66
253.229	24.46
253.445	26.01
253.66	27.35
253.875	28.47
254.091	29.14
254.306	29.24
254.521	30.36
254.737	31.57
254.952	31.15
255.167	31
255.383	31.8
255.598	32.36
255.813	31.53
256.028	30.7
256.244	29.83
256.459	28.63
256.674	28.31
256.889	27.84
257.104	26.29
257.32	25.77
257.535	24.28
257.75	23.38
257.965	21.82
258.18	20.16
258.395	18.64
258.61	17.03
258.826	15.83
259.041	14.73
259.256	13.6
259.471	13.4
259.686	12.68
259.901	12.57
260.116	11.99
260.331	11.73
260.546	11.82
260.761	11.9
260.976	12.34
261.191	12.74
261.406	13.32
261.621	14.38
261.836	14.65
262.05	15.84
262.265	16.59
262.48	17.68
262.695	18.8
262.91	19.63
263.125	20.39
263.34	20.88
263.555	21.92
263.769	22.34
263.984	21.97
264.199	22.92
264.414	22.8
264.629	22.6
264.843	22.38
265.058	21.73
265.273	20.86
265.488	20.55
265.702	20.22
265.917	19.63
266.132	19.35
266.346	19.2
266.561	18.69
266.776	18.36
266.99	18.52
267.205	18.79
267.42	19.08
267.634	19.29
267.849	19.14
268.063	19.02
268.278	18.87
268.492	18.87
268.707	19.29
268.922	19.5
269.136	19.51
269.351	19.32
269.565	18.78
269.78	18
269.994	17.93
270.209	17.99
270.423	17.57
270.637	16.96
270.852	16.5
271.066	16.09
271.281	15.41
271.495	15.23
271.709	14.77
271.924	14.58
272.138	14.85
272.353	14.51
272.567	14.35
272.781	14.43
272.996	14.65
273.21	14.98
273.424	14.62
273.638	15.06
273.853	14.98
274.067	15.55
274.281	16.05
274.495	16.12
274.71	16.1
274.924	16.11
275.138	16.66
275.352	16.96
275.566	17
275.781	17.36
275.995	16.99
276.209	17.3
276.423	17.27
276.637	17.29
276.851	17.63
277.065	18.06
277.279	18.36
277.493	18.1
277.707	18.28
277.921	18.31
278.135	18.43
278.349	18.65
278.563	18.53
278.777	18.34
278.991	18.37
279.205	17.82
279.419	17.73
279.633	17.42
279.847	16.89
280.061	16.67
280.275	16.36
280.489	16.32
280.703	16.42
280.917	15.95
281.131	15.75
281.344	15.27
281.558	15.24
281.772	15.25
281.986	14.74
282.2	14.91
282.414	14.72
282.627	14.76
282.841	14.98
283.055	14.53
283.269	14.63
283.482	14.76
283.696	14.55
283.91	14.31
284.123	13.83
284.337	13.9
284.551	13.8
284.764	13.66
284.978	13.28
285.192	12.5
285.405	12.48
285.619	12.26
285.833	11.93
286.046	12.11
286.26	12.15
286.473	12.21
286.687	12.47
286.9	12.34
287.114	12.57
287.327	12.86
287.541	13.28
287.754	13.27
287.968	13.53
288.181	13.71
288.395	13.58
288.608	13.63
288.822	13.54
289.035	13.5
289.248	13.53
289.462	13.16
289.675	13.19
289.889	12.98
290.102	13.18
290.315	13.38
290.529	13.61
290.742	13.65
290.955	13.9
291.169	14.08
291.382	14.17
291.595	14.52
291.808	14.79
292.022	15.17
292.235	15.48
292.448	15.46
292.661	15.53
292.875	15.77
293.088	15.97
293.301	16.02
293.514	16.02
293.727	16.15
293.94	15.8
294.153	15.75
294.367	15.37
294.58	15.01
294.793	14.99
295.006	14.69
295.219	14.37
295.432	14.3
295.645	14.01
295.858	13.83
296.071	13.31
296.284	13.21
296.497	13.03
296.71	12.65
296.923	12.56
297.136	12.31
297.349	12.3
297.562	12.07
297.775	11.98
297.988	11.88
298.201	12.11
298.414	12.46
298.626	12.7
298.839	12.93
299.052	13.3
299.265	13.74
299.478	14.29
299.691	14.32
299.903	14.52
300.116	14.96
300.329	15.25
300.542	15.4
300.755	15.67
300.967	15.86
301.18	16.01
301.393	16.04
301.605	16.06
301.818	15.92
302.031	16
302.243	16.47
302.456	16.32
302.669	16.43
302.881	16.63
303.094	16.51
303.307	16.38
303.519	16.64
303.732	16.9
303.944	17.01
304.157	17.15
304.37	17.21
304.582	17.07
304.795	17.26
305.007	17.31
305.22	17.23
305.432	17.1
305.645	17.54
305.857	17.43
306.069	17.53
306.282	17.59
306.494	17.37
306.707	17.62
306.919	17.57
307.132	17.24
307.344	17.24
307.556	17.12
307.769	17.26
307.981	17.07
308.193	16.73
308.406	16.14
308.618	15.99
308.83	16
309.043	16
309.255	15.76
309.467	15.74
309.679	15.54
309.892	15.2
310.104	14.91
310.316	14.64
310.528	14.61
310.74	14.69
310.953	14.55
311.165	14.48
311.377	14.36
311.589	14.41
311.801	14.41
312.013	14.58
312.225	15.17
312.437	15.42
312.649	15.79
312.862	16.1
313.074	16.45
313.286	16.76
313.498	17
313.71	17.31
313.922	17.85
314.134	18.1
314.346	18.32
314.558	18.16
314.77	18.32
314.982	18.12
315.193	18.13
315.405	18.24
315.617	18.56
315.829	18.68
316.041	18.8
316.253	18.77
316.465	19.06
316.677	19.33
316.888	19.22
317.1	19.2
317.312	19.53
317.524	19.62
317.736	19.93
317.947	20.15
318.159	20.63
318.371	20.5
318.583	20.52
318.794	20.35
319.006	20.17
319.218	20.66
319.43	20.82
319.641	21.02
319.853	21.15
320.064	21.24
320.276	20.91
320.488	21.03
320.699	21.51
320.911	21.84
321.123	22.29
321.334	22.64
321.546	22.81
321.757	23.19
321.969	23.4
322.18	23.35
322.392	23.16
322.603	23.57
322.815	23.41
323.026	23.06
323.238	22.9
323.449	22.51
323.661	22.19
323.872	21.84
324.083	21.66
324.295	21.64
324.506	21.62
324.718	21.78
324.929	21.52
325.14	21.41
325.352	21.44
325.563	21.53
325.774	22.17
325.986	22.38
326.197	22.66
326.408	22.81
326.62	22.92
326.831	23.38
327.042	23.46
327.253	23.65
327.464	24.19
327.676	24.27
327.887	24.94
328.098	25.23
328.309	25.74
328.52	26.56
328.732	26.92
328.943	27.37
329.154	27.59
329.365	28.07
329.576	28.56
329.787	29.05
329.998	29.75
330.209	29.73
330.42	29.93
330.631	30.08
330.842	29.92
331.053	30.22
331.264	30.36
331.475	31.17
331.686	31.61
331.897	32.02
332.108	31.87
332.319	32.23
332.53	32.28
332.741	32.37
332.952	32.99
333.163	33.17
333.374	33.32
333.585	33.59
333.795	33.33
334.006	33.73
334.217	33.78
334.428	33.99
334.639	34.14
334.849	34.58
335.06	34.76
335.271	34.4
335.482	34.38
335.692	34.42
335.903	34.57
336.114	34.5
336.325	34.32
336.535	34.62
336.746	34.74
336.957	34.66
337.167	34.44
337.378	34.3
337.589	34.55
337.799	34.9
338.01	35.22
338.22	35.4
338.431	35.71
338.642	35.63
338.852	35.17
339.063	35.31
339.273	35.39
339.484	35.51
339.694	35.53
339.905	35.64
340.115	35.64
340.326	35.56
340.536	35.09
340.746	34.9
340.957	34.72
341.167	35.14
341.378	34.88
341.588	34.82
341.799	34.77
342.009	35.05
342.219	34.83
342.43	34.68
342.64	34.34
342.85	34.37
343.061	34.26
343.271	34.4
343.481	34.15
343.691	33.88
343.902	33.78
344.112	33.64
344.322	33.53
344.532	33.45
344.743	33.38
344.953	33.37
345.163	33.59
345.373	33.64
345.583	33.65
345.793	33.44
346.004	33.71
346.214	33.83
346.424	34.18
346.634	33.86
346.844	33.82
347.054	33.73
347.264	33.78
347.474	33.56
347.684	33.72
347.894	33.99
348.104	34.15
348.314	34.31
348.524	34.42
348.734	34.25
348.944	34.24
349.154	34.14
349.364	34.35
349.574	34.55
349.784	34.56
349.994	34.34
350.204	33.82
350.413	33.81
350.623	33.78
350.833	33.66
351.043	33.64
351.253	33.71
351.463	33.66
351.672	33.69
351.882	33.55
352.092	33.36
352.302	33.19
352.511	33.51
352.721	33.52
352.931	33.43
353.141	33.58
353.35	33.67
353.56	33.59
353.77	33.75
353.979	33.44
354.189	33.21
354.399	33.41
354.608	33.56
354.818	33.24
355.027	33
355.237	32.8
355.447	32.49
355.656	32.14
355.866	31.96
356.075	31.72
356.285	31.43
356.494	31.49
356.704	31.37
356.913	31.31
357.123	31.01
357.332	30.98
357.542	30.77
357.751	30.7
357.96	30.81
358.17	30.72
358.379	30.65
358.589	30.82
358.798	30.7
359.007	30.38
359.217	30.25
359.426	30.3
359.635	30.12
359.845	30.06
360.054	29.97
360.263	29.53
360.472	29.46
360.682	29.42
360.891	29.28
361.1	29.26
361.309	29.41
361.519	29.42
361.728	29.38
361.937	29.5
362.146	29.51
362.355	29.41
362.564	29.63
362.774	29.7
362.983	29.62
363.192	29.81
363.401	29.91
363.61	29.69
363.819	29.59
364.028	29.72
364.237	29.7
364.446	29.8
364.655	29.77
364.864	29.93
365.073	29.9
365.282	29.9
365.491	29.6
365.7	29.58
365.909	29.77
366.118	29.81
366.327	29.81
366.536	29.94
366.745	30.06
366.954	30.25
367.162	30.2
367.371	30.2
367.58	30.39
367.789	30.48
367.998	30.48
368.207	30.38
368.415	30.43
368.624	30.65
368.833	30.43
369.042	30.32
369.25	30.12
369.459	30.15
369.668	30.04
369.877	29.97
370.085	30.02
370.294	29.93
370.503	29.93
370.711	29.85
370.92	29.62
371.129	29.57
371.337	29.32
371.546	29.33
371.754	28.97
371.963	29.21
372.171	29.13
372.38	29.07
372.589	29.18
372.797	29.09
373.006	29
373.214	28.81
373.423	28.89
373.631	28.98
373.84	28.95
374.048	29.04
374.256	28.73
374.465	28.87
374.673	28.69
374.882	28.48
375.09	28.83
375.298	28.88
375.507	28.88
375.715	28.78
375.923	28.82
376.132	28.89
376.34	28.8
376.548	28.77
376.757	28.31
376.965	28.35
377.173	28.36
377.381	28.32
377.59	28.24
377.798	28.09
378.006	28.06
378.214	28.09
378.423	27.95
378.631	27.96
378.839	28.1
379.047	28.11
379.255	28.15
379.463	27.94
379.671	27.56
379.879	27.69
380.088	27.86
380.296	27.78
380.504	27.59
380.712	27.88
380.92	27.93
381.128	27.92
381.336	28.18
381.544	28.23
381.752	28.46
381.96	28.49
382.168	28.3
382.376	28.27
382.584	28.19
382.791	28.15
382.999	27.99
383.207	27.96
383.415	27.89
383.623	28.07
383.831	27.92
384.039	27.99
384.247	27.91
384.454	27.84
384.662	27.91
384.87	28.01
385.078	28.08
385.285	27.91
385.493	27.81
385.701	27.69
385.909	27.43
386.116	27.42
386.324	27.11
386.532	27.21
386.739	27.16
386.947	26.99
387.155	26.89
387.362	26.87
387.57	26.84
387.778	26.93
387.985	26.99
388.193	26.9
388.4	26.87
388.608	26.97
388.816	27
389.023	26.99
389.231	27.1
389.438	27.08
389.646	27.09
389.853	27.01
390.061	26.91
390.268	26.79
390.475	26.76
390.683	26.77
390.89	26.69
391.098	26.53
391.305	26.58
391.512	26.38
391.72	26.33
391.927	26.17
392.135	26.06
392.342	25.81
392.549	25.72
392.756	25.5
392.964	25.48
393.171	25.48
393.378	25.49
393.586	25.25
393.793	25.15
394	25.14
394.207	25.24
394.414	25.5
394.622	25.73
394.829	25.77
395.036	25.94
395.243	26.03
395.45	25.73
395.657	25.78
395.864	26.11
396.072	26.23
396.279	26.05
396.486	25.85
396.693	25.73
396.9	25.55
397.107	25.61
397.314	25.78
397.521	25.56
397.728	25.85
397.935	25.86
398.142	25.58
398.349	25.62
398.556	25.68
398.763	25.8
398.97	25.74
399.177	25.9
399.383	25.9
399.59	25.82
399.797	25.93
400.004	26.02
400.211	25.97
400.418	26.11
400.625	26
400.831	26.06
401.038	26.05
401.245	26.15
401.452	26.14
401.658	26.03
401.865	26
402.072	25.89
402.279	25.72
402.485	25.71
402.692	25.65
402.899	25.73
403.105	25.67
403.312	25.54
403.519	25.33
403.725	25.19
403.932	25.06
404.138	25
404.345	24.97
404.552	24.91
404.758	24.95
404.965	24.91
405.171	24.89
405.378	25.01
405.584	25.1
405.791	25.02
405.997	25.08
406.204	25.22
406.41	25.31
406.617	25.29
406.823	25.3
407.029	25.22
407.236	25.33
407.442	25.46
407.649	25.37
407.855	25.25
408.061	25.44
408.268	25.51
408.474	25.43
408.68	25.37
408.887	25.45
409.093	25.48
409.299	25.33
409.505	25.26
409.712	25.04
409.918	25.07
410.124	25.07
410.33	25.13
410.537	25.01
410.743	25.29
410.949	25.29
411.155	25.39
411.361	25.35
411.567	25.58
411.773	25.61
411.98	25.67
412.186	25.74
412.392	25.79
412.598	25.83
412.804	25.85
413.01	25.66
413.216	25.74
413.422	25.71
413.628	25.79
413.834	25.65
414.04	25.65
414.246	25.48
414.452	25.5
414.658	25.38
414.864	25.14
415.07	25.08
415.275	25
415.481	24.77
415.687	24.73
415.893	24.55
416.099	24.41
416.305	24.19
416.511	24.26
416.716	24.11
416.922	24.15
417.128	24.21
417.334	24.2
417.539	24.11
417.745	24.16
417.951	24.05
418.157	24.06
418.362	24.08
418.568	24.13
418.774	24.02
418.979	24.04
419.185	23.92
419.391	23.85
419.596	23.73
419.802	23.73
420.008	23.67
420.213	23.67
420.419	23.64
420.624	23.65
420.83	23.65
421.035	23.63
421.241	23.57
421.446	23.57
421.652	23.51
421.857	23.56
422.063	23.56
422.268	23.57
422.474	23.49
422.679	23.52
422.885	23.48
423.09	23.39
423.295	23.36
423.501	23.26
423.706	23.3
423.911	23.35
424.117	23.33
424.322	23.32
424.527	23.25
424.733	23.26
424.938	23.23
425.143	23.15
425.349	23.16
425.554	23.21
425.759	23.29
425.964	23.32
426.169	23.36
426.375	23.41
426.58	23.44
426.785	23.49
426.99	23.59
427.195	23.53
427.4	23.72
427.605	23.87
427.811	24.04
428.016	24.14
428.221	24.17
428.426	24.19
428.631	24.26
428.836	24.28
429.041	24.31
429.246	24.35
429.451	24.58
429.656	24.6
429.861	24.56
430.066	24.63
430.271	24.61
430.476	24.58
430.681	24.54
430.886	24.41
431.09	24.49
431.295	24.43
431.5	24.47
431.705	24.28
431.91	24.31
432.115	24.25
432.32	24.1
432.524	24.09
432.729	24.18
432.934	24.16
433.139	24.28
433.343	24.24
433.548	24.32
433.753	24.33
433.958	24.31
434.162	24.25
434.367	24.28
434.572	24.35
434.776	24.32
434.981	24.23
435.186	24.22
435.39	24.21
435.595	24.19
435.799	24.17
436.004	24.17
436.209	24.3
436.413	24.3
436.618	24.29
436.822	24.17
437.027	24.26
437.231	24.27
437.436	24.22
437.64	24.04
437.845	24.09
438.049	24.08
438.253	24.08
438.458	24.07
438.662	24.06
438.867	24.06
439.071	24.11
439.275	24.11
439.48	24.12
439.684	24.11
439.888	24.22
440.093	24.1
440.297	24.1
440.501	24.12
440.706	24.05
440.91	24.08
441.114	24.08
441.318	24.06
441.523	23.99
441.727	24.04
441.931	24.09
442.135	24.03
442.339	24.13
442.543	24.27
442.748	24.17
442.952	24.18
443.156	24.13
443.36	24.13
443.564	24.15
443.768	24.21
443.972	24.17
444.176	24.17
444.38	24.2
444.584	24.2
444.788	24.03
444.992	24.01
445.196	24
445.4	24.01
445.604	23.93
445.808	23.93
446.012	23.86
446.216	23.79
446.42	23.79
446.624	23.73
446.828	23.67
447.032	23.67
447.235	23.61
447.439	23.52
447.643	23.46
447.847	23.54
448.051	23.54
448.254	23.63
448.458	23.67
448.662	23.65
448.866	23.69
449.069	23.7
449.273	23.79
449.477	23.94
449.681	24.23
449.884	24.26
450.088	24.34
450.292	24.42
450.495	24.41
450.699	24.48
450.902	24.55
451.106	24.63
451.31	24.72
451.513	24.67
451.717	24.65
451.92	24.5
452.124	24.54
452.327	24.51
452.531	24.39
452.734	24.34
452.938	24.29
453.141	24.28
453.345	24.21
453.548	24.22
453.752	24.23
453.955	24.22
454.158	24.33
454.362	24.33
454.565	24.33
454.769	24.4
454.972	24.51
455.175	24.53
455.379	24.52
455.582	24.6
455.785	24.51
455.988	24.61
456.192	24.56
456.395	24.49
456.598	24.51
456.801	24.46
457.005	24.44
457.208	24.47
457.411	24.42
457.614	24.44
457.817	24.35
458.021	24.35
458.224	24.24
458.427	24.15
458.63	24.05
458.833	24.01
459.036	23.91
459.239	23.85
459.442	23.68
459.645	23.65
459.848	23.56
460.051	23.59
460.254	23.6
460.457	23.52
460.66	23.58
460.863	23.57
461.066	23.59
461.269	23.63
461.472	23.68
461.675	23.8
461.878	23.93
462.081	24.09
462.284	24.12
462.486	24.2
462.689	24.36
462.892	24.49
463.095	24.58
463.298	24.65
463.5	24.66
463.703	24.64
463.906	24.72
464.109	24.65
464.311	24.62
464.514	24.57
464.717	24.54
464.92	24.42
465.122	24.25
465.325	24.21
465.528	24.18
465.73	24.3
465.933	24.33
466.135	24.27
466.338	24.24
466.541	24.31
466.743	24.26
466.946	24.3
467.148	24.45
467.351	24.45
467.553	24.48
467.756	24.48
467.958	24.45
468.161	24.51
468.363	24.48
468.566	24.52
468.768	24.46
468.971	24.57
469.173	24.53
469.375	24.51
469.578	24.58
469.78	24.64
469.983	24.71
470.185	24.68
470.387	24.64
470.59	24.71
470.792	24.77
470.994	24.74
471.196	24.66
471.399	24.72
471.601	24.63
471.803	24.72
472.005	24.79
472.208	24.72
472.41	24.68
472.612	24.61
472.814	24.56
473.016	24.5
473.218	24.56
473.421	24.59
473.623	24.45
473.825	24.47
474.027	24.37
474.229	24.31
474.431	24.38
474.633	24.44
474.835	24.5
475.037	24.46
475.239	24.51
475.441	24.48
475.643	24.5
475.845	24.39
476.047	24.41
476.249	24.4
476.451	24.43
476.653	24.4
476.855	24.36
477.057	24.36
477.258	24.36
477.46	24.33
477.662	24.26
477.864	24.15
478.066	24.27
478.268	24.29
478.469	24.27
478.671	24.21
478.873	24.13
479.075	24.09
479.276	24.01
479.478	24.08
479.68	23.96
479.882	23.93
480.083	23.95
480.285	23.88
480.487	23.85
480.688	23.77
480.89	23.7
481.091	23.67
481.293	23.66
481.495	23.63
481.696	23.47
481.898	23.43
482.099	23.32
482.301	23.23
482.502	23.17
482.704	23.03
482.905	22.95
483.107	22.87
483.308	22.75
483.51	22.69
483.711	22.61
483.913	22.63
484.114	22.6
484.315	22.59
484.517	22.62
484.718	22.62
484.92	22.63
485.121	22.67
485.322	22.71
485.524	22.78
485.725	22.8
485.926	22.85
486.127	22.83
486.329	22.88
486.53	22.92
486.731	22.89
486.932	22.89
487.134	22.91
487.335	22.9
487.536	22.9
487.737	22.92
487.938	22.92
488.139	22.91
488.341	22.87
488.542	22.85
488.743	22.84
488.944	22.85
489.145	22.86
489.346	22.88
489.547	22.89
489.748	22.88
489.949	22.87
490.15	22.87
490.351	22.91
490.552	23
490.753	22.99
490.954	23.03
491.155	23.01
491.356	23.01
491.557	22.99
491.758	22.99
491.959	22.99
492.159	23.03
492.36	23.1
492.561	23.1
492.762	23.11
492.963	23.2
493.164	23.22
493.364	23.32
493.565	23.35
493.766	23.38
493.967	23.48
494.167	23.54
494.368	23.56
494.569	23.63
494.769	23.7
494.97	23.8
495.171	23.75
495.371	23.8
495.572	23.84
495.773	23.91
495.973	24.06
496.174	24.13
496.375	24.14
496.575	24.16
496.776	24.14
496.976	24.2
497.177	24.08
497.377	24.12
497.578	24.14
497.778	24.14
497.979	24.18
498.179	24.1
498.38	24.05
498.58	24.08
498.78	24.1
498.981	24.17
499.181	24.16
499.382	24.26
499.582	24.32
499.782	24.35
499.983	24.3
500.183	24.28
500.383	24.42
500.584	24.49
500.784	24.5
500.984	24.59
501.184	24.61
501.385	24.68
501.585	24.67
501.785	24.67
501.985	24.75
502.185	24.82
502.386	24.86
502.586	24.79
502.786	24.86
502.986	24.98
503.186	25.02
503.386	24.98
503.586	25.02
503.786	25.06
503.987	25.09
504.187	25.09
504.387	25.14
504.587	25.21
504.787	25.26
504.987	25.22
505.187	25.23
505.387	25.31
505.587	25.37
505.786	25.43
505.986	25.46
506.186	25.44
506.386	25.52
506.586	25.47
506.786	25.51
506.986	25.49
507.186	25.55
507.386	25.6
507.585	25.57
507.785	25.54
507.985	25.4
508.185	25.43
508.384	25.54
508.584	25.53
508.784	25.6
508.984	25.65
509.183	25.75
509.383	25.79
509.583	25.78
509.782	25.69
509.982	25.8
510.182	25.91
510.381	25.93
510.581	25.92
510.781	25.9
510.98	25.95
511.18	25.9
511.379	25.82
511.579	25.85
511.778	25.89
511.978	25.93
512.177	25.94
512.377	25.87
512.576	25.85
512.776	25.93
512.975	25.96
513.175	25.97
513.374	25.97
513.573	26.04
513.773	26.1
513.972	26.13
514.172	26.25
514.371	26.31
514.57	26.48
514.77	26.53
514.969	26.58
515.168	26.67
515.367	26.72
515.567	26.84
515.766	26.9
515.965	26.9
516.164	26.99
516.364	26.98
516.563	26.96
516.762	26.91
516.961	26.92
517.16	26.92
517.359	26.92
517.559	26.91
517.758	26.86
517.957	26.88
518.156	26.88
518.355	26.82
518.554	26.77
518.753	26.77
518.952	26.85
519.151	26.99
519.35	27.01
519.549	27.03
519.748	27.05
519.947	27.17
520.146	27.21
520.345	27.25
520.544	27.35
520.743	27.43
520.942	27.46
521.141	27.4
521.339	27.36
521.538	27.37
521.737	27.39
521.936	27.52
522.135	27.57
522.333	27.7
522.532	27.72
522.731	27.82
522.93	27.97
523.129	28.12
523.327	28.27
523.526	28.32
523.725	28.36
523.923	28.43
524.122	28.46
524.321	28.46
524.519	28.31
524.718	28.36
524.917	28.35
525.115	28.26
525.314	28.19
525.512	28.15
525.711	28.14
525.909	28.11
526.108	28.1
526.306	28.1
526.505	28.07
526.703	28.07
526.902	28.03
527.1	27.98
527.299	27.96
527.497	28
527.696	28
527.894	27.97
528.092	27.98
528.291	28
528.489	27.97
528.688	27.95
528.886	27.98
529.084	28.02
529.283	28.04
529.481	28.13
529.679	28.13
529.877	28.17
530.076	28.26
530.274	28.33
530.472	28.4
530.67	28.52
530.869	28.65
531.067	28.8
531.265	28.86
531.463	28.92
531.661	28.99
531.859	29.06
532.057	29.16
532.255	29.15
532.454	29.21
532.652	29.16
532.85	29.14
533.048	29.11
533.246	29.06
533.444	29.1
533.642	29.15
533.84	29.15
534.038	29.2
534.236	29.15
534.434	29.19
534.632	29.19
534.83	29.29
535.027	29.32
535.225	29.34
535.423	29.41
535.621	29.45
535.819	29.53
536.017	29.55
536.215	29.57
536.412	29.66
536.61	29.73
536.808	29.79
537.006	29.76
537.203	29.9
537.401	30.04
537.599	30.06
537.797	30.13
537.994	30.11
538.192	30.22
538.39	30.34
538.587	30.44
538.785	30.53
538.983	30.57
539.18	30.7
539.378	30.73
539.575	30.71
539.773	30.79
539.97	30.76
540.168	30.76
540.366	30.73
540.563	30.64
540.761	30.63
540.958	30.59
541.155	30.58
541.353	30.54
541.55	30.49
541.748	30.47
541.945	30.51
542.143	30.55
542.34	30.58
542.537	30.65
542.735	30.76
542.932	30.82
543.129	30.9
543.327	31.02
543.524	31.14
543.721	31.32
543.919	31.48
544.116	31.55
544.313	31.73
544.51	31.84
544.708	31.97
544.905	32.07
545.102	32.21
545.299	32.26
545.496	32.37
545.693	32.33
545.891	32.39
546.088	32.38
546.285	32.45
546.482	32.38
546.679	32.43
546.876	32.36
547.073	32.32
547.27	32.27
547.467	32.26
547.664	32.17
547.861	32.27
548.058	32.2
548.255	32.27
548.452	32.32
548.649	32.39
548.846	32.49
549.043	32.67
549.24	32.68
549.437	32.65
549.633	32.67
549.83	32.79
550.027	32.97
550.224	33.08
550.421	33.1
550.618	32.97
550.814	32.92
551.011	32.8
551.208	32.74
551.405	32.74
551.601	32.8
551.798	32.87
551.995	32.79
552.191	32.66
552.388	32.52
552.585	32.53
552.781	32.58
552.978	32.67
553.175	32.76
553.371	32.74
553.568	32.76
553.764	32.8
553.961	32.8
554.157	32.84
554.354	32.86
554.55	33.05
554.747	33.03
554.943	33.18
555.14	33.14
555.336	33.03
555.533	33.18
555.729	33.28
555.926	33.34
556.122	33.46
556.318	33.56
556.515	33.71
556.711	33.69
556.907	33.81
557.104	33.83
557.3	33.9
557.496	34.01
557.693	33.87
557.889	33.9
558.085	33.82
558.281	33.78
558.478	33.76
558.674	33.66
558.87	33.61
559.066	33.63
559.262	33.72
559.459	33.65
559.655	33.71
559.851	33.78
560.047	33.85
560.243	33.95
560.439	34.05
560.635	34.1
560.831	34.24
561.027	34.3
561.223	34.29
561.419	34.26
561.615	34.44
561.811	34.36
562.007	34.37
562.203	34.37
562.399	34.31
562.595	34.28
562.791	34.38
562.987	34.28
563.183	34.32
563.379	34.37
563.575	34.43
563.771	34.38
563.966	34.41
564.162	34.46
564.358	34.45
564.554	34.35
564.75	34.38
564.945	34.27
565.141	34.26
565.337	34.21
565.533	34.16
565.728	34.02
565.924	34.06
566.12	34.16
566.315	34.18
566.511	34.13
566.707	34.22
566.902	34.12
567.098	34.06
567.293	34.07
567.489	34.12
567.684	34.19
567.88	34.26
568.076	34.18
568.271	34.1
568.467	34.14
568.662	34.19
568.858	34.33
569.053	34.39
569.248	34.61
569.444	34.6
569.639	34.6
569.835	34.58
570.03	34.5
570.225	34.47
570.421	34.48
570.616	34.46
570.812	34.44
571.007	34.27
571.202	34.3
571.397	34.24
571.593	34.3
571.788	34.37
571.983	34.35
572.178	34.4
572.374	34.47
572.569	34.53
572.764	34.58
572.959	34.6
573.154	34.58
573.35	34.59
573.545	34.56
573.74	34.47
573.935	34.41
574.13	34.49
574.325	34.52
574.52	34.6
574.715	34.63
574.91	34.52
575.105	34.56
575.3	34.72
575.495	34.84
575.69	35.05
575.885	35.27
576.08	35.29
576.275	35.35
576.47	35.4
576.665	35.39
576.86	35.29
577.055	35.33
577.25	35.42
577.444	35.53
577.639	35.56
577.834	35.54
578.029	35.51
578.224	35.62
578.418	35.76
578.613	35.92
578.808	36.06
579.003	36.34
579.197	36.49
579.392	36.41
579.587	36.5
579.781	36.41
579.976	36.31
580.171	36.35
580.365	36.4
580.56	36.32
580.755	36.2
580.949	36.22
581.144	36.21
581.338	36.26
581.533	36.48
581.727	36.5
581.922	36.66
582.116	36.76
582.311	36.71
582.505	36.75
582.7	36.68
582.894	36.87
583.089	36.84
583.283	36.84
583.478	37.04
583.672	37.13
583.866	36.95
584.061	36.99
584.255	37.04
584.449	36.98
584.644	36.93
584.838	37.14
585.032	37.06
585.226	37.11
585.421	37.13
585.615	36.9
585.809	36.78
586.003	37.15
586.198	37.08
586.392	37.08
586.586	37.22
586.78	37.28
586.974	37.24
587.168	37.3
587.363	37.28
587.557	37.25
587.751	37.4
587.945	37.5
588.139	37.17
588.333	37.17
588.527	37.17
588.721	37.21
588.915	37.19
589.109	36.98
589.303	36.92
589.497	36.91
589.691	36.9
589.885	36.75
590.079	36.82
590.273	36.9
590.466	37.01
590.66	37.01
590.854	37.03
591.048	37.14
591.242	37.41
591.436	37.47
591.629	37.46
591.823	37.56
592.017	37.8
592.211	37.64
592.404	37.75
592.598	37.63
592.792	37.73
592.986	37.74
593.179	37.58
593.373	37.44
593.567	37.4
593.76	37.36
593.954	37.33
594.147	37.26
594.341	37.25
594.535	37.29
594.728	37.31
594.922	37.08
595.115	36.94
595.309	36.94
595.502	36.91
595.696	36.9
595.889	36.97
596.083	36.86
596.276	36.84
596.47	36.9
596.663	36.72
596.856	36.68
597.05	36.81
597.243	36.97
597.437	37.07
597.63	37.19
597.823	37.21
598.017	37.25
598.21	37.42
598.403	37.39
598.596	37.46
598.79	37.63
598.983	37.83
599.176	37.95
599.369	37.89
599.563	37.88
599.756	37.9
599.949	38
600.142	37.88
600.335	37.91
600.528	37.96
600.722	37.9
600.915	37.99
601.108	38
601.301	37.89
601.494	37.93
601.687	37.98
601.88	37.98
602.073	37.84
602.266	37.85
602.459	37.67
602.652	37.61
602.845	37.66
603.038	37.52
603.231	37.39
603.424	37.4
603.617	37.36
603.809	37.19
604.002	37.17
604.195	37.19
604.388	37.19
604.581	37.27
604.774	37.19
604.966	37.07
605.159	37.19
605.352	37.15
605.545	37.24
605.737	37.3
605.93	37.48
606.123	37.55
606.316	37.78
606.508	37.89
606.701	38.1
606.894	38.3
607.086	38.43
607.279	38.44
607.471	38.52
607.664	38.5
607.857	38.63
608.049	38.87
608.242	38.98
608.434	39.16
608.627	39.58
608.819	39.88
609.012	40.51
609.204	41.32
609.397	42.1
609.589	42.97
609.782	43.81
609.974	44.71
610.166	45.59
610.359	46.55
610.551	47.36
610.743	48.12
610.936	49
611.128	49.4
611.32	49.58
611.513	49.89
611.705	49.93
611.897	49.99
612.09	49.92
612.282	49.54
612.474	49.19
612.666	48.88
612.858	48.56
613.051	48.18
613.243	47.79
613.435	47.64
613.627	47.13
613.819	46.82
614.011	46.8
614.203	46.38
614.395	46.07
614.588	45.81
614.78	45.45
614.972	45.08
615.164	44.51
615.356	44.27
615.548	43.75
615.74	43.41
615.932	43.12
616.124	42.31
616.315	42.05
616.507	41.86
616.699	41.64
616.891	41.48
617.083	41.28
617.275	41.15
617.467	41.01
617.659	40.93
617.85	40.95
618.042	40.92
618.234	41.04
618.426	40.92
618.618	40.88
618.809	40.89
619.001	40.77
619.193	40.84
619.384	40.72
619.576	40.8
619.768	40.89
619.959	40.9
620.151	40.98
620.343	40.95
620.534	41.06
620.726	41.03
620.917	41.02
621.109	41.24
621.301	41.15
621.492	41.29
621.684	41.22
621.875	41.28
622.067	41.22
622.258	41.11
622.45	41.32
622.641	41.25
622.832	41.42
623.024	41.45
623.215	41.27
623.407	41.3
623.598	41.44
623.789	41.51
623.981	41.41
624.172	41.5
624.363	41.58
624.555	41.53
624.746	41.38
624.937	41.22
625.129	40.88
625.32	40.88
625.511	40.89
625.702	40.57
625.893	40.53
626.085	40.36
626.276	40.31
626.467	40.23
626.658	40.02
626.849	40.01
627.04	40.08
627.231	40.21
627.422	40.3
627.614	40.26
627.805	40.39
627.996	40.45
628.187	40.61
628.378	40.77
628.569	41.07
628.76	41.38
628.951	41.49
629.142	41.61
629.332	41.85
629.523	42.05
629.714	42.24
629.905	42.49
630.096	42.59
630.287	42.76
630.478	42.8
630.669	42.56
630.859	42.38
631.05	42.42
631.241	42.47
631.432	42.34
631.623	41.93
631.813	41.81
632.004	41.47
632.195	41.43
632.385	41.15
632.576	40.92
632.767	40.92
632.957	40.92
633.148	40.83
633.339	40.58
633.529	40.56
633.72	40.55
633.91	40.36
634.101	40.41
634.292	40.42
634.482	40.36
634.673	40.38
634.863	40.2
635.054	40.27
635.244	40.36
635.435	40.35
635.625	40.35
635.815	40.57
636.006	40.66
636.196	40.57
636.387	40.55
636.577	40.62
636.767	40.65
636.958	40.65
637.148	40.66
637.338	40.73
637.529	40.76
637.719	40.85
637.909	40.73
638.099	40.91
638.29	41.16
638.48	41.05
638.67	41.12
638.86	41.13
639.05	41.25
639.241	41.16
639.431	41.02
639.621	41.32
639.811	41.37
640.001	41.4
640.191	41.22
640.381	41.05
640.571	41.04
640.761	41.06
640.951	41.1
641.141	41.19
641.331	41.4
641.521	41.69
641.711	41.49
641.901	41.37
642.091	41.13
642.281	41.21
642.471	41.27
642.661	41.54
642.851	41.68
643.041	41.77
643.231	41.97
643.42	41.87
643.61	41.77
643.8	41.74
643.99	41.8
644.18	42.13
644.369	42.15
644.559	42.3
644.749	42.2
644.939	42.21
645.128	42.11
645.318	41.79
645.508	41.85
645.697	41.53
645.887	41.67
646.076	41.82
646.266	41.87
646.456	42.05
646.645	42.29
646.835	42.22
647.024	42.18
647.214	42.11
647.403	42.21
647.593	42.33
647.782	42.53
647.972	42.45
648.161	42.15
648.351	42.12
648.54	42.02
648.73	41.77
648.919	41.86
649.108	41.78
649.298	41.96
649.487	42.15
649.677	41.94
649.866	42.13
650.055	42.14
650.244	42.17
650.434	42.07
650.623	42.04
650.812	42.22
651.002	42.07
651.191	42.26
651.38	42.19
651.569	42.34
651.758	42.26
651.947	42.2
652.137	42.34
652.326	42.48
652.515	42.58
652.704	42.74
652.893	42.67
653.082	42.86
653.271	42.91
653.46	42.88
653.649	42.78
653.838	43.16
654.027	43.09
654.216	43.01
654.405	43.07
654.594	43.01
654.783	42.88
654.972	42.75
655.161	42.83
655.35	42.87
655.539	42.91
655.728	42.92
655.916	42.75
656.105	42.66
656.294	42.59
656.483	42.52
656.672	42.59
656.86	42.47
657.049	42.5
657.238	42.52
657.427	42.42
657.615	42.29
657.804	42.13
657.993	41.9
658.181	41.8
658.37	41.79
658.559	41.77
658.747	41.64
658.936	41.55
659.125	41.26
659.313	41.09
659.502	41.04
659.69	41.17
659.879	41.18
660.067	41.39
660.256	41.64
660.444	41.73
660.633	41.76
660.821	41.84
661.01	42.05
661.198	42.53
661.387	42.72
661.575	42.83
661.763	43
661.952	43.22
662.14	43.49
662.328	43.67
662.517	43.84
662.705	44.04
662.893	44.25
663.082	44.17
663.27	44.22
663.458	44.46
663.646	44.68
663.834	44.37
664.023	44.23
664.211	44.12
664.399	44.02
664.587	44.08
664.775	43.98
664.963	44.02
665.152	44.14
665.34	44.32
665.528	44.03
665.716	43.76
665.904	44.03
666.092	44.1
666.28	44.14
666.468	44.2
666.656	44.18
666.844	44.3
667.032	44.22
667.22	44.16
667.408	43.82
667.596	43.8
667.784	44.09
667.971	44.08
668.159	44.04
668.347	43.99
668.535	43.74
668.723	43.85
668.911	43.78
669.098	43.9
669.286	43.81
669.474	43.79
669.662	43.97
669.849	43.97
670.037	43.93
670.225	43.98
670.413	43.95
670.6	44.13
670.788	44.08
670.976	44.12
671.163	44.05
671.351	44.51
671.538	44.73
671.726	44.6
671.913	44.42
672.101	44.7
672.289	44.79
672.476	44.92
672.664	45.16
672.851	45.11
673.039	45.31
673.226	45.56
673.413	45.47
673.601	45.62
673.788	45.81
673.976	45.86
674.163	45.59
674.35	45.76
674.538	45.77
674.725	45.77
674.912	45.9
675.1	45.88
675.287	45.77
675.474	45.75
675.662	45.56
675.849	45.59
676.036	45.6
676.223	45.78
676.411	45.86
676.598	45.86
676.785	45.86
676.972	45.7
677.159	45.85
677.346	45.87
677.533	45.72
677.721	45.84
677.908	45.82
678.095	45.89
678.282	45.75
678.469	45.68
678.656	45.61
678.843	45.52
679.03	45.69
679.217	45.39
679.404	45.3
679.591	45.3
679.778	45.24
679.964	45.35
680.151	45.25
680.338	45.15
680.525	44.9
680.712	44.71
680.899	44.63
681.086	44.45
681.272	44.38
681.459	44.56
681.646	44.66
681.833	44.8
682.02	44.47
682.206	44.65
682.393	45.15
682.58	45.33
682.766	45.45
682.953	45.94
683.14	46.22
683.326	46.65
683.513	46.68
683.7	46.69
683.886	46.4
684.073	46.64
684.259	46.7
684.446	46.45
684.632	46.7
684.819	47.01
685.005	46.69
685.192	46.71
685.378	46.8
685.565	46.89
685.751	46.94
685.938	47.19
686.124	47.48
686.31	47.44
686.497	47.34
686.683	47.06
686.87	47.08
687.056	47.34
687.242	47.45
687.429	47.37
687.615	47.3
687.801	47.35
687.987	47.4
688.174	47.29
688.36	47.16
688.546	47.31
688.732	47.39
688.918	47.18
689.105	46.74
689.291	46.53
689.477	46.57
689.663	46.82
689.849	47
690.035	46.97
690.221	47.01
690.407	47.59
690.593	47.7
690.779	48.05
690.965	48.27
691.151	48.65
691.337	48.69
691.523	48.66
691.709	48.81
691.895	49.13
692.081	49.23
692.267	49.6
692.453	49.52
692.639	49.72
692.825	50.03
693.011	50.15
693.196	50.1
693.382	50.3
693.568	50.47
693.754	50.15
693.94	50.12
694.125	50.44
694.311	50.09
694.497	49.92
694.682	49.92
694.868	49.51
695.054	49.47
695.239	49.55
695.425	49.55
695.611	49.72
695.796	49.73
695.982	49.35
696.168	49.29
696.353	49.09
696.539	48.91
696.724	48.8
696.91	48.5
697.095	48.6
697.281	48.38
697.466	48.21
697.652	47.71
697.837	47.72
698.023	47.45
698.208	47.02
698.393	47.09
698.579	47.21
698.764	46.84
698.949	46.92
699.135	46.77
699.32	46.81
699.505	46.85
699.691	46.89
699.876	46.91
700.061	47.15
700.246	47.31
700.432	47.53
700.617	47.45
700.802	47.82
700.987	47.89
701.172	48.47
701.358	48.79
701.543	48.96
701.728	49.26
701.913	49.47
702.098	50.41
702.283	50.81
702.468	50.79
702.653	51.08
702.838	51.45
703.023	51.67
703.208	51.23
703.393	51.55
703.578	52.05
703.763	52.36
703.948	52.55
704.133	52.25
704.318	52.71
704.503	53.15
704.688	53.56
704.873	53.84
705.057	54.21
705.242	54.73
705.427	54.68
705.612	54.83
705.797	55.5
705.981	55.81
706.166	56
706.351	55.82
706.536	55.5
706.72	55.47
706.905	55.62
707.09	55.73
707.274	55.57
707.459	55.7
707.644	55.75
707.828	55.57
708.013	55.6
708.197	55.4
708.382	55.81
708.567	56.27
708.751	56.17
708.936	55.68
709.12	55.91
709.305	55.55
709.489	55.15
709.673	54.96
709.858	54.73
710.042	54.46
710.227	54.25
710.411	53.85
710.596	54.04
710.78	53.78
710.964	54.01
711.149	53.68
711.333	54.02
711.517	54.19
711.702	54.13
711.886	53.86
712.07	53.97
712.254	54.21
712.438	54.22
712.623	53.85
712.807	54.11
712.991	54.18
713.175	53.79
713.359	53.41
713.544	53.23
713.728	52.97
713.912	53.04
714.096	52.78
714.28	52.58
714.464	52.3
714.648	51.8
714.832	51.69
715.016	51.59
715.2	51.88
715.384	52.14
715.568	52.09
715.752	52.07
715.936	52.06
716.12	52.06
716.304	52.03
716.488	52.07
716.671	52.35
716.855	52.34
717.039	52.26
717.223	51.96
717.407	51.91
717.59	52.29
717.774	52.24
717.958	52.57
718.142	52.6
718.325	52.65
718.509	52.99
718.693	53.24
718.877	53.56
719.06	53.61
719.244	54.45
719.428	54.44
719.611	54.61
719.795	55.33
719.978	55.33
720.162	55.58
720.345	55.29
720.529	55.73
720.713	55.87
720.896	55.19
721.08	55.56
721.263	55.64
721.446	55.98
721.63	55.78
721.813	55.63
721.997	55.99
722.18	55.88
722.364	56.9
722.547	56.69
722.73	56.77
722.914	57.83
723.097	57.48
723.28	57.13
723.464	56.96
723.647	57.12
723.83	57.29
724.013	56.9
724.197	56.78
724.38	56.38
724.563	56.09
724.746	55.95
724.929	55.94
725.112	56.25
725.296	56.54
725.479	56.28
725.662	56.41
725.845	56.27
726.028	56.26
726.211	56.53
726.394	56.44
726.577	56.58
726.76	56.42
726.943	55.69
727.126	55.12
727.309	54.85
727.492	55.15
727.675	54.82
727.858	54.81
728.041	54.84
728.224	54.95
728.407	54.8
728.589	54.66
728.772	54.71
728.955	54.97
729.138	55.24
729.321	54.99
729.503	54.87
729.686	54.9
729.869	54.72
730.052	54.49
730.234	54.75
730.417	54.65
730.6	55.14
730.782	54.91
730.965	55.14
731.148	55.08
731.33	55.44
731.513	55.57
731.695	55.59
731.878	55.74
732.061	56.09
732.243	55.52
732.426	55.99
732.608	55.51
732.791	56.15
732.973	56.02
733.156	56.46
733.338	56.19
733.52	56.59
733.703	56.7
733.885	56.51
734.068	56.39
734.25	57.04
734.432	56.85
734.615	56.94
734.797	57.18
734.979	57.46
735.162	57.29
735.344	57.76
735.526	57.41
735.708	57.92
735.891	58.35
736.073	58.54
736.255	58.81
736.437	58.68
736.619	58.61
736.802	58.43
736.984	58.29
737.166	58.68
737.348	58.24
737.53	58.71
737.712	58.24
737.894	58.04
738.076	58.18
738.258	57.47
738.44	57.65
738.622	58.06
738.804	57.96
738.986	57.99
739.168	57.81
739.35	58.62
739.532	58.92
739.714	59.87
739.896	60.29
740.078	60.32
740.259	60.92
740.441	61.71
740.623	61.63
740.805	61.97
740.987	62.37
741.168	62.17
741.35	61.74
741.532	61.79
741.714	60.89
741.895	60.41
742.077	60.92
742.259	60.86
742.44	60.83
742.622	61.1
742.804	60.85
742.985	60.64
743.167	61.24
743.348	61.52
743.53	61.06
743.711	61.94
743.893	62.58
744.075	62.96
744.256	63.14
744.438	63.49
744.619	64.01
744.8	64.65
744.982	65.25
745.163	65.78
745.345	66.04
745.526	66.64
745.707	66.09
745.889	66.07
746.07	65.27
746.252	65.14
746.433	64.78
746.614	64.87
746.795	64.22
746.977	64.25
747.158	63.69
747.339	64.48
747.52	64.09
747.702	63.79
747.883	63.84
748.064	63.67
748.245	64.04
748.426	64.24
748.607	63.66
748.788	64.26
748.97	64.24
749.151	64.12
749.332	63.59
749.513	63.66
749.694	64.84
749.875	64.81
750.056	65.14
750.237	65.27
750.418	64.91
750.599	64.9
750.78	65.08
750.96	65.1
751.141	65.3
751.322	64.99
751.503	64.25
751.684	63.8
751.865	63.72
752.046	63.9
752.226	63.23
752.407	63.51
752.588	64.18
752.769	63.24
752.949	63.34
753.13	63.85
753.311	63.34
753.492	63.72
753.672	63.84
753.853	64.2
754.034	64.31
754.214	64.58
754.395	64.66
754.575	64.35
754.756	65.3
754.937	64.78
755.117	64.45
755.298	65.53
755.478	65.97
755.659	65.65
755.839	65.2
756.02	65.06
756.2	65.45
756.381	65.39
756.561	65.41
756.741	65.19
756.922	65.66
757.102	65.65
757.283	65.5
757.463	65.3
757.643	65.44
757.823	65.12
758.004	64.9
758.184	64.6
758.364	64.31
758.545	64.07
758.725	64.37
758.905	64.08
759.085	64.23
759.265	63.55
759.446	63.98
759.626	64.48
759.806	64.65
759.986	64.68
760.166	64.69
760.346	64.7
760.526	64.86
760.706	64.5
760.886	63.83
761.066	63.36
761.246	63.6
761.426	62.99
761.606	61.94
761.786	61.84
761.966	61.25
762.146	60.56
762.326	59.89
762.506	59.99
762.686	59.31
762.866	59.51
763.046	58.87
763.225	58.59
763.405	58
763.585	58.13
763.765	57.73
763.945	57.56
764.124	57.52
764.304	57.61
764.484	57.45
764.664	57.54
764.843	57.77
765.023	57.91
765.203	58.08
765.382	58.65
765.562	58.9
765.741	58.98
765.921	59.72
766.101	60.06
766.28	60.89
766.46	60.72
766.639	61.09
766.819	61.55
766.998	62.86
767.178	63.39
767.357	64.01
767.537	64.11
767.716	65.27
767.896	65.3
768.075	66.13
768.254	65.85
768.434	66.95
768.613	67.18
768.792	66.87
768.972	67.32
769.151	67.06
769.33	66.79
769.51	67.11
769.689	67.17
769.868	67.89
770.047	68.24
770.226	68.98
770.406	68.39
770.585	68.66
770.764	68.99
770.943	68.32
771.122	68.27
771.301	69.27
771.48	69.22
771.66	69.95
771.839	70.09
772.018	69.36
772.197	68.61
772.376	69.18
772.555	70.27
772.734	70.39
772.913	70.38
773.092	70.99
773.271	71.52
773.449	71.77
773.628	71.76
773.807	71.2
773.986	72.8
774.165	73.69
774.344	74.45
774.523	73.66
774.701	74.05
774.88	74.8
775.059	75.19
775.238	75.17
775.417	75.41
775.595	74.65
775.774	75.46
775.953	73.82
776.131	73.8
776.31	72.93
776.489	73.33
776.667	72.6
776.846	72.4
777.025	72.24
777.203	71.44
777.382	70.55
777.56	70.8
777.739	71.08
777.917	71.27
778.096	70.67
778.274	71.07
778.453	71.19
778.631	72.26
778.81	71.72
778.988	71.12
779.166	71.1
779.345	72.4
779.523	72.54
779.702	72.87
779.88	73.14
780.058	73.8
780.237	73.21
780.415	73.08
780.593	73.39
780.771	73.72
780.95	75.08
781.128	75.62
781.306	75.6
781.484	75.99
781.662	75.04
781.841	75.72
782.019	75.36
782.197	76.05
782.375	76.11
782.553	75.18
782.731	75.99
782.909	75.1
783.087	74.64
783.265	74.88
783.443	74.91
783.621	74.24
783.799	73.68
783.977	74.76
784.155	73.78
784.333	73.85
784.511	74.11
784.689	73.97
784.867	75.18
785.045	75.17
785.223	74.73
785.4	74.91
785.578	75.73
785.756	75.9
785.934	75.49
786.112	77.29
786.289	77.3
786.467	77.15
786.645	76.13
786.823	75.09
787	74.47
787.178	73.92
787.356	73.31
787.533	73.61
787.711	73.71
787.889	73.67
788.066	72.74
788.244	72.35
788.421	72.24
788.599	72.06
788.776	72.09
788.954	73.83
789.131	73.57
789.309	73.53
789.486	73.22
789.664	72.9
789.841	73.14
790.019	73.66
790.196	73.93
790.373	74.73
790.551	75.97
790.728	75.6
790.906	74.9
791.083	74.95
791.26	75.59
791.437	76.52
791.615	76.92
791.792	75.85
791.969	75.22
792.146	75.79
792.324	76.01
792.501	76.27
792.678	77.33
792.855	77.74
793.032	79.89
793.209	80.8
793.387	80.04
793.564	80.25
793.741	81.33
793.918	82.18
794.095	82.12
794.272	81.78
794.449	80.26
794.626	79.89
794.803	79.44
794.98	78.22
795.157	77.19
795.334	77.89
795.511	78.32
795.688	78.23
795.864	78.22
796.041	77.57
796.218	77.06
796.395	78.2
796.572	77.96
796.749	77.68
796.925	77.48
797.102	77.35
797.279	77.08
797.456	76.65
797.632	76.27
797.809	75.08
797.986	75.71
798.162	75.01
798.339	74.94
798.516	76.44
798.692	77.41
798.869	77.95
799.046	78.92
799.222	78.85
799.399	78.83
799.575	79.45
799.752	80.45
799.928	80.59
800.105	82.09
800.281	82.87
800.458	82
800.634	80.75
800.811	81.21
800.987	80.97
801.163	81.59
801.34	81.97
801.516	82.26
801.692	82.2
801.869	80.83
802.045	80.62
802.221	80.52
802.398	81.11
802.574	81.4
802.75	81.58
802.926	80.94
803.103	80.72
803.279	81
803.455	81.53
803.631	82.82
803.807	84.37
803.983	85.26
804.16	86.13
804.336	85.18
804.512	87.19
804.688	87.59
804.864	88.22
805.04	87.61
805.216	87.78
805.392	88.22
805.568	88.29
805.744	89.57
805.92	89.07
806.096	89.19
806.272	89.82
806.448	90.99
806.623	90.31
806.799	90.11
806.975	90.33
807.151	91.41
807.327	89.56
807.503	89.36
807.678	89.07
807.854	89.17
808.03	88.25
808.206	88.29
808.381	85.83
808.557	86.96
808.733	87.24
808.908	88.61
809.084	87.28
809.26	87.88
809.435	87.3
809.611	86.78
809.787	86.91
809.962	85.44
810.138	86.89
810.313	87.34
810.489	87.57
810.664	86.7
810.84	87.07
811.015	88.56
811.191	90.04
811.366	91.46
811.542	92.57
811.717	92.29
811.892	94.49
812.068	93.74
812.243	95.16
812.419	94.45
812.594	96.12
812.769	95.8
812.944	95.34
813.12	92.51
813.295	91.92
813.47	90.4
813.645	90.74
813.821	89.64
813.996	90.41
814.171	89.11
814.346	89.06
814.521	88.62
814.697	88.6
814.872	88.83
815.047	90.98
815.222	91.28
815.397	92.13
815.572	92.8
815.747	94.61
815.922	94.22
816.097	94.21
816.272	94.22
816.447	93.32
816.622	93.79
816.797	93.28
816.972	93.24
817.147	92.16
817.322	92.51
817.496	90.58
817.671	89.1
817.846	89.86
818.021	87.81
818.196	87.19
818.371	87.91
818.545	85.94
818.72	85.73
818.895	84.81
819.069	83.92
819.244	82.25
819.419	81.37
819.594	77.98
819.768	75.03
819.943	75.17
820.117	73.32
820.292	69.81
820.467	68.57
820.641	65.45
820.816	62.26
820.99	59.57
821.165	57.02
821.339	55.32
821.514	54.32
821.688	52.74
821.863	51.47
822.037	50.35
822.212	50.05
822.386	49.16
822.56	48.72
822.735	48.73
822.909	48.8
823.084	48.96
823.258	48.87
823.432	49.14
823.606	49.44
823.781	49.89
823.955	50.5
824.129	51.18
824.303	52.06
824.478	52.89
824.652	53.54
824.826	54.27
825	55.36
825.174	56.47
825.348	56.76
825.523	58.02
825.697	58.48
825.871	58.92
826.045	58.69
826.219	58.71
826.393	58.61
826.567	58.49
826.741	58.38
826.915	57.71
827.089	57.33
827.263	57.25
827.437	56.66
827.611	56.55
827.784	56.96
827.958	57.64
828.132	57.78
828.306	58.2
828.48	59.1
828.654	59.66
828.827	60.62
829.001	62.32
829.175	64.43
829.349	66.91
829.522	68.56
829.696	70.36
829.87	72.25
830.044	73.74
830.217	76.76
830.391	77.36
830.565	78.92
830.738	80.41
830.912	81.41
831.085	81.91
831.259	82.96
831.432	83.25
831.606	82.48
831.779	81.37
831.953	81.45
832.126	79.19
832.3	79.09
832.473	77.21
832.647	76.22
832.82	74.46
832.994	72.54
833.167	70.3
833.34	68.68
833.514	67.15
833.687	66.1
833.86	64.92
834.034	64.91
834.207	64.44
834.38	64.53
834.553	63.98
834.727	64.32
834.9	64.48
835.073	65.18
835.246	65.94
835.419	67.44
835.593	68.55
835.766	70.03
835.939	71.71
836.112	73.11
836.285	75.63
836.458	77.5
836.631	78.96
836.804	80.58
836.977	82.46
837.15	86.24
837.323	89.12
837.496	89.75
837.669	92.49
837.842	92.86
838.015	95.52
838.188	95.73
838.361	97.12
838.533	98.82
838.706	101.59
838.879	101.64
839.052	101.15
839.225	99.2
839.398	99.25
839.57	97.65
839.743	97.94
839.916	97.74
840.088	98.79
840.261	100.06
840.434	99.2
840.607	99.75
840.779	100.66
840.952	99.29
841.124	100.18
841.297	102.55
841.47	105.43
841.642	106.01
841.815	106.76
841.987	108.08
842.16	106.76
842.332	108.68
842.505	109.01
842.677	109.86
842.85	112.82
843.022	114.89
843.194	117.9
843.367	117.58
843.539	120.44
843.712	122.26
843.884	122.36
844.056	123.54
844.229	126.61
844.401	127.95
844.573	129.32
844.745	130.08
844.918	134.29
845.09	134.83
845.262	139.06
845.434	141.47
845.606	141.64
845.779	146.4
845.951	151.21
846.123	146.8
846.295	146.15
846.467	146.47
846.639	149.73
846.811	146.76
846.983	146.22
847.155	141.51
847.327	138.76
847.499	141.04
847.671	138.72
847.843	140.15
848.015	142.47
848.187	147.65
848.359	152.83
848.531	148.63
848.703	150.83
848.875	155.24
849.047	160.99
849.218	165.2
849.39	162.83
849.562	166.07
849.734	167.12
849.905	169.62
850.077	171.59
850.249	167.89
850.421	173.37
850.592	169.21
850.764	168.13
850.936	169.67
851.107	169.57
851.279	167.64
851.451	161.21
851.622	159.64
851.794	154.26
851.965	148.33
852.137	148.38
852.308	144.72
852.48	146.67
852.651	149.24
852.823	147.12
852.994	147.89
853.166	147.91
853.337	153.66
853.509	152.47
853.68	158.82
853.851	166.45
854.023	169.91
854.194	174.9
854.365	177.99
854.537	175.59
854.708	176.44
854.879	183.34
855.05	195.05
855.222	189.51
855.393	195.35
855.564	189.64
855.735	185.9
855.906	180.89
856.078	183.43
856.249	188.63
856.42	188.45
856.591	186.57
856.762	178.74
856.933	173.71
857.104	180.9
857.275	176.42
857.446	182.1
857.617	177.74
857.788	173.78
857.959	169.88
858.13	161.04
858.301	158.73
858.472	161.59
858.643	164.1
858.814	162.54
858.985	159.62
859.155	161.25
859.326	158.98
859.497	163.67
859.668	165.86
859.839	172.81
860.009	177.92
860.18	181.85
860.351	180.92
860.522	182.03
860.692	184.01
860.863	184.9
861.034	183.1
861.204	193.78
861.375	197.3
861.546	193.69
861.716	184.32
861.887	185.86
862.057	186.7
862.228	195.21
862.398	191.57
862.569	186.39
862.739	185.6
862.91	189.66
863.08	182.2
863.251	174.57
863.421	178.95
863.592	179.13
863.762	179.93
863.932	176.78
864.103	167.33
864.273	169.29
864.443	177.97
864.614	180.77
864.784	182.79
864.954	182.18
865.125	181.45
865.295	181.2
865.465	185.72
865.635	178.8
865.805	180.59
865.976	188.55
866.146	185.64
866.316	183.05
866.486	181.87
866.656	176.98
866.826	178.26
866.996	191.14
867.166	193.82
867.336	187.06
867.506	189.3
867.676	192.15
867.846	192.82
868.016	189.35
868.186	186.53
868.356	189.69
868.526	198.81
868.696	198.19
868.866	196.17
869.036	202.36
869.206	211.58
869.376	214.28
869.545	206.37
869.715	200.18
869.885	206.25
870.055	210.2
870.224	205.74
870.394	203.03
870.564	202.71
870.734	197.78
870.903	188.37
871.073	187.6
871.243	187.87
871.412	190.39
871.582	195.16
871.751	196.86
871.921	195.96
872.091	195.5
872.26	191.11
872.43	183.55
872.599	182.74
872.769	187.27
872.938	187.89
873.108	188.38
873.277	186.37
873.446	186.41
873.616	184.71
873.785	182.49
873.955	183.72
874.124	184.23
874.293	190.71
874.463	188.42
874.632	189.26
874.801	184.95
874.971	185.06
875.14	184.68
875.309	185.83
875.478	178.42
875.647	184.35
875.817	184.97
875.986	191.05
876.155	195.83
876.324	193.01
876.493	184.85
876.662	182.68
876.831	178.59
877	181.96
877.17	174.29
877.339	171.88
877.508	167.17
877.677	165.57
877.846	159.1
878.015	151.77
878.184	153.98
878.352	156.3
878.521	161.04
878.69	157.21
878.859	146.56
879.028	145.55
879.197	147.12
879.366	141.49
879.534	132.86
879.703	125.73
879.872	119.07
880.041	110
880.21	103.52
880.378	94.75
880.547	90.34
880.716	85.34
880.884	79.57
881.053	74.47
881.222	70.05
881.39	66.24
881.559	63.4
881.727	61.54
881.896	60.35
882.065	58.58
882.233	57.78
882.402	56.27
882.57	56.15
882.739	55.69
882.907	55.93
883.076	56.16
883.244	56.54
883.412	57.96
883.581	58.21
883.749	59.25
883.918	59.84
884.086	60.33
884.254	62.13
884.423	64.36
884.591	67.22
884.759	69.9
884.927	73.38
885.096	77.34
885.264	80.41
885.432	86
885.6	89.43
885.769	95.74
885.937	102.72
886.105	109.31
886.273	113.17
886.441	118.39
886.609	123.16
886.777	126.11
886.945	130.01
887.113	131.89
887.281	136.26
887.449	138.55
887.617	141.42
887.785	144.58
887.953	149.86
888.121	151.37
888.289	154.1
888.457	151.43
888.625	150.22
888.793	157.78
888.961	160.96
889.129	164.34
889.296	175.27
889.464	176.93
889.632	177.68
889.8	175.61
889.967	184
890.135	179.08
