Data from 2938832__Reflection_03.txt Node
Date: Thu Mar 12 12:01:34 EDT 2015
User: robert
Spectrometer: USB4E03002
Autoset integration time: false
Trigger mode: 4
Integration Time (sec): 1.000000E-1
Scans to average: 10
Electric dark correction enabled: false
Nonlinearity correction enabled: false
Boxcar width: 5
Stray light correction enabled: false
XAxis mode: Wavelengths
Stop averaging: false
Number of Pixels in Spectrum: 3648
>>>>>Begin Spectral Data<<<<<
177.575	83.76
177.794	118.53
178.014	116.01
178.233	118.03
178.452	110.41
178.672	108.96
178.891	116.87
179.11	146.43
179.33	166.45
179.549	155.56
179.768	178.45
179.987	145.64
180.207	61.92
180.426	47.42
180.645	-35.94
180.864	1252.38
181.084	-362.69
181.303	-34.55
181.522	-41.14
181.741	-44.91
181.96	-52.72
182.179	-124.12
182.398	-210.56
182.618	-159.3
182.837	-460
183.056	-41.55
183.275	-33.53
183.494	3.69
183.713	4.24
183.932	-10.16
184.151	50.87
184.37	60.93
184.589	39.85
184.808	54.17
185.027	60.99
185.246	85.25
185.465	88.11
185.684	130.06
185.903	99.44
186.122	73.57
186.341	75.18
186.56	38.15
186.779	59.01
186.998	75.18
187.216	65.63
187.435	100.6
187.654	78.9
187.873	104.09
188.092	20.26
188.311	40.48
188.53	109.12
188.748	102.81
188.967	118.01
189.186	60.72
189.405	55.56
189.623	47.55
189.842	35.55
190.061	21.62
190.28	15.27
190.498	27.4
190.717	19.88
190.936	20
191.154	22.91
191.373	33.97
191.592	39.21
191.81	61.16
192.029	59.93
192.248	109.56
192.466	147.16
192.685	111.48
192.904	90.1
193.122	56.29
193.341	20.91
193.559	30.69
193.778	15.62
193.996	31.32
194.215	-0.65
194.433	16.7
194.652	5.68
194.87	-8.01
195.089	-6.41
195.307	-15.91
195.526	-16.48
195.744	-31.42
195.963	-18.1
196.181	-54.9
196.399	-106.18
196.618	-133.33
196.836	489.39
197.055	-353.25
197.273	-406.42
197.491	-412.35
197.71	-86.09
197.928	-68.57
198.146	3.05
198.365	-38.46
198.583	-21.68
198.801	-7.2
199.019	-2.72
199.238	18.23
199.456	12.32
199.674	48.33
199.892	48.13
200.111	36.1
200.329	30.29
200.547	34.34
200.765	55.84
200.983	30.22
201.202	3.93
201.42	25.58
201.638	51.76
201.856	31.24
202.074	24.69
202.292	7.58
202.51	-175.18
202.728	-23.82
202.946	3.97
203.165	-8.16
203.383	54.81
203.601	47.51
203.819	30.89
204.037	2.43
204.255	24.8
204.473	44.59
204.691	41.28
204.909	55.77
205.127	68.34
205.345	63.84
205.562	54.25
205.78	27.55
205.998	39.25
206.216	42.02
206.434	35.69
206.652	34.93
206.87	13.77
207.088	24.07
207.306	27.89
207.523	6.31
207.741	14.38
207.959	31.71
208.177	28.89
208.395	7.88
208.612	33.29
208.83	35.6
209.048	29.91
209.266	43.52
209.483	46.06
209.701	34.12
209.919	50.82
210.136	23.82
210.354	41.79
210.572	42.72
210.79	45.74
211.007	25.72
211.225	39.28
211.442	58.14
211.66	62.34
211.878	54.82
212.095	112.77
212.313	87.67
212.53	97.06
212.748	81.62
212.966	86.31
213.183	98.76
213.401	89.61
213.618	90.26
213.836	87.28
214.053	63.8
214.271	66.76
214.488	25.67
214.705	35.73
214.923	20.42
215.14	22.04
215.358	12.19
215.575	9.18
215.793	7.52
216.01	-1.05
216.227	-11.6
216.445	-9.89
216.662	-15.72
216.879	-15.84
217.097	-23.85
217.314	-4.19
217.531	8.61
217.749	7.85
217.966	-3.89
218.183	11.1
218.4	1.31
218.618	9.34
218.835	23.36
219.052	13.46
219.269	3.06
219.487	7.76
219.704	7.32
219.921	-10.7
220.138	7.38
220.355	5.73
220.572	4.73
220.79	17.54
221.007	3.67
221.224	-0.53
221.441	9.32
221.658	14.71
221.875	11.51
222.092	6.89
222.309	16.55
222.526	9.82
222.743	11.61
222.96	12.33
223.177	8.25
223.394	14.67
223.611	19.9
223.828	17.85
224.045	18.62
224.262	20.13
224.479	21.87
224.696	15.58
224.913	20.85
225.13	22.21
225.347	17.12
225.564	17.55
225.781	12.57
225.997	8.9
226.214	6.37
226.431	5.4
226.648	8.03
226.865	7.42
227.082	8.19
227.298	5.95
227.515	5.65
227.732	7.56
227.949	7.52
228.165	8.08
228.382	8.04
228.599	8.41
228.816	7.9
229.032	7.47
229.249	7.47
229.466	6.97
229.682	8.29
229.899	8.19
230.116	8.07
230.332	8.54
230.549	8.64
230.765	8.99
230.982	10.65
231.199	11.25
231.415	9.83
231.632	10.7
231.848	11.35
232.065	9.78
232.281	9.42
232.498	9.81
232.714	9.76
232.931	9.36
233.147	8.23
233.364	5.8
233.58	6.16
233.797	5.91
234.013	5.13
234.23	5
234.446	7.45
234.662	6.81
234.879	5.54
235.095	6.25
235.312	5.76
235.528	5.23
235.744	4.2
235.961	4.35
236.177	5.25
236.393	6.28
236.61	6.88
236.826	5.13
237.042	5.57
237.258	7.47
237.475	7.67
237.691	8.51
237.907	10.44
238.123	11.05
238.339	10.49
238.556	11.5
238.772	11.06
238.988	11.9
239.204	11.92
239.42	11.51
239.636	9.4
239.853	7.18
240.069	6.62
240.285	6.07
240.501	6.86
240.717	7.48
240.933	6.32
241.149	6.07
241.365	5.29
241.581	5.79
241.797	6.71
242.013	7.06
242.229	7.81
242.445	7.98
242.661	8.25
242.877	8.53
243.093	8.14
243.309	8.79
243.525	8.85
243.741	9.26
243.957	8.83
244.173	8.66
244.388	7.84
244.604	7.63
244.82	7.58
245.036	6.94
245.252	6.26
245.468	6.41
245.683	5.96
245.899	5.7
246.115	5.7
246.331	5.62
246.547	5.69
246.762	6.37
246.978	6.28
247.194	6.42
247.409	6.48
247.625	6.58
247.841	6.61
248.057	6.91
248.272	6.83
248.488	6.86
248.703	7.03
248.919	7.15
249.135	7.21
249.35	7.21
249.566	7.28
249.782	7.26
249.997	7.2
250.213	7.02
250.428	5.91
250.644	6.08
250.859	6.33
251.075	5.55
251.29	5.55
251.506	5.47
251.721	5.99
251.937	5.74
252.152	5.73
252.368	5.96
252.583	6.62
252.798	7.14
253.014	7.37
253.229	6.85
253.445	7.82
253.66	7.91
253.875	7.4
254.091	6.9
254.306	6.52
254.521	6.58
254.737	6.01
254.952	4.96
255.167	5.85
255.383	6.49
255.598	6.09
255.813	6.03
256.028	4.02
256.244	4.9
256.459	4.61
256.674	4.71
256.889	5.1
257.104	4.77
257.32	5.52
257.535	5.12
257.75	4.65
257.965	5.14
258.18	4.79
258.395	5.39
258.61	4.97
258.826	5.18
259.041	5.16
259.256	4.84
259.471	5.1
259.686	4.61
259.901	4.69
260.116	4.8
260.331	4.68
260.546	4.87
260.761	4.86
260.976	4.9
261.191	4.57
261.406	4.55
261.621	4.96
261.836	5.04
262.05	5.47
262.265	4.85
262.48	4.41
262.695	4.62
262.91	4.38
263.125	4.46
263.34	4.61
263.555	4.94
263.769	5.15
263.984	4.27
264.199	3.61
264.414	3.68
264.629	4.31
264.843	4.55
265.058	4.68
265.273	4.76
265.488	4.78
265.702	4.73
265.917	4.92
266.132	4.7
266.346	5.45
266.561	5.52
266.776	4.57
266.99	4.97
267.205	4.84
267.42	4.61
267.634	4.02
267.849	3.92
268.063	3.84
268.278	3.98
268.492	4.09
268.707	3.53
268.922	3.42
269.136	4.05
269.351	4.04
269.565	4.54
269.78	4.13
269.994	4.39
270.209	4.68
270.423	4.34
270.637	3.9
270.852	3.93
271.066	3.76
271.281	4.35
271.495	4.1
271.709	3.8
271.924	3.55
272.138	3.77
272.353	3.56
272.567	3.14
272.781	3.56
272.996	3.94
273.21	4.25
273.424	4.42
273.638	3.73
273.853	3.83
274.067	4.36
274.281	3.85
274.495	3.58
274.71	4.62
274.924	4.34
275.138	4.34
275.352	3.75
275.566	3.51
275.781	2.92
275.995	3.46
276.209	3.77
276.423	3.13
276.637	2.97
276.851	3.3
277.065	2.43
277.279	2.51
277.493	1.92
277.707	2.71
277.921	2.3
278.135	2.52
278.349	2.11
278.563	2.2
278.777	2.18
278.991	3
279.205	3.14
279.419	3
279.633	3.46
279.847	3.77
280.061	3.5
280.275	3.18
280.489	3.52
280.703	3.97
280.917	3.77
281.131	4.13
281.344	4.09
281.558	3.77
281.772	3.87
281.986	3.99
282.2	3.91
282.414	4.04
282.627	4.33
282.841	4.19
283.055	3.95
283.269	4.11
283.482	3.63
283.696	3.56
283.91	3.6
284.123	4.26
284.337	4.4
284.551	4.52
284.764	4.3
284.978	4.69
285.192	4.7
285.405	4.62
285.619	4.96
285.833	5.09
286.046	4.96
286.26	5.2
286.473	4.68
286.687	4.18
286.9	4.19
287.114	4.28
287.327	3.99
287.541	4.22
287.754	4.55
287.968	4.15
288.181	4.36
288.395	4.38
288.608	4.2
288.822	4.46
289.035	4.97
289.248	4.74
289.462	4.52
289.675	4.73
289.889	4.86
290.102	4.66
290.315	4.35
290.529	4.35
290.742	4.5
290.955	4.61
291.169	4.3
291.382	4.5
291.595	4.96
291.808	5.2
292.022	5.12
292.235	4.97
292.448	5.02
292.661	5.45
292.875	5.61
293.088	5.66
293.301	5.84
293.514	6.27
293.727	6.46
293.94	6.14
294.153	6.28
294.367	6.1
294.58	6.27
294.793	6.58
295.006	6.17
295.219	5.78
295.432	5.7
295.645	5.74
295.858	5.84
296.071	5.7
296.284	5.87
296.497	5.76
296.71	6.03
296.923	5.82
297.136	5.7
297.349	5.98
297.562	6.11
297.775	6.21
297.988	6.26
298.201	6.34
298.414	6.31
298.626	6.29
298.839	6.33
299.052	6.35
299.265	6.86
299.478	6.74
299.691	6.98
299.903	7.18
300.116	7.25
300.329	7.41
300.542	7.18
300.755	7.35
300.967	7.27
301.18	7.17
301.393	7.36
301.605	7.07
301.818	7.41
302.031	7.4
302.243	7.43
302.456	7.37
302.669	7.08
302.881	7.15
303.094	7.06
303.307	7.19
303.519	7.5
303.732	7.01
303.944	6.7
304.157	6.22
304.37	6.13
304.582	6.54
304.795	6.75
305.007	6.69
305.22	6.71
305.432	6.61
305.645	7.04
305.857	7.18
306.069	7.41
306.282	7.85
306.494	8.29
306.707	8.29
306.919	7.77
307.132	7.52
307.344	7.74
307.556	8.19
307.769	8.27
307.981	7.83
308.193	7.65
308.406	7.89
308.618	7.88
308.83	7.92
309.043	7.89
309.255	7.94
309.467	8.06
309.679	7.98
309.892	7.89
310.104	7.89
310.316	7.74
310.528	7.85
310.74	7.94
310.953	7.98
311.165	8.22
311.377	8.37
311.589	8.56
311.801	8.77
312.013	8.67
312.225	8.94
312.437	9.19
312.649	9.74
312.862	10.02
313.074	9.98
313.286	10.18
313.498	10.01
313.71	9.95
313.922	9.95
314.134	10.34
314.346	10.81
314.558	10.44
314.77	9.99
314.982	10.02
315.193	9.52
315.405	9.51
315.617	9.25
315.829	9.26
316.041	9.6
316.253	9.51
316.465	9.07
316.677	8.9
316.888	8.89
317.1	9.11
317.312	9
317.524	9.09
317.736	9.08
317.947	9.04
318.159	9.3
318.371	9.26
318.583	9.2
318.794	8.66
319.006	8.6
319.218	8.16
319.43	8.09
319.641	8.05
319.853	8.72
320.064	8.76
320.276	8.62
320.488	7.91
320.699	7.8
320.911	8.01
321.123	8.73
321.334	8.36
321.546	8.55
321.757	8.44
321.969	8.69
322.18	8.35
322.392	8.2
322.603	8.54
322.815	9.48
323.026	9.68
323.238	9.82
323.449	9.92
323.661	9.97
323.872	10.24
324.083	10.61
324.295	10.6
324.506	10.68
324.718	10.91
324.929	10.84
325.14	10.59
325.352	10.57
325.563	10.39
325.774	10.21
325.986	10.34
326.197	10.4
326.408	10.54
326.62	10.51
326.831	10.76
327.042	11.11
327.253	11.23
327.464	11.54
327.676	11.8
327.887	12.2
328.098	12.12
328.309	12.62
328.52	12.93
328.732	13.01
328.943	12.87
329.154	12.83
329.365	12.85
329.576	13
329.787	12.92
329.998	12.99
330.209	13.06
330.42	13.66
330.631	13.91
330.842	13.81
331.053	13.78
331.264	14.39
331.475	14.35
331.686	14.36
331.897	14.49
332.108	14.2
332.319	14.09
332.53	14.04
332.741	14.12
332.952	13.89
333.163	13.95
333.374	14.17
333.585	13.88
333.795	13.82
334.006	13.67
334.217	13.81
334.428	14.14
334.639	14.45
334.849	14.33
335.06	14.28
335.271	14.15
335.482	14.46
335.692	14.38
335.903	14.46
336.114	14.72
336.325	14.92
336.535	14.7
336.746	14.83
336.957	14.74
337.167	14.76
337.378	14.87
337.589	15.12
337.799	15.03
338.01	15.36
338.22	15.59
338.431	15.41
338.642	15.06
338.852	15.32
339.063	15.19
339.273	15.34
339.484	15.46
339.694	15.4
339.905	15.47
340.115	15.25
340.326	14.72
340.536	14.64
340.746	14.75
340.957	15.07
341.167	15.37
341.378	15.48
341.588	15.31
341.799	15.24
342.009	15.31
342.219	15.17
342.43	15.1
342.64	15.54
342.85	15.67
343.061	15.74
343.271	15.87
343.481	15.46
343.691	15.27
343.902	14.81
344.112	14.88
344.322	14.67
344.532	14.86
344.743	14.8
344.953	14.77
345.163	14.67
345.373	14.42
345.583	14.11
345.793	14.11
346.004	14.3
346.214	14.49
346.424	14.28
346.634	14.27
346.844	14.17
347.054	14.56
347.264	14.25
347.474	14.04
347.684	14.26
347.894	14.41
348.104	14.64
348.314	14.63
348.524	14.67
348.734	14.84
348.944	14.94
349.154	14.82
349.364	14.45
349.574	14.33
349.784	14.03
349.994	13.9
350.204	13.68
350.413	13.58
350.623	13.29
350.833	13.27
351.043	13
351.253	12.88
351.463	12.79
351.672	12.99
351.882	13.21
352.092	13.48
352.302	13.2
352.511	13.36
352.721	13.17
352.931	13.24
353.141	13.39
353.35	13.44
353.56	13.61
353.77	13.67
353.979	13.35
354.189	13.14
354.399	12.99
354.608	13.07
354.818	13.17
355.027	13.37
355.237	13.47
355.447	13.35
355.656	13.54
355.866	13.38
356.075	13.49
356.285	13.64
356.494	13.59
356.704	13.61
356.913	13.69
357.123	13.57
357.332	13.42
357.542	13.4
357.751	13.35
357.96	13.33
358.17	13.3
358.379	12.97
358.589	13.1
358.798	13.16
359.007	13.25
359.217	13.15
359.426	13.18
359.635	13.2
359.845	12.88
360.054	13.09
360.263	12.93
360.472	12.8
360.682	13.08
360.891	12.81
361.1	12.86
361.309	12.85
361.519	12.83
361.728	12.72
361.937	12.7
362.146	12.77
362.355	12.6
362.564	12.77
362.774	12.97
362.983	12.83
363.192	13.11
363.401	13.07
363.61	13.05
363.819	13.33
364.028	13.46
364.237	13.34
364.446	13.3
364.655	13.39
364.864	13.22
365.073	13.08
365.282	13.11
365.491	12.78
365.7	12.69
365.909	12.84
366.118	12.89
366.327	12.81
366.536	12.87
366.745	12.96
366.954	12.98
367.162	13.09
367.371	13.17
367.58	13.12
367.789	13.14
367.998	13.27
368.207	12.77
368.415	12.42
368.624	12.18
368.833	12.16
369.042	12.11
369.25	11.97
369.459	11.67
369.668	11.36
369.877	11.23
370.085	11.45
370.294	11.48
370.503	11.72
370.711	11.78
370.92	11.87
371.129	11.99
371.337	11.95
371.546	11.86
371.754	11.97
371.963	11.99
372.171	12.17
372.38	11.99
372.589	11.78
372.797	11.82
373.006	11.8
373.214	11.85
373.423	11.7
373.631	11.66
373.84	11.84
374.048	11.91
374.256	12.2
374.465	12.04
374.673	12.09
374.882	12.21
375.09	11.84
375.298	11.95
375.507	11.83
375.715	11.7
375.923	11.72
376.132	11.38
376.34	11.27
376.548	11.03
376.757	10.92
376.965	10.94
377.173	10.76
377.381	10.9
377.59	10.53
377.798	10.55
378.006	10.44
378.214	10.36
378.423	10.54
378.631	10.59
378.839	10.46
379.047	10.59
379.255	10.59
379.463	10.49
379.671	10.48
379.879	10.47
380.088	10.41
380.296	10.44
380.504	10.35
380.712	10.16
380.92	9.98
381.128	10.17
381.336	9.82
381.544	9.75
381.752	9.82
381.96	9.75
382.168	9.95
382.376	9.82
382.584	9.94
382.791	9.9
382.999	10.03
383.207	10.16
383.415	10.01
383.623	10.33
383.831	10.25
384.039	10.23
384.247	10.14
384.454	10.13
384.662	10.2
384.87	10.09
385.078	10.24
385.285	10.18
385.493	9.92
385.701	10.06
385.909	9.74
386.116	9.75
386.324	9.68
386.532	9.63
386.739	9.51
386.947	9.41
387.155	9.41
387.362	9.33
387.57	9.42
387.778	9.55
387.985	9.52
388.193	9.46
388.4	9.41
388.608	9.53
388.816	9.69
389.023	9.74
389.231	9.8
389.438	9.89
389.646	9.97
389.853	9.74
390.061	9.81
390.268	9.84
390.475	9.99
390.683	9.99
390.89	9.9
391.098	9.78
391.305	9.51
391.512	9.6
391.72	9.33
391.927	9.24
392.135	9.45
392.342	9.41
392.549	9.34
392.756	9.29
392.964	9.06
393.171	8.93
393.378	9.06
393.586	9.35
393.793	9.2
394	9.27
394.207	9.2
394.414	9.11
394.622	9.04
394.829	9.02
395.036	9.11
395.243	9.19
395.45	9.31
395.657	9.25
395.864	9.18
396.072	9.32
396.279	9.48
396.486	9.51
396.693	9.5
396.9	9.38
397.107	9.56
397.314	9.58
397.521	9.77
397.728	9.66
397.935	9.43
398.142	9.36
398.349	9.21
398.556	9.05
398.763	9.17
398.97	9.03
399.177	9.09
399.383	8.95
399.59	8.78
399.797	8.77
400.004	8.79
400.211	8.93
400.418	8.96
400.625	9
400.831	9.13
401.038	9.21
401.245	9.33
401.452	9.48
401.658	9.35
401.865	9.47
402.072	9.27
402.279	9.41
402.485	9.5
402.692	9.42
402.899	9.5
403.105	9.46
403.312	9.22
403.519	9.18
403.725	9.27
403.932	9.22
404.138	9.14
404.345	9.15
404.552	9.08
404.758	9.01
404.965	9.07
405.171	8.87
405.378	8.77
405.584	8.98
405.791	8.97
405.997	8.83
406.204	8.84
406.41	8.91
406.617	8.84
406.823	8.88
407.029	9.02
407.236	8.93
407.442	9.02
407.649	9.13
407.855	8.84
408.061	8.86
408.268	8.67
408.474	8.63
408.68	8.7
408.887	8.88
409.093	8.93
409.299	8.75
409.505	8.85
409.712	8.87
409.918	8.84
410.124	8.88
410.33	8.88
410.537	9.04
410.743	8.9
410.949	8.84
411.155	8.83
411.361	8.82
411.567	8.91
411.773	8.69
411.98	8.8
412.186	8.68
412.392	8.75
412.598	8.71
412.804	8.62
413.01	8.91
413.216	8.88
413.422	8.89
413.628	8.85
413.834	8.86
414.04	9.04
414.246	8.86
414.452	8.97
414.658	8.85
414.864	8.82
415.07	8.87
415.275	8.74
415.481	8.71
415.687	8.83
415.893	8.79
416.099	8.72
416.305	8.69
416.511	8.74
416.716	8.72
416.922	8.82
417.128	8.92
417.334	8.85
417.539	8.85
417.745	8.86
417.951	8.55
418.157	8.57
418.362	8.7
418.568	8.77
418.774	8.93
418.979	8.89
419.185	8.89
419.391	8.82
419.596	8.86
419.802	8.9
420.008	8.92
420.213	9.68
420.419	9.68
420.624	9.57
420.83	9.52
421.035	9.4
421.241	9.44
421.446	9.48
421.652	9.43
421.857	9.48
422.063	9.49
422.268	9.46
422.474	8.89
422.679	8.86
422.885	8.86
423.09	8.91
423.295	8.98
423.501	8.93
423.706	8.87
423.911	8.9
424.117	8.87
424.322	8.87
424.527	8.99
424.733	9
424.938	9.04
425.143	9.12
425.349	9.04
425.554	8.9
425.759	8.95
425.964	8.97
426.169	8.99
426.375	9.01
426.58	9.01
426.785	8.82
426.99	8.86
427.195	8.83
427.4	8.77
427.605	8.8
427.811	8.9
428.016	8.89
428.221	9
428.426	8.95
428.631	8.95
428.836	9.01
429.041	9.15
429.246	9.05
429.451	9.06
429.656	9.12
429.861	9.15
430.066	9.25
430.271	9.21
430.476	9.11
430.681	9.17
430.886	9.27
431.09	9.18
431.295	9.13
431.5	9.14
431.705	9.29
431.91	9.18
432.115	9.2
432.32	9.13
432.524	9.27
432.729	9.29
432.934	9.46
433.139	9.42
433.343	9.5
433.548	9.53
433.753	9.56
433.958	9.57
434.162	9.61
434.367	9.52
434.572	9.64
434.776	9.63
434.981	9.66
435.186	9.58
435.39	9.59
435.595	9.51
435.799	9.54
436.004	9.52
436.209	9.41
436.413	9.42
436.618	9.52
436.822	9.51
437.027	9.5
437.231	9.5
437.436	9.5
437.64	9.52
437.845	9.65
438.049	9.65
438.253	9.68
438.458	9.64
438.662	9.7
438.867	9.68
439.071	9.72
439.275	9.7
439.48	9.55
439.684	9.54
439.888	9.55
440.093	9.51
440.297	9.55
440.501	9.58
440.706	9.59
440.91	9.6
441.114	9.65
441.318	9.55
441.523	9.57
441.727	9.7
441.931	9.64
442.135	9.61
442.339	9.51
442.543	9.5
442.748	9.51
442.952	9.51
443.156	9.49
443.36	9.43
443.564	9.54
443.768	9.49
443.972	9.44
444.176	9.52
444.38	9.5
444.584	9.55
444.788	9.55
444.992	9.53
445.196	9.56
445.4	9.51
445.604	9.58
445.808	9.49
446.012	9.54
446.216	9.55
446.42	9.52
446.624	9.56
446.828	9.57
447.032	9.54
447.235	9.51
447.439	9.51
447.643	9.61
447.847	9.64
448.051	9.68
448.254	9.63
448.458	9.67
448.662	9.62
448.866	9.62
449.069	9.63
449.273	9.66
449.477	9.77
449.681	9.73
449.884	9.64
450.088	9.67
450.292	9.65
450.495	9.74
450.699	9.69
450.902	9.81
451.106	9.71
451.31	9.73
451.513	9.76
451.717	9.62
451.92	9.71
452.124	9.69
452.327	9.52
452.531	9.53
452.734	9.53
452.938	9.67
453.141	9.65
453.345	9.68
453.548	9.66
453.752	9.71
453.955	9.73
454.158	9.73
454.362	9.76
454.565	9.68
454.769	9.68
454.972	9.62
455.175	9.59
455.379	9.61
455.582	9.53
455.785	9.5
455.988	9.49
456.192	9.56
456.395	9.49
456.598	9.56
456.801	9.72
457.005	9.76
457.208	9.81
457.411	9.65
457.614	9.62
457.817	9.71
458.021	9.74
458.224	9.59
458.427	9.6
458.63	9.66
458.833	9.58
459.036	9.52
459.239	9.48
459.442	9.5
459.645	9.51
459.848	9.54
460.051	9.58
460.254	9.55
460.457	9.59
460.66	9.57
460.863	9.55
461.066	9.52
461.269	9.59
461.472	9.59
461.675	9.62
461.878	9.69
462.081	9.67
462.284	9.56
462.486	9.52
462.689	9.54
462.892	9.62
463.095	9.7
463.298	9.78
463.5	9.8
463.703	9.88
463.906	9.76
464.109	9.73
464.311	9.58
464.514	9.75
464.717	9.78
464.92	9.74
465.122	9.67
465.325	9.61
465.528	9.6
465.73	9.49
465.933	9.35
466.135	9.38
466.338	9.49
466.541	9.61
466.743	9.58
466.946	9.59
467.148	9.64
467.351	9.59
467.553	9.56
467.756	9.51
467.958	9.56
468.161	9.67
468.363	9.72
468.566	9.62
468.768	9.68
468.971	9.65
469.173	9.71
469.375	9.75
469.578	9.81
469.78	9.79
469.983	9.84
470.185	9.9
470.387	9.91
470.59	9.94
470.792	10.03
470.994	9.87
471.196	9.94
471.399	9.85
471.601	9.85
471.803	9.79
472.005	9.89
472.208	9.91
472.41	9.87
472.612	9.81
472.814	9.69
473.016	9.5
473.218	9.71
473.421	9.67
473.623	9.82
473.825	9.8
474.027	9.84
474.229	9.72
474.431	9.7
474.633	9.72
474.835	9.81
475.037	9.88
475.239	9.98
475.441	9.9
475.643	9.93
475.845	9.73
476.047	9.75
476.249	9.72
476.451	9.81
476.653	9.87
476.855	9.91
477.057	9.85
477.258	9.9
477.46	9.96
477.662	10
477.864	9.98
478.066	10.15
478.268	10.16
478.469	10.14
478.671	10.18
478.873	10.14
479.075	10.12
479.276	10.09
479.478	10.07
479.68	10.09
479.882	10.04
480.083	10.08
480.285	9.93
480.487	9.94
480.688	9.91
480.89	9.89
481.091	9.91
481.293	9.92
481.495	9.9
481.696	9.79
481.898	9.73
482.099	9.73
482.301	9.63
482.502	9.68
482.704	9.64
482.905	9.69
483.107	9.65
483.308	9.61
483.51	9.63
483.711	9.66
483.913	9.67
484.114	9.69
484.315	9.66
484.517	9.68
484.718	9.68
484.92	9.71
485.121	9.7
485.322	9.72
485.524	9.76
485.725	9.74
485.926	9.71
486.127	9.74
486.329	9.71
486.53	9.72
486.731	9.72
486.932	9.72
487.134	9.64
487.335	9.63
487.536	9.63
487.737	9.62
487.938	9.64
488.139	9.67
488.341	9.71
488.542	9.72
488.743	9.75
488.944	9.78
489.145	9.8
489.346	9.86
489.547	9.89
489.748	9.89
489.949	9.89
490.15	9.85
490.351	9.78
490.552	9.74
490.753	9.79
490.954	9.76
491.155	9.74
491.356	9.71
491.557	9.72
491.758	9.71
491.959	9.67
492.159	9.66
492.36	9.7
492.561	9.74
492.762	9.77
492.963	9.74
493.164	9.78
493.364	9.83
493.565	9.84
493.766	9.9
493.967	9.86
494.167	9.94
494.368	9.95
494.569	9.96
494.769	9.96
494.97	9.96
495.171	10.01
495.371	9.94
495.572	9.95
495.773	10.05
495.973	10
496.174	10.11
496.375	10.1
496.575	10.11
496.776	10.07
496.976	10.07
497.177	10.07
497.377	10.02
497.578	10.1
497.778	10.09
497.979	10.09
498.179	10.15
498.38	10.16
498.58	10.16
498.78	10.25
498.981	10.36
499.181	10.41
499.382	10.42
499.582	10.51
499.782	10.61
499.983	10.56
500.183	10.54
500.383	10.54
500.584	10.62
500.784	10.69
500.984	10.65
501.184	10.58
501.385	10.61
501.585	10.57
501.785	10.59
501.985	10.52
502.185	10.56
502.386	10.56
502.586	10.52
502.786	10.39
502.986	10.43
503.186	10.5
503.386	10.54
503.586	10.57
503.786	10.61
503.987	10.68
504.187	10.72
504.387	10.76
504.587	10.75
504.787	10.75
504.987	10.83
505.187	10.82
505.387	10.9
505.587	11.01
505.786	11.01
505.986	11.04
506.186	10.98
506.386	10.98
506.586	11.06
506.786	11.15
506.986	11.24
507.186	11.31
507.386	11.34
507.585	11.35
507.785	11.23
507.985	11.25
508.185	11.27
508.384	11.29
508.584	11.4
508.784	11.38
508.984	11.43
509.183	11.4
509.383	11.41
509.583	11.42
509.782	11.43
509.982	11.59
510.182	11.62
510.381	11.66
510.581	11.73
510.781	11.73
510.98	11.83
511.18	11.88
511.379	12
511.579	12.04
511.778	12.12
511.978	12.17
512.177	12.16
512.377	12.21
512.576	12.3
512.776	12.28
512.975	12.32
513.175	12.3
513.374	12.37
513.573	12.41
513.773	12.51
513.972	12.51
514.172	12.56
514.371	12.66
514.57	12.78
514.77	12.8
514.969	12.94
515.168	12.91
515.367	13.06
515.567	13.1
515.766	13.15
515.965	13.04
516.164	13.16
516.364	13.18
516.563	13.2
516.762	13.27
516.961	13.36
517.16	13.35
517.359	13.49
517.559	13.54
517.758	13.48
517.957	13.55
518.156	13.63
518.355	13.64
518.554	13.63
518.753	13.69
518.952	13.7
519.151	13.71
519.35	13.86
519.549	13.87
519.748	13.84
519.947	13.97
520.146	14.05
520.345	14.16
520.544	14.14
520.743	14.24
520.942	14.3
521.141	14.39
521.339	14.44
521.538	14.39
521.737	14.44
521.936	14.55
522.135	14.67
522.333	14.65
522.532	14.67
522.731	14.85
522.93	14.91
523.129	15.01
523.327	15
523.526	15.1
523.725	15.18
523.923	15.24
524.122	15.29
524.321	15.23
524.519	15.36
524.718	15.42
524.917	15.47
525.115	15.5
525.314	15.54
525.512	15.6
525.711	15.62
525.909	15.71
526.108	15.79
526.306	15.85
526.505	15.96
526.703	15.95
526.902	16.06
527.1	16.1
527.299	16.17
527.497	16.25
527.696	16.35
527.894	16.4
528.092	16.46
528.291	16.47
528.489	16.52
528.688	16.56
528.886	16.62
529.084	16.67
529.283	16.71
529.481	16.81
529.679	16.85
529.877	16.84
530.076	16.89
530.274	16.95
530.472	17.05
530.67	17.09
530.869	17.16
531.067	17.24
531.265	17.31
531.463	17.4
531.661	17.42
531.859	17.46
532.057	17.54
532.255	17.64
532.454	17.64
532.652	17.66
532.85	17.74
533.048	17.77
533.246	17.81
533.444	17.82
533.642	17.88
533.84	17.95
534.038	18.01
534.236	18.03
534.434	18.13
534.632	18.16
534.83	18.28
535.027	18.29
535.225	18.38
535.423	18.47
535.621	18.56
535.819	18.6
536.017	18.65
536.215	18.71
536.412	18.82
536.61	18.81
536.808	18.93
537.006	18.95
537.203	18.98
537.401	19.01
537.599	19.02
537.797	19.07
537.994	19.11
538.192	19.15
538.39	19.17
538.587	19.24
538.785	19.34
538.983	19.39
539.18	19.41
539.378	19.55
539.575	19.54
539.773	19.57
539.97	19.56
540.168	19.63
540.366	19.62
540.563	19.64
540.761	19.61
540.958	19.56
541.155	19.6
541.353	19.68
541.55	19.71
541.748	19.76
541.945	19.83
542.143	19.86
542.34	19.86
542.537	19.98
542.735	20
542.932	20.04
543.129	20.14
543.327	20.13
543.524	20.16
543.721	20.22
543.919	20.26
544.116	20.29
544.313	20.4
544.51	20.52
544.708	20.62
544.905	20.74
545.102	20.91
545.299	20.91
545.496	20.99
545.693	21.03
545.891	20.93
546.088	20.96
546.285	20.96
546.482	21
546.679	20.92
546.876	20.84
547.073	20.8
547.27	20.72
547.467	20.81
547.664	20.9
547.861	20.91
548.058	20.96
548.255	21.11
548.452	21.21
548.649	21.17
548.846	21.29
549.043	21.22
549.24	21.35
549.437	21.42
549.633	21.39
549.83	21.37
550.027	21.31
550.224	21.46
550.421	21.37
550.618	21.31
550.814	21.29
551.011	21.19
551.208	21.23
551.405	21.19
551.601	21.16
551.798	21.13
551.995	20.98
552.191	20.98
552.388	20.86
552.585	20.83
552.781	20.82
552.978	20.89
553.175	20.93
553.371	20.89
553.568	20.89
553.764	20.97
553.961	21.04
554.157	21.2
554.354	21.24
554.55	21.29
554.747	21.31
554.943	21.47
555.14	21.37
555.336	21.45
555.533	21.58
555.729	21.53
555.926	21.54
556.122	21.49
556.318	21.49
556.515	21.46
556.711	21.53
556.907	21.51
557.104	21.29
557.3	21.28
557.496	21.21
557.693	21.16
557.889	21.12
558.085	21.03
558.281	21.02
558.478	20.96
558.674	21.04
558.87	21.02
559.066	21.06
559.262	21.12
559.459	21.28
559.655	21.34
559.851	21.3
560.047	21.43
560.243	21.37
560.439	21.49
560.635	21.59
560.831	21.56
561.027	21.61
561.223	21.65
561.419	21.83
561.615	21.78
561.811	21.78
562.007	21.96
562.203	21.97
562.399	22.13
562.595	22.08
562.791	22.06
562.987	22.17
563.183	22.13
563.379	22.08
563.575	21.91
563.771	21.87
563.966	21.84
564.162	21.78
564.358	21.64
564.554	21.54
564.75	21.46
564.945	21.44
565.141	21.4
565.337	21.37
565.533	21.38
565.728	21.46
565.924	21.49
566.12	21.62
566.315	21.61
566.511	21.76
566.707	21.79
566.902	21.88
567.098	21.86
567.293	21.92
567.489	21.93
567.684	21.95
567.88	21.89
568.076	21.85
568.271	21.67
568.467	21.65
568.662	21.57
568.858	21.54
569.053	21.48
569.248	21.42
569.444	21.34
569.639	21.34
569.835	21.43
570.03	21.4
570.225	21.44
570.421	21.47
570.616	21.44
570.812	21.37
571.007	21.36
571.202	21.38
571.397	21.43
571.593	21.4
571.788	21.38
571.983	21.34
572.178	21.43
572.374	21.52
572.569	21.56
572.764	21.66
572.959	21.68
573.154	21.73
573.35	21.75
573.545	21.81
573.74	21.87
573.935	21.98
574.13	21.97
574.325	21.92
574.52	21.8
574.715	21.77
574.91	21.74
575.105	21.89
575.3	21.9
575.495	21.97
575.69	21.95
575.885	22.02
576.08	22
576.275	22.02
576.47	22.16
576.665	22.37
576.86	22.41
577.055	22.52
577.25	22.47
577.444	22.48
577.639	22.58
577.834	22.66
578.029	22.74
578.224	22.95
578.418	23.01
578.613	22.91
578.808	22.79
579.003	22.88
579.197	22.79
579.392	22.84
579.587	22.88
579.781	22.75
579.976	22.69
580.171	22.57
580.365	22.34
580.56	22.38
580.755	22.54
580.949	22.61
581.144	22.61
581.338	22.61
581.533	22.65
581.727	22.69
581.922	22.72
582.116	22.82
582.311	23
582.505	23.1
582.7	23.16
582.894	23.06
583.089	22.9
583.283	23.01
583.478	23.02
583.672	22.89
583.866	23.07
584.061	23.09
584.255	23.15
584.449	22.93
584.644	22.9
584.838	22.88
585.032	22.95
585.226	23.17
585.421	23.12
585.615	23.18
585.809	23.44
586.003	23.38
586.198	23.39
586.392	23.22
586.586	23.42
586.78	23.26
586.974	23.32
587.168	23.25
587.363	23.17
587.557	23.18
587.751	23.14
587.945	23.01
588.139	23
588.333	23.03
588.527	23.1
588.721	23.05
588.915	23.23
589.109	23.08
589.303	23.04
589.497	23.12
589.691	23.1
589.885	23.14
590.079	23.19
590.273	23.18
590.466	23.27
590.66	23.31
590.854	23.46
591.048	23.56
591.242	23.58
591.436	23.62
591.629	23.65
591.823	23.65
592.017	23.67
592.211	23.64
592.404	23.86
592.598	23.72
592.792	23.78
592.986	23.74
593.179	23.63
593.373	23.72
593.567	23.71
593.76	23.77
593.954	23.79
594.147	23.6
594.341	23.51
594.535	23.29
594.728	23.43
594.922	23.42
595.115	23.28
595.309	23.26
595.502	23.2
595.696	23.27
595.889	23.32
596.083	23.35
596.276	23.61
596.47	23.75
596.663	23.72
596.856	23.7
597.05	23.71
597.243	23.81
597.437	23.82
597.63	24.06
597.823	24.09
598.017	23.95
598.21	24
598.403	23.99
598.596	23.97
598.79	24.09
598.983	23.98
599.176	24.13
599.369	24.06
599.563	24.25
599.756	24.06
599.949	24.21
600.142	24.34
600.335	24.27
600.528	24.34
600.722	24.4
600.915	24.31
601.108	24.37
601.301	24.28
601.494	24.36
601.687	24.36
601.88	24.52
602.073	24.38
602.266	24.33
602.459	24.36
602.652	24.31
602.845	24.37
603.038	24.4
603.231	24.45
603.424	24.42
603.617	24.46
603.809	24.35
604.002	24.17
604.195	24.23
604.388	24.17
604.581	24.14
604.774	24.16
604.966	24.06
605.159	24.09
605.352	24.26
605.545	24.36
605.737	24.45
605.93	24.6
606.123	24.72
606.316	24.69
606.508	24.75
606.701	24.95
606.894	25.08
607.086	25.24
607.279	25.48
607.471	25.35
607.664	25.34
607.857	25.45
608.049	25.37
608.242	25.5
608.434	25.81
608.627	26.2
608.819	26.52
609.012	26.86
609.204	27.19
609.397	27.55
609.589	28.08
609.782	28.52
609.974	29.05
610.166	29.8
610.359	30.43
610.551	30.98
610.743	31.26
610.936	31.64
611.128	31.92
611.32	32.22
611.513	32.29
611.705	32.16
611.897	32.29
612.09	32.14
612.282	31.86
612.474	31.61
612.666	31.33
612.858	31.18
613.051	30.71
613.243	30.43
613.435	30.18
613.627	29.97
613.819	29.89
614.011	29.73
614.203	29.51
614.395	29.5
614.588	29.27
614.78	29.06
614.972	28.93
615.164	29.07
615.356	28.93
615.548	28.73
615.74	28.57
615.932	28.41
616.124	28.16
616.315	28.1
616.507	27.78
616.699	27.75
616.891	27.65
617.083	27.51
617.275	27.26
617.467	27.13
617.659	27.13
617.85	27.07
618.042	27.06
618.234	27.08
618.426	26.88
618.618	26.88
618.809	26.7
619.001	26.71
619.193	26.87
619.384	26.92
619.576	26.98
619.768	26.89
619.959	26.85
620.151	26.8
620.343	26.58
620.534	26.69
620.726	27.02
620.917	27.2
621.109	27.08
621.301	26.98
621.492	26.83
621.684	27.04
621.875	27.17
622.067	27.41
622.258	27.52
622.45	27.8
622.641	27.76
622.832	27.53
623.024	27.37
623.215	27.58
623.407	27.63
623.598	27.76
623.789	27.51
623.981	27.34
624.172	27.2
624.363	27.32
624.555	27.23
624.746	27.22
624.937	27.21
625.129	27.24
625.32	27.13
625.511	26.97
625.702	27
625.893	27.06
626.085	27.12
626.276	27.12
626.467	27.01
626.658	27.18
626.849	27.02
627.04	26.95
627.231	27.06
627.422	27.04
627.614	27.06
627.805	27.12
627.996	27.18
628.187	27.23
628.378	27.38
628.569	27.45
628.76	27.26
628.951	27.54
629.142	27.74
629.332	27.67
629.523	27.88
629.714	27.97
629.905	28.09
630.096	28.06
630.287	28.17
630.478	28.06
630.669	28.02
630.859	28.09
631.05	28.05
631.241	27.98
631.432	28.12
631.623	27.92
631.813	27.9
632.004	27.69
632.195	27.7
632.385	27.5
632.576	27.59
632.767	27.43
632.957	27.37
633.148	27.19
633.339	27.14
633.529	27.21
633.72	27.22
633.91	27.39
634.101	27.27
634.292	27.17
634.482	27.31
634.673	27.23
634.863	27.29
635.054	27.15
635.244	27.31
635.435	27.42
635.625	27.19
635.815	27.17
636.006	26.88
636.196	26.92
636.387	26.94
636.577	26.93
636.767	27.04
636.958	27.21
637.148	27.26
637.338	27.2
637.529	26.87
637.719	26.96
637.909	27.02
638.099	27.24
638.29	27.42
638.48	27.39
638.67	27.35
638.86	27.33
639.05	27.25
639.241	27.41
639.431	27.45
639.621	27.78
639.811	27.71
640.001	27.72
640.191	27.8
640.381	27.69
640.571	27.75
640.761	27.69
640.951	27.46
641.141	27.72
641.331	27.81
641.521	27.81
641.711	27.81
641.901	27.76
642.091	27.96
642.281	27.8
642.471	27.85
642.661	27.84
642.851	28.11
643.041	28.27
643.231	27.99
643.42	27.95
643.61	28.08
643.8	27.9
643.99	28.14
644.18	28.09
644.369	28.09
644.559	28.01
644.749	28.14
644.939	28.06
645.128	28.14
645.318	28.37
645.508	28.16
645.697	28.23
645.887	28.3
646.076	28.38
646.266	28.28
646.456	28.28
646.645	28.44
646.835	28.44
647.024	28.35
647.214	28.21
647.403	28
647.593	28.15
647.782	28.1
647.972	28.09
648.161	27.92
648.351	27.84
648.54	27.98
648.73	27.91
648.919	27.84
649.108	28.02
649.298	28.07
649.487	28.35
649.677	28.52
649.866	28.49
650.055	28.77
650.244	28.81
650.434	28.91
650.623	29.03
650.812	29.08
651.002	29.19
651.191	29.16
651.38	29.2
651.569	29.34
651.758	29.3
651.947	29.17
652.137	29.03
652.326	29.2
652.515	29.27
652.704	29.3
652.893	29.22
653.082	29.14
653.271	28.99
653.46	29.01
653.649	28.61
653.838	28.53
654.027	28.75
654.216	28.92
654.405	28.7
654.594	28.73
654.783	28.6
654.972	28.58
655.161	28.67
655.35	28.92
655.539	28.88
655.728	29
655.916	29.07
656.105	29.03
656.294	29.01
656.483	29.04
656.672	29.06
656.86	28.92
657.049	29
657.238	28.89
657.427	28.71
657.615	28.64
657.804	28.54
657.993	28.57
658.181	28.39
658.37	28.23
658.559	28.23
658.747	28.15
658.936	28.16
659.125	28.19
659.313	28.06
659.502	28.24
659.69	28.25
659.879	28.44
660.067	28.28
660.256	28.47
660.444	28.65
660.633	28.92
660.821	28.96
661.01	29.15
661.198	29.25
661.387	29.53
661.575	29.4
661.763	29.51
661.952	29.48
662.14	29.93
662.328	29.91
662.517	29.69
662.705	29.69
662.893	29.81
663.082	29.75
663.27	29.91
663.458	29.87
663.646	29.97
663.834	30.16
664.023	30.09
664.211	29.78
664.399	29.72
664.587	29.75
664.775	29.52
664.963	29.68
665.152	29.74
665.34	29.65
665.528	29.49
665.716	29.46
665.904	29.36
666.092	29.56
666.28	29.64
666.468	29.88
666.656	30.23
666.844	30.34
667.032	30.24
667.22	30.43
667.408	30.27
667.596	30.4
667.784	30.4
667.971	30.43
668.159	30.35
668.347	30.29
668.535	30.03
668.723	29.88
668.911	29.92
669.098	29.8
669.286	29.36
669.474	29.52
669.662	29.82
669.849	29.99
670.037	29.97
670.225	30.36
670.413	30.33
670.6	30.43
670.788	30.5
670.976	30.46
671.163	30.62
671.351	31.11
671.538	31.15
671.726	31.15
671.913	30.97
672.101	30.9
672.289	30.44
672.476	30.68
672.664	30.91
672.851	30.76
673.039	30.79
673.226	30.87
673.413	30.75
673.601	30.68
673.788	30.43
673.976	30.64
674.163	30.84
674.35	31.04
674.538	31.04
674.725	31.27
674.912	31.45
675.1	31.58
675.287	31.83
675.474	31.68
675.662	31.65
675.849	31.6
676.036	31.62
676.223	31.49
676.411	31.41
676.598	31.36
676.785	31.18
676.972	31.08
677.159	31
677.346	30.71
677.533	30.77
677.721	30.82
677.908	31.16
678.095	30.99
678.282	30.99
678.469	31.14
678.656	30.9
678.843	30.91
679.03	30.82
679.217	30.62
679.404	30.37
679.591	30.26
679.778	30.25
679.964	30.03
680.151	30.19
680.338	30.23
680.525	30.21
680.712	30.45
680.899	30.31
681.086	30.5
681.272	30.6
681.459	30.6
681.646	30.9
681.833	30.97
682.02	31.33
682.206	31.38
682.393	31.55
682.58	31.4
682.766	31.26
682.953	31.45
683.14	31.21
683.326	31.55
683.513	31.79
683.7	31.49
683.886	31.49
684.073	31.16
684.259	30.98
684.446	31.07
684.632	31.28
684.819	31.43
685.005	31.1
685.192	31.36
685.378	31.1
685.565	31.23
685.751	31.78
685.938	32.07
686.124	32.25
686.31	32.25
686.497	32.2
686.683	32.08
686.87	32.17
687.056	32.33
687.242	32.41
687.429	32.39
687.615	32.3
687.801	31.91
687.987	31.78
688.174	31.75
688.36	31.8
688.546	31.58
688.732	31.5
688.918	31.61
689.105	31.58
689.291	31.75
689.477	31.95
689.663	32.08
689.849	32.47
690.035	32.36
690.221	32.21
690.407	32.5
690.593	32.62
690.779	32.82
690.965	32.66
691.151	32.77
691.337	32.32
691.523	32.1
691.709	31.91
691.895	31.7
692.081	31.61
692.267	31.71
692.453	31.45
692.639	31.73
692.825	31.67
693.011	31.91
693.196	31.92
693.382	32.08
693.568	32.33
693.754	32.48
693.94	32.42
694.125	32.52
694.311	33.05
694.497	33.13
694.682	32.95
694.868	32.87
695.054	32.8
695.239	32.85
695.425	32.78
695.611	32.77
695.796	32.72
695.982	32.87
696.168	32.8
696.353	32.18
696.539	32.13
696.724	32.08
696.91	32.26
697.095	32.15
697.281	31.78
697.466	32.03
697.652	31.98
697.837	31.76
698.023	31.57
698.208	31.35
698.393	31.49
698.579	31.3
698.764	31.25
698.949	31.06
699.135	31.1
699.32	31.36
699.505	31.11
699.691	30.99
699.876	31.07
700.061	31.11
700.246	31.3
700.432	31.27
700.617	31.72
700.802	31.82
700.987	32.16
701.172	31.65
701.358	31.8
701.543	32
701.728	32.3
701.913	32.5
702.098	32.68
702.283	32.64
702.468	32.71
702.653	32.72
702.838	32.74
703.023	32.54
703.208	33.39
703.393	33.47
703.578	33.31
703.763	33.37
703.948	33.79
704.133	34.09
704.318	34.86
704.503	34.79
704.688	34.82
704.873	35.24
705.057	35.52
705.242	35.66
705.427	35.54
705.612	36.43
705.797	36.78
705.981	36.68
706.166	36.88
706.351	36.52
706.536	37.02
706.72	36.88
706.905	36.59
707.09	36.7
707.274	36.83
707.459	37.03
707.644	36.86
707.828	37.02
708.013	37.06
708.197	36.65
708.382	36.49
708.567	36.38
708.751	36.64
708.936	36.6
709.12	36.59
709.305	36.47
709.489	36.52
709.673	36.31
709.858	35.97
710.042	36.12
710.227	36.28
710.411	36.51
710.596	36.47
710.78	36.41
710.964	36.86
711.149	36.94
711.333	36.99
711.517	37.1
711.702	37.15
711.886	37.14
712.07	36.97
712.254	37.09
712.438	36.99
712.623	36.92
712.807	36.89
712.991	35.99
713.175	35.6
713.359	35.27
713.544	35.06
713.728	34.77
713.912	34.33
714.096	33.93
714.28	33.41
714.464	33.42
714.648	33.57
714.832	33.34
715.016	33.27
715.2	33.08
715.384	33.1
715.568	32.87
715.752	32.88
715.936	33.43
716.12	33.81
716.304	34.2
716.488	34.03
716.671	33.83
716.855	33.84
717.039	34.2
717.223	34.22
717.407	34.05
717.59	34.14
717.774	34.17
717.958	33.58
718.142	33.09
718.325	32.82
718.509	32.89
718.693	32.58
718.877	32.43
719.06	32.35
719.244	32.71
719.428	32.72
719.611	32.6
719.795	32.56
719.978	32.57
720.162	32.65
720.345	32.76
720.529	32.69
720.713	32.65
720.896	32.82
721.08	33.36
721.263	33.01
721.446	33.72
721.63	33.79
721.813	33.95
721.997	34.09
722.18	34.3
722.364	34.52
722.547	34.55
722.73	34.98
722.914	34.87
723.097	34.53
723.28	34.74
723.464	34.07
723.647	34.07
723.83	34.05
724.013	34.24
724.197	34.38
724.38	33.89
724.563	34.35
724.746	34.09
724.929	34.07
725.112	33.98
725.296	33.91
725.479	33.6
725.662	33.56
725.845	33.48
726.028	32.94
726.211	33.18
726.394	33.25
726.577	32.82
726.76	32.86
726.943	33.17
727.126	33.12
727.309	32.92
727.492	33.26
727.675	33.2
727.858	33.05
728.041	33.18
728.224	32.33
728.407	32.33
728.589	32.29
728.772	32.17
728.955	32.15
729.138	32.14
729.321	32.18
729.503	32.28
729.686	32.31
729.869	32.64
730.052	33
730.234	33.73
730.417	33.53
730.6	33.72
730.782	34.03
730.965	33.84
731.148	33.72
731.33	33.7
731.513	33.51
731.695	33.84
731.878	33.58
732.061	33.67
732.243	33.58
732.426	33.91
732.608	33.7
732.791	34.01
732.973	34.25
733.156	34.76
733.338	35.12
733.52	35.17
733.703	35.25
733.885	35.36
734.068	35.14
734.25	34.96
734.432	35.2
734.615	35.39
734.797	35.11
734.979	35.13
735.162	34.64
735.344	34.71
735.526	34.82
735.708	34.83
735.891	35.17
736.073	35.4
736.255	35.6
736.437	35.52
736.619	35.41
736.802	35.62
736.984	35.91
737.166	36.53
737.348	36.16
737.53	36.58
737.712	36.58
737.894	36.23
738.076	36.06
738.258	36.06
738.44	36
738.622	36.12
738.804	36.03
738.986	35.74
739.168	35.88
739.35	36.04
739.532	36.18
739.714	35.87
739.896	36.09
740.078	35.97
740.259	36.31
740.441	36.47
740.623	36.91
740.805	37.25
740.987	37.7
741.168	37.29
741.35	37.23
741.532	37.21
741.714	37.36
741.895	38.28
742.077	38.56
742.259	38.5
742.44	38.87
742.622	38.65
742.804	38.53
742.985	38.48
743.167	38.5
743.348	39.41
743.53	39.11
743.711	39.52
743.893	38.52
744.075	38.9
744.256	39.17
744.438	39.05
744.619	38.73
744.8	39.04
744.982	38.75
745.163	39.09
745.345	38.94
745.526	39.39
745.707	39.39
745.889	39.91
746.07	39.79
746.252	39.19
746.433	39.39
746.614	40.22
746.795	39.63
746.977	39.69
747.158	39.87
747.339	39.34
747.52	38.82
747.702	38.71
747.883	38.48
748.064	39.04
748.245	39.26
748.426	38.63
748.607	37.98
748.788	37.87
748.97	37.68
749.151	37.2
749.332	37.37
749.513	37.28
749.694	37.32
749.875	37.49
750.056	37.45
750.237	37.63
750.418	37.44
750.599	37.7
750.78	38.14
750.96	37.84
751.141	38.32
751.322	37.89
751.503	38.34
751.684	38.21
751.865	38.67
752.046	38.84
752.226	39.23
752.407	40.02
752.588	40.21
752.769	40.06
752.949	40.09
753.13	39.92
753.311	40.11
753.492	40.59
753.672	40.76
753.853	39.25
754.034	39.12
754.214	38.55
754.395	38.14
754.575	38.04
754.756	38.36
754.937	38.81
755.117	38.9
755.298	39.11
755.478	38.08
755.659	38.21
755.839	38.93
756.02	38.16
756.2	38.88
756.381	38.94
756.561	39.29
756.741	38.98
756.922	38.78
757.102	38.6
757.283	37.85
757.463	38.37
757.643	37.81
757.823	37.67
758.004	37.4
758.184	36.08
758.364	35.66
758.545	34.41
758.725	34.14
758.905	33.28
759.085	32.28
759.265	32.43
759.446	31.51
759.626	31.2
759.806	30.58
759.986	29.68
760.166	30.12
760.346	29.65
760.526	29.99
760.706	30.09
760.886	30.52
761.066	31.26
761.246	31.77
761.426	31.78
761.606	31.73
761.786	31.55
761.966	32.56
762.146	32.69
762.326	33.2
762.506	33.02
762.686	32.42
762.866	32.25
763.046	32.04
763.225	31.99
763.405	32.06
763.585	32.37
763.765	32.34
763.945	31.92
764.124	31.67
764.304	31.46
764.484	31.41
764.664	31.99
764.843	32.63
765.023	32.85
765.203	32.38
765.382	32.72
765.562	32.36
765.741	33.13
765.921	34
766.101	33.94
766.28	34.88
766.46	35.85
766.639	35.88
766.819	35.36
766.998	35.32
767.178	36.58
767.357	36.51
767.537	37.46
767.716	37.61
767.896	36.85
768.075	36.91
768.254	36.98
768.434	37.24
768.613	37.51
768.792	37.97
768.972	38.33
769.151	37.85
769.33	38.57
769.51	38.64
769.689	38.74
769.868	38.99
770.047	39.8
770.226	39.52
770.406	39.15
770.585	39.09
770.764	39.15
770.943	39.81
771.122	39.74
771.301	39.43
771.48	38.96
771.66	39.28
771.839	40.14
772.018	39.96
772.197	40.27
772.376	40.38
772.555	39.98
772.734	40.04
772.913	38.79
773.092	38.67
773.271	38.87
773.449	39.46
773.628	39.36
773.807	39.33
773.986	39.35
774.165	39.37
774.344	39.5
774.523	39.65
774.701	40.01
774.88	40.89
775.059	41.12
775.238	41.13
775.417	40.92
775.595	40.59
775.774	40.77
775.953	40.82
776.131	39.96
776.31	39.23
776.489	38.9
776.667	38.74
776.846	38.51
777.025	39.55
777.203	39.67
777.382	39.29
777.56	39.68
777.739	40.17
777.917	39.89
778.096	40.92
778.274	40.98
778.453	41.34
778.631	41.71
778.81	41.02
778.988	40.46
779.166	40.33
779.345	41.46
779.523	41.07
779.702	41.2
779.88	41.47
780.058	41.25
780.237	41.58
780.415	41.26
780.593	40.5
780.771	41.24
780.95	42.01
781.128	41.75
781.306	41.13
781.484	42.04
781.662	41.01
781.841	41.91
782.019	41.94
782.197	42.48
782.375	42.73
782.553	42.72
782.731	42.93
782.909	41.57
783.087	41.68
783.265	41.95
783.443	40.56
783.621	41.2
783.799	41.15
783.977	41.21
784.155	40.95
784.333	40.47
784.511	41.16
784.689	41.34
784.867	41.98
785.045	42.5
785.223	41.68
785.4	42.02
785.578	41.33
785.756	41.03
785.934	40.18
786.112	39.83
786.289	40.68
786.467	41.09
786.645	40.63
786.823	40.6
787	40.56
787.178	40.71
787.356	40.63
787.533	40.72
787.711	39.66
787.889	39.85
788.066	39.86
788.244	38.85
788.421	38.63
788.599	38.55
788.776	37.69
788.954	37.53
789.131	38.06
789.309	38.34
789.486	37.17
789.664	37.88
789.841	38.41
790.019	38.07
790.196	39.1
790.373	38.43
790.551	38.4
790.728	38.62
790.906	38.17
791.083	36.34
791.26	35.79
791.437	36.33
791.615	35.88
791.792	35.1
791.969	34.97
792.146	34.58
792.324	34.89
792.501	33.98
792.678	34.77
792.855	35.13
793.032	36.14
793.209	36.17
793.387	36.4
793.564	36.58
793.741	36.05
793.918	37.04
794.095	36.47
794.272	35.69
794.449	36.56
794.626	36.8
794.803	37.01
794.98	38.06
795.157	37.69
795.334	38.22
795.511	38.17
795.688	38.81
795.864	38.67
796.041	39.39
796.218	39.33
796.395	39.5
796.572	39.01
796.749	38.61
796.925	36.79
797.102	37.21
797.279	36.2
797.456	36.87
797.632	37.13
797.809	36.37
797.986	36.87
798.162	36.82
798.339	35.95
798.516	35.43
798.692	35.83
798.869	37.57
799.046	37.79
799.222	38.32
799.399	37.24
799.575	36.68
799.752	37.11
799.928	36.71
800.105	36.55
800.281	37.56
800.458	38.68
800.634	37.5
800.811	36.99
800.987	37.65
801.163	37.74
801.34	39.32
801.516	38.65
801.692	38.75
801.869	38.59
802.045	39.04
802.221	38.98
802.398	38.58
802.574	38.85
802.75	40.33
802.926	39.5
803.103	40.18
803.279	38.84
803.455	39.46
803.631	38.77
803.807	39.43
803.983	40.56
804.16	39.15
804.336	38.84
804.512	37.94
804.688	36.18
804.864	35.65
805.04	34.93
805.216	35.5
805.392	35.9
805.568	35.38
805.744	34.06
805.92	32.61
806.096	34.79
806.272	34.51
806.448	35.96
806.623	36.52
806.799	37.34
806.975	36.71
807.151	36.2
807.327	35.98
807.503	36.56
807.678	36.3
807.854	36.56
808.03	35.63
808.206	35.9
808.381	35.88
808.557	35.19
808.733	35.32
808.908	36.74
809.084	37.19
809.26	36.69
809.435	36.86
809.611	37.98
809.787	37.94
809.962	38.25
810.138	37.93
810.313	37.49
810.489	37.07
810.664	37.59
810.84	36.83
811.015	37.22
811.191	37.66
811.366	38.36
811.542	37.41
811.717	37.84
811.892	37.44
812.068	36.64
812.243	37.01
812.419	37.26
812.594	35.51
812.769	35.47
812.944	34.07
813.12	34.64
813.295	34.51
813.47	34.47
813.645	35.29
813.821	35.1
813.996	34.7
814.171	34.05
814.346	33.35
814.521	33.92
814.697	33.88
814.872	34.47
815.047	33.47
815.222	33.03
815.397	32.3
815.572	31.08
815.747	32.13
815.922	32.21
816.097	33.17
816.272	34.5
816.447	33.95
816.622	32.19
816.797	32.79
816.972	33.28
817.147	33.01
817.322	34.14
817.496	32.92
817.671	31.23
817.846	31.16
818.021	30.76
818.196	30.24
818.371	30.39
818.545	31.88
818.72	30.83
818.895	29.52
819.069	30.46
819.244	29.36
819.419	31.11
819.594	31.07
819.768	30.92
819.943	30.6
820.117	29.91
820.292	29.83
820.467	29.13
820.641	28.53
820.816	28.11
820.99	27.32
821.165	27.09
821.339	26.35
821.514	26.43
821.688	26.86
821.863	26.42
822.037	26.69
822.212	26.2
822.386	26.06
822.56	25.98
822.735	25.82
822.909	25.65
823.084	25.67
823.258	25.86
823.432	25.81
823.606	25.58
823.781	25.79
823.955	25.31
824.129	25.68
824.303	25.85
824.478	26
824.652	26.46
824.826	26.76
825	26.83
825.174	26.76
825.348	26.64
825.523	26.59
825.697	26.21
825.871	26.82
826.045	27.05
826.219	27.22
826.393	26.93
826.567	26.79
826.741	26.08
826.915	25.95
827.089	25.64
827.263	25.63
827.437	25.62
827.611	26.19
827.784	25.99
827.958	25.39
828.132	25.22
828.306	25.77
828.48	25.89
828.654	26.48
828.827	27.27
829.001	27.57
829.175	27.52
829.349	27.43
829.522	27.34
829.696	27.67
829.87	28.5
830.044	28.76
830.217	28.46
830.391	28.55
830.565	27.94
830.738	26.76
830.912	26.65
831.085	27.13
831.259	28.06
831.432	26.5
831.606	26.91
831.779	28.27
831.953	28.49
832.126	29.23
832.3	28.97
832.473	30.38
832.647	31.16
832.82	30.84
832.994	30.17
833.167	29.97
833.34	30.48
833.514	29.65
833.687	28.85
833.86	28.6
834.034	27.41
834.207	28.04
834.38	27.37
834.553	27.29
834.727	27.87
834.9	28.28
835.073	27.96
835.246	28.66
835.419	29.5
835.593	29.46
835.766	29.47
835.939	30.64
836.112	31.3
836.285	31.87
836.458	31.82
836.631	31.05
836.804	31.63
836.977	31.96
837.15	31.49
837.323	31.78
837.496	31.58
837.669	31.96
837.842	32.31
838.015	29.91
838.188	30.3
838.361	31.54
838.533	31.24
838.706	31.98
838.879	33.23
839.052	33.16
839.225	32.82
839.398	32.85
839.57	32.28
839.743	30.72
839.916	32.76
840.088	33.27
840.261	32.24
840.434	33.99
840.607	35.12
840.779	34.88
840.952	33.22
841.124	31.79
841.297	32.76
841.47	33.04
841.642	33.38
841.815	33.78
841.987	33.45
842.16	33.37
842.332	32.17
842.505	29.43
842.677	30.01
842.85	32.39
843.022	32.78
843.194	31.51
843.367	33.51
843.539	38.62
843.712	35.15
843.884	36.22
844.056	37.26
844.229	37.39
844.401	40.79
844.573	38.81
844.745	39.98
844.918	42.15
845.09	44.25
845.262	41.44
845.434	39.2
845.606	40.85
845.779	39.4
845.951	40.47
846.123	43.51
846.295	39.09
846.467	40.06
846.639	40.24
846.811	37.65
846.983	37.61
847.155	38.39
847.327	37.33
847.499	40.38
847.671	40.26
847.843	38.64
848.015	35.28
848.187	36.04
848.359	37.37
848.531	39.29
848.703	40.9
848.875	40.73
849.047	39.9
849.218	41.61
849.39	40.11
849.562	39.53
849.734	39.65
849.905	39.23
850.077	37.94
850.249	40.13
850.421	39.35
850.592	41.96
850.764	44.07
850.936	44.94
851.107	42.67
851.279	42.75
851.451	42.96
851.622	41.91
851.794	43.05
851.965	47.09
852.137	46.03
852.308	45.29
852.48	41.81
852.651	40.09
852.823	40.4
852.994	38.73
853.166	38.33
853.337	40.97
853.509	42.57
853.68	42.35
853.851	40.37
854.023	39.07
854.194	39.75
854.365	41.52
854.537	42.47
854.708	40.53
854.879	43.3
855.05	44.33
855.222	43.43
855.393	41.6
855.564	44.53
855.735	45.53
855.906	43.26
856.078	43.44
856.249	43.88
856.42	39.85
856.591	39.21
856.762	39.29
856.933	40.71
857.104	37.33
857.275	40.89
857.446	40.18
857.617	38.4
857.788	38.67
857.959	36.48
858.13	35.36
858.301	38.26
858.472	46.98
858.643	44.29
858.814	39.8
858.985	45.11
859.155	42.41
859.326	42.83
859.497	45.79
859.668	47.39
859.839	49.3
860.009	51.21
860.18	47.72
860.351	40.09
860.522	42.25
860.692	41.68
860.863	37.12
861.034	39.24
861.204	37.27
861.375	35.04
861.546	35.94
861.716	34.11
861.887	33.71
862.057	38.43
862.228	45.39
862.398	45.63
862.569	49.29
862.739	49.6
862.91	48.88
863.08	49.58
863.251	50.37
863.421	49.43
863.592	49.8
863.762	50.72
863.932	45.36
864.103	45.42
864.273	41.98
864.443	43.17
864.614	44.04
864.784	43.49
864.954	45.46
865.125	42.39
865.295	38.96
865.465	38.15
865.635	35.44
865.805	38.08
865.976	36.44
866.146	37
866.316	37.2
866.486	36.83
866.656	37.88
866.826	38.11
866.996	37.87
867.166	44.11
867.336	42.94
867.506	45.17
867.676	44.65
867.846	40.37
868.016	38.88
868.186	36.14
868.356	34.22
868.526	31.04
868.696	30.22
868.866	35.48
869.036	33.02
869.206	33.84
869.376	32.47
869.545	29.19
869.715	31.06
869.885	30.9
870.055	32.52
870.224	35.44
870.394	39.65
870.564	36.37
870.734	33.64
870.903	31.22
871.073	33.34
871.243	34.14
871.412	36.3
871.582	37.72
871.751	42.32
871.921	37.59
872.091	38.88
872.26	39.37
872.43	39.25
872.599	35.66
872.769	36.12
872.938	35.69
873.108	37.84
873.277	37.16
873.446	33.87
873.616	32.82
873.785	35.68
873.955	34.46
874.124	31.45
874.293	32.32
874.463	33.16
874.632	29.57
874.801	31.22
874.971	27.73
875.14	25.38
875.309	26.33
875.478	26.58
875.647	28.42
875.817	26.02
875.986	30.09
876.155	28.08
876.324	29.91
876.493	34.28
876.662	32.89
876.831	30.79
877	32.28
877.17	33.65
877.339	32.04
877.508	28.95
877.677	33.09
877.846	26.25
878.015	29.23
878.184	29.18
878.352	28.12
878.521	23.68
878.69	27.78
878.859	27.32
879.028	26.66
879.197	29.11
879.366	31.99
879.534	28.95
879.703	33.05
879.872	30.41
880.041	30.26
880.21	28.57
880.378	28.48
880.547	26.62
880.716	27.36
880.884	26.1
881.053	24.3
881.222	22.48
881.39	22.13
881.559	21.01
881.727	21.71
881.896	21.05
882.065	20.97
882.233	20.78
882.402	20.22
882.57	19.76
882.739	19.78
882.907	21.1
883.076	21.74
883.244	22.74
883.412	22.83
883.581	22.57
883.749	22.31
883.918	22.66
884.086	23.02
884.254	23.65
884.423	24.02
884.591	24.68
884.759	22.92
884.927	22.63
885.096	21.77
885.264	20.94
885.432	20.01
885.6	20.97
885.769	20.83
885.937	20.89
886.105	20.77
886.273	21.09
886.441	21.24
886.609	23.28
886.777	24.53
886.945	22.68
887.113	24.94
887.281	26.5
887.449	27.39
887.617	29.26
887.785	32.13
887.953	30.21
888.121	31.36
888.289	31.74
888.457	28.69
888.625	27.81
888.793	31.51
888.961	33.29
889.129	36.28
889.296	36.46
889.464	35.22
889.632	33.33
889.8	39.39
889.967	39.33
890.135	40.01
