Data from 2938721__Reflection_02.txt Node
Date: Tue Mar 17 10:43:54 EDT 2015
User: robert
Spectrometer: USB4E03002
Autoset integration time: false
Trigger mode: 4
Integration Time (sec): 1.000000E-1
Scans to average: 10
Electric dark correction enabled: false
Nonlinearity correction enabled: false
Boxcar width: 5
Stray light correction enabled: false
XAxis mode: Wavelengths
Stop averaging: false
Number of Pixels in Spectrum: 3648
>>>>>Begin Spectral Data<<<<<
177.575	217.52
177.794	206.4
178.014	159.72
178.233	195.73
178.452	248.38
178.672	237.42
178.891	347.64
179.11	432
179.33	1138.46
179.549	827.59
179.768	571.76
179.987	331.29
180.207	394.2
180.426	-120.44
180.645	-186.1
180.864	-538.04
181.084	-267.2
181.303	-579.63
181.522	-503.55
181.741	-543.85
181.96	4300
182.179	5542.86
182.398	566.96
182.618	822.54
182.837	177.95
183.056	144.12
183.275	108.78
183.494	81.25
183.713	33.65
183.932	-70.99
184.151	-159.6
184.37	84.09
184.589	488.24
184.808	-81.54
185.027	5050
185.246	825
185.465	445.16
185.684	254.17
185.903	199.67
186.122	179.34
186.341	140.42
186.56	146.03
186.779	96.51
186.998	127.44
187.216	104.2
187.435	156.48
187.654	159.36
187.873	255.33
188.092	648.98
188.311	1642.86
188.53	1595.24
188.748	-1036.23
188.967	-776.54
189.186	-1147.06
189.405	-721.87
189.623	-177.95
189.842	-290.29
190.061	374.16
190.28	228.32
190.498	248.53
190.717	137.27
190.936	122.71
191.154	80.43
191.373	101.22
191.592	215.09
191.81	216.95
192.029	193.88
192.248	300.45
192.466	-8987.5
192.685	641.74
192.904	305.03
193.122	671.9
193.341	952.94
193.559	247.93
193.778	255.22
193.996	180.53
194.215	240.08
194.433	159.08
194.652	175.21
194.87	92.93
195.089	169.8
195.307	56.08
195.526	35.53
195.744	34
195.963	-13.39
196.181	-9.38
196.399	8.32
196.618	-0.88
196.836	6.7
197.055	37.35
197.273	37.52
197.491	43.27
197.71	55.78
197.928	56.56
198.146	65.96
198.365	106.95
198.583	164.37
198.801	221.76
199.019	192.49
199.238	161.06
199.456	121.87
199.674	142.21
199.892	141.52
200.111	122.98
200.329	186.72
200.547	133.96
200.765	127.27
200.983	100.71
201.202	50.24
201.42	77.61
201.638	63.3
201.856	87.61
202.074	23.26
202.292	17.47
202.51	22.96
202.728	27.22
202.946	18.28
203.165	7.36
203.383	8.12
203.601	5.29
203.819	-9.41
204.037	25.42
204.255	13.87
204.473	43.71
204.691	55.68
204.909	101.46
205.127	113.72
205.345	112.68
205.562	152.38
205.78	463.77
205.998	379
206.216	195.28
206.434	143.73
206.652	166.12
206.87	162.2
207.088	163.17
207.306	176.17
207.523	122.64
207.741	134.86
207.959	100
208.177	74.19
208.395	96.32
208.612	84.6
208.83	137.43
209.048	-8.13
209.266	93.62
209.483	-9.09
209.701	11.11
209.919	58.48
210.136	20.92
210.354	44.48
210.572	225.19
210.79	118.29
211.007	110.47
211.225	76.35
211.442	82.81
211.66	77.01
211.878	86.02
212.095	103.84
212.313	96.95
212.53	104.1
212.748	102.87
212.966	54.64
213.183	58.43
213.401	51.62
213.618	50.85
213.836	41.52
214.053	24.59
214.271	16.64
214.488	-3.69
214.705	19.01
214.923	2.89
215.14	27.99
215.358	22.12
215.575	32.08
215.793	10.37
216.01	-7.53
216.227	16.54
216.445	56.83
216.662	119.72
216.879	175.12
217.097	293.1
217.314	176.17
217.531	177.2
217.749	100
217.966	108.79
218.183	165.78
218.4	127.08
218.618	192.71
218.835	93.28
219.052	64.74
219.269	38.07
219.487	15.14
219.704	21.81
219.921	16.71
220.138	27.22
220.355	20.88
220.572	15.07
220.79	20.86
221.007	14.55
221.224	8.89
221.441	5.43
221.658	17.76
221.875	9.23
222.092	5.75
222.309	6.51
222.526	0.27
222.743	3.99
222.96	1.5
223.177	-4.58
223.394	0.44
223.611	4.44
223.828	12.29
224.045	7.88
224.262	15.93
224.479	16.83
224.696	20.62
224.913	18.31
225.13	17.37
225.347	18.2
225.564	18.36
225.781	13.51
225.997	10.65
226.214	9.49
226.431	10.95
226.648	9.59
226.865	10.89
227.082	7.66
227.298	7.61
227.515	5.62
227.732	6.13
227.949	5.86
228.165	6.13
228.382	5.72
228.599	4.48
228.816	4.01
229.032	3.58
229.249	3.77
229.466	3.42
229.682	3.94
229.899	4.48
230.116	3.73
230.332	3.71
230.549	2.61
230.765	4.14
230.982	4.45
231.199	4.71
231.415	4.41
231.632	2.2
231.848	3.26
232.065	3.83
232.281	2.72
232.498	3.84
232.714	4.24
232.931	7.93
233.147	6.19
233.364	6.95
233.58	5.73
233.797	7.55
234.013	9.72
234.23	8.9
234.446	8.14
234.662	7.93
234.879	7.72
235.095	7.53
235.312	4.13
235.528	4.89
235.744	3.34
235.961	4.05
236.177	2.32
236.393	2.62
236.61	0.81
236.826	0.66
237.042	1.35
237.258	1.69
237.475	2.66
237.691	4.52
237.907	3.62
238.123	5.38
238.339	5.31
238.556	4.79
238.772	3.98
238.988	6.22
239.204	6.19
239.42	6.13
239.636	3.8
239.853	3.88
240.069	4.88
240.285	5.41
240.501	5.14
240.717	5.33
240.933	5.63
241.149	4.84
241.365	4.29
241.581	4.62
241.797	4.67
242.013	5.61
242.229	5.73
242.445	5.68
242.661	5.57
242.877	5.37
243.093	5.48
243.309	5.55
243.525	6.26
243.741	6.57
243.957	6.16
244.173	5.69
244.388	5.9
244.604	6.25
244.82	5.44
245.036	5.35
245.252	4.98
245.468	4.6
245.683	4.28
245.899	3.89
246.115	4.1
246.331	4.66
246.547	4.65
246.762	4.63
246.978	4.45
247.194	4.57
247.409	4.44
247.625	4.58
247.841	4.4
248.057	4.47
248.272	4.41
248.488	4.33
248.703	3.8
248.919	3.87
249.135	3.33
249.35	3.07
249.566	3.73
249.782	3.88
249.997	3.38
250.213	4.21
250.428	5.12
250.644	5.83
250.859	6.1
251.075	6.19
251.29	6.35
251.506	7.37
251.721	7.44
251.937	5.89
252.152	5.84
252.368	6.66
252.583	6.57
252.798	5.96
253.014	5.47
253.229	4.84
253.445	4.66
253.66	4.28
253.875	3.72
254.091	3.41
254.306	4.21
254.521	4.59
254.737	4
254.952	3.36
255.167	3.48
255.383	4.4
255.598	4.41
255.813	3.46
256.028	3.44
256.244	3.35
256.459	3.3
256.674	3.44
256.889	3.22
257.104	3.18
257.32	2.14
257.535	2.14
257.75	2.03
257.965	2.11
258.18	3.02
258.395	3.43
258.61	2.76
258.826	2.85
259.041	3.17
259.256	3.05
259.471	3.28
259.686	3.56
259.901	3.8
260.116	3.93
260.331	4.26
260.546	4.33
260.761	4.19
260.976	4.62
261.191	4.59
261.406	4.12
261.621	4.18
261.836	3.67
262.05	3.81
262.265	3.1
262.48	2.49
262.695	1.74
262.91	1.59
263.125	1.78
263.34	1.72
263.555	1.51
263.769	1.71
263.984	1.31
264.199	1.45
264.414	1.94
264.629	2.58
264.843	2.85
265.058	3
265.273	2.87
265.488	2.91
265.702	3.11
265.917	3.29
266.132	4
266.346	4.69
266.561	4.8
266.776	4.18
266.99	4.51
267.205	4.67
267.42	4.27
267.634	3.96
267.849	3.79
268.063	3.65
268.278	3.49
268.492	3.06
268.707	3.16
268.922	3.27
269.136	3.36
269.351	2.78
269.565	2.82
269.78	2.97
269.994	2.92
270.209	2.52
270.423	2.61
270.637	2.55
270.852	2.36
271.066	1.85
271.281	2.04
271.495	2.3
271.709	2.42
271.924	2.1
272.138	2.31
272.353	2.38
272.567	2.56
272.781	2.44
272.996	3.05
273.21	3.09
273.424	3.09
273.638	3.05
273.853	2.7
274.067	2.83
274.281	3.16
274.495	2.7
274.71	2.76
274.924	2.33
275.138	1.95
275.352	1.12
275.566	1.49
275.781	1.71
275.995	1.32
276.209	1.85
276.423	2.06
276.637	1.82
276.851	2.08
277.065	2.4
277.279	2.28
277.493	2.57
277.707	3.2
277.921	2.63
278.135	2.65
278.349	3.11
278.563	2.26
278.777	2.18
278.991	2.21
279.205	2.35
279.419	2.54
279.633	3.35
279.847	3.55
280.061	2.94
280.275	3.41
280.489	3.85
280.703	4.11
280.917	4.89
281.131	4.6
281.344	4.53
281.558	4.48
281.772	4.35
281.986	4.41
282.2	4.55
282.414	4.74
282.627	4.35
282.841	3.64
283.055	3.31
283.269	2.77
283.482	2.8
283.696	2.6
283.91	2.62
284.123	2.15
284.337	2.1
284.551	1.41
284.764	1.41
284.978	1.85
285.192	1.93
285.405	2.01
285.619	2.2
285.833	1.96
286.046	1.85
286.26	2.12
286.473	2.22
286.687	2.39
286.9	2.99
287.114	2.94
287.327	2.6
287.541	2.64
287.754	2.35
287.968	2.27
288.181	2.37
288.395	2.65
288.608	2.67
288.822	2.78
289.035	2.67
289.248	2.47
289.462	2.93
289.675	3
289.889	3
290.102	3.31
290.315	3.18
290.529	3.42
290.742	3.42
290.955	3.21
291.169	3.13
291.382	2.87
291.595	2.8
291.808	2.25
292.022	2.31
292.235	2.34
292.448	2.11
292.661	2.36
292.875	2.07
293.088	2.11
293.301	1.93
293.514	2.29
293.727	2.38
293.94	2.57
294.153	2.99
294.367	3.04
294.58	3.13
294.793	2.79
295.006	2.67
295.219	3.09
295.432	2.9
295.645	3.02
295.858	3.13
296.071	3.3
296.284	3.33
296.497	3.39
296.71	3.44
296.923	3.52
297.136	3.63
297.349	3.7
297.562	3.75
297.775	3.78
297.988	3.77
298.201	3.6
298.414	3.47
298.626	3.5
298.839	3.37
299.052	3.18
299.265	3.23
299.478	3.68
299.691	3.53
299.903	3.37
300.116	3.31
300.329	3.63
300.542	3.49
300.755	3.22
300.967	3.16
301.18	3.29
301.393	3.64
301.605	3.62
301.818	3.57
302.031	3.73
302.243	3.31
302.456	3.55
302.669	3.08
302.881	3.41
303.094	3.8
303.307	3.69
303.519	3.59
303.732	3.26
303.944	2.91
304.157	2.73
304.37	2.93
304.582	3.13
304.795	3.13
305.007	3.52
305.22	3.34
305.432	3.11
305.645	3.32
305.857	3.15
306.069	3.4
306.282	3.82
306.494	3.58
306.707	3.62
306.919	3.78
307.132	3.72
307.344	3.56
307.556	3.75
307.769	3.82
307.981	3.82
308.193	3.96
308.406	3.62
308.618	3.31
308.83	3.85
309.043	3.66
309.255	3.66
309.467	3.93
309.679	4.01
309.892	3.84
310.104	3.98
310.316	4.03
310.528	3.96
310.74	4.1
310.953	4.3
311.165	4.16
311.377	4.28
311.589	4.55
311.801	4.63
312.013	4.96
312.225	5.23
312.437	5.33
312.649	5.46
312.862	5.71
313.074	5.84
313.286	5.97
313.498	6.06
313.71	5.93
313.922	5.98
314.134	6.06
314.346	5.48
314.558	5.25
314.77	5.15
314.982	5.29
315.193	4.83
315.405	4.91
315.617	4.56
315.829	4.78
316.041	4.93
316.253	4.82
316.465	4.94
316.677	5.35
316.888	5.63
317.1	5.71
317.312	5.21
317.524	5.84
317.736	6.37
317.947	6.74
318.159	6.56
318.371	6.61
318.583	6.38
318.794	6.11
319.006	5.86
319.218	5.75
319.43	6.04
319.641	5.93
319.853	5.96
320.064	5.96
320.276	5.95
320.488	6.1
320.699	6.17
320.911	6.38
321.123	6.54
321.334	6.82
321.546	6.85
321.757	6.62
321.969	6.72
322.18	6.27
322.392	5.57
322.603	6.2
322.815	6.39
323.026	6.29
323.238	6.24
323.449	6.06
323.661	6.01
323.872	6.21
324.083	6.34
324.295	6.56
324.506	6.81
324.718	6.82
324.929	6.61
325.14	6.15
325.352	6.3
325.563	6.23
325.774	6.54
325.986	6.48
326.197	6.31
326.408	6.16
326.62	6.09
326.831	6.33
327.042	6.89
327.253	6.9
327.464	7.19
327.676	7.53
327.887	7.97
328.098	8.15
328.309	8.28
328.52	8.15
328.732	8.29
328.943	8.55
329.154	8.56
329.365	8.13
329.576	7.82
329.787	7.68
329.998	7.63
330.209	7.75
330.42	7.62
330.631	7.95
330.842	8.41
331.053	8.52
331.264	8.67
331.475	8.46
331.686	8.5
331.897	8.34
332.108	8.51
332.319	8.57
332.53	8.55
332.741	8.43
332.952	8.55
333.163	8.6
333.374	8.71
333.585	8.5
333.795	8.49
334.006	8.94
334.217	9.24
334.428	9.25
334.639	9.51
334.849	9.29
335.06	9.2
335.271	8.85
335.482	9.03
335.692	9.15
335.903	9.68
336.114	9.75
336.325	10.01
336.535	10.19
336.746	10.37
336.957	9.83
337.167	9.74
337.378	10.05
337.589	10.31
337.799	9.95
338.01	10.05
338.22	9.59
338.431	9.74
338.642	9.33
338.852	9.32
339.063	9.12
339.273	9.58
339.484	10.01
339.694	9.54
339.905	9.21
340.115	9.54
340.326	9.38
340.536	9.38
340.746	9.13
340.957	9.27
341.167	8.88
341.378	8.97
341.588	8.6
341.799	8.3
342.009	8.57
342.219	8.8
342.43	8.74
342.64	8.73
342.85	8.8
343.061	8.88
343.271	8.95
343.481	9.35
343.691	9.35
343.902	9.31
344.112	9.26
344.322	9.09
344.532	9.1
344.743	9.19
344.953	8.99
345.163	8.98
345.373	8.92
345.583	9.21
345.793	8.96
346.004	8.7
346.214	8.82
346.424	8.88
346.634	8.97
346.844	9.11
347.054	8.99
347.264	9.39
347.474	9.42
347.684	9.49
347.894	8.71
348.104	9.15
348.314	9.58
348.524	9.65
348.734	9.55
348.944	9.52
349.154	9.34
349.364	9.25
349.574	8.85
349.784	8.97
349.994	9.07
350.204	9.47
350.413	9.32
350.623	8.94
350.833	9.08
351.043	9.25
351.253	9.3
351.463	9.12
351.672	9.22
351.882	9.19
352.092	9.03
352.302	8.96
352.511	8.93
352.721	8.65
352.931	8.95
353.141	8.94
353.35	8.47
353.56	8.67
353.77	8.69
353.979	8.82
354.189	9.03
354.399	9.15
354.608	9.44
354.818	9.15
355.027	9.36
355.237	9.05
355.447	8.7
355.656	8.99
355.866	8.8
356.075	8.86
356.285	8.56
356.494	8.5
356.704	8.36
356.913	8.09
357.123	8.2
357.332	8.2
357.542	8.45
357.751	8.66
357.96	8.75
358.17	8.88
358.379	8.96
358.589	8.89
358.798	8.98
359.007	9.02
359.217	9.15
359.426	9.09
359.635	9.11
359.845	9.11
360.054	9.02
360.263	8.93
360.472	8.81
360.682	8.69
360.891	8.95
361.1	8.69
361.309	8.54
361.519	8.56
361.728	8.67
361.937	8.53
362.146	8.43
362.355	8.41
362.564	8.31
362.774	8.29
362.983	8.39
363.192	8.14
363.401	8.31
363.61	8.53
363.819	8.71
364.028	8.73
364.237	8.75
364.446	8.82
364.655	8.82
364.864	8.66
365.073	8.58
365.282	8.43
365.491	8.67
365.7	8.5
365.909	8.4
366.118	8.18
366.327	7.85
366.536	7.67
366.745	7.63
366.954	7.78
367.162	8.01
367.371	8.14
367.58	8.28
367.789	8.2
367.998	8.19
368.207	8.08
368.415	8.02
368.624	8.08
368.833	8.15
369.042	8.19
369.25	8.14
369.459	8.11
369.668	8.03
369.877	7.67
370.085	7.57
370.294	7.89
370.503	7.93
370.711	7.59
370.92	7.84
371.129	7.81
371.337	7.69
371.546	7.49
371.754	7.58
371.963	7.55
372.171	7.77
372.38	7.73
372.589	7.62
372.797	7.7
373.006	8.2
373.214	8.02
373.423	8.09
373.631	8.07
373.84	8.19
374.048	7.93
374.256	7.79
374.465	7.95
374.673	7.94
374.882	7.82
375.09	7.71
375.298	7.38
375.507	7.19
375.715	7.13
375.923	6.99
376.132	7
376.34	7.06
376.548	7.18
376.757	6.97
376.965	6.98
377.173	7
377.381	7.12
377.59	7.15
377.798	7.15
378.006	7.19
378.214	7.24
378.423	7.09
378.631	7.14
378.839	6.97
379.047	6.95
379.255	6.94
379.463	6.93
379.671	6.66
379.879	6.37
380.088	6.71
380.296	6.74
380.504	6.76
380.712	6.81
380.92	6.76
381.128	7.11
381.336	7.09
381.544	7.19
381.752	6.92
381.96	6.98
382.168	7.29
382.376	7.06
382.584	7.11
382.791	7.16
382.999	7.18
383.207	7
383.415	6.83
383.623	6.95
383.831	6.79
384.039	7.03
384.247	7.16
384.454	7.03
384.662	7.04
384.87	6.93
385.078	6.73
385.285	6.71
385.493	6.91
385.701	6.67
385.909	6.59
386.116	6.52
386.324	6.52
386.532	6.58
386.739	6.61
386.947	6.62
387.155	6.85
387.362	6.9
387.57	6.8
387.778	6.7
387.985	6.82
388.193	6.8
388.4	6.87
388.608	7.01
388.816	6.79
389.023	6.65
389.231	6.5
389.438	6.22
389.646	6.33
389.853	6.37
390.061	6.55
390.268	6.61
390.475	6.66
390.683	6.6
390.89	6.31
391.098	6.48
391.305	6.64
391.512	6.76
391.72	6.86
391.927	6.9
392.135	6.72
392.342	6.59
392.549	6.43
392.756	6.42
392.964	6.31
393.171	6.51
393.378	6.36
393.586	6.34
393.793	6.27
394	6.11
394.207	6.06
394.414	6.22
394.622	6.27
394.829	6.5
395.036	6.15
395.243	6.24
395.45	6.03
395.657	6
395.864	5.88
396.072	5.91
396.279	6
396.486	5.94
396.693	5.92
396.9	5.73
397.107	5.58
397.314	5.84
397.521	5.93
397.728	6.08
397.935	5.97
398.142	6.02
398.349	5.98
398.556	6.09
398.763	6.01
398.97	6.04
399.177	6.11
399.383	6.08
399.59	6.1
399.797	6.28
400.004	6.19
400.211	6.26
400.418	6.22
400.625	6.11
400.831	5.93
401.038	5.98
401.245	5.93
401.452	6
401.658	6.03
401.865	6.01
402.072	5.83
402.279	5.87
402.485	5.83
402.692	5.92
402.899	5.97
403.105	5.93
403.312	5.87
403.519	5.89
403.725	5.76
403.932	5.83
404.138	5.92
404.345	5.99
404.552	5.93
404.758	6.06
404.965	5.94
405.171	5.93
405.378	5.95
405.584	5.99
405.791	6.1
405.997	6.09
406.204	6.15
406.41	5.92
406.617	5.7
406.823	5.62
407.029	5.61
407.236	5.46
407.442	5.47
407.649	5.5
407.855	5.42
408.061	5.2
408.268	5.19
408.474	5.15
408.68	5.24
408.887	5.28
409.093	5.56
409.299	5.57
409.505	5.6
409.712	5.56
409.918	5.54
410.124	5.56
410.33	5.52
410.537	5.52
410.743	5.43
410.949	5.5
411.155	5.47
411.361	5.32
411.567	5.11
411.773	5.24
411.98	5.32
412.186	5.04
412.392	4.91
412.598	4.98
412.804	5.13
413.01	5.18
413.216	5.11
413.422	5.22
413.628	5.29
413.834	5.4
414.04	5.52
414.246	5.45
414.452	5.53
414.658	5.68
414.864	5.8
415.07	5.92
415.275	5.83
415.481	5.73
415.687	5.75
415.893	5.71
416.099	5.68
416.305	5.57
416.511	5.56
416.716	5.7
416.922	5.78
417.128	5.69
417.334	5.54
417.539	5.6
417.745	5.69
417.951	5.62
418.157	5.61
418.362	5.58
418.568	5.55
418.774	5.61
418.979	5.64
419.185	5.61
419.391	5.53
419.596	5.52
419.802	5.52
420.008	5.54
420.213	5.57
420.419	5.52
420.624	5.65
420.83	5.73
421.035	5.74
421.241	5.72
421.446	5.74
421.652	5.81
421.857	5.82
422.063	5.79
422.268	5.79
422.474	5.76
422.679	5.79
422.885	5.66
423.09	5.6
423.295	5.58
423.501	5.58
423.706	5.57
423.911	5.57
424.117	5.59
424.322	5.6
424.527	5.61
424.733	5.62
424.938	5.66
425.143	5.75
425.349	5.73
425.554	5.71
425.759	5.77
425.964	5.67
426.169	5.64
426.375	5.63
426.58	5.67
426.785	5.62
426.99	5.68
427.195	5.62
427.4	5.56
427.605	5.57
427.811	5.56
428.016	5.37
428.221	5.46
428.426	5.5
428.631	5.48
428.836	5.28
429.041	5.28
429.246	5.27
429.451	5.19
429.656	5.14
429.861	5.2
430.066	5.22
430.271	5.2
430.476	5.21
430.681	5.14
430.886	4.98
431.09	5.07
431.295	5.06
431.5	5.06
431.705	4.97
431.91	5.03
432.115	4.99
432.32	4.86
432.524	5.05
432.729	4.99
432.934	5.09
433.139	5.17
433.343	5.11
433.548	5.08
433.753	5.07
433.958	5.24
434.162	5.21
434.367	5.23
434.572	5.34
434.776	5.27
434.981	5.38
435.186	5.45
435.39	5.46
435.595	5.51
435.799	5.61
436.004	5.69
436.209	5.68
436.413	5.77
436.618	5.67
436.822	5.66
437.027	5.74
437.231	5.67
437.436	5.57
437.64	5.56
437.845	5.59
438.049	5.58
438.253	5.51
438.458	5.52
438.662	5.46
438.867	5.62
439.071	5.61
439.275	5.49
439.48	5.45
439.684	5.51
439.888	5.55
440.093	5.57
440.297	5.52
440.501	5.54
440.706	5.46
440.91	5.43
441.114	5.31
441.318	5.36
441.523	5.45
441.727	5.45
441.931	5.38
442.135	5.35
442.339	5.33
442.543	5.38
442.748	5.34
442.952	5.41
443.156	5.45
443.36	5.53
443.564	5.51
443.768	5.46
443.972	5.48
444.176	5.56
444.38	5.57
444.584	5.58
444.788	5.56
444.992	5.58
445.196	5.58
445.4	5.52
445.604	5.48
445.808	5.41
446.012	5.38
446.216	5.38
446.42	5.32
446.624	5.29
446.828	5.29
447.032	5.26
447.235	5.24
447.439	5.21
447.643	5.31
447.847	5.36
448.051	5.4
448.254	5.39
448.458	5.45
448.662	5.48
448.866	5.48
449.069	5.44
449.273	5.47
449.477	5.5
449.681	5.49
449.884	5.42
450.088	5.41
450.292	5.43
450.495	5.43
450.699	5.4
450.902	5.4
451.106	5.41
451.31	5.38
451.513	5.42
451.717	5.41
451.92	5.49
452.124	5.45
452.327	5.41
452.531	5.28
452.734	5.37
452.938	5.37
453.141	5.32
453.345	5.38
453.548	5.43
453.752	5.36
453.955	5.31
454.158	5.3
454.362	5.29
454.565	5.22
454.769	5.44
454.972	5.33
455.175	5.25
455.379	5.33
455.582	5.36
455.785	5.33
455.988	5.34
456.192	5.32
456.395	5.39
456.598	5.41
456.801	5.44
457.005	5.31
457.208	5.39
457.411	5.54
457.614	5.51
457.817	5.37
458.021	5.44
458.224	5.42
458.427	5.43
458.63	5.3
458.833	5.22
459.036	5.21
459.239	5.25
459.442	5.19
459.645	5.1
459.848	5.07
460.051	5.13
460.254	5.08
460.457	5.03
460.66	5.07
460.863	5.06
461.066	5.21
461.269	5.23
461.472	5.21
461.675	5.31
461.878	5.34
462.081	5.37
462.284	5.32
462.486	5.33
462.689	5.48
462.892	5.49
463.095	5.53
463.298	5.6
463.5	5.63
463.703	5.56
463.906	5.56
464.109	5.53
464.311	5.62
464.514	5.58
464.717	5.66
464.92	5.6
465.122	5.61
465.325	5.68
465.528	5.55
465.73	5.54
465.933	5.68
466.135	5.59
466.338	5.6
466.541	5.49
466.743	5.57
466.946	5.51
467.148	5.54
467.351	5.42
467.553	5.42
467.756	5.41
467.958	5.42
468.161	5.45
468.363	5.55
468.566	5.58
468.768	5.66
468.971	5.71
469.173	5.59
469.375	5.57
469.578	5.7
469.78	5.65
469.983	5.66
470.185	5.67
470.387	5.51
470.59	5.45
470.792	5.44
470.994	5.4
471.196	5.33
471.399	5.42
471.601	5.45
471.803	5.37
472.005	5.44
472.208	5.4
472.41	5.43
472.612	5.45
472.814	5.46
473.016	5.44
473.218	5.45
473.421	5.6
473.623	5.7
473.825	5.68
474.027	5.7
474.229	5.66
474.431	5.69
474.633	5.8
474.835	5.77
475.037	5.76
475.239	5.77
475.441	5.69
475.643	5.53
475.845	5.47
476.047	5.43
476.249	5.41
476.451	5.39
476.653	5.4
476.855	5.17
477.057	5.25
477.258	5.25
477.46	5.19
477.662	5.18
477.864	5.2
478.066	5.21
478.268	5.18
478.469	5.16
478.671	5.1
478.873	5.04
479.075	5.13
479.276	5.05
479.478	5.14
479.68	5.15
479.882	5.14
480.083	5.18
480.285	5.18
480.487	5.23
480.688	5.21
480.89	5.2
481.091	5.21
481.293	5.19
481.495	5.22
481.696	5.2
481.898	5.18
482.099	5.22
482.301	5.2
482.502	5.13
482.704	5.14
482.905	5.15
483.107	5.18
483.308	5.16
483.51	5.19
483.711	5.19
483.913	5.14
484.114	5.15
484.315	5.15
484.517	5.16
484.718	5.2
484.92	5.23
485.121	5.24
485.322	5.26
485.524	5.29
485.725	5.27
485.926	5.25
486.127	5.33
486.329	5.35
486.53	5.35
486.731	5.27
486.932	5.26
487.134	5.26
487.335	5.25
487.536	5.26
487.737	5.26
487.938	5.31
488.139	5.33
488.341	5.29
488.542	5.33
488.743	5.36
488.944	5.44
489.145	5.48
489.346	5.47
489.547	5.47
489.748	5.46
489.949	5.49
490.15	5.47
490.351	5.43
490.552	5.41
490.753	5.34
490.954	5.29
491.155	5.32
491.356	5.29
491.557	5.27
491.758	5.29
491.959	5.31
492.159	5.3
492.36	5.25
492.561	5.3
492.762	5.33
492.963	5.37
493.164	5.4
493.364	5.39
493.565	5.46
493.766	5.47
493.967	5.5
494.167	5.45
494.368	5.47
494.569	5.55
494.769	5.62
494.97	5.62
495.171	5.62
495.371	5.57
495.572	5.6
495.773	5.52
495.973	5.51
496.174	5.46
496.375	5.49
496.575	5.35
496.776	5.32
496.976	5.28
497.177	5.33
497.377	5.31
497.578	5.34
497.778	5.34
497.979	5.38
498.179	5.43
498.38	5.45
498.58	5.39
498.78	5.54
498.981	5.56
499.181	5.58
499.382	5.63
499.582	5.62
499.782	5.61
499.983	5.59
500.183	5.63
500.383	5.67
500.584	5.69
500.784	5.78
500.984	5.79
501.184	5.82
501.385	5.72
501.585	5.63
501.785	5.64
501.985	5.73
502.185	5.7
502.386	5.7
502.586	5.65
502.786	5.68
502.986	5.71
503.186	5.65
503.386	5.64
503.586	5.7
503.786	5.7
503.987	5.82
504.187	5.83
504.387	5.87
504.587	5.85
504.787	5.87
504.987	5.91
505.187	5.96
505.387	6.08
505.587	6.15
505.786	6.18
505.986	6.25
506.186	6.21
506.386	6.16
506.586	6.26
506.786	6.22
506.986	6.17
507.186	6.08
507.386	6.06
507.585	6.07
507.785	6.02
507.985	6.07
508.185	6.04
508.384	6.09
508.584	6.13
508.784	6.05
508.984	6.07
509.183	6.17
509.383	6.19
509.583	6.23
509.782	6.17
509.982	6.17
510.182	6.18
510.381	6.21
510.581	6.24
510.781	6.24
510.98	6.27
511.18	6.32
511.379	6.29
511.579	6.32
511.778	6.36
511.978	6.41
512.177	6.47
512.377	6.6
512.576	6.68
512.776	6.68
512.975	6.76
513.175	6.79
513.374	6.82
513.573	6.89
513.773	6.97
513.972	7.02
514.172	7.09
514.371	7.1
514.57	7.07
514.77	7.09
514.969	7.13
515.168	7.11
515.367	7.23
515.567	7.23
515.766	7.24
515.965	7.25
516.164	7.18
516.364	7.14
516.563	7.24
516.762	7.18
516.961	7.2
517.16	7.17
517.359	7.24
517.559	7.25
517.758	7.36
517.957	7.39
518.156	7.45
518.355	7.5
518.554	7.58
518.753	7.63
518.952	7.73
519.151	7.73
519.35	7.83
519.549	7.84
519.748	7.88
519.947	7.88
520.146	7.96
520.345	7.98
520.544	7.98
520.743	8.05
520.942	8.09
521.141	8.12
521.339	8.24
521.538	8.26
521.737	8.36
521.936	8.43
522.135	8.48
522.333	8.51
522.532	8.57
522.731	8.77
522.93	8.82
523.129	8.89
523.327	8.91
523.526	8.92
523.725	8.98
523.923	9.11
524.122	9.12
524.321	9.29
524.519	9.35
524.718	9.37
524.917	9.36
525.115	9.36
525.314	9.39
525.512	9.51
525.711	9.59
525.909	9.66
526.108	9.66
526.306	9.74
526.505	9.81
526.703	9.89
526.902	9.98
527.1	10.03
527.299	10.11
527.497	10.19
527.696	10.16
527.894	10.17
528.092	10.24
528.291	10.32
528.489	10.36
528.688	10.34
528.886	10.36
529.084	10.4
529.283	10.5
529.481	10.56
529.679	10.6
529.877	10.72
530.076	10.83
530.274	10.9
530.472	10.92
530.67	10.99
530.869	11.13
531.067	11.21
531.265	11.3
531.463	11.35
531.661	11.43
531.859	11.48
532.057	11.58
532.255	11.65
532.454	11.74
532.652	11.78
532.85	11.83
533.048	11.9
533.246	11.97
533.444	12.03
533.642	12.11
533.84	12.16
534.038	12.23
534.236	12.29
534.434	12.32
534.632	12.37
534.83	12.54
535.027	12.64
535.225	12.68
535.423	12.8
535.621	12.91
535.819	12.95
536.017	12.99
536.215	13.07
536.412	13.13
536.61	13.19
536.808	13.18
537.006	13.2
537.203	13.26
537.401	13.36
537.599	13.37
537.797	13.4
537.994	13.42
538.192	13.52
538.39	13.62
538.587	13.68
538.785	13.76
538.983	13.86
539.18	13.9
539.378	13.99
539.575	14.07
539.773	14.2
539.97	14.26
540.168	14.32
540.366	14.33
540.563	14.29
540.761	14.3
540.958	14.36
541.155	14.43
541.353	14.5
541.55	14.5
541.748	14.52
541.945	14.56
542.143	14.62
542.34	14.66
542.537	14.78
542.735	14.89
542.932	15
543.129	15.07
543.327	15.1
543.524	15.19
543.721	15.32
543.919	15.4
544.116	15.38
544.313	15.48
544.51	15.57
544.708	15.6
544.905	15.67
545.102	15.74
545.299	15.81
545.496	15.95
545.693	15.9
545.891	15.89
546.088	15.93
546.285	16.06
546.482	16.04
546.679	16.13
546.876	16.21
547.073	16.24
547.27	16.26
547.467	16.25
547.664	16.28
547.861	16.42
548.058	16.48
548.255	16.51
548.452	16.51
548.649	16.62
548.846	16.58
549.043	16.6
549.24	16.6
549.437	16.62
549.633	16.6
549.83	16.6
550.027	16.63
550.224	16.68
550.421	16.71
550.618	16.68
550.814	16.72
551.011	16.86
551.208	16.86
551.405	16.94
551.601	16.9
551.798	17.01
551.995	17.04
552.191	17.05
552.388	17.06
552.585	17.07
552.781	17.07
552.978	17.1
553.175	17.12
553.371	17.07
553.568	17.12
553.764	17.19
553.961	17.19
554.157	17.17
554.354	17.11
554.55	17.09
554.747	17.2
554.943	17.3
555.14	17.23
555.336	17.2
555.533	17.31
555.729	17.28
555.926	17.32
556.122	17.35
556.318	17.29
556.515	17.39
556.711	17.53
556.907	17.47
557.104	17.45
557.3	17.51
557.496	17.34
557.693	17.36
557.889	17.45
558.085	17.48
558.281	17.67
558.478	17.8
558.674	17.75
558.87	17.62
559.066	17.66
559.262	17.69
559.459	17.71
559.655	17.91
559.851	17.86
560.047	17.87
560.243	17.82
560.439	17.71
560.635	17.8
560.831	17.89
561.027	18.07
561.223	18.08
561.419	18.16
561.615	18.19
561.811	18.26
562.007	18.35
562.203	18.37
562.399	18.54
562.595	18.58
562.791	18.48
562.987	18.45
563.183	18.33
563.379	18.3
563.575	18.31
563.771	18.42
563.966	18.42
564.162	18.35
564.358	18.31
564.554	18.21
564.75	18.17
564.945	18.28
565.141	18.28
565.337	18.39
565.533	18.46
565.728	18.5
565.924	18.41
566.12	18.39
566.315	18.43
566.511	18.48
566.707	18.52
566.902	18.69
567.098	18.68
567.293	18.68
567.489	18.56
567.684	18.56
567.88	18.52
568.076	18.53
568.271	18.49
568.467	18.53
568.662	18.62
568.858	18.62
569.053	18.43
569.248	18.47
569.444	18.44
569.639	18.52
569.835	18.66
570.03	18.69
570.225	18.73
570.421	18.81
570.616	18.86
570.812	18.81
571.007	18.8
571.202	18.9
571.397	18.85
571.593	18.85
571.788	18.9
571.983	18.82
572.178	18.84
572.374	18.94
572.569	18.95
572.764	18.85
572.959	18.79
573.154	18.79
573.35	18.74
573.545	18.75
573.74	18.86
573.935	18.85
574.13	18.87
574.325	18.86
574.52	18.74
574.715	18.79
574.91	18.95
575.105	19.06
575.3	19.11
575.495	19.15
575.69	19.29
575.885	19.31
576.08	19.39
576.275	19.36
576.47	19.31
576.665	19.42
576.86	19.42
577.055	19.34
577.25	19.26
577.444	19.24
577.639	19.26
577.834	19.23
578.029	19.25
578.224	19.17
578.418	19.19
578.613	19.37
578.808	19.4
579.003	19.42
579.197	19.44
579.392	19.57
579.587	19.68
579.781	19.65
579.976	19.64
580.171	19.54
580.365	19.66
580.56	19.76
580.755	19.75
580.949	19.76
581.144	19.77
581.338	19.76
581.533	19.74
581.727	19.84
581.922	19.88
582.116	19.96
582.311	19.99
582.505	20.1
582.7	20
582.894	19.95
583.089	20.06
583.283	20.13
583.478	20.06
583.672	19.98
583.866	19.96
584.061	20.03
584.255	19.99
584.449	20.12
584.644	19.96
584.838	19.91
585.032	19.85
585.226	19.68
585.421	19.72
585.615	19.79
585.809	19.93
586.003	19.92
586.198	19.9
586.392	19.97
586.586	19.95
586.78	19.88
586.974	19.99
587.168	20.17
587.363	20.24
587.557	20.14
587.751	20.21
587.945	20.16
588.139	20.15
588.333	20.15
588.527	20.1
588.721	20.09
588.915	20.1
589.109	20.12
589.303	20.06
589.497	19.94
589.691	20
589.885	20.09
590.079	20.01
590.273	19.98
590.466	19.97
590.66	20.04
590.854	20.05
591.048	20.13
591.242	20.02
591.436	20.06
591.629	20.01
591.823	19.89
592.017	19.98
592.211	20.09
592.404	20.06
592.598	20.17
592.792	20.01
592.986	20.22
593.179	20.23
593.373	20.33
593.567	20.32
593.76	20.49
593.954	20.57
594.147	20.51
594.341	20.48
594.535	20.5
594.728	20.44
594.922	20.61
595.115	20.38
595.309	20.4
595.502	20.4
595.696	20.31
595.889	20.25
596.083	20.21
596.276	19.98
596.47	20
596.663	19.96
596.856	19.93
597.05	19.88
597.243	19.96
597.437	19.98
597.63	20.01
597.823	20.05
598.017	20.15
598.21	20.18
598.403	20.3
598.596	20.31
598.79	20.4
598.983	20.42
599.176	20.32
599.369	20.27
599.563	20.32
599.756	20.38
599.949	20.39
600.142	20.34
600.335	20.23
600.528	20.3
600.722	20.38
600.915	20.34
601.108	20.46
601.301	20.51
601.494	20.67
601.687	20.62
601.88	20.47
602.073	20.62
602.266	20.57
602.459	20.64
602.652	20.67
602.845	20.63
603.038	20.73
603.231	20.68
603.424	20.63
603.617	20.59
603.809	20.51
604.002	20.6
604.195	20.49
604.388	20.54
604.581	20.63
604.774	20.61
604.966	20.6
605.159	20.49
605.352	20.49
605.545	20.52
605.737	20.53
605.93	20.77
606.123	20.74
606.316	20.75
606.508	20.71
606.701	20.77
606.894	20.78
607.086	20.76
607.279	20.88
607.471	20.91
607.664	20.98
607.857	20.97
608.049	20.82
608.242	20.99
608.434	21.25
608.627	21.4
608.819	21.53
609.012	21.79
609.204	22.05
609.397	22.29
609.589	22.56
609.782	22.84
609.974	23.22
610.166	23.79
610.359	24.08
610.551	24.25
610.743	24.72
610.936	24.98
611.128	25.25
611.32	25.28
611.513	25.43
611.705	25.34
611.897	25.5
612.09	25.34
612.282	24.98
612.474	24.73
612.666	24.64
612.858	24.27
613.051	24.09
613.243	23.69
613.435	23.62
613.627	23.45
613.819	23.56
614.011	23.32
614.203	23.25
614.395	23.14
614.588	23.19
614.78	23.16
614.972	23.02
615.164	22.82
615.356	22.9
615.548	22.95
615.74	22.91
615.932	22.65
616.124	22.45
616.315	22.41
616.507	22.33
616.699	22.35
616.891	22.31
617.083	22.4
617.275	22.47
617.467	22.36
617.659	22.25
617.85	22.14
618.042	22.34
618.234	22.46
618.426	22.42
618.618	22.45
618.809	22.19
619.001	22.14
619.193	22.01
619.384	21.88
619.576	21.9
619.768	21.88
619.959	21.97
620.151	21.78
620.343	21.68
620.534	21.73
620.726	21.76
620.917	21.88
621.109	21.69
621.301	21.68
621.492	21.86
621.684	21.68
621.875	21.71
622.067	21.53
622.258	21.41
622.45	21.43
622.641	21.41
622.832	21.53
623.024	21.51
623.215	21.62
623.407	21.7
623.598	21.56
623.789	21.67
623.981	21.75
624.172	21.82
624.363	21.91
624.555	22.05
624.746	21.85
624.937	21.68
625.129	21.66
625.32	21.69
625.511	21.62
625.702	21.62
625.893	21.64
626.085	21.46
626.276	21.33
626.467	21.46
626.658	21.5
626.849	21.64
627.04	21.64
627.231	21.61
627.422	21.45
627.614	21.4
627.805	21.22
627.996	21.22
628.187	21.34
628.378	21.36
628.569	21.4
628.76	21.26
628.951	21.31
629.142	21.34
629.332	21.5
629.523	21.7
629.714	21.73
629.905	22.03
630.096	22.13
630.287	22.11
630.478	22.24
630.669	22.29
630.859	22.25
631.05	22.14
631.241	22.09
631.432	21.77
631.623	21.78
631.813	21.86
632.004	21.79
632.195	21.74
632.385	21.63
632.576	21.67
632.767	21.66
632.957	21.61
633.148	21.52
633.339	21.59
633.529	21.82
633.72	21.89
633.91	21.94
634.101	22.02
634.292	22.07
634.482	22.24
634.673	22.15
634.863	21.99
635.054	22.05
635.244	22.17
635.435	22.08
635.625	22.02
635.815	21.74
636.006	21.6
636.196	21.52
636.387	21.42
636.577	21.28
636.767	21.29
636.958	21.32
637.148	21.39
637.338	21.25
637.529	21.22
637.719	21.3
637.909	21.42
638.099	21.6
638.29	21.52
638.48	21.52
638.67	21.75
638.86	21.87
639.05	21.97
639.241	21.99
639.431	22.17
639.621	22.29
639.811	22.2
640.001	22.15
640.191	21.93
640.381	21.88
640.571	21.78
640.761	21.49
640.951	21.42
641.141	21.22
641.331	21.06
641.521	20.97
641.711	21
641.901	21.07
642.091	20.9
642.281	20.93
642.471	21.05
642.661	21.02
642.851	21.13
643.041	21.06
643.231	21.1
643.42	21.34
643.61	21.25
643.8	21.25
643.99	21.13
644.18	21.41
644.369	21.43
644.559	21.34
644.749	21.24
644.939	21.25
645.128	21.18
645.318	21.11
645.508	20.97
645.697	20.96
645.887	20.79
646.076	20.96
646.266	21.06
646.456	21.21
646.645	21.33
646.835	21.48
647.024	21.51
647.214	21.71
647.403	21.78
647.593	21.81
647.782	21.96
647.972	22.07
648.161	21.92
648.351	21.87
648.54	21.6
648.73	21.6
648.919	21.7
649.108	21.71
649.298	21.63
649.487	21.82
649.677	21.81
649.866	22
650.055	22.06
650.244	21.87
650.434	21.86
650.623	21.99
650.812	22.01
651.002	22.08
651.191	22
651.38	22.2
651.569	22.13
651.758	22.2
651.947	22.11
652.137	22.09
652.326	22.55
652.515	22.66
652.704	22.76
652.893	22.59
653.082	22.46
653.271	22.64
653.46	22.59
653.649	22.47
653.838	22.32
654.027	22.2
654.216	22.22
654.405	22.1
654.594	21.82
654.783	21.79
654.972	22.14
655.161	22.04
655.35	21.82
655.539	21.7
655.728	21.76
655.916	21.85
656.105	21.77
656.294	21.7
656.483	21.52
656.672	21.52
656.86	21.4
657.049	20.97
657.238	21.2
657.427	21.56
657.615	21.67
657.804	21.62
657.993	21.8
658.181	21.77
658.37	21.77
658.559	21.86
658.747	22.04
658.936	22.26
659.125	22.49
659.313	22.56
659.502	22.38
659.69	22.35
659.879	22.31
660.067	22.15
660.256	22.16
660.444	22.18
660.633	22.3
660.821	22.32
661.01	22.38
661.198	22.48
661.387	22.25
661.575	22.34
661.763	22.31
661.952	22.54
662.14	22.59
662.328	22.75
662.517	22.81
662.705	22.7
662.893	22.75
663.082	22.5
663.27	22.22
663.458	22.21
663.646	22.11
663.834	22.13
664.023	22.05
664.211	21.97
664.399	21.87
664.587	21.75
664.775	21.59
664.963	21.46
665.152	21.48
665.34	21.63
665.528	21.84
665.716	21.83
665.904	21.87
666.092	21.8
666.28	22.06
666.468	22.07
666.656	22.03
666.844	22.12
667.032	22.17
667.22	22.29
667.408	22.17
667.596	21.9
667.784	21.93
667.971	21.76
668.159	21.75
668.347	21.47
668.535	21.57
668.723	21.67
668.911	21.61
669.098	21.57
669.286	21.59
669.474	21.6
669.662	22.05
669.849	22.08
670.037	22.13
670.225	22.16
670.413	22.44
670.6	22.48
670.788	22.59
670.976	22.69
671.163	22.8
671.351	22.75
671.538	22.75
671.726	22.34
671.913	22.32
672.101	22.28
672.289	22.44
672.476	22.14
672.664	22.11
672.851	22.04
673.039	22.2
673.226	21.99
673.413	22.02
673.601	22.14
673.788	22.47
673.976	22.34
674.163	22.54
674.35	22.49
674.538	22.48
674.725	22.49
674.912	22.43
675.1	22.42
675.287	22.54
675.474	22.41
675.662	22.62
675.849	22.51
676.036	22.66
676.223	22.39
676.411	22.21
676.598	22.48
676.785	22.43
676.972	22.36
677.159	22.52
677.346	22.56
677.533	22.68
677.721	22.65
677.908	22.64
678.095	22.6
678.282	22.91
678.469	23.1
678.656	23
678.843	22.92
679.03	23.21
679.217	22.91
679.404	23.1
679.591	23.05
679.778	22.76
679.964	22.62
680.151	22.73
680.338	22.42
680.525	22.41
680.712	22.52
680.899	22.73
681.086	22.58
681.272	22.69
681.459	22.46
681.646	22.48
681.833	22.48
682.02	22.74
682.206	22.78
682.393	22.85
682.58	22.67
682.766	22.67
682.953	22.75
683.14	22.78
683.326	22.93
683.513	23.03
683.7	22.99
683.886	23.19
684.073	23.13
684.259	23.29
684.446	23.45
684.632	23.67
684.819	23.49
685.005	23.38
685.192	23.59
685.378	23.26
685.565	23.42
685.751	23.54
685.938	23.54
686.124	23.58
686.31	23.35
686.497	23.39
686.683	23.36
686.87	23.34
687.056	23.26
687.242	22.98
687.429	23.27
687.615	22.98
687.801	23.2
687.987	23.38
688.174	23.42
688.36	23.37
688.546	23.49
688.732	23.47
688.918	23.3
689.105	23.39
689.291	23.44
689.477	23.24
689.663	22.93
689.849	22.84
690.035	22.78
690.221	22.77
690.407	22.92
690.593	22.87
690.779	22.93
690.965	23.14
691.151	23.12
691.337	23.25
691.523	23.53
691.709	24.16
691.895	24.11
692.081	23.92
692.267	23.84
692.453	23.88
692.639	23.94
692.825	23.78
693.011	23.81
693.196	23.72
693.382	23.64
693.568	23.45
693.754	23.33
693.94	23.03
694.125	23.26
694.311	22.85
694.497	22.57
694.682	22.54
694.868	22.6
695.054	22.83
695.239	22.81
695.425	22.68
695.611	22.51
695.796	22.57
695.982	22.59
696.168	22.47
696.353	22.73
696.539	22.86
696.724	22.98
696.91	22.97
697.095	22.96
697.281	22.94
697.466	23.11
697.652	23.19
697.837	23.15
698.023	23.28
698.208	23.35
698.393	23.45
698.579	23.37
698.764	23.18
698.949	23.23
699.135	23.08
699.32	22.97
699.505	22.92
699.691	22.91
699.876	22.82
700.061	22.56
700.246	22.47
700.432	22.2
700.617	22.07
700.802	22.18
700.987	22.46
701.172	22.42
701.358	22.59
701.543	22.45
701.728	22.58
701.913	22.74
702.098	23.29
702.283	23.41
702.468	23.6
702.653	23.97
702.838	23.79
703.023	23.74
703.208	24.23
703.393	24.26
703.578	24.43
703.763	24.57
703.948	24.43
704.133	24.22
704.318	24.37
704.503	24.61
704.688	24.58
704.873	24.86
705.057	24.91
705.242	24.7
705.427	25.17
705.612	25.72
705.797	25.6
705.981	25.97
706.166	25.97
706.351	25.91
706.536	26.16
706.72	26.18
706.905	26.34
707.09	26.28
707.274	26.34
707.459	26.22
707.644	25.89
707.828	25.84
708.013	25.66
708.197	25.72
708.382	25.83
708.567	25.66
708.751	25.34
708.936	25.17
709.12	25.41
709.305	25.46
709.489	25.25
709.673	25.12
709.858	25.24
710.042	25.17
710.227	25.2
710.411	25.27
710.596	25.28
710.78	25.76
710.964	25.97
711.149	25.44
711.333	25.33
711.517	25.61
711.702	25.79
711.886	25.77
712.07	25.79
712.254	25.65
712.438	25.41
712.623	25.38
712.807	25.12
712.991	24.88
713.175	24.96
713.359	24.69
713.544	24.55
713.728	24.59
713.912	24.36
714.096	24.2
714.28	24.28
714.464	24.33
714.648	24.02
714.832	24.05
715.016	23.88
715.2	23.91
715.384	23.87
715.568	23.59
715.752	23.4
715.936	23.42
716.12	23.52
716.304	23.3
716.488	23.01
716.671	22.82
716.855	22.76
717.039	22.26
717.223	21.96
717.407	21.74
717.59	21.65
717.774	21.56
717.958	21.96
718.142	21.83
718.325	21.7
718.509	21.6
718.693	21.82
718.877	21.48
719.06	22.05
719.244	22.28
719.428	23.01
719.611	23.22
719.795	23.53
719.978	23.05
720.162	23.39
720.345	23.71
720.529	23.98
720.713	24.03
720.896	23.93
721.08	23.91
721.263	24.12
721.446	23.86
721.63	23.96
721.813	23.76
721.997	24.08
722.18	23.89
722.364	23.7
722.547	23.82
722.73	23.86
722.914	24.5
723.097	24.51
723.28	24.22
723.464	24.33
723.647	24.47
723.83	24.34
724.013	23.92
724.197	23.83
724.38	23.94
724.563	23.9
724.746	24.11
724.929	23.85
725.112	24.16
725.296	24.48
725.479	24.31
725.662	23.92
725.845	23.74
726.028	24.03
726.211	24.05
726.394	24.33
726.577	24.25
726.76	24.26
726.943	24.32
727.126	24.15
727.309	24.01
727.492	23.88
727.675	23.72
727.858	23.81
728.041	23.5
728.224	23.06
728.407	22.84
728.589	22.77
728.772	22.49
728.955	22.35
729.138	22.32
729.321	22.16
729.503	22.47
729.686	22.73
729.869	22.7
730.052	22.9
730.234	23.27
730.417	23.13
730.6	22.76
730.782	22.95
730.965	22.85
731.148	23.24
731.33	23.07
731.513	22.79
731.695	22.96
731.878	23.2
732.061	23.11
732.243	23.4
732.426	23.61
732.608	24.33
732.791	24.38
732.973	24.59
733.156	24.07
733.338	24.55
733.52	24.36
733.703	24.25
733.885	23.87
734.068	24.05
734.25	23.97
734.432	23.76
734.615	23.26
734.797	23.75
734.979	23.8
735.162	23.95
735.344	23.55
735.526	24.38
735.708	24.32
735.891	24.81
736.073	25.15
736.255	24.6
736.437	24.37
736.619	24.34
736.802	23.81
736.984	23.74
737.166	23.99
737.348	24.38
737.53	23.86
737.712	24.13
737.894	23.87
738.076	23.27
738.258	23.93
738.44	23.97
738.622	24.44
738.804	24.79
738.986	25
739.168	24.56
739.35	24.59
739.532	24.28
739.714	24.12
739.896	23.67
740.078	23.72
740.259	23.57
740.441	24.29
740.623	24.19
740.805	23.51
740.987	23.2
741.168	23.3
741.35	23.03
741.532	23.44
741.714	23.03
741.895	23.23
742.077	23.74
742.259	23.43
742.44	23.39
742.622	22.94
742.804	23.2
742.985	23.47
743.167	23.95
743.348	24.17
743.53	23.89
743.711	24.34
743.893	24.28
744.075	23.81
744.256	24.27
744.438	24.19
744.619	24.49
744.8	24.76
744.982	24.72
745.163	24.93
745.345	24.72
745.526	24.75
745.707	24.89
745.889	25.73
746.07	25.81
746.252	25.12
746.433	24.68
746.614	24.93
746.795	24.75
746.977	24.87
747.158	24.28
747.339	24.8
747.52	25.05
747.702	25.07
747.883	24.57
748.064	24.66
748.245	24.98
748.426	24.8
748.607	24.72
748.788	24.71
748.97	24.59
749.151	24.49
749.332	24.08
749.513	24.81
749.694	24.51
749.875	25.06
750.056	25.33
750.237	25.04
750.418	25.57
750.599	25.18
750.78	25.18
750.96	25.02
751.141	25.68
751.322	25.78
751.503	25.01
751.684	25.56
751.865	25.61
752.046	25.41
752.226	25.72
752.407	25.75
752.588	25.72
752.769	26.07
752.949	26.38
753.13	26.28
753.311	26.37
753.492	26.2
753.672	25.92
753.853	25.25
754.034	25.11
754.214	25.02
754.395	24.69
754.575	25.55
754.756	24.55
754.937	24.71
755.117	24.75
755.298	24.51
755.478	24.55
755.659	24.37
755.839	24.95
756.02	25.72
756.2	26.11
756.381	26.83
756.561	26.27
756.741	27.2
756.922	26.97
757.102	27.19
757.283	27.3
757.463	27.22
757.643	27.59
757.823	26.93
758.004	25.63
758.184	25.41
758.364	23.95
758.545	24.12
758.725	23.43
758.905	23.36
759.085	22.41
759.265	22.36
759.446	22.27
759.626	21.71
759.806	21.55
759.986	21.9
760.166	21.87
760.346	22.79
760.526	22.74
760.706	22.82
760.886	23.07
761.066	23.05
761.246	23.04
761.426	23.76
761.606	23.92
761.786	24.43
761.966	24.55
762.146	24.5
762.326	24.29
762.506	23.79
762.686	23.73
762.866	22.94
763.046	22.96
763.225	22.76
763.405	22.61
763.585	22.23
763.765	22.25
763.945	22.46
764.124	22.8
764.304	22.95
764.484	22.89
764.664	23.34
764.843	23.62
765.023	23.94
765.203	23.79
765.382	23.99
765.562	24.79
765.741	24.78
765.921	25.26
766.101	24.91
766.28	24.87
766.46	25.84
766.639	25.64
766.819	26.58
766.998	26.27
767.178	26.71
767.357	25.82
767.537	25.48
767.716	26.23
767.896	24.8
768.075	25.3
768.254	25.15
768.434	25.05
768.613	25.33
768.792	24.76
768.972	25.96
769.151	26.22
769.33	26.87
769.51	27.22
769.689	26.18
769.868	27.54
770.047	27.74
770.226	28.26
770.406	28.43
770.585	27.75
770.764	28.11
770.943	27.41
771.122	27.48
771.301	28.05
771.48	27.76
771.66	28.51
771.839	28.11
772.018	27.9
772.197	27.28
772.376	26.5
772.555	27.64
772.734	27.31
772.913	26.9
773.092	27.06
773.271	26.73
773.449	27.4
773.628	27.64
773.807	28.3
773.986	28.05
774.165	29.06
774.344	29.98
774.523	29.59
774.701	30.45
774.88	31.11
775.059	30.76
775.238	29.89
775.417	29.22
775.595	28.77
775.774	28.27
775.953	28.46
776.131	27.81
776.31	27.25
776.489	26.23
776.667	25.97
776.846	26.19
777.025	26.2
777.203	27.44
777.382	26.98
777.56	27.18
777.739	27.26
777.917	26.94
778.096	27.32
778.274	27.48
778.453	28.61
778.631	27.9
778.81	26.8
778.988	26.92
779.166	25.79
779.345	25.96
779.523	25.23
779.702	24.54
779.88	25.17
780.058	24.46
780.237	24.25
780.415	24.5
780.593	24.65
780.771	24.87
780.95	25.18
781.128	25.61
781.306	25.87
781.484	27.12
781.662	27.56
781.841	27
782.019	26.9
782.197	26.93
782.375	26.19
782.553	26.71
782.731	27.52
782.909	27.41
783.087	27.79
783.265	27.43
783.443	26.92
783.621	25.9
783.799	25.79
783.977	25.69
784.155	25.66
784.333	24.85
784.511	25.46
784.689	24.71
784.867	24.65
785.045	25.01
785.223	25.33
785.4	25.25
785.578	25.75
785.756	25.3
785.934	25.76
786.112	26.18
786.289	27.08
786.467	26.33
786.645	26.84
786.823	25.99
787	25.19
787.178	25.42
787.356	24.76
787.533	25.5
787.711	26.38
787.889	26.72
788.066	26.99
788.244	26.22
788.421	25.7
788.599	25.21
788.776	25.63
788.954	25.33
789.131	25.22
789.309	25.71
789.486	25.53
789.664	25.08
789.841	24.68
790.019	24.81
790.196	25.48
790.373	25.27
790.551	25.39
790.728	24.72
790.906	25.73
791.083	25.73
791.26	24.99
791.437	24.06
791.615	24.43
791.792	25.03
791.969	23.79
792.146	23.33
792.324	23.4
792.501	23.77
792.678	24.87
792.855	24.03
793.032	24.12
793.209	24.62
793.387	25.7
793.564	25.53
793.741	24.99
793.918	25.75
794.095	27.25
794.272	26.8
794.449	26.7
794.626	26.21
794.803	26.14
794.98	25.81
795.157	26.06
795.334	25.35
795.511	25.12
795.688	25.57
795.864	25.13
796.041	23.93
796.218	24.18
796.395	23.99
796.572	24
796.749	24.34
796.925	25.15
797.102	24.52
797.279	24.28
797.456	25.26
797.632	25
797.809	24.86
797.986	25.13
798.162	25.57
798.339	25.97
798.516	25.6
798.692	26.24
798.869	26.06
799.046	27.03
799.222	27.65
799.399	26.47
799.575	26.56
799.752	26.51
799.928	26.1
800.105	25.8
800.281	24.15
800.458	25.41
800.634	24.75
800.811	23.83
800.987	23.47
801.163	24.03
801.34	24.2
801.516	23.62
801.692	24.05
801.869	24.9
802.045	24.86
802.221	26.51
802.398	25.49
802.574	26
802.75	27.42
802.926	27.34
803.103	26.35
803.279	26.7
803.455	26.31
803.631	26.51
803.807	26.3
803.983	26.72
804.16	25.71
804.336	25.44
804.512	24.67
804.688	24.28
804.864	24.55
805.04	25.63
805.216	27.26
805.392	28.54
805.568	28.63
805.744	28.79
805.92	29.12
806.096	29.68
806.272	31.19
806.448	30.39
806.623	30.33
806.799	29.83
806.975	29.93
807.151	28.58
807.327	27.99
807.503	27.41
807.678	26.87
807.854	27.34
808.03	27.87
808.206	27.1
808.381	27.94
808.557	27.94
808.733	28.4
808.908	27.95
809.084	26.97
809.26	27.39
809.435	27.03
809.611	26.14
809.787	25.84
809.962	24.78
810.138	24.66
810.313	24.57
810.489	24.02
810.664	23.67
810.84	22.64
811.015	24.37
811.191	24.21
811.366	24.67
811.542	25.01
811.717	24.67
811.892	25.28
812.068	24.59
812.243	23.78
812.419	24.34
812.594	24.87
812.769	26.25
812.944	26.15
813.12	26.65
813.295	25.75
813.47	26.57
813.645	26.62
813.821	25.8
813.996	26.34
814.171	28.89
814.346	28.19
814.521	28
814.697	27.21
814.872	26.32
815.047	26.44
815.222	26.22
815.397	25.34
815.572	25.6
815.747	27.21
815.922	27.47
816.097	27.29
816.272	27.34
816.447	26.05
816.622	26.11
816.797	27.19
816.972	25.27
817.147	26.79
817.322	26.99
817.496	25.97
817.671	25.59
817.846	25.34
818.021	24.49
818.196	24.26
818.371	25.24
818.545	25.06
818.72	23.51
818.895	25.13
819.069	24.31
819.244	23.93
819.419	24.89
819.594	24.65
819.768	24.27
819.943	25.17
820.117	24.8
820.292	24.93
820.467	24.83
820.641	24.92
820.816	24.51
820.99	23.92
821.165	23.86
821.339	23.5
821.514	22.9
821.688	22.79
821.863	21.96
822.037	21.96
822.212	21.49
822.386	21.37
822.56	21.54
822.735	21.55
822.909	21.65
823.084	21.68
823.258	21.56
823.432	21.8
823.606	21.9
823.781	22.11
823.955	22.34
824.129	22.59
824.303	22.72
824.478	22.24
824.652	22.15
824.826	22.21
825	21.87
825.174	21.9
825.348	21.67
825.523	21.73
825.697	21.85
825.871	21.48
826.045	21.94
826.219	21.74
826.393	22.43
826.567	22.64
826.741	22.96
826.915	23.31
827.089	23.53
827.263	23.99
827.437	23.71
827.611	23.96
827.784	24
827.958	23.43
828.132	23.32
828.306	23.1
828.48	22.95
828.654	22.47
828.827	22.11
829.001	21.5
829.175	20.87
829.349	21.22
829.522	20.49
829.696	20.4
829.87	20.33
830.044	21.11
830.217	21.16
830.391	22.41
830.565	22.81
830.738	24.15
830.912	24.34
831.085	24.31
831.259	24.03
831.432	24.38
831.606	24.23
831.779	23.33
831.953	23.66
832.126	23.73
832.3	22.21
832.473	22.29
832.647	22.41
832.82	23.14
832.994	23.39
833.167	23.43
833.34	22.77
833.514	22.7
833.687	23.17
833.86	22.67
834.034	22.69
834.207	23.07
834.38	23.08
834.553	22.74
834.727	23.26
834.9	22.55
835.073	23.07
835.246	23.2
835.419	23.39
835.593	23.8
835.766	24.38
835.939	24.32
836.112	24.47
836.285	25.25
836.458	26.13
836.631	25.09
836.804	25.48
836.977	24.41
837.15	25.49
837.323	25.43
837.496	25.19
837.669	25.1
837.842	25.87
838.015	26.51
838.188	24.87
838.361	24.63
838.533	25.09
838.706	26.44
838.879	27.13
839.052	26.23
839.225	26.39
839.398	25.53
839.57	25.35
839.743	23.94
839.916	22.02
840.088	23.08
840.261	22.88
840.434	23.63
840.607	23.12
840.779	21.81
840.952	22.48
841.124	22.58
841.297	23.37
841.47	22.91
841.642	25.24
841.815	26.61
841.987	25.91
842.16	26.71
842.332	26.57
842.505	26.43
842.677	27.39
842.85	27.31
843.022	29.85
843.194	31.32
843.367	32.65
843.539	31.28
843.712	31.64
843.884	34.5
844.056	34.63
844.229	33.99
844.401	37.98
844.573	40.11
844.745	39.63
844.918	35.35
845.09	34.95
845.262	32.21
845.434	34.05
845.606	34.02
845.779	30.14
845.951	27.91
846.123	28.48
846.295	23.98
846.467	24.08
846.639	25.84
846.811	30.19
846.983	30.57
847.155	30.99
847.327	30.44
847.499	29.23
847.671	31.05
847.843	30.01
848.015	26.47
848.187	29.15
848.359	28.88
848.531	29.52
848.703	26.52
848.875	25.12
849.047	24.26
849.218	21.18
849.39	21.88
849.562	19.87
849.734	24.3
849.905	27.5
850.077	25.82
850.249	23.87
850.421	23.47
850.592	24.89
850.764	26.72
850.936	32.2
851.107	31.74
851.279	30.72
851.451	35.42
851.622	34.96
851.794	34.48
851.965	34.96
852.137	36.83
852.308	33.87
852.48	30.49
852.651	29.1
852.823	27.93
852.994	30.06
853.166	30.22
853.337	28.27
853.509	26.4
853.68	25.48
853.851	25.51
854.023	23.32
854.194	22.9
854.365	26.25
854.537	25.49
854.708	23.39
854.879	22.17
855.05	22.26
855.222	19.41
855.393	18.61
855.564	19.34
855.735	24.35
855.906	27.04
856.078	29.08
856.249	27.69
856.42	26.69
856.591	25.75
856.762	26.57
856.933	24.75
857.104	24.33
857.275	27.85
857.446	33.22
857.617	26.94
857.788	23.87
857.959	24.77
858.13	27.81
858.301	32.7
858.472	33.35
858.643	33.46
858.814	32.88
858.985	35.37
859.155	35.78
859.326	33.92
859.497	36.25
859.668	35.74
859.839	36
860.009	34.96
860.18	33.54
860.351	32.57
860.522	35.43
860.692	35.34
860.863	31.64
861.034	30.01
861.204	29.2
861.375	29.41
861.546	30.98
861.716	26.56
861.887	25.43
862.057	24.65
862.228	26.97
862.398	25.18
862.569	28.72
862.739	34.44
862.91	32.51
863.08	30.56
863.251	30.61
863.421	27.54
863.592	31.14
863.762	28.48
863.932	30.28
864.103	33.75
864.273	30.84
864.443	28.6
864.614	23.34
864.784	23
864.954	24.55
865.125	27.21
865.295	30.06
865.465	31.55
865.635	35.86
865.805	36.24
865.976	30.75
866.146	35.3
866.316	34.48
866.486	36.8
866.656	36.19
866.826	34
866.996	30.2
867.166	33.02
867.336	33.7
867.506	28.71
867.676	18.18
867.846	17.72
868.016	15.3
868.186	17.43
868.356	22.29
868.526	26.18
868.696	29.64
868.866	30.68
869.036	29.04
869.206	25.31
869.376	29.56
869.545	37.36
869.715	39.73
869.885	37.02
870.055	35.38
870.224	28.72
870.394	27.07
870.564	24.82
870.734	26.86
870.903	24.51
871.073	24.25
871.243	20.06
871.412	21.69
871.582	22.8
871.751	25.72
871.921	30.26
872.091	30.29
872.26	29.31
872.43	27.95
872.599	23.66
872.769	20.81
872.938	23.43
873.108	24.22
873.277	22.14
873.446	24.08
873.616	22.68
873.785	18.4
873.955	27.74
874.124	27.47
874.293	28.05
874.463	31.2
874.632	38.5
874.801	40.56
874.971	42.02
875.14	42.48
875.309	34.85
875.478	35.31
875.647	38.02
875.817	32.55
875.986	35.18
876.155	38.14
876.324	38.67
876.493	37.85
876.662	34.43
876.831	33.58
877	31
877.17	33.26
877.339	33
877.508	35.48
877.677	37.97
877.846	34.59
878.015	35.78
878.184	34.65
878.352	31.31
878.521	31.4
878.69	32.57
878.859	33.91
879.028	34.63
879.197	31.51
879.366	24.45
879.534	23.71
879.703	24.02
879.872	20.37
880.041	20.04
880.21	19.64
880.378	20.24
880.547	17.91
880.716	18.28
880.884	18.77
881.053	19.21
881.222	20.29
881.39	19.64
881.559	19.55
881.727	19.64
881.896	19.9
882.065	19.73
882.233	20.17
882.402	21.45
882.57	21.45
882.739	21.45
882.907	21.89
883.076	21.84
883.244	22.12
883.412	22.18
883.581	22.62
883.749	22.72
883.918	22.84
884.086	22.34
884.254	21.94
884.423	22
884.591	22.22
884.759	22.01
884.927	21.72
885.096	22.2
885.264	21.59
885.432	19.27
885.6	17.83
885.769	16.89
885.937	17.78
886.105	16.69
886.273	15.87
886.441	14.33
886.609	11.33
886.777	9.19
886.945	7.46
887.113	10.26
887.281	10.25
887.449	11.51
887.617	13.39
887.785	12.01
887.953	8.45
888.121	6.96
888.289	10.39
888.457	18.59
888.625	22.3
888.793	19.11
888.961	17.56
889.129	25.26
889.296	25.28
889.464	27.51
889.632	26.98
889.8	34.55
889.967	37.46
890.135	34.76
