Data from 2938748__Reflection_05.txt Node
Date: Sun Mar 15 11:32:30 EDT 2015
User: robert
Spectrometer: USB4E03002
Autoset integration time: false
Trigger mode: 4
Integration Time (sec): 1.000000E-1
Scans to average: 10
Electric dark correction enabled: false
Nonlinearity correction enabled: false
Boxcar width: 5
Stray light correction enabled: false
XAxis mode: Wavelengths
Stop averaging: false
Number of Pixels in Spectrum: 3648
>>>>>Begin Spectral Data<<<<<
177.575	123.57
177.794	160.26
178.014	92.61
178.233	76.33
178.452	100.49
178.672	115.28
178.891	933.33
179.11	5.1
179.33	-43.53
179.549	-28.65
179.768	-295.59
179.987	-315.38
180.207	-370.53
180.426	-166.33
180.645	-365.41
180.864	-290.58
181.084	-158.33
181.303	-297.25
181.522	-1623.81
181.741	5475
181.96	142.39
182.179	-811.11
182.398	20.88
182.618	44.38
182.837	4.38
183.056	-134.62
183.275	-71.03
183.494	-0.8
183.713	19.61
183.932	-76.06
184.151	-61.71
184.37	-14.71
184.589	-196.15
184.808	100
185.027	150
185.246	18.42
185.465	29.7
185.684	-66.67
185.903	-123.19
186.122	733.33
186.341	-750
186.56	-37.06
186.779	-90.41
186.998	161.81
187.216	162.56
187.435	-345.57
187.654	-62.41
187.873	-71.65
188.092	-85.82
188.311	-58.71
188.53	-95.48
188.748	-112.61
188.967	-166.86
189.186	-109.13
189.405	-115
189.623	-244.34
189.842	-301.12
190.061	-4700
190.28	-493.27
190.498	-6642.86
190.717	-505.33
190.936	1838.1
191.154	208.46
191.373	214.71
191.592	415.62
191.81	-176.17
192.029	-93.46
192.248	778.38
192.466	503.57
192.685	119.01
192.904	128.57
193.122	85.48
193.341	82.82
193.559	12.24
193.778	-106.67
193.996	391.25
194.215	-39.71
194.433	-79.85
194.652	361.9
194.87	-28.85
195.089	106.4
195.307	-796.15
195.526	-397.14
195.744	1300
195.963	255.66
196.181	345.71
196.399	177.56
196.618	171.65
196.836	192.26
197.055	148.73
197.273	165.96
197.491	184.75
197.71	122.69
197.928	90.15
198.146	83.78
198.365	90.36
198.583	91.45
198.801	103.48
199.019	86.36
199.238	88.14
199.456	95.15
199.674	132.13
199.892	79.1
200.111	110.23
200.329	183.05
200.547	187.31
200.765	172.35
200.983	109.63
201.202	110.53
201.42	83.55
201.638	60.95
201.856	68.88
202.074	53.9
202.292	71.01
202.51	35.54
202.728	30.8
202.946	37.38
203.165	68.93
203.383	45.99
203.601	63.85
203.819	71.49
204.037	61.55
204.255	46.77
204.473	29.3
204.691	46.67
204.909	61.54
205.127	52.25
205.345	57.78
205.562	50.82
205.78	78.63
205.998	82
206.216	127.78
206.434	164.24
206.652	131.84
206.87	182.04
207.088	143.93
207.306	216.94
207.523	228.57
207.741	112.81
207.959	99.45
208.177	150.64
208.395	82.82
208.612	71.94
208.83	62.5
209.048	87.47
209.266	73.47
209.483	49.03
209.701	25.89
209.919	33.25
210.136	46.78
210.354	34.2
210.572	22.34
210.79	23.34
211.007	-8.66
211.225	13.85
211.442	12.18
211.66	-27.78
211.878	-53.18
212.095	-42.44
212.313	-65.79
212.53	-39.85
212.748	-41.81
212.966	7.33
213.183	18
213.401	30.09
213.618	44.48
213.836	51.15
214.053	78.49
214.271	85.49
214.488	53.8
214.705	24.52
214.923	21.51
215.14	19.79
215.358	-68.35
215.575	-631.43
215.793	-60.71
216.01	406.9
216.227	-204.26
216.445	8.99
216.662	18.72
216.879	59.24
217.097	86.21
217.314	79.88
217.531	50.2
217.749	49.23
217.966	49.84
218.183	31.43
218.4	37.9
218.618	34.52
218.835	50.35
219.052	56.37
219.269	65.28
219.487	79.19
219.704	75.61
219.921	57.83
220.138	67.8
220.355	57.75
220.572	65.16
220.79	62.31
221.007	59.29
221.224	42.67
221.441	31.82
221.658	31.3
221.875	20.6
222.092	22.95
222.309	24.66
222.526	17.97
222.743	15.89
222.96	6.67
223.177	-0.42
223.394	-6.2
223.611	-3.57
223.828	2.32
224.045	5.21
224.262	4.62
224.479	4.22
224.696	6.75
224.913	9.37
225.13	8.51
225.347	11.52
225.564	17.46
225.781	19.72
225.997	18.29
226.214	16.15
226.431	15.33
226.648	18.36
226.865	15.86
227.082	13.97
227.298	14.07
227.515	12.72
227.732	11.69
227.949	11.47
228.165	10.14
228.382	8.68
228.599	8.58
228.816	7.84
229.032	6.05
229.249	5.87
229.466	6.3
229.682	5.19
229.899	5.81
230.116	5.47
230.332	4.6
230.549	5.35
230.765	6.05
230.982	5.46
231.199	6.05
231.415	6.95
231.632	7.88
231.848	7.37
232.065	8.24
232.281	7.21
232.498	5.97
232.714	6.11
232.931	3.66
233.147	4.45
233.364	6.27
233.58	5.56
233.797	5.71
234.013	5.71
234.23	6.92
234.446	5.48
234.662	5.29
234.879	7.03
235.095	4.41
235.312	5.05
235.528	4.83
235.744	3.16
235.961	2.98
236.177	3.67
236.393	1.56
236.61	2.12
236.826	0.6
237.042	-0.99
237.258	-0.41
237.475	2.77
237.691	4.31
237.907	3.29
238.123	2.56
238.339	2.74
238.556	3.05
238.772	4.26
238.988	2.74
239.204	6.03
239.42	8.9
239.636	7.56
239.853	6.46
240.069	6.21
240.285	7.15
240.501	9.51
240.717	10.32
240.933	9.53
241.149	9.66
241.365	10.23
241.581	9.7
241.797	8.9
242.013	9.48
242.229	9.49
242.445	9.35
242.661	9.09
242.877	8.35
243.093	7.57
243.309	7.39
243.525	7.34
243.741	6.89
243.957	6.2
244.173	6.37
244.388	5.57
244.604	5.66
244.82	6.28
245.036	6.45
245.252	5.76
245.468	5.42
245.683	5.44
245.899	5.58
246.115	5.56
246.331	6.02
246.547	5.81
246.762	5.51
246.978	5.52
247.194	5.32
247.409	5.48
247.625	5.41
247.841	5.8
248.057	5.82
248.272	5.31
248.488	5.46
248.703	5.04
248.919	4.93
249.135	5.16
249.35	5.12
249.566	4.69
249.782	4.01
249.997	3.63
250.213	3.32
250.428	3.22
250.644	3.66
250.859	3.13
251.075	3.74
251.29	4.84
251.506	4.98
251.721	5.81
251.937	6.48
252.152	6.01
252.368	6.26
252.583	6.12
252.798	6.32
253.014	6.95
253.229	6.73
253.445	6.31
253.66	4.87
253.875	4.71
254.091	3.85
254.306	3.58
254.521	3.96
254.737	4.77
254.952	4.11
255.167	4.37
255.383	3.8
255.598	2.79
255.813	3.12
256.028	4.29
256.244	4.17
256.459	3.52
256.674	2.92
256.889	2.95
257.104	2.62
257.32	2.82
257.535	2.61
257.75	1.99
257.965	2.74
258.18	3.42
258.395	3.24
258.61	3.21
258.826	3.44
259.041	3.4
259.256	3.43
259.471	3.61
259.686	3.48
259.901	3.62
260.116	3.59
260.331	3.62
260.546	3.39
260.761	3.73
260.976	3.89
261.191	4.04
261.406	4.15
261.621	3.84
261.836	3.78
262.05	3.98
262.265	3.96
262.48	3.98
262.695	4.47
262.91	4.78
263.125	4.63
263.34	4.87
263.555	4.14
263.769	3.73
263.984	4.34
264.199	4.08
264.414	4.58
264.629	4.2
264.843	4.9
265.058	4.36
265.273	3.09
265.488	3.12
265.702	2.82
265.917	3.32
266.132	3.75
266.346	3.33
266.561	3.08
266.776	2.91
266.99	2.81
267.205	2.4
267.42	2.5
267.634	3.48
267.849	3.4
268.063	3.7
268.278	3.23
268.492	3.44
268.707	3.63
268.922	3.91
269.136	4.13
269.351	4.24
269.565	4.65
269.78	4.15
269.994	3.9
270.209	3.18
270.423	2.8
270.637	3.01
270.852	2.81
271.066	3.35
271.281	3.38
271.495	2.84
271.709	2.67
271.924	2.7
272.138	3.06
272.353	2.96
272.567	3.24
272.781	3.12
272.996	3.5
273.21	3.41
273.424	3.02
273.638	2.96
273.853	3.01
274.067	3.18
274.281	2.99
274.495	3.09
274.71	3.16
274.924	3.03
275.138	3.45
275.352	2.77
275.566	2.92
275.781	3.14
275.995	3.3
276.209	3.11
276.423	3.26
276.637	3.25
276.851	3.53
277.065	3.12
277.279	3.06
277.493	2.73
277.707	2.78
277.921	2.59
278.135	2.63
278.349	2.4
278.563	3.25
278.777	2.85
278.991	3.12
279.205	2.52
279.419	2.45
279.633	2.51
279.847	2.75
280.061	2.98
280.275	3.27
280.489	3.37
280.703	3.27
280.917	2.87
281.131	3.3
281.344	3.3
281.558	2.95
281.772	3.45
281.986	3.46
282.2	3.52
282.414	3.68
282.627	4.02
282.841	3.78
283.055	4.16
283.269	4.04
283.482	4.1
283.696	3.74
283.91	4.22
284.123	4.29
284.337	4.65
284.551	4.22
284.764	4.15
284.978	3.75
285.192	3.32
285.405	3.16
285.619	3.13
285.833	3.03
286.046	3.3
286.26	2.89
286.473	2.94
286.687	2.85
286.9	3.27
287.114	3.63
287.327	3.72
287.541	4.05
287.754	4.23
287.968	4.62
288.181	4.73
288.395	4.8
288.608	5.44
288.822	5.12
289.035	5.11
289.248	4.73
289.462	4.15
289.675	3.97
289.889	4.15
290.102	3.92
290.315	3.82
290.529	3.87
290.742	3.64
290.955	3.38
291.169	3.61
291.382	3.58
291.595	3.75
291.808	3.76
292.022	3.79
292.235	3.85
292.448	4.18
292.661	4.3
292.875	4.21
293.088	4.07
293.301	4.2
293.514	4.06
293.727	3.93
293.94	4.34
294.153	4.37
294.367	4.61
294.58	4.76
294.793	4.63
295.006	4.91
295.219	5.05
295.432	5.47
295.645	5.29
295.858	5.22
296.071	5.41
296.284	5.16
296.497	5.48
296.71	5.54
296.923	5.13
297.136	5.09
297.349	4.83
297.562	4.66
297.775	4.54
297.988	4.75
298.201	4.84
298.414	4.81
298.626	4.96
298.839	4.6
299.052	4.42
299.265	4.54
299.478	4.55
299.691	4.8
299.903	4.96
300.116	5.14
300.329	5.18
300.542	5.13
300.755	4.93
300.967	4.56
301.18	5.05
301.393	5.19
301.605	5.62
301.818	5.5
302.031	5.12
302.243	4.92
302.456	4.68
302.669	4.36
302.881	4.4
303.094	4.59
303.307	5.09
303.519	5.07
303.732	4.89
303.944	4.54
304.157	4.71
304.37	4.79
304.582	4.86
304.795	4.92
305.007	5.08
305.22	5.24
305.432	5.34
305.645	5.39
305.857	5.18
306.069	5.05
306.282	5.33
306.494	5.33
306.707	5.47
306.919	5.32
307.132	5.57
307.344	5.79
307.556	5.81
307.769	5.81
307.981	5.43
308.193	5.44
308.406	5.71
308.618	5.55
308.83	5.82
309.043	5.71
309.255	5.95
309.467	5.97
309.679	6.01
309.892	6.03
310.104	6.21
310.316	6.35
310.528	6.25
310.74	6.46
310.953	6.5
311.165	6.26
311.377	6.62
311.589	6.82
311.801	6.57
312.013	6.59
312.225	6.63
312.437	6.38
312.649	6.23
312.862	6.66
313.074	6.64
313.286	6.5
313.498	6.71
313.71	6.45
313.922	6.16
314.134	6.05
314.346	6.18
314.558	6.32
314.77	6.43
314.982	6.8
315.193	7.06
315.405	6.84
315.617	7.05
315.829	6.93
316.041	6.91
316.253	6.84
316.465	7.62
316.677	7.67
316.888	7.93
317.1	7.88
317.312	7.7
317.524	7.55
317.736	7.19
317.947	7.24
318.159	7.22
318.371	7.38
318.583	7.39
318.794	7.26
319.006	6.84
319.218	6.53
319.43	6.81
319.641	6.69
319.853	6.26
320.064	7.21
320.276	7.45
320.488	7.3
320.699	7.34
320.911	7.38
321.123	7.07
321.334	7.13
321.546	6.99
321.757	6.75
321.969	6.86
322.18	6.82
322.392	6.52
322.603	6.44
322.815	7.07
323.026	7
323.238	7.28
323.449	7.57
323.661	8.02
323.872	8.12
324.083	8.21
324.295	8.32
324.506	8.14
324.718	7.85
324.929	8.1
325.14	8.04
325.352	7.72
325.563	7.79
325.774	8.06
325.986	7.94
326.197	7.68
326.408	7.51
326.62	7.24
326.831	7.48
327.042	7.95
327.253	7.69
327.464	7.28
327.676	7.69
327.887	7.32
328.098	7.21
328.309	7.03
328.52	7.34
328.732	7.74
328.943	7.84
329.154	8.26
329.365	7.88
329.576	7.97
329.787	8.38
329.998	8.36
330.209	8.61
330.42	8.4
330.631	8.63
330.842	8.41
331.053	8.2
331.264	8.26
331.475	7.67
331.686	7.73
331.897	7.69
332.108	8.06
332.319	8.29
332.53	9.02
332.741	9.41
332.952	9.11
333.163	9.5
333.374	9.64
333.585	9.65
333.795	10.17
334.006	10.09
334.217	10.06
334.428	9.79
334.639	9.19
334.849	8.37
335.06	8.07
335.271	8.11
335.482	7.76
335.692	7.8
335.903	7.84
336.114	7.67
336.325	7.64
336.535	7.98
336.746	8.11
336.957	8.44
337.167	8.96
337.378	8.66
337.589	9.35
337.799	9.73
338.01	9.86
338.22	10.17
338.431	9.88
338.642	10.18
338.852	9.87
339.063	9.66
339.273	9.78
339.484	9.72
339.694	9.93
339.905	9.27
340.115	8.99
340.326	8.59
340.536	8.58
340.746	8.88
340.957	8.61
341.167	8.62
341.378	8.54
341.588	8.24
341.799	7.67
342.009	7.71
342.219	7.97
342.43	7.8
342.64	8.08
342.85	7.89
343.061	7.67
343.271	7.89
343.481	7.7
343.691	8.22
343.902	8.28
344.112	8.67
344.322	8.62
344.532	8.41
344.743	8.55
344.953	8.3
345.163	8.53
345.373	8.61
345.583	8.44
345.793	8.57
346.004	8.07
346.214	8.38
346.424	8.65
346.634	8.76
346.844	9.24
347.054	9.18
347.264	9.58
347.474	9.3
347.684	9.69
347.894	9.67
348.104	9.81
348.314	10.22
348.524	10.11
348.734	9.9
348.944	9.45
349.154	8.86
349.364	9.1
349.574	8.78
349.784	8.78
349.994	8.23
350.204	8.54
350.413	8.44
350.623	8.12
350.833	8.14
351.043	8.08
351.253	8.41
351.463	8.5
351.672	8.19
351.882	8.24
352.092	8.33
352.302	8.3
352.511	8.14
352.721	8.24
352.931	8.26
353.141	8.36
353.35	8.12
353.56	8.02
353.77	8.2
353.979	8.19
354.189	8.15
354.399	8.27
354.608	8.55
354.818	8.38
355.027	8.08
355.237	8.18
355.447	7.86
355.656	8.02
355.866	8.09
356.075	8.06
356.285	8.44
356.494	8.03
356.704	7.82
356.913	7.82
357.123	8.03
357.332	8.09
357.542	7.72
357.751	8.05
357.96	8.28
358.17	8.27
358.379	8.04
358.589	7.71
358.798	8.01
359.007	8.17
359.217	8.15
359.426	7.89
359.635	8.01
359.845	8.24
360.054	7.91
360.263	7.54
360.472	7.57
360.682	7.79
360.891	7.84
361.1	7.73
361.309	7.75
361.519	7.66
361.728	7.75
361.937	7.69
362.146	7.84
362.355	7.81
362.564	7.97
362.774	7.78
362.983	7.63
363.192	7.71
363.401	7.91
363.61	7.59
363.819	7.69
364.028	7.6
364.237	7.57
364.446	7.21
364.655	7.19
364.864	7.28
365.073	7.42
365.282	7.58
365.491	7.54
365.7	7.27
365.909	7.5
366.118	7.47
366.327	7.65
366.536	7.55
366.745	7.56
366.954	7.68
367.162	7.51
367.371	7.56
367.58	7.34
367.789	7.34
367.998	7.22
368.207	7.16
368.415	7.07
368.624	6.94
368.833	7.34
369.042	7.29
369.25	7.4
369.459	7.47
369.668	7.24
369.877	7.56
370.085	7.52
370.294	7.53
370.503	7.74
370.711	7.69
370.92	7.7
371.129	7.42
371.337	7.42
371.546	7.23
371.754	6.96
371.963	6.99
372.171	6.49
372.38	6.45
372.589	6.86
372.797	6.69
373.006	6.71
373.214	6.61
373.423	6.72
373.631	6.76
373.84	6.45
374.048	6.32
374.256	6.33
374.465	6.35
374.673	6.22
374.882	5.81
375.09	5.69
375.298	5.47
375.507	5.56
375.715	5.42
375.923	5.65
376.132	5.88
376.34	6.13
376.548	6.04
376.757	6.21
376.965	6.26
377.173	6.31
377.381	6.48
377.59	6.68
377.798	6.72
378.006	6.45
378.214	6.44
378.423	6.63
378.631	6.72
378.839	6.62
379.047	6.53
379.255	6.7
379.463	6.53
379.671	6.12
379.879	5.92
380.088	5.8
380.296	6.2
380.504	5.79
380.712	5.73
380.92	5.41
381.128	5.67
381.336	5.72
381.544	5.51
381.752	5.55
381.96	5.78
382.168	5.86
382.376	5.83
382.584	5.73
382.791	5.77
382.999	5.56
383.207	5.55
383.415	5.52
383.623	5.53
383.831	5.38
384.039	5.47
384.247	5.36
384.454	5.08
384.662	4.97
384.87	4.7
385.078	4.87
385.285	5.15
385.493	5.27
385.701	5.22
385.909	5.1
386.116	5.32
386.324	5.26
386.532	5.43
386.739	5.58
386.947	5.69
387.155	5.99
387.362	5.96
387.57	5.65
387.778	5.43
387.985	5.44
388.193	5.44
388.4	5.37
388.608	5.56
388.816	5.41
389.023	5.3
389.231	5.3
389.438	5.03
389.646	5.13
389.853	5.22
390.061	5.51
390.268	5.46
390.475	5.43
390.683	5.35
390.89	5.18
391.098	5.23
391.305	5.23
391.512	5.1
391.72	5.28
391.927	5.07
392.135	4.97
392.342	4.9
392.549	4.91
392.756	5.21
392.964	5.04
393.171	5.16
393.378	4.97
393.586	4.96
393.793	5.07
394	4.97
394.207	5.03
394.414	4.94
394.622	4.83
394.829	4.78
395.036	4.44
395.243	4.45
395.45	4.45
395.657	4.5
395.864	4.6
396.072	4.42
396.279	4.43
396.486	4.3
396.693	4.54
396.9	4.48
397.107	4.44
397.314	4.54
397.521	4.69
397.728	4.64
397.935	4.73
398.142	4.71
398.349	4.85
398.556	4.8
398.763	4.99
398.97	4.88
399.177	4.78
399.383	4.76
399.59	4.71
399.797	4.59
400.004	4.39
400.211	4.25
400.418	4.27
400.625	4.07
400.831	4.12
401.038	4.03
401.245	3.88
401.452	3.99
401.658	4.09
401.865	4.09
402.072	4.33
402.279	4.41
402.485	4.67
402.692	4.69
402.899	4.64
403.105	4.68
403.312	4.66
403.519	4.76
403.725	4.86
403.932	4.67
404.138	4.66
404.345	4.51
404.552	4.55
404.758	4.33
404.965	4.16
405.171	4.34
405.378	4.33
405.584	4.23
405.791	4.25
405.997	4.04
406.204	4.23
406.41	4.34
406.617	4.22
406.823	4.21
407.029	4.3
407.236	4.31
407.442	4.18
407.649	4.01
407.855	3.97
408.061	4
408.268	4.27
408.474	4.22
408.68	4.09
408.887	4.03
409.093	4.2
409.299	4.33
409.505	4.54
409.712	4.65
409.918	4.66
410.124	4.87
410.33	4.78
410.537	4.51
410.743	4.44
410.949	4.41
411.155	4.6
411.361	4.39
411.567	4.2
411.773	4.04
411.98	3.98
412.186	4.03
412.392	3.99
412.598	3.87
412.804	3.94
413.01	3.96
413.216	4.07
413.422	4.01
413.628	4
413.834	4.05
414.04	4.18
414.246	4.05
414.452	4.18
414.658	4.2
414.864	4.42
415.07	4.44
415.275	4.41
415.481	4.53
415.687	4.57
415.893	4.64
416.099	4.63
416.305	4.56
416.511	4.68
416.716	4.49
416.922	4.46
417.128	4.28
417.334	4.4
417.539	4.37
417.745	4.26
417.951	4.23
418.157	4.17
418.362	4.1
418.568	4.21
418.774	4.2
418.979	4.31
419.185	4.37
419.391	4.46
419.596	4.28
419.802	4.21
420.008	4.18
420.213	4.16
420.419	4.06
420.624	4.04
420.83	4.01
421.035	4.03
421.241	3.98
421.446	3.9
421.652	3.88
421.857	3.97
422.063	4.01
422.268	4
422.474	4.05
422.679	4.09
422.885	4.07
423.09	4.01
423.295	3.95
423.501	3.95
423.706	3.94
423.911	3.85
424.117	3.8
424.322	3.76
424.527	3.74
424.733	3.6
424.938	3.55
425.143	3.62
425.349	3.63
425.554	3.61
425.759	3.6
425.964	3.59
426.169	3.61
426.375	3.57
426.58	3.66
426.785	3.56
426.99	3.63
427.195	3.73
427.4	3.68
427.605	3.66
427.811	3.65
428.016	3.64
428.221	3.54
428.426	3.76
428.631	3.8
428.836	3.72
429.041	3.81
429.246	3.9
429.451	3.85
429.656	3.84
429.861	3.74
430.066	3.82
430.271	3.8
430.476	3.96
430.681	3.73
430.886	3.85
431.09	3.84
431.295	3.88
431.5	3.74
431.705	3.76
431.91	3.85
432.115	3.91
432.32	3.9
432.524	3.95
432.729	3.86
432.934	3.82
433.139	3.71
433.343	3.69
433.548	3.74
433.753	3.75
433.958	3.78
434.162	3.68
434.367	3.66
434.572	3.64
434.776	3.57
434.981	3.49
435.186	3.56
435.39	3.58
435.595	3.6
435.799	3.46
436.004	3.44
436.209	3.43
436.413	3.47
436.618	3.47
436.822	3.48
437.027	3.49
437.231	3.62
437.436	3.65
437.64	3.79
437.845	3.9
438.049	3.92
438.253	3.95
438.458	3.99
438.662	4
438.867	4.05
439.071	3.96
439.275	4.09
439.48	4.04
439.684	4.05
439.888	3.89
440.093	3.76
440.297	3.8
440.501	3.94
440.706	3.93
440.91	3.97
441.114	3.9
441.318	4.02
441.523	3.89
441.727	3.89
441.931	3.84
442.135	3.84
442.339	3.93
442.543	3.91
442.748	3.83
442.952	3.91
443.156	3.87
443.36	4.03
443.564	3.89
443.768	3.87
443.972	3.98
444.176	4.07
444.38	4.13
444.584	4.11
444.788	4.19
444.992	4.13
445.196	4.03
445.4	4
445.604	3.82
445.808	3.88
446.012	3.92
446.216	3.83
446.42	3.79
446.624	3.66
446.828	3.71
447.032	3.67
447.235	3.7
447.439	3.69
447.643	3.73
447.847	3.81
448.051	3.79
448.254	3.73
448.458	3.74
448.662	3.64
448.866	3.78
449.069	3.77
449.273	3.76
449.477	3.73
449.681	3.8
449.884	3.74
450.088	3.68
450.292	3.6
450.495	3.65
450.699	3.6
450.902	3.75
451.106	3.71
451.31	3.63
451.513	3.72
451.717	3.76
451.92	3.59
452.124	3.6
452.327	3.54
452.531	3.63
452.734	3.57
452.938	3.66
453.141	3.64
453.345	3.74
453.548	3.77
453.752	3.65
453.955	3.5
454.158	3.59
454.362	3.55
454.565	3.78
454.769	3.74
454.972	3.8
455.175	3.77
455.379	3.71
455.582	3.59
455.785	3.51
455.988	3.57
456.192	3.69
456.395	3.72
456.598	3.75
456.801	3.7
457.005	3.66
457.208	3.71
457.411	3.78
457.614	3.81
457.817	3.81
458.021	3.81
458.224	3.82
458.427	3.82
458.63	3.75
458.833	3.75
459.036	3.72
459.239	3.75
459.442	3.75
459.645	3.67
459.848	3.68
460.051	3.64
460.254	3.6
460.457	3.53
460.66	3.55
460.863	3.59
461.066	3.52
461.269	3.61
461.472	3.7
461.675	3.69
461.878	3.65
462.081	3.65
462.284	3.7
462.486	3.83
462.689	3.9
462.892	3.85
463.095	3.8
463.298	3.96
463.5	3.88
463.703	3.86
463.906	3.81
464.109	3.86
464.311	3.97
464.514	4.01
464.717	3.98
464.92	4.11
465.122	4.25
465.325	4.15
465.528	4.14
465.73	4
465.933	3.95
466.135	3.9
466.338	3.95
466.541	3.81
466.743	3.68
466.946	3.65
467.148	3.47
467.351	3.33
467.553	3.43
467.756	3.44
467.958	3.65
468.161	3.56
468.363	3.75
468.566	3.68
468.768	3.67
468.971	3.8
469.173	3.85
469.375	3.87
469.578	3.88
469.78	3.92
469.983	3.89
470.185	3.86
470.387	3.92
470.59	3.78
470.792	3.88
470.994	3.98
471.196	3.89
471.399	3.78
471.601	3.78
471.803	3.75
472.005	3.85
472.208	3.84
472.41	3.78
472.612	3.73
472.814	3.68
473.016	3.64
473.218	3.59
473.421	3.68
473.623	3.71
473.825	3.74
474.027	3.81
474.229	3.6
474.431	3.57
474.633	3.56
474.835	3.68
475.037	3.76
475.239	3.74
475.441	3.7
475.643	3.69
475.845	3.79
476.047	3.75
476.249	3.77
476.451	3.76
476.653	3.72
476.855	3.72
477.057	3.77
477.258	3.78
477.46	3.78
477.662	3.83
477.864	3.8
478.066	3.84
478.268	3.82
478.469	3.85
478.671	3.94
478.873	3.95
479.075	3.98
479.276	3.89
479.478	3.79
479.68	3.73
479.882	3.73
480.083	3.74
480.285	3.62
480.487	3.68
480.688	3.56
480.89	3.57
481.091	3.63
481.293	3.48
481.495	3.52
481.696	3.65
481.898	3.69
482.099	3.68
482.301	3.66
482.502	3.68
482.704	3.6
482.905	3.65
483.107	3.63
483.308	3.58
483.51	3.61
483.711	3.56
483.913	3.53
484.114	3.51
484.315	3.5
484.517	3.51
484.718	3.5
484.92	3.56
485.121	3.56
485.322	3.57
485.524	3.58
485.725	3.57
485.926	3.6
486.127	3.54
486.329	3.55
486.53	3.57
486.731	3.56
486.932	3.55
487.134	3.54
487.335	3.53
487.536	3.54
487.737	3.54
487.938	3.59
488.139	3.58
488.341	3.6
488.542	3.61
488.743	3.63
488.944	3.64
489.145	3.68
489.346	3.7
489.547	3.68
489.748	3.63
489.949	3.65
490.15	3.64
490.351	3.65
490.552	3.67
490.753	3.68
490.954	3.62
491.155	3.62
491.356	3.61
491.557	3.61
491.758	3.63
491.959	3.68
492.159	3.69
492.36	3.69
492.561	3.71
492.762	3.7
492.963	3.7
493.164	3.72
493.364	3.71
493.565	3.71
493.766	3.72
493.967	3.73
494.167	3.66
494.368	3.63
494.569	3.57
494.769	3.55
494.97	3.64
495.171	3.69
495.371	3.66
495.572	3.67
495.773	3.71
495.973	3.73
496.174	3.68
496.375	3.78
496.575	3.73
496.776	3.84
496.976	3.92
497.177	3.89
497.377	3.86
497.578	3.91
497.778	3.9
497.979	3.88
498.179	3.87
498.38	3.85
498.58	3.84
498.78	3.92
498.981	3.94
499.181	3.95
499.382	3.9
499.582	3.85
499.782	3.87
499.983	3.8
500.183	3.85
500.383	3.87
500.584	3.91
500.784	3.93
500.984	3.88
501.184	3.81
501.385	3.86
501.585	3.91
501.785	3.98
501.985	3.96
502.185	4.07
502.386	4
502.586	3.96
502.786	4.04
502.986	4.02
503.186	4.13
503.386	4.13
503.586	4.03
503.786	4.03
503.987	4.05
504.187	4.08
504.387	4.1
504.587	4.19
504.787	4.28
504.987	4.31
505.187	4.33
505.387	4.26
505.587	4.28
505.786	4.36
505.986	4.32
506.186	4.34
506.386	4.37
506.586	4.39
506.786	4.32
506.986	4.24
507.186	4.22
507.386	4.2
507.585	4.26
507.785	4.31
507.985	4.26
508.185	4.27
508.384	4.28
508.584	4.34
508.784	4.33
508.984	4.42
509.183	4.46
509.383	4.58
509.583	4.69
509.782	4.73
509.982	4.71
510.182	4.72
510.381	4.83
510.581	4.88
510.781	4.86
510.98	4.95
511.18	4.92
511.379	5.01
511.579	5.02
511.778	4.91
511.978	4.93
512.177	5.09
512.377	5.2
512.576	5.25
512.776	5.19
512.975	5.23
513.175	5.27
513.374	5.39
513.573	5.38
513.773	5.32
513.972	5.49
514.172	5.44
514.371	5.43
514.57	5.44
514.77	5.44
514.969	5.56
515.168	5.63
515.367	5.76
515.567	5.79
515.766	5.88
515.965	5.9
516.164	5.92
516.364	6.09
516.563	6.12
516.762	6.15
516.961	6.17
517.16	6.2
517.359	6.22
517.559	6.1
517.758	6.1
517.957	6.23
518.156	6.28
518.355	6.34
518.554	6.27
518.753	6.33
518.952	6.43
519.151	6.48
519.35	6.57
519.549	6.61
519.748	6.82
519.947	6.81
520.146	6.82
520.345	6.88
520.544	6.88
520.743	7.03
520.942	6.98
521.141	7
521.339	7.01
521.538	7.03
521.737	7.05
521.936	6.98
522.135	7.13
522.333	7.11
522.532	7.22
522.731	7.31
522.93	7.45
523.129	7.55
523.327	7.62
523.526	7.71
523.725	7.78
523.923	7.96
524.122	8.03
524.321	8.11
524.519	8.2
524.718	8.32
524.917	8.38
525.115	8.38
525.314	8.49
525.512	8.49
525.711	8.59
525.909	8.58
526.108	8.56
526.306	8.62
526.505	8.68
526.703	8.77
526.902	8.84
527.1	8.9
527.299	8.95
527.497	8.99
527.696	9.13
527.894	9.2
528.092	9.26
528.291	9.34
528.489	9.41
528.688	9.48
528.886	9.57
529.084	9.64
529.283	9.7
529.481	9.73
529.679	9.75
529.877	9.79
530.076	9.85
530.274	9.99
530.472	10.06
530.67	10.18
530.869	10.26
531.067	10.3
531.265	10.31
531.463	10.37
531.661	10.54
531.859	10.7
532.057	10.78
532.255	10.82
532.454	10.87
532.652	10.92
532.85	10.95
533.048	11
533.246	11.03
533.444	11.1
533.642	11.18
533.84	11.21
534.038	11.24
534.236	11.28
534.434	11.39
534.632	11.42
534.83	11.48
535.027	11.55
535.225	11.64
535.423	11.69
535.621	11.79
535.819	11.84
536.017	11.88
536.215	11.96
536.412	12.06
536.61	12.06
536.808	12.13
537.006	12.2
537.203	12.24
537.401	12.31
537.599	12.37
537.797	12.38
537.994	12.54
538.192	12.65
538.39	12.69
538.587	12.77
538.785	12.85
538.983	12.98
539.18	13.06
539.378	13.19
539.575	13.19
539.773	13.31
539.97	13.41
540.168	13.32
540.366	13.33
540.563	13.39
540.761	13.38
540.958	13.44
541.155	13.53
541.353	13.52
541.55	13.51
541.748	13.57
541.945	13.62
542.143	13.65
542.34	13.74
542.537	13.84
542.735	13.84
542.932	13.9
543.129	13.94
543.327	13.96
543.524	14.04
543.721	14.14
543.919	14.15
544.116	14.17
544.313	14.29
544.51	14.39
544.708	14.46
544.905	14.64
545.102	14.77
545.299	14.86
545.496	14.85
545.693	14.89
545.891	14.95
546.088	15.02
546.285	15.05
546.482	15.04
546.679	15.09
546.876	15.11
547.073	15.13
547.27	15.09
547.467	15.16
547.664	15.26
547.861	15.31
548.058	15.34
548.255	15.31
548.452	15.29
548.649	15.35
548.846	15.35
549.043	15.36
549.24	15.38
549.437	15.38
549.633	15.28
549.83	15.3
550.027	15.39
550.224	15.41
550.421	15.5
550.618	15.56
550.814	15.61
551.011	15.63
551.208	15.57
551.405	15.63
551.601	15.81
551.798	15.9
551.995	15.92
552.191	15.92
552.388	15.91
552.585	15.95
552.781	16
552.978	15.97
553.175	15.99
553.371	16.15
553.568	16.17
553.764	16.2
553.961	16.18
554.157	16.07
554.354	16.18
554.55	16.24
554.747	16.38
554.943	16.37
555.14	16.37
555.336	16.32
555.533	16.27
555.729	16.2
555.926	16.15
556.122	16.23
556.318	16.29
556.515	16.27
556.711	16.18
556.907	16.07
557.104	16.13
557.3	16.08
557.496	16.28
557.693	16.29
557.889	16.49
558.085	16.49
558.281	16.62
558.478	16.74
558.674	16.79
558.87	16.92
559.066	17.02
559.262	17.04
559.459	16.95
559.655	16.95
559.851	17.11
560.047	17.06
560.243	17.05
560.439	16.9
560.635	17.01
560.831	17.01
561.027	16.91
561.223	16.83
561.419	16.79
561.615	17.07
561.811	16.95
562.007	16.76
562.203	16.62
562.399	16.53
562.595	16.56
562.791	16.63
562.987	16.46
563.183	16.73
563.379	16.79
563.575	16.83
563.771	16.79
563.966	16.81
564.162	16.97
564.358	17.17
564.554	17.32
564.75	17.33
564.945	17.22
565.141	17.38
565.337	17.34
565.533	17.32
565.728	17.32
565.924	17.26
566.12	17.3
566.315	17.22
566.511	17.12
566.707	17.09
566.902	17.1
567.098	17.08
567.293	17
567.489	16.93
567.684	16.98
567.88	16.97
568.076	17
568.271	17.02
568.467	17.13
568.662	17.19
568.858	17.22
569.053	17.23
569.248	17.33
569.444	17.37
569.639	17.44
569.835	17.43
570.03	17.51
570.225	17.53
570.421	17.57
570.616	17.55
570.812	17.56
571.007	17.61
571.202	17.61
571.397	17.58
571.593	17.56
571.788	17.42
571.983	17.4
572.178	17.37
572.374	17.32
572.569	17.34
572.764	17.33
572.959	17.36
573.154	17.39
573.35	17.44
573.545	17.41
573.74	17.46
573.935	17.6
574.13	17.62
574.325	17.62
574.52	17.63
574.715	17.68
574.91	17.71
575.105	17.74
575.3	17.76
575.495	17.74
575.69	17.72
575.885	17.74
576.08	17.7
576.275	17.83
576.47	17.78
576.665	17.81
576.86	17.69
577.055	17.73
577.25	17.65
577.444	17.58
577.639	17.77
577.834	17.87
578.029	17.97
578.224	18.13
578.418	17.98
578.613	18.24
578.808	18.32
579.003	18.45
579.197	18.32
579.392	18.51
579.587	18.47
579.781	18.32
579.976	18.36
580.171	18.28
580.365	18.14
580.56	18.2
580.755	18.01
580.949	18.22
581.144	18.16
581.338	18.21
581.533	18.11
581.727	18.31
581.922	18.35
582.116	18.4
582.311	18.52
582.505	18.52
582.7	18.58
582.894	18.61
583.089	18.52
583.283	18.65
583.478	18.66
583.672	18.57
583.866	18.59
584.061	18.76
584.255	18.69
584.449	18.73
584.644	18.76
584.838	18.78
585.032	19.01
585.226	18.93
585.421	18.81
585.615	18.91
585.809	19.04
586.003	18.97
586.198	18.79
586.392	18.76
586.586	18.63
586.78	18.66
586.974	18.57
587.168	18.47
587.363	18.41
587.557	18.48
587.751	18.5
587.945	18.51
588.139	18.59
588.333	18.55
588.527	18.5
588.721	18.41
588.915	18.27
589.109	18.35
589.303	18.24
589.497	18.3
589.691	18.34
589.885	18.28
590.079	18.34
590.273	18.19
590.466	18.23
590.66	18.16
590.854	18.32
591.048	18.3
591.242	18.38
591.436	18.5
591.629	18.52
591.823	18.65
592.017	18.67
592.211	18.56
592.404	18.68
592.598	18.71
592.792	18.92
592.986	18.94
593.179	18.93
593.373	18.88
593.567	18.93
593.76	18.97
593.954	18.88
594.147	18.95
594.341	19.01
594.535	19.13
594.728	19.09
594.922	19.04
595.115	18.99
595.309	19.29
595.502	19.4
595.696	19.26
595.889	19.32
596.083	19.37
596.276	19.26
596.47	19.33
596.663	19.23
596.856	19.13
597.05	19.17
597.243	19.22
597.437	19.03
597.63	18.97
597.823	19.03
598.017	19.06
598.21	19.02
598.403	19.05
598.596	19
598.79	18.85
598.983	19
599.176	18.88
599.369	18.78
599.563	18.94
599.756	18.83
599.949	18.69
600.142	18.64
600.335	18.41
600.528	18.54
600.722	18.66
600.915	18.87
601.108	18.88
601.301	18.99
601.494	19.13
601.687	19.16
601.88	19.19
602.073	19.44
602.266	19.36
602.459	19.42
602.652	19.44
602.845	19.37
603.038	19.36
603.231	19.42
603.424	19.38
603.617	19.4
603.809	19.25
604.002	19.21
604.195	19.22
604.388	19.3
604.581	19.35
604.774	19.18
604.966	19.23
605.159	19.17
605.352	19.06
605.545	19.09
605.737	18.98
605.93	19.08
606.123	19.2
606.316	19.31
606.508	19.21
606.701	19.22
606.894	19.3
607.086	19.25
607.279	19.33
607.471	19.36
607.664	19.37
607.857	19.51
608.049	19.47
608.242	19.48
608.434	19.49
608.627	19.68
608.819	19.71
609.012	19.91
609.204	19.98
609.397	20.05
609.589	20.01
609.782	20.13
609.974	20.07
610.166	20.3
610.359	20.41
610.551	20.26
610.743	20.29
610.936	20.36
611.128	20.32
611.32	20.32
611.513	20.26
611.705	20.29
611.897	20.3
612.09	20.35
612.282	20.11
612.474	19.99
612.666	20.26
612.858	20.16
613.051	20.2
613.243	20.08
613.435	19.98
613.627	19.92
613.819	19.85
614.011	20.05
614.203	20.08
614.395	20.18
614.588	20.15
614.78	20.04
614.972	19.95
615.164	20.05
615.356	20.32
615.548	20.36
615.74	20.49
615.932	20.82
616.124	20.4
616.315	20.33
616.507	20.33
616.699	20.41
616.891	20.39
617.083	20.4
617.275	20.43
617.467	20.14
617.659	19.98
617.85	19.89
618.042	19.89
618.234	20.04
618.426	20
618.618	20.07
618.809	20.22
619.001	20.12
619.193	20.08
619.384	19.84
619.576	19.96
619.768	20.12
619.959	20.07
620.151	19.96
620.343	19.99
620.534	20.04
620.726	20.04
620.917	19.96
621.109	19.98
621.301	19.87
621.492	19.88
621.684	19.95
621.875	19.75
622.067	19.81
622.258	19.9
622.45	19.89
622.641	19.97
622.832	19.9
623.024	19.82
623.215	19.76
623.407	19.83
623.598	19.91
623.789	20
623.981	20.38
624.172	20.46
624.363	20.23
624.555	20.28
624.746	20.19
624.937	20.38
625.129	20.44
625.32	20.51
625.511	20.53
625.702	20.36
625.893	20.14
626.085	19.94
626.276	19.86
626.467	20.13
626.658	20.11
626.849	20.25
627.04	20.22
627.231	20.14
627.422	20.11
627.614	19.96
627.805	20.11
627.996	20.2
628.187	20.16
628.378	20.23
628.569	20.06
628.76	19.99
628.951	19.75
629.142	19.59
629.332	19.54
629.523	19.53
629.714	19.79
629.905	19.85
630.096	19.78
630.287	19.9
630.478	20.01
630.669	20.12
630.859	20.15
631.05	20.24
631.241	20.33
631.432	20.5
631.623	20.59
631.813	20.67
632.004	20.56
632.195	20.58
632.385	20.56
632.576	20.53
632.767	20.48
632.957	20.53
633.148	20.72
633.339	20.73
633.529	20.53
633.72	20.46
633.91	20.37
634.101	20.41
634.292	20.34
634.482	20.43
634.673	20.25
634.863	20.33
635.054	20.28
635.244	20.2
635.435	20.06
635.625	20.08
635.815	20.16
636.006	20.15
636.196	20.14
636.387	20.32
636.577	20.44
636.767	20.49
636.958	20.4
637.148	20.42
637.338	20.22
637.529	20.3
637.719	20.61
637.909	20.63
638.099	20.63
638.29	20.63
638.48	20.52
638.67	20.3
638.86	20.46
639.05	20.32
639.241	20.19
639.431	20.51
639.621	20.52
639.811	20.45
640.001	20.28
640.191	20.41
640.381	20.45
640.571	20.53
640.761	20.64
640.951	20.56
641.141	20.85
641.331	21.09
641.521	20.89
641.711	20.8
641.901	20.38
642.091	20.52
642.281	20.33
642.471	20.38
642.661	20.34
642.851	20.17
643.041	19.85
643.231	19.68
643.42	19.86
643.61	19.85
643.8	19.89
643.99	20.12
644.18	20.25
644.369	20.18
644.559	20.27
644.749	20.05
644.939	20.09
645.128	20.45
645.318	20.61
645.508	20.29
645.697	20.48
645.887	20.7
646.076	20.59
646.266	20.56
646.456	20.62
646.645	20.51
646.835	20.7
647.024	20.65
647.214	20.62
647.403	20.54
647.593	20.57
647.782	20.4
647.972	20.14
648.161	20.49
648.351	20.45
648.54	20.61
648.73	20.47
648.919	20.37
649.108	20.34
649.298	20.24
649.487	20.21
649.677	20.31
649.866	20.29
650.055	20.44
650.244	20.22
650.434	20.24
650.623	20.07
650.812	20.23
651.002	20.28
651.191	20.43
651.38	20.61
651.569	20.63
651.758	20.46
651.947	20.46
652.137	20.42
652.326	20.44
652.515	20.26
652.704	20.38
652.893	20.13
653.082	19.96
653.271	19.83
653.46	19.58
653.649	19.67
653.838	19.94
654.027	19.93
654.216	20.08
654.405	20.44
654.594	20.7
654.783	20.82
654.972	21.19
655.161	21.65
655.35	21.9
655.539	22.11
655.728	22.08
655.916	21.74
656.105	21.75
656.294	21.76
656.483	21.52
656.672	21.28
656.86	21.1
657.049	20.96
657.238	20.82
657.427	20.62
657.615	20.43
657.804	20.29
657.993	20.51
658.181	20.58
658.37	20.62
658.559	20.62
658.747	20.7
658.936	20.72
659.125	20.82
659.313	20.83
659.502	20.75
659.69	21.01
659.879	21.13
660.067	21.09
660.256	21.17
660.444	21.02
660.633	20.99
660.821	20.93
661.01	20.97
661.198	21.08
661.387	21.16
661.575	21.16
661.763	21.09
661.952	20.9
662.14	21.11
662.328	20.98
662.517	21.07
662.705	21.2
662.893	21.33
663.082	20.96
663.27	20.82
663.458	20.48
663.646	20.74
663.834	20.6
664.023	20.82
664.211	20.55
664.399	20.68
664.587	20.61
664.775	20.53
664.963	20.5
665.152	20.88
665.34	20.94
665.528	21.32
665.716	21.3
665.904	21.54
666.092	21.36
666.28	21.38
666.468	21.31
666.656	21.24
666.844	21.38
667.032	21.38
667.22	21.45
667.408	21.23
667.596	20.94
667.784	21.02
667.971	21.08
668.159	21.32
668.347	21.5
668.535	21.64
668.723	21.84
668.911	21.73
669.098	21.86
669.286	21.94
669.474	22.1
669.662	22.11
669.849	22.37
670.037	22.09
670.225	22.1
670.413	22.16
670.6	22.07
670.788	22.07
670.976	21.83
671.163	21.56
671.351	21.25
671.538	21
671.726	21.02
671.913	20.59
672.101	20.81
672.289	20.76
672.476	20.42
672.664	20.51
672.851	20.36
673.039	20.43
673.226	20.65
673.413	20.73
673.601	20.96
673.788	21.13
673.976	21.37
674.163	21.18
674.35	21.39
674.538	21.54
674.725	21.49
674.912	21.6
675.1	21.84
675.287	22.03
675.474	22.3
675.662	22.32
675.849	22.23
676.036	22.15
676.223	22.1
676.411	21.98
676.598	21.91
676.785	22.19
676.972	22.13
677.159	21.83
677.346	21.59
677.533	21.55
677.721	21.59
677.908	21.7
678.095	21.53
678.282	21.78
678.469	21.75
678.656	21.74
678.843	21.44
679.03	21.6
679.217	21.97
679.404	21.95
679.591	21.77
679.778	21.87
679.964	21.99
680.151	21.78
680.338	21.56
680.525	21.42
680.712	21.55
680.899	21.77
681.086	21.72
681.272	21.85
681.459	21.92
681.646	22.12
681.833	21.96
682.02	21.71
682.206	21.97
682.393	22.31
682.58	22.32
682.766	22.25
682.953	22.39
683.14	22.53
683.326	22.37
683.513	22.39
683.7	22.6
683.886	22.54
684.073	22.69
684.259	23.05
684.446	22.71
684.632	23.12
684.819	23.3
685.005	22.88
685.192	22.77
685.378	22.48
685.565	22.53
685.751	22.45
685.938	22.68
686.124	22.72
686.31	22.43
686.497	22.54
686.683	22.19
686.87	22.05
687.056	22.18
687.242	21.98
687.429	21.73
687.615	21.49
687.801	21.12
687.987	21.06
688.174	21.16
688.36	21.09
688.546	20.98
688.732	21.4
688.918	21.52
689.105	21.7
689.291	21.65
689.477	22.14
689.663	22.28
689.849	22.72
690.035	23.03
690.221	22.66
690.407	22.72
690.593	22.64
690.779	22.21
690.965	22.31
691.151	21.89
691.337	22.23
691.523	22.05
691.709	22.25
691.895	21.88
692.081	21.53
692.267	21.85
692.453	21.96
692.639	22.31
692.825	22.51
693.011	22.62
693.196	23.1
693.382	23.06
693.568	23.13
693.754	23.09
693.94	23.31
694.125	23.57
694.311	23.61
694.497	23.7
694.682	23.77
694.868	23.59
695.054	22.97
695.239	23.23
695.425	23.3
695.611	22.99
695.796	22.65
695.982	23.01
696.168	22.7
696.353	22.67
696.539	22.17
696.724	22.07
696.91	22.45
697.095	22.84
697.281	22.24
697.466	22.05
697.652	22.19
697.837	22.29
698.023	21.84
698.208	21.95
698.393	21.8
698.579	21.98
698.764	22.02
698.949	21.73
699.135	21.56
699.32	21.67
699.505	21.78
699.691	21.9
699.876	21.91
700.061	22.09
700.246	22.37
700.432	22.45
700.617	22.76
700.802	23.02
700.987	23.18
701.172	23.24
701.358	23.29
701.543	23.14
701.728	23.26
701.913	23.4
702.098	23.07
702.283	23.06
702.468	23.11
702.653	23.04
702.838	22.97
703.023	23.05
703.208	23.22
703.393	23.18
703.578	23.07
703.763	22.81
703.948	23.03
704.133	23.73
704.318	23
704.503	23.21
704.688	22.79
704.873	22.92
705.057	23.14
705.242	23.51
705.427	23.79
705.612	24.01
705.797	24.47
705.981	24.43
706.166	24.29
706.351	24.65
706.536	24.73
706.72	24.99
706.905	24.5
707.09	24.36
707.274	23.84
707.459	23.95
707.644	24.05
707.828	23.63
708.013	23.73
708.197	23.29
708.382	23.11
708.567	23.1
708.751	23.14
708.936	23.25
709.12	23.47
709.305	23.78
709.489	23.76
709.673	23.85
709.858	23.98
710.042	23.65
710.227	23.9
710.411	24.03
710.596	23.9
710.78	23.83
710.964	23.99
711.149	23.71
711.333	23.53
711.517	23.28
711.702	23.29
711.886	23.36
712.07	23.35
712.254	23.39
712.438	23.26
712.623	23.32
712.807	23.33
712.991	23.11
713.175	23.04
713.359	22.88
713.544	22.88
713.728	22.7
713.912	22.7
714.096	22.92
714.28	22.66
714.464	22.99
714.648	22.77
714.832	22.99
715.016	22.88
715.2	22.43
715.384	22.33
715.568	22.39
715.752	22.24
715.936	22.23
716.12	22.06
716.304	22.48
716.488	21.96
716.671	22.03
716.855	21.52
717.039	21.47
717.223	21.88
717.407	22.08
717.59	22.06
717.774	22.47
717.958	22.36
718.142	22.19
718.325	22.02
718.509	22.12
718.693	22.48
718.877	22.72
719.06	22.95
719.244	23.04
719.428	22.65
719.611	23.24
719.795	23.54
719.978	23.31
720.162	23.71
720.345	24.11
720.529	24.53
720.713	23.77
720.896	24.25
721.08	24.58
721.263	24.59
721.446	25.14
721.63	24.76
721.813	24.41
721.997	25.06
722.18	24.94
722.364	24.39
722.547	24.71
722.73	25.44
722.914	25.19
723.097	24.75
723.28	25.37
723.464	25.35
723.647	24.94
723.83	24.56
724.013	24.14
724.197	24.14
724.38	24.09
724.563	23.49
724.746	23.39
724.929	23.47
725.112	23.03
725.296	22.5
725.479	22.61
725.662	23.13
725.845	23.21
726.028	22.66
726.211	23.05
726.394	23.49
726.577	23.74
726.76	23.41
726.943	23.48
727.126	24.08
727.309	23.73
727.492	23.54
727.675	23.11
727.858	23.13
728.041	23.76
728.224	23.19
728.407	22.61
728.589	22.5
728.772	23.01
728.955	23.39
729.138	23.92
729.321	24.27
729.503	24.61
729.686	24.65
729.869	24.57
730.052	24.3
730.234	24.78
730.417	24.78
730.6	25.19
730.782	24.46
730.965	23.94
731.148	23.69
731.33	24
731.513	24.13
731.695	24.33
731.878	24.37
732.061	24.68
732.243	24.57
732.426	25.04
732.608	24.55
732.791	24.83
732.973	25.14
733.156	24.96
733.338	24.49
733.52	24.44
733.703	24.53
733.885	24.7
734.068	24.52
734.25	24.58
734.432	24.4
734.615	24.68
734.797	25.02
734.979	24.66
735.162	24.86
735.344	25.42
735.526	25.41
735.708	24.69
735.891	24.6
736.073	25.11
736.255	25.03
736.437	24.56
736.619	25.02
736.802	24.68
736.984	24.89
737.166	24.36
737.348	23.47
737.53	22.85
737.712	23.7
737.894	23.6
738.076	23.18
738.258	23.22
738.44	23.84
738.622	23.46
738.804	23.44
738.986	23.16
739.168	23.7
739.35	24.67
739.532	24.55
739.714	24.11
739.896	24.08
740.078	24.7
740.259	24.25
740.441	24.37
740.623	24.73
740.805	24.5
740.987	24.96
741.168	24.55
741.35	24.16
741.532	23.84
741.714	24.1
741.895	24.4
742.077	23.87
742.259	24.65
742.44	24.6
742.622	24.28
742.804	24.6
742.985	24.14
743.167	24.62
743.348	24.49
743.53	25.98
743.711	26.24
743.893	26.07
744.075	26.44
744.256	26.1
744.438	26.09
744.619	26.05
744.8	26.68
744.982	26.94
745.163	26.91
745.345	26.75
745.526	27.04
745.707	27.03
745.889	27.06
746.07	26.87
746.252	26.44
746.433	25.99
746.614	26.16
746.795	26.04
746.977	26.3
747.158	26.26
747.339	26.44
747.52	25.62
747.702	25.63
747.883	25.19
748.064	25.09
748.245	25.44
748.426	25.42
748.607	24.83
748.788	24.34
748.97	24.77
749.151	24.44
749.332	24.62
749.513	24.78
749.694	24.41
749.875	25.49
750.056	24.99
750.237	25.16
750.418	25.14
750.599	25.75
750.78	25.74
750.96	25.27
751.141	26.55
751.322	25.8
751.503	25.3
751.684	25.41
751.865	24.98
752.046	25.55
752.226	25.21
752.407	26.02
752.588	25.26
752.769	25.77
752.949	24.54
753.13	23.32
753.311	24.59
753.492	25.11
753.672	25.05
753.853	25.25
754.034	24.68
754.214	24.95
754.395	24.7
754.575	25.36
754.756	24.89
754.937	25.9
755.117	26.25
755.298	25.96
755.478	25.31
755.659	25.4
755.839	25.43
756.02	25.92
756.2	26.09
756.381	26.25
756.561	26.3
756.741	26.03
756.922	25.61
757.102	25.42
757.283	26.32
757.463	27.03
757.643	26.7
757.823	26.72
758.004	26.32
758.184	26.95
758.364	26.52
758.545	27.01
758.725	27.42
758.905	27.69
759.085	28.8
759.265	27.68
759.446	27.68
759.626	28.06
759.806	27.17
759.986	27.32
760.166	26.32
760.346	26.24
760.526	24.32
760.706	23.7
760.886	23.71
761.066	21.77
761.246	21.16
761.426	21.08
761.606	20.65
761.786	20.88
761.966	21.49
762.146	21.56
762.326	21.85
762.506	23.22
762.686	23.2
762.866	23.06
763.046	23.45
763.225	23.51
763.405	23.29
763.585	23.5
763.765	23.43
763.945	22.99
764.124	22.81
764.304	22.42
764.484	22.09
764.664	21.91
764.843	22.53
765.023	22.61
765.203	23.36
765.382	23.4
765.562	24.24
765.741	24.76
765.921	24.74
766.101	25.33
766.28	26.68
766.46	26.88
766.639	27.25
766.819	26.34
766.998	26.36
767.178	25.58
767.357	26.58
767.537	25.96
767.716	25.98
767.896	26.56
768.075	26.85
768.254	25.92
768.434	25.89
768.613	26.79
768.792	27.96
768.972	28
769.151	28.27
769.33	27.75
769.51	28.11
769.689	28.53
769.868	28.49
770.047	28.55
770.226	28.69
770.406	29.27
770.585	29.64
770.764	28.85
770.943	28.59
771.122	28.48
771.301	28.51
771.48	28.93
771.66	29.06
771.839	29.69
772.018	29.29
772.197	29.14
772.376	28.91
772.555	28.96
772.734	29.27
772.913	30.14
773.092	30.91
773.271	31.01
773.449	30.5
773.628	30.11
773.807	30.64
773.986	31.37
774.165	31.7
774.344	31.13
774.523	30.33
774.701	29.69
774.88	29.58
775.059	28.79
775.238	28.14
775.417	27.47
775.595	27.76
775.774	27.61
775.953	26.72
776.131	25.55
776.31	25.91
776.489	26.42
776.667	27.27
776.846	26.83
777.025	27.75
777.203	26.94
777.382	28.06
777.56	27.55
777.739	26.47
777.917	26.05
778.096	27.69
778.274	28.2
778.453	28.22
778.631	27.43
778.81	26.29
778.988	27.03
779.166	27.58
779.345	27.13
779.523	26.89
779.702	27.14
779.88	27.69
780.058	27.29
780.237	26.48
780.415	26.4
780.593	28.15
780.771	29.8
780.95	28.85
781.128	28.94
781.306	29.46
781.484	29.57
781.662	28.61
781.841	27.94
782.019	28.23
782.197	28.93
782.375	28.41
782.553	27.77
782.731	27.83
782.909	27.14
783.087	27.57
783.265	27.08
783.443	27.84
783.621	29.73
783.799	30.81
783.977	29.77
784.155	28.91
784.333	29.38
784.511	28.68
784.689	27.98
784.867	28.83
785.045	28.6
785.223	27.82
785.4	25.97
785.578	24
785.756	23.99
785.934	24.98
786.112	25.35
786.289	25.02
786.467	25.61
786.645	25.54
786.823	25.26
787	25.34
787.178	26.13
787.356	27.38
787.533	28.04
787.711	27.58
787.889	26.44
788.066	26.79
788.244	26.71
788.421	26.82
788.599	27.2
788.776	27.36
788.954	27.47
789.131	26.67
789.309	26.55
789.486	25.84
789.664	25.94
789.841	26.13
790.019	25.91
790.196	25.83
790.373	25.76
790.551	26.23
790.728	26.66
790.906	26.21
791.083	27.82
791.26	27.79
791.437	28.47
791.615	28.45
791.792	28.59
791.969	28.01
792.146	27.88
792.324	28.26
792.501	28.37
792.678	27.69
792.855	26.85
793.032	25.98
793.209	27.49
793.387	27.61
793.564	28.13
793.741	28.67
793.918	29.27
794.095	28.95
794.272	27.4
794.449	27.63
794.626	26.83
794.803	28.29
794.98	27.85
795.157	25.94
795.334	26.37
795.511	26.53
795.688	24.95
795.864	24.63
796.041	26.54
796.218	27.14
796.395	27.09
796.572	27.84
796.749	26.74
796.925	27.17
797.102	27.53
797.279	27.35
797.456	26.41
797.632	27.77
797.809	28.72
797.986	26.89
798.162	27.56
798.339	26.27
798.516	25.35
798.692	25.78
798.869	24.18
799.046	23.87
799.222	24.15
799.399	24.72
799.575	25.77
799.752	24.42
799.928	24.2
800.105	23.68
800.281	24.16
800.458	25.4
800.634	26.38
800.811	29.25
800.987	30.27
801.163	29.64
801.34	29.64
801.516	28.5
801.692	28.11
801.869	29.95
802.045	30.49
802.221	31.35
802.398	31.08
802.574	31.93
802.75	30.91
802.926	29.79
803.103	30.73
803.279	29.91
803.455	31.38
803.631	31.87
803.807	31.25
803.983	32.51
804.16	31.44
804.336	31.45
804.512	29.59
804.688	28.45
804.864	28.92
805.04	27.97
805.216	29.74
805.392	29.46
805.568	30.24
805.744	30.25
805.92	27.41
806.096	28.17
806.272	28.82
806.448	28.59
806.623	30.7
806.799	29.98
806.975	31.68
807.151	31.18
807.327	31.25
807.503	31.9
807.678	31.76
807.854	32.95
808.03	31.99
808.206	31.13
808.381	30.91
808.557	28.23
808.733	28.73
808.908	25.92
809.084	25.16
809.26	24.1
809.435	22.86
809.611	22.83
809.787	23.3
809.962	24.96
810.138	24.24
810.313	26.21
810.489	27.77
810.664	27.69
810.84	28.71
811.015	27.97
811.191	27.97
811.366	27.94
811.542	28.54
811.717	27.45
811.892	26.45
812.068	28.01
812.243	25.76
812.419	24.56
812.594	26.2
812.769	26.41
812.944	26.42
813.12	26.9
813.295	28.28
813.47	26.1
813.645	27.24
813.821	28.04
813.996	27.79
814.171	28.72
814.346	30.17
814.521	29.91
814.697	30.25
814.872	31.37
815.047	30.22
815.222	30.19
815.397	31.92
815.572	31.81
815.747	32
815.922	31.5
816.097	30.17
816.272	29.05
816.447	28.23
816.622	29.29
816.797	28.38
816.972	29.8
817.147	29.14
817.322	29.57
817.496	28.57
817.671	27.36
817.846	28.08
818.021	29.1
818.196	27.66
818.371	27.55
818.545	27.84
818.72	28.53
818.895	28.34
819.069	28.23
819.244	27.99
819.419	27.74
819.594	27.39
819.768	26.69
819.943	26.58
820.117	27.85
820.292	27.21
820.467	25.93
820.641	25.73
820.816	24.58
820.99	24.68
821.165	23.98
821.339	23.96
821.514	23.97
821.688	23.68
821.863	23.57
822.037	23.07
822.212	22.78
822.386	22.81
822.56	22.63
822.735	22.73
822.909	22.52
823.084	22.68
823.258	22.6
823.432	22.66
823.606	22.8
823.781	22.83
823.955	23.22
824.129	23.44
824.303	23.32
824.478	23.4
824.652	23.55
824.826	23.43
825	23.92
825.174	24.06
825.348	24.11
825.523	24.2
825.697	24.13
825.871	24
826.045	23.91
826.219	23.93
826.393	24.13
826.567	23.6
826.741	23.9
826.915	23.14
827.089	23.14
827.263	23.15
827.437	23.29
827.611	23.7
827.784	23.27
827.958	23.23
828.132	23.07
828.306	23.38
828.48	23.46
828.654	23.61
828.827	23.86
829.001	23.83
829.175	23.17
829.349	21.98
829.522	21.35
829.696	22.56
829.87	23.49
830.044	23.77
830.217	22.53
830.391	23.14
830.565	23.37
830.738	23.6
830.912	23.54
831.085	23.17
831.259	24.47
831.432	25.22
831.606	24.15
831.779	24.82
831.953	25.36
832.126	25.92
832.3	26.39
832.473	25.84
832.647	25.13
832.82	25.94
832.994	26.74
833.167	25.78
833.34	26.03
833.514	26.49
833.687	25.12
833.86	25.15
834.034	24.93
834.207	24.05
834.38	23.6
834.553	23.25
834.727	22.34
834.9	22.61
835.073	23.44
835.246	22.35
835.419	21.99
835.593	23.21
835.766	22.31
835.939	22.68
836.112	23.65
836.285	24.61
836.458	25.69
836.631	27.35
836.804	26.58
836.977	25.6
837.15	26.82
837.323	27.98
837.496	28.61
837.669	30.58
837.842	31.39
838.015	30.24
838.188	30.43
838.361	30.92
838.533	29.08
838.706	31.69
838.879	33.76
839.052	36.05
839.225	32.42
839.398	31.64
839.57	31.16
839.743	29.97
839.916	31.17
840.088	31.8
840.261	31.09
840.434	32.48
840.607	31.3
840.779	28.88
840.952	27.57
841.124	30.11
841.297	29.63
841.47	28.96
841.642	30.91
841.815	32.39
841.987	30.91
842.16	31.08
842.332	30.83
842.505	30.44
842.677	34.21
842.85	33.46
843.022	33.64
843.194	34.65
843.367	37.8
843.539	38.79
843.712	36.57
843.884	36.36
844.056	39.23
844.229	40.91
844.401	41.84
844.573	40.08
844.745	39.57
844.918	39.53
845.09	36.23
845.262	33.43
845.434	33.82
845.606	36.84
845.779	40.2
845.951	34.79
846.123	32.17
846.295	31.23
846.467	32.5
846.639	35.09
846.811	35.18
846.983	35.99
847.155	33.69
847.327	29.78
847.499	30.48
847.671	30.3
847.843	34.26
848.015	35.9
848.187	38.41
848.359	38.51
848.531	35.92
848.703	34.4
848.875	34.84
849.047	36.27
849.218	35.95
849.39	32.32
849.562	30.61
849.734	27.15
849.905	27.62
850.077	22.23
850.249	19.52
850.421	18.91
850.592	19.75
850.764	21.55
850.936	24.98
851.107	24.24
851.279	24.82
851.451	24.35
851.622	31.6
851.794	35.41
851.965	41.2
852.137	41.71
852.308	38.65
852.48	41.93
852.651	40.35
852.823	40.42
852.994	43.18
853.166	44.24
853.337	47.01
853.509	39.38
853.68	31
853.851	26.26
854.023	28.77
854.194	29.47
854.365	28.04
854.537	27.33
854.708	31.33
854.879	28.82
855.05	31.08
855.222	28.58
855.393	34.65
855.564	38.54
855.735	40.44
855.906	39.26
856.078	46.63
856.249	43.23
856.42	44.59
856.591	41.31
856.762	43.38
856.933	41.66
857.104	45.08
857.275	40.95
857.446	38.55
857.617	36.77
857.788	39.06
857.959	29.24
858.13	33.3
858.301	34.93
858.472	39.24
858.643	33.95
858.814	32.58
858.985	27.44
859.155	27.59
859.326	28.89
859.497	34.19
859.668	29.45
859.839	32.7
860.009	33.34
860.18	28.8
860.351	24.4
860.522	28.66
860.692	27.49
860.863	28.58
861.034	35.78
861.204	35.61
861.375	36.3
861.546	39.22
861.716	37.05
861.887	31.36
862.057	31.36
862.228	35.49
862.398	32.94
862.569	31.36
862.739	30.77
862.91	25.02
863.08	27.59
863.251	18.92
863.421	19.84
863.592	26.05
863.762	33.09
863.932	31.75
864.103	29.6
864.273	26.78
864.443	30.61
864.614	36.35
864.784	38.77
864.954	36.83
865.125	45.86
865.295	44.22
865.465	41.25
865.635	37.77
865.805	40.03
865.976	32.96
866.146	39.67
866.316	35.18
866.486	30.03
866.656	25.07
866.826	20.17
866.996	15.65
867.166	18.3
867.336	19.51
867.506	12.02
867.676	13.09
867.846	17.1
868.016	17.34
868.186	28.31
868.356	25.72
868.526	23.72
868.696	21.73
868.866	24.36
869.036	18.15
869.206	16.55
869.376	27.99
869.545	25.59
869.715	25.43
869.885	30.15
870.055	29.78
870.224	33
870.394	39.18
870.564	45.33
870.734	38.59
870.903	39.47
871.073	42.82
871.243	45.49
871.412	39.11
871.582	39.77
871.751	32.71
871.921	31.74
872.091	35.6
872.26	35.65
872.43	35.05
872.599	34.35
872.769	42.08
872.938	39.41
873.108	32.64
873.277	42.75
873.446	43.74
873.616	41.27
873.785	38.9
873.955	33.47
874.124	32.01
874.293	34.43
874.463	35.43
874.632	28.95
874.801	29.23
874.971	26.58
875.14	27.79
875.309	25.03
875.478	26.3
875.647	25.59
875.817	29.35
875.986	30.93
876.155	29.2
876.324	29.52
876.493	34.26
876.662	38.12
876.831	44.65
877	39.38
877.17	37.52
877.339	41.79
877.508	41.71
877.677	41.84
877.846	36.56
878.015	37.23
878.184	40.74
878.352	34.82
878.521	34.53
878.69	31.71
878.859	30.79
879.028	32.5
879.197	33.24
879.366	30.88
879.534	28.54
879.703	28.5
879.872	29.03
880.041	26.12
880.21	26.09
880.378	24.92
880.547	26.33
880.716	28.18
880.884	26.92
881.053	26.73
881.222	27.07
881.39	26.19
881.559	26.62
881.727	26.75
881.896	26.3
882.065	26.71
882.233	25.62
882.402	23.44
882.57	22.33
882.739	22.72
882.907	22.12
883.076	21.96
883.244	21.72
883.412	21.92
883.581	20.89
883.749	20.98
883.918	21.74
884.086	22.88
884.254	24.73
884.423	25.16
884.591	25.64
884.759	25.72
884.927	24.73
885.096	25.17
885.264	25.89
885.432	26
885.6	28.15
885.769	26.86
885.937	25.31
886.105	25.78
886.273	28.09
886.441	26.28
886.609	28.2
886.777	32.5
886.945	33.22
887.113	31.26
887.281	32.8
887.449	31.29
887.617	31.64
887.785	32.06
887.953	31.74
888.121	23.78
888.289	25.57
888.457	23.45
888.625	25.09
888.793	28.18
888.961	26.83
889.129	26.32
889.296	27.98
889.464	24.94
889.632	26.58
889.8	27.68
889.967	37.78
890.135	42.02
