Data from 2938737__Reflection_18-05-32-641.txt Node
Date: Sun Mar 15 18:05:32 EDT 2015
User: robert
Spectrometer: USB4E03002
Autoset integration time: false
Trigger mode: 4
Integration Time (sec): 1.000000E-1
Scans to average: 10
Electric dark correction enabled: false
Nonlinearity correction enabled: false
Boxcar width: 5
Stray light correction enabled: false
XAxis mode: Wavelengths
Stop averaging: false
Number of Pixels in Spectrum: 3648
>>>>>Begin Spectral Data<<<<<
177.575	128.67
177.794	143.99
178.014	184.93
178.233	209.5
178.452	286.4
178.672	266.51
178.891	325.07
179.11	318.18
179.33	370.29
179.549	392.16
179.768	920.97
179.987	437.7
180.207	237.04
180.426	215.59
180.645	202.39
180.864	160.21
181.084	213.2
181.303	222.69
181.522	265.32
181.741	268.6
181.96	342.25
182.179	317.66
182.398	408.31
182.618	501.71
182.837	472.4
183.056	439.2
183.275	602.23
183.494	366.67
183.713	291.01
183.932	262.48
184.151	277.64
184.37	356.53
184.589	555.91
184.808	376.87
185.027	344.44
185.246	288.21
185.465	285.89
185.684	285.89
185.903	322.89
186.122	476.56
186.341	570.64
186.56	342.53
186.779	252.3
186.998	233.42
187.216	237.74
187.435	231.36
187.654	268.26
187.873	282.53
188.092	220.36
188.311	223.55
188.53	188.91
188.748	174.33
188.967	190.52
189.186	191.22
189.405	172.44
189.623	194.67
189.842	229.6
190.061	226.87
190.28	220.15
190.498	513.27
190.717	469.89
190.936	474.68
191.154	500.36
191.373	-5455
191.592	-5735
191.81	-1203.45
192.029	-1258.06
192.248	-990.08
192.466	-1053.39
192.685	1329.2
192.904	460
193.122	398.01
193.341	413.23
193.559	407.46
193.778	344.76
193.996	411.17
194.215	344.01
194.433	274.42
194.652	247.28
194.87	217.25
195.089	263.81
195.307	280.41
195.526	390.85
195.744	313.58
195.963	446.34
196.181	1815.07
196.399	853.38
196.618	730.81
196.836	758.54
197.055	1301.08
197.273	1110.91
197.491	798.04
197.71	496.21
197.928	271.46
198.146	265.13
198.365	225.62
198.583	165.29
198.801	187.79
199.019	203.06
199.238	172.22
199.456	189.05
199.674	221.34
199.892	245.24
200.111	240.24
200.329	296.05
200.547	336.77
200.765	412.69
200.983	309.79
201.202	252.06
201.42	273.06
201.638	833.87
201.856	609.72
202.074	886.67
202.292	675.14
202.51	1330.11
202.728	4325
202.946	-2800
203.165	-1423.81
203.383	-844.88
203.601	-706.16
203.819	-516.42
204.037	930.51
204.255	576.89
204.473	566.81
204.691	356.52
204.909	242.75
205.127	253.51
205.345	156.52
205.562	152.27
205.78	179.29
205.998	158.79
206.216	155.21
206.434	185.57
206.652	181.22
206.87	183.68
207.088	204.92
207.306	233.9
207.523	230.19
207.741	398.99
207.959	309.28
208.177	259.8
208.395	253.07
208.612	249.8
208.83	263.65
209.048	241.03
209.266	288.98
209.483	295.07
209.701	306.51
209.919	288.34
210.136	187.87
210.354	186.97
210.572	204.27
210.79	182.79
211.007	170.75
211.225	160.94
211.442	202.95
211.66	170.53
211.878	169.2
212.095	166.37
212.313	159.71
212.53	184.75
212.748	176.56
212.966	178.45
213.183	184.81
213.401	165.66
213.618	159.85
213.836	162.5
214.053	167
214.271	173.06
214.488	150.55
214.705	193.73
214.923	178.47
215.14	322.3
215.358	231.76
215.575	280.76
215.793	305.07
216.01	239.76
216.227	193.91
216.445	179.17
216.662	176
216.879	178.53
217.097	167.2
217.314	143.59
217.531	136.43
217.749	134.23
217.966	112.55
218.183	97.28
218.4	108.22
218.618	118.32
218.835	115.95
219.052	105.59
219.269	121.57
219.487	114.89
219.704	122.8
219.921	108.59
220.138	107.66
220.355	110.4
220.572	97.45
220.79	99.57
221.007	95.36
221.224	105.67
221.441	98.24
221.658	73.55
221.875	77.86
222.092	81.23
222.309	79.05
222.526	69.99
222.743	72.01
222.96	79.6
223.177	68.27
223.394	60.19
223.611	51.02
223.828	50.75
224.045	54.21
224.262	52.23
224.479	49.69
224.696	52.55
224.913	51.88
225.13	50.49
225.347	49.73
225.564	49.9
225.781	48.85
225.997	45.71
226.214	44.09
226.431	39.4
226.648	36.04
226.865	32.36
227.082	27.23
227.298	26.44
227.515	22.49
227.732	20.46
227.949	19.41
228.165	17.72
228.382	16.77
228.599	16.2
228.816	16.4
229.032	14.53
229.249	14.43
229.466	14.58
229.682	13.75
229.899	12.87
230.116	12.96
230.332	13.46
230.549	13.22
230.765	13.81
230.982	15.19
231.199	14.93
231.415	17.75
231.632	18.08
231.848	18.12
232.065	18.05
232.281	18.6
232.498	18.65
232.714	18.86
232.931	19.45
233.147	21.11
233.364	18.76
233.58	20.7
233.797	20.08
234.013	20.23
234.23	20.93
234.446	22.29
234.662	22.87
234.879	21.99
235.095	20.83
235.312	20.83
235.528	19.6
235.744	21.07
235.961	18.58
236.177	16.53
236.393	16.67
236.61	18.2
236.826	16.85
237.042	17.5
237.258	19.23
237.475	22
237.691	21.24
237.907	19.77
238.123	19.87
238.339	19.56
238.556	21.89
238.772	22.65
238.988	19.97
239.204	19.74
239.42	17.12
239.636	15.5
239.853	12.66
240.069	13.03
240.285	12.46
240.501	10.7
240.717	11.59
240.933	10.62
241.149	9.69
241.365	9.84
241.581	9.3
241.797	9.61
242.013	9.73
242.229	9.94
242.445	10.07
242.661	9.61
242.877	10.24
243.093	9.58
243.309	9.17
243.525	9.24
243.741	9.07
243.957	10.64
244.173	11.18
244.388	10.16
244.604	9.87
244.82	9.77
245.036	10.24
245.252	9.24
245.468	9.32
245.683	9.21
245.899	9.15
246.115	9.03
246.331	8.14
246.547	8.26
246.762	8.86
246.978	8.44
247.194	8.15
247.409	8.62
247.625	8.72
247.841	8.63
248.057	8.95
248.272	8.56
248.488	8.49
248.703	8.36
248.919	8.13
249.135	7.81
249.35	8.3
249.566	8.63
249.782	7.76
249.997	7.85
250.213	8.36
250.428	8.02
250.644	9.33
250.859	10.66
251.075	11.63
251.29	12.02
251.506	12.04
251.721	11.96
251.937	11.01
252.152	11.46
252.368	11.62
252.583	11.81
252.798	11.58
253.014	11.22
253.229	10.39
253.445	10.35
253.66	10.43
253.875	10.23
254.091	10.52
254.306	11.96
254.521	11.21
254.737	11.34
254.952	11.03
255.167	11.23
255.383	11.61
255.598	12.43
255.813	11.55
256.028	10.12
256.244	10.82
256.459	9.9
256.674	9.02
256.889	9.96
257.104	9.64
257.32	8.7
257.535	8.76
257.75	7.53
257.965	6.56
258.18	6.8
258.395	7.69
258.61	7.21
258.826	7
259.041	7.06
259.256	6.56
259.471	6.74
259.686	6.91
259.901	6.85
260.116	6.88
260.331	7
260.546	7.1
260.761	7.06
260.976	6.98
261.191	6.95
261.406	6.98
261.621	7.45
261.836	7.16
262.05	6.97
262.265	6.59
262.48	6.91
262.695	7.07
262.91	6.95
263.125	6.85
263.34	7.32
263.555	7.55
263.769	7.7
263.984	7.65
264.199	7.46
264.414	7.66
264.629	8.91
264.843	8.62
265.058	8
265.273	7.33
265.488	7.48
265.702	7.43
265.917	7.78
266.132	8.14
266.346	8.07
266.561	8.72
266.776	8.49
266.99	7.82
267.205	8.22
267.42	8.98
267.634	9.24
267.849	9.44
268.063	9.35
268.278	9.42
268.492	9.1
268.707	9.23
268.922	8.8
269.136	8.97
269.351	9.47
269.565	8.97
269.78	8.27
269.994	8.4
270.209	7.96
270.423	7.97
270.637	7.82
270.852	7.51
271.066	7.12
271.281	7.51
271.495	7.8
271.709	7.51
271.924	7.18
272.138	7.32
272.353	7.29
272.567	7.16
272.781	7.52
272.996	7.41
273.21	7.67
273.424	7.9
273.638	7.53
273.853	7.42
274.067	7.25
274.281	8.05
274.495	8.24
274.71	8.05
274.924	7.75
275.138	7.11
275.352	7.55
275.566	8.01
275.781	7.85
275.995	7.65
276.209	7.52
276.423	7.47
276.637	7.27
276.851	7.12
277.065	6.89
277.279	6.88
277.493	7.39
277.707	6.71
277.921	6.43
278.135	6.3
278.349	6.59
278.563	7.18
278.777	7.1
278.991	6.58
279.205	6.5
279.419	6.3
279.633	6.62
279.847	6.16
280.061	6.35
280.275	6.71
280.489	7.49
280.703	7.21
280.917	7.09
281.131	6.86
281.344	7.36
281.558	6.92
281.772	6.93
281.986	7.11
282.2	7.42
282.414	7.69
282.627	6.93
282.841	6.53
283.055	6.9
283.269	6.72
283.482	7.21
283.696	7.14
283.91	7.2
284.123	7.07
284.337	6.45
284.551	5.94
284.764	5.53
284.978	5.62
285.192	5.26
285.405	4.86
285.619	4.46
285.833	4.11
286.046	3.91
286.26	3.71
286.473	3.83
286.687	4.13
286.9	4.39
287.114	4.63
287.327	4.73
287.541	5.08
287.754	5.3
287.968	5.81
288.181	5.77
288.395	5.53
288.608	5.78
288.822	5.81
289.035	5.69
289.248	5.91
289.462	5.61
289.675	5.54
289.889	5.47
290.102	5.43
290.315	5.19
290.529	5.41
290.742	5.94
290.955	6.2
291.169	6.1
291.382	6.27
291.595	6.06
291.808	6.55
292.022	6.13
292.235	6.11
292.448	6.47
292.661	6.24
292.875	6.24
293.088	6.26
293.301	5.99
293.514	6.25
293.727	6.26
293.94	6.12
294.153	5.84
294.367	6.34
294.58	6.18
294.793	5.95
295.006	6.41
295.219	6.36
295.432	6.25
295.645	6.27
295.858	6.34
296.071	6.38
296.284	6.27
296.497	6.27
296.71	6.13
296.923	6.21
297.136	6.17
297.349	5.7
297.562	5.82
297.775	5.62
297.988	5.7
298.201	5.54
298.414	5.68
298.626	6.02
298.839	5.97
299.052	5.87
299.265	6.19
299.478	6.34
299.691	6.97
299.903	7.27
300.116	7.55
300.329	7.78
300.542	7.94
300.755	7.82
300.967	7.71
301.18	8.22
301.393	8.88
301.605	8.62
301.818	8.29
302.031	7.84
302.243	7.71
302.456	7.7
302.669	7.63
302.881	7.68
303.094	7.42
303.307	7.44
303.519	7.07
303.732	6.57
303.944	6.58
304.157	7
304.37	7.69
304.582	7.68
304.795	7.57
305.007	7.47
305.22	7.64
305.432	7.59
305.645	7.46
305.857	7.71
306.069	8.03
306.282	8
306.494	8.02
306.707	6.94
306.919	6.95
307.132	6.8
307.344	6.82
307.556	6.91
307.769	7.1
307.981	7.09
308.193	6.67
308.406	6.46
308.618	6.94
308.83	7.02
309.043	7.61
309.255	7.58
309.467	7.88
309.679	7.88
309.892	7.59
310.104	7.47
310.316	7.67
310.528	7.89
310.74	8.1
310.953	7.53
311.165	7.33
311.377	7.59
311.589	7.67
311.801	7.87
312.013	7.69
312.225	7.74
312.437	7.83
312.649	7.68
312.862	7.71
313.074	7.26
313.286	7.5
313.498	7.45
313.71	7.19
313.922	6.93
314.134	6.47
314.346	6.9
314.558	7.25
314.77	7.67
314.982	8.09
315.193	8
315.405	8.61
315.617	8.71
315.829	8.83
316.041	8.92
316.253	9.26
316.465	9.56
316.677	9.47
316.888	9.36
317.1	9.38
317.312	9.4
317.524	9.47
317.736	9.4
317.947	9.25
318.159	9.18
318.371	9.33
318.583	9.59
318.794	9.65
319.006	9.68
319.218	9.58
319.43	9.4
319.641	9.38
319.853	9.51
320.064	9.69
320.276	10.17
320.488	10.78
320.699	10.67
320.911	10.1
321.123	10.32
321.334	10.25
321.546	10.07
321.757	10.33
321.969	10.09
322.18	10.03
322.392	10.17
322.603	9.54
322.815	8.83
323.026	8.75
323.238	8.62
323.449	8.84
323.661	8.59
323.872	8.76
324.083	8.8
324.295	9.04
324.506	8.99
324.718	8.67
324.929	8.93
325.14	9.26
325.352	9.05
325.563	9.55
325.774	9.5
325.986	9.96
326.197	10.2
326.408	10.11
326.62	9.95
326.831	10.17
327.042	10.47
327.253	10.48
327.464	10.54
327.676	10.94
327.887	10.75
328.098	10.21
328.309	10.37
328.52	10.1
328.732	9.74
328.943	10.02
329.154	10.18
329.365	10.32
329.576	10.29
329.787	9.77
329.998	9.97
330.209	10.14
330.42	10.65
330.631	10.39
330.842	10.9
331.053	11.41
331.264	11.07
331.475	10.76
331.686	10.96
331.897	10.92
332.108	10.95
332.319	10.72
332.53	10.74
332.741	10.47
332.952	10.41
333.163	10.53
333.374	10.19
333.585	10.21
333.795	10.34
334.006	9.83
334.217	9.77
334.428	10.53
334.639	10.88
334.849	10.96
335.06	10.99
335.271	10.86
335.482	10.87
335.692	11.07
335.903	10.77
336.114	10.81
336.325	11.02
336.535	11.33
336.746	11.38
336.957	10.84
337.167	10.88
337.378	10.97
337.589	10.83
337.799	10.67
338.01	10.98
338.22	11.21
338.431	11.26
338.642	11.18
338.852	11.25
339.063	10.95
339.273	11.34
339.484	11.1
339.694	11.07
339.905	11.64
340.115	11.49
340.326	10.89
340.536	10.81
340.746	10.83
340.957	10.58
341.167	10.3
341.378	10.32
341.588	10.05
341.799	10.02
342.009	10.03
342.219	9.83
342.43	9.74
342.64	9.72
342.85	9.42
343.061	9.13
343.271	9.44
343.481	9.41
343.691	9.38
343.902	9.1
344.112	9.15
344.322	9.04
344.532	8.98
344.743	8.9
344.953	9.08
345.163	9.25
345.373	9.54
345.583	9.56
345.793	9.65
346.004	9.43
346.214	9.54
346.424	9.51
346.634	9.81
346.844	9.75
347.054	9.69
347.264	9.93
347.474	10.65
347.684	10.51
347.894	10.05
348.104	9.82
348.314	10.02
348.524	9.92
348.734	9.92
348.944	9.36
349.154	9.49
349.364	9.96
349.574	9.59
349.784	9.05
349.994	8.91
350.204	9
350.413	9.17
350.623	9.49
350.833	9.69
351.043	9.74
351.253	9.94
351.463	10.11
351.672	9.88
351.882	10.02
352.092	10.13
352.302	10.3
352.511	10.8
352.721	10.51
352.931	10.22
353.141	10.16
353.35	9.98
353.56	9.63
353.77	9.36
353.979	9.33
354.189	9.41
354.399	9.17
354.608	8.88
354.818	8.63
355.027	8.69
355.237	8.69
355.447	8.68
355.656	8.69
355.866	8.77
356.075	8.65
356.285	8.64
356.494	8.58
356.704	8.54
356.913	8.83
357.123	8.66
357.332	8.52
357.542	8.39
357.751	8.46
357.96	8.24
358.17	8.4
358.379	8.63
358.589	8.39
358.798	8.27
359.007	8.62
359.217	8.42
359.426	8.46
359.635	8.79
359.845	8.46
360.054	8.2
360.263	8.26
360.472	8.18
360.682	7.86
360.891	8.08
361.1	8.05
361.309	7.92
361.519	7.85
361.728	7.7
361.937	7.43
362.146	7.56
362.355	7.61
362.564	7.66
362.774	7.77
362.983	7.99
363.192	7.77
363.401	7.55
363.61	7.44
363.819	7.59
364.028	7.71
364.237	7.7
364.446	7.91
364.655	7.91
364.864	7.95
365.073	7.8
365.282	7.37
365.491	7.53
365.7	7.94
365.909	8.03
366.118	8.13
366.327	8.09
366.536	8.22
366.745	8.06
366.954	8.32
367.162	8.4
367.371	8.7
367.58	9.1
367.789	8.91
367.998	8.69
368.207	8.75
368.415	8.61
368.624	8.61
368.833	8.95
369.042	8.94
369.25	8.8
369.459	8.77
369.668	8.22
369.877	8.25
370.085	8.62
370.294	8.63
370.503	8.67
370.711	8.42
370.92	8.48
371.129	8.2
371.337	8.08
371.546	7.85
371.754	7.79
371.963	8.12
372.171	8.06
372.38	7.94
372.589	8
372.797	7.95
373.006	8.4
373.214	8.33
373.423	8.23
373.631	8.21
373.84	8.35
374.048	8.53
374.256	8.38
374.465	8.34
374.673	8.2
374.882	8.16
375.09	8
375.298	7.81
375.507	7.6
375.715	7.89
375.923	8.11
376.132	8.12
376.34	7.81
376.548	7.97
376.757	7.49
376.965	7.57
377.173	7.33
377.381	6.99
377.59	6.75
377.798	6.97
378.006	6.52
378.214	6.43
378.423	6.34
378.631	6.42
378.839	6.3
379.047	7.01
379.255	6.91
379.463	6.77
379.671	6.91
379.879	6.88
380.088	6.87
380.296	7.02
380.504	7.06
380.712	7.17
380.92	6.98
381.128	6.93
381.336	6.62
381.544	6.59
381.752	6.86
381.96	6.97
382.168	6.95
382.376	6.67
382.584	6.79
382.791	6.89
382.999	6.88
383.207	6.81
383.415	6.87
383.623	6.86
383.831	6.72
384.039	6.92
384.247	6.67
384.454	6.77
384.662	6.66
384.87	6.68
385.078	6.35
385.285	6.21
385.493	6.33
385.701	6.08
385.909	6.13
386.116	6.03
386.324	5.87
386.532	5.88
386.739	5.92
386.947	6.08
387.155	6.15
387.362	6.35
387.57	6.32
387.778	6.34
387.985	6.34
388.193	6.24
388.4	6.25
388.608	6.37
388.816	6.53
389.023	6.26
389.231	6.33
389.438	6.05
389.646	5.84
389.853	5.66
390.061	5.47
390.268	5.59
390.475	5.35
390.683	5.41
390.89	5.13
391.098	5.1
391.305	5.27
391.512	5.32
391.72	5.28
391.927	5.17
392.135	5.23
392.342	5.44
392.549	5.47
392.756	5.65
392.964	5.67
393.171	5.77
393.378	5.95
393.586	5.82
393.793	5.83
394	5.88
394.207	6.1
394.414	6.33
394.622	6.29
394.829	6.37
395.036	6.29
395.243	6.23
395.45	6.08
395.657	5.81
395.864	5.84
396.072	5.7
396.279	5.72
396.486	5.66
396.693	5.31
396.9	5.2
397.107	4.81
397.314	5.23
397.521	5.32
397.728	5.45
397.935	5.53
398.142	5.31
398.349	5.3
398.556	5.35
398.763	5.38
398.97	5.37
399.177	5.31
399.383	5.52
399.59	5.02
399.797	4.88
400.004	4.97
400.211	4.98
400.418	5.28
400.625	5.25
400.831	5.05
401.038	5.15
401.245	5.2
401.452	5.3
401.658	5.09
401.865	5.17
402.072	5.25
402.279	5.16
402.485	5.1
402.692	5.03
402.899	5.09
403.105	5.09
403.312	4.83
403.519	4.98
403.725	4.81
403.932	4.78
404.138	4.89
404.345	4.9
404.552	4.78
404.758	4.79
404.965	4.66
405.171	4.71
405.378	4.74
405.584	4.75
405.791	4.7
405.997	4.78
406.204	4.96
406.41	4.82
406.617	4.89
406.823	4.99
407.029	5.08
407.236	5.41
407.442	5.38
407.649	5.47
407.855	5.51
408.061	5.56
408.268	5.65
408.474	5.55
408.68	5.76
408.887	5.58
409.093	5.4
409.299	5.43
409.505	5.09
409.712	4.89
409.918	4.69
410.124	4.59
410.33	4.57
410.537	4.48
410.743	4.4
410.949	4.16
411.155	4.29
411.361	4.39
411.567	4.3
411.773	4.42
411.98	4.36
412.186	4.46
412.392	4.7
412.598	4.51
412.804	4.52
413.01	4.64
413.216	4.72
413.422	4.68
413.628	4.68
413.834	4.47
414.04	4.52
414.246	4.52
414.452	4.51
414.658	4.19
414.864	4.32
415.07	4.29
415.275	4.31
415.481	4.31
415.687	4.32
415.893	4.29
416.099	4.35
416.305	4.27
416.511	4.31
416.716	4.44
416.922	4.6
417.128	4.62
417.334	4.6
417.539	4.6
417.745	4.51
417.951	4.43
418.157	4.35
418.362	4.39
418.568	4.38
418.774	4.41
418.979	4.25
419.185	4.25
419.391	4.09
419.596	4.13
419.802	4.13
420.008	4.15
420.213	3.67
420.419	3.78
420.624	3.76
420.83	3.75
421.035	3.71
421.241	3.76
421.446	3.67
421.652	3.67
421.857	3.59
422.063	3.62
422.268	3.59
422.474	4.03
422.679	3.97
422.885	3.93
423.09	3.95
423.295	3.95
423.501	3.86
423.706	3.9
423.911	3.89
424.117	3.97
424.322	3.92
424.527	3.96
424.733	3.93
424.938	3.97
425.143	4.09
425.349	3.98
425.554	4.02
425.759	4.2
425.964	4.2
426.169	4.24
426.375	4.23
426.58	4.22
426.785	4.24
426.99	4.22
427.195	4.21
427.4	4.06
427.605	4.26
427.811	4.12
428.016	4.01
428.221	3.96
428.426	4.1
428.631	4.02
428.836	3.97
429.041	3.98
429.246	4.09
429.451	4
429.656	4.1
429.861	3.95
430.066	4.14
430.271	3.99
430.476	4.01
430.681	3.92
430.886	3.89
431.09	3.85
431.295	3.69
431.5	3.72
431.705	3.74
431.91	3.72
432.115	3.64
432.32	3.62
432.524	3.64
432.729	3.66
432.934	3.66
433.139	3.77
433.343	3.81
433.548	3.77
433.753	3.78
433.958	3.86
434.162	3.82
434.367	3.96
434.572	3.72
434.776	3.81
434.981	3.88
435.186	3.98
435.39	3.99
435.595	4.03
435.799	4.18
436.004	4.19
436.209	4.13
436.413	4.15
436.618	4.09
436.822	4.31
437.027	4.37
437.231	4.34
437.436	4.14
437.64	4.16
437.845	4.05
438.049	3.94
438.253	3.89
438.458	3.87
438.662	3.85
438.867	3.94
439.071	3.95
439.275	3.93
439.48	3.85
439.684	3.95
439.888	3.9
440.093	3.96
440.297	4
440.501	3.99
440.706	4.04
440.91	4.12
441.114	3.99
441.318	3.92
441.523	3.79
441.727	3.81
441.931	3.75
442.135	3.8
442.339	3.79
442.543	3.87
442.748	3.86
442.952	3.82
443.156	3.79
443.36	3.9
443.564	3.91
443.768	3.98
443.972	3.97
444.176	3.98
444.38	3.86
444.584	3.83
444.788	3.79
444.992	3.77
445.196	3.78
445.4	3.66
445.604	3.57
445.808	3.63
446.012	3.62
446.216	3.63
446.42	3.62
446.624	3.75
446.828	3.82
447.032	3.76
447.235	3.7
447.439	3.71
447.643	3.69
447.847	3.8
448.051	3.82
448.254	3.82
448.458	3.76
448.662	3.75
448.866	3.58
449.069	3.54
449.273	3.5
449.477	3.6
449.681	3.52
449.884	3.69
450.088	3.61
450.292	3.49
450.495	3.54
450.699	3.61
450.902	3.73
451.106	3.85
451.31	3.83
451.513	3.9
451.717	3.9
451.92	3.95
452.124	3.92
452.327	3.9
452.531	4.01
452.734	3.94
452.938	4
453.141	3.97
453.345	3.99
453.548	4.06
453.752	4.11
453.955	4.07
454.158	4
454.362	4.03
454.565	4.02
454.769	4.09
454.972	4.15
455.175	4.04
455.379	3.99
455.582	4.05
455.785	3.97
455.988	4
456.192	4.05
456.395	4.07
456.598	4.02
456.801	4.12
457.005	4.06
457.208	4.11
457.411	4.14
457.614	4.11
457.817	3.92
458.021	3.88
458.224	3.83
458.427	3.8
458.63	3.82
458.833	3.77
459.036	3.72
459.239	3.67
459.442	3.64
459.645	3.7
459.848	3.71
460.051	3.74
460.254	3.81
460.457	3.8
460.66	3.77
460.863	3.83
461.066	3.78
461.269	3.74
461.472	3.77
461.675	3.83
461.878	3.67
462.081	3.66
462.284	3.64
462.486	3.44
462.689	3.37
462.892	3.49
463.095	3.41
463.298	3.64
463.5	3.66
463.703	3.6
463.906	3.49
464.109	3.56
464.311	3.61
464.514	3.68
464.717	3.93
464.92	3.96
465.122	4.01
465.325	3.94
465.528	3.79
465.73	3.82
465.933	3.74
466.135	3.86
466.338	3.88
466.541	3.89
466.743	3.89
466.946	3.78
467.148	3.78
467.351	3.67
467.553	3.65
467.756	3.64
467.958	3.6
468.161	3.77
468.363	3.64
468.566	3.72
468.768	3.52
468.971	3.53
469.173	3.51
469.375	3.53
469.578	3.61
469.78	3.71
469.983	3.7
470.185	3.76
470.387	3.78
470.59	3.89
470.792	3.82
470.994	3.93
471.196	3.91
471.399	3.95
471.601	3.88
471.803	3.76
472.005	3.73
472.208	3.73
472.41	3.72
472.612	3.68
472.814	3.62
473.016	3.68
473.218	3.72
473.421	3.65
473.623	3.79
473.825	3.91
474.027	4.03
474.229	4.09
474.431	4.12
474.633	4.13
474.835	4.03
475.037	4.07
475.239	4.05
475.441	4.14
475.643	4.16
475.845	4.14
476.047	4.12
476.249	3.99
476.451	3.92
476.653	3.84
476.855	3.76
477.057	3.85
477.258	3.69
477.46	3.72
477.662	3.64
477.864	3.64
478.066	3.59
478.268	3.58
478.469	3.62
478.671	3.68
478.873	3.81
479.075	3.8
479.276	3.7
479.478	3.86
479.68	3.8
479.882	3.72
480.083	3.8
480.285	3.74
480.487	3.78
480.688	3.77
480.89	3.72
481.091	3.6
481.293	3.65
481.495	3.68
481.696	3.62
481.898	3.59
482.099	3.62
482.301	3.54
482.502	3.48
482.704	3.4
482.905	3.37
483.107	3.32
483.308	3.3
483.51	3.28
483.711	3.25
483.913	3.21
484.114	3.22
484.315	3.22
484.517	3.21
484.718	3.21
484.92	3.21
485.121	3.22
485.322	3.26
485.524	3.26
485.725	3.29
485.926	3.28
486.127	3.3
486.329	3.26
486.53	3.21
486.731	3.2
486.932	3.26
487.134	3.23
487.335	3.22
487.536	3.24
487.737	3.25
487.938	3.22
488.139	3.23
488.341	3.23
488.542	3.28
488.743	3.33
488.944	3.38
489.145	3.35
489.346	3.38
489.547	3.36
489.748	3.3
489.949	3.34
490.15	3.38
490.351	3.41
490.552	3.36
490.753	3.31
490.954	3.28
491.155	3.25
491.356	3.26
491.557	3.27
491.758	3.31
491.959	3.35
492.159	3.39
492.36	3.34
492.561	3.35
492.762	3.37
492.963	3.41
493.164	3.45
493.364	3.46
493.565	3.46
493.766	3.55
493.967	3.52
494.167	3.61
494.368	3.59
494.569	3.64
494.769	3.7
494.97	3.8
495.171	3.79
495.371	3.73
495.572	3.79
495.773	3.75
495.973	3.69
496.174	3.73
496.375	3.68
496.575	3.66
496.776	3.68
496.976	3.64
497.177	3.62
497.377	3.68
497.578	3.73
497.778	3.67
497.979	3.84
498.179	3.86
498.38	3.88
498.58	3.89
498.78	3.88
498.981	3.91
499.181	3.95
499.382	4.04
499.582	4.02
499.782	4.04
499.983	4.13
500.183	4
500.383	4
500.584	4.06
500.784	4.06
500.984	4.09
501.184	4.06
501.385	4.12
501.585	4.07
501.785	4.08
501.985	4.1
502.185	4.05
502.386	4.06
502.586	4.04
502.786	3.92
502.986	3.91
503.186	3.87
503.386	3.94
503.586	3.86
503.786	3.81
503.987	3.82
504.187	3.75
504.387	3.78
504.587	3.87
504.787	3.92
504.987	4.05
505.187	4.09
505.387	4.25
505.587	4.18
505.786	4.2
505.986	4.26
506.186	4.36
506.386	4.4
506.586	4.41
506.786	4.37
506.986	4.29
507.186	4.34
507.386	4.31
507.585	4.25
507.785	4.22
507.985	4.23
508.185	4.25
508.384	4.19
508.584	4.14
508.784	4.13
508.984	4.15
509.183	4.32
509.383	4.22
509.583	4.22
509.782	4.27
509.982	4.4
510.182	4.4
510.381	4.36
510.581	4.41
510.781	4.55
510.98	4.59
511.18	4.63
511.379	4.54
511.579	4.51
511.778	4.51
511.978	4.42
512.177	4.37
512.377	4.35
512.576	4.44
512.776	4.43
512.975	4.42
513.175	4.45
513.374	4.43
513.573	4.45
513.773	4.64
513.972	4.74
514.172	4.85
514.371	4.96
514.57	4.98
514.77	4.87
514.969	4.96
515.168	4.91
515.367	4.92
515.567	4.96
515.766	4.98
515.965	4.98
516.164	4.91
516.364	4.87
516.563	4.79
516.762	4.84
516.961	4.9
517.16	4.87
517.359	4.94
517.559	5.01
517.758	5.06
517.957	5.1
518.156	5.08
518.355	5.13
518.554	5.16
518.753	5.22
518.952	5.18
519.151	5.21
519.35	5.34
519.549	5.37
519.748	5.3
519.947	5.31
520.146	5.32
520.345	5.35
520.544	5.33
520.743	5.35
520.942	5.37
521.141	5.51
521.339	5.55
521.538	5.45
521.737	5.4
521.936	5.47
522.135	5.53
522.333	5.55
522.532	5.63
522.731	5.66
522.93	5.71
523.129	5.78
523.327	5.77
523.526	5.84
523.725	5.84
523.923	5.93
524.122	5.96
524.321	5.92
524.519	5.98
524.718	5.95
524.917	6.01
525.115	6.05
525.314	6.03
525.512	6.01
525.711	6.04
525.909	6.14
526.108	6.1
526.306	6.12
526.505	6.16
526.703	6.14
526.902	6.18
527.1	6.15
527.299	6.14
527.497	6.16
527.696	6.18
527.894	6.16
528.092	6.14
528.291	6.2
528.489	6.18
528.688	6.18
528.886	6.17
529.084	6.17
529.283	6.18
529.481	6.22
529.679	6.24
529.877	6.26
530.076	6.3
530.274	6.33
530.472	6.34
530.67	6.42
530.869	6.46
531.067	6.53
531.265	6.57
531.463	6.69
531.661	6.66
531.859	6.71
532.057	6.8
532.255	6.82
532.454	6.84
532.652	6.87
532.85	6.88
533.048	6.91
533.246	6.91
533.444	6.96
533.642	6.94
533.84	7.03
534.038	7.07
534.236	7.07
534.434	7.06
534.632	7.17
534.83	7.19
535.027	7.23
535.225	7.31
535.423	7.39
535.621	7.4
535.819	7.53
536.017	7.56
536.215	7.59
536.412	7.64
536.61	7.77
536.808	7.72
537.006	7.74
537.203	7.81
537.401	7.75
537.599	7.76
537.797	7.82
537.994	7.76
538.192	7.68
538.39	7.7
538.587	7.81
538.785	7.83
538.983	7.9
539.18	7.97
539.378	7.98
539.575	8.1
539.773	8.13
539.97	8.14
540.168	8.22
540.366	8.35
540.563	8.38
540.761	8.36
540.958	8.35
541.155	8.34
541.353	8.35
541.55	8.34
541.748	8.36
541.945	8.4
542.143	8.41
542.34	8.44
542.537	8.45
542.735	8.45
542.932	8.52
543.129	8.54
543.327	8.67
543.524	8.72
543.721	8.84
543.919	8.94
544.116	9.06
544.313	9.27
544.51	9.33
544.708	9.38
544.905	9.46
545.102	9.53
545.299	9.64
545.496	9.69
545.693	9.8
545.891	9.89
546.088	9.91
546.285	9.9
546.482	9.85
546.679	9.87
546.876	10.07
547.073	10.17
547.27	10.12
547.467	10.24
547.664	10.25
547.861	10.29
548.058	10.28
548.255	10.34
548.452	10.34
548.649	10.4
548.846	10.6
549.043	10.38
549.24	10.37
549.437	10.53
549.633	10.41
549.83	10.51
550.027	10.47
550.224	10.62
550.421	10.52
550.618	10.65
550.814	10.52
551.011	10.48
551.208	10.71
551.405	10.8
551.601	10.76
551.798	10.88
551.995	10.87
552.191	10.96
552.388	10.91
552.585	11.01
552.781	11.04
552.978	11.16
553.175	11.17
553.371	11.16
553.568	11.2
553.764	11.19
553.961	11.23
554.157	11.33
554.354	11.41
554.55	11.52
554.747	11.51
554.943	11.53
555.14	11.6
555.336	11.46
555.533	11.55
555.729	11.54
555.926	11.71
556.122	11.63
556.318	11.68
556.515	11.79
556.711	11.81
556.907	11.88
557.104	11.9
557.3	11.92
557.496	12.18
557.693	12.1
557.889	12.17
558.085	12.07
558.281	12.29
558.478	12.21
558.674	12.18
558.87	12.31
559.066	12.53
559.262	12.63
559.459	12.76
559.655	12.74
559.851	12.73
560.047	12.71
560.243	12.88
560.439	12.86
560.635	12.84
560.831	12.85
561.027	12.78
561.223	12.66
561.419	12.66
561.615	12.68
561.811	12.55
562.007	12.59
562.203	12.66
562.399	12.43
562.595	12.36
562.791	12.62
562.987	12.61
563.183	12.7
563.379	12.69
563.575	12.78
563.771	12.84
563.966	13.12
564.162	13.27
564.358	13.44
564.554	13.64
564.75	13.73
564.945	13.7
565.141	13.74
565.337	13.64
565.533	13.68
565.728	13.71
565.924	13.69
566.12	13.57
566.315	13.58
566.511	13.51
566.707	13.57
566.902	13.54
567.098	13.51
567.293	13.53
567.489	13.65
567.684	13.65
567.88	13.55
568.076	13.64
568.271	13.78
568.467	13.75
568.662	13.86
568.858	13.85
569.053	13.97
569.248	14.04
569.444	14.1
569.639	14.17
569.835	14.29
570.03	14.3
570.225	14.28
570.421	14.23
570.616	14.27
570.812	14.34
571.007	14.44
571.202	14.46
571.397	14.62
571.593	14.63
571.788	14.67
571.983	14.56
572.178	14.81
572.374	14.8
572.569	14.84
572.764	14.87
572.959	14.8
573.154	14.84
573.35	14.87
573.545	14.76
573.74	14.77
573.935	14.72
574.13	14.83
574.325	14.64
574.52	14.78
574.715	14.78
574.91	14.87
575.105	14.86
575.3	14.86
575.495	14.84
575.69	14.99
575.885	15.09
576.08	15.23
576.275	15.32
576.47	15.53
576.665	15.43
576.86	15.6
577.055	15.67
577.25	15.78
577.444	15.95
577.639	16.13
577.834	16.17
578.029	16.17
578.224	16.16
578.418	16.22
578.613	16.23
578.808	16.38
579.003	16.34
579.197	16.2
579.392	16.33
579.587	16.26
579.781	16.29
579.976	16.41
580.171	16.41
580.365	16.27
580.56	16.23
580.755	16.31
580.949	16.36
581.144	16.43
581.338	16.64
581.533	16.61
581.727	16.66
581.922	16.78
582.116	16.58
582.311	16.56
582.505	16.82
582.7	16.88
582.894	16.87
583.089	16.92
583.283	17
583.478	16.96
583.672	16.79
583.866	16.7
584.061	16.58
584.255	16.68
584.449	16.73
584.644	16.71
584.838	16.82
585.032	16.93
585.226	16.99
585.421	17.01
585.615	17.13
585.809	17.3
586.003	17.31
586.198	17.35
586.392	17.46
586.586	17.68
586.78	17.64
586.974	17.67
587.168	17.56
587.363	17.47
587.557	17.37
587.751	17.3
587.945	17.29
588.139	17.37
588.333	17.34
588.527	17.27
588.721	17.18
588.915	17.24
589.109	17.09
589.303	17.09
589.497	17.08
589.691	17.12
589.885	17.11
590.079	17.18
590.273	17.13
590.466	17.12
590.66	17.02
590.854	16.9
591.048	16.94
591.242	17.04
591.436	17.2
591.629	17.16
591.823	17.2
592.017	17.17
592.211	17.09
592.404	17.28
592.598	17.23
592.792	17.23
592.986	17.35
593.179	17.18
593.373	17.22
593.567	17.11
593.76	17.06
593.954	17.05
594.147	17.06
594.341	17
594.535	16.98
594.728	17.07
594.922	17.16
595.115	17.04
595.309	17.11
595.502	17.05
595.696	16.9
595.889	16.93
596.083	17.02
596.276	17.09
596.47	17.14
596.663	17.03
596.856	17.02
597.05	16.99
597.243	17.22
597.437	17.24
597.63	17.19
597.823	17.25
598.017	17.44
598.21	17.4
598.403	17.33
598.596	17.42
598.79	17.51
598.983	17.66
599.176	17.7
599.369	17.59
599.563	17.53
599.756	17.67
599.949	17.82
600.142	17.79
600.335	17.8
600.528	17.84
600.722	17.74
600.915	17.85
601.108	17.72
601.301	17.85
601.494	17.75
601.687	17.86
601.88	17.81
602.073	17.89
602.266	17.75
602.459	17.69
602.652	17.66
602.845	17.75
603.038	17.71
603.231	17.75
603.424	17.64
603.617	17.74
603.809	17.62
604.002	17.6
604.195	17.49
604.388	17.5
604.581	17.53
604.774	17.71
604.966	17.63
605.159	17.53
605.352	17.45
605.545	17.47
605.737	17.48
605.93	17.62
606.123	17.66
606.316	17.59
606.508	17.71
606.701	17.75
606.894	17.69
607.086	17.73
607.279	17.83
607.471	17.94
607.664	17.97
607.857	18.04
608.049	18.23
608.242	18.42
608.434	18.75
608.627	19.06
608.819	19.39
609.012	19.75
609.204	20.24
609.397	20.72
609.589	21.25
609.782	21.91
609.974	22.28
610.166	22.77
610.359	23.3
610.551	23.88
610.743	24.23
610.936	24.59
611.128	24.83
611.32	25.03
611.513	25.05
611.705	25.08
611.897	24.81
612.09	24.73
612.282	24.51
612.474	24.16
612.666	23.83
612.858	23.42
613.051	22.98
613.243	22.73
613.435	22.37
613.627	22.06
613.819	21.93
614.011	21.87
614.203	21.82
614.395	21.73
614.588	21.65
614.78	21.35
614.972	21.28
615.164	21.33
615.356	21
615.548	20.8
615.74	20.79
615.932	20.26
616.124	19.92
616.315	19.83
616.507	19.66
616.699	19.46
616.891	19.31
617.083	19.03
617.275	18.77
617.467	18.84
617.659	18.78
617.85	18.74
618.042	19.06
618.234	19.18
618.426	19.07
618.618	18.9
618.809	19.01
619.001	18.98
619.193	19.05
619.384	19.22
619.576	19.28
619.768	19.33
619.959	19.15
620.151	19.02
620.343	18.81
620.534	18.86
620.726	18.94
620.917	19.04
621.109	19.3
621.301	19.41
621.492	19.38
621.684	19.55
621.875	19.67
622.067	19.98
622.258	20.06
622.45	20.12
622.641	20.15
622.832	20.08
623.024	19.98
623.215	19.94
623.407	19.72
623.598	19.74
623.789	19.73
623.981	19.69
624.172	19.52
624.363	19.47
624.555	19.64
624.746	19.65
624.937	19.57
625.129	19.37
625.32	19.18
625.511	19.45
625.702	19.38
625.893	19.07
626.085	18.88
626.276	18.85
626.467	18.78
626.658	18.79
626.849	18.64
627.04	18.68
627.231	18.62
627.422	18.68
627.614	18.71
627.805	18.77
627.996	18.82
628.187	18.8
628.378	19.02
628.569	19.14
628.76	19
628.951	19.05
629.142	19.14
629.332	19.38
629.523	19.46
629.714	19.46
629.905	19.49
630.096	19.73
630.287	20.04
630.478	19.86
630.669	19.67
630.859	19.65
631.05	19.89
631.241	19.78
631.432	19.9
631.623	19.87
631.813	19.89
632.004	19.67
632.195	19.27
632.385	19.05
632.576	19.07
632.767	19.12
632.957	19.23
633.148	19.06
633.339	19
633.529	18.84
633.72	18.95
633.91	18.76
634.101	18.8
634.292	18.89
634.482	18.85
634.673	18.86
634.863	18.9
635.054	18.85
635.244	18.68
635.435	18.46
635.625	18.49
635.815	18.16
636.006	18.21
636.196	18.34
636.387	18.41
636.577	18.54
636.767	18.36
636.958	18.25
637.148	18.31
637.338	18.57
637.529	18.91
637.719	18.77
637.909	18.83
638.099	18.86
638.29	18.84
638.48	18.94
638.67	18.9
638.86	19.02
639.05	18.99
639.241	18.98
639.431	19.06
639.621	19.14
639.811	19.14
640.001	19.36
640.191	19.44
640.381	19.43
640.571	19.29
640.761	19.19
640.951	19.21
641.141	19.21
641.331	19.24
641.521	19.04
641.711	18.91
641.901	19.21
642.091	18.95
642.281	18.64
642.471	18.59
642.661	18.71
642.851	18.68
643.041	18.94
643.231	19.15
643.42	19.09
643.61	18.92
643.8	18.83
643.99	18.68
644.18	18.53
644.369	18.84
644.559	18.81
644.749	18.71
644.939	18.89
645.128	18.57
645.318	18.39
645.508	18.45
645.697	18.68
645.887	18.83
646.076	18.89
646.266	19.05
646.456	19.01
646.645	18.97
646.835	18.93
647.024	18.75
647.214	18.97
647.403	19.33
647.593	19.25
647.782	19.2
647.972	19.09
648.161	19.1
648.351	19.33
648.54	19.29
648.73	19.35
648.919	19.62
649.108	19.73
649.298	19.66
649.487	19.39
649.677	19.36
649.866	19.48
650.055	19.49
650.244	19.58
650.434	19.35
650.623	19.41
650.812	19.6
651.002	19.39
651.191	19.4
651.38	19.36
651.569	19.49
651.758	19.44
651.947	19.38
652.137	19.51
652.326	19.16
652.515	19.43
652.704	19.4
652.893	19.45
653.082	19.76
653.271	19.94
653.46	20.09
653.649	19.83
653.838	19.99
654.027	19.86
654.216	19.76
654.405	19.9
654.594	19.77
654.783	19.72
654.972	19.44
655.161	19.24
655.35	19.03
655.539	18.81
655.728	18.84
655.916	18.99
656.105	19.01
656.294	19.07
656.483	18.95
656.672	19.03
656.86	18.76
657.049	18.81
657.238	18.72
657.427	18.92
657.615	18.89
657.804	19.02
657.993	18.77
658.181	18.84
658.37	18.83
658.559	18.99
658.747	18.96
658.936	19.15
659.125	19.45
659.313	19.45
659.502	19.17
659.69	19.31
659.879	19.16
660.067	19.29
660.256	19.15
660.444	19.13
660.633	19.14
660.821	19.27
661.01	19.16
661.198	18.77
661.387	18.79
661.575	18.79
661.763	18.58
661.952	18.81
662.14	18.92
662.328	19.03
662.517	19.16
662.705	19.26
662.893	19.17
663.082	19.18
663.27	19.27
663.458	19.31
663.646	19.49
663.834	19.64
664.023	19.69
664.211	19.52
664.399	19.31
664.587	19.13
664.775	18.97
664.963	18.83
665.152	19.14
665.34	19.12
665.528	19.29
665.716	19.51
665.904	19.54
666.092	19.47
666.28	19.67
666.468	20.02
666.656	20.3
666.844	20.13
667.032	20.28
667.22	19.89
667.408	19.92
667.596	19.89
667.784	19.72
667.971	20.1
668.159	20.23
668.347	19.94
668.535	19.81
668.723	19.84
668.911	20.11
669.098	20.23
669.286	20.45
669.474	20.39
669.662	20.33
669.849	20.35
670.037	20.08
670.225	19.85
670.413	19.99
670.6	20.16
670.788	19.93
670.976	19.91
671.163	19.75
671.351	19.84
671.538	19.99
671.726	20.26
671.913	20.26
672.101	20.18
672.289	20.48
672.476	20.43
672.664	20.52
672.851	20.37
673.039	20.32
673.226	20.45
673.413	20.58
673.601	20.74
673.788	20.7
673.976	20.59
674.163	20.54
674.35	20.47
674.538	20.42
674.725	20.13
674.912	20.52
675.1	20.48
675.287	20.54
675.474	20.32
675.662	20.32
675.849	19.72
676.036	20.1
676.223	20.12
676.411	20.1
676.598	20.17
676.785	20.33
676.972	20.26
677.159	20.1
677.346	19.8
677.533	19.94
677.721	19.55
677.908	20.02
678.095	19.86
678.282	19.86
678.469	19.78
678.656	19.76
678.843	19.96
679.03	19.78
679.217	20.13
679.404	20.35
679.591	20.24
679.778	20.69
679.964	20.45
680.151	20.15
680.338	20.1
680.525	20.17
680.712	20.08
680.899	19.94
681.086	20.16
681.272	19.96
681.459	20.1
681.646	19.88
681.833	19.69
682.02	19.98
682.206	20.28
682.393	20.43
682.58	20.4
682.766	20.89
682.953	20.85
683.14	20.65
683.326	20.86
683.513	20.38
683.7	20.57
683.886	20.38
684.073	20.44
684.259	20.34
684.446	20.37
684.632	20.35
684.819	19.91
685.005	19.79
685.192	19.88
685.378	19.93
685.565	20.27
685.751	20.45
685.938	20.45
686.124	20.1
686.31	20.29
686.497	20.23
686.683	20.22
686.87	20.08
687.056	20.01
687.242	20.36
687.429	20.38
687.615	20.41
687.801	20.27
687.987	20.53
688.174	20.68
688.36	20.66
688.546	20.49
688.732	20.69
688.918	21.07
689.105	21.11
689.291	20.86
689.477	20.86
689.663	20.9
689.849	20.8
690.035	20.54
690.221	20.75
690.407	20.5
690.593	20.64
690.779	20.54
690.965	20.62
691.151	20.69
691.337	21.05
691.523	21.09
691.709	21.08
691.895	21.45
692.081	21.64
692.267	21.42
692.453	21.57
692.639	21.63
692.825	21.67
693.011	21.04
693.196	21.21
693.382	20.37
693.568	19.97
693.754	20.17
693.94	20.31
694.125	20.4
694.311	20.33
694.497	20.42
694.682	20.4
694.868	20.66
695.054	20.9
695.239	20.97
695.425	21.08
695.611	21.11
695.796	20.92
695.982	20.58
696.168	20.14
696.353	20.04
696.539	19.82
696.724	20.09
696.91	19.87
697.095	20.17
697.281	20.23
697.466	20.38
697.652	20.31
697.837	20.42
698.023	20.32
698.208	20.32
698.393	20.28
698.579	20.43
698.764	20.25
698.949	20.26
699.135	20.17
699.32	19.9
699.505	19.85
699.691	19.85
699.876	19.66
700.061	19.75
700.246	20.04
700.432	20.01
700.617	19.89
700.802	20.05
700.987	20.16
701.172	20.13
701.358	20.54
701.543	21.07
701.728	21.19
701.913	21.14
702.098	21.06
702.283	21.17
702.468	21.58
702.653	21.74
702.838	21.66
703.023	21.31
703.208	21.13
703.393	20.91
703.578	20.53
703.763	20.32
703.948	20.98
704.133	21.29
704.318	21.18
704.503	21.22
704.688	21.28
704.873	21.18
705.057	21.42
705.242	22.04
705.427	22.5
705.612	22.79
705.797	23.57
705.981	23.2
706.166	23.44
706.351	23.93
706.536	23.81
706.72	23.9
706.905	24.46
707.09	24.49
707.274	24.14
707.459	23.81
707.644	23.96
707.828	23.89
708.013	24.08
708.197	23.77
708.382	23.43
708.567	23.47
708.751	23.75
708.936	23.26
709.12	23.58
709.305	23.7
709.489	23.67
709.673	23.16
709.858	23.01
710.042	22.73
710.227	23.16
710.411	23.17
710.596	23.43
710.78	23.14
710.964	22.82
711.149	22.57
711.333	22.46
711.517	22.43
711.702	22.47
711.886	22.63
712.07	22.64
712.254	22.42
712.438	22.51
712.623	22.15
712.807	22.28
712.991	22.68
713.175	22.64
713.359	22.67
713.544	22.66
713.728	22.32
713.912	22.25
714.096	22.11
714.28	21.89
714.464	21.72
714.648	21.44
714.832	20.88
715.016	20.92
715.2	20.78
715.384	20.85
715.568	21.38
715.752	21.68
715.936	21.42
716.12	21.43
716.304	21.75
716.488	22
716.671	22.67
716.855	23.11
717.039	22.71
717.223	22.43
717.407	21.68
717.59	21.32
717.774	20.82
717.958	20.85
718.142	20.9
718.325	20.56
718.509	19.86
718.693	19.51
718.877	19.4
719.06	20.06
719.244	20.36
719.428	21.18
719.611	20.57
719.795	21.09
719.978	20.99
720.162	21.05
720.345	21.22
720.529	21.22
720.713	21.49
720.896	21.58
721.08	21.24
721.263	21.51
721.446	21.51
721.63	21.88
721.813	22.11
721.997	22.52
722.18	22.29
722.364	22.24
722.547	22.57
722.73	22.64
722.914	22.56
723.097	22.75
723.28	22.97
723.464	23.02
723.647	22.88
723.83	23
724.013	22.84
724.197	23.05
724.38	23.2
724.563	23.39
724.746	22.99
724.929	22.84
725.112	23.1
725.296	22.51
725.479	22.21
725.662	22.04
725.845	21.81
726.028	21.64
726.211	21.72
726.394	21.67
726.577	21.94
726.76	21.97
726.943	22.27
727.126	22.27
727.309	22.74
727.492	23.11
727.675	23.15
727.858	23.09
728.041	23.19
728.224	23.34
728.407	23.06
728.589	22.91
728.772	22.4
728.955	22.3
729.138	21.75
729.321	21.48
729.503	21.33
729.686	21.5
729.869	21.19
730.052	21.31
730.234	20.65
730.417	20.95
730.6	20.56
730.782	20.73
730.965	20.7
731.148	20.71
731.33	21.15
731.513	21.02
731.695	21.08
731.878	21.3
732.061	20.73
732.243	21.23
732.426	20.95
732.608	21.2
732.791	21.46
732.973	21.94
733.156	22.01
733.338	21.85
733.52	21.87
733.703	21.85
733.885	21.65
734.068	22.35
734.25	22.76
734.432	22.82
734.615	23.31
734.797	23.85
734.979	23.68
735.162	24.03
735.344	23.31
735.526	23.64
735.708	24.14
735.891	24.33
736.073	24.13
736.255	23.73
736.437	23.71
736.619	23.62
736.802	22.99
736.984	22.15
737.166	21.69
737.348	21.99
737.53	22.04
737.712	22.05
737.894	22.4
738.076	22.2
738.258	21.66
738.44	21.81
738.622	21.32
738.804	21.69
738.986	22.06
739.168	22.14
739.35	22.2
739.532	21.93
739.714	21.98
739.896	22.1
740.078	22.44
740.259	22.53
740.441	22.56
740.623	22.33
740.805	22.47
740.987	22.69
741.168	23.12
741.35	23.63
741.532	23.56
741.714	22.77
741.895	22.75
742.077	22.63
742.259	23.31
742.44	23.38
742.622	23.26
742.804	23.46
742.985	23.61
743.167	24.12
743.348	24.05
743.53	24.58
743.711	24.96
743.893	24.97
744.075	24.81
744.256	24.82
744.438	24.91
744.619	25.64
744.8	25.24
744.982	24.93
745.163	24.09
745.345	23.61
745.526	22.95
745.707	23.4
745.889	23.42
746.07	24.08
746.252	23.43
746.433	23.5
746.614	23.48
746.795	23.29
746.977	24.21
747.158	24.52
747.339	24.59
747.52	25.06
747.702	24.15
747.883	23.94
748.064	23.04
748.245	23.32
748.426	23.35
748.607	23.27
748.788	24.1
748.97	23.19
749.151	22.73
749.332	22.49
749.513	22.28
749.694	23.16
749.875	23.99
750.056	24.41
750.237	24.34
750.418	24.64
750.599	24.1
750.78	24.18
750.96	24.55
751.141	24.56
751.322	25.12
751.503	24.78
751.684	24.93
751.865	23.71
752.046	23.82
752.226	23.3
752.407	23.37
752.588	23.89
752.769	23.54
752.949	24.01
753.13	24.67
753.311	25.5
753.492	25.66
753.672	25.6
753.853	26.29
754.034	26.29
754.214	26.34
754.395	25.94
754.575	25.65
754.756	24.93
754.937	24.39
755.117	23.78
755.298	22.85
755.478	23.81
755.659	23.34
755.839	22.24
756.02	22.28
756.2	23.89
756.381	23.22
756.561	23.24
756.741	24.43
756.922	24.78
757.102	24.98
757.283	24.87
757.463	24.04
757.643	24.08
757.823	24.77
758.004	24.77
758.184	23.3
758.364	23.69
758.545	24.24
758.725	23.49
758.905	23.62
759.085	23.55
759.265	23.54
759.446	23.78
759.626	23.26
759.806	23.22
759.986	22.72
760.166	23.11
760.346	23.35
760.526	22.8
760.706	22.9
760.886	22.43
761.066	22.5
761.246	22.52
761.426	22.14
761.606	22.52
761.786	22.43
761.966	22.7
762.146	23.01
762.326	22.98
762.506	22.97
762.686	22.1
762.866	21.99
763.046	21.83
763.225	21.46
763.405	21.79
763.585	21.53
763.765	21.66
763.945	21.44
764.124	21.28
764.304	20.84
764.484	20.93
764.664	21.66
764.843	21.88
765.023	22.25
765.203	22.43
765.382	22.54
765.562	22.69
765.741	22.1
765.921	22.34
766.101	22.52
766.28	22.43
766.46	23.17
766.639	22.98
766.819	22.64
766.998	23.1
767.178	23.43
767.357	23.1
767.537	23.51
767.716	24.06
767.896	24.09
768.075	24.46
768.254	24.96
768.434	23.52
768.613	24.03
768.792	24.37
768.972	23.72
769.151	24.42
769.33	24.61
769.51	23.97
769.689	24.54
769.868	24.79
770.047	24.42
770.226	24.99
770.406	25.74
770.585	25.36
770.764	26.05
770.943	25.98
771.122	25.36
771.301	25.76
771.48	27.32
771.66	27.7
771.839	27.32
772.018	26.91
772.197	26.56
772.376	26.53
772.555	26.49
772.734	26.94
772.913	27.56
773.092	27.93
773.271	27.26
773.449	26.39
773.628	25.68
773.807	25.79
773.986	26.18
774.165	26.41
774.344	27.01
774.523	27.49
774.701	26.43
774.88	26.44
775.059	25.81
775.238	26.35
775.417	26
775.595	26.41
775.774	26.86
775.953	26.77
776.131	26.32
776.31	25.72
776.489	24.9
776.667	24.78
776.846	25.24
777.025	25.88
777.203	25.28
777.382	26.16
777.56	26.26
777.739	25.97
777.917	24.93
778.096	26.42
778.274	27.46
778.453	28.04
778.631	28.46
778.81	27.42
778.988	27.27
779.166	28.18
779.345	28.06
779.523	28.23
779.702	28.32
779.88	29.68
780.058	28.14
780.237	28.51
780.415	28.75
780.593	28.26
780.771	29.44
780.95	30.35
781.128	30.35
781.306	30.01
781.484	29.83
781.662	29.49
781.841	29.06
782.019	28.91
782.197	27.23
782.375	27.23
782.553	27.16
782.731	26.61
782.909	26.83
783.087	25.14
783.265	25.16
783.443	25.95
783.621	26.31
783.799	27.51
783.977	28.47
784.155	29.52
784.333	29.27
784.511	28.28
784.689	28.7
784.867	27.91
785.045	28.31
785.223	28.94
785.4	28.01
785.578	28.74
785.756	27.66
785.934	28.91
786.112	27.52
786.289	28.81
786.467	29.77
786.645	30.8
786.823	31.67
787	32.25
787.178	31.57
787.356	30.43
787.533	29.92
787.711	28.82
787.889	27.31
788.066	28.16
788.244	27.94
788.421	28.31
788.599	25.34
788.776	23.3
788.954	22.94
789.131	22.78
789.309	22.73
789.486	23.43
789.664	24.74
789.841	24.83
790.019	24.65
790.196	23.98
790.373	23.5
790.551	23.78
790.728	24.94
790.906	25.09
791.083	27.09
791.26	28.07
791.437	27.36
791.615	28.05
791.792	27.67
791.969	26.65
792.146	25.96
792.324	26.79
792.501	27.93
792.678	27.86
792.855	28.01
793.032	25.49
793.209	25.87
793.387	26.23
793.564	24.92
793.741	25.34
793.918	27.08
794.095	27.22
794.272	27.21
794.449	27.4
794.626	27.6
794.803	28.37
794.98	28.34
795.157	28.3
795.334	27.17
795.511	26.57
795.688	27.51
795.864	26.38
796.041	26.07
796.218	26.32
796.395	26.23
796.572	24.64
796.749	24.11
796.925	24.82
797.102	25.38
797.279	24.9
797.456	26.82
797.632	26.4
797.809	26.86
797.986	26.15
798.162	26.01
798.339	25.41
798.516	26.13
798.692	26.74
798.869	27.23
799.046	26.44
799.222	28.03
799.399	26.01
799.575	26.44
799.752	26.26
799.928	27.21
800.105	25.26
800.281	26.5
800.458	27.39
800.634	27.76
800.811	28.22
800.987	27.22
801.163	26.8
801.34	28.42
801.516	28.37
801.692	29.47
801.869	29.65
802.045	30.32
802.221	30.5
802.398	28.73
802.574	27.29
802.75	26.21
802.926	27.45
803.103	29.3
803.279	28.53
803.455	26.97
803.631	27.33
803.807	28.43
803.983	29.35
804.16	28.15
804.336	28.23
804.512	28.35
804.688	29.14
804.864	29.54
805.04	28.02
805.216	27.84
805.392	28.37
805.568	27.58
805.744	27.18
805.92	26.49
806.096	25.63
806.272	28.11
806.448	28.44
806.623	28.47
806.799	29.17
806.975	29.33
807.151	29.98
807.327	29.64
807.503	28.41
807.678	26.45
807.854	28.32
808.03	28.53
808.206	28.58
808.381	27.58
808.557	26.7
808.733	26.24
808.908	25.03
809.084	25.4
809.26	25.42
809.435	26.88
809.611	27.33
809.787	25.99
809.962	26.04
810.138	25.66
810.313	27.29
810.489	27.93
810.664	29.49
810.84	30.73
811.015	29.84
811.191	31.28
811.366	30.51
811.542	32.26
811.717	33.63
811.892	35.16
812.068	34.41
812.243	34.88
812.419	33.62
812.594	31.44
812.769	31.87
812.944	31.4
813.12	29.79
813.295	28.28
813.47	27.64
813.645	27.55
813.821	26.72
813.996	26.21
814.171	25.11
814.346	26.44
814.521	27.4
814.697	27.92
814.872	29.45
815.047	32.56
815.222	34.46
815.397	35.65
815.572	35.89
815.747	36.11
815.922	38.5
816.097	40.05
816.272	40.31
816.447	39.94
816.622	38.97
816.797	38.47
816.972	36.82
817.147	35.89
817.322	33.94
817.496	31.28
817.671	31.08
817.846	28.99
818.021	28.52
818.196	26.57
818.371	26.6
818.545	26.96
818.72	26.94
818.895	27.01
819.069	26.7
819.244	27.98
819.419	29.2
819.594	28.03
819.768	27.5
819.943	27.18
820.117	26.88
820.292	25.55
820.467	24.05
820.641	22.8
820.816	21.98
820.99	22.09
821.165	21.42
821.339	20.83
821.514	20.77
821.688	20.63
821.863	19.83
822.037	20.23
822.212	20.01
822.386	19.97
822.56	19.97
822.735	19.84
822.909	19.62
823.084	19.53
823.258	19.63
823.432	19.65
823.606	19.45
823.781	19.74
823.955	19.45
824.129	19.6
824.303	19.98
824.478	20.3
824.652	20.38
824.826	20.23
825	20.15
825.174	20.51
825.348	20.77
825.523	21.1
825.697	21.34
825.871	21.16
826.045	21.35
826.219	20.62
826.393	20.45
826.567	21.11
826.741	21.54
826.915	21.79
827.089	21.59
827.263	21.81
827.437	21.63
827.611	21.82
827.784	21.92
827.958	21.98
828.132	22.53
828.306	22.41
828.48	22.07
828.654	22.72
828.827	22.88
829.001	22.82
829.175	22.7
829.349	23.47
829.522	22.32
829.696	22.44
829.87	23.47
830.044	24.5
830.217	25.54
830.391	26.04
830.565	25.8
830.738	26.24
830.912	25.63
831.085	24.24
831.259	24.89
831.432	27.07
831.606	27.59
831.779	26.51
831.953	26.05
832.126	25.37
832.3	25.82
832.473	25.62
832.647	24.72
832.82	24.72
832.994	24.76
833.167	24.2
833.34	23.79
833.514	23.14
833.687	23.24
833.86	22.36
834.034	23.1
834.207	23.11
834.38	22.9
834.553	22.99
834.727	23.35
834.9	24.22
835.073	24.12
835.246	25.12
835.419	26.14
835.593	26.1
835.766	26.88
835.939	26.02
836.112	24.42
836.285	23.88
836.458	25.86
836.631	25.14
836.804	24.98
836.977	26
837.15	25.63
837.323	25.35
837.496	27.51
837.669	28.74
837.842	29.86
838.015	35.45
838.188	38.3
838.361	37.31
838.533	39.87
838.706	41.14
838.879	40.91
839.052	42.48
839.225	42.74
839.398	40.43
839.57	41.33
839.743	42.69
839.916	39.37
840.088	39.54
840.261	39.93
840.434	38.95
840.607	37.04
840.779	36.62
840.952	34.28
841.124	33.95
841.297	34.89
841.47	31.78
841.642	28
841.815	29.05
841.987	27.67
842.16	28.88
842.332	30.27
842.505	33.57
842.677	34.32
842.85	35.55
843.022	36.42
843.194	36.71
843.367	36.57
843.539	42.21
843.712	41.48
843.884	41.52
844.056	41.68
844.229	38.56
844.401	39.95
844.573	41.12
844.745	38.85
844.918	38.89
845.09	38.03
845.262	41.07
845.434	39.22
845.606	37.47
845.779	38.42
845.951	36.32
846.123	42.31
846.295	35.92
846.467	39.48
846.639	45.47
846.811	42.5
846.983	45.45
847.155	44.27
847.327	46.21
847.499	49
847.671	49.75
847.843	51.09
848.015	50.45
848.187	55.98
848.359	54.43
848.531	52.82
848.703	55.53
848.875	54.93
849.047	54.04
849.218	52.96
849.39	54.28
849.562	54.38
849.734	53.22
849.905	59.39
850.077	58.33
850.249	55.21
850.421	59.69
850.592	62.59
850.764	61.42
850.936	64.28
851.107	60.13
851.279	56.65
851.451	55.71
851.622	59.31
851.794	50.24
851.965	44.33
852.137	48.09
852.308	42.63
852.48	39.8
852.651	37.23
852.823	38.09
852.994	38.31
853.166	43.74
853.337	43.87
853.509	40.4
853.68	40.82
853.851	45.5
854.023	44.23
854.194	42.46
854.365	44.82
854.537	52.18
854.708	49.9
854.879	49.18
855.05	46.31
855.222	48.06
855.393	45.8
855.564	47.26
855.735	50.62
855.906	45.32
856.078	45.59
856.249	43.22
856.42	39.83
856.591	42.3
856.762	46.87
856.933	49.19
857.104	44.24
857.275	47.73
857.446	48.74
857.617	45.82
857.788	47.23
857.959	53.12
858.13	53.83
858.301	51.26
858.472	53.94
858.643	52.98
858.814	54.25
858.985	56.76
859.155	56.97
859.326	62.66
859.497	62.04
859.668	63.17
859.839	58.92
860.009	59.28
860.18	63.42
860.351	58.19
860.522	57.58
860.692	54.9
860.863	56.83
861.034	54.4
861.204	52.72
861.375	57.21
861.546	63.53
861.716	58.99
861.887	56.4
862.057	51.99
862.228	52.11
862.398	52.41
862.569	52.08
862.739	51.08
862.91	54.44
863.08	52.64
863.251	51.33
863.421	50.7
863.592	57.92
863.762	60.72
863.932	58.4
864.103	58.05
864.273	58
864.443	58.42
864.614	57.41
864.784	54.11
864.954	50.98
865.125	52.3
865.295	49.55
865.465	47.57
865.635	49.93
865.805	53.19
865.976	53.48
866.146	49.31
866.316	45.26
866.486	46.95
866.656	48.26
866.826	48.08
866.996	40.87
867.166	42.28
867.336	43.04
867.506	39.21
867.676	38.56
867.846	35.98
868.016	40.66
868.186	45.06
868.356	47.38
868.526	49.9
868.696	52.64
868.866	57.85
869.036	56.82
869.206	53.93
869.376	54.11
869.545	58.88
869.715	62.37
869.885	61.13
870.055	61.27
870.224	57.18
870.394	57.46
870.564	62.46
870.734	57.74
870.903	58.37
871.073	53.98
871.243	53.05
871.412	52.26
871.582	53.4
871.751	53.47
871.921	55.59
872.091	56.41
872.26	60.5
872.43	60.38
872.599	60.96
872.769	54.4
872.938	64.39
873.108	69.27
873.277	71.38
873.446	69.88
873.616	70.75
873.785	67.25
873.955	67.48
874.124	61.25
874.293	58.73
874.463	61.73
874.632	70.76
874.801	64.37
874.971	61.79
875.14	62.62
875.309	64.56
875.478	66.81
875.647	71.41
875.817	74.36
875.986	76.35
876.155	66.21
876.324	65
876.493	60.42
876.662	60.29
876.831	60.99
877	59.33
877.17	58.96
877.339	54.01
877.508	54.19
877.677	53.74
877.846	51.37
878.015	52.82
878.184	52.36
878.352	54.28
878.521	56.85
878.69	54.15
878.859	52.43
879.028	51.89
879.197	51.68
879.366	50.68
879.534	50.45
879.703	46.02
879.872	46.94
880.041	40.7
880.21	36.36
880.378	32.77
880.547	32.2
880.716	30.56
880.884	28.99
881.053	26.14
881.222	24.51
881.39	22.62
881.559	22.67
881.727	21.74
881.896	22.52
882.065	22.65
882.233	22.48
882.402	22.06
882.57	21.75
882.739	21.03
882.907	22.01
883.076	22.17
883.244	22.53
883.412	22.96
883.581	23.4
883.749	23.49
883.918	24.22
884.086	24.56
884.254	25.08
884.423	25
884.591	26.56
884.759	27.67
884.927	27.19
885.096	27.72
885.264	27.28
885.432	28.56
885.6	29.27
885.769	28.44
885.937	29.32
886.105	29.57
886.273	31.76
886.441	33.17
886.609	33.93
886.777	35.22
886.945	37.84
887.113	40.22
887.281	40.67
887.449	39.22
887.617	42.68
887.785	42.82
887.953	45.22
888.121	49.86
888.289	52.89
888.457	53.64
888.625	53.29
888.793	52.65
888.961	57.53
889.129	60.43
889.296	63.9
889.464	62.69
889.632	66.93
889.8	67.66
889.967	63.78
890.135	60.39
