Data from 2938771__Reflection_04.txt Node
Date: Fri Mar 13 15:13:11 EDT 2015
User: robert
Spectrometer: USB4E03002
Autoset integration time: false
Trigger mode: 4
Integration Time (sec): 1.000000E-1
Scans to average: 10
Electric dark correction enabled: false
Nonlinearity correction enabled: false
Boxcar width: 5
Stray light correction enabled: false
XAxis mode: Wavelengths
Stop averaging: false
Number of Pixels in Spectrum: 3648
>>>>>Begin Spectral Data<<<<<
177.575	-144.44
177.794	-330.14
178.014	-1303.7
178.233	797.01
178.452	1629.73
178.672	333.52
178.891	368.9
179.11	2547.83
179.33	-823.88
179.549	-396.83
179.768	-1820
179.987	741.79
180.207	2081.48
180.426	872.31
180.645	-1471.43
180.864	-893.55
181.084	-217.32
181.303	-271.96
181.522	-793.62
181.741	3133.33
181.96	221.27
182.179	204.24
182.398	168.58
182.618	139.24
182.837	222.88
183.056	155.75
183.275	110.71
183.494	117.21
183.713	165.61
183.932	240.87
184.151	170.84
184.37	171.26
184.589	166.29
184.808	240
185.027	166.67
185.246	119.67
185.465	104.18
185.684	119.02
185.903	114.04
186.122	79.96
186.341	101.07
186.56	109.05
186.779	148.4
186.998	118.38
187.216	184.67
187.435	527.12
187.654	243.12
187.873	177.93
188.092	159.73
188.311	219.08
188.53	202.88
188.748	217.19
188.967	-650
189.186	204.35
189.405	351.08
189.623	171.01
189.842	105.07
190.061	118.27
190.28	191.86
190.498	158.76
190.717	150.62
190.936	146.33
191.154	136.9
191.373	157.08
191.592	175.11
191.81	114.79
192.029	108.01
192.248	143.37
192.466	145.28
192.685	157.23
192.904	203.89
193.122	194.99
193.341	322.94
193.559	549.38
193.778	317.92
193.996	358.21
194.215	3804
194.433	928.04
194.652	579.73
194.87	963.83
195.089	15300
195.307	2419.23
195.526	-545.79
195.744	1382.98
195.963	417.49
196.181	380.99
196.399	302.93
196.618	318.56
196.836	386.62
197.055	580.52
197.273	860.44
197.491	2126.47
197.71	1344.44
197.928	439.11
198.146	695.76
198.365	954.67
198.583	1065.15
198.801	-182.97
199.019	-126.21
199.238	-71.39
199.456	-83.41
199.674	-103.97
199.892	-126.83
200.111	-109.16
200.329	-50.9
200.547	4.19
200.765	-63.03
200.983	-25.51
201.202	-29.91
201.42	272.92
201.638	-600
201.856	-122.68
202.074	-360.98
202.292	-53.68
202.51	-44.96
202.728	31.49
202.946	138.26
203.165	487.3
203.383	14000
203.601	132.39
203.819	118.81
204.037	114.44
204.255	141.01
204.473	106.6
204.691	209.39
204.909	89.2
205.127	156.9
205.345	82.25
205.562	8.36
205.78	47.42
205.998	76.08
206.216	104.2
206.434	99.24
206.652	118.58
206.87	140.76
207.088	126.17
207.306	164.92
207.523	119.64
207.741	119.17
207.959	110.93
208.177	129.36
208.395	120.83
208.612	160.38
208.83	151.08
209.048	151.44
209.266	913.33
209.483	-538.24
209.701	-748
209.919	423.44
210.136	5120
210.354	-675
210.572	-20.77
210.79	290.65
211.007	114.34
211.225	435.59
211.442	128.41
211.66	79.49
211.878	78.42
212.095	235.73
212.313	254.69
212.53	245.56
212.748	250.1
212.966	182.39
213.183	196.03
213.401	197.33
213.618	148.37
213.836	146.63
214.053	178.1
214.271	176.73
214.488	60.21
214.705	57.74
214.923	57.55
215.14	58.57
215.358	54.21
215.575	63.07
215.793	64.52
216.01	81.56
216.227	74.8
216.445	76.21
216.662	67.38
216.879	57.99
217.097	63.32
217.314	70.81
217.531	74.35
217.749	72.9
217.966	74.97
218.183	71
218.4	33.8
218.618	47.84
218.835	19.56
219.052	20.63
219.269	34.78
219.487	33.37
219.704	24.9
219.921	22.2
220.138	27.4
220.355	24.91
220.572	31.24
220.79	39.82
221.007	18.81
221.224	29.89
221.441	34.5
221.658	32.77
221.875	33.97
222.092	35.37
222.309	34.49
222.526	30.82
222.743	23.86
222.96	28.66
223.177	37.76
223.394	40.67
223.611	42.01
223.828	41.52
224.045	34.64
224.262	38.3
224.479	35.1
224.696	33.64
224.913	36.14
225.13	38.24
225.347	36.1
225.564	29.95
225.781	34.22
225.997	29.23
226.214	27.67
226.431	25.41
226.648	19.71
226.865	20.27
227.082	17.95
227.298	16.26
227.515	13.85
227.732	11.98
227.949	10.57
228.165	9.63
228.382	9.61
228.599	9.06
228.816	9.08
229.032	8.22
229.249	7.47
229.466	7.48
229.682	7.96
229.899	8.13
230.116	7.15
230.332	7.2
230.549	7.13
230.765	7
230.982	6.95
231.199	7.07
231.415	8.57
231.632	9.14
231.848	9.96
232.065	7.49
232.281	7.1
232.498	9.32
232.714	11.12
232.931	11.86
233.147	13.13
233.364	14.27
233.58	13.02
233.797	13.34
234.013	12.49
234.23	11.8
234.446	12.68
234.662	12.97
234.879	11.63
235.095	12.31
235.312	12.71
235.528	10.9
235.744	9.23
235.961	10.77
236.177	9.97
236.393	11.04
236.61	10.98
236.826	10.35
237.042	10.69
237.258	10.8
237.475	9.09
237.691	7.43
237.907	7.88
238.123	8.21
238.339	7.78
238.556	7.14
238.772	6.07
238.988	5.5
239.204	6.1
239.42	6.36
239.636	6.8
239.853	6.74
240.069	8.14
240.285	8.55
240.501	9.13
240.717	9.81
240.933	9.8
241.149	9.7
241.365	9.48
241.581	8.71
241.797	8.95
242.013	8.98
242.229	8.92
242.445	8.71
242.661	8.67
242.877	8.45
243.093	8.39
243.309	8.2
243.525	8.3
243.741	8.66
243.957	9.16
244.173	9.35
244.388	9.49
244.604	9.9
244.82	9.27
245.036	8.83
245.252	8.43
245.468	8.57
245.683	8.7
245.899	7.98
246.115	7.76
246.331	7.62
246.547	7.18
246.762	6.84
246.978	6.63
247.194	6.78
247.409	7
247.625	6.92
247.841	6.49
248.057	6.49
248.272	6.58
248.488	6.55
248.703	6.85
248.919	6.54
249.135	6.63
249.35	6.5
249.566	6.52
249.782	6.41
249.997	6.63
250.213	7.41
250.428	7.94
250.644	7.98
250.859	8.21
251.075	7.79
251.29	7.9
251.506	8.74
251.721	9.34
251.937	8.97
252.152	8.93
252.368	9.23
252.583	8.78
252.798	8.29
253.014	8.91
253.229	8.72
253.445	8.51
253.66	8.63
253.875	7.88
254.091	6.9
254.306	6.7
254.521	6.1
254.737	5.89
254.952	5.51
255.167	5.17
255.383	3.65
255.598	3.1
255.813	3.01
256.028	3.5
256.244	3.59
256.459	3.82
256.674	2.99
256.889	4.49
257.104	3.66
257.32	3.82
257.535	3.78
257.75	4.46
257.965	4.67
258.18	4.48
258.395	4.27
258.61	4.33
258.826	4.29
259.041	4.7
259.256	4.25
259.471	4.57
259.686	4.49
259.901	4.52
260.116	4.48
260.331	4.55
260.546	4.55
260.761	4.53
260.976	4.67
261.191	4.88
261.406	4.75
261.621	4.87
261.836	4.6
262.05	3.82
262.265	3.92
262.48	3.84
262.695	3.71
262.91	3.26
263.125	3.44
263.34	3.34
263.555	2.79
263.769	2.76
263.984	2.07
264.199	1.8
264.414	2.68
264.629	2.43
264.843	2.26
265.058	2.67
265.273	3.32
265.488	3.38
265.702	2.97
265.917	3.44
266.132	3.56
266.346	3.66
266.561	4.47
266.776	4.65
266.99	4.46
267.205	4.52
267.42	4.21
267.634	4.18
267.849	4.25
268.063	4.7
268.278	4.64
268.492	4.46
268.707	4.44
268.922	3.41
269.136	4.14
269.351	3.83
269.565	3.95
269.78	4.06
269.994	4.27
270.209	4.03
270.423	3.83
270.637	3.8
270.852	4.01
271.066	4.49
271.281	4.76
271.495	4.17
271.709	4.49
271.924	4.52
272.138	4.39
272.353	4.5
272.567	4.79
272.781	4.63
272.996	4.76
273.21	5.14
273.424	5.08
273.638	4.98
273.853	5.08
274.067	5.3
274.281	5.35
274.495	5.5
274.71	5.39
274.924	5.54
275.138	5.47
275.352	5.53
275.566	5.29
275.781	4.85
275.995	5.53
276.209	5.66
276.423	5.19
276.637	4.98
276.851	5.18
277.065	5.43
277.279	4.99
277.493	5.34
277.707	5.08
277.921	4.86
278.135	5
278.349	4.63
278.563	4.65
278.777	4.95
278.991	5.39
279.205	5.28
279.419	5.04
279.633	4.98
279.847	4.99
280.061	4.55
280.275	4.62
280.489	4.96
280.703	4.68
280.917	4.78
281.131	4.71
281.344	4.18
281.558	3.66
281.772	3.64
281.986	3.83
282.2	3.79
282.414	4.22
282.627	4.14
282.841	3.68
283.055	3.91
283.269	3.65
283.482	3.54
283.696	3.63
283.91	3.7
284.123	3.81
284.337	3.89
284.551	3.89
284.764	3.84
284.978	3.93
285.192	4.16
285.405	4.35
285.619	4.2
285.833	4.14
286.046	4.1
286.26	4.55
286.473	4.7
286.687	4.57
286.9	4.49
287.114	4.28
287.327	4.16
287.541	4.11
287.754	3.83
287.968	3.97
288.181	4.29
288.395	4.51
288.608	4.7
288.822	4.45
289.035	4.37
289.248	4.12
289.462	4.3
289.675	4.33
289.889	4.52
290.102	4.51
290.315	4.82
290.529	4.73
290.742	4.77
290.955	4.09
291.169	4.46
291.382	4.67
291.595	4.92
291.808	5.07
292.022	5.18
292.235	4.87
292.448	4.82
292.661	4.35
292.875	4.39
293.088	4.77
293.301	4.91
293.514	4.71
293.727	4.92
293.94	5.14
294.153	5.21
294.367	4.98
294.58	5.2
294.793	5.08
295.006	5.27
295.219	5.21
295.432	4.45
295.645	4.71
295.858	4.43
296.071	4.23
296.284	4
296.497	4.03
296.71	4.32
296.923	4.49
297.136	4.73
297.349	4.71
297.562	4.69
297.775	4.79
297.988	5.06
298.201	5.18
298.414	5.18
298.626	5.38
298.839	5.31
299.052	5.46
299.265	5.17
299.478	5.16
299.691	5.37
299.903	5.66
300.116	6.03
300.329	5.83
300.542	6.24
300.755	6.27
300.967	6.17
301.18	6.07
301.393	6.03
301.605	6.33
301.818	6.36
302.031	6.31
302.243	6.38
302.456	6.73
302.669	6.81
302.881	6.49
303.094	6.35
303.307	6.46
303.519	6.28
303.732	6.07
303.944	5.77
304.157	5.81
304.37	5.99
304.582	5.52
304.795	5.03
305.007	5.02
305.22	4.99
305.432	5.03
305.645	5
305.857	5.49
306.069	5.61
306.282	5.8
306.494	5.74
306.707	5.28
306.919	5.48
307.132	5.33
307.344	5.29
307.556	5.51
307.769	5.93
307.981	5.99
308.193	5.71
308.406	5.68
308.618	5.5
308.83	5.73
309.043	5.92
309.255	5.99
309.467	6.17
309.679	5.9
309.892	5.63
310.104	5.55
310.316	5.15
310.528	5.16
310.74	5.26
310.953	5.41
311.165	5.3
311.377	5.3
311.589	5.44
311.801	5.47
312.013	5.74
312.225	5.67
312.437	5.78
312.649	6.04
312.862	6.22
313.074	5.95
313.286	6.28
313.498	6.14
313.71	6.66
313.922	6.73
314.134	6.75
314.346	6.75
314.558	7.57
314.77	7.6
314.982	7.77
315.193	8
315.405	8.61
315.617	8.31
315.829	8.63
316.041	8.41
316.253	8.05
316.465	8.61
316.677	8.74
316.888	8.57
317.1	7.89
317.312	8.24
317.524	8.23
317.736	8.4
317.947	8.37
318.159	8.7
318.371	9.04
318.583	9.47
318.794	9.01
319.006	9.13
319.218	8.83
319.43	9.4
319.641	9.59
319.853	9.73
320.064	9.57
320.276	10.14
320.488	9.78
320.699	9.36
320.911	9.42
321.123	9.5
321.334	9.05
321.546	9.08
321.757	9.22
321.969	8.87
322.18	9.17
322.392	9.41
322.603	9.38
322.815	9.65
323.026	10.36
323.238	10.2
323.449	10.35
323.661	10.36
323.872	10.59
324.083	10.59
324.295	10.85
324.506	10.64
324.718	10.42
324.929	10.27
325.14	10.4
325.352	10.09
325.563	10.18
325.774	10.15
325.986	10.5
326.197	10.6
326.408	11.12
326.62	11.03
326.831	11.31
327.042	11.61
327.253	11.86
327.464	12.12
327.676	12.44
327.887	12.87
328.098	13.19
328.309	13.26
328.52	14
328.732	13.98
328.943	14.55
329.154	14.67
329.365	14.14
329.576	13.97
329.787	14.06
329.998	13.68
330.209	13.61
330.42	14.19
330.631	14.5
330.842	14.12
331.053	14.46
331.264	14.23
331.475	14.21
331.686	15.31
331.897	15.86
332.108	16.04
332.319	16.71
332.53	17.01
332.741	16.88
332.952	17.02
333.163	16.82
333.374	16.33
333.585	16.44
333.795	16.41
334.006	16.04
334.217	15.83
334.428	15.65
334.639	15.57
334.849	15.15
335.06	14.82
335.271	15
335.482	15.5
335.692	15.78
335.903	15.81
336.114	16.19
336.325	16.29
336.535	16.34
336.746	16.52
336.957	16.46
337.167	16.76
337.378	16.8
337.589	16.88
337.799	16.59
338.01	16.62
338.22	16.65
338.431	16.43
338.642	16.28
338.852	16.59
339.063	16.82
339.273	16.95
339.484	17.17
339.694	17.15
339.905	16.95
340.115	16.95
340.326	16.86
340.536	16.9
340.746	17.02
340.957	17.11
341.167	16.73
341.378	16.21
341.588	16.24
341.799	16.07
342.009	16.19
342.219	15.99
342.43	15.82
342.64	15.83
342.85	15.65
343.061	15.35
343.271	15.43
343.481	15.36
343.691	15.51
343.902	15.39
344.112	15.45
344.322	15.3
344.532	15.52
344.743	16.03
344.953	16
345.163	16.12
345.373	16.13
345.583	16.07
345.793	16.11
346.004	16.08
346.214	15.78
346.424	15.68
346.634	15.83
346.844	15.7
347.054	15.28
347.264	15.52
347.474	15.31
347.684	15.43
347.894	15.66
348.104	15.95
348.314	15.88
348.524	15.81
348.734	15.79
348.944	15.71
349.154	15.86
349.364	15.76
349.574	15.61
349.784	15.97
349.994	16.35
350.204	16.09
350.413	16.08
350.623	16.09
350.833	16.02
351.043	15.95
351.253	16.21
351.463	16.12
351.672	15.85
351.882	15.85
352.092	15.69
352.302	15.24
352.511	15.22
352.721	14.99
352.931	15.26
353.141	15.17
353.35	15.26
353.56	15.26
353.77	14.96
353.979	15.19
354.189	15.05
354.399	15.11
354.608	15.11
354.818	15.02
355.027	15.22
355.237	15.02
355.447	15.4
355.656	15.26
355.866	15.15
356.075	15.32
356.285	15.4
356.494	15.42
356.704	15.16
356.913	15.18
357.123	15.41
357.332	15.29
357.542	15.46
357.751	15.44
357.96	15.46
358.17	15.16
358.379	15.1
358.589	15
358.798	15.17
359.007	15.13
359.217	15.26
359.426	15.21
359.635	15.31
359.845	15.08
360.054	14.92
360.263	14.88
360.472	15.07
360.682	15.03
360.891	14.92
361.1	14.67
361.309	14.83
361.519	14.64
361.728	14.42
361.937	14.3
362.146	14.28
362.355	14.35
362.564	14.39
362.774	14.34
362.983	14.37
363.192	14.33
363.401	14.29
363.61	14.12
363.819	14.22
364.028	14.1
364.237	13.85
364.446	13.67
364.655	13.55
364.864	13.54
365.073	13.34
365.282	13.36
365.491	13.43
365.7	13.62
365.909	13.92
366.118	13.87
366.327	13.94
366.536	14.15
366.745	14.31
366.954	14.08
367.162	13.99
367.371	14.16
367.58	14.11
367.789	14.18
367.998	13.87
368.207	13.59
368.415	13.55
368.624	13.48
368.833	13.53
369.042	13.41
369.25	13.79
369.459	13.79
369.668	13.66
369.877	13.54
370.085	13.51
370.294	13.96
370.503	14.08
370.711	14.12
370.92	14.34
371.129	14.15
371.337	14.11
371.546	14.12
371.754	14.37
371.963	14.44
372.171	14.57
372.38	14.74
372.589	14.37
372.797	14.18
373.006	13.85
373.214	13.78
373.423	13.78
373.631	13.82
373.84	13.78
374.048	13.31
374.256	13.35
374.465	13.42
374.673	13.2
374.882	13.16
375.09	13.32
375.298	13.65
375.507	13.56
375.715	13.47
375.923	13.44
376.132	13.3
376.34	13.3
376.548	13.35
376.757	13.37
376.965	13.38
377.173	13.28
377.381	13.06
377.59	12.93
377.798	13.01
378.006	12.94
378.214	13.07
378.423	13.06
378.631	13.19
378.839	13.04
379.047	12.96
379.255	13.09
379.463	13.15
379.671	13.15
379.879	13.29
380.088	13.25
380.296	13.3
380.504	13.03
380.712	12.99
380.92	12.85
381.128	12.85
381.336	12.75
381.544	12.5
381.752	12.52
381.96	12.57
382.168	12.54
382.376	12.55
382.584	12.6
382.791	12.41
382.999	12.42
383.207	12.39
383.415	12.34
383.623	12.18
383.831	12.23
384.039	12.31
384.247	12.24
384.454	12.07
384.662	11.92
384.87	11.84
385.078	11.89
385.285	11.96
385.493	12.07
385.701	12
385.909	12.08
386.116	12.15
386.324	12.01
386.532	12.1
386.739	12.04
386.947	11.91
387.155	11.99
387.362	12.25
387.57	12.09
387.778	12.22
387.985	12.31
388.193	12.29
388.4	12.22
388.608	12.36
388.816	12.19
389.023	12.31
389.231	12.29
389.438	12.24
389.646	12.04
389.853	12.17
390.061	12
390.268	11.79
390.475	11.69
390.683	11.65
390.89	11.44
391.098	11.42
391.305	11.4
391.512	11.45
391.72	11.56
391.927	11.62
392.135	11.47
392.342	11.39
392.549	11.57
392.756	11.44
392.964	11.21
393.171	11.22
393.378	11.18
393.586	11.16
393.793	11.29
394	11.16
394.207	11.23
394.414	11.29
394.622	11.22
394.829	11.21
395.036	11.47
395.243	11.48
395.45	11.45
395.657	11.4
395.864	11.26
396.072	11.25
396.279	11.38
396.486	11.08
396.693	11.1
396.9	11.25
397.107	11.18
397.314	11.03
397.521	11.2
397.728	11.28
397.935	11.5
398.142	11.44
398.349	11.31
398.556	10.97
398.763	10.96
398.97	10.82
399.177	10.74
399.383	10.63
399.59	10.54
399.797	10.58
400.004	10.42
400.211	10.39
400.418	10.2
400.625	10.24
400.831	10.35
401.038	10.5
401.245	10.56
401.452	10.58
401.658	10.56
401.865	10.57
402.072	10.48
402.279	10.51
402.485	10.44
402.692	10.61
402.899	10.42
403.105	10.37
403.312	10.25
403.519	10.14
403.725	10.06
403.932	10.03
404.138	10.17
404.345	10.26
404.552	10.34
404.758	10.21
404.965	10.04
405.171	10.22
405.378	10.18
405.584	10.01
405.791	10.15
405.997	10.17
406.204	10.21
406.41	10.15
406.617	10.13
406.823	10.08
407.029	10.27
407.236	10.35
407.442	10.25
407.649	10.29
407.855	10.51
408.061	10.3
408.268	10.16
408.474	10.21
408.68	10.03
408.887	9.98
409.093	10.04
409.299	9.95
409.505	10.03
409.712	10.02
409.918	10.21
410.124	10.37
410.33	10.63
410.537	10.72
410.743	10.66
410.949	10.69
411.155	10.6
411.361	10.7
411.567	10.68
411.773	10.69
411.98	10.63
412.186	10.48
412.392	10.25
412.598	10.04
412.804	10.06
413.01	9.97
413.216	10.14
413.422	10.02
413.628	9.91
413.834	10.02
414.04	10.13
414.246	10.08
414.452	10.04
414.658	10.09
414.864	10.02
415.07	9.99
415.275	9.95
415.481	9.92
415.687	10.09
415.893	10.06
416.099	9.93
416.305	9.76
416.511	9.87
416.716	9.95
416.922	9.98
417.128	10.08
417.334	10.02
417.539	9.93
417.745	9.9
417.951	9.77
418.157	9.77
418.362	9.72
418.568	9.79
418.774	9.77
418.979	9.65
419.185	9.67
419.391	9.61
419.596	9.69
419.802	9.78
420.008	9.77
420.213	9.9
420.419	9.92
420.624	9.9
420.83	9.88
421.035	9.89
421.241	9.91
421.446	9.93
421.652	9.97
421.857	9.98
422.063	9.98
422.268	10.03
422.474	9.97
422.679	9.96
422.885	10.06
423.09	10.04
423.295	10
423.501	10.02
423.706	9.95
423.911	9.92
424.117	9.86
424.322	9.81
424.527	9.71
424.733	9.7
424.938	9.66
425.143	9.57
425.349	9.55
425.554	9.53
425.759	9.5
425.964	9.49
426.169	9.49
426.375	9.46
426.58	9.5
426.785	9.57
426.99	9.59
427.195	9.6
427.4	9.57
427.605	9.69
427.811	9.76
428.016	9.73
428.221	9.77
428.426	9.69
428.631	9.78
428.836	9.81
429.041	9.69
429.246	9.58
429.451	9.68
429.656	9.74
429.861	9.71
430.066	9.69
430.271	9.81
430.476	9.8
430.681	9.89
430.886	9.83
431.09	9.83
431.295	9.99
431.5	10.16
431.705	10.05
431.91	9.98
432.115	9.94
432.32	9.98
432.524	9.92
432.729	9.95
432.934	10
433.139	10.02
433.343	9.99
433.548	9.94
433.753	9.97
433.958	10.07
434.162	10.15
434.367	10.19
434.572	10.17
434.776	10.15
434.981	10.21
435.186	10.31
435.39	10.42
435.595	10.5
435.799	10.5
436.004	10.45
436.209	10.46
436.413	10.65
436.618	10.66
436.822	10.67
437.027	10.76
437.231	10.69
437.436	10.64
437.64	10.52
437.845	10.53
438.049	10.63
438.253	10.56
438.458	10.49
438.662	10.3
438.867	10.37
439.071	10.38
439.275	10.37
439.48	10.36
439.684	10.26
439.888	10.31
440.093	10.28
440.297	10.2
440.501	10.27
440.706	10.34
440.91	10.45
441.114	10.41
441.318	10.41
441.523	10.34
441.727	10.43
441.931	10.44
442.135	10.46
442.339	10.47
442.543	10.5
442.748	10.44
442.952	10.33
443.156	10.27
443.36	10.33
443.564	10.36
443.768	10.52
443.972	10.47
444.176	10.48
444.38	10.46
444.584	10.48
444.788	10.56
444.992	10.6
445.196	10.54
445.4	10.62
445.604	10.54
445.808	10.51
446.012	10.38
446.216	10.42
446.42	10.43
446.624	10.31
446.828	10.26
447.032	10.1
447.235	10.06
447.439	10.1
447.643	9.96
447.847	10.01
448.051	9.98
448.254	10.02
448.458	9.96
448.662	10.01
448.866	10.18
449.069	10.19
449.273	10.26
449.477	10.28
449.681	10.24
449.884	10.31
450.088	10.33
450.292	10.4
450.495	10.37
450.699	10.33
450.902	10.24
451.106	10.09
451.31	10.19
451.513	10.24
451.717	10.23
451.92	10.25
452.124	10.16
452.327	10.11
452.531	10.03
452.734	10
452.938	10.07
453.141	10.1
453.345	10.21
453.548	10.08
453.752	10.06
453.955	10.07
454.158	10.07
454.362	10.17
454.565	10.18
454.769	10.12
454.972	10.22
455.175	10.22
455.379	10.28
455.582	10.29
455.785	10.32
455.988	10.33
456.192	10.41
456.395	10.38
456.598	10.35
456.801	10.36
457.005	10.43
457.208	10.36
457.411	10.28
457.614	10.14
457.817	10.07
458.021	10.02
458.224	10.02
458.427	9.95
458.63	10.02
458.833	10.02
459.036	9.93
459.239	9.94
459.442	9.96
459.645	10.01
459.848	10.03
460.051	10.03
460.254	10.04
460.457	10.01
460.66	9.97
460.863	10
461.066	10.01
461.269	10.08
461.472	10.1
461.675	10.08
461.878	10.05
462.081	9.99
462.284	10.01
462.486	10.09
462.689	10.18
462.892	10.29
463.095	10.24
463.298	10.25
463.5	10.29
463.703	10.35
463.906	10.36
464.109	10.36
464.311	10.4
464.514	10.49
464.717	10.36
464.92	10.42
465.122	10.38
465.325	10.46
465.528	10.47
465.73	10.39
465.933	10.43
466.135	10.53
466.338	10.57
466.541	10.69
466.743	10.62
466.946	10.8
467.148	10.71
467.351	10.75
467.553	10.8
467.756	10.77
467.958	10.7
468.161	10.66
468.363	10.52
468.566	10.47
468.768	10.41
468.971	10.41
469.173	10.36
469.375	10.45
469.578	10.46
469.78	10.32
469.983	10.37
470.185	10.47
470.387	10.46
470.59	10.48
470.792	10.5
470.994	10.54
471.196	10.6
471.399	10.63
471.601	10.63
471.803	10.64
472.005	10.68
472.208	10.69
472.41	10.73
472.612	10.78
472.814	10.67
473.016	10.71
473.218	10.74
473.421	10.7
473.623	10.74
473.825	10.73
474.027	10.82
474.229	10.89
474.431	10.85
474.633	10.83
474.835	10.78
475.037	10.95
475.239	11
475.441	10.96
475.643	11.03
475.845	10.97
476.047	10.88
476.249	10.8
476.451	10.79
476.653	10.76
476.855	10.77
477.057	10.73
477.258	10.76
477.46	10.77
477.662	10.76
477.864	10.78
478.066	10.69
478.268	10.73
478.469	10.77
478.671	10.78
478.873	10.82
479.075	10.8
479.276	10.86
479.478	10.8
479.68	10.81
479.882	10.82
480.083	10.78
480.285	10.84
480.487	10.87
480.688	10.77
480.89	10.82
481.091	10.74
481.293	10.72
481.495	10.64
481.696	10.59
481.898	10.56
482.099	10.51
482.301	10.54
482.502	10.49
482.704	10.49
482.905	10.49
483.107	10.43
483.308	10.43
483.51	10.41
483.711	10.4
483.913	10.41
484.114	10.37
484.315	10.38
484.517	10.34
484.718	10.3
484.92	10.27
485.121	10.26
485.322	10.29
485.524	10.3
485.725	10.3
485.926	10.32
486.127	10.28
486.329	10.28
486.53	10.26
486.731	10.28
486.932	10.33
487.134	10.33
487.335	10.34
487.536	10.31
487.737	10.29
487.938	10.28
488.139	10.32
488.341	10.33
488.542	10.36
488.743	10.4
488.944	10.43
489.145	10.43
489.346	10.45
489.547	10.48
489.748	10.53
489.949	10.55
490.15	10.56
490.351	10.51
490.552	10.57
490.753	10.6
490.954	10.59
491.155	10.53
491.356	10.56
491.557	10.57
491.758	10.55
491.959	10.48
492.159	10.49
492.36	10.5
492.561	10.57
492.762	10.56
492.963	10.53
493.164	10.56
493.364	10.6
493.565	10.61
493.766	10.63
493.967	10.69
494.167	10.75
494.368	10.77
494.569	10.82
494.769	10.86
494.97	10.93
495.171	10.99
495.371	11.04
495.572	11.11
495.773	11.16
495.973	11.16
496.174	11.14
496.375	11.22
496.575	11.29
496.776	11.31
496.976	11.31
497.177	11.24
497.377	11.33
497.578	11.33
497.778	11.4
497.979	11.4
498.179	11.43
498.38	11.46
498.58	11.44
498.78	11.43
498.981	11.48
499.181	11.46
499.382	11.57
499.582	11.44
499.782	11.45
499.983	11.35
500.183	11.43
500.383	11.41
500.584	11.45
500.784	11.5
500.984	11.65
501.184	11.69
501.385	11.74
501.585	11.81
501.785	11.96
501.985	11.96
502.185	12.13
502.386	12.28
502.586	12.34
502.786	12.38
502.986	12.51
503.186	12.55
503.386	12.6
503.586	12.66
503.786	12.7
503.987	12.76
504.187	12.85
504.387	12.87
504.587	12.8
504.787	12.91
504.987	12.95
505.187	12.99
505.387	12.99
505.587	12.97
505.786	13.01
505.986	13.01
506.186	13.04
506.386	13.11
506.586	13.15
506.786	13.15
506.986	13.19
507.186	13.22
507.386	13.33
507.585	13.33
507.785	13.31
507.985	13.37
508.185	13.48
508.384	13.55
508.584	13.54
508.784	13.57
508.984	13.61
509.183	13.61
509.383	13.76
509.583	13.77
509.782	13.81
509.982	14.04
510.182	14.16
510.381	14.24
510.581	14.28
510.781	14.44
510.98	14.55
511.18	14.72
511.379	14.86
511.579	14.86
511.778	14.97
511.978	15.15
512.177	15.13
512.377	15.2
512.576	15.21
512.776	15.31
512.975	15.45
513.175	15.56
513.374	15.53
513.573	15.58
513.773	15.74
513.972	15.79
514.172	15.83
514.371	15.99
514.57	16.04
514.77	16.12
514.969	16.14
515.168	16.13
515.367	16.12
515.567	16.3
515.766	16.36
515.965	16.3
516.164	16.36
516.364	16.39
516.563	16.42
516.762	16.47
516.961	16.6
517.16	16.67
517.359	16.74
517.559	16.89
517.758	16.99
517.957	17.06
518.156	17.15
518.355	17.16
518.554	17.25
518.753	17.33
518.952	17.42
519.151	17.49
519.35	17.58
519.549	17.66
519.748	17.67
519.947	17.64
520.146	17.79
520.345	17.83
520.544	17.93
520.743	18
520.942	18.12
521.141	18.3
521.339	18.33
521.538	18.4
521.737	18.53
521.936	18.7
522.135	18.83
522.333	18.85
522.532	18.98
522.731	19.03
522.93	19.18
523.129	19.22
523.327	19.18
523.526	19.22
523.725	19.31
523.923	19.31
524.122	19.34
524.321	19.37
524.519	19.42
524.718	19.53
524.917	19.64
525.115	19.6
525.314	19.59
525.512	19.63
525.711	19.73
525.909	19.79
526.108	19.91
526.306	19.88
526.505	19.99
526.703	20.02
526.902	20.03
527.1	20.07
527.299	20.14
527.497	20.21
527.696	20.26
527.894	20.27
528.092	20.28
528.291	20.29
528.489	20.39
528.688	20.39
528.886	20.45
529.084	20.49
529.283	20.55
529.481	20.59
529.679	20.68
529.877	20.75
530.076	20.85
530.274	20.98
530.472	21.05
530.67	21.12
530.869	21.28
531.067	21.36
531.265	21.49
531.463	21.57
531.661	21.67
531.859	21.68
532.057	21.74
532.255	21.76
532.454	21.79
532.652	21.88
532.85	21.86
533.048	21.86
533.246	21.93
533.444	21.96
533.642	22.01
533.84	22.06
534.038	22.23
534.236	22.31
534.434	22.39
534.632	22.47
534.83	22.51
535.027	22.63
535.225	22.72
535.423	22.82
535.621	22.89
535.819	23.02
536.017	23.07
536.215	22.99
536.412	23.05
536.61	23.1
536.808	23.19
537.006	23.26
537.203	23.32
537.401	23.41
537.599	23.48
537.797	23.59
537.994	23.66
538.192	23.86
538.39	24.04
538.587	24.14
538.785	24.25
538.983	24.32
539.18	24.36
539.378	24.52
539.575	24.57
539.773	24.64
539.97	24.68
540.168	24.71
540.366	24.67
540.563	24.72
540.761	24.73
540.958	24.79
541.155	24.79
541.353	24.9
541.55	25
541.748	25.11
541.945	25.17
542.143	25.26
542.34	25.32
542.537	25.49
542.735	25.59
542.932	25.75
543.129	25.91
543.327	26.15
543.524	26.28
543.721	26.48
543.919	26.65
544.116	26.84
544.313	27.02
544.51	27.27
544.708	27.46
544.905	27.69
545.102	27.87
545.299	27.99
545.496	28.13
545.693	28.19
545.891	28.11
546.088	28.06
546.285	28.04
546.482	28.05
546.679	28.01
546.876	27.94
547.073	27.82
547.27	27.74
547.467	27.74
547.664	27.63
547.861	27.67
548.058	27.8
548.255	27.91
548.452	27.92
548.649	27.98
548.846	28.04
549.043	28.05
549.24	28.09
549.437	28.15
549.633	28.11
549.83	28.14
550.027	28.16
550.224	28.14
550.421	28.04
550.618	28
550.814	28.01
551.011	28.01
551.208	28.03
551.405	28.01
551.601	27.97
551.798	28.04
551.995	28.06
552.191	28.07
552.388	28.07
552.585	28.16
552.781	28.19
552.978	28.18
553.175	28.14
553.371	28.12
553.568	28.14
553.764	28.21
553.961	28.19
554.157	28.2
554.354	28.18
554.55	28.22
554.747	28.24
554.943	28.42
555.14	28.38
555.336	28.43
555.533	28.54
555.729	28.6
555.926	28.63
556.122	28.75
556.318	28.78
556.515	28.85
556.711	28.81
556.907	28.75
557.104	28.65
557.3	28.73
557.496	28.74
557.693	28.73
557.889	28.82
558.085	28.9
558.281	28.89
558.478	29.06
558.674	29.06
558.87	29.07
559.066	29.17
559.262	29.14
559.459	29.25
559.655	29.29
559.851	29.33
560.047	29.32
560.243	29.26
560.439	29.27
560.635	29.15
560.831	29.19
561.027	29.2
561.223	29.35
561.419	29.42
561.615	29.52
561.811	29.52
562.007	29.51
562.203	29.75
562.399	29.87
562.595	30.04
562.791	30.21
562.987	30.32
563.183	30.38
563.379	30.33
563.575	30.39
563.771	30.32
563.966	30.35
564.162	30.5
564.358	30.37
564.554	30.32
564.75	30.18
564.945	30.26
565.141	30.33
565.337	30.41
565.533	30.43
565.728	30.55
565.924	30.8
566.12	30.84
566.315	30.84
566.511	30.92
566.707	31.09
566.902	31.19
567.098	31.08
567.293	30.97
567.489	31.03
567.684	31.13
567.88	31.11
568.076	30.85
568.271	31.06
568.467	31.03
568.662	31.06
568.858	31.03
569.053	31.05
569.248	31.2
569.444	31.29
569.639	31.25
569.835	31.2
570.03	31.34
570.225	31.41
570.421	31.3
570.616	31.27
570.812	31.36
571.007	31.32
571.202	31.38
571.397	31.25
571.593	31.29
571.788	31.35
571.983	31.33
572.178	31.23
572.374	31.31
572.569	31.34
572.764	31.49
572.959	31.41
573.154	31.51
573.35	31.55
573.545	31.78
573.74	31.87
573.935	31.89
574.13	31.94
574.325	32.02
574.52	32.13
574.715	32.2
574.91	32.15
575.105	32.27
575.3	32.35
575.495	32.43
575.69	32.41
575.885	32.54
576.08	32.61
576.275	32.72
576.47	32.86
576.665	32.92
576.86	33.07
577.055	33.33
577.25	33.35
577.444	33.45
577.639	33.48
577.834	33.7
578.029	33.72
578.224	33.84
578.418	33.98
578.613	33.98
578.808	33.96
579.003	34.09
579.197	33.98
579.392	34.04
579.587	34.19
579.781	34.26
579.976	34.23
580.171	34.22
580.365	34.22
580.56	34.18
580.755	34.15
580.949	34.17
581.144	34.16
581.338	34.29
581.533	34.28
581.727	34.28
581.922	34.36
582.116	34.36
582.311	34.36
582.505	34.52
582.7	34.64
582.894	34.72
583.089	34.75
583.283	34.72
583.478	34.86
583.672	35.05
583.866	34.9
584.061	34.95
584.255	35.05
584.449	35.09
584.644	35.17
584.838	35.29
585.032	35.54
585.226	35.74
585.421	35.83
585.615	35.81
585.809	35.76
586.003	35.9
586.198	35.91
586.392	35.99
586.586	36.22
586.78	36.16
586.974	35.9
587.168	35.75
587.363	35.63
587.557	35.57
587.751	35.52
587.945	35.62
588.139	35.54
588.333	35.54
588.527	35.42
588.721	35.16
588.915	35.14
589.109	35.13
589.303	35.11
589.497	35.17
589.691	35.15
589.885	35.11
590.079	35.09
590.273	35.09
590.466	35.09
590.66	35.24
590.854	35.31
591.048	35.43
591.242	35.49
591.436	35.57
591.629	35.56
591.823	35.61
592.017	35.6
592.211	35.65
592.404	35.78
592.598	35.8
592.792	35.78
592.986	35.78
593.179	35.69
593.373	35.9
593.567	35.87
593.76	35.9
593.954	35.96
594.147	36.1
594.341	35.96
594.535	35.88
594.728	35.78
594.922	35.56
595.115	35.54
595.309	35.47
595.502	35.21
595.696	35.15
595.889	35.09
596.083	34.93
596.276	34.83
596.47	34.9
596.663	34.9
596.856	34.87
597.05	34.95
597.243	35.04
597.437	35.13
597.63	35.24
597.823	35.29
598.017	35.33
598.21	35.47
598.403	35.48
598.596	35.45
598.79	35.61
598.983	35.85
599.176	35.92
599.369	35.93
599.563	35.84
599.756	35.89
599.949	35.96
600.142	35.93
600.335	36.06
600.528	36.29
600.722	36.34
600.915	36.35
601.108	36.23
601.301	36.23
601.494	36.21
601.687	36.37
601.88	36.39
602.073	36.46
602.266	36.45
602.459	36.21
602.652	35.98
602.845	35.91
603.038	35.9
603.231	35.87
603.424	35.82
603.617	35.82
603.809	35.73
604.002	35.78
604.195	35.71
604.388	35.64
604.581	35.62
604.774	35.7
604.966	35.72
605.159	35.73
605.352	35.73
605.545	35.91
605.737	36
605.93	36.09
606.123	36.05
606.316	36.03
606.508	36.22
606.701	36.46
606.894	36.63
607.086	36.96
607.279	37.13
607.471	37.41
607.664	37.56
607.857	37.72
608.049	37.98
608.242	38.5
608.434	39.07
608.627	39.87
608.819	40.55
609.012	41.42
609.204	42.26
609.397	43.17
609.589	44.14
609.782	45.29
609.974	46.37
610.166	47.66
610.359	48.8
610.551	49.6
610.743	50.29
610.936	51.07
611.128	51.65
611.32	51.94
611.513	52.23
611.705	52.39
611.897	52.16
612.09	51.86
612.282	51.46
612.474	50.96
612.666	50.62
612.858	50.12
613.051	49.59
613.243	48.69
613.435	48.17
613.627	47.37
613.819	46.74
614.011	46.24
614.203	45.92
614.395	45.43
614.588	44.93
614.78	44.64
614.972	44.23
615.164	43.8
615.356	43.4
615.548	42.83
615.74	42.67
615.932	42.39
616.124	42.1
616.315	41.78
616.507	41.25
616.699	40.96
616.891	40.59
617.083	40.1
617.275	40
617.467	40
617.659	39.95
617.85	39.78
618.042	39.58
618.234	39.47
618.426	39.48
618.618	39.61
618.809	39.42
619.001	39.47
619.193	39.51
619.384	39.33
619.576	39.16
619.768	39.2
619.959	39.07
620.151	38.96
620.343	39.07
620.534	38.84
620.726	38.58
620.917	38.73
621.109	38.73
621.301	38.84
621.492	38.9
621.684	38.98
621.875	38.95
622.067	39.19
622.258	39.34
622.45	39.3
622.641	39.43
622.832	39.87
623.024	39.67
623.215	39.69
623.407	39.6
623.598	39.44
623.789	39.58
623.981	39.66
624.172	39.66
624.363	39.67
624.555	39.43
624.746	39.51
624.937	39.3
625.129	39.34
625.32	39.2
625.511	39.2
625.702	39.23
625.893	39.19
626.085	38.89
626.276	38.75
626.467	38.64
626.658	38.73
626.849	38.75
627.04	38.61
627.231	38.58
627.422	38.66
627.614	38.63
627.805	38.79
627.996	38.74
628.187	39.07
628.378	39.16
628.569	39.29
628.76	39.5
628.951	39.56
629.142	39.76
629.332	40
629.523	40.18
629.714	40.38
629.905	40.61
630.096	40.83
630.287	40.83
630.478	40.85
630.669	40.71
630.859	40.67
631.05	40.49
631.241	40.44
631.432	40.16
631.623	39.94
631.813	39.83
632.004	39.39
632.195	39.08
632.385	38.84
632.576	38.55
632.767	38.6
632.957	38.24
633.148	38.2
633.339	37.99
633.529	38.05
633.72	38.05
633.91	37.98
634.101	37.91
634.292	37.9
634.482	37.91
634.673	38.02
634.863	38.07
635.054	38.3
635.244	38.23
635.435	38.42
635.625	38.25
635.815	38.01
636.006	37.87
636.196	37.94
636.387	37.97
636.577	38.09
636.767	38.02
636.958	38
637.148	37.79
637.338	37.87
637.529	37.77
637.719	37.98
637.909	38.1
638.099	38.31
638.29	38.43
638.48	38.47
638.67	38.59
638.86	38.78
639.05	38.73
639.241	38.98
639.431	39.09
639.621	39.19
639.811	39.18
640.001	39.37
640.191	39.42
640.381	39.27
640.571	39.41
640.761	39.03
640.951	38.7
641.141	38.95
641.331	38.79
641.521	38.67
641.711	38.7
641.901	38.75
642.091	38.79
642.281	38.71
642.471	38.79
642.661	38.78
642.851	39.06
643.041	39.4
643.231	39.17
643.42	39.24
643.61	39.2
643.8	39
643.99	38.94
644.18	38.75
644.369	38.84
644.559	38.85
644.749	38.77
644.939	38.75
645.128	38.74
645.318	38.94
645.508	38.83
645.697	38.82
645.887	38.83
646.076	38.81
646.266	38.69
646.456	38.55
646.645	38.41
646.835	38.35
647.024	38.35
647.214	38.18
647.403	37.93
647.593	38.07
647.782	38.16
647.972	38.41
648.161	38.79
648.351	39.01
648.54	39.15
648.73	39.52
648.919	39.66
649.108	39.6
649.298	39.69
649.487	40.03
649.677	40.02
649.866	40.02
650.055	39.9
650.244	39.46
650.434	39.51
650.623	39.31
650.812	39.15
651.002	38.98
651.191	39.11
651.38	39.03
651.569	38.66
651.758	38.54
651.947	38.58
652.137	38.53
652.326	38.59
652.515	38.47
652.704	38.54
652.893	38.52
653.082	38.67
653.271	38.64
653.46	38.66
653.649	38.68
653.838	39.15
654.027	39
654.216	38.85
654.405	38.81
654.594	38.88
654.783	38.9
654.972	38.87
655.161	38.9
655.35	38.66
655.539	38.68
655.728	38.44
655.916	38.1
656.105	37.99
656.294	38.29
656.483	38.41
656.672	38.18
656.86	38.18
657.049	38.01
657.238	37.99
657.427	38.15
657.615	38.02
657.804	38.22
657.993	37.92
658.181	37.8
658.37	37.58
658.559	37.36
658.747	37.4
658.936	37.27
659.125	37.39
659.313	37.45
659.502	37.46
659.69	37.62
659.879	37.6
660.067	37.95
660.256	38.13
660.444	38.16
660.633	38.47
660.821	38.58
661.01	38.49
661.198	38.44
661.387	38.5
661.575	38.54
661.763	38.55
661.952	38.63
662.14	38.66
662.328	38.87
662.517	38.84
662.705	38.67
662.893	38.83
663.082	39.02
663.27	39.06
663.458	39
663.646	39.11
663.834	39.13
664.023	39.12
664.211	39.11
664.399	38.74
664.587	38.73
664.775	38.8
664.963	38.58
665.152	38.78
665.34	38.89
665.528	38.49
665.716	38.48
665.904	38.76
666.092	38.67
666.28	38.67
666.468	38.74
666.656	39
666.844	39
667.032	39.22
667.22	39.18
667.408	39.21
667.596	39.47
667.784	39.11
667.971	38.8
668.159	38.91
668.347	38.74
668.535	38.96
668.723	38.72
668.911	38.89
669.098	38.75
669.286	38.63
669.474	38.61
669.662	38.52
669.849	38.72
670.037	38.71
670.225	38.69
670.413	38.72
670.6	38.92
670.788	38.99
670.976	38.83
671.163	38.99
671.351	39.22
671.538	39.09
671.726	39.1
671.913	39
672.101	39.03
672.289	39.18
672.476	39.19
672.664	39.01
672.851	38.91
673.039	38.86
673.226	38.85
673.413	38.75
673.601	38.74
673.788	38.94
673.976	39.02
674.163	39.09
674.35	39.12
674.538	39.1
674.725	39.1
674.912	39.36
675.1	39.43
675.287	39.19
675.474	39.33
675.662	39.48
675.849	39.16
676.036	39.26
676.223	39.07
676.411	39.01
676.598	39.06
676.785	38.91
676.972	38.71
677.159	38.72
677.346	38.64
677.533	38.46
677.721	38.22
677.908	38.42
678.095	38.17
678.282	38.25
678.469	37.68
678.656	37.58
678.843	37.84
679.03	37.87
679.217	37.67
679.404	37.9
679.591	37.99
679.778	38.08
679.964	37.9
680.151	38.16
680.338	38.04
680.525	38.21
680.712	38.21
680.899	38.16
681.086	38.25
681.272	38.3
681.459	38.23
681.646	38.02
681.833	38.03
682.02	38.05
682.206	37.79
682.393	37.88
682.58	38.11
682.766	38.06
682.953	37.98
683.14	37.97
683.326	38.14
683.513	38.23
683.7	38.52
683.886	38.59
684.073	38.85
684.259	38.87
684.446	39.19
684.632	39.52
684.819	39.73
685.005	39.83
685.192	39.86
685.378	39.75
685.565	39.97
685.751	39.74
685.938	39.54
686.124	39.84
686.31	39.83
686.497	39.76
686.683	39.62
686.87	39.62
687.056	39.69
687.242	39.39
687.429	39.55
687.615	39.18
687.801	39.21
687.987	39.32
688.174	38.95
688.36	38.93
688.546	38.69
688.732	38.72
688.918	38.63
689.105	38.47
689.291	38.76
689.477	38.85
689.663	38.82
689.849	38.82
690.035	39.08
690.221	39.47
690.407	39.9
690.593	40.1
690.779	40.06
690.965	39.95
691.151	40.05
691.337	40.02
691.523	39.84
691.709	40.53
691.895	40.78
692.081	40.53
692.267	39.87
692.453	39.49
692.639	39.39
692.825	39.4
693.011	39.69
693.196	39.38
693.382	39.3
693.568	39.15
693.754	38.56
693.94	38.75
694.125	38.87
694.311	38.95
694.497	38.7
694.682	38.23
694.868	37.94
695.054	37.93
695.239	38.45
695.425	38.63
695.611	38.72
695.796	38.61
695.982	37.94
696.168	37.71
696.353	37.64
696.539	37.71
696.724	38.25
696.91	38.08
697.095	37.9
697.281	37.57
697.466	37.64
697.652	37.49
697.837	37.71
698.023	37.71
698.208	37.74
698.393	37.73
698.579	37.89
698.764	37.69
698.949	37.95
699.135	37.83
699.32	37.85
699.505	37.76
699.691	37.82
699.876	37.64
700.061	37.79
700.246	37.73
700.432	37.91
700.617	37.9
700.802	37.89
700.987	38.17
701.172	38.21
701.358	38.23
701.543	38.22
701.728	38.37
701.913	38.36
702.098	38.52
702.283	38.9
702.468	38.8
702.653	39.1
702.838	39.4
703.023	39.24
703.208	39.73
703.393	40.17
703.578	40.38
703.763	40.68
703.948	41.08
704.133	40.9
704.318	40.86
704.503	41.66
704.688	41.88
704.873	42.1
705.057	42.48
705.242	42.65
705.427	42.77
705.612	42.87
705.797	43.11
705.981	43.12
706.166	43.78
706.351	44.17
706.536	43.75
706.72	43.58
706.905	43.8
707.09	43.5
707.274	43.53
707.459	43.27
707.644	43.63
707.828	43.56
708.013	43.74
708.197	43.47
708.382	43.56
708.567	43.67
708.751	43.57
708.936	43.33
709.12	43.56
709.305	43.46
709.489	43.44
709.673	43.08
709.858	42.65
710.042	42.58
710.227	43.03
710.411	42.55
710.596	42.41
710.78	42.55
710.964	42.66
711.149	42.16
711.333	41.82
711.517	41.59
711.702	41.48
711.886	41.7
712.07	41.53
712.254	41.18
712.438	41.16
712.623	41.02
712.807	40.82
712.991	40.77
713.175	40.76
713.359	40.76
713.544	41.02
713.728	40.9
713.912	40.67
714.096	40.5
714.28	40.26
714.464	40.34
714.648	40.24
714.832	40.2
715.016	39.6
715.2	39.38
715.384	39.47
715.568	38.99
715.752	38.91
715.936	38.93
716.12	38.59
716.304	38.46
716.488	38.29
716.671	38.3
716.855	38.48
717.039	38.74
717.223	38.99
717.407	39.08
717.59	39.14
717.774	39.38
717.958	39.05
718.142	39.27
718.325	39.29
718.509	39.58
718.693	39.43
718.877	38.6
719.06	38.65
719.244	38.75
719.428	38.71
719.611	39.17
719.795	38.99
719.978	38.75
720.162	38.73
720.345	38.68
720.529	38.42
720.713	38.74
720.896	39.83
721.08	40.14
721.263	39.87
721.446	39.43
721.63	39.16
721.813	39.14
721.997	40.17
722.18	40.39
722.364	40.79
722.547	40.46
722.73	40.29
722.914	39.7
723.097	39.86
723.28	40
723.464	39.69
723.647	39.66
723.83	39.16
724.013	38.87
724.197	38.99
724.38	38.68
724.563	38.9
724.746	38.59
724.929	38.36
725.112	37.78
725.296	37.65
725.479	37.82
725.662	37.92
725.845	38.28
726.028	38.77
726.211	38.71
726.394	38.54
726.577	38.49
726.76	38.62
726.943	39.21
727.126	38.74
727.309	39.13
727.492	39.45
727.675	39.22
727.858	39.4
728.041	38.8
728.224	38.74
728.407	38.65
728.589	39.09
728.772	39.63
728.955	39.16
729.138	39.61
729.321	38.81
729.503	39.27
729.686	39.27
729.869	38.8
730.052	38.86
730.234	39.04
730.417	39.58
730.6	39.1
730.782	38.96
730.965	38.82
731.148	38.67
731.33	39.01
731.513	38.76
731.695	38.98
731.878	39.22
732.061	39.54
732.243	39.7
732.426	39.26
732.608	39.33
732.791	39.31
732.973	39.61
733.156	39.9
733.338	40.2
733.52	40.08
733.703	40
733.885	40.28
734.068	39.92
734.25	39.8
734.432	40.33
734.615	40.17
734.797	40.14
734.979	40.13
735.162	39.58
735.344	39.11
735.526	39.7
735.708	39.82
735.891	40.01
736.073	39.87
736.255	39.51
736.437	39.17
736.619	39.26
736.802	39.42
736.984	39.37
737.166	39.81
737.348	40.37
737.53	39.75
737.712	39.63
737.894	39.15
738.076	39.35
738.258	39.55
738.44	39.62
738.622	39.48
738.804	39.48
738.986	39.44
739.168	39.59
739.35	39.29
739.532	39.39
739.714	39.49
739.896	39.93
740.078	39.98
740.259	39.76
740.441	39.79
740.623	40.17
740.805	39.5
740.987	39.65
741.168	39.08
741.35	38.99
741.532	38.7
741.714	39.06
741.895	39.09
742.077	39.27
742.259	39.54
742.44	39.82
742.622	39.47
742.804	40
742.985	40.32
743.167	40.61
743.348	40.8
743.53	40.71
743.711	40.58
743.893	40.56
744.075	40.33
744.256	39.96
744.438	39.31
744.619	40.15
744.8	40.17
744.982	39.64
745.163	39.86
745.345	40.27
745.526	40.83
745.707	40.4
745.889	40.43
746.07	40.32
746.252	40.54
746.433	40.69
746.614	40.59
746.795	41.12
746.977	41.29
747.158	41.05
747.339	40.87
747.52	41.02
747.702	41.42
747.883	41.22
748.064	41.64
748.245	41.77
748.426	41.83
748.607	41.72
748.788	41.34
748.97	40.92
749.151	40.7
749.332	40.64
749.513	40.45
749.694	40.44
749.875	40.75
750.056	40.23
750.237	40.71
750.418	41.42
750.599	41.17
750.78	40.74
750.96	41.16
751.141	42.25
751.322	42.48
751.503	42.4
751.684	41.97
751.865	41.95
752.046	42.02
752.226	41.37
752.407	40.92
752.588	40.83
752.769	41.26
752.949	41.07
753.13	40.79
753.311	40.2
753.492	40.37
753.672	40.36
753.853	40.62
754.034	41.8
754.214	42.38
754.395	41.76
754.575	41.74
754.756	41.44
754.937	41.27
755.117	41.36
755.298	41.42
755.478	41.27
755.659	40.84
755.839	40.16
756.02	39.51
756.2	38.84
756.381	38.79
756.561	38.59
756.741	38.28
756.922	38.37
757.102	37.82
757.283	38.25
757.463	38.13
757.643	38.76
757.823	38.05
758.004	37.32
758.184	37.38
758.364	37.48
758.545	37.9
758.725	37.69
758.905	37.48
759.085	36.77
759.265	36.34
759.446	35.58
759.626	35.24
759.806	35.2
759.986	35.94
760.166	35.93
760.346	35.75
760.526	35.46
760.706	36.03
760.886	36.01
761.066	36.91
761.246	37.15
761.426	36.88
761.606	36.75
761.786	36.69
761.966	36.06
762.146	36.13
762.326	35.7
762.506	35.36
762.686	35.17
762.866	35.29
763.046	34.95
763.225	34.81
763.405	34.84
763.585	35.15
763.765	35.77
763.945	36.06
764.124	36.05
764.304	36.77
764.484	37.31
764.664	37.27
764.843	37.29
765.023	37.49
765.203	37.51
765.382	38.35
765.562	38.84
765.741	38.64
765.921	38.44
766.101	38.62
766.28	38.48
766.46	38.26
766.639	38.35
766.819	38.47
766.998	38.7
767.178	38.63
767.357	38.63
767.537	38.06
767.716	38.33
767.896	38.94
768.075	39.01
768.254	38.75
768.434	38.71
768.613	39.29
768.792	39.68
768.972	40.03
769.151	39.94
769.33	40.35
769.51	41.06
769.689	41
769.868	40.88
770.047	40.1
770.226	40.28
770.406	39.91
770.585	39.2
770.764	38.65
770.943	38.51
771.122	38.95
771.301	38.62
771.48	37.47
771.66	36.38
771.839	36.08
772.018	37.64
772.197	37.75
772.376	38.77
772.555	39.14
772.734	39.95
772.913	39.18
773.092	39.38
773.271	38.76
773.449	39.92
773.628	40.97
773.807	41.74
773.986	40.59
774.165	40.45
774.344	39.85
774.523	39.64
774.701	39.66
774.88	40.09
775.059	39.4
775.238	40.12
775.417	39.42
775.595	39.63
775.774	39.08
775.953	39.11
776.131	39.23
776.31	40.33
776.489	40.69
776.667	41.08
776.846	41.94
777.025	43
777.203	42.6
777.382	42.86
777.56	42.33
777.739	42.59
777.917	42.35
778.096	42.34
778.274	41.9
778.453	41.58
778.631	40.43
778.81	38.76
778.988	38.97
779.166	39.06
779.345	39.07
779.523	39.66
779.702	39.58
779.88	40.11
780.058	39.65
780.237	38.84
780.415	39.84
780.593	40.57
780.771	41.19
780.95	41.03
781.128	41.12
781.306	40.46
781.484	40.02
781.662	39.55
781.841	39.59
782.019	39.58
782.197	40.26
782.375	39.69
782.553	39.71
782.731	40.34
782.909	39.77
783.087	39.9
783.265	40.75
783.443	40.63
783.621	39.67
783.799	40.75
783.977	41.11
784.155	40.39
784.333	40.53
784.511	40.22
784.689	40.44
784.867	40.39
785.045	39.27
785.223	38.41
785.4	38.64
785.578	40.85
785.756	38.99
785.934	39.6
786.112	38.84
786.289	38.79
786.467	39.76
786.645	39.25
786.823	38.85
787	40.06
787.178	40.75
787.356	40.6
787.533	38.28
787.711	38.83
787.889	38.64
788.066	39
788.244	38.53
788.421	37.4
788.599	37.25
788.776	37.46
788.954	37.92
789.131	37.1
789.309	37.03
789.486	37.6
789.664	38
789.841	38.3
790.019	38.28
790.196	38.18
790.373	38.82
790.551	38.9
790.728	39.82
790.906	39.33
791.083	40.63
791.26	40.99
791.437	41.25
791.615	40.33
791.792	38.69
791.969	38.45
792.146	38.94
792.324	38.94
792.501	38.89
792.678	38.18
792.855	38.02
793.032	37.06
793.209	36.72
793.387	37.7
793.564	37.23
793.741	38.75
793.918	38.81
794.095	38.39
794.272	38.8
794.449	38.53
794.626	38.58
794.803	39.16
794.98	39.27
795.157	40.63
795.334	39.99
795.511	39.76
795.688	39.25
795.864	40.54
796.041	41.08
796.218	39.92
796.395	40.16
796.572	40.48
796.749	39.97
796.925	39.57
797.102	38.28
797.279	37.99
797.456	38.63
797.632	37.67
797.809	36.24
797.986	35.62
798.162	35.85
798.339	36.32
798.516	35.42
798.692	35.44
798.869	36.34
799.046	34.94
799.222	35.13
799.399	35.87
799.575	37.31
799.752	38.91
799.928	40.62
800.105	41.56
800.281	41.57
800.458	41.63
800.634	41.88
800.811	40.97
800.987	43.56
801.163	42.89
801.34	42.72
801.516	41.49
801.692	40.46
801.869	39.38
802.045	38.54
802.221	38.37
802.398	39.04
802.574	38.05
802.75	38.98
802.926	37.6
803.103	38.97
803.279	39.4
803.455	40.1
803.631	39.97
803.807	39.55
803.983	40.74
804.16	41.42
804.336	41.02
804.512	41.4
804.688	41.09
804.864	42.49
805.04	41.88
805.216	40.07
805.392	41.37
805.568	42.48
805.744	41.67
805.92	40.73
806.096	40.83
806.272	41.29
806.448	41.5
806.623	41.38
806.799	40.47
806.975	41.59
807.151	42.49
807.327	41.81
807.503	40.71
807.678	42.28
807.854	41.85
808.03	42.02
808.206	41.25
808.381	40.87
808.557	40.47
808.733	39.76
808.908	38.87
809.084	37.57
809.26	37.2
809.435	37.8
809.611	38.44
809.787	39.98
809.962	38.2
810.138	38.91
810.313	38.41
810.489	38.58
810.664	38.34
810.84	38.88
811.015	40.73
811.191	40.36
811.366	40.05
811.542	37.87
811.717	35.37
811.892	37.68
812.068	37.72
812.243	37.99
812.419	38.11
812.594	37.51
812.769	37.58
812.944	37.16
813.12	38.06
813.295	37.39
813.47	37.66
813.645	39.06
813.821	37.2
813.996	37.95
814.171	39.53
814.346	39.12
814.521	40.71
814.697	39.05
814.872	39.3
815.047	38.13
815.222	38.37
815.397	38.65
815.572	38.43
815.747	39.06
815.922	38.25
816.097	37.22
816.272	37.74
816.447	36.96
816.622	39.72
816.797	39.58
816.972	40.76
817.147	41.01
817.322	41.12
817.496	40.65
817.671	39.9
817.846	38.86
818.021	38.67
818.196	38.47
818.371	38.89
818.545	36.46
818.72	36.66
818.895	36.76
819.069	36.4
819.244	35.98
819.419	36.64
819.594	35.22
819.768	35.51
819.943	35.81
820.117	35.92
820.292	35.11
820.467	35.76
820.641	35.45
820.816	34.55
820.99	34.02
821.165	33.38
821.339	32.79
821.514	32.83
821.688	32.45
821.863	31.83
822.037	31.79
822.212	31.67
822.386	31.58
822.56	31.24
822.735	31.33
822.909	31.11
823.084	31.23
823.258	31.37
823.432	31.59
823.606	31.74
823.781	32.06
823.955	31.77
824.129	31.96
824.303	31.86
824.478	32.13
824.652	32.1
824.826	32.75
825	32.56
825.174	32.3
825.348	32.64
825.523	32.37
825.697	32.42
825.871	32.72
826.045	32.84
826.219	32.87
826.393	32.81
826.567	32.8
826.741	32.43
826.915	32.69
827.089	32.93
827.263	32.45
827.437	32.44
827.611	32.65
827.784	32.36
827.958	32.33
828.132	32.5
828.306	32.68
828.48	32.95
828.654	33.08
828.827	33.38
829.001	33.52
829.175	33.53
829.349	33.65
829.522	33.01
829.696	33.53
829.87	33.91
830.044	33.83
830.217	33.34
830.391	33.28
830.565	33.03
830.738	34.29
830.912	33.57
831.085	33.73
831.259	36.31
831.432	36.12
831.606	36.81
831.779	36.18
831.953	36.6
832.126	37.65
832.3	37.49
832.473	37.5
832.647	36.27
832.82	35.8
832.994	35.38
833.167	33.76
833.34	34.4
833.514	33.65
833.687	33.72
833.86	33.31
834.034	33.37
834.207	33.06
834.38	33.42
834.553	33.27
834.727	34.14
834.9	34.14
835.073	34.6
835.246	34
835.419	34.61
835.593	34.82
835.766	35.17
835.939	35.5
836.112	36.37
836.285	36.74
836.458	36.62
836.631	36.3
836.804	37.13
836.977	37.28
837.15	38.07
837.323	37.51
837.496	38.9
837.669	39.7
837.842	41.05
838.015	40.26
838.188	40.26
838.361	40.04
838.533	41.67
838.706	41.96
838.879	40.81
839.052	40.88
839.225	41.99
839.398	40.73
839.57	39.64
839.743	37.26
839.916	38.47
840.088	37.97
840.261	38.81
840.434	37.03
840.607	36.86
840.779	37.65
840.952	37.14
841.124	36.5
841.297	36.57
841.47	36.06
841.642	34.18
841.815	33.6
841.987	35.25
842.16	33.51
842.332	35.42
842.505	38.23
842.677	39.5
842.85	41.11
843.022	42.08
843.194	41.87
843.367	43.94
843.539	48.6
843.712	47.79
843.884	48.52
844.056	51.61
844.229	49.83
844.401	47.46
844.573	47.64
844.745	48.22
844.918	50.51
845.09	51.95
845.262	50.82
845.434	47.41
845.606	48.68
845.779	43.13
845.951	45.15
846.123	46.07
846.295	45.1
846.467	42.89
846.639	41.82
846.811	39.11
846.983	37.62
847.155	38.17
847.327	37.36
847.499	32.1
847.671	35.25
847.843	34.2
848.015	34.11
848.187	35.2
848.359	34.65
848.531	37.64
848.703	39.05
848.875	41.19
849.047	36.59
849.218	39.85
849.39	47.46
849.562	50.95
849.734	49.32
849.905	51.48
850.077	54.98
850.249	57.42
850.421	58.08
850.592	57.22
850.764	54.77
850.936	59.67
851.107	61.19
851.279	57.62
851.451	54.99
851.622	54.45
851.794	54.04
851.965	50.08
852.137	47.19
852.308	45.43
852.48	44.77
852.651	45.25
852.823	42.92
852.994	41.35
853.166	43.64
853.337	45.02
853.509	52.25
853.68	52.99
853.851	52.79
854.023	57.93
854.194	57.77
854.365	58.73
854.537	57.99
854.708	60.06
854.879	59.19
855.05	59.87
855.222	60.59
855.393	55.18
855.564	54.07
855.735	51.59
855.906	45.96
856.078	46.14
856.249	48.3
856.42	48.24
856.591	51.97
856.762	51.24
856.933	48.16
857.104	47.61
857.275	46.64
857.446	47.08
857.617	48.25
857.788	49.08
857.959	50.35
858.13	48.61
858.301	51.03
858.472	46.47
858.643	46.31
858.814	46.19
858.985	43.7
859.155	41.6
859.326	41.84
859.497	40.48
859.668	42.32
859.839	40.18
860.009	37.35
860.18	34.08
860.351	33.3
860.522	33.11
860.692	36.3
860.863	36.82
861.034	39.87
861.204	37.74
861.375	38.41
861.546	37.24
861.716	31.57
861.887	35.34
862.057	38.68
862.228	44.69
862.398	44.86
862.569	45.77
862.739	48.75
862.91	48.26
863.08	48.25
863.251	49.68
863.421	51.37
863.592	52.68
863.762	51.74
863.932	49.17
864.103	45.77
864.273	45.77
864.443	41.01
864.614	40.37
864.784	37.56
864.954	40.38
865.125	41.61
865.295	42.04
865.465	43.32
865.635	43.07
865.805	43.84
865.976	44.26
866.146	45.06
866.316	50.64
866.486	48.63
866.656	52.13
866.826	46.69
866.996	43.3
867.166	39.99
867.336	44.59
867.506	45.09
867.676	44.85
867.846	45.3
868.016	42.7
868.186	36.54
868.356	37.35
868.526	36.14
868.696	37.8
868.866	40.24
869.036	38.08
869.206	35.58
869.376	39.82
869.545	39.82
869.715	43.6
869.885	49.04
870.055	52.3
870.224	50.24
870.394	50.81
870.564	52.5
870.734	54.84
870.903	58.61
871.073	60.05
871.243	54.58
871.412	52.89
871.582	49.61
871.751	41.82
871.921	42.17
872.091	46.31
872.26	44.76
872.43	48.25
872.599	44.63
872.769	41.88
872.938	41.21
873.108	46.31
873.277	46.6
873.446	45.46
873.616	47.37
873.785	44.06
873.955	40.26
874.124	36.63
874.293	31
874.463	35.59
874.632	42.51
874.801	41.62
874.971	37.77
875.14	38.09
875.309	39.64
875.478	45.09
875.647	48.02
875.817	49.49
875.986	54.34
876.155	55.96
876.324	52.8
876.493	50.86
876.662	52.85
876.831	50.32
877	47.91
877.17	46.65
877.339	44.9
877.508	44.59
877.677	48.56
877.846	48.04
878.015	50.39
878.184	48.14
878.352	47.34
878.521	42.46
878.69	42.85
878.859	45.15
879.028	44.32
879.197	44
879.366	43.93
879.534	41.01
879.703	39.1
879.872	36.13
880.041	36.42
880.21	35.95
880.378	37.86
880.547	36.9
880.716	35.57
880.884	34.99
881.053	31.62
881.222	30.62
881.39	30.74
881.559	31.04
881.727	31.25
881.896	30.42
882.065	29.77
882.233	29.66
882.402	30.29
882.57	29.73
882.739	29.58
882.907	30.72
883.076	30.96
883.244	30.69
883.412	30.61
883.581	30.71
883.749	31.08
883.918	31.39
884.086	30.36
884.254	30.17
884.423	31.22
884.591	31.17
884.759	31.18
884.927	31.37
885.096	30.42
885.264	32.16
885.432	32.98
885.6	32.53
885.769	32.15
885.937	32.55
886.105	33.12
886.273	33.45
886.441	34.47
886.609	37.16
886.777	37.33
886.945	42.39
887.113	41.27
887.281	41.54
887.449	44.17
887.617	43.99
887.785	46.06
887.953	45.44
888.121	47.33
888.289	47.34
888.457	44.28
888.625	43.45
888.793	40.52
888.961	37.88
889.129	32.04
889.296	31.58
889.464	33.01
889.632	32.15
889.8	31.91
889.967	26.56
890.135	26.76
