Data from 2938724__Reflection_03.txt Node
Date: Sun Mar 15 20:20:43 EDT 2015
User: robert
Spectrometer: USB4E03002
Autoset integration time: false
Trigger mode: 4
Integration Time (sec): 1.000000E-1
Scans to average: 10
Electric dark correction enabled: false
Nonlinearity correction enabled: false
Boxcar width: 5
Stray light correction enabled: false
XAxis mode: Wavelengths
Stop averaging: false
Number of Pixels in Spectrum: 3648
>>>>>Begin Spectral Data<<<<<
177.575	-116.96
177.794	-103.03
178.014	-85.77
178.233	-56.32
178.452	-13.52
178.672	16.82
178.891	72.37
179.11	238.73
179.33	333.15
179.549	272.31
179.768	229.45
179.987	308.39
180.207	-2792.31
180.426	5828.57
180.645	-565.48
180.864	-248.41
181.084	-252.26
181.303	1118.42
181.522	204.79
181.741	576.7
181.96	600.99
182.179	1262.5
182.398	530.63
182.618	179.29
182.837	211.72
183.056	187.62
183.275	173.94
183.494	117.22
183.713	160.98
183.932	206.53
184.151	136.98
184.37	126.5
184.589	147.85
184.808	116.46
185.027	141.85
185.246	118.26
185.465	140.46
185.684	108.05
185.903	115.29
186.122	55.05
186.341	60.36
186.56	95.25
186.779	141.71
186.998	187.24
187.216	205.23
187.435	160
187.654	200.61
187.873	179.79
188.092	245.14
188.311	302.28
188.53	711.45
188.748	-9409.09
188.967	-1632.65
189.186	1942.86
189.405	274.79
189.623	1313.95
189.842	-129.89
190.061	-73.29
190.28	11.27
190.498	18.58
190.717	-28.7
190.936	-125.42
191.154	208.74
191.373	305.21
191.592	-739.02
191.81	-204.48
192.029	-264.29
192.248	-125
192.466	-135.14
192.685	-654.35
192.904	-189.23
193.122	-217.7
193.341	-106.58
193.559	-192.31
193.778	-161.29
193.996	-196.64
194.215	-358.93
194.433	1153.12
194.652	173.63
194.87	171.94
195.089	155.92
195.307	137.52
195.526	138.86
195.744	136.96
195.963	137.35
196.181	147.03
196.399	186.16
196.618	174.38
196.836	217.08
197.055	269.37
197.273	315.3
197.491	314.88
197.71	683.73
197.928	-38233.33
198.146	-1029.7
198.365	-634.29
198.583	-293.91
198.801	-379.61
199.019	-466.93
199.238	-541.11
199.456	-1897.3
199.674	1113.79
199.892	7022.22
200.111	-507.94
200.329	-1764.71
200.547	1028.12
200.765	519.8
200.983	237
201.202	167.47
201.42	162.17
201.638	157.67
201.856	112.88
202.074	112.11
202.292	117.21
202.51	107.13
202.728	125.96
202.946	115.75
203.165	132.7
203.383	257.02
203.601	405.3
203.819	271.26
204.037	295.7
204.255	214.03
204.473	482.1
204.691	425.49
204.909	451.34
205.127	330.23
205.345	268.06
205.562	405.95
205.78	188.14
205.998	152.79
206.216	147.29
206.434	187.97
206.652	180.69
206.87	140.6
207.088	119.38
207.306	149.41
207.523	127.37
207.741	144.86
207.959	111.39
208.177	109.93
208.395	104.47
208.612	134.31
208.83	96.91
209.048	118.44
209.266	72.67
209.483	154.3
209.701	279.1
209.919	253.95
210.136	156.3
210.354	225.17
210.572	176.68
210.79	197.05
211.007	307.69
211.225	183.19
211.442	140.38
211.66	137.06
211.878	115.99
212.095	87.21
212.313	93.7
212.53	104.81
212.748	102.38
212.966	118.84
213.183	103.96
213.401	62.77
213.618	85.83
213.836	97.8
214.053	168.47
214.271	189.11
214.488	290.46
214.705	261.82
214.923	188.24
215.14	157.26
215.358	211.57
215.575	239.11
215.793	282.13
216.01	309.28
216.227	331.25
216.445	248.73
216.662	332.13
216.879	182.02
217.097	199.5
217.314	218.21
217.531	288.35
217.749	247.66
217.966	205.84
218.183	182.5
218.4	125.15
218.618	120
218.835	90.68
219.052	74.51
219.269	89.71
219.487	85.7
219.704	82.68
219.921	62.27
220.138	46.38
220.355	55.43
220.572	51.17
220.79	52.51
221.007	53.6
221.224	59.12
221.441	41.42
221.658	38
221.875	39.29
222.092	13.62
222.309	18.17
222.526	20.43
222.743	8.9
222.96	7.64
223.177	8.73
223.394	15.04
223.611	13.47
223.828	18.56
224.045	22.91
224.262	9.99
224.479	20.6
224.696	25.03
224.913	26.87
225.13	29.17
225.347	25.52
225.564	29.93
225.781	23.89
225.997	16.78
226.214	13.68
226.431	8.97
226.648	13.98
226.865	9.1
227.082	2.14
227.298	1.75
227.515	1.81
227.732	2.91
227.949	2.17
228.165	2.31
228.382	3.62
228.599	3.78
228.816	4.42
229.032	3.36
229.249	3.03
229.466	4.23
229.682	4.12
229.899	3.87
230.116	5
230.332	4.62
230.549	5.12
230.765	3.59
230.982	4.53
231.199	5.58
231.415	6.38
231.632	7.09
231.848	5.57
232.065	4.79
232.281	4.01
232.498	2.06
232.714	2.86
232.931	1.64
233.147	5.65
233.364	6.82
233.58	2.72
233.797	3.86
234.013	4.85
234.23	7.18
234.446	7.35
234.662	9.61
234.879	10.14
235.095	9.23
235.312	10.2
235.528	8.31
235.744	6.65
235.961	8.58
236.177	6.02
236.393	5.03
236.61	5.75
236.826	8.57
237.042	9.35
237.258	11.08
237.475	9.12
237.691	9.44
237.907	11.11
238.123	8.59
238.339	8.49
238.556	10.29
238.772	10.01
238.988	9.22
239.204	5.97
239.42	4.36
239.636	2.97
239.853	6.57
240.069	6.28
240.285	5.44
240.501	5.88
240.717	5.9
240.933	4.87
241.149	5.02
241.365	5.03
241.581	5.08
241.797	5.71
242.013	5.76
242.229	4.6
242.445	4.02
242.661	3.34
242.877	3.52
243.093	3.16
243.309	3.7
243.525	3.76
243.741	3.51
243.957	4.33
244.173	3.1
244.388	2.59
244.604	2.29
244.82	1.89
245.036	2.75
245.252	2.37
245.468	1.86
245.683	1.44
245.899	1.05
246.115	0.89
246.331	0.13
246.547	0.33
246.762	0.25
246.978	0.46
247.194	0.59
247.409	0.43
247.625	0.42
247.841	0.63
248.057	0.83
248.272	1.01
248.488	1.67
248.703	1.9
248.919	2.06
249.135	2.61
249.35	2.41
249.566	3.14
249.782	3.33
249.997	4.12
250.213	3.63
250.428	3.71
250.644	3.31
250.859	2.77
251.075	2.36
251.29	1.99
251.506	1.54
251.721	1.94
251.937	0.73
252.152	0.71
252.368	0.14
252.583	1.16
252.798	0.72
253.014	1.41
253.229	0.62
253.445	0.8
253.66	0.78
253.875	1.26
254.091	2.15
254.306	3.03
254.521	3.54
254.737	4.9
254.952	4.85
255.167	5.28
255.383	4.63
255.598	4.56
255.813	6.41
256.028	5.17
256.244	5.67
256.459	5.52
256.674	6.29
256.889	5.69
257.104	5.2
257.32	5.11
257.535	5.38
257.75	4.47
257.965	3.59
258.18	2.03
258.395	2.38
258.61	1.48
258.826	0.94
259.041	0.45
259.256	0.56
259.471	0.18
259.686	-0.12
259.901	-0.62
260.116	-0.12
260.331	0.41
260.546	0.53
260.761	0.67
260.976	0.76
261.191	0.77
261.406	1.1
261.621	1.09
261.836	1.48
262.05	2.05
262.265	3.05
262.48	3.21
262.695	3.24
262.91	3.86
263.125	3.94
263.34	4.21
263.555	4.52
263.769	4.78
263.984	5.08
264.199	5.22
264.414	4.86
264.629	3.7
264.843	4.24
265.058	4.07
265.273	3.46
265.488	3.27
265.702	3.34
265.917	3.51
266.132	3.19
266.346	3.47
266.561	2.77
266.776	2.79
266.99	3.3
267.205	1.92
267.42	2.16
267.634	1.82
267.849	1.65
268.063	1.63
268.278	1.44
268.492	1.36
268.707	1.12
268.922	1.6
269.136	1.83
269.351	2.11
269.565	2.64
269.78	2.51
269.994	3.3
270.209	3.3
270.423	3.16
270.637	3.22
270.852	2.52
271.066	2.44
271.281	2.3
271.495	1.93
271.709	1.65
271.924	1.73
272.138	1.47
272.353	0.99
272.567	1.66
272.781	1.74
272.996	1.49
273.21	1.97
273.424	1.76
273.638	1.53
273.853	1.95
274.067	1.83
274.281	2.26
274.495	1.95
274.71	2.68
274.924	1.49
275.138	1.62
275.352	1.68
275.566	1.21
275.781	0.5
275.995	1
276.209	0.58
276.423	0.74
276.637	0.62
276.851	1.29
277.065	1.09
277.279	1.3
277.493	1.41
277.707	1.71
277.921	2.54
278.135	3.68
278.349	3.52
278.563	3.39
278.777	3.34
278.991	3.47
279.205	3.07
279.419	3.07
279.633	3.71
279.847	3.01
280.061	3.22
280.275	2.69
280.489	1.86
280.703	1.64
280.917	1.92
281.131	1.08
281.344	0.58
281.558	0.37
281.772	0.34
281.986	0.01
282.2	0.02
282.414	-0.34
282.627	-0.2
282.841	0.26
283.055	0.26
283.269	0.28
283.482	1.18
283.696	1.29
283.91	1.64
284.123	1.23
284.337	1.57
284.551	1.53
284.764	1.36
284.978	1.6
285.192	1.68
285.405	2.26
285.619	1.99
285.833	1.64
286.046	1.6
286.26	1.26
286.473	1.26
286.687	0.81
286.9	1.21
287.114	1.21
287.327	0.99
287.541	1.23
287.754	1.02
287.968	1.35
288.181	1.6
288.395	1.61
288.608	1.81
288.822	1.86
289.035	1.85
289.248	1.52
289.462	1.61
289.675	1.27
289.889	1.08
290.102	0.55
290.315	0.49
290.529	0.3
290.742	0.66
290.955	0.84
291.169	1.17
291.382	1.48
291.595	1.28
291.808	1.3
292.022	1.08
292.235	0.96
292.448	1.07
292.661	0.99
292.875	1.52
293.088	1.29
293.301	1.39
293.514	1.22
293.727	1.22
293.94	1.74
294.153	2.2
294.367	3.12
294.58	2.77
294.793	2.94
295.006	2.84
295.219	2.35
295.432	1.91
295.645	1.92
295.858	1.91
296.071	1.86
296.284	1.79
296.497	1.53
296.71	1.16
296.923	1.41
297.136	1.03
297.349	1.01
297.562	1.1
297.775	1.24
297.988	1.13
298.201	1.02
298.414	1.14
298.626	0.98
298.839	0.82
299.052	1.01
299.265	1.06
299.478	1.64
299.691	1.89
299.903	2.36
300.116	2.52
300.329	2.29
300.542	2.3
300.755	2.41
300.967	2.54
301.18	2.14
301.393	1.85
301.605	1.6
301.818	1.41
302.031	1.15
302.243	0.52
302.456	0.72
302.669	1.19
302.881	1.21
303.094	0.7
303.307	0.85
303.519	1.56
303.732	1.75
303.944	2.05
304.157	2.06
304.37	2.17
304.582	2.21
304.795	1.84
305.007	1.37
305.22	1.87
305.432	1.9
305.645	1.75
305.857	1.51
306.069	1.45
306.282	1.22
306.494	1.19
306.707	1.27
306.919	1.4
307.132	1.2
307.344	1.41
307.556	1.03
307.769	0.95
307.981	1.24
308.193	1.46
308.406	1.51
308.618	1.65
308.83	1.58
309.043	1.34
309.255	1.49
309.467	1.98
309.679	1.78
309.892	2.08
310.104	1.99
310.316	1.96
310.528	1.85
310.74	1.95
310.953	1.78
311.165	1.65
311.377	1.87
311.589	1.78
311.801	1.54
312.013	1.87
312.225	1.61
312.437	1.73
312.649	1.66
312.862	1.63
313.074	1.85
313.286	1.94
313.498	2
313.71	1.85
313.922	1.97
314.134	1.87
314.346	1.46
314.558	1.79
314.77	1.73
314.982	1.64
315.193	1.79
315.405	1.15
315.617	1.03
315.829	1.14
316.041	1.33
316.253	1.3
316.465	1.21
316.677	1.58
316.888	1.01
317.1	1.38
317.312	1.74
317.524	1.64
317.736	1.73
317.947	1.91
318.159	1.46
318.371	1.8
318.583	1.47
318.794	1.96
319.006	2.07
319.218	2.54
319.43	2.64
319.641	2.24
319.853	2.13
320.064	2.24
320.276	2.47
320.488	3.1
320.699	2.29
320.911	2.7
321.123	2.93
321.334	2.38
321.546	2
321.757	1.62
321.969	2.07
322.18	2.03
322.392	2.04
322.603	1.69
322.815	1.98
323.026	2.74
323.238	2.96
323.449	2.81
323.661	3.62
323.872	3.87
324.083	4.11
324.295	4.23
324.506	4.25
324.718	4.56
324.929	4.78
325.14	4.7
325.352	4.66
325.563	3.98
325.774	3.79
325.986	3.55
326.197	3.62
326.408	3.67
326.62	3.56
326.831	3.66
327.042	3.42
327.253	3.62
327.464	3.71
327.676	3.88
327.887	4.58
328.098	4.82
328.309	5.19
328.52	4.93
328.732	4.89
328.943	4.69
329.154	4.55
329.365	4.91
329.576	5.04
329.787	5.04
329.998	5
330.209	5.32
330.42	5.25
330.631	4.77
330.842	5.24
331.053	5.55
331.264	6.11
331.475	6.29
331.686	6.17
331.897	6.16
332.108	5.97
332.319	6.13
332.53	5.87
332.741	6.05
332.952	6.14
333.163	5.82
333.374	5.95
333.585	5.34
333.795	5.81
334.006	5.74
334.217	5.26
334.428	5.88
334.639	6.21
334.849	6.24
335.06	6.14
335.271	6.17
335.482	6.62
335.692	6.6
335.903	6.69
336.114	6.74
336.325	6.42
336.535	6.61
336.746	6.51
336.957	6.04
337.167	6.29
337.378	6.43
337.589	6.51
337.799	6.5
338.01	6.22
338.22	6.53
338.431	6.67
338.642	7.16
338.852	7.59
339.063	7.61
339.273	7.71
339.484	7.48
339.694	7.18
339.905	7.06
340.115	7.5
340.326	7.78
340.536	7.54
340.746	7.51
340.957	7.32
341.167	6.78
341.378	6.52
341.588	6.32
341.799	6.21
342.009	6.56
342.219	6.79
342.43	6.19
342.64	6.14
342.85	6.29
343.061	6.11
343.271	6.48
343.481	6.53
343.691	6.57
343.902	6.33
344.112	6.86
344.322	6.85
344.532	6.55
344.743	6.37
344.953	6.83
345.163	6.85
345.373	7.04
345.583	6.65
345.793	7.14
346.004	7.24
346.214	7.6
346.424	7.12
346.634	7.12
346.844	7.72
347.054	8.19
347.264	7.65
347.474	7.51
347.684	7.39
347.894	7.49
348.104	7.52
348.314	7.76
348.524	7.6
348.734	7.34
348.944	7.34
349.154	6.57
349.364	6.48
349.574	6.79
349.784	6.97
349.994	7.25
350.204	7.69
350.413	7.71
350.623	7.44
350.833	7.73
351.043	7.99
351.253	8.01
351.463	8.4
351.672	8.16
351.882	8.27
352.092	8.69
352.302	8.32
352.511	7.99
352.721	7.74
352.931	7.97
353.141	8.06
353.35	7.98
353.56	8.11
353.77	7.94
353.979	8.06
354.189	7.77
354.399	7.29
354.608	7.11
354.818	7.04
355.027	6.97
355.237	6.85
355.447	6.56
355.656	6.76
355.866	6.51
356.075	6.63
356.285	6.63
356.494	6.28
356.704	6.08
356.913	6.26
357.123	6.49
357.332	6.33
357.542	6.08
357.751	6.37
357.96	6.36
358.17	6.49
358.379	6.27
358.589	6.35
358.798	6.48
359.007	6.6
359.217	6.81
359.426	6.57
359.635	6.63
359.845	6.79
360.054	6.35
360.263	6.08
360.472	5.92
360.682	6.13
360.891	5.83
361.1	6.04
361.309	6.16
361.519	5.88
361.728	5.74
361.937	5.94
362.146	5.94
362.355	6.03
362.564	6.25
362.774	6.43
362.983	6.43
363.192	6.72
363.401	6.57
363.61	6.46
363.819	6.53
364.028	6.75
364.237	6.88
364.446	6.73
364.655	6.89
364.864	6.74
365.073	6.53
365.282	6.38
365.491	6.54
365.7	6.45
365.909	6.22
366.118	6.12
366.327	6.15
366.536	6.17
366.745	6.11
366.954	6.03
367.162	6.14
367.371	6.29
367.58	6.5
367.789	6.19
367.998	5.94
368.207	6.39
368.415	6.71
368.624	6.51
368.833	6.16
369.042	6.37
369.25	6.39
369.459	6.26
369.668	6.16
369.877	6.15
370.085	6.29
370.294	6.85
370.503	6.36
370.711	6.11
370.92	6.25
371.129	6.23
371.337	6.44
371.546	6.2
371.754	6.36
371.963	6.33
372.171	6.44
372.38	6.42
372.589	6.41
372.797	6.66
373.006	6.56
373.214	6.58
373.423	6.75
373.631	6.65
373.84	6.94
374.048	6.88
374.256	6.89
374.465	6.63
374.673	6.76
374.882	6.79
375.09	6.99
375.298	7.05
375.507	7.05
375.715	6.9
375.923	7.07
376.132	7.08
376.34	6.86
376.548	7.01
376.757	6.98
376.965	6.76
377.173	6.61
377.381	6.26
377.59	6.27
377.798	6.24
378.006	6.2
378.214	6.06
378.423	5.91
378.631	5.99
378.839	6.02
379.047	6.01
379.255	6.01
379.463	5.94
379.671	6.03
379.879	5.96
380.088	5.94
380.296	5.93
380.504	6
380.712	5.97
380.92	5.75
381.128	5.57
381.336	5.83
381.544	5.97
381.752	6.36
381.96	6.18
382.168	6.37
382.376	6.34
382.584	6.73
382.791	6.56
382.999	6.55
383.207	6.86
383.415	6.84
383.623	6.29
383.831	6.12
384.039	5.71
384.247	6.24
384.454	6.19
384.662	6.23
384.87	5.95
385.078	5.85
385.285	5.88
385.493	5.99
385.701	6.08
385.909	6.58
386.116	6.69
386.324	6.76
386.532	6.55
386.739	6.4
386.947	6.57
387.155	6.63
387.362	6.9
387.57	6.94
387.778	6.87
387.985	6.75
388.193	6.56
388.4	6.62
388.608	6.87
388.816	7.06
389.023	7.03
389.231	6.92
389.438	6.95
389.646	6.67
389.853	6.78
390.061	6.71
390.268	6.73
390.475	6.72
390.683	6.64
390.89	6.3
391.098	6.26
391.305	6.48
391.512	6.55
391.72	6.52
391.927	6.47
392.135	6.24
392.342	6.17
392.549	6.32
392.756	6.25
392.964	6.16
393.171	6.42
393.378	6.4
393.586	6.17
393.793	5.97
394	6.03
394.207	5.91
394.414	6.17
394.622	6.36
394.829	6.4
395.036	6.68
395.243	6.6
395.45	6.45
395.657	6.47
395.864	6.41
396.072	6.6
396.279	6.45
396.486	6.67
396.693	6.47
396.9	6.38
397.107	6.3
397.314	6.16
397.521	6.22
397.728	6.28
397.935	6.14
398.142	6.36
398.349	6.37
398.556	6.27
398.763	6.33
398.97	6.54
399.177	6.46
399.383	6.36
399.59	6.35
399.797	6.49
400.004	6.5
400.211	6.51
400.418	6.59
400.625	6.55
400.831	6.48
401.038	6.57
401.245	6.57
401.452	6.46
401.658	6.72
401.865	6.65
402.072	6.65
402.279	6.54
402.485	6.49
402.692	6.46
402.899	6.32
403.105	6.62
403.312	6.51
403.519	6.57
403.725	6.83
403.932	6.64
404.138	6.9
404.345	6.93
404.552	6.83
404.758	6.84
404.965	6.99
405.171	7.19
405.378	7.08
405.584	7.01
405.791	6.71
405.997	6.71
406.204	6.7
406.41	6.51
406.617	6.46
406.823	6.46
407.029	6.49
407.236	6.36
407.442	6.22
407.649	6.25
407.855	6.28
408.061	6.37
408.268	6.24
408.474	6.21
408.68	6.25
408.887	6.42
409.093	6.56
409.299	6.59
409.505	6.46
409.712	6.44
409.918	6.44
410.124	6.52
410.33	6.64
410.537	6.61
410.743	6.5
410.949	6.5
411.155	6.28
411.361	6.36
411.567	6.47
411.773	6.35
411.98	6.44
412.186	6.43
412.392	6.51
412.598	6.57
412.804	6.6
413.01	6.8
413.216	6.63
413.422	6.8
413.628	6.75
413.834	6.63
414.04	6.84
414.246	6.72
414.452	6.88
414.658	6.9
414.864	6.87
415.07	6.94
415.275	6.94
415.481	7.03
415.687	6.91
415.893	6.79
416.099	6.72
416.305	6.75
416.511	6.74
416.716	6.58
416.922	6.41
417.128	6.14
417.334	6.17
417.539	6.12
417.745	6.05
417.951	5.96
418.157	6.08
418.362	6.14
418.568	6.03
418.774	6
418.979	5.97
419.185	5.92
419.391	6.02
419.596	5.94
419.802	5.96
420.008	6.04
420.213	6.05
420.419	5.96
420.624	5.92
420.83	5.89
421.035	5.85
421.241	5.9
421.446	5.89
421.652	5.98
421.857	6.05
422.063	5.94
422.268	5.9
422.474	5.96
422.679	6
422.885	6
423.09	6.06
423.295	6.07
423.501	5.98
423.706	6.1
423.911	5.98
424.117	5.84
424.322	5.95
424.527	5.93
424.733	5.94
424.938	5.95
425.143	5.88
425.349	5.91
425.554	6.02
425.759	6.07
425.964	6
426.169	6.03
426.375	6.13
426.58	6.1
426.785	6.12
426.99	6.05
427.195	6.03
427.4	6.13
427.605	6.12
427.811	5.99
428.016	5.97
428.221	6.04
428.426	5.98
428.631	6.09
428.836	6.08
429.041	6.04
429.246	6.12
429.451	6.05
429.656	6.16
429.861	6.1
430.066	6.21
430.271	6.18
430.476	6.1
430.681	6.26
430.886	6.24
431.09	6.25
431.295	6.3
431.5	6.24
431.705	6.37
431.91	6.1
432.115	6.25
432.32	6.23
432.524	6.28
432.729	6.27
432.934	6.28
433.139	6.16
433.343	6.27
433.548	6.29
433.753	6.44
433.958	6.47
434.162	6.72
434.367	6.78
434.572	6.91
434.776	6.97
434.981	7.03
435.186	7.16
435.39	7.34
435.595	7.39
435.799	7.56
436.004	7.45
436.209	7.36
436.413	7.3
436.618	7.16
436.822	7.19
437.027	7.09
437.231	7.06
437.436	7.02
437.64	6.92
437.845	6.78
438.049	6.51
438.253	6.48
438.458	6.49
438.662	6.44
438.867	6.36
439.071	6.24
439.275	6.3
439.48	6.26
439.684	6.2
439.888	6.23
440.093	6.25
440.297	6.32
440.501	6.41
440.706	6.5
440.91	6.53
441.114	6.6
441.318	6.59
441.523	6.65
441.727	6.61
441.931	6.6
442.135	6.59
442.339	6.57
442.543	6.65
442.748	6.7
442.952	6.59
443.156	6.55
443.36	6.47
443.564	6.49
443.768	6.42
443.972	6.47
444.176	6.51
444.38	6.53
444.584	6.52
444.788	6.5
444.992	6.43
445.196	6.47
445.4	6.45
445.604	6.46
445.808	6.36
446.012	6.37
446.216	6.42
446.42	6.3
446.624	6.27
446.828	6.24
447.032	6.29
447.235	6.25
447.439	6.27
447.643	6.27
447.847	6.29
448.051	6.4
448.254	6.46
448.458	6.45
448.662	6.59
448.866	6.63
449.069	6.65
449.273	6.5
449.477	6.5
449.681	6.47
449.884	6.49
450.088	6.5
450.292	6.54
450.495	6.45
450.699	6.47
450.902	6.41
451.106	6.45
451.31	6.55
451.513	6.64
451.717	6.64
451.92	6.77
452.124	6.79
452.327	6.71
452.531	6.6
452.734	6.68
452.938	6.65
453.141	6.67
453.345	6.68
453.548	6.6
453.752	6.6
453.955	6.65
454.158	6.5
454.362	6.53
454.565	6.69
454.769	6.86
454.972	6.88
455.175	6.92
455.379	6.9
455.582	6.7
455.785	6.8
455.988	6.84
456.192	6.81
456.395	6.88
456.598	6.73
456.801	6.76
457.005	6.62
457.208	6.57
457.411	6.55
457.614	6.49
457.817	6.68
458.021	6.7
458.224	6.62
458.427	6.53
458.63	6.41
458.833	6.51
459.036	6.43
459.239	6.37
459.442	6.29
459.645	6.23
459.848	6.21
460.051	6.13
460.254	6.12
460.457	6.19
460.66	6.32
460.863	6.39
461.066	6.35
461.269	6.34
461.472	6.54
461.675	6.63
461.878	6.63
462.081	6.69
462.284	6.69
462.486	6.63
462.689	6.51
462.892	6.51
463.095	6.43
463.298	6.43
463.5	6.64
463.703	6.51
463.906	6.55
464.109	6.58
464.311	6.69
464.514	6.65
464.717	6.68
464.92	6.91
465.122	6.84
465.325	7
465.528	7.03
465.73	6.91
465.933	6.94
466.135	6.96
466.338	7.05
466.541	6.98
466.743	7.04
466.946	7.06
467.148	6.96
467.351	6.98
467.553	6.83
467.756	6.77
467.958	6.66
468.161	6.52
468.363	6.47
468.566	6.53
468.768	6.4
468.971	6.34
469.173	6.39
469.375	6.38
469.578	6.38
469.78	6.52
469.983	6.66
470.185	6.71
470.387	6.83
470.59	6.85
470.792	6.8
470.994	6.89
471.196	7.06
471.399	6.78
471.601	6.66
471.803	6.62
472.005	6.55
472.208	6.42
472.41	6.48
472.612	6.5
472.814	6.51
473.016	6.36
473.218	6.38
473.421	6.26
473.623	6.39
473.825	6.46
474.027	6.58
474.229	6.56
474.431	6.64
474.633	6.7
474.835	6.69
475.037	6.63
475.239	6.77
475.441	6.75
475.643	6.82
475.845	6.89
476.047	6.9
476.249	6.71
476.451	6.72
476.653	6.64
476.855	6.59
477.057	6.62
477.258	6.68
477.46	6.62
477.662	6.72
477.864	6.71
478.066	6.76
478.268	6.73
478.469	6.91
478.671	6.79
478.873	6.82
479.075	6.75
479.276	6.78
479.478	6.71
479.68	6.83
479.882	6.76
480.083	6.75
480.285	6.76
480.487	6.81
480.688	6.64
480.89	6.75
481.091	6.76
481.293	6.75
481.495	6.56
481.696	6.57
481.898	6.49
482.099	6.47
482.301	6.35
482.502	6.26
482.704	6.19
482.905	6.13
483.107	6.1
483.308	6.04
483.51	6
483.711	6.06
483.913	6.04
484.114	6
484.315	5.99
484.517	6.04
484.718	6.07
484.92	6.11
485.121	6.22
485.322	6.27
485.524	6.33
485.725	6.41
485.926	6.45
486.127	6.42
486.329	6.49
486.53	6.48
486.731	6.47
486.932	6.43
487.134	6.42
487.335	6.37
487.536	6.33
487.737	6.32
487.938	6.31
488.139	6.28
488.341	6.36
488.542	6.37
488.743	6.41
488.944	6.44
489.145	6.47
489.346	6.51
489.547	6.53
489.748	6.59
489.949	6.58
490.15	6.59
490.351	6.55
490.552	6.51
490.753	6.5
490.954	6.51
491.155	6.49
491.356	6.49
491.557	6.45
491.758	6.44
491.959	6.4
492.159	6.42
492.36	6.43
492.561	6.49
492.762	6.57
492.963	6.59
493.164	6.58
493.364	6.63
493.565	6.67
493.766	6.7
493.967	6.74
494.167	6.81
494.368	6.84
494.569	6.88
494.769	6.83
494.97	6.72
495.171	6.75
495.371	6.8
495.572	6.71
495.773	6.71
495.973	6.74
496.174	6.75
496.375	6.74
496.575	6.78
496.776	6.77
496.976	6.73
497.177	6.77
497.377	6.75
497.578	6.75
497.778	6.8
497.979	6.83
498.179	6.8
498.38	6.84
498.58	6.83
498.78	6.78
498.981	6.78
499.181	6.8
499.382	6.83
499.582	6.86
499.782	6.81
499.983	6.83
500.183	6.77
500.383	6.88
500.584	6.81
500.784	6.8
500.984	6.79
501.184	6.78
501.385	6.87
501.585	6.88
501.785	6.88
501.985	6.88
502.185	6.95
502.386	6.92
502.586	6.92
502.786	6.99
502.986	7.01
503.186	7.12
503.386	7.18
503.586	7.11
503.786	7.1
503.987	7.09
504.187	7.09
504.387	7.02
504.587	7.13
504.787	7.07
504.987	7
505.187	7.04
505.387	7.04
505.587	6.92
505.786	6.98
505.986	6.92
506.186	6.93
506.386	6.96
506.586	6.99
506.786	6.98
506.986	6.92
507.186	7
507.386	6.96
507.585	6.96
507.785	6.96
507.985	6.93
508.185	7
508.384	6.86
508.584	6.84
508.784	6.81
508.984	6.74
509.183	6.74
509.383	6.77
509.583	6.78
509.782	6.75
509.982	6.82
510.182	6.82
510.381	6.79
510.581	6.9
510.781	6.9
510.98	6.93
511.18	6.88
511.379	6.88
511.579	6.85
511.778	6.85
511.978	6.88
512.177	6.91
512.377	6.97
512.576	6.9
512.776	6.91
512.975	6.95
513.175	6.97
513.374	7.09
513.573	7.13
513.773	7.1
513.972	7.15
514.172	7.13
514.371	7.07
514.57	7.04
514.77	7.07
514.969	7.02
515.168	6.93
515.367	7
515.567	6.98
515.766	7.08
515.965	7.12
516.164	6.97
516.364	6.87
516.563	6.84
516.762	6.85
516.961	6.92
517.16	6.9
517.359	6.98
517.559	6.89
517.758	6.94
517.957	6.92
518.156	6.92
518.355	7.09
518.554	7.06
518.753	7.1
518.952	7.1
519.151	7.14
519.35	7.21
519.549	7.25
519.748	7.29
519.947	7.21
520.146	7.2
520.345	7.17
520.544	7.14
520.743	7.27
520.942	7.32
521.141	7.28
521.339	7.3
521.538	7.28
521.737	7.24
521.936	7.15
522.135	7.22
522.333	7.23
522.532	7.29
522.731	7.26
522.93	7.2
523.129	7.22
523.327	7.23
523.526	7.12
523.725	7.06
523.923	6.99
524.122	7.03
524.321	6.91
524.519	6.85
524.718	6.82
524.917	6.77
525.115	6.76
525.314	6.76
525.512	6.78
525.711	6.79
525.909	6.76
526.108	6.74
526.306	6.76
526.505	6.78
526.703	6.74
526.902	6.69
527.1	6.63
527.299	6.58
527.497	6.53
527.696	6.47
527.894	6.44
528.092	6.48
528.291	6.49
528.489	6.48
528.688	6.45
528.886	6.45
529.084	6.47
529.283	6.55
529.481	6.61
529.679	6.66
529.877	6.75
530.076	6.79
530.274	6.75
530.472	6.83
530.67	6.87
530.869	6.95
531.067	7.02
531.265	7.03
531.463	7
531.661	6.94
531.859	6.9
532.057	6.9
532.255	6.91
532.454	6.92
532.652	6.84
532.85	6.86
533.048	6.87
533.246	6.85
533.444	6.85
533.642	6.87
533.84	6.98
534.038	7
534.236	6.98
534.434	6.98
534.632	7.03
534.83	7.09
535.027	7.03
535.225	7.14
535.423	7.13
535.621	7.14
535.819	7.13
536.017	7.11
536.215	7.08
536.412	7.11
536.61	7.1
536.808	7.2
537.006	7.27
537.203	7.33
537.401	7.29
537.599	7.41
537.797	7.51
537.994	7.55
538.192	7.55
538.39	7.68
538.587	7.73
538.785	7.82
538.983	7.8
539.18	7.9
539.378	7.96
539.575	8.01
539.773	8.04
539.97	8.06
540.168	8.1
540.366	8.15
540.563	8.13
540.761	8.14
540.958	8.15
541.155	8.21
541.353	8.18
541.55	8.18
541.748	8.21
541.945	8.19
542.143	8.25
542.34	8.24
542.537	8.29
542.735	8.38
542.932	8.46
543.129	8.65
543.327	8.75
543.524	8.95
543.721	9.18
543.919	9.39
544.116	9.65
544.313	9.85
544.51	10.16
544.708	10.48
544.905	10.67
545.102	10.88
545.299	10.98
545.496	11.05
545.693	11.07
545.891	11.1
546.088	11.07
546.285	10.99
546.482	10.92
546.679	10.76
546.876	10.54
547.073	10.52
547.27	10.39
547.467	10.28
547.664	10.16
547.861	10.1
548.058	9.98
548.255	9.93
548.452	9.89
548.649	9.84
548.846	9.75
549.043	9.68
549.24	9.48
549.437	9.39
549.633	9.16
549.83	9.17
550.027	8.93
550.224	8.91
550.421	8.74
550.618	8.55
550.814	8.38
551.011	8.35
551.208	8.27
551.405	8.24
551.601	8.31
551.798	8.34
551.995	8.23
552.191	8.39
552.388	8.28
552.585	8.28
552.781	8.35
552.978	8.38
553.175	8.51
553.371	8.45
553.568	8.53
553.764	8.39
553.961	8.42
554.157	8.42
554.354	8.29
554.55	8.25
554.747	8.22
554.943	8.13
555.14	8.15
555.336	8.14
555.533	8.21
555.729	8.14
555.926	8.31
556.122	8.36
556.318	8.35
556.515	8.51
556.711	8.5
556.907	8.53
557.104	8.44
557.3	8.51
557.496	8.39
557.693	8.45
557.889	8.47
558.085	8.39
558.281	8.4
558.478	8.44
558.674	8.31
558.87	8.39
559.066	8.42
559.262	8.49
559.459	8.46
559.655	8.4
559.851	8.49
560.047	8.41
560.243	8.31
560.439	8.3
560.635	8.19
560.831	8.22
561.027	8.12
561.223	8.12
561.419	8.16
561.615	7.97
561.811	8.01
562.007	7.93
562.203	7.87
562.399	7.91
562.595	7.83
562.791	7.83
562.987	7.7
563.183	7.79
563.379	7.58
563.575	7.53
563.771	7.72
563.966	7.79
564.162	7.71
564.358	7.77
564.554	7.72
564.75	7.79
564.945	7.79
565.141	7.83
565.337	7.78
565.533	7.88
565.728	7.92
565.924	7.78
566.12	7.75
566.315	7.86
566.511	7.99
566.707	7.95
566.902	7.88
567.098	7.97
567.293	7.99
567.489	7.99
567.684	7.97
567.88	8.04
568.076	8.11
568.271	8.02
568.467	8.02
568.662	7.9
568.858	7.94
569.053	7.96
569.248	7.92
569.444	7.91
569.639	7.84
569.835	7.96
570.03	7.9
570.225	7.99
570.421	7.99
570.616	7.93
570.812	7.83
571.007	7.88
571.202	7.89
571.397	7.9
571.593	7.85
571.788	7.89
571.983	7.78
572.178	7.76
572.374	7.73
572.569	7.78
572.764	7.8
572.959	7.99
573.154	8.06
573.35	7.99
573.545	7.99
573.74	8.13
573.935	8.27
574.13	8.38
574.325	8.41
574.52	8.47
574.715	8.46
574.91	8.48
575.105	8.49
575.3	8.44
575.495	8.56
575.69	8.62
575.885	8.64
576.08	8.68
576.275	8.74
576.47	8.92
576.665	8.87
576.86	8.93
577.055	9.03
577.25	8.93
577.444	9.05
577.639	9.15
577.834	9.15
578.029	9.28
578.224	9.21
578.418	9.2
578.613	9.13
578.808	9.37
579.003	9.5
579.197	9.61
579.392	9.71
579.587	9.66
579.781	9.63
579.976	9.78
580.171	9.8
580.365	9.93
580.56	9.93
580.755	9.97
580.949	9.79
581.144	9.83
581.338	9.76
581.533	9.87
581.727	9.92
581.922	9.91
582.116	9.93
582.311	9.76
582.505	9.72
582.7	9.87
582.894	9.93
583.089	10.03
583.283	10.08
583.478	10.03
583.672	10.14
583.866	10.05
584.061	10.15
584.255	9.99
584.449	10.05
584.644	10.2
584.838	10.08
585.032	10.01
585.226	10.07
585.421	10.09
585.615	10.22
585.809	10.08
586.003	10.27
586.198	10.24
586.392	10.44
586.586	10.49
586.78	10.53
586.974	10.79
587.168	10.75
587.363	10.64
587.557	10.41
587.751	10.24
587.945	10.2
588.139	10.17
588.333	10.13
588.527	10.06
588.721	9.86
588.915	9.58
589.109	9.4
589.303	9.25
589.497	9.37
589.691	9.56
589.885	9.5
590.079	9.5
590.273	9.3
590.466	9.37
590.66	9.42
590.854	9.56
591.048	9.47
591.242	9.59
591.436	9.89
591.629	10
591.823	10.07
592.017	10.31
592.211	10.31
592.404	10.52
592.598	10.62
592.792	10.57
592.986	10.62
593.179	10.68
593.373	10.6
593.567	10.54
593.76	10.26
593.954	10.07
594.147	9.93
594.341	9.97
594.535	9.82
594.728	9.66
594.922	9.75
595.115	9.73
595.309	9.86
595.502	9.76
595.696	9.62
595.889	9.57
596.083	9.59
596.276	9.52
596.47	9.49
596.663	9.52
596.856	9.49
597.05	9.34
597.243	9.31
597.437	9.31
597.63	9.48
597.823	9.52
598.017	9.66
598.21	9.7
598.403	9.92
598.596	10.01
598.79	10.18
598.983	10.43
599.176	10.53
599.369	10.55
599.563	10.69
599.756	10.42
599.949	10.47
600.142	10.43
600.335	10.47
600.528	10.22
600.722	10.04
600.915	9.85
601.108	9.59
601.301	9.55
601.494	9.55
601.687	9.4
601.88	9.54
602.073	9.39
602.266	9.17
602.459	9.08
602.652	9.15
602.845	9.16
603.038	9.16
603.231	9.17
603.424	9.21
603.617	9.14
603.809	9.1
604.002	9.03
604.195	9.03
604.388	9.15
604.581	9.22
604.774	9.19
604.966	9.26
605.159	9.21
605.352	9.2
605.545	9.11
605.737	9.29
605.93	9.35
606.123	9.47
606.316	9.67
606.508	9.79
606.701	9.88
606.894	10.16
607.086	10.3
607.279	10.35
607.471	10.65
607.664	10.85
607.857	10.98
608.049	11.09
608.242	11.42
608.434	11.92
608.627	12.5
608.819	12.95
609.012	13.63
609.204	14.3
609.397	15.25
609.589	16.27
609.782	17.48
609.974	18.64
610.166	19.96
610.359	21.01
610.551	21.9
610.743	22.86
610.936	23.82
611.128	24.39
611.32	25
611.513	25.36
611.705	25.3
611.897	25.2
612.09	25.02
612.282	24.7
612.474	24.16
612.666	23.69
612.858	23.25
613.051	22.59
613.243	22.23
613.435	21.61
613.627	21.21
613.819	20.88
614.011	20.45
614.203	19.77
614.395	19.16
614.588	18.69
614.78	18.33
614.972	17.51
615.164	16.98
615.356	16.35
615.548	16.13
615.74	15.67
615.932	15.29
616.124	14.76
616.315	14.47
616.507	13.98
616.699	13.69
616.891	13.35
617.083	13.1
617.275	12.97
617.467	12.93
617.659	12.55
617.85	12.41
618.042	12.24
618.234	12.11
618.426	12
618.618	12.04
618.809	12.25
619.001	12.24
619.193	12.29
619.384	12.21
619.576	12.04
619.768	12.02
619.959	11.99
620.151	11.9
620.343	11.92
620.534	11.94
620.726	12
620.917	11.75
621.109	11.6
621.301	11.53
621.492	11.5
621.684	11.61
621.875	11.74
622.067	11.75
622.258	11.78
622.45	11.81
622.641	11.82
622.832	11.83
623.024	11.89
623.215	12.19
623.407	12.44
623.598	12.63
623.789	12.66
623.981	12.59
624.172	12.85
624.363	12.79
624.555	12.82
624.746	12.86
624.937	12.61
625.129	12.55
625.32	12.41
625.511	12.21
625.702	12.18
625.893	12.01
626.085	11.82
626.276	11.46
626.467	11.4
626.658	11.32
626.849	11.24
627.04	11.37
627.231	11.44
627.422	11.41
627.614	11.45
627.805	11.48
627.996	11.67
628.187	11.95
628.378	12.22
628.569	12.49
628.76	12.66
628.951	12.74
629.142	13
629.332	13.25
629.523	13.42
629.714	13.66
629.905	13.65
630.096	13.69
630.287	13.91
630.478	13.86
630.669	13.9
630.859	13.7
631.05	13.75
631.241	13.47
631.432	13.27
631.623	12.98
631.813	12.64
632.004	12.38
632.195	12.08
632.385	11.55
632.576	11.57
632.767	11.2
632.957	11.21
633.148	10.92
633.339	10.94
633.529	10.82
633.72	10.74
633.91	10.7
634.101	10.78
634.292	10.55
634.482	10.84
634.673	10.53
634.863	10.44
635.054	10.36
635.244	10.19
635.435	10.04
635.625	10.01
635.815	10.1
636.006	10.27
636.196	10.22
636.387	10.41
636.577	10.1
636.767	10.19
636.958	10.26
637.148	10.34
637.338	10.69
637.529	10.87
637.719	10.88
637.909	10.86
638.099	10.65
638.29	10.68
638.48	10.63
638.67	10.87
638.86	10.73
639.05	10.79
639.241	10.56
639.431	10.5
639.621	10.4
639.811	10.27
640.001	10.17
640.191	10.19
640.381	10.15
640.571	10.21
640.761	10.13
640.951	10.28
641.141	10.18
641.331	10.1
641.521	10.04
641.711	9.85
641.901	9.92
642.091	9.75
642.281	9.94
642.471	9.98
642.661	10.13
642.851	10.03
643.041	9.9
643.231	9.98
643.42	10.33
643.61	10.31
643.8	10.54
643.99	10.37
644.18	10.24
644.369	10.11
644.559	10.04
644.749	9.8
644.939	9.94
645.128	9.99
645.318	10.1
645.508	10.12
645.697	9.98
645.887	9.79
646.076	9.97
646.266	10.28
646.456	10.2
646.645	10.35
646.835	10.66
647.024	10.68
647.214	10.72
647.403	10.7
647.593	10.62
647.782	10.74
647.972	10.88
648.161	10.97
648.351	11.27
648.54	11.6
648.73	11.66
648.919	11.34
649.108	11.63
649.298	11.49
649.487	11.65
649.677	11.69
649.866	11.59
650.055	11.62
650.244	11.59
650.434	11.39
650.623	11.09
650.812	11.17
651.002	11.2
651.191	11.03
651.38	11.07
651.569	11.02
651.758	11.04
651.947	11.49
652.137	11.57
652.326	11.64
652.515	11.64
652.704	11.66
652.893	11.41
653.082	11.44
653.271	11.32
653.46	11.32
653.649	11.15
653.838	10.99
654.027	10.58
654.216	10.41
654.405	10.28
654.594	10.35
654.783	10.53
654.972	10.58
655.161	10.45
655.35	10.18
655.539	10.43
655.728	10.53
655.916	10.7
656.105	10.78
656.294	10.71
656.483	10.67
656.672	10.62
656.86	10.48
657.049	10.26
657.238	10.45
657.427	10.6
657.615	10.45
657.804	10.45
657.993	10.4
658.181	10.37
658.37	10.26
658.559	10.1
658.747	10.06
658.936	10.05
659.125	10.5
659.313	10.48
659.502	10.55
659.69	10.64
659.879	10.41
660.067	10.55
660.256	10.56
660.444	10.69
660.633	11
660.821	11.08
661.01	11.23
661.198	10.89
661.387	11.03
661.575	11.07
661.763	10.82
661.952	11.07
662.14	10.98
662.328	11.12
662.517	11.25
662.705	11.26
662.893	11.42
663.082	11.24
663.27	11.16
663.458	11.08
663.646	10.8
663.834	11.07
664.023	11.24
664.211	11.03
664.399	10.9
664.587	10.97
664.775	10.63
664.963	10.56
665.152	10.85
665.34	10.89
665.528	10.98
665.716	11.22
665.904	11.31
666.092	11.14
666.28	11.14
666.468	10.85
666.656	10.61
666.844	10.89
667.032	10.61
667.22	10.48
667.408	10.17
667.596	10.15
667.784	10.29
667.971	10.18
668.159	10.02
668.347	10.15
668.535	10.65
668.723	10.91
668.911	10.73
669.098	10.79
669.286	10.71
669.474	10.93
669.662	11.07
669.849	10.94
670.037	10.76
670.225	10.65
670.413	10.64
670.6	10.44
670.788	10.15
670.976	10.45
671.163	10.6
671.351	10.49
671.538	10.99
671.726	10.8
671.913	10.86
672.101	10.88
672.289	11.1
672.476	10.73
672.664	10.94
672.851	11.45
673.039	11.48
673.226	11.54
673.413	11.42
673.601	11.12
673.788	11.16
673.976	11.12
674.163	11.26
674.35	11.42
674.538	11.78
674.725	11.54
674.912	11.23
675.1	11.34
675.287	11.19
675.474	11.36
675.662	11.31
675.849	11.37
676.036	11.35
676.223	11.44
676.411	11.35
676.598	11.46
676.785	11.56
676.972	11.82
677.159	11.48
677.346	11.44
677.533	11.41
677.721	11.41
677.908	11.3
678.095	11.58
678.282	11.24
678.469	11.22
678.656	10.99
678.843	11.01
679.03	10.72
679.217	10.74
679.404	11.03
679.591	10.91
679.778	11.19
679.964	11.43
680.151	11.36
680.338	11.49
680.525	11.4
680.712	11.68
680.899	11.7
681.086	11.69
681.272	11.81
681.459	11.43
681.646	11.66
681.833	11.48
682.02	11.33
682.206	11.13
682.393	11.25
682.58	11.4
682.766	11.37
682.953	11.22
683.14	11.2
683.326	11.08
683.513	11.34
683.7	11.18
683.886	11.04
684.073	11.09
684.259	11.39
684.446	11.44
684.632	11.79
684.819	11.61
685.005	11.81
685.192	12.01
685.378	12.21
685.565	12.4
685.751	12.9
685.938	12.86
686.124	12.86
686.31	12.72
686.497	12.79
686.683	12.31
686.87	12.27
687.056	12.29
687.242	12.12
687.429	12.17
687.615	12.27
687.801	12.19
687.987	12.48
688.174	12.02
688.36	11.91
688.546	11.79
688.732	12.04
688.918	12.17
689.105	11.79
689.291	11.76
689.477	11.79
689.663	11.39
689.849	11.1
690.035	11.23
690.221	11.82
690.407	11.73
690.593	11.78
690.779	11.76
690.965	11.59
691.151	11.86
691.337	12
691.523	11.86
691.709	12.43
691.895	12.59
692.081	12.19
692.267	11.98
692.453	12.3
692.639	12.56
692.825	12.31
693.011	12.26
693.196	12.51
693.382	12.57
693.568	12.97
693.754	12.43
693.94	12.5
694.125	12.61
694.311	12.56
694.497	12.06
694.682	11.78
694.868	11.82
695.054	11.94
695.239	11.38
695.425	11.19
695.611	10.64
695.796	10.49
695.982	10.2
696.168	9.98
696.353	9.93
696.539	9.64
696.724	9.59
696.91	9.67
697.095	9.44
697.281	9.79
697.466	9.69
697.652	9.83
697.837	9.93
698.023	10.09
698.208	10.09
698.393	10.14
698.579	10.39
698.764	10.73
698.949	10.8
699.135	10.86
699.32	10.61
699.505	10.72
699.691	10.72
699.876	10.85
700.061	10.85
700.246	11.03
700.432	11.2
700.617	11.5
700.802	11.17
700.987	11.06
701.172	11.31
701.358	11.54
701.543	11.76
701.728	11.94
701.913	11.99
702.098	11.91
702.283	12.04
702.468	12.01
702.653	11.67
702.838	12.24
703.023	12.62
703.208	12.51
703.393	12.62
703.578	12.71
703.763	12.59
703.948	12.56
704.133	12.7
704.318	12.95
704.503	12.9
704.688	13.64
704.873	13.54
705.057	14.02
705.242	14.46
705.427	14.46
705.612	14.64
705.797	14.83
705.981	15.25
706.166	15.57
706.351	15.59
706.536	16.03
706.72	15.95
706.905	15.97
707.09	15.37
707.274	15.61
707.459	16.03
707.644	16.03
707.828	15.77
708.013	16.22
708.197	16.26
708.382	16.01
708.567	15.58
708.751	15.52
708.936	14.99
709.12	15.51
709.305	15.2
709.489	15.04
709.673	15.24
709.858	15.43
710.042	14.47
710.227	14.24
710.411	14.41
710.596	14.27
710.78	14.35
710.964	14.94
711.149	14.49
711.333	14.42
711.517	14.4
711.702	14.08
711.886	13.96
712.07	14.32
712.254	14.26
712.438	14.01
712.623	14.42
712.807	14.17
712.991	14.1
713.175	14.11
713.359	14.03
713.544	13.83
713.728	14.05
713.912	13.92
714.096	13.43
714.28	13.62
714.464	13.6
714.648	13.58
714.832	13.18
715.016	12.27
715.2	12.06
715.384	12.01
715.568	12.01
715.752	11.87
715.936	11.95
716.12	12.33
716.304	12.1
716.488	12.42
716.671	12.28
716.855	12.27
717.039	13.19
717.223	13.21
717.407	13.65
717.59	13.8
717.774	13.49
717.958	13.96
718.142	13.83
718.325	14.08
718.509	13.86
718.693	13.44
718.877	13.63
719.06	13.39
719.244	13.55
719.428	13.12
719.611	12.85
719.795	13.23
719.978	13
720.162	12.85
720.345	12.3
720.529	12.07
720.713	12.64
720.896	13.01
721.08	13.26
721.263	13.26
721.446	13.3
721.63	13.85
721.813	13.65
721.997	13.43
722.18	13.69
722.364	14.38
722.547	14.21
722.73	13.31
722.914	13.49
723.097	12.78
723.28	12.29
723.464	12.23
723.647	11.42
723.83	11.73
724.013	11.8
724.197	11.5
724.38	10.72
724.563	11.43
724.746	11.79
724.929	11.6
725.112	11.96
725.296	12.66
725.479	12.13
725.662	12.63
725.845	12.11
726.028	12.17
726.211	12.29
726.394	13.01
726.577	12.79
726.76	12.9
726.943	13.05
727.126	12.84
727.309	12.29
727.492	12.78
727.675	12.55
727.858	12.89
728.041	12.89
728.224	12.65
728.407	12.06
728.589	12.65
728.772	12.59
728.955	12.36
729.138	12.51
729.321	12.62
729.503	12
729.686	12.09
729.869	11.81
730.052	12.05
730.234	12
730.417	11.84
730.6	10.82
730.782	11.35
730.965	11.36
731.148	11.24
731.33	11.31
731.513	12.05
731.695	11.87
731.878	12.06
732.061	11.82
732.243	12.1
732.426	12.92
732.608	13.12
732.791	12.66
732.973	12.42
733.156	12.94
733.338	12.98
733.52	12.89
733.703	13.52
733.885	13.59
734.068	13.78
734.25	13.6
734.432	13.57
734.615	13.95
734.797	13.79
734.979	13.92
735.162	13.52
735.344	13.54
735.526	13.2
735.708	12.99
735.891	12.55
736.073	12.69
736.255	12.89
736.437	12.09
736.619	11.94
736.802	12.2
736.984	12.36
737.166	12.57
737.348	12.55
737.53	12.93
737.712	12.96
737.894	12.86
738.076	11.8
738.258	11.54
738.44	11.66
738.622	11.39
738.804	11.45
738.986	11.29
739.168	11.22
739.35	11
739.532	10.51
739.714	9.81
739.896	10.25
740.078	10.73
740.259	11.29
740.441	11.42
740.623	11.74
740.805	11.54
740.987	11.72
741.168	11.03
741.35	11.27
741.532	11.59
741.714	12.48
741.895	12.26
742.077	12.8
742.259	12.83
742.44	12.38
742.622	12.26
742.804	12.18
742.985	12.16
743.167	12.26
743.348	11.97
743.53	11.93
743.711	11.35
743.893	11.97
744.075	11.56
744.256	11.56
744.438	11.97
744.619	11.54
744.8	11.07
744.982	10.71
745.163	11.33
745.345	11.32
745.526	12.21
745.707	12.35
745.889	11.96
746.07	11.66
746.252	11.54
746.433	11.66
746.614	12.33
746.795	12.47
746.977	13.13
747.158	13.29
747.339	14.03
747.52	13.1
747.702	12.44
747.883	12.57
748.064	12.51
748.245	11.94
748.426	10.93
748.607	11.03
748.788	11.48
748.97	11.38
749.151	11.27
749.332	10.89
749.513	11.28
749.694	11.53
749.875	11.5
750.056	11.86
750.237	12.41
750.418	13.5
750.599	13.1
750.78	13.3
750.96	13.26
751.141	12.71
751.322	12.92
751.503	13.04
751.684	13.19
751.865	12.69
752.046	13.11
752.226	11.83
752.407	12.18
752.588	12.53
752.769	12.65
752.949	12.35
753.13	12.08
753.311	12.25
753.492	12.1
753.672	11.97
753.853	11.8
754.034	11.21
754.214	12.7
754.395	12.07
754.575	11.91
754.756	11.39
754.937	11.97
755.117	12.57
755.298	12.3
755.478	13.24
755.659	13.69
755.839	14.56
756.02	14.23
756.2	14.03
756.381	13.57
756.561	13.33
756.741	14.53
756.922	14.15
757.102	13.91
757.283	13.25
757.463	12.01
757.643	11.28
757.823	10.88
758.004	10.79
758.184	10.61
758.364	11.17
758.545	11.03
758.725	10.16
758.905	10.64
759.085	10.58
759.265	10.74
759.446	11.23
759.626	12.38
759.806	12.56
759.986	12.88
760.166	12.32
760.346	12.5
760.526	12.42
760.706	12.35
760.886	11.77
761.066	11.73
761.246	11.64
761.426	11.37
761.606	10.9
761.786	10.43
761.966	10.58
762.146	10.51
762.326	10.89
762.506	11.22
762.686	11.04
762.866	10.92
763.046	10.88
763.225	11.41
763.405	11.18
763.585	10.77
763.765	11.02
763.945	11.4
764.124	11.8
764.304	12.01
764.484	12.25
764.664	13.08
764.843	13.32
765.023	13.77
765.203	13.32
765.382	14.18
765.562	15.22
765.741	15.51
765.921	15.25
766.101	15.64
766.28	15.36
766.46	15.52
766.639	14.99
766.819	14.47
766.998	14.29
767.178	15.12
767.357	14.88
767.537	14.26
767.716	14.25
767.896	14.01
768.075	13.74
768.254	13.5
768.434	13.18
768.613	13.05
768.792	13.6
768.972	13.81
769.151	13.83
769.33	13.38
769.51	13.46
769.689	13.06
769.868	13.02
770.047	13
770.226	12
770.406	11.73
770.585	12.6
770.764	12.2
770.943	11.98
771.122	11.63
771.301	11.73
771.48	11.12
771.66	11.34
771.839	11.78
772.018	12.29
772.197	12.3
772.376	11.8
772.555	11.15
772.734	11.84
772.913	12.46
773.092	12.52
773.271	12.18
773.449	12.01
773.628	11.6
773.807	11.39
773.986	10.58
774.165	11.85
774.344	12.93
774.523	12.92
774.701	11.79
774.88	11.99
775.059	11.6
775.238	11.78
775.417	12.7
775.595	13.92
775.774	15.01
775.953	15.54
776.131	15.15
776.31	14.25
776.489	14.06
776.667	16.14
776.846	16.1
777.025	16.36
777.203	16.95
777.382	17.43
777.56	16.23
777.739	15.46
777.917	15.16
778.096	14.59
778.274	14.51
778.453	15.14
778.631	15.05
778.81	13.92
778.988	13.96
779.166	13.45
779.345	12.38
779.523	12.84
779.702	12.3
779.88	13.03
780.058	14.15
780.237	14.99
780.415	13.94
780.593	13.87
780.771	14.96
780.95	14.83
781.128	14.67
781.306	15.24
781.484	15.44
781.662	15.98
781.841	16.05
782.019	15.29
782.197	14.39
782.375	13.71
782.553	12.19
782.731	11.68
782.909	10.81
783.087	10.97
783.265	10.81
783.443	10.12
783.621	9.54
783.799	10.05
783.977	9.46
784.155	9.76
784.333	11.16
784.511	11.76
784.689	11.31
784.867	11.51
785.045	12.24
785.223	13.49
785.4	14.47
785.578	15.69
785.756	14.5
785.934	15.81
786.112	16.14
786.289	15.7
786.467	14.47
786.645	14.59
786.823	14.78
787	14.66
787.178	12.67
787.356	12.62
787.533	11.93
787.711	11.31
787.889	10.57
788.066	10.1
788.244	10.24
788.421	10.91
788.599	10.82
788.776	11.25
788.954	10.03
789.131	10.64
789.309	10.41
789.486	10.3
789.664	10.48
789.841	11.29
790.019	12.1
790.196	13.03
790.373	13.82
790.551	13.88
790.728	14.12
790.906	15.41
791.083	17.12
791.26	16.62
791.437	17.45
791.615	18.41
791.792	17.18
791.969	16.82
792.146	15.8
792.324	15.83
792.501	14.79
792.678	16.31
792.855	15.46
793.032	13.63
793.209	15.14
793.387	13.61
793.564	13.2
793.741	15.01
793.918	14.61
794.095	14.74
794.272	15.06
794.449	16.3
794.626	15.51
794.803	16.19
794.98	15.92
795.157	13.99
795.334	14.23
795.511	14.73
795.688	13.15
795.864	13.95
796.041	15.23
796.218	14.11
796.395	14.36
796.572	12.37
796.749	11.87
796.925	12.48
797.102	13.21
797.279	13.2
797.456	12.27
797.632	14.26
797.809	14.04
797.986	12.47
798.162	12.04
798.339	12.1
798.516	13.42
798.692	14.5
798.869	13.82
799.046	13.62
799.222	14.44
799.399	15.16
799.575	14.32
799.752	13.62
799.928	14.9
800.105	17.43
800.281	17.14
800.458	17.8
800.634	16.95
800.811	16.52
800.987	16.99
801.163	16.02
801.34	15.03
801.516	14.53
801.692	13.92
801.869	12.79
802.045	10.61
802.221	9.36
802.398	7.67
802.574	8.02
802.75	10.53
802.926	11.22
803.103	11
803.279	11.76
803.455	11.18
803.631	12.53
803.807	13.38
803.983	14.39
804.16	14.55
804.336	15.54
804.512	16.66
804.688	15.19
804.864	14.28
805.04	16.9
805.216	16.86
805.392	17.2
805.568	16.35
805.744	14.76
805.92	15.07
806.096	16.55
806.272	15.08
806.448	13.32
806.623	12.69
806.799	12.08
806.975	11.29
807.151	11.36
807.327	10.27
807.503	10.83
807.678	11.7
807.854	11.55
808.03	11.31
808.206	11.46
808.381	9.99
808.557	11.98
808.733	13.67
808.908	13.36
809.084	11.87
809.26	13.66
809.435	14.8
809.611	14.63
809.787	13.42
809.962	12.21
810.138	14.54
810.313	17.55
810.489	15.9
810.664	14.76
810.84	12.22
811.015	14.85
811.191	15.66
811.366	14.59
811.542	14.82
811.717	14.56
811.892	14.72
812.068	14.87
812.243	13.31
812.419	13.04
812.594	10.87
812.769	12.71
812.944	11.19
813.12	12.52
813.295	14.52
813.47	15.57
813.645	16.28
813.821	17.26
813.996	17.01
814.171	17.07
814.346	17.08
814.521	19.41
814.697	18.72
814.872	18.51
815.047	17.22
815.222	14.09
815.397	13.01
815.572	15.49
815.747	14.87
815.922	14.39
816.097	14.93
816.272	15.18
816.447	15.6
816.622	15.14
816.797	15.37
816.972	14.02
817.147	15.13
817.322	15.96
817.496	13.44
817.671	14.67
817.846	14.08
818.021	14.88
818.196	15.87
818.371	14.11
818.545	14.34
818.72	13.48
818.895	14.05
819.069	14.23
819.244	13.09
819.419	13.27
819.594	12.14
819.768	12.3
819.943	11.47
820.117	11
820.292	10.72
820.467	11.62
820.641	11.25
820.816	10.96
820.99	10.89
821.165	10.82
821.339	10.32
821.514	10.24
821.688	10
821.863	9.58
822.037	9.89
822.212	10.33
822.386	10.04
822.56	10.1
822.735	10.29
822.909	10.15
823.084	10.01
823.258	10.26
823.432	10.24
823.606	10.39
823.781	10.74
823.955	10.56
824.129	10.74
824.303	11.15
824.478	11.46
824.652	11.31
824.826	11.22
825	11.46
825.174	11.66
825.348	12.15
825.523	12.04
825.697	11.43
825.871	11.12
826.045	10.34
826.219	9.91
826.393	9.67
826.567	9.01
826.741	9.19
826.915	9.81
827.089	9.83
827.263	9.92
827.437	9.68
827.611	10.86
827.784	11.52
827.958	12.39
828.132	12.16
828.306	12.72
828.48	13.59
828.654	14.14
828.827	14.03
829.001	14.1
829.175	13.98
829.349	14.52
829.522	14.25
829.696	14.22
829.87	13.78
830.044	13.95
830.217	13.79
830.391	14.37
830.565	14.89
830.738	14.89
830.912	14.92
831.085	13.97
831.259	14.71
831.432	13.36
831.606	13.04
831.779	12.37
831.953	14.35
832.126	13.32
832.3	13.56
832.473	13.76
832.647	13.25
832.82	13.2
832.994	13.51
833.167	12.5
833.34	12.41
833.514	11.91
833.687	11.13
833.86	10.07
834.034	11.14
834.207	10.21
834.38	9.76
834.553	10.02
834.727	10.27
834.9	10.7
835.073	11.36
835.246	12.57
835.419	14.02
835.593	15.4
835.766	15.89
835.939	15.5
836.112	16.15
836.285	16.63
836.458	17.69
836.631	17.71
836.804	17.77
836.977	19.17
837.15	17.88
837.323	16.8
837.496	17.08
837.669	18.94
837.842	20.65
838.015	18.13
838.188	19.37
838.361	18.76
838.533	19.4
838.706	19.34
838.879	19.66
839.052	19.51
839.225	20.41
839.398	20.94
839.57	19.9
839.743	18.68
839.916	21.97
840.088	20.89
840.261	20.32
840.434	19.04
840.607	19.24
840.779	17.98
840.952	18.16
841.124	17.02
841.297	16.99
841.47	17.7
841.642	16.86
841.815	16.33
841.987	17
842.16	18.74
842.332	18.95
842.505	20.85
842.677	24.26
842.85	28.7
843.022	28.39
843.194	25.14
843.367	22.03
843.539	25.96
843.712	24.02
843.884	23.42
844.056	21.94
844.229	22.31
844.401	19.84
844.573	18.63
844.745	14.61
844.918	15.42
845.09	21.08
845.262	24
845.434	20.8
845.606	23.36
845.779	22.07
845.951	22.04
846.123	22.76
846.295	25.85
846.467	22.35
846.639	21.89
846.811	21.5
846.983	14.92
847.155	13.98
847.327	12.43
847.499	12.18
847.671	7
847.843	7.28
848.015	10.3
848.187	12.64
848.359	12.92
848.531	11.16
848.703	10.95
848.875	15.03
849.047	16.11
849.218	14.42
849.39	12.1
849.562	20.74
849.734	22.9
849.905	20.72
850.077	18.12
850.249	19.15
850.421	24.26
850.592	25.37
850.764	22.87
850.936	19.12
851.107	22.38
851.279	25.47
851.451	25.25
851.622	24.26
851.794	25.68
851.965	22.08
852.137	21.9
852.308	20.26
852.48	20.47
852.651	25.1
852.823	26.32
852.994	26.27
853.166	25.77
853.337	24.98
853.509	24.9
853.68	23.72
853.851	27.29
854.023	27.9
854.194	27.98
854.365	29.56
854.537	27.99
854.708	31.06
854.879	32.48
855.05	31.21
855.222	28.11
855.393	24.95
855.564	26.29
855.735	24
855.906	23.67
856.078	21.99
856.249	23.56
856.42	26.63
856.591	24.8
856.762	25
856.933	24.24
857.104	24.64
857.275	25.07
857.446	20.37
857.617	25.11
857.788	21.72
857.959	17.86
858.13	11.66
858.301	10.89
858.472	11.27
858.643	9.7
858.814	13.85
858.985	18.74
859.155	28.66
859.326	28.94
859.497	32.78
859.668	34.52
859.839	40.09
860.009	42.32
860.18	38.06
860.351	40.1
860.522	43.85
860.692	41.27
860.863	35.45
861.034	28.03
861.204	31.08
861.375	29.95
861.546	31.31
861.716	27.87
861.887	30.81
862.057	35.67
862.228	29.33
862.398	28.04
862.569	28.62
862.739	37.25
862.91	36.22
863.08	34.83
863.251	28.41
863.421	26.76
863.592	26.44
863.762	26.16
863.932	24.57
864.103	27.48
864.273	23.89
864.443	18.64
864.614	18.05
864.784	18.08
864.954	17.98
865.125	16.68
865.295	19.85
865.465	23.23
865.635	20.89
865.805	20.83
865.976	16.92
866.146	19.66
866.316	24
866.486	19.16
866.656	18.96
866.826	23.54
866.996	27.2
867.166	24.94
867.336	18.85
867.506	20.08
867.676	17.8
867.846	21.75
868.016	20.8
868.186	22.52
868.356	28.82
868.526	30.73
868.696	31.87
868.866	28
869.036	27.09
869.206	36.01
869.376	32.07
869.545	32.44
869.715	34.68
869.885	31.56
870.055	28.09
870.224	26.8
870.394	21.04
870.564	14.07
870.734	20.13
870.903	23.68
871.073	19.8
871.243	18.95
871.412	16.6
871.582	19.01
871.751	15.4
871.921	12.46
872.091	5.69
872.26	14.33
872.43	18.63
872.599	21.58
872.769	19.47
872.938	18.38
873.108	20.62
873.277	24.89
873.446	20.92
873.616	25.58
873.785	26.01
873.955	28.94
874.124	23.52
874.293	17.9
874.463	14.91
874.632	18.33
874.801	22.85
874.971	23.54
875.14	19.08
875.309	23.27
875.478	24.35
875.647	23.33
875.817	24.61
875.986	27.12
876.155	28.96
876.324	26.37
876.493	22.2
876.662	13.42
876.831	13.87
877	16.26
877.17	13.94
877.339	9.29
877.508	7.31
877.677	8.6
877.846	9.85
878.015	10.89
878.184	8.62
878.352	16.32
878.521	17.51
878.69	12.2
878.859	10.53
879.028	10.58
879.197	10.94
879.366	15.98
879.534	15.25
879.703	12.75
879.872	12.02
880.041	9.71
880.21	4.58
880.378	6.1
880.547	7.97
880.716	9.75
880.884	8.93
881.053	8.86
881.222	8.92
881.39	8.31
881.559	9.13
881.727	9.42
881.896	10.98
882.065	11.2
882.233	11.99
882.402	12.04
882.57	10.74
882.739	10.96
882.907	11.87
883.076	11.59
883.244	11.64
883.412	12.09
883.581	12.35
883.749	11.02
883.918	11.79
884.086	11.93
884.254	12.05
884.423	13.7
884.591	14.31
884.759	13.03
884.927	12.2
885.096	13.14
885.264	11.49
885.432	10.23
885.6	14.89
885.769	14.65
885.937	14.98
886.105	14.73
886.273	14.59
886.441	13.08
886.609	13.47
886.777	19.04
886.945	17.36
887.113	18.23
887.281	18.76
887.449	17.94
887.617	18.68
887.785	11.56
887.953	12.66
888.121	12.43
888.289	17.58
888.457	21.61
888.625	18.7
888.793	22.24
888.961	22.52
889.129	24.61
889.296	24.11
889.464	23.81
889.632	31.65
889.8	33.77
889.967	33.65
890.135	30.57
