Data from 2938850__Reflection_01.txt Node
Date: Wed Mar 11 13:09:02 EDT 2015
User: robert
Spectrometer: USB4E03002
Autoset integration time: false
Trigger mode: 4
Integration Time (sec): 1.000000E-1
Scans to average: 10
Electric dark correction enabled: false
Nonlinearity correction enabled: false
Boxcar width: 5
Stray light correction enabled: false
XAxis mode: Wavelengths
Stop averaging: false
Number of Pixels in Spectrum: 3648
>>>>>Begin Spectral Data<<<<<
177.575	2425.93
177.794	-1445.83
178.014	-562.33
178.233	-1369.12
178.452	-749.64
178.672	-339.63
178.891	-245.45
179.11	-172.77
179.33	-225.7
179.549	-195
179.768	-365.87
179.987	-327.85
180.207	-257.48
180.426	-226.91
180.645	-191.95
180.864	-80.38
181.084	-145.74
181.303	-759.52
181.522	-341.59
181.741	-193.49
181.96	-378.01
182.179	-1046.55
182.398	-621.18
182.618	784.62
182.837	1209.23
183.056	1608.51
183.275	346.07
183.494	374.39
183.713	538.79
183.932	316.24
184.151	306.52
184.37	278.57
184.589	444.37
184.808	552.55
185.027	-1278.57
185.246	-592.22
185.465	-225.46
185.684	-101.43
185.903	-139.64
186.122	-119.49
186.341	-104.39
186.56	-90.6
186.779	-89.71
186.998	-68.74
187.216	-32.98
187.435	-39.09
187.654	-32.52
187.873	-31.43
188.092	-33.96
188.311	-23.38
188.53	-10.66
188.748	3.83
188.967	0.83
189.186	5.41
189.405	-1.95
189.623	-10.15
189.842	-15.45
190.061	-20.43
190.28	-16
190.498	-20.98
190.717	-20.31
190.936	-53.07
191.154	-60.17
191.373	-67.49
191.592	-90.7
191.81	-86.01
192.029	-121.35
192.248	-207.37
192.466	-210.61
192.685	-236.67
192.904	-238.89
193.122	-186.53
193.341	-450.35
193.559	-440.67
193.778	-775.31
193.996	-470.9
194.215	-298.17
194.433	-157.61
194.652	-113.45
194.87	-128.54
195.089	-123.99
195.307	-150.99
195.526	-225.93
195.744	-78.41
195.963	-60.42
196.181	-61.57
196.399	-29.78
196.618	-65.81
196.836	-87.25
197.055	-63.55
197.273	-44.86
197.491	-98.2
197.71	-116.87
197.928	-66.67
198.146	-92.27
198.365	-120.35
198.583	-100.51
198.801	-102.42
199.019	-97.15
199.238	-118.13
199.456	-147.35
199.674	-199.46
199.892	-91.96
200.111	-57.68
200.329	-75.14
200.547	-90.25
200.765	-87.51
200.983	-117.82
201.202	-91.92
201.42	-60.56
201.638	-36.92
201.856	-43.53
202.074	-56.49
202.292	-79.94
202.51	-123.87
202.728	-171.84
202.946	-130.06
203.165	-138.73
203.383	-103.41
203.601	-180.92
203.819	-268.99
204.037	-285.61
204.255	-170.17
204.473	-159.83
204.691	-134.48
204.909	-129.47
205.127	-120.96
205.345	-168.3
205.562	-117.93
205.78	-128.79
205.998	-186.95
206.216	-204.15
206.434	-110.16
206.652	-88.02
206.87	-92.18
207.088	-74.62
207.306	-70.39
207.523	-59.79
207.741	-51.93
207.959	-69.87
208.177	-75.46
208.395	-66.1
208.612	-52.6
208.83	-71.25
209.048	-86.64
209.266	-34.63
209.483	-75.85
209.701	-91.49
209.919	-79.17
210.136	-98.6
210.354	-68.89
210.572	-54.06
210.79	-46.72
211.007	-93.67
211.225	-95.96
211.442	-93.58
211.66	-171.35
211.878	-118.94
212.095	-188.62
212.313	-214.24
212.53	-177.94
212.748	-136.14
212.966	-155.77
213.183	-150.31
213.401	-90.62
213.618	-86.31
213.836	-69.36
214.053	-54.71
214.271	-63.36
214.488	-18.27
214.705	-23.8
214.923	-29.48
215.14	-60.99
215.358	-48.33
215.575	-36.98
215.793	-56.63
216.01	-77.72
216.227	-83.14
216.445	-58.07
216.662	-52.31
216.879	-50.89
217.097	-37.82
217.314	-29.97
217.531	-18.38
217.749	-19.45
217.966	-26.06
218.183	-17.23
218.4	-21.98
218.618	-31.3
218.835	-36.34
219.052	-42.2
219.269	-38.78
219.487	-37.73
219.704	-37.68
219.921	-38.36
220.138	-35.42
220.355	-29.85
220.572	-23.13
220.79	-12.62
221.007	-8.73
221.224	-26.17
221.441	-24.64
221.658	-17.86
221.875	-18.22
222.092	-18.22
222.309	-20.74
222.526	-22.69
222.743	-23.5
222.96	-28.44
223.177	-30.98
223.394	-31.91
223.611	-22.81
223.828	-17.9
224.045	-18.88
224.262	-16.03
224.479	-15.64
224.696	-9.21
224.913	-6.12
225.13	-3.63
225.347	-4.9
225.564	-4.11
225.781	-2.99
225.997	-2.41
226.214	-1.48
226.431	-1.96
226.648	-2.13
226.865	-1.87
227.082	-1.86
227.298	-1.56
227.515	-0.98
227.732	-0.18
227.949	0.16
228.165	0.41
228.382	0.68
228.599	1.08
228.816	1.25
229.032	1.96
229.249	1.95
229.466	1.41
229.682	1.14
229.899	1.79
230.116	1.63
230.332	1.35
230.549	0.92
230.765	0.88
230.982	0.68
231.199	0.84
231.415	-0.02
231.632	-0.18
231.848	-0.02
232.065	2.07
232.281	-0.38
232.498	0.11
232.714	-0.3
232.931	-0.05
233.147	0.98
233.364	-0.42
233.58	-0.45
233.797	0.09
234.013	1.17
234.23	2.29
234.446	1.34
234.662	1.58
234.879	1.41
235.095	2.88
235.312	3.4
235.528	1.67
235.744	2.17
235.961	1.35
236.177	1.13
236.393	1.26
236.61	1.21
236.826	1
237.042	0.71
237.258	-0.1
237.475	-1.24
237.691	-1.53
237.907	-0.09
238.123	-0.32
238.339	1.02
238.556	0.26
238.772	-0.51
238.988	-0.63
239.204	-0.42
239.42	0.75
239.636	1.38
239.853	1.66
240.069	0.72
240.285	0.43
240.501	1.65
240.717	1.57
240.933	1.46
241.149	1.15
241.365	0.31
241.581	0.07
241.797	0.05
242.013	0.51
242.229	0.8
242.445	1.65
242.661	1.69
242.877	1.13
243.093	1.11
243.309	1.02
243.525	2.02
243.741	2.85
243.957	2.83
244.173	2.55
244.388	2.39
244.604	2.41
244.82	1.45
245.036	1.64
245.252	1.56
245.468	2.1
245.683	3.02
245.899	2.61
246.115	2.94
246.331	3.57
246.547	3.64
246.762	3.74
246.978	3.78
247.194	4.16
247.409	4.17
247.625	4.41
247.841	4.06
248.057	4
248.272	3.94
248.488	3.63
248.703	3.71
248.919	4
249.135	3.63
249.35	3.4
249.566	3.13
249.782	3.27
249.997	2.68
250.213	2.76
250.428	2.45
250.644	2.39
250.859	2.66
251.075	2.13
251.29	1.94
251.506	2.43
251.721	2.77
251.937	2.84
252.152	2.68
252.368	3.59
252.583	3.8
252.798	3.74
253.014	4.21
253.229	4.22
253.445	4.38
253.66	4
253.875	4.2
254.091	3.56
254.306	3.99
254.521	3.72
254.737	2.66
254.952	2.11
255.167	2.09
255.383	1.64
255.598	1.71
255.813	1.66
256.028	2.31
256.244	2.59
256.459	3.75
256.674	3.1
256.889	2.72
257.104	3.12
257.32	3.46
257.535	3.18
257.75	3.09
257.965	2.54
258.18	2.62
258.395	2.72
258.61	2.73
258.826	2.39
259.041	2.42
259.256	2.68
259.471	2.89
259.686	3.09
259.901	3.25
260.116	3.29
260.331	3.38
260.546	3.33
260.761	3.18
260.976	2.82
261.191	2.95
261.406	2.95
261.621	2.93
261.836	2.62
262.05	2.04
262.265	1.81
262.48	1.53
262.695	1.15
262.91	1.24
263.125	1.17
263.34	1.55
263.555	1.23
263.769	1.09
263.984	0.35
264.199	-0.19
264.414	0.13
264.629	-0.17
264.843	0.3
265.058	0.81
265.273	0.26
265.488	-0.26
265.702	0.06
265.917	0.62
266.132	0.36
266.346	1.47
266.561	2.08
266.776	2.31
266.99	2.6
267.205	1.88
267.42	1.86
267.634	1.99
267.849	2.74
268.063	2.51
268.278	2.13
268.492	2.98
268.707	2.37
268.922	2.31
269.136	2.19
269.351	2.2
269.565	2.72
269.78	2.61
269.994	2.44
270.209	2.26
270.423	2.25
270.637	2.35
270.852	2.1
271.066	2.36
271.281	2.14
271.495	2.33
271.709	1.82
271.924	2.04
272.138	2.13
272.353	2.04
272.567	2
272.781	2.03
272.996	2.02
273.21	2.08
273.424	2.3
273.638	2.4
273.853	2.4
274.067	2.81
274.281	2.84
274.495	2.93
274.71	3.14
274.924	3.09
275.138	3.23
275.352	3.4
275.566	3.51
275.781	3.02
275.995	2.97
276.209	2.45
276.423	2.6
276.637	2.03
276.851	2.1
277.065	2.09
277.279	2.24
277.493	2.19
277.707	2.07
277.921	1.85
278.135	1.99
278.349	1.91
278.563	1.95
278.777	1.92
278.991	2.22
279.205	1.82
279.419	1.86
279.633	1.71
279.847	2.19
280.061	2.41
280.275	2.71
280.489	2.56
280.703	2.74
280.917	3.14
281.131	2.99
281.344	2.83
281.558	3
281.772	2.77
281.986	2.86
282.2	2.56
282.414	2.44
282.627	2.14
282.841	2.47
283.055	2.7
283.269	2.71
283.482	2.73
283.696	2.87
283.91	2.94
284.123	3.06
284.337	3.05
284.551	3.08
284.764	2.97
284.978	2.93
285.192	2.75
285.405	2.52
285.619	2.35
285.833	2.68
286.046	2.78
286.26	2.9
286.473	3.01
286.687	3.11
286.9	3.3
287.114	3.39
287.327	3.42
287.541	3.42
287.754	3.69
287.968	3.68
288.181	3.65
288.395	3.52
288.608	3.18
288.822	3.09
289.035	3.08
289.248	2.7
289.462	2.82
289.675	3.12
289.889	3.19
290.102	3.27
290.315	3.26
290.529	3.04
290.742	3.06
290.955	3.09
291.169	3.25
291.382	3.5
291.595	3.6
291.808	3.56
292.022	3.26
292.235	2.87
292.448	2.39
292.661	2.59
292.875	2.77
293.088	3.25
293.301	3.46
293.514	3.5
293.727	3.41
293.94	3.59
294.153	3.5
294.367	3.79
294.58	4.56
294.793	4.75
295.006	4.78
295.219	4.69
295.432	4.52
295.645	4.6
295.858	4.42
296.071	4.24
296.284	4.13
296.497	4.07
296.71	4.05
296.923	3.98
297.136	4.17
297.349	4.08
297.562	4.18
297.775	4.35
297.988	4.52
298.201	4.84
298.414	5.04
298.626	5.19
298.839	5.5
299.052	5.68
299.265	5.5
299.478	5.51
299.691	5.84
299.903	5.96
300.116	5.81
300.329	5.58
300.542	5.45
300.755	5.64
300.967	5.6
301.18	5.61
301.393	5.52
301.605	5.96
301.818	6.02
302.031	5.93
302.243	6.04
302.456	6.3
302.669	6.24
302.881	6.68
303.094	6.73
303.307	6.76
303.519	6.86
303.732	6.82
303.944	6.49
304.157	6.67
304.37	6.85
304.582	6.52
304.795	6.26
305.007	6.5
305.22	6.33
305.432	6.17
305.645	6.47
305.857	6.22
306.069	6.48
306.282	6.75
306.494	6.49
306.707	6.04
306.919	6.39
307.132	6.61
307.344	7.01
307.556	6.73
307.769	6.72
307.981	6.95
308.193	7.07
308.406	6.93
308.618	7.11
308.83	7.34
309.043	7.64
309.255	7.65
309.467	7.57
309.679	7.24
309.892	7.58
310.104	7.73
310.316	7.66
310.528	7.92
310.74	8.22
310.953	8.04
311.165	7.76
311.377	7.89
311.589	7.79
311.801	7.93
312.013	7.96
312.225	7.83
312.437	7.71
312.649	7.55
312.862	7.15
313.074	7.11
313.286	7.11
313.498	7.47
313.71	7.39
313.922	7.34
314.134	7.08
314.346	6.96
314.558	6.94
314.77	6.86
314.982	6.77
315.193	7.09
315.405	6.83
315.617	6.76
315.829	6.48
316.041	6.55
316.253	6.58
316.465	6.66
316.677	6.95
316.888	6.94
317.1	6.78
317.312	6.86
317.524	7.05
317.736	6.54
317.947	7.1
318.159	7.39
318.371	7.22
318.583	7.6
318.794	7.82
319.006	8.19
319.218	8.38
319.43	8.68
319.641	8.9
319.853	8.42
320.064	9.14
320.276	8.74
320.488	8.64
320.699	8.6
320.911	8.88
321.123	8.97
321.334	8.45
321.546	8.53
321.757	8.83
321.969	8.83
322.18	9.55
322.392	9.73
322.603	9.32
322.815	9.55
323.026	9.74
323.238	9.47
323.449	9.18
323.661	9.29
323.872	9.09
324.083	8.96
324.295	9.16
324.506	8.49
324.718	8.16
324.929	8.7
325.14	8.74
325.352	8.72
325.563	8.8
325.774	8.88
325.986	8.74
326.197	8.72
326.408	8.6
326.62	8.57
326.831	9.24
327.042	9.14
327.253	8.96
327.464	8.74
327.676	8.59
327.887	8.54
328.098	8.86
328.309	8.95
328.52	8.9
328.732	8.99
328.943	8.92
329.154	8.79
329.365	9.28
329.576	9.39
329.787	9.46
329.998	9.57
330.209	9.65
330.42	9.67
330.631	9.71
330.842	9.5
331.053	9.44
331.264	9.26
331.475	9.7
331.686	9.26
331.897	9.23
332.108	8.99
332.319	9.31
332.53	9.49
332.741	9.43
332.952	9.09
333.163	9.5
333.374	9.96
333.585	9.87
333.795	9.53
334.006	9.83
334.217	9.89
334.428	10.21
334.639	9.97
334.849	9.59
335.06	9.31
335.271	9.66
335.482	9.68
335.692	9.41
335.903	9.48
336.114	9.33
336.325	9.33
336.535	9.15
336.746	9.33
336.957	9.32
337.167	9.34
337.378	9.21
337.589	9.31
337.799	9.31
338.01	9.15
338.22	9.11
338.431	8.69
338.642	8.46
338.852	8.65
339.063	8.17
339.273	7.99
339.484	7.94
339.694	8.08
339.905	8.08
340.115	8.06
340.326	8.24
340.536	8.36
340.746	9.04
340.957	9
341.167	9.12
341.378	9.22
341.588	9.25
341.799	9.42
342.009	9.79
342.219	9.7
342.43	9.71
342.64	9.47
342.85	9.09
343.061	8.72
343.271	8.8
343.481	8.57
343.691	8.49
343.902	8.74
344.112	8.51
344.322	8.41
344.532	8.51
344.743	8.31
344.953	8.25
345.163	8.4
345.373	8.49
345.583	8.6
345.793	8.75
346.004	8.92
346.214	8.67
346.424	8.74
346.634	8.53
346.844	8.61
347.054	8.77
347.264	8.84
347.474	8.9
347.684	9.01
347.894	8.62
348.104	8.48
348.314	8.26
348.524	8.54
348.734	8.6
348.944	8.3
349.154	7.93
349.364	7.88
349.574	8
349.784	8.15
349.994	7.98
350.204	8.26
350.413	8.05
350.623	8.09
350.833	7.79
351.043	7.36
351.253	7.73
351.463	8.09
351.672	7.99
351.882	7.94
352.092	7.66
352.302	7.58
352.511	7.69
352.721	7.84
352.931	8.1
353.141	8.18
353.35	8.34
353.56	8.19
353.77	7.78
353.979	7.93
354.189	7.98
354.399	8
354.608	8.15
354.818	8.02
355.027	8.04
355.237	7.77
355.447	7.83
355.656	8.06
355.866	7.94
356.075	8.15
356.285	8.38
356.494	8.43
356.704	8.62
356.913	8.71
357.123	8.57
357.332	8.7
357.542	8.81
357.751	8.86
357.96	8.87
358.17	9.09
358.379	9.15
358.589	8.84
358.798	8.69
359.007	8.6
359.217	8.51
359.426	8.72
359.635	8.56
359.845	8.42
360.054	8.31
360.263	8.19
360.472	8.12
360.682	8.05
360.891	8.04
361.1	8.14
361.309	8.02
361.519	7.93
361.728	7.84
361.937	7.86
362.146	7.91
362.355	7.89
362.564	7.9
362.774	7.93
362.983	7.94
363.192	7.78
363.401	7.71
363.61	7.84
363.819	7.78
364.028	7.83
364.237	7.93
364.446	8.03
364.655	8.2
364.864	8.24
365.073	8.04
365.282	8
365.491	8.31
365.7	8.45
365.909	8.26
366.118	8.2
366.327	8.11
366.536	8
366.745	7.89
366.954	7.75
367.162	7.78
367.371	7.76
367.58	7.54
367.789	7.6
367.998	7.27
368.207	7.34
368.415	7.18
368.624	7.22
368.833	7.15
369.042	7.25
369.25	7.11
369.459	7.12
369.668	7.17
369.877	7.24
370.085	6.97
370.294	7.15
370.503	7.26
370.711	7.32
370.92	7.23
371.129	7.17
371.337	6.95
371.546	6.92
371.754	6.86
371.963	6.8
372.171	6.77
372.38	6.81
372.589	6.67
372.797	6.47
373.006	6.65
373.214	6.72
373.423	6.76
373.631	6.9
373.84	7
374.048	6.97
374.256	7.12
374.465	7.09
374.673	7.01
374.882	7.05
375.09	7.14
375.298	7.01
375.507	6.71
375.715	6.54
375.923	6.34
376.132	6.38
376.34	6.3
376.548	6.13
376.757	6.14
376.965	6.15
377.173	6.24
377.381	6.26
377.59	6.22
377.798	6.38
378.006	6.49
378.214	6.61
378.423	6.37
378.631	6.37
378.839	6.29
379.047	6.22
379.255	6.19
379.463	6.1
379.671	6.01
379.879	6.05
380.088	6.09
380.296	6.03
380.504	6.04
380.712	6.23
380.92	6.15
381.128	6.13
381.336	6.27
381.544	6.38
381.752	6.4
381.96	6.37
382.168	6.26
382.376	6.05
382.584	6.07
382.791	5.98
382.999	5.66
383.207	5.66
383.415	5.79
383.623	5.63
383.831	5.57
384.039	5.39
384.247	5.21
384.454	5.48
384.662	5.71
384.87	5.68
385.078	5.67
385.285	5.93
385.493	5.81
385.701	5.75
385.909	5.91
386.116	5.78
386.324	5.82
386.532	6.07
386.739	5.82
386.947	5.74
387.155	5.9
387.362	5.9
387.57	5.72
387.778	5.98
387.985	5.88
388.193	5.88
388.4	5.75
388.608	5.75
388.816	5.67
389.023	5.59
389.231	5.52
389.438	5.3
389.646	5.25
389.853	5.47
390.061	5.39
390.268	5.57
390.475	5.41
390.683	5.61
390.89	5.58
391.098	5.59
391.305	5.59
391.512	5.6
391.72	5.67
391.927	5.52
392.135	5.51
392.342	5.36
392.549	5.21
392.756	5.2
392.964	5.05
393.171	5.19
393.378	5.14
393.586	5.27
393.793	5.17
394	5.11
394.207	5.26
394.414	5.32
394.622	5.34
394.829	5.27
395.036	5.11
395.243	5.11
395.45	5.06
395.657	5.04
395.864	4.93
396.072	5.16
396.279	5.06
396.486	4.87
396.693	4.66
396.9	4.71
397.107	4.71
397.314	4.92
397.521	4.82
397.728	4.58
397.935	4.64
398.142	4.56
398.349	4.4
398.556	4.41
398.763	4.46
398.97	4.32
399.177	4.28
399.383	4.39
399.59	4.43
399.797	4.6
400.004	4.71
400.211	4.73
400.418	4.8
400.625	4.92
400.831	5
401.038	5.01
401.245	5.16
401.452	5.07
401.658	5.09
401.865	5.03
402.072	5.07
402.279	5.05
402.485	4.86
402.692	4.98
402.899	4.8
403.105	4.77
403.312	4.82
403.519	4.88
403.725	5.01
403.932	4.92
404.138	4.83
404.345	4.83
404.552	4.89
404.758	4.98
404.965	4.88
405.171	4.98
405.378	5.05
405.584	5.08
405.791	4.99
405.997	5.01
406.204	5.01
406.41	5.07
406.617	5.04
406.823	5.05
407.029	5.12
407.236	5.31
407.442	5.07
407.649	4.86
407.855	4.81
408.061	4.84
408.268	4.76
408.474	4.69
408.68	4.8
408.887	4.7
409.093	4.59
409.299	4.56
409.505	4.36
409.712	4.56
409.918	4.68
410.124	4.75
410.33	4.78
410.537	4.86
410.743	4.88
410.949	4.69
411.155	4.71
411.361	4.7
411.567	4.71
411.773	4.67
411.98	4.64
412.186	4.59
412.392	4.57
412.598	4.71
412.804	4.61
413.01	4.6
413.216	4.75
413.422	4.66
413.628	4.61
413.834	4.53
414.04	4.48
414.246	4.47
414.452	4.62
414.658	4.56
414.864	4.35
415.07	4.46
415.275	4.62
415.481	4.48
415.687	4.61
415.893	4.78
416.099	4.77
416.305	4.94
416.511	4.97
416.716	4.79
416.922	4.86
417.128	4.91
417.334	4.92
417.539	4.9
417.745	5.05
417.951	5.08
418.157	5.01
418.362	5.07
418.568	5.04
418.774	5.06
418.979	5.06
419.185	5.04
419.391	5.06
419.596	5.02
419.802	5.01
420.008	4.97
420.213	4.92
420.419	4.91
420.624	4.91
420.83	4.85
421.035	4.86
421.241	4.88
421.446	4.9
421.652	4.92
421.857	4.93
422.063	4.9
422.268	4.84
422.474	4.9
422.679	4.96
422.885	4.9
423.09	4.94
423.295	4.89
423.501	4.92
423.706	4.9
423.911	4.84
424.117	4.83
424.322	4.82
424.527	4.95
424.733	4.91
424.938	4.84
425.143	4.87
425.349	4.88
425.554	4.94
425.759	4.94
425.964	4.92
426.169	4.99
426.375	4.9
426.58	4.92
426.785	4.8
426.99	4.84
427.195	4.92
427.4	4.86
427.605	4.8
427.811	4.76
428.016	4.7
428.221	4.79
428.426	4.74
428.631	4.92
428.836	4.79
429.041	4.84
429.246	4.86
429.451	4.9
429.656	5.06
429.861	5.07
430.066	4.97
430.271	5
430.476	4.88
430.681	4.76
430.886	4.7
431.09	4.76
431.295	4.82
431.5	4.82
431.705	4.77
431.91	4.69
432.115	4.79
432.32	4.89
432.524	4.92
432.729	5
432.934	5.06
433.139	5.01
433.343	5.01
433.548	4.93
433.753	4.85
433.958	4.86
434.162	4.86
434.367	4.74
434.572	4.78
434.776	4.87
434.981	4.83
435.186	4.78
435.39	4.83
435.595	4.88
435.799	4.86
436.004	4.92
436.209	4.86
436.413	4.84
436.618	4.87
436.822	4.84
437.027	4.8
437.231	4.82
437.436	4.95
437.64	4.98
437.845	5.03
438.049	5.1
438.253	5.17
438.458	5.14
438.662	5.13
438.867	5.09
439.071	5.13
439.275	5.14
439.48	5.13
439.684	5.05
439.888	5.03
440.093	4.98
440.297	5
440.501	4.94
440.706	4.96
440.91	5.01
441.114	5.03
441.318	4.92
441.523	4.9
441.727	4.94
441.931	4.97
442.135	4.9
442.339	4.9
442.543	4.83
442.748	4.73
442.952	4.71
443.156	4.67
443.36	4.71
443.564	4.73
443.768	4.75
443.972	4.77
444.176	4.76
444.38	4.81
444.584	4.76
444.788	4.76
444.992	4.85
445.196	4.89
445.4	4.85
445.604	4.95
445.808	5.01
446.012	4.99
446.216	4.91
446.42	4.92
446.624	4.9
446.828	4.9
447.032	4.86
447.235	4.84
447.439	4.85
447.643	4.86
447.847	4.77
448.051	4.73
448.254	4.7
448.458	4.7
448.662	4.7
448.866	4.74
449.069	4.85
449.273	4.92
449.477	4.94
449.681	4.97
449.884	4.97
450.088	4.95
450.292	5.01
450.495	5.07
450.699	5.06
450.902	5.07
451.106	5.13
451.31	5.09
451.513	5.05
451.717	5.06
451.92	4.98
452.124	5.07
452.327	4.95
452.531	4.93
452.734	4.82
452.938	4.88
453.141	4.85
453.345	4.79
453.548	4.76
453.752	4.78
453.955	4.72
454.158	4.74
454.362	4.69
454.565	4.86
454.769	4.84
454.972	4.96
455.175	4.88
455.379	4.92
455.582	4.85
455.785	4.76
455.988	4.85
456.192	4.87
456.395	4.9
456.598	4.85
456.801	4.76
457.005	4.8
457.208	4.78
457.411	4.83
457.614	4.84
457.817	4.97
458.021	5.01
458.224	4.92
458.427	4.96
458.63	4.87
458.833	4.87
459.036	4.84
459.239	4.78
459.442	4.79
459.645	4.76
459.848	4.79
460.051	4.73
460.254	4.72
460.457	4.71
460.66	4.66
460.863	4.71
461.066	4.74
461.269	4.81
461.472	4.9
461.675	4.82
461.878	4.76
462.081	4.71
462.284	4.69
462.486	4.69
462.689	4.72
462.892	4.73
463.095	4.66
463.298	4.62
463.5	4.56
463.703	4.48
463.906	4.48
464.109	4.6
464.311	4.55
464.514	4.58
464.717	4.53
464.92	4.49
465.122	4.54
465.325	4.71
465.528	4.64
465.73	4.74
465.933	4.68
466.135	4.71
466.338	4.69
466.541	4.7
466.743	4.7
466.946	4.66
467.148	4.68
467.351	4.66
467.553	4.6
467.756	4.64
467.958	4.54
468.161	4.57
468.363	4.55
468.566	4.48
468.768	4.54
468.971	4.57
469.173	4.63
469.375	4.61
469.578	4.76
469.78	4.74
469.983	4.85
470.185	4.81
470.387	4.79
470.59	4.93
470.792	4.98
470.994	4.91
471.196	4.88
471.399	4.97
471.601	4.85
471.803	4.71
472.005	4.71
472.208	4.73
472.41	4.78
472.612	4.81
472.814	4.82
473.016	4.87
473.218	4.82
473.421	4.82
473.623	4.7
473.825	4.83
474.027	4.79
474.229	4.78
474.431	4.77
474.633	4.81
474.835	4.83
475.037	4.77
475.239	4.77
475.441	4.81
475.643	4.89
475.845	4.94
476.047	4.95
476.249	4.94
476.451	4.95
476.653	4.94
476.855	4.88
477.057	4.77
477.258	4.75
477.46	4.72
477.662	4.73
477.864	4.67
478.066	4.77
478.268	4.83
478.469	4.86
478.671	4.85
478.873	4.85
479.075	4.87
479.276	4.98
479.478	4.99
479.68	4.99
479.882	5.08
480.083	5.03
480.285	4.98
480.487	4.94
480.688	4.93
480.89	4.98
481.091	4.95
481.293	4.95
481.495	4.94
481.696	4.97
481.898	5.03
482.099	5.02
482.301	5.06
482.502	5.05
482.704	5.07
482.905	5.09
483.107	5.08
483.308	5.08
483.51	5.09
483.711	5.06
483.913	5.04
484.114	5.01
484.315	5.01
484.517	5.01
484.718	4.98
484.92	4.93
485.121	4.9
485.322	4.85
485.524	4.83
485.725	4.83
485.926	4.83
486.127	4.84
486.329	4.83
486.53	4.82
486.731	4.81
486.932	4.83
487.134	4.84
487.335	4.86
487.536	4.91
487.737	4.89
487.938	4.9
488.139	4.87
488.341	4.86
488.542	4.87
488.743	4.86
488.944	4.89
489.145	4.9
489.346	4.97
489.547	4.95
489.748	4.96
489.949	4.95
490.15	4.97
490.351	4.99
490.552	5
490.753	5.02
490.954	5.02
491.155	5
491.356	5
491.557	4.99
491.758	5.02
491.959	5
492.159	5.03
492.36	5
492.561	5.05
492.762	5.04
492.963	5.02
493.164	5.06
493.364	5.09
493.565	5.12
493.766	5.07
493.967	5.07
494.167	5.11
494.368	5.09
494.569	5.15
494.769	5.16
494.97	5.25
495.171	5.21
495.371	5.19
495.572	5.14
495.773	5.08
495.973	5.09
496.174	5.03
496.375	5.02
496.575	5.13
496.776	5.03
496.976	5.07
497.177	5.03
497.377	5.07
497.578	5.04
497.778	5.06
497.979	5.02
498.179	5.06
498.38	5.14
498.58	5.11
498.78	5.04
498.981	5.03
499.181	4.92
499.382	4.97
499.582	4.97
499.782	4.97
499.983	5.05
500.183	5.12
500.383	5.1
500.584	5.14
500.784	5.18
500.984	5.16
501.184	5.19
501.385	5.29
501.585	5.34
501.785	5.33
501.985	5.44
502.185	5.35
502.386	5.43
502.586	5.44
502.786	5.45
502.986	5.41
503.186	5.42
503.386	5.49
503.586	5.52
503.786	5.47
503.987	5.53
504.187	5.42
504.387	5.49
504.587	5.39
504.787	5.47
504.987	5.49
505.187	5.56
505.387	5.69
505.587	5.78
505.786	5.78
505.986	5.84
506.186	5.89
506.386	5.96
506.586	5.95
506.786	6.06
506.986	5.97
507.186	5.99
507.386	6.05
507.585	5.98
507.785	5.97
507.985	5.98
508.185	5.94
508.384	6.03
508.584	6.12
508.784	6.12
508.984	6.16
509.183	6.25
509.383	6.26
509.583	6.27
509.782	6.31
509.982	6.3
510.182	6.29
510.381	6.39
510.581	6.36
510.781	6.31
510.98	6.38
511.18	6.41
511.379	6.44
511.579	6.43
511.778	6.46
511.978	6.51
512.177	6.56
512.377	6.66
512.576	6.67
512.776	6.71
512.975	6.85
513.175	6.92
513.374	6.98
513.573	7.01
513.773	7.08
513.972	7.16
514.172	7.18
514.371	7.22
514.57	7.11
514.77	7.17
514.969	7.19
515.168	7.16
515.367	7.19
515.567	7.23
515.766	7.25
515.965	7.31
516.164	7.38
516.364	7.5
516.563	7.59
516.762	7.83
516.961	7.93
517.16	8.04
517.359	8.15
517.559	8.19
517.758	8.25
517.957	8.34
518.156	8.41
518.355	8.42
518.554	8.46
518.753	8.48
518.952	8.48
519.151	8.53
519.35	8.53
519.549	8.54
519.748	8.63
519.947	8.68
520.146	8.74
520.345	8.75
520.544	8.8
520.743	8.92
520.942	9.04
521.141	9.12
521.339	9.14
521.538	9.16
521.737	9.29
521.936	9.3
522.135	9.34
522.333	9.43
522.532	9.49
522.731	9.68
522.93	9.63
523.129	9.68
523.327	9.7
523.526	9.82
523.725	9.89
523.923	9.88
524.122	9.99
524.321	10.11
524.519	10.18
524.718	10.32
524.917	10.34
525.115	10.4
525.314	10.44
525.512	10.55
525.711	10.58
525.909	10.66
526.108	10.83
526.306	10.89
526.505	10.97
526.703	11.09
526.902	11.14
527.1	11.19
527.299	11.27
527.497	11.39
527.696	11.44
527.894	11.53
528.092	11.61
528.291	11.65
528.489	11.71
528.688	11.76
528.886	11.76
529.084	11.83
529.283	11.88
529.481	12
529.679	12
529.877	12.02
530.076	12.03
530.274	12.07
530.472	12.09
530.67	12.16
530.869	12.2
531.067	12.29
531.265	12.38
531.463	12.47
531.661	12.49
531.859	12.59
532.057	12.75
532.255	12.91
532.454	12.96
532.652	13.04
532.85	13.09
533.048	13.14
533.246	13.23
533.444	13.25
533.642	13.31
533.84	13.35
534.038	13.4
534.236	13.39
534.434	13.37
534.632	13.47
534.83	13.53
535.027	13.57
535.225	13.64
535.423	13.65
535.621	13.75
535.819	13.78
536.017	13.85
536.215	13.87
536.412	13.98
536.61	14.07
536.808	14.12
537.006	14.17
537.203	14.32
537.401	14.34
537.599	14.42
537.797	14.41
537.994	14.53
538.192	14.64
538.39	14.75
538.587	14.83
538.785	14.9
538.983	15.01
539.18	15.07
539.378	15.08
539.575	15.23
539.773	15.3
539.97	15.36
540.168	15.38
540.366	15.44
540.563	15.47
540.761	15.51
540.958	15.61
541.155	15.61
541.353	15.62
541.55	15.66
541.748	15.69
541.945	15.74
542.143	15.82
542.34	15.84
542.537	15.86
542.735	15.94
542.932	16
543.129	15.97
543.327	16.03
543.524	16.16
543.721	16.2
543.919	16.31
544.116	16.32
544.313	16.37
544.51	16.47
544.708	16.63
544.905	16.72
545.102	16.72
545.299	16.76
545.496	16.86
545.693	16.87
545.891	16.93
546.088	16.89
546.285	16.96
546.482	16.99
546.679	17.03
546.876	16.96
547.073	16.97
547.27	17.06
547.467	17.14
547.664	17.1
547.861	17.16
548.058	17.19
548.255	17.32
548.452	17.37
548.649	17.45
548.846	17.49
549.043	17.53
549.24	17.48
549.437	17.51
549.633	17.59
549.83	17.68
550.027	17.73
550.224	17.79
550.421	17.73
550.618	17.71
550.814	17.72
551.011	17.77
551.208	17.84
551.405	17.91
551.601	17.98
551.798	17.86
551.995	17.81
552.191	17.82
552.388	17.78
552.585	17.78
552.781	17.86
552.978	17.94
553.175	18.03
553.371	18.11
553.568	18.18
553.764	18.17
553.961	18.28
554.157	18.41
554.354	18.53
554.55	18.55
554.747	18.72
554.943	18.83
555.14	18.88
555.336	18.79
555.533	18.79
555.729	18.83
555.926	18.82
556.122	18.76
556.318	18.76
556.515	18.72
556.711	18.77
556.907	18.7
557.104	18.63
557.3	18.62
557.496	18.73
557.693	18.79
557.889	18.83
558.085	19.02
558.281	19.17
558.478	19.21
558.674	19.3
558.87	19.4
559.066	19.45
559.262	19.51
559.459	19.59
559.655	19.57
559.851	19.56
560.047	19.56
560.243	19.62
560.439	19.58
560.635	19.5
560.831	19.53
561.027	19.51
561.223	19.67
561.419	19.66
561.615	19.66
561.811	19.75
562.007	19.79
562.203	19.8
562.399	19.69
562.595	19.83
562.791	20.1
562.987	20.05
563.183	20.11
563.379	20.07
563.575	20.17
563.771	20.16
563.966	20.15
564.162	20.22
564.358	20.31
564.554	20.45
564.75	20.49
564.945	20.41
565.141	20.44
565.337	20.54
565.533	20.56
565.728	20.57
565.924	20.65
566.12	20.64
566.315	20.62
566.511	20.62
566.707	20.65
566.902	20.72
567.098	20.78
567.293	20.85
567.489	20.86
567.684	20.85
567.88	20.93
568.076	20.98
568.271	21.16
568.467	21.23
568.662	21.33
568.858	21.33
569.053	21.3
569.248	21.37
569.444	21.41
569.639	21.42
569.835	21.49
570.03	21.5
570.225	21.53
570.421	21.54
570.616	21.54
570.812	21.47
571.007	21.49
571.202	21.51
571.397	21.4
571.593	21.54
571.788	21.56
571.983	21.55
572.178	21.54
572.374	21.6
572.569	21.61
572.764	21.6
572.959	21.65
573.154	21.75
573.35	21.8
573.545	21.96
573.74	21.93
573.935	22.01
574.13	22.06
574.325	22.16
574.52	22.16
574.715	22.22
574.91	22.31
575.105	22.41
575.3	22.41
575.495	22.43
575.69	22.41
575.885	22.35
576.08	22.35
576.275	22.47
576.47	22.44
576.665	22.5
576.86	22.51
577.055	22.52
577.25	22.45
577.444	22.39
577.639	22.47
577.834	22.56
578.029	22.57
578.224	22.57
578.418	22.62
578.613	22.8
578.808	22.75
579.003	22.82
579.197	22.85
579.392	22.93
579.587	22.99
579.781	23.13
579.976	22.96
580.171	23.15
580.365	23.1
580.56	23.06
580.755	23.03
580.949	23.14
581.144	23.05
581.338	23.06
581.533	23.2
581.727	23.21
581.922	23.08
582.116	23.21
582.311	23.16
582.505	23.24
582.7	23.08
582.894	22.96
583.089	22.89
583.283	22.8
583.478	22.82
583.672	22.72
583.866	22.79
584.061	22.7
584.255	22.7
584.449	22.74
584.644	22.86
584.838	22.91
585.032	22.96
585.226	22.96
585.421	23.19
585.615	23.25
585.809	23.28
586.003	23.3
586.198	23.33
586.392	23.44
586.586	23.56
586.78	23.49
586.974	23.66
587.168	23.56
587.363	23.56
587.557	23.46
587.751	23.49
587.945	23.45
588.139	23.51
588.333	23.54
588.527	23.52
588.721	23.31
588.915	23.35
589.109	23.3
589.303	23.45
589.497	23.51
589.691	23.42
589.885	23.35
590.079	23.32
590.273	23.34
590.466	23.43
590.66	23.46
590.854	23.53
591.048	23.45
591.242	23.46
591.436	23.44
591.629	23.52
591.823	23.72
592.017	23.81
592.211	24.04
592.404	24.06
592.598	24.04
592.792	24.06
592.986	24.1
593.179	24.19
593.373	24.18
593.567	24.16
593.76	24.08
593.954	24.04
594.147	24.09
594.341	24.01
594.535	23.95
594.728	23.95
594.922	24.11
595.115	24.22
595.309	24.23
595.502	24.28
595.696	24.36
595.889	24.32
596.083	24.23
596.276	24.18
596.47	24.18
596.663	24.21
596.856	24.14
597.05	23.93
597.243	23.84
597.437	23.84
597.63	23.79
597.823	23.79
598.017	23.88
598.21	24.06
598.403	24.11
598.596	24.11
598.79	24.17
598.983	24.3
599.176	24.43
599.369	24.46
599.563	24.48
599.756	24.46
599.949	24.53
600.142	24.53
600.335	24.38
600.528	24.26
600.722	24.19
600.915	24.19
601.108	24.09
601.301	24.08
601.494	24.08
601.687	24.05
601.88	24.21
602.073	24.05
602.266	24.01
602.459	23.97
602.652	24.08
602.845	24.16
603.038	24.12
603.231	24.15
603.424	24.19
603.617	24.21
603.809	24.31
604.002	24.26
604.195	24.27
604.388	24.29
604.581	24.5
604.774	24.57
604.966	24.61
605.159	24.65
605.352	24.76
605.545	24.82
605.737	24.86
605.93	24.74
606.123	24.78
606.316	24.84
606.508	24.72
606.701	24.66
606.894	24.63
607.086	24.65
607.279	24.69
607.471	24.67
607.664	24.6
607.857	24.66
608.049	24.84
608.242	25.04
608.434	25.22
608.627	25.72
608.819	25.86
609.012	26.01
609.204	26.31
609.397	26.46
609.589	26.78
609.782	27.03
609.974	27.34
610.166	27.62
610.359	27.74
610.551	28.03
610.743	28.12
610.936	28.26
611.128	28.33
611.32	28.34
611.513	28.51
611.705	28.45
611.897	28.46
612.09	28.28
612.282	28.1
612.474	28
612.666	27.81
612.858	27.56
613.051	27.39
613.243	27.34
613.435	27.06
613.627	26.97
613.819	26.88
614.011	26.72
614.203	26.53
614.395	26.38
614.588	26.28
614.78	26.13
614.972	26.02
615.164	26.04
615.356	25.92
615.548	25.9
615.74	25.67
615.932	25.42
616.124	25.3
616.315	25.42
616.507	25.55
616.699	25.44
616.891	25.36
617.083	25.25
617.275	25.22
617.467	25.11
617.659	25.17
617.85	25.11
618.042	25.21
618.234	25.25
618.426	25.13
618.618	25.1
618.809	25.19
619.001	25.21
619.193	25.44
619.384	25.41
619.576	25.54
619.768	25.48
619.959	25.53
620.151	25.58
620.343	25.65
620.534	25.68
620.726	25.6
620.917	25.62
621.109	25.71
621.301	25.63
621.492	25.46
621.684	25.27
621.875	25.4
622.067	25.49
622.258	25.46
622.45	25.53
622.641	25.56
622.832	25.45
623.024	25.56
623.215	25.39
623.407	25.43
623.598	25.56
623.789	25.69
623.981	25.45
624.172	25.23
624.363	25.37
624.555	25.21
624.746	25.18
624.937	25.37
625.129	25.26
625.32	25.41
625.511	25.33
625.702	25.24
625.893	25.12
626.085	25.16
626.276	25.46
626.467	25.42
626.658	25.52
626.849	25.7
627.04	25.62
627.231	25.59
627.422	25.68
627.614	25.73
627.805	25.81
627.996	25.88
628.187	25.83
628.378	25.77
628.569	25.76
628.76	25.8
628.951	25.62
629.142	25.79
629.332	25.74
629.523	25.62
629.714	25.56
629.905	25.58
630.096	25.61
630.287	25.79
630.478	25.7
630.669	25.57
630.859	25.55
631.05	25.7
631.241	25.68
631.432	25.81
631.623	25.69
631.813	25.71
632.004	25.73
632.195	25.72
632.385	25.51
632.576	25.61
632.767	25.76
632.957	25.83
633.148	25.67
633.339	25.46
633.529	25.49
633.72	25.59
633.91	25.59
634.101	25.48
634.292	25.56
634.482	25.74
634.673	25.51
634.863	25.28
635.054	25.04
635.244	25.19
635.435	25.32
635.625	25.25
635.815	25.17
636.006	25.09
636.196	25.13
636.387	24.99
636.577	25.1
636.767	25.18
636.958	25.29
637.148	25.34
637.338	25.23
637.529	25.18
637.719	25.23
637.909	25.38
638.099	25.35
638.29	25.48
638.48	25.62
638.67	25.47
638.86	25.52
639.05	25.66
639.241	25.53
639.431	25.71
639.621	25.65
639.811	25.58
640.001	25.53
640.191	25.65
640.381	25.71
640.571	25.71
640.761	25.7
640.951	25.69
641.141	25.65
641.331	25.76
641.521	25.52
641.711	25.62
641.901	25.53
642.091	25.73
642.281	25.82
642.471	25.64
642.661	25.53
642.851	25.36
643.041	25.28
643.231	25.27
643.42	25.47
643.61	25.5
643.8	25.43
643.99	25.46
644.18	25.21
644.369	25.15
644.559	25.14
644.749	25.4
644.939	25.5
645.128	25.53
645.318	25.42
645.508	25.19
645.697	25.19
645.887	25.18
646.076	25.1
646.266	25.08
646.456	24.9
646.645	24.91
646.835	24.7
647.024	24.87
647.214	25.06
647.403	25.1
647.593	25.1
647.782	25.12
647.972	25.11
648.161	25.24
648.351	25.35
648.54	25.5
648.73	25.58
648.919	25.66
649.108	25.88
649.298	25.64
649.487	25.68
649.677	25.75
649.866	25.9
650.055	26
650.244	26.1
650.434	26.12
650.623	26.08
650.812	26.11
651.002	25.84
651.191	25.58
651.38	25.68
651.569	25.71
651.758	25.65
651.947	25.44
652.137	25.71
652.326	25.73
652.515	25.55
652.704	25.69
652.893	25.74
653.082	26.17
653.271	26.07
653.46	26.16
653.649	26.33
653.838	26.36
654.027	26.35
654.216	25.91
654.405	25.73
654.594	25.8
654.783	25.68
654.972	25.62
655.161	25.5
655.35	25.51
655.539	25.42
655.728	25.35
655.916	25.53
656.105	25.63
656.294	25.82
656.483	26.07
656.672	26.12
656.86	26.05
657.049	25.96
657.238	25.78
657.427	25.72
657.615	25.77
657.804	25.55
657.993	25.55
658.181	25.66
658.37	25.64
658.559	25.53
658.747	25.57
658.936	25.5
659.125	25.51
659.313	25.69
659.502	25.86
659.69	25.83
659.879	26.05
660.067	26.08
660.256	26.04
660.444	25.89
660.633	25.83
660.821	25.83
661.01	25.98
661.198	25.94
661.387	25.85
661.575	25.82
661.763	26.01
661.952	25.83
662.14	25.95
662.328	26.1
662.517	26.4
662.705	26.43
662.893	26.46
663.082	26.8
663.27	27.08
663.458	27.1
663.646	27.07
663.834	26.98
664.023	27.06
664.211	26.75
664.399	26.58
664.587	26.26
664.775	26.43
664.963	26.19
665.152	25.75
665.34	25.63
665.528	25.68
665.716	25.48
665.904	25.41
666.092	25.56
666.28	25.68
666.468	25.6
666.656	25.82
666.844	25.67
667.032	25.95
667.22	26.08
667.408	25.89
667.596	25.79
667.784	25.84
667.971	26.06
668.159	25.88
668.347	25.65
668.535	25.64
668.723	25.74
668.911	25.67
669.098	25.51
669.286	25.36
669.474	25.62
669.662	25.87
669.849	26.02
670.037	25.84
670.225	25.93
670.413	26.22
670.6	26.23
670.788	25.95
670.976	26.2
671.163	26.4
671.351	26.35
671.538	26.45
671.726	26.22
671.913	26.21
672.101	26.01
672.289	26.06
672.476	25.87
672.664	25.94
672.851	26.01
673.039	25.82
673.226	25.61
673.413	25.7
673.601	25.24
673.788	25.09
673.976	25.15
674.163	25.35
674.35	25.25
674.538	25.23
674.725	25.25
674.912	25.35
675.1	25.44
675.287	25.34
675.474	25.35
675.662	25.84
675.849	26.02
676.036	26.01
676.223	25.99
676.411	26.07
676.598	26.29
676.785	26.16
676.972	26.08
677.159	26.12
677.346	26.44
677.533	26.38
677.721	26.24
677.908	26.27
678.095	26.23
678.282	26.17
678.469	26.01
678.656	26
678.843	26.07
679.03	26.08
679.217	26.01
679.404	25.86
679.591	26.07
679.778	26.21
679.964	26.28
680.151	26.36
680.338	26.48
680.525	26.52
680.712	26.61
680.899	26.63
681.086	26.82
681.272	26.8
681.459	26.89
681.646	26.82
681.833	26.75
682.02	26.61
682.206	26.42
682.393	26.25
682.58	26.25
682.766	26.24
682.953	26.29
683.14	26.24
683.326	26.12
683.513	26.25
683.7	26.23
683.886	26.12
684.073	25.81
684.259	25.8
684.446	26.03
684.632	26.25
684.819	26.14
685.005	26.03
685.192	25.83
685.378	25.92
685.565	25.72
685.751	25.73
685.938	25.32
686.124	25.68
686.31	25.8
686.497	25.8
686.683	25.69
686.87	25.55
687.056	25.72
687.242	25.89
687.429	26
687.615	26.06
687.801	26.26
687.987	26.73
688.174	26.82
688.36	26.87
688.546	26.89
688.732	26.78
688.918	26.82
689.105	26.93
689.291	27.04
689.477	27.12
689.663	27.07
689.849	27.02
690.035	26.88
690.221	26.65
690.407	26.81
690.593	26.6
690.779	26.61
690.965	26.73
691.151	26.56
691.337	26.53
691.523	26.31
691.709	26.42
691.895	26.31
692.081	26.41
692.267	26.61
692.453	26.79
692.639	26.9
692.825	26.91
693.011	26.7
693.196	26.62
693.382	26.46
693.568	26.76
693.754	26.68
693.94	26.85
694.125	26.59
694.311	26.75
694.497	26.68
694.682	26.93
694.868	27.19
695.054	27.73
695.239	27.7
695.425	27.85
695.611	27.84
695.796	28.04
695.982	27.84
696.168	28.22
696.353	28.14
696.539	27.56
696.724	27.55
696.91	27.54
697.095	27.05
697.281	27.28
697.466	27.04
697.652	26.86
697.837	26.76
698.023	26.83
698.208	26.64
698.393	26.57
698.579	26.79
698.764	26.58
698.949	26.4
699.135	26.79
699.32	26.74
699.505	26.8
699.691	26.83
699.876	26.82
700.061	26.99
700.246	27
700.432	26.8
700.617	26.89
700.802	26.96
700.987	26.99
701.172	26.68
701.358	26.64
701.543	26.95
701.728	26.86
701.913	27.06
702.098	26.87
702.283	27
702.468	27.37
702.653	27.59
702.838	27.4
703.023	27.36
703.208	27.29
703.393	27.59
703.578	27.53
703.763	27.71
703.948	27.75
704.133	28
704.318	28.69
704.503	28.62
704.688	28.46
704.873	28.76
705.057	29.32
705.242	29.44
705.427	29.01
705.612	29.03
705.797	29.41
705.981	29.25
706.166	28.9
706.351	28.04
706.536	28.23
706.72	28.33
706.905	27.94
707.09	27.49
707.274	27.61
707.459	27.93
707.644	27.95
707.828	27.79
708.013	28.01
708.197	28.06
708.382	28.38
708.567	28.07
708.751	28.24
708.936	28.54
709.12	28.85
709.305	28.91
709.489	28.96
709.673	29.03
709.858	28.96
710.042	28.78
710.227	28.79
710.411	28.67
710.596	28.82
710.78	28.69
710.964	28.7
711.149	28.85
711.333	28.78
711.517	28.53
711.702	28.32
711.886	28.19
712.07	28.33
712.254	28.28
712.438	28.35
712.623	28.61
712.807	28.59
712.991	28.93
713.175	28.58
713.359	28.57
713.544	28.59
713.728	28.4
713.912	28.54
714.096	28.43
714.28	28.55
714.464	28.65
714.648	28.48
714.832	27.99
715.016	27.66
715.2	27.76
715.384	27.33
715.568	27.23
715.752	27.55
715.936	27.45
716.12	27.01
716.304	26.76
716.488	26.54
716.671	25.93
716.855	25.98
717.039	26.15
717.223	25.92
717.407	26.33
717.59	26.47
717.774	26.11
717.958	25.9
718.142	25.97
718.325	26.13
718.509	26.06
718.693	26.35
718.877	26.14
719.06	25.83
719.244	25.74
719.428	25.9
719.611	25.8
719.795	25.88
719.978	26.27
720.162	26.42
720.345	26.41
720.529	26.55
720.713	26.59
720.896	27
721.08	26.94
721.263	26.92
721.446	26.73
721.63	26.82
721.813	26.57
721.997	26.56
722.18	26.44
722.364	26.44
722.547	26.33
722.73	26.51
722.914	26.51
723.097	26.76
723.28	26.67
723.464	26.55
723.647	26.35
723.83	26.89
724.013	27.07
724.197	27.05
724.38	27.08
724.563	27.24
724.746	27.16
724.929	27.38
725.112	27.11
725.296	27.59
725.479	27.82
725.662	27.9
725.845	27.73
726.028	27.39
726.211	27.51
726.394	27.31
726.577	27.36
726.76	27.48
726.943	27.33
727.126	27.47
727.309	27.15
727.492	27.3
727.675	27.23
727.858	26.94
728.041	26.9
728.224	27.17
728.407	27.4
728.589	27.31
728.772	27.24
728.955	27.43
729.138	27.31
729.321	27.21
729.503	26.84
729.686	27.1
729.869	27.1
730.052	27.18
730.234	27.16
730.417	26.93
730.6	26.66
730.782	26.81
730.965	26.81
731.148	27.14
731.33	27.48
731.513	27.6
731.695	27.47
731.878	27.88
732.061	28.09
732.243	27.93
732.426	28.1
732.608	28.49
732.791	28.15
732.973	27.98
733.156	27.59
733.338	27.46
733.52	27.46
733.703	27.47
733.885	27.26
734.068	27.16
734.25	27.09
734.432	27.07
734.615	26.79
734.797	26.78
734.979	27
735.162	27.09
735.344	27.31
735.526	27.33
735.708	27.28
735.891	27.51
736.073	27.61
736.255	27.83
736.437	27.67
736.619	27.79
736.802	28.14
736.984	27.72
737.166	28.03
737.348	27.68
737.53	28.01
737.712	28.11
737.894	28.33
738.076	28.17
738.258	28.6
738.44	29.06
738.622	28.85
738.804	28.97
738.986	29.02
739.168	29.03
739.35	29.35
739.532	28.97
739.714	29.17
739.896	28.66
740.078	28.72
740.259	28.5
740.441	27.96
740.623	28.44
740.805	28.83
740.987	29.26
741.168	29.37
741.35	29.18
741.532	28.95
741.714	28.6
741.895	29.1
742.077	29.31
742.259	29
742.44	28.9
742.622	28.68
742.804	28.2
742.985	27.85
743.167	27.4
743.348	27.31
743.53	27.42
743.711	27.92
743.893	27.69
744.075	27.58
744.256	27.68
744.438	27.93
744.619	27.98
744.8	27.9
744.982	27.99
745.163	28.21
745.345	28.55
745.526	29.62
745.707	29.55
745.889	29.38
746.07	29.51
746.252	29.53
746.433	30.08
746.614	29.89
746.795	30.14
746.977	30.48
747.158	30.66
747.339	30.81
747.52	29.63
747.702	29.18
747.883	29.7
748.064	29.33
748.245	29.13
748.426	28.88
748.607	29.01
748.788	29.16
748.97	28.86
749.151	28.46
749.332	28.48
749.513	28.52
749.694	29.17
749.875	28.33
750.056	28.39
750.237	28.22
750.418	28.19
750.599	28.03
750.78	27.71
750.96	27.73
751.141	28.06
751.322	28.06
751.503	28.54
751.684	28.25
751.865	28.47
752.046	28.91
752.226	29.14
752.407	29.09
752.588	28.98
752.769	28.71
752.949	28.95
753.13	28.28
753.311	28.31
753.492	28.13
753.672	28.42
753.853	28.59
754.034	28.01
754.214	28.42
754.395	28.17
754.575	29.05
754.756	29.54
754.937	29.16
755.117	30.32
755.298	29.71
755.478	29.63
755.659	29.31
755.839	29.52
756.02	29.57
756.2	29.3
756.381	29.42
756.561	28.53
756.741	28.72
756.922	29.11
757.102	28.67
757.283	28.42
757.463	28.84
757.643	28.82
757.823	29.37
758.004	29.36
758.184	29.22
758.364	29.22
758.545	29.26
758.725	28.72
758.905	28.28
759.085	28.26
759.265	29.17
759.446	28.4
759.626	27.67
759.806	26.43
759.986	26.16
760.166	26.45
760.346	26.18
760.526	26.44
760.706	26.89
760.886	27.2
761.066	26.91
761.246	26.35
761.426	26.56
761.606	26.51
761.786	26.65
761.966	27.1
762.146	26.65
762.326	26.93
762.506	26.61
762.686	26.48
762.866	26.28
763.046	26.6
763.225	26.72
763.405	26.57
763.585	26.97
763.765	27.27
763.945	26.96
764.124	27.29
764.304	27.32
764.484	27.67
764.664	27.48
764.843	27.42
765.023	27.22
765.203	27.14
765.382	27.3
765.562	26.56
765.741	26.67
765.921	27.15
766.101	26.89
766.28	26.84
766.46	26.9
766.639	26.98
766.819	27.38
766.998	27.6
767.178	27.95
767.357	28.66
767.537	29.49
767.716	29.41
767.896	29.56
768.075	30.38
768.254	30.76
768.434	30.66
768.613	30.89
768.792	30.62
768.972	30.14
769.151	29.67
769.33	29.81
769.51	30.21
769.689	29.87
769.868	29.8
770.047	29.07
770.226	28.65
770.406	28.99
770.585	29.22
770.764	29.68
770.943	30.09
771.122	30.15
771.301	29.02
771.48	28.72
771.66	29.34
771.839	28.58
772.018	29.16
772.197	29.55
772.376	29.14
772.555	28.99
772.734	28.81
772.913	29.21
773.092	29.49
773.271	30.08
773.449	30.2
773.628	29.88
773.807	30.21
773.986	29.88
774.165	30.22
774.344	30.22
774.523	29.97
774.701	30.35
774.88	30.55
775.059	31.09
775.238	31.04
775.417	31.35
775.595	31.58
775.774	31.47
775.953	31.05
776.131	30.7
776.31	31.12
776.489	31.32
776.667	30.93
776.846	30.37
777.025	29.72
777.203	29.46
777.382	28.92
777.56	29.3
777.739	30
777.917	29.72
778.096	29.8
778.274	29.79
778.453	30.34
778.631	30.69
778.81	30.65
778.988	30.3
779.166	31.32
779.345	32.54
779.523	32.44
779.702	32.12
779.88	32.59
780.058	32.14
780.237	31.6
780.415	30.93
780.593	30.93
780.771	30.78
780.95	32
781.128	30.93
781.306	29.92
781.484	29.33
781.662	28.88
781.841	28.59
782.019	27.15
782.197	27.11
782.375	26.74
782.553	25.72
782.731	26.77
782.909	25.8
783.087	26.57
783.265	26.77
783.443	27.89
783.621	28.61
783.799	29.53
783.977	30.94
784.155	31.25
784.333	31.88
784.511	32.13
784.689	30.65
784.867	31.12
785.045	31.25
785.223	31.13
785.4	29.96
785.578	30.78
785.756	30.5
785.934	30.99
786.112	31.38
786.289	30.93
786.467	31.19
786.645	32.1
786.823	32.07
787	31.15
787.178	31.61
787.356	31.34
787.533	30.09
787.711	29.55
787.889	29.39
788.066	29.25
788.244	29.35
788.421	30.26
788.599	30.19
788.776	30.35
788.954	30.77
789.131	30.54
789.309	30.98
789.486	31.47
789.664	32.48
789.841	32.18
790.019	31.76
790.196	31.8
790.373	30.85
790.551	30.65
790.728	30.69
790.906	30.55
791.083	29.14
791.26	28.78
791.437	28.29
791.615	28.08
791.792	28.94
791.969	29.06
792.146	28.9
792.324	27.82
792.501	27.49
792.678	27.08
792.855	26.94
793.032	27.74
793.209	27.55
793.387	26.52
793.564	25.39
793.741	25.65
793.918	24.95
794.095	25.53
794.272	26.64
794.449	26.53
794.626	26.76
794.803	27.62
794.98	27.6
795.157	27.32
795.334	29.01
795.511	29.11
795.688	28.37
795.864	28.94
796.041	28.52
796.218	28.01
796.395	28.72
796.572	27.9
796.749	27.34
796.925	27.89
797.102	29.38
797.279	28.75
797.456	28.84
797.632	28.53
797.809	28.14
797.986	29.09
798.162	29.84
798.339	30
798.516	30.81
798.692	30.66
798.869	30.18
799.046	29.76
799.222	29.19
799.399	28.82
799.575	29.61
799.752	30.15
799.928	29.42
800.105	28.72
800.281	26.9
800.458	26.52
800.634	26.02
800.811	26.38
800.987	25.57
801.163	26.46
801.34	26.59
801.516	25.63
801.692	26.16
801.869	25.27
802.045	24.96
802.221	25.83
802.398	25.61
802.574	25.55
802.75	25.96
802.926	26.64
803.103	25.77
803.279	25.01
803.455	24.81
803.631	23.86
803.807	25.23
803.983	26.3
804.16	27.63
804.336	27.01
804.512	28.24
804.688	27.43
804.864	26.04
805.04	25.73
805.216	26.43
805.392	28.32
805.568	27.42
805.744	26.21
805.92	26.12
806.096	24.72
806.272	24.27
806.448	23.02
806.623	23.57
806.799	24.43
806.975	24.69
807.151	25.07
807.327	24.7
807.503	24.85
807.678	26.51
807.854	25.87
808.03	25.88
808.206	27.22
808.381	27.62
808.557	27.74
808.733	26.55
808.908	27.63
809.084	26.96
809.26	26.64
809.435	27.76
809.611	25.2
809.787	25.97
809.962	26.66
810.138	26.94
810.313	28.92
810.489	27.57
810.664	28.21
810.84	27.92
811.015	29.01
811.191	27.83
811.366	28.19
811.542	29.21
811.717	27.83
811.892	27.83
812.068	27.99
812.243	25.99
812.419	26.08
812.594	26.05
812.769	26.49
812.944	25.47
813.12	26.11
813.295	25.62
813.47	25.49
813.645	26.56
813.821	26.27
813.996	25.71
814.171	26.49
814.346	27.82
814.521	28.21
814.697	27.87
814.872	28.45
815.047	29.53
815.222	30
815.397	30.13
815.572	29.45
815.747	27.89
815.922	28.08
816.097	26.85
816.272	26.03
816.447	26.53
816.622	25.79
816.797	25.27
816.972	24.87
817.147	24.14
817.322	23.89
817.496	24.69
817.671	26.04
817.846	25
818.021	25.28
818.196	25.78
818.371	25.44
818.545	25.76
818.72	26.55
818.895	26.24
819.069	26.11
819.244	26.99
819.419	27.42
819.594	27.33
819.768	28.28
819.943	29.2
820.117	28.62
820.292	29.02
820.467	28.58
820.641	28.06
820.816	27.34
820.99	27.67
821.165	27.7
821.339	27.31
821.514	27.55
821.688	27.06
821.863	26.42
822.037	26.53
822.212	26.41
822.386	26.59
822.56	26.72
822.735	27.02
822.909	26.76
823.084	26.77
823.258	26.64
823.432	26.53
823.606	26.76
823.781	27.27
823.955	27.55
824.129	27.77
824.303	27.86
824.478	28.15
824.652	28.08
824.826	28.19
825	28.12
825.174	28.42
825.348	28.01
825.523	27.83
825.697	27.4
825.871	26.99
826.045	26.29
826.219	25.67
826.393	25.66
826.567	25.37
826.741	25.77
826.915	25.69
827.089	26.25
827.263	26.53
827.437	26.72
827.611	26.69
827.784	26.54
827.958	26.76
828.132	27.17
828.306	27.11
828.48	27.33
828.654	27
828.827	26.47
829.001	25.85
829.175	25.87
829.349	25.79
829.522	25.92
829.696	25.79
829.87	26.5
830.044	26.07
830.217	25.85
830.391	26.53
830.565	26.75
830.738	27.8
830.912	27.76
831.085	27.06
831.259	26.9
831.432	26.54
831.606	26.22
831.779	25.3
831.953	25.44
832.126	24.76
832.3	22.88
832.473	22.79
832.647	23.22
832.82	23.6
832.994	24.5
833.167	25.73
833.34	26.69
833.514	27.22
833.687	27.29
833.86	27.71
834.034	26.95
834.207	28.12
834.38	28.45
834.553	28.08
834.727	28.28
834.9	28.34
835.073	27.54
835.246	26.39
835.419	26.21
835.593	25.74
835.766	25.67
835.939	26.79
836.112	26.25
836.285	26.09
836.458	26.43
836.631	25.45
836.804	23.46
836.977	23.62
837.15	23.35
837.323	24.1
837.496	25.12
837.669	23.26
837.842	23.1
838.015	22.35
838.188	22.91
838.361	23.23
838.533	23.42
838.706	28.16
838.879	28.11
839.052	30.74
839.225	28.88
839.398	28.99
839.57	30.27
839.743	31.41
839.916	31.8
840.088	31.86
840.261	30.9
840.434	31.84
840.607	29.61
840.779	28.89
840.952	27.69
841.124	28.47
841.297	26.63
841.47	28.06
841.642	27.69
841.815	27.64
841.987	25.96
842.16	25.05
842.332	25.21
842.505	25.82
842.677	25.6
842.85	25.64
843.022	25.67
843.194	27.72
843.367	26.69
843.539	25.82
843.712	25.23
843.884	26.56
844.056	28.23
844.229	28.38
844.401	29.64
844.573	33.48
844.745	33.39
844.918	33.69
845.09	32.63
845.262	33.32
845.434	32.04
845.606	32.46
845.779	34.35
845.951	34.6
846.123	34.88
846.295	31.42
846.467	30.13
846.639	31.94
846.811	30.42
846.983	30.73
847.155	28.86
847.327	27.4
847.499	27.91
847.671	23.25
847.843	23.51
848.015	21.49
848.187	22.28
848.359	20.58
848.531	18
848.703	19.38
848.875	16.83
849.047	14.87
849.218	15.55
849.39	14.61
849.562	15.92
849.734	14.96
849.905	14.79
850.077	16.01
850.249	17.66
850.421	18.57
850.592	17.46
850.764	18.45
850.936	21.45
851.107	21.51
851.279	25.32
851.451	27.83
851.622	24.89
851.794	25.31
851.965	26.38
852.137	23.54
852.308	20.67
852.48	19.06
852.651	21.28
852.823	20.76
852.994	20.76
853.166	20.49
853.337	19.02
853.509	24.21
853.68	25.95
853.851	24.27
854.023	21.48
854.194	24.65
854.365	27.79
854.537	28.97
854.708	26.78
854.879	29.18
855.05	25.78
855.222	25.46
855.393	25.47
855.564	20.67
855.735	16.59
855.906	21.66
856.078	20.37
856.249	16.69
856.42	14.59
856.591	18.07
856.762	18.81
856.933	21.64
857.104	21.02
857.275	18.72
857.446	20.82
857.617	24.18
857.788	21.86
857.959	22.31
858.13	26.35
858.301	27.38
858.472	21.79
858.643	17.49
858.814	17.19
858.985	14.06
859.155	14.58
859.326	15.55
859.497	18.46
859.668	18.37
859.839	18.25
860.009	14.91
860.18	11.36
860.351	16.78
860.522	17
860.692	15.36
860.863	17.23
861.034	20.88
861.204	21.06
861.375	21.01
861.546	21.99
861.716	23.23
861.887	22.97
862.057	22.64
862.228	19.72
862.398	21.75
862.569	18.51
862.739	17.4
862.91	16.38
863.08	15.27
863.251	9.75
863.421	7.43
863.592	2.68
863.762	4.45
863.932	7.75
864.103	8.43
864.273	5.91
864.443	10.62
864.614	13.89
864.784	8.79
864.954	11.62
865.125	14.07
865.295	17.62
865.465	21.87
865.635	21.94
865.805	18.31
865.976	19.11
866.146	19.59
866.316	16.76
866.486	13.21
866.656	17.11
866.826	15.73
866.996	14.11
867.166	14.05
867.336	7.65
867.506	3.43
867.676	7.66
867.846	7.16
868.016	8.62
868.186	9.88
868.356	10.96
868.526	8.73
868.696	10.05
868.866	14.27
869.036	11.72
869.206	17.11
869.376	22.97
869.545	21.79
869.715	22.51
869.885	20.71
870.055	27.04
870.224	25.22
870.394	25.94
870.564	26.15
870.734	19.39
870.903	21.04
871.073	21.29
871.243	15.81
871.412	14.15
871.582	13.26
871.751	14.52
871.921	7.07
872.091	7.55
872.26	7.2
872.43	8.2
872.599	11.56
872.769	14.89
872.938	14.15
873.108	18.14
873.277	19.15
873.446	18.21
873.616	16.26
873.785	20.51
873.955	24.47
874.124	26.22
874.293	23.55
874.463	24.01
874.632	18.02
874.801	21.9
874.971	18.31
875.14	16.42
875.309	18.92
875.478	21.86
875.647	18.6
875.817	17.87
875.986	13.66
876.155	13.41
876.324	11.44
876.493	19.17
876.662	17.47
876.831	20.09
877	20.11
877.17	20.63
877.339	21.55
877.508	20.91
877.677	22.2
877.846	26.84
878.015	26.5
878.184	27.37
878.352	20.74
878.521	17.13
878.69	16.21
878.859	17.89
879.028	15.93
879.197	15.74
879.366	18.55
879.534	14.71
879.703	14.51
879.872	17.55
880.041	17.92
880.21	19.85
880.378	21.06
880.547	21.05
880.716	22.34
880.884	23.32
881.053	23.34
881.222	23.7
881.39	24.61
881.559	24.62
881.727	24.65
881.896	24.88
882.065	25.15
882.233	25.22
882.402	25.58
882.57	25.32
882.739	24.9
882.907	24.69
883.076	24.25
883.244	24.45
883.412	24.28
883.581	25
883.749	24.74
883.918	24.63
884.086	24.21
884.254	24.59
884.423	24.43
884.591	24.49
884.759	25.06
884.927	24.8
885.096	24.28
885.264	24.65
885.432	23.18
885.6	23.41
885.769	22.91
885.937	23.61
886.105	22.6
886.273	22.62
886.441	21.93
886.609	21.37
886.777	22.82
886.945	22.03
887.113	21.28
887.281	20.02
887.449	19.77
887.617	20.38
887.785	19.6
887.953	21.48
888.121	18.81
888.289	19.11
888.457	17.05
888.625	17.05
888.793	18.83
888.961	18.95
889.129	18.18
889.296	19.15
889.464	18.64
889.632	18.79
889.8	14.83
889.967	18.04
890.135	19.93
