Data from 2938759__Reflection_09.txt Node
Date: Fri Mar 13 18:41:23 EDT 2015
User: robert
Spectrometer: USB4E03002
Autoset integration time: false
Trigger mode: 4
Integration Time (sec): 1.000000E-1
Scans to average: 10
Electric dark correction enabled: false
Nonlinearity correction enabled: false
Boxcar width: 5
Stray light correction enabled: false
XAxis mode: Wavelengths
Stop averaging: false
Number of Pixels in Spectrum: 3648
>>>>>Begin Spectral Data<<<<<
177.575	202.27
177.794	1185.71
178.014	205.17
178.233	293.24
178.452	-7500
178.672	20.81
178.891	44.09
179.11	188.76
179.33	269.92
179.549	455.42
179.768	134.98
179.987	195.7
180.207	743.18
180.426	225.77
180.645	883.33
180.864	-266.67
181.084	-101.72
181.303	-62.89
181.522	-23.05
181.741	17.3
181.96	24.19
182.179	10.79
182.398	22.14
182.618	6.22
182.837	-19.84
183.056	22.88
183.275	-28.26
183.494	42.95
183.713	12.7
183.932	-130
184.151	2400
184.37	85.96
184.589	75.18
184.808	96.41
185.027	84.78
185.246	90.36
185.465	79.84
185.684	40.06
185.903	80.51
186.122	152.25
186.341	-22.48
186.56	-130.77
186.779	68.85
186.998	49.76
187.216	72.23
187.435	85.13
187.654	108.09
187.873	91.26
188.092	66.43
188.311	77.15
188.53	78.39
188.748	47.71
188.967	47.03
189.186	59.87
189.405	79.08
189.623	73
189.842	28.57
190.061	115.79
190.28	106.36
190.498	86.27
190.717	107.39
190.936	124.4
191.154	140.29
191.373	171.21
191.592	234.57
191.81	-2050
192.029	-617.5
192.248	-215.92
192.466	-96.72
192.685	-52.04
192.904	-162.72
193.122	-678.72
193.341	-513.16
193.559	-407.69
193.778	1445.45
193.996	113.82
194.215	120.33
194.433	248.6
194.652	229.17
194.87	4325
195.089	257.32
195.307	-677.42
195.526	-69.79
195.744	-57.38
195.963	-17.26
196.181	12.17
196.399	15.43
196.618	9.11
196.836	27.25
197.055	-40.62
197.273	-70.16
197.491	-44.83
197.71	34.15
197.928	96.2
198.146	232.69
198.365	279.8
198.583	278.12
198.801	227.21
199.019	151.82
199.238	78.37
199.456	126.67
199.674	108.86
199.892	103.31
200.111	97.56
200.329	90.89
200.547	103.55
200.765	97.64
200.983	80
201.202	26.39
201.42	0.29
201.638	3.01
201.856	6.81
202.074	24.64
202.292	56.01
202.51	63.67
202.728	47.35
202.946	2.39
203.165	-8.68
203.383	-60.82
203.601	-84.78
203.819	49.36
204.037	99.29
204.255	71.51
204.473	47.12
204.691	40.29
204.909	35.16
205.127	42.9
205.345	81.6
205.562	60.14
205.78	67.39
205.998	82.13
206.216	80.92
206.434	39.29
206.652	37.43
206.87	34.64
207.088	36.34
207.306	21.06
207.523	28.19
207.741	23.42
207.959	25.94
208.177	35.05
208.395	54.64
208.612	13.95
208.83	28.8
209.048	43.2
209.266	72.42
209.483	81.46
209.701	125.62
209.919	86.01
210.136	96.8
210.354	98.3
210.572	73.96
210.79	74.28
211.007	100.46
211.225	102.75
211.442	98.6
211.66	83.36
211.878	63.52
212.095	-64.43
212.313	-120
212.53	-98.8
212.748	-115.91
212.966	-101.88
213.183	-143.39
213.401	-99.19
213.618	-88.06
213.836	-210.64
214.053	-452.22
214.271	-328.26
214.488	-13.28
214.705	-24.62
214.923	14.33
215.14	5.77
215.358	-1.24
215.575	11.67
215.793	-2.86
216.01	3.03
216.227	16.33
216.445	26
216.662	33.09
216.879	35.3
217.097	35.44
217.314	11.67
217.531	21.37
217.749	31.73
217.966	21.48
218.183	40.49
218.4	43.56
218.618	48.99
218.835	36.25
219.052	14.91
219.269	11.77
219.487	10.1
219.704	16.1
219.921	24.32
220.138	24.84
220.355	17.11
220.572	13.7
220.79	4.24
221.007	4.7
221.224	0.25
221.441	4.77
221.658	5.86
221.875	4.6
222.092	9.39
222.309	-0.81
222.526	-12.61
222.743	-14.69
222.96	-15.52
223.177	-13.13
223.394	-13.17
223.611	-6.7
223.828	-4.7
224.045	-7.8
224.262	-4.02
224.479	-7.28
224.696	-6.41
224.913	1.36
225.13	8.58
225.347	6.11
225.564	9.05
225.781	5.9
225.997	6.92
226.214	8.24
226.431	7.17
226.648	6.34
226.865	5.2
227.082	3.55
227.298	4.6
227.515	2.56
227.732	1.97
227.949	0.87
228.165	0.89
228.382	0.97
228.599	1.19
228.816	1.05
229.032	1.46
229.249	0.55
229.466	1.68
229.682	1.1
229.899	1.58
230.116	1.94
230.332	1.79
230.549	1.97
230.765	0.53
230.982	-0.43
231.199	0.8
231.415	-0.52
231.632	0.35
231.848	0.42
232.065	-0.24
232.281	-0.96
232.498	-2.29
232.714	-0.54
232.931	-1
233.147	1.28
233.364	2.53
233.58	1.07
233.797	0.98
234.013	0.66
234.23	-1.64
234.446	-2
234.662	-2.49
234.879	-1.73
235.095	-0.53
235.312	-0.51
235.528	-2.22
235.744	-3.72
235.961	-3.21
236.177	-2.1
236.393	-1.76
236.61	-1.88
236.826	-0.19
237.042	1.19
237.258	0.7
237.475	0.62
237.691	0.18
237.907	0.46
238.123	1.75
238.339	-1.21
238.556	-1.87
238.772	-4.34
238.988	-3.18
239.204	-3.77
239.42	-4.36
239.636	-2.7
239.853	-3.54
240.069	-1.38
240.285	-0.2
240.501	-0.41
240.717	0.95
240.933	0.32
241.149	1.83
241.365	1.2
241.581	0.87
241.797	0.89
242.013	0.5
242.229	0.34
242.445	-0.66
242.661	-1.02
242.877	-1.46
243.093	-1.54
243.309	-1.45
243.525	-2.12
243.741	-1.24
243.957	-0.82
244.173	-0.26
244.388	0.25
244.604	-0.06
244.82	0.41
245.036	0.33
245.252	0.51
245.468	0.56
245.683	0.78
245.899	1.47
246.115	0.96
246.331	0.57
246.547	0.35
246.762	0.5
246.978	0.72
247.194	0.36
247.409	0.46
247.625	0.15
247.841	0.06
248.057	0.1
248.272	0.03
248.488	-0.02
248.703	-0.08
248.919	-0.27
249.135	-0.66
249.35	-0.82
249.566	-0.29
249.782	-0.22
249.997	0.57
250.213	0.46
250.428	0.42
250.644	-0.05
250.859	0.06
251.075	0.53
251.29	0.58
251.506	-0.17
251.721	-0.03
251.937	0.26
252.152	-0.16
252.368	-0.36
252.583	0.07
252.798	0.19
253.014	0.13
253.229	-0.16
253.445	-0.09
253.66	0.15
253.875	0.78
254.091	1.26
254.306	1.49
254.521	0.84
254.737	1.56
254.952	1.24
255.167	1.64
255.383	1.81
255.598	2.14
255.813	1.37
256.028	0.58
256.244	0.82
256.459	0.84
256.674	-0.17
256.889	0.67
257.104	0.23
257.32	0.36
257.535	-0.85
257.75	-1.27
257.965	-1.35
258.18	-1.08
258.395	-0.68
258.61	-0.84
258.826	-1.53
259.041	-1.6
259.256	-1.28
259.471	-1.37
259.686	-1.45
259.901	-1.08
260.116	-0.68
260.331	-0.69
260.546	-0.58
260.761	-0.77
260.976	-0.71
261.191	-0.45
261.406	-0.24
261.621	-0.64
261.836	-0.65
262.05	-0.59
262.265	-0.89
262.48	-1.2
262.695	-0.97
262.91	-1.38
263.125	-1.44
263.34	-1.83
263.555	-1.87
263.769	-2.43
263.984	-1.78
264.199	-1.45
264.414	-1.52
264.629	-1.55
264.843	-1.84
265.058	-1.58
265.273	-1.53
265.488	-1.09
265.702	-1.03
265.917	-1.4
266.132	-0.86
266.346	-1.6
266.561	-1.64
266.776	-1.33
266.99	-0.6
267.205	-0.69
267.42	-0.92
267.634	-0.42
267.849	-0.36
268.063	0.45
268.278	1.21
268.492	1.14
268.707	1.79
268.922	1.6
269.136	1.34
269.351	0.84
269.565	0.88
269.78	0.99
269.994	0.61
270.209	0.57
270.423	0.18
270.637	-0.27
270.852	-0.18
271.066	-0.59
271.281	-0.46
271.495	-0.57
271.709	-0.42
271.924	-0.43
272.138	-0.68
272.353	-0.46
272.567	-0.39
272.781	-0.28
272.996	-0.49
273.21	-0.85
273.424	-0.69
273.638	-0.69
273.853	-0.3
274.067	-0.35
274.281	-0.6
274.495	-0.42
274.71	-0.85
274.924	-0.48
275.138	-0.37
275.352	-0.13
275.566	0.16
275.781	0.13
275.995	-0.15
276.209	-0.18
276.423	-0.7
276.637	0.22
276.851	0.58
277.065	0.85
277.279	0.01
277.493	-0.1
277.707	-0.03
277.921	0.45
278.135	0.78
278.349	1.31
278.563	1.35
278.777	2.16
278.991	1.36
279.205	1.1
279.419	0.95
279.633	1.62
279.847	1.07
280.061	0.92
280.275	0.87
280.489	0.95
280.703	1.03
280.917	0.85
281.131	0.73
281.344	0.72
281.558	0.64
281.772	0.61
281.986	0.43
282.2	0.68
282.414	0.79
282.627	0.86
282.841	0.67
283.055	0.23
283.269	0.08
283.482	-0.22
283.696	0.19
283.91	-0.21
284.123	0.1
284.337	0.18
284.551	-0.05
284.764	-0.26
284.978	-0.49
285.192	-0.88
285.405	-0.62
285.619	-0.35
285.833	-0.14
286.046	-0.13
286.26	0.12
286.473	0.08
286.687	-0.2
286.9	0.02
287.114	0.45
287.327	0.45
287.541	1.07
287.754	0.77
287.968	0.86
288.181	0.85
288.395	0.46
288.608	0.4
288.822	0.54
289.035	0.55
289.248	0.44
289.462	-0.1
289.675	-0.52
289.889	-0.67
290.102	-0.54
290.315	-0.93
290.529	-1.2
290.742	-0.93
290.955	-0.76
291.169	-1.14
291.382	-1.09
291.595	-0.81
291.808	-0.64
292.022	-0.22
292.235	-0.32
292.448	-0.04
292.661	-0.03
292.875	0.23
293.088	0.13
293.301	-0.04
293.514	-0.07
293.727	0.13
293.94	-0.22
294.153	-0.12
294.367	-0.22
294.58	-0.11
294.793	-0.19
295.006	0.07
295.219	-0.06
295.432	-0.14
295.645	-0.28
295.858	-0.11
296.071	-0.34
296.284	-0.11
296.497	-0.17
296.71	0.12
296.923	0.08
297.136	0.02
297.349	0.08
297.562	0.04
297.775	0.01
297.988	0.38
298.201	0.51
298.414	0.75
298.626	0.72
298.839	0.76
299.052	0.42
299.265	0.44
299.478	0.27
299.691	-0.06
299.903	-0.27
300.116	-0.04
300.329	-0.28
300.542	-0.26
300.755	-0.45
300.967	-0.42
301.18	-0.25
301.393	-0.24
301.605	-0.54
301.818	-0.4
302.031	-0.38
302.243	0.04
302.456	-0.02
302.669	-0.39
302.881	-0.81
303.094	-0.81
303.307	-1.14
303.519	-0.88
303.732	-0.78
303.944	-0.65
304.157	-0.73
304.37	-0.62
304.582	-0.78
304.795	-1.08
305.007	-0.32
305.22	-0.45
305.432	-0.19
305.645	-0.18
305.857	-0.46
306.069	-0.2
306.282	-0.3
306.494	0.11
306.707	0.06
306.919	0.71
307.132	0.85
307.344	0.42
307.556	0.71
307.769	0.7
307.981	0.8
308.193	0.8
308.406	0.78
308.618	0.8
308.83	0.42
309.043	0.5
309.255	0.19
309.467	-0.01
309.679	0
309.892	0.08
310.104	-0.16
310.316	-0.34
310.528	-0.3
310.74	-0.74
310.953	-0.87
311.165	-0.75
311.377	-0.73
311.589	-0.66
311.801	-0.41
312.013	-0.51
312.225	-0.71
312.437	-0.61
312.649	-0.56
312.862	-0.53
313.074	-0.2
313.286	0.04
313.498	0.31
313.71	0.39
313.922	0.21
314.134	0.26
314.346	0.55
314.558	1.05
314.77	1.25
314.982	1.24
315.193	0.83
315.405	0.56
315.617	0.72
315.829	0.38
316.041	0.78
316.253	0.82
316.465	0.61
316.677	0.66
316.888	0.15
317.1	-0
317.312	0.47
317.524	0.72
317.736	0.77
317.947	0.51
318.159	0.71
318.371	0.44
318.583	0.27
318.794	0.64
319.006	0.83
319.218	0.87
319.43	1.08
319.641	1.01
319.853	0.84
320.064	1.32
320.276	1.81
320.488	1.81
320.699	1.22
320.911	1.56
321.123	1.59
321.334	1.14
321.546	1.26
321.757	0.89
321.969	0.63
322.18	0.48
322.392	0.26
322.603	-0.33
322.815	-0.26
323.026	0.11
323.238	0.14
323.449	-0.44
323.661	-0.6
323.872	-0.56
324.083	-0.6
324.295	-0.37
324.506	0.28
324.718	0.56
324.929	0.85
325.14	1.06
325.352	1.14
325.563	0.98
325.774	1.18
325.986	1.44
326.197	1.75
326.408	2.17
326.62	2.04
326.831	1.82
327.042	1.72
327.253	1.9
327.464	2.25
327.676	2.65
327.887	2.87
328.098	3.03
328.309	3.17
328.52	3.12
328.732	3.12
328.943	3.25
329.154	3.29
329.365	3.12
329.576	3.43
329.787	2.99
329.998	2.9
330.209	3.18
330.42	3.55
330.631	3.51
330.842	3.87
331.053	3.59
331.264	3.92
331.475	3.88
331.686	4.43
331.897	4.13
332.108	4.37
332.319	4.49
332.53	4.25
332.741	4.34
332.952	4.46
333.163	3.98
333.374	4.57
333.585	4.4
333.795	4.83
334.006	4.04
334.217	4.24
334.428	4.08
334.639	4.16
334.849	4.38
335.06	4.52
335.271	4.49
335.482	4.84
335.692	4.35
335.903	4.66
336.114	4.59
336.325	5.28
336.535	4.99
336.746	5.26
336.957	4.97
337.167	4.83
337.378	4.86
337.589	4.99
337.799	4.64
338.01	4.74
338.22	4.5
338.431	4.28
338.642	4.37
338.852	4.51
339.063	4.25
339.273	4.82
339.484	4.87
339.694	4.85
339.905	4.71
340.115	5.08
340.326	5.22
340.536	5.17
340.746	5.03
340.957	4.74
341.167	4.73
341.378	5
341.588	4.59
341.799	4.57
342.009	4.41
342.219	4.72
342.43	4.75
342.64	4.86
342.85	4.84
343.061	5.16
343.271	5.06
343.481	5.08
343.691	4.89
343.902	5.07
344.112	5.13
344.322	5.34
344.532	5.17
344.743	5.1
344.953	5.01
345.163	5.07
345.373	4.88
345.583	5.02
345.793	5
346.004	4.85
346.214	4.6
346.424	4.82
346.634	4.66
346.844	5.01
347.054	4.87
347.264	4.82
347.474	5.24
347.684	5.62
347.894	5.72
348.104	5.99
348.314	6.32
348.524	6.41
348.734	6.21
348.944	6.13
349.154	5.99
349.364	6.12
349.574	6.4
349.784	6.36
349.994	6.44
350.204	6.56
350.413	6.44
350.623	6.18
350.833	5.93
351.043	6.12
351.253	6.07
351.463	5.77
351.672	5.58
351.882	5.31
352.092	5.24
352.302	4.86
352.511	4.95
352.721	4.91
352.931	4.9
353.141	5.25
353.35	4.98
353.56	5.17
353.77	4.98
353.979	5.12
354.189	4.85
354.399	4.36
354.608	4.27
354.818	3.95
355.027	3.97
355.237	4.15
355.447	4.04
355.656	4.31
355.866	4.31
356.075	4.58
356.285	4.78
356.494	4.85
356.704	5.22
356.913	5.46
357.123	5.43
357.332	5.36
357.542	5.45
357.751	5.33
357.96	5.31
358.17	5.42
358.379	5.47
358.589	5.36
358.798	5.68
359.007	5.55
359.217	5.43
359.426	5.51
359.635	5.41
359.845	5.39
360.054	5.48
360.263	5.41
360.472	5.12
360.682	5.09
360.891	5.03
361.1	4.98
361.309	5.05
361.519	4.99
361.728	5.08
361.937	5.05
362.146	4.98
362.355	4.85
362.564	4.81
362.774	4.98
362.983	4.91
363.192	4.77
363.401	4.63
363.61	4.54
363.819	4.68
364.028	4.74
364.237	4.85
364.446	4.79
364.655	5
364.864	5.02
365.073	5.15
365.282	5.53
365.491	5.85
365.7	5.89
365.909	6.13
366.118	6.19
366.327	6.1
366.536	6.25
366.745	6.47
366.954	6.29
367.162	6.19
367.371	5.89
367.58	5.38
367.789	5.23
367.998	5.33
368.207	5.38
368.415	5.13
368.624	5.14
368.833	5.05
369.042	4.71
369.25	4.8
369.459	4.8
369.668	4.79
369.877	5.05
370.085	5.13
370.294	5.03
370.503	4.75
370.711	4.91
370.92	4.91
371.129	4.8
371.337	4.89
371.546	4.95
371.754	4.93
371.963	5.1
372.171	5.08
372.38	5.4
372.589	5.44
372.797	5.45
373.006	5.62
373.214	5.77
373.423	6.02
373.631	6.26
373.84	6.17
374.048	6.08
374.256	6.21
374.465	6.14
374.673	5.69
374.882	5.65
375.09	5.6
375.298	5.48
375.507	5.28
375.715	5.26
375.923	5.17
376.132	5.26
376.34	5.4
376.548	5.15
376.757	5.25
376.965	5.36
377.173	5.25
377.381	5.29
377.59	5.11
377.798	5.29
378.006	5.29
378.214	5.27
378.423	5.08
378.631	5.2
378.839	5.44
379.047	5.36
379.255	5.23
379.463	5.53
379.671	5.55
379.879	5.75
380.088	5.58
380.296	5.54
380.504	5.52
380.712	5.61
380.92	5.45
381.128	5.12
381.336	5.07
381.544	5.18
381.752	4.8
381.96	4.84
382.168	4.86
382.376	4.94
382.584	5.03
382.791	4.93
382.999	5.28
383.207	5.39
383.415	5.22
383.623	5.23
383.831	5.2
384.039	5.57
384.247	5.64
384.454	5.55
384.662	5.49
384.87	5.51
385.078	5.36
385.285	5.05
385.493	5.06
385.701	5.4
385.909	5.41
386.116	5.33
386.324	5.19
386.532	5.19
386.739	5.1
386.947	5.03
387.155	4.97
387.362	5.09
387.57	5.07
387.778	5.09
387.985	5.13
388.193	5.15
388.4	5.19
388.608	5.01
388.816	5.1
389.023	5.44
389.231	5.46
389.438	5.45
389.646	5.64
389.853	5.63
390.061	5.51
390.268	5.48
390.475	5.51
390.683	5.57
390.89	5.65
391.098	5.57
391.305	5.27
391.512	5.46
391.72	5.56
391.927	5.58
392.135	5.47
392.342	5.36
392.549	5.36
392.756	5.44
392.964	5.54
393.171	5.57
393.378	5.58
393.586	5.66
393.793	5.62
394	5.66
394.207	5.56
394.414	5.73
394.622	5.73
394.829	5.7
395.036	5.54
395.243	5.49
395.45	5.47
395.657	5.43
395.864	5.51
396.072	5.14
396.279	5
396.486	5.1
396.693	5.06
396.9	5.24
397.107	5.31
397.314	5.35
397.521	5.24
397.728	5.42
397.935	5.35
398.142	5.13
398.349	5.41
398.556	5.34
398.763	5.31
398.97	5.43
399.177	5.35
399.383	5.32
399.59	5.39
399.797	5.67
400.004	5.48
400.211	5.44
400.418	5.51
400.625	5.71
400.831	5.63
401.038	5.43
401.245	5.55
401.452	5.72
401.658	5.66
401.865	5.5
402.072	5.08
402.279	5.01
402.485	5.08
402.692	5.23
402.899	5.1
403.105	5.18
403.312	5.4
403.519	5.22
403.725	5.18
403.932	5.08
404.138	5.14
404.345	5.44
404.552	5.42
404.758	5.6
404.965	5.61
405.171	5.42
405.378	5.58
405.584	5.53
405.791	5.5
405.997	5.4
406.204	5.51
406.41	5.57
406.617	5.35
406.823	5.36
407.029	5.32
407.236	5.25
407.442	5.26
407.649	5.25
407.855	5.21
408.061	5.39
408.268	5.48
408.474	5.67
408.68	5.65
408.887	5.81
409.093	5.92
409.299	5.88
409.505	5.75
409.712	6.02
409.918	5.96
410.124	5.93
410.33	5.83
410.537	5.8
410.743	5.73
410.949	5.64
411.155	5.68
411.361	5.63
411.567	5.59
411.773	5.58
411.98	5.52
412.186	5.51
412.392	5.6
412.598	5.6
412.804	5.46
413.01	5.5
413.216	5.54
413.422	5.66
413.628	5.67
413.834	5.74
414.04	5.92
414.246	5.93
414.452	6.01
414.658	5.98
414.864	5.85
415.07	5.81
415.275	5.82
415.481	5.89
415.687	5.74
415.893	5.69
416.099	5.68
416.305	5.63
416.511	5.66
416.716	5.53
416.922	5.62
417.128	5.72
417.334	5.86
417.539	5.78
417.745	5.57
417.951	5.58
418.157	5.6
418.362	5.62
418.568	5.63
418.774	5.57
418.979	5.63
419.185	5.68
419.391	5.69
419.596	5.72
419.802	5.74
420.008	5.86
420.213	5.86
420.419	5.82
420.624	5.73
420.83	5.7
421.035	5.68
421.241	5.64
421.446	5.56
421.652	5.52
421.857	5.43
422.063	5.38
422.268	5.4
422.474	5.37
422.679	5.39
422.885	5.38
423.09	5.41
423.295	5.44
423.501	5.45
423.706	5.46
423.911	5.47
424.117	5.55
424.322	5.61
424.527	5.59
424.733	5.65
424.938	5.69
425.143	5.76
425.349	5.77
425.554	5.76
425.759	5.76
425.964	5.75
426.169	5.76
426.375	5.76
426.58	5.76
426.785	5.82
426.99	5.83
427.195	5.87
427.4	5.81
427.605	5.77
427.811	5.74
428.016	5.8
428.221	5.77
428.426	5.81
428.631	5.87
428.836	5.84
429.041	5.87
429.246	5.73
429.451	5.7
429.656	5.71
429.861	5.78
430.066	5.85
430.271	5.81
430.476	5.81
430.681	5.76
430.886	5.73
431.09	5.74
431.295	5.65
431.5	5.76
431.705	5.83
431.91	5.87
432.115	5.93
432.32	5.91
432.524	5.91
432.729	5.84
432.934	5.82
433.139	5.77
433.343	5.77
433.548	5.82
433.753	5.94
433.958	5.9
434.162	5.92
434.367	5.86
434.572	5.91
434.776	6.02
434.981	6.18
435.186	6.26
435.39	6.31
435.595	6.32
435.799	6.27
436.004	6.14
436.209	6.1
436.413	6.19
436.618	6.25
436.822	6.23
437.027	6.11
437.231	6.11
437.436	6.13
437.64	6.14
437.845	6.12
438.049	6.09
438.253	6.16
438.458	6.15
438.662	6.15
438.867	6.05
439.071	6.07
439.275	6.13
439.48	6.08
439.684	6.04
439.888	6.01
440.093	6.07
440.297	6.05
440.501	6.05
440.706	6.13
440.91	6.17
441.114	6.18
441.318	6.14
441.523	6.08
441.727	6.12
441.931	6.14
442.135	6.17
442.339	6.11
442.543	6.22
442.748	6.25
442.952	6.2
443.156	6.02
443.36	6.12
443.564	6.15
443.768	6.16
443.972	6.05
444.176	6.02
444.38	6.04
444.584	6.08
444.788	6.06
444.992	5.98
445.196	5.93
445.4	5.99
445.604	5.96
445.808	5.9
446.012	5.92
446.216	5.97
446.42	5.98
446.624	5.92
446.828	5.87
447.032	5.83
447.235	5.85
447.439	5.95
447.643	5.91
447.847	5.85
448.051	5.93
448.254	6
448.458	6.01
448.662	5.99
448.866	6.17
449.069	6.28
449.273	6.31
449.477	6.45
449.681	6.35
449.884	6.45
450.088	6.5
450.292	6.53
450.495	6.46
450.699	6.53
450.902	6.6
451.106	6.47
451.31	6.26
451.513	6.29
451.717	6.16
451.92	6.13
452.124	6.08
452.327	6.12
452.531	6.07
452.734	6.11
452.938	6.07
453.141	5.97
453.345	6.04
453.548	6.15
453.752	6.12
453.955	6.12
454.158	6.24
454.362	6.21
454.565	6.18
454.769	6.21
454.972	6.2
455.175	6.16
455.379	6.27
455.582	6.22
455.785	6.23
455.988	6.24
456.192	6.22
456.395	6.23
456.598	6.22
456.801	6.13
457.005	6.19
457.208	6.11
457.411	6.18
457.614	6.13
457.817	5.94
458.021	5.92
458.224	5.91
458.427	5.9
458.63	5.89
458.833	5.91
459.036	5.88
459.239	5.85
459.442	5.95
459.645	5.97
459.848	6
460.051	6.15
460.254	6.16
460.457	6.18
460.66	6.19
460.863	6.21
461.066	6.25
461.269	6.46
461.472	6.43
461.675	6.36
461.878	6.34
462.081	6.36
462.284	6.35
462.486	6.4
462.689	6.36
462.892	6.4
463.095	6.32
463.298	6.37
463.5	6.21
463.703	6.26
463.906	6.32
464.109	6.2
464.311	6.13
464.514	6.09
464.717	6.07
464.92	6.03
465.122	6.12
465.325	6.21
465.528	6.15
465.73	6.14
465.933	6.04
466.135	6.04
466.338	6.11
466.541	6.24
466.743	6.25
466.946	6.25
467.148	6.29
467.351	6.13
467.553	6.08
467.756	6.15
467.958	6.18
468.161	6.33
468.363	6.24
468.566	6.39
468.768	6.32
468.971	6.3
469.173	6.33
469.375	6.46
469.578	6.55
469.78	6.62
469.983	6.61
470.185	6.57
470.387	6.46
470.59	6.42
470.792	6.26
470.994	6.21
471.196	6.2
471.399	6.19
471.601	6.12
471.803	6.1
472.005	6.03
472.208	5.99
472.41	6.05
472.612	6.06
472.814	6.27
473.016	6.43
473.218	6.46
473.421	6.48
473.623	6.54
473.825	6.58
474.027	6.62
474.229	6.73
474.431	6.76
474.633	6.73
474.835	6.7
475.037	6.58
475.239	6.52
475.441	6.57
475.643	6.57
475.845	6.51
476.047	6.44
476.249	6.36
476.451	6.29
476.653	6.35
476.855	6.32
477.057	6.31
477.258	6.38
477.46	6.28
477.662	6.28
477.864	6.31
478.066	6.34
478.268	6.37
478.469	6.36
478.671	6.38
478.873	6.28
479.075	6.21
479.276	6.22
479.478	6.12
479.68	6.1
479.882	6.06
480.083	6.05
480.285	6.03
480.487	6.09
480.688	6.13
480.89	6.09
481.091	6.02
481.293	6.11
481.495	6.09
481.696	6.09
481.898	6.1
482.099	6.05
482.301	6
482.502	5.99
482.704	5.93
482.905	5.92
483.107	5.93
483.308	5.97
483.51	5.96
483.711	5.99
483.913	5.99
484.114	6
484.315	6.06
484.517	6.1
484.718	6.14
484.92	6.22
485.121	6.24
485.322	6.27
485.524	6.29
485.725	6.32
485.926	6.31
486.127	6.33
486.329	6.35
486.53	6.32
486.731	6.29
486.932	6.28
487.134	6.21
487.335	6.24
487.536	6.27
487.737	6.29
487.938	6.31
488.139	6.31
488.341	6.36
488.542	6.42
488.743	6.45
488.944	6.52
489.145	6.55
489.346	6.61
489.547	6.56
489.748	6.49
489.949	6.48
490.15	6.48
490.351	6.46
490.552	6.44
490.753	6.37
490.954	6.3
491.155	6.25
491.356	6.23
491.557	6.22
491.758	6.27
491.959	6.34
492.159	6.39
492.36	6.4
492.561	6.48
492.762	6.49
492.963	6.58
493.164	6.69
493.364	6.78
493.565	6.85
493.766	6.86
493.967	6.91
494.167	6.94
494.368	6.93
494.569	6.93
494.769	6.87
494.97	6.83
495.171	6.73
495.371	6.67
495.572	6.56
495.773	6.52
495.973	6.48
496.174	6.43
496.375	6.39
496.575	6.38
496.776	6.37
496.976	6.42
497.177	6.43
497.377	6.45
497.578	6.51
497.778	6.52
497.979	6.54
498.179	6.52
498.38	6.54
498.58	6.54
498.78	6.52
498.981	6.49
499.181	6.44
499.382	6.49
499.582	6.5
499.782	6.44
499.983	6.44
500.183	6.5
500.383	6.59
500.584	6.6
500.784	6.54
500.984	6.61
501.184	6.73
501.385	6.85
501.585	6.88
501.785	6.85
501.985	6.91
502.185	6.91
502.386	6.88
502.586	6.85
502.786	6.86
502.986	6.88
503.186	6.88
503.386	6.78
503.586	6.62
503.786	6.57
503.987	6.56
504.187	6.46
504.387	6.53
504.587	6.52
504.787	6.55
504.987	6.61
505.187	6.66
505.387	6.57
505.587	6.65
505.786	6.73
505.986	6.76
506.186	6.8
506.386	6.88
506.586	6.91
506.786	6.84
506.986	6.74
507.186	6.7
507.386	6.71
507.585	6.75
507.785	6.66
507.985	6.64
508.185	6.57
508.384	6.61
508.584	6.57
508.784	6.51
508.984	6.54
509.183	6.6
509.383	6.5
509.583	6.48
509.782	6.4
509.982	6.44
510.182	6.46
510.381	6.5
510.581	6.46
510.781	6.44
510.98	6.51
511.18	6.47
511.379	6.44
511.579	6.51
511.778	6.49
511.978	6.56
512.177	6.54
512.377	6.55
512.576	6.52
512.776	6.57
512.975	6.63
513.175	6.61
513.374	6.68
513.573	6.73
513.773	6.75
513.972	6.79
514.172	6.76
514.371	6.82
514.57	6.85
514.77	6.86
514.969	6.8
515.168	6.76
515.367	6.76
515.567	6.76
515.766	6.69
515.965	6.64
516.164	6.66
516.364	6.66
516.563	6.54
516.762	6.51
516.961	6.56
517.16	6.5
517.359	6.62
517.559	6.61
517.758	6.57
517.957	6.6
518.156	6.59
518.355	6.57
518.554	6.6
518.753	6.68
518.952	6.65
519.151	6.64
519.35	6.67
519.549	6.64
519.748	6.64
519.947	6.63
520.146	6.7
520.345	6.79
520.544	6.81
520.743	6.79
520.942	6.77
521.141	6.8
521.339	6.8
521.538	6.81
521.737	6.8
521.936	6.79
522.135	6.83
522.333	6.83
522.532	6.82
522.731	6.84
522.93	6.9
523.129	6.89
523.327	6.81
523.526	6.81
523.725	6.8
523.923	6.76
524.122	6.73
524.321	6.73
524.519	6.69
524.718	6.62
524.917	6.59
525.115	6.55
525.314	6.53
525.512	6.57
525.711	6.59
525.909	6.55
526.108	6.5
526.306	6.49
526.505	6.47
526.703	6.36
526.902	6.36
527.1	6.33
527.299	6.29
527.497	6.29
527.696	6.27
527.894	6.23
528.092	6.24
528.291	6.28
528.489	6.27
528.688	6.26
528.886	6.36
529.084	6.4
529.283	6.45
529.481	6.51
529.679	6.57
529.877	6.64
530.076	6.72
530.274	6.77
530.472	6.81
530.67	6.87
530.869	6.91
531.067	6.91
531.265	6.87
531.463	6.85
531.661	6.86
531.859	6.82
532.057	6.76
532.255	6.7
532.454	6.69
532.652	6.65
532.85	6.6
533.048	6.62
533.246	6.63
533.444	6.66
533.642	6.64
533.84	6.63
534.038	6.65
534.236	6.69
534.434	6.75
534.632	6.77
534.83	6.8
535.027	6.88
535.225	6.86
535.423	6.82
535.621	6.8
535.819	6.83
536.017	6.8
536.215	6.79
536.412	6.76
536.61	6.76
536.808	6.84
537.006	6.84
537.203	6.84
537.401	6.89
537.599	6.92
537.797	7.01
537.994	6.97
538.192	7.03
538.39	7.04
538.587	7.07
538.785	7.02
538.983	6.92
539.18	6.89
539.378	6.88
539.575	6.84
539.773	6.82
539.97	6.73
540.168	6.71
540.366	6.71
540.563	6.69
540.761	6.7
540.958	6.77
541.155	6.77
541.353	6.76
541.55	6.8
541.748	6.87
541.945	6.92
542.143	6.97
542.34	7.09
542.537	7.11
542.735	7.21
542.932	7.26
543.129	7.33
543.327	7.42
543.524	7.53
543.721	7.6
543.919	7.66
544.116	7.75
544.313	7.82
544.51	7.84
544.708	7.91
544.905	7.94
545.102	8.03
545.299	8.05
545.496	8.05
545.693	8.15
545.891	8.15
546.088	8.04
546.285	8.01
546.482	7.98
546.679	7.99
546.876	8.02
547.073	7.97
547.27	7.89
547.467	7.84
547.664	7.85
547.861	7.73
548.058	7.71
548.255	7.77
548.452	7.82
548.649	7.9
548.846	7.82
549.043	7.78
549.24	7.82
549.437	7.96
549.633	7.83
549.83	7.79
550.027	7.74
550.224	7.77
550.421	7.72
550.618	7.62
550.814	7.43
551.011	7.41
551.208	7.45
551.405	7.37
551.601	7.2
551.798	7.29
551.995	7.28
552.191	7.26
552.388	7.2
552.585	7.18
552.781	7.16
552.978	7.24
553.175	7.24
553.371	7.17
553.568	7.19
553.764	7.19
553.961	7.11
554.157	7.14
554.354	7.13
554.55	7.05
554.747	7.11
554.943	7.06
555.14	7.04
555.336	7.02
555.533	7.01
555.729	6.95
555.926	6.96
556.122	7.07
556.318	6.95
556.515	6.99
556.711	7.04
556.907	6.97
557.104	6.93
557.3	6.87
557.496	6.91
557.693	6.76
557.889	6.83
558.085	6.8
558.281	6.79
558.478	6.84
558.674	6.81
558.87	6.8
559.066	6.86
559.262	6.88
559.459	6.9
559.655	6.8
559.851	6.93
560.047	6.89
560.243	6.96
560.439	6.88
560.635	6.93
560.831	6.88
561.027	6.93
561.223	6.91
561.419	7.05
561.615	7.14
561.811	7.25
562.007	7.18
562.203	7.15
562.399	7.11
562.595	7.2
562.791	7.06
562.987	7.1
563.183	6.96
563.379	6.98
563.575	6.82
563.771	6.82
563.966	6.88
564.162	6.78
564.358	6.86
564.554	6.79
564.75	6.77
564.945	6.74
565.141	6.84
565.337	6.88
565.533	6.86
565.728	6.9
565.924	6.9
566.12	6.82
566.315	6.96
566.511	6.88
566.707	7.01
566.902	6.94
567.098	7.13
567.293	7.06
567.489	7.09
567.684	7.17
567.88	7.17
568.076	7.19
568.271	7.2
568.467	7.25
568.662	7.35
568.858	7.28
569.053	7.38
569.248	7.36
569.444	7.42
569.639	7.38
569.835	7.28
570.03	7.32
570.225	7.26
570.421	7.27
570.616	7.17
570.812	7.19
571.007	7.09
571.202	7.04
571.397	7.06
571.593	7
571.788	7.01
571.983	7.05
572.178	6.99
572.374	6.99
572.569	6.99
572.764	7
572.959	6.91
573.154	6.98
573.35	6.97
573.545	6.94
573.74	6.91
573.935	6.87
574.13	6.83
574.325	6.77
574.52	6.77
574.715	6.73
574.91	6.81
575.105	6.82
575.3	6.87
575.495	6.82
575.69	6.84
575.885	6.91
576.08	7.06
576.275	7.13
576.47	7.26
576.665	7.29
576.86	7.24
577.055	7.2
577.25	7.28
577.444	7.21
577.639	7.33
577.834	7.38
578.029	7.32
578.224	7.12
578.418	7.08
578.613	7.15
578.808	7.34
579.003	7.53
579.197	7.71
579.392	7.53
579.587	7.62
579.781	7.47
579.976	7.47
580.171	7.54
580.365	7.74
580.56	7.84
580.755	7.74
580.949	7.52
581.144	7.45
581.338	7.39
581.533	7.51
581.727	7.55
581.922	7.69
582.116	7.52
582.311	7.44
582.505	7.32
582.7	7.13
582.894	7.14
583.089	7.2
583.283	7.23
583.478	7.06
583.672	7.11
583.866	7.07
584.061	7
584.255	7.19
584.449	7.31
584.644	7.33
584.838	7.59
585.032	7.6
585.226	7.66
585.421	7.67
585.615	7.78
585.809	7.68
586.003	7.78
586.198	7.82
586.392	7.81
586.586	7.79
586.78	7.81
586.974	7.58
587.168	7.7
587.363	7.7
587.557	7.62
587.751	7.62
587.945	7.65
588.139	7.51
588.333	7.51
588.527	7.55
588.721	7.48
588.915	7.51
589.109	7.64
589.303	7.58
589.497	7.61
589.691	7.57
589.885	7.47
590.079	7.51
590.273	7.63
590.466	7.71
590.66	7.61
590.854	7.7
591.048	7.71
591.242	7.77
591.436	7.71
591.629	7.73
591.823	7.87
592.017	8
592.211	8.18
592.404	8.24
592.598	8.24
592.792	8.3
592.986	8.22
593.179	8.18
593.373	8.02
593.567	8.06
593.76	7.85
593.954	7.84
594.147	7.8
594.341	7.51
594.535	7.37
594.728	7.25
594.922	7.22
595.115	7.21
595.309	7.23
595.502	7.33
595.696	7.2
595.889	7.23
596.083	7.24
596.276	7.16
596.47	7.25
596.663	7.31
596.856	7.32
597.05	7.38
597.243	7.39
597.437	7.52
597.63	7.53
597.823	7.67
598.017	7.86
598.21	7.85
598.403	7.92
598.596	7.94
598.79	7.95
598.983	8.02
599.176	7.89
599.369	7.93
599.563	7.65
599.756	7.7
599.949	7.72
600.142	7.6
600.335	7.61
600.528	7.65
600.722	7.69
600.915	7.6
601.108	7.64
601.301	7.63
601.494	7.58
601.687	7.7
601.88	7.64
602.073	7.59
602.266	7.61
602.459	7.47
602.652	7.43
602.845	7.42
603.038	7.35
603.231	7.2
603.424	7.32
603.617	7.39
603.809	7.37
604.002	7.33
604.195	7.33
604.388	7.33
604.581	7.36
604.774	7.47
604.966	7.58
605.159	7.71
605.352	7.85
605.545	7.72
605.737	7.64
605.93	7.73
606.123	7.87
606.316	7.87
606.508	7.9
606.701	8.08
606.894	7.97
607.086	7.87
607.279	7.84
607.471	7.79
607.664	7.89
607.857	7.97
608.049	7.99
608.242	8.02
608.434	8.14
608.627	8.33
608.819	8.4
609.012	8.75
609.204	9.07
609.397	9.48
609.589	9.82
609.782	10.33
609.974	10.73
610.166	11.16
610.359	11.56
610.551	12.04
610.743	12.55
610.936	12.93
611.128	13.1
611.32	13.42
611.513	13.43
611.705	13.5
611.897	13.55
612.09	13.72
612.282	13.48
612.474	13.33
612.666	12.99
612.858	12.64
613.051	12.4
613.243	12.33
613.435	11.99
613.627	11.86
613.819	11.87
614.011	11.56
614.203	11.2
614.395	11.16
614.588	10.86
614.78	10.79
614.972	10.56
615.164	10.42
615.356	10.17
615.548	9.95
615.74	9.87
615.932	9.43
616.124	9.29
616.315	9.06
616.507	8.86
616.699	8.8
616.891	8.7
617.083	8.51
617.275	8.38
617.467	8.2
617.659	8.08
617.85	7.81
618.042	7.87
618.234	8.14
618.426	8.1
618.618	8.19
618.809	8.2
619.001	8.26
619.193	8.37
619.384	8.39
619.576	8.42
619.768	8.47
619.959	8.69
620.151	8.73
620.343	8.33
620.534	8.44
620.726	8.52
620.917	8.69
621.109	8.5
621.301	8.56
621.492	8.63
621.684	8.68
621.875	8.67
622.067	8.49
622.258	8.49
622.45	8.46
622.641	8.39
622.832	8.35
623.024	8.14
623.215	8.19
623.407	8.13
623.598	8.14
623.789	8.21
623.981	8.18
624.172	8.28
624.363	8.23
624.555	8.37
624.746	8.36
624.937	8.28
625.129	8.32
625.32	8.35
625.511	8.22
625.702	8.19
625.893	8.05
626.085	8.11
626.276	8.03
626.467	8.08
626.658	8.07
626.849	8.14
627.04	8.13
627.231	8.09
627.422	8.03
627.614	8.07
627.805	8.02
627.996	8.18
628.187	8.12
628.378	8.18
628.569	8.26
628.76	8.36
628.951	8.44
629.142	8.55
629.332	8.61
629.523	8.72
629.714	8.96
629.905	9.05
630.096	8.94
630.287	9.02
630.478	9.06
630.669	9.04
630.859	9.04
631.05	8.74
631.241	8.84
631.432	8.8
631.623	8.71
631.813	8.66
632.004	8.53
632.195	8.67
632.385	8.59
632.576	8.58
632.767	8.61
632.957	8.61
633.148	8.84
633.339	8.56
633.529	8.47
633.72	8.4
633.91	8.26
634.101	8.15
634.292	8.07
634.482	8.16
634.673	8.07
634.863	7.94
635.054	7.95
635.244	7.91
635.435	8.06
635.625	8.08
635.815	8.24
636.006	8.33
636.196	8.25
636.387	8.22
636.577	8.14
636.767	8.13
636.958	8.11
637.148	7.92
637.338	7.84
637.529	7.88
637.719	7.9
637.909	7.89
638.099	7.66
638.29	7.88
638.48	7.72
638.67	7.73
638.86	7.72
639.05	7.83
639.241	7.94
639.431	7.95
639.621	7.8
639.811	7.91
640.001	7.83
640.191	8.04
640.381	7.98
640.571	8.17
640.761	8.34
640.951	8.32
641.141	8.26
641.331	8.11
641.521	7.99
641.711	8.09
641.901	7.9
642.091	8.28
642.281	8.26
642.471	8.39
642.661	8.41
642.851	8.23
643.041	8.06
643.231	8.1
643.42	8.32
643.61	8.23
643.8	8.15
643.99	8.42
644.18	8.11
644.369	7.98
644.559	8
644.749	7.9
644.939	7.95
645.128	8.23
645.318	8.4
645.508	8.17
645.697	8.32
645.887	8.32
646.076	7.94
646.266	7.98
646.456	8
646.645	7.76
646.835	7.77
647.024	7.73
647.214	7.74
647.403	7.62
647.593	7.76
647.782	7.59
647.972	7.61
648.161	7.74
648.351	7.6
648.54	7.68
648.73	7.69
648.919	7.69
649.108	7.67
649.298	7.76
649.487	7.59
649.677	7.51
649.866	7.59
650.055	7.82
650.244	8.02
650.434	8.11
650.623	8.2
650.812	8.46
651.002	8.62
651.191	8.76
651.38	8.56
651.569	8.95
651.758	8.98
651.947	9.02
652.137	8.97
652.326	8.88
652.515	8.85
652.704	8.86
652.893	8.73
653.082	8.54
653.271	8.65
653.46	8.98
653.649	8.56
653.838	8.48
654.027	8.68
654.216	8.61
654.405	8.67
654.594	8.71
654.783	8.38
654.972	8.39
655.161	8.49
655.35	8.44
655.539	7.96
655.728	8.16
655.916	8.12
656.105	8.1
656.294	7.87
656.483	7.74
656.672	7.7
656.86	7.93
657.049	7.87
657.238	7.87
657.427	7.52
657.615	7.66
657.804	7.49
657.993	7.52
658.181	7.46
658.37	7.6
658.559	7.64
658.747	7.63
658.936	7.71
659.125	7.62
659.313	7.59
659.502	7.81
659.69	7.72
659.879	7.72
660.067	7.68
660.256	7.63
660.444	7.69
660.633	7.67
660.821	7.92
661.01	7.91
661.198	8.29
661.387	8.34
661.575	8.37
661.763	8.41
661.952	8.59
662.14	8.85
662.328	9.01
662.517	9.07
662.705	8.94
662.893	8.73
663.082	8.59
663.27	8.39
663.458	8.23
663.646	8.24
663.834	8.31
664.023	8.15
664.211	8.2
664.399	8.11
664.587	7.91
664.775	8.17
664.963	8.18
665.152	8.34
665.34	8.27
665.528	8.31
665.716	8.18
665.904	8.24
666.092	8.05
666.28	7.87
666.468	7.88
666.656	7.94
666.844	7.97
667.032	7.91
667.22	7.78
667.408	7.84
667.596	8.06
667.784	8.19
667.971	8.21
668.159	8.34
668.347	8.2
668.535	8.29
668.723	8.19
668.911	8.1
669.098	7.98
669.286	7.97
669.474	8.23
669.662	8.12
669.849	7.93
670.037	7.98
670.225	7.92
670.413	8.12
670.6	7.98
670.788	8.16
670.976	8.06
671.163	8.21
671.351	8.2
671.538	8.09
671.726	7.91
671.913	8.11
672.101	8.15
672.289	8.52
672.476	8.45
672.664	8.34
672.851	8.37
673.039	8.47
673.226	8.61
673.413	8.71
673.601	8.35
673.788	8.64
673.976	8.72
674.163	8.64
674.35	8.24
674.538	8.02
674.725	8.23
674.912	8.24
675.1	7.98
675.287	7.96
675.474	7.9
675.662	8
675.849	8.06
676.036	8.05
676.223	7.83
676.411	8.08
676.598	8.23
676.785	7.93
676.972	7.93
677.159	8.08
677.346	7.93
677.533	7.91
677.721	7.83
677.908	7.69
678.095	7.58
678.282	7.83
678.469	7.82
678.656	7.91
678.843	8.44
679.03	8.48
679.217	8.54
679.404	8.6
679.591	8.92
679.778	8.94
679.964	8.94
680.151	8.93
680.338	9
680.525	8.9
680.712	8.87
680.899	8.73
681.086	8.49
681.272	8.69
681.459	8.82
681.646	8.55
681.833	8.79
682.02	8.79
682.206	8.75
682.393	8.68
682.58	8.93
682.766	8.89
682.953	8.59
683.14	8.69
683.326	8.56
683.513	8.39
683.7	8.6
683.886	8.26
684.073	8.14
684.259	8.3
684.446	8.3
684.632	8.25
684.819	8.39
685.005	8.57
685.192	8.47
685.378	8.27
685.565	8.51
685.751	8.35
685.938	8.53
686.124	8.48
686.31	8.1
686.497	8.02
686.683	7.91
686.87	7.81
687.056	7.88
687.242	8.14
687.429	8.32
687.615	7.91
687.801	7.9
687.987	7.95
688.174	8.33
688.36	8.74
688.546	8.65
688.732	8.8
688.918	8.89
689.105	8.88
689.291	8.89
689.477	8.95
689.663	9.17
689.849	9.16
690.035	8.93
690.221	8.92
690.407	8.65
690.593	9.01
690.779	8.74
690.965	8.62
691.151	8.53
691.337	8.79
691.523	8.76
691.709	8.79
691.895	8.69
692.081	9.03
692.267	9.09
692.453	9.42
692.639	9.39
692.825	9.69
693.011	9.88
693.196	9.8
693.382	9.33
693.568	9.45
693.754	9.39
693.94	9.42
694.125	9.26
694.311	9.12
694.497	8.79
694.682	8.33
694.868	8.01
695.054	7.86
695.239	8.05
695.425	8.03
695.611	7.95
695.796	8.06
695.982	8.03
696.168	7.94
696.353	7.81
696.539	7.86
696.724	8.02
696.91	8.09
697.095	8.17
697.281	8.18
697.466	8.07
697.652	7.96
697.837	7.91
698.023	7.96
698.208	8.13
698.393	7.99
698.579	7.94
698.764	7.93
698.949	7.9
699.135	7.93
699.32	7.84
699.505	7.74
699.691	7.61
699.876	7.73
700.061	7.63
700.246	7.59
700.432	7.58
700.617	7.47
700.802	7.48
700.987	7.79
701.172	7.95
701.358	7.96
701.543	8.23
701.728	8.66
701.913	8.33
702.098	8.44
702.283	8.4
702.468	8.51
702.653	8.62
702.838	8.35
703.023	8.18
703.208	7.6
703.393	7.65
703.578	7.5
703.763	7.47
703.948	7.69
704.133	8.03
704.318	7.96
704.503	8.35
704.688	8.5
704.873	9.13
705.057	9.01
705.242	9.53
705.427	9.71
705.612	10.06
705.797	10.13
705.981	10
706.166	9.65
706.351	9.8
706.536	9.65
706.72	9.79
706.905	9.65
707.09	9.87
707.274	9.66
707.459	9.61
707.644	9.61
707.828	9.62
708.013	9.88
708.197	10.28
708.382	10.09
708.567	10.11
708.751	10.25
708.936	10.56
709.12	10.57
709.305	10.4
709.489	9.96
709.673	9.79
709.858	9.3
710.042	9.37
710.227	9.19
710.411	8.97
710.596	8.8
710.78	8.88
710.964	8.85
711.149	8.75
711.333	9.29
711.517	9.54
711.702	9.96
711.886	10.24
712.07	10.23
712.254	9.98
712.438	9.99
712.623	9.96
712.807	9.72
712.991	9.39
713.175	9.31
713.359	9.11
713.544	9.02
713.728	8.74
713.912	8.64
714.096	8.26
714.28	8.4
714.464	8.57
714.648	8.94
714.832	8.57
715.016	8.01
715.2	7.96
715.384	7.53
715.568	7.51
715.752	7.47
715.936	7.44
716.12	7.71
716.304	7.58
716.488	7.4
716.671	7
716.855	7.17
717.039	7.51
717.223	7.32
717.407	7.57
717.59	7.35
717.774	7.34
717.958	7.61
718.142	7.27
718.325	7.19
718.509	7.07
718.693	7.07
718.877	7.49
719.06	7.98
719.244	8.2
719.428	7.73
719.611	8.17
719.795	8.41
719.978	7.57
720.162	7.76
720.345	7.9
720.529	7.91
720.713	7.78
720.896	6.94
721.08	6.14
721.263	6.06
721.446	6.4
721.63	6.43
721.813	5.77
721.997	6.45
722.18	6.84
722.364	7.01
722.547	6.98
722.73	7.16
722.914	7.66
723.097	7.94
723.28	7.87
723.464	7.91
723.647	7.89
723.83	7.91
724.013	7.81
724.197	7.54
724.38	7.55
724.563	7.73
724.746	7.88
724.929	7.78
725.112	8.43
725.296	9.14
725.479	9.27
725.662	9.38
725.845	9.48
726.028	9.26
726.211	9.07
726.394	8.86
726.577	9.19
726.76	9.19
726.943	8.99
727.126	8.63
727.309	7.68
727.492	7.36
727.675	6.98
727.858	7.32
728.041	7.12
728.224	7.36
728.407	7.47
728.589	7.7
728.772	7.53
728.955	7.96
729.138	8.09
729.321	8.82
729.503	8.94
729.686	9.2
729.869	9.19
730.052	9.56
730.234	8.95
730.417	8.6
730.6	8.14
730.782	8.32
730.965	8.33
731.148	7.81
731.33	7.11
731.513	7.56
731.695	7.21
731.878	7.42
732.061	7.17
732.243	7.58
732.426	7.8
732.608	8.03
732.791	7.72
732.973	7.28
733.156	7.99
733.338	8.32
733.52	7.62
733.703	8.16
733.885	7.39
734.068	8
734.25	7.93
734.432	7.74
734.615	7.36
734.797	7.87
734.979	8.28
735.162	7.55
735.344	7.34
735.526	7.63
735.708	7.25
735.891	7.42
736.073	6.9
736.255	7.03
736.437	7.09
736.619	7.34
736.802	6.85
736.984	6.58
737.166	6.84
737.348	7.09
737.53	7.55
737.712	6.98
737.894	7.53
738.076	7.84
738.258	7.77
738.44	8.03
738.622	8.76
738.804	8.93
738.986	9.07
739.168	9.07
739.35	8.86
739.532	8.52
739.714	8.93
739.896	8.22
740.078	8.21
740.259	7.5
740.441	7.33
740.623	6.98
740.805	7.28
740.987	7.11
741.168	7.19
741.35	7.48
741.532	7.52
741.714	7.5
741.895	8.3
742.077	8.41
742.259	9.19
742.44	9.05
742.622	8.6
742.804	7.89
742.985	8.32
743.167	8.11
743.348	7.74
743.53	7.8
743.711	8.32
743.893	7.76
744.075	7.18
744.256	7.3
744.438	8.12
744.619	7.57
744.8	7.93
744.982	7.96
745.163	8.13
745.345	7.91
745.526	8
745.707	7.73
745.889	8.62
746.07	9.07
746.252	8.46
746.433	7.89
746.614	8.28
746.795	8.11
746.977	7.89
747.158	8.2
747.339	8.96
747.52	8.21
747.702	8.13
747.883	7.31
748.064	7.37
748.245	7.49
748.426	7.26
748.607	7.48
748.788	7.73
748.97	7.76
749.151	7.76
749.332	7.59
749.513	7.73
749.694	7.79
749.875	7.77
750.056	7.48
750.237	7.97
750.418	8.76
750.599	8.35
750.78	8.34
750.96	8.22
751.141	8.04
751.322	7.73
751.503	7.88
751.684	7.71
751.865	8.03
752.046	7.28
752.226	7.2
752.407	6.45
752.588	7
752.769	6.36
752.949	6.49
753.13	6.55
753.311	7.44
753.492	7.71
753.672	7.54
753.853	7.37
754.034	8.26
754.214	7.78
754.395	8.46
754.575	7.64
754.756	8.58
754.937	8.25
755.117	8.39
755.298	7.91
755.478	7.46
755.659	7.59
755.839	7.5
756.02	7.63
756.2	8.01
756.381	7.54
756.561	7.81
756.741	7.05
756.922	7.92
757.102	7.3
757.283	7.75
757.463	7.66
757.643	7.75
757.823	8.23
758.004	8.31
758.184	8.21
758.364	7.88
758.545	8.53
758.725	9.44
758.905	8.87
759.085	9.2
759.265	7.76
759.446	8.91
759.626	9.22
759.806	8.78
759.986	8.26
760.166	7.82
760.346	8.2
760.526	7.61
760.706	6.44
760.886	6.3
761.066	6.59
761.246	6.89
761.426	6.51
761.606	5.98
761.786	5.67
761.966	6.35
762.146	6.85
762.326	6.39
762.506	6.09
762.686	6.42
762.866	6.24
763.046	5.81
763.225	6.19
763.405	5.86
763.585	6.2
763.765	6.58
763.945	6.41
764.124	6.67
764.304	7.03
764.484	7.61
764.664	7.82
764.843	8.18
765.023	8.48
765.203	8.65
765.382	8.69
765.562	8.7
765.741	8.72
765.921	8.68
766.101	8.61
766.28	8.38
766.46	8.05
766.639	8.24
766.819	8.38
766.998	8.03
767.178	8
767.357	8.52
767.537	8.34
767.716	8.28
767.896	8.17
768.075	8.44
768.254	9
768.434	8.96
768.613	8.5
768.792	8.38
768.972	8.74
769.151	8.65
769.33	8.58
769.51	8.71
769.689	8.46
769.868	8.29
770.047	7.47
770.226	6.84
770.406	7.47
770.585	8.48
770.764	8.32
770.943	8.36
771.122	8.55
771.301	7.73
771.48	8.19
771.66	9.09
771.839	9.6
772.018	9.42
772.197	9.56
772.376	9.73
772.555	9.37
772.734	9.83
772.913	9.83
773.092	9.45
773.271	9.81
773.449	8.65
773.628	7.98
773.807	7.51
773.986	7.33
774.165	7.82
774.344	7.79
774.523	7.03
774.701	6.73
774.88	6.62
775.059	6.78
775.238	6.97
775.417	7.55
775.595	8.36
775.774	8.38
775.953	7.92
776.131	7.57
776.31	6.98
776.489	7.7
776.667	7.97
776.846	8.01
777.025	8.18
777.203	9
777.382	8.81
777.56	8.26
777.739	7.88
777.917	8.49
778.096	8.56
778.274	8.95
778.453	9.13
778.631	8.54
778.81	8.49
778.988	8.47
779.166	8.42
779.345	9.4
779.523	8.96
779.702	9.69
779.88	10.3
780.058	10.52
780.237	10.18
780.415	10.32
780.593	10.25
780.771	10.03
780.95	10.04
781.128	9.5
781.306	8.23
781.484	8.48
781.662	8.84
781.841	8.15
782.019	8.12
782.197	8.51
782.375	7.15
782.553	6.83
782.731	6.79
782.909	5.85
783.087	5.52
783.265	6.63
783.443	7.89
783.621	6.97
783.799	7.38
783.977	6.8
784.155	6.93
784.333	7.66
784.511	8.57
784.689	8.44
784.867	8.78
785.045	8.01
785.223	7.74
785.4	6.15
785.578	6.49
785.756	6.05
785.934	6.27
786.112	5.9
786.289	5.38
786.467	5.09
786.645	4.8
786.823	4.83
787	6.08
787.178	5.17
787.356	5.44
787.533	5.42
787.711	5.89
787.889	5.83
788.066	6.38
788.244	6.11
788.421	6.67
788.599	6.86
788.776	7.78
788.954	7.53
789.131	8.39
789.309	8.34
789.486	7.2
789.664	6.81
789.841	6.71
790.019	6.41
790.196	6.32
790.373	6.4
790.551	6.72
790.728	6.25
790.906	5.87
791.083	6.16
791.26	7.39
791.437	8.77
791.615	9.27
791.792	9.04
791.969	8.49
792.146	10.32
792.324	10.11
792.501	9.94
792.678	8.71
792.855	9.03
793.032	8.53
793.209	7.71
793.387	7.61
793.564	7.92
793.741	8.07
793.918	7.97
794.095	7.42
794.272	6.82
794.449	6.74
794.626	8.39
794.803	7.6
794.98	7.33
795.157	7.17
795.334	7.55
795.511	7.43
795.688	7.13
795.864	7.25
796.041	6.53
796.218	6.1
796.395	5.95
796.572	5.05
796.749	5.58
796.925	6.29
797.102	5.52
797.279	5.79
797.456	5.43
797.632	6.42
797.809	6.63
797.986	7.25
798.162	7.66
798.339	8.02
798.516	8.07
798.692	8.89
798.869	8.87
799.046	9.14
799.222	8.55
799.399	8.86
799.575	8.36
799.752	9.15
799.928	9.18
800.105	8.78
800.281	8.93
800.458	8.41
800.634	7.1
800.811	6.61
800.987	6.93
801.163	6.25
801.34	6.22
801.516	5.95
801.692	5.18
801.869	5.53
802.045	6.09
802.221	6.53
802.398	6.82
802.574	6.86
802.75	6.06
802.926	6.76
803.103	6.52
803.279	6.62
803.455	6.22
803.631	6.13
803.807	6.57
803.983	7.69
804.16	7.01
804.336	6.99
804.512	6.91
804.688	9.61
804.864	7.74
805.04	9.21
805.216	8.94
805.392	9.66
805.568	9.47
805.744	8.11
805.92	5.38
806.096	5.3
806.272	7.53
806.448	7.53
806.623	6.1
806.799	6.85
806.975	6.31
807.151	6.12
807.327	6.56
807.503	6.74
807.678	7.59
807.854	8.24
808.03	8.25
808.206	7.16
808.381	6.66
808.557	4.42
808.733	4.25
808.908	3.2
809.084	3.67
809.26	2.56
809.435	2.08
809.611	0.8
809.787	1.3
809.962	2.27
810.138	1.4
810.313	3.69
810.489	4.71
810.664	5.68
810.84	8.35
811.015	7.45
811.191	8.43
811.366	8.76
811.542	8.34
811.717	9.63
811.892	8.72
812.068	9.7
812.243	9.32
812.419	10.36
812.594	10.75
812.769	9.15
812.944	8.74
813.12	8.37
813.295	9.1
813.47	10.39
813.645	9.17
813.821	8.83
813.996	9.19
814.171	8.65
814.346	7.44
814.521	5.85
814.697	6.13
814.872	8.25
815.047	7.54
815.222	6.23
815.397	4.76
815.572	6.45
815.747	7.56
815.922	6.32
816.097	4.68
816.272	5.47
816.447	6.15
816.622	5.48
816.797	5.09
816.972	6.29
817.147	6.09
817.322	6.65
817.496	4.89
817.671	5.97
817.846	5.7
818.021	8.33
818.196	9.86
818.371	10.17
818.545	9.82
818.72	8.65
818.895	8.96
819.069	8.93
819.244	8.78
819.419	9.15
819.594	7.36
819.768	7.08
819.943	6.24
820.117	5.24
820.292	4.77
820.467	5.49
820.641	5.61
820.816	5.58
820.99	5.02
821.165	5.15
821.339	5.13
821.514	4.99
821.688	5
821.863	4.97
822.037	5.01
822.212	5.19
822.386	5.12
822.56	5.5
822.735	5.42
822.909	5.57
823.084	5.65
823.258	5.78
823.432	5.94
823.606	6.28
823.781	6.57
823.955	6.86
824.129	7.03
824.303	7.03
824.478	6.71
824.652	6.81
824.826	6.85
825	7.36
825.174	7.05
825.348	7.04
825.523	6.81
825.697	5.99
825.871	5.49
826.045	4.91
826.219	4.91
826.393	4.88
826.567	4.96
826.741	5.29
826.915	4.75
827.089	4.67
827.263	4.97
827.437	5.23
827.611	5.98
827.784	6.17
827.958	7.06
828.132	7.45
828.306	7.76
828.48	8.11
828.654	8.45
828.827	9.14
829.001	9.25
829.175	9.14
829.349	8.98
829.522	8.66
829.696	9
829.87	7.75
830.044	7.69
830.217	7.86
830.391	7.83
830.565	7.24
830.738	7.02
830.912	7.64
831.085	9.49
831.259	9.58
831.432	8.52
831.606	7.98
831.779	7.25
831.953	5.85
832.126	5.05
832.3	4.08
832.473	4.36
832.647	2.76
832.82	2.91
832.994	1.73
833.167	0.97
833.34	2.31
833.514	2.77
833.687	3.5
833.86	4.76
834.034	5.46
834.207	4.94
834.38	5.48
834.553	6.01
834.727	5.95
834.9	6.84
835.073	7.71
835.246	8.02
835.419	7.48
835.593	7.86
835.766	7.18
835.939	7.34
836.112	8.47
836.285	7.85
836.458	8.43
836.631	8.65
836.804	8.24
836.977	8.95
837.15	9.07
837.323	11.11
837.496	12.38
837.669	12.02
837.842	11.65
838.015	12.13
838.188	12.49
838.361	11.62
838.533	10.88
838.706	11.36
838.879	10.29
839.052	9.72
839.225	8.22
839.398	5.22
839.57	6.72
839.743	6.46
839.916	7.02
840.088	9
840.261	10.01
840.434	10.5
840.607	8.77
840.779	9.17
840.952	8.81
841.124	8.79
841.297	11.23
841.47	10.74
841.642	9.1
841.815	9.48
841.987	8.79
842.16	7.08
842.332	8.29
842.505	7.31
842.677	8.47
842.85	7.09
843.022	6.9
843.194	5.53
843.367	7.53
843.539	8.36
843.712	4.45
843.884	0.96
844.056	2.71
844.229	-0.15
844.401	1.74
844.573	-0.12
844.745	3.36
844.918	3.52
845.09	3.93
845.262	2.73
845.434	4.83
845.606	8.82
845.779	14.87
845.951	14.53
846.123	16.29
846.295	16.2
846.467	12.69
846.639	11.06
846.811	10.75
846.983	9.88
847.155	6.43
847.327	7.23
847.499	6.69
847.671	1.53
847.843	0.87
848.015	-0.15
848.187	3.66
848.359	9.92
848.531	10.04
848.703	10.54
848.875	12.71
849.047	15.41
849.218	12.2
849.39	12.68
849.562	13.04
849.734	13.49
849.905	13.42
850.077	10.78
850.249	10.57
850.421	11.88
850.592	13.24
850.764	9.41
850.936	8.58
851.107	10.39
851.279	10.52
851.451	9.21
851.622	12.17
851.794	14.29
851.965	13.23
852.137	12.06
852.308	8.07
852.48	8.22
852.651	7.89
852.823	10.03
852.994	9.7
853.166	6.91
853.337	11.01
853.509	5.98
853.68	2.66
853.851	6.44
854.023	6.62
854.194	12.65
854.365	9.27
854.537	10.05
854.708	11
854.879	18.08
855.05	19.72
855.222	17.01
855.393	17.49
855.564	19.18
855.735	14.26
855.906	13.27
856.078	7.92
856.249	8.45
856.42	8.84
856.591	3.92
856.762	-2.48
856.933	-3.3
857.104	-5.84
857.275	-5.31
857.446	-4.7
857.617	0.85
857.788	1.16
857.959	1
858.13	0.95
858.301	-0.19
858.472	4.37
858.643	2.51
858.814	6.58
858.985	12.47
859.155	9.65
859.326	7.5
859.497	6.68
859.668	7.14
859.839	10.14
860.009	10.78
860.18	9.63
860.351	3.97
860.522	6.06
860.692	2.44
860.863	-1.96
861.034	1.14
861.204	-0.85
861.375	-2.65
861.546	-3.05
861.716	-1.85
861.887	-4.31
862.057	-0.7
862.228	6.49
862.398	1.81
862.569	3.14
862.739	8.54
862.91	7.55
863.08	10.8
863.251	6.04
863.421	8.26
863.592	8.83
863.762	12.42
863.932	11.82
864.103	12.02
864.273	16.22
864.443	13.87
864.614	10.55
864.784	10.72
864.954	8.8
865.125	14.59
865.295	13.49
865.465	12.19
865.635	11.56
865.805	15.55
865.976	15.73
866.146	14.3
866.316	15.85
866.486	20.21
866.656	22.36
866.826	24.61
866.996	22.1
867.166	25.13
867.336	23.64
867.506	24.43
867.676	18.31
867.846	14.38
868.016	9.18
868.186	9.71
868.356	1.44
868.526	1.22
868.696	0.4
868.866	3.81
869.036	-1.18
869.206	2.81
869.376	3.11
869.545	4
869.715	9.85
869.885	14.89
870.055	15.23
870.224	16.08
870.394	16.97
870.564	15.55
870.734	13.66
870.903	10.19
871.073	5.27
871.243	7.72
871.412	8.42
871.582	4.04
871.751	4.16
871.921	2.36
872.091	2.07
872.26	1.03
872.43	4.13
872.599	8.38
872.769	13.59
872.938	20.82
873.108	17.8
873.277	22.33
873.446	22.82
873.616	22.6
873.785	23.48
873.955	24.78
874.124	20.08
874.293	19.97
874.463	13.56
874.632	17.06
874.801	13.44
874.971	15.27
875.14	12.87
875.309	17.42
875.478	15.55
875.647	9.63
875.817	9.13
875.986	9.8
876.155	12.2
876.324	12.47
876.493	9.55
876.662	7.88
876.831	4.24
877	2.2
877.17	1.37
877.339	0.2
877.508	6.96
877.677	9.3
877.846	11.65
878.015	8.99
878.184	9.53
878.352	7.74
878.521	7.27
878.69	8.09
878.859	9.95
879.028	6.67
879.197	8.42
879.366	10.67
879.534	12.22
879.703	11.04
879.872	10.05
880.041	10.91
880.21	10.31
880.378	9.16
880.547	9.11
880.716	8.74
880.884	9.63
881.053	8.69
881.222	7.16
881.39	6.39
881.559	6.66
881.727	6.52
881.896	5.86
882.065	5.78
882.233	5.43
882.402	5.01
882.57	4.9
882.739	3.93
882.907	3.72
883.076	3.86
883.244	3.48
883.412	4.35
883.581	3.92
883.749	4.73
883.918	5.14
884.086	5.95
884.254	6.84
884.423	6.89
884.591	7.42
884.759	7.87
884.927	7.48
885.096	8.2
885.264	7.65
885.432	8.69
885.6	8.96
885.769	8.04
885.937	9.17
886.105	8.64
886.273	6.17
886.441	7.51
886.609	7
886.777	8.56
886.945	6.11
887.113	4.41
887.281	2.51
887.449	2.76
887.617	4.5
887.785	-0.13
887.953	-1.16
888.121	5.29
888.289	0.26
888.457	2.32
888.625	3.09
888.793	3.57
888.961	1.38
889.129	4.6
889.296	-3.09
889.464	-4.93
889.632	-0.98
889.8	-2.6
889.967	-9.92
890.135	-4.99
