Data from 2938746__Reflection_05.txt Node
Date: Sun Mar 15 11:45:05 EDT 2015
User: robert
Spectrometer: USB4E03002
Autoset integration time: false
Trigger mode: 4
Integration Time (sec): 1.000000E-1
Scans to average: 10
Electric dark correction enabled: false
Nonlinearity correction enabled: false
Boxcar width: 5
Stray light correction enabled: false
XAxis mode: Wavelengths
Stop averaging: false
Number of Pixels in Spectrum: 3648
>>>>>Begin Spectral Data<<<<<
177.575	321.6
177.794	255.03
178.014	410.88
178.233	429.18
178.452	487.44
178.672	745.27
178.891	835.34
179.11	-2523.26
179.33	-630.12
179.549	-654.87
179.768	-895.8
179.987	-1735.06
180.207	-468.46
180.426	-2763.46
180.645	-2465.67
180.864	-24728.57
181.084	1550
181.303	-8171.43
181.522	909.84
181.741	841.12
181.96	1354.47
182.179	392.19
182.398	367.78
182.618	268.83
182.837	276.93
183.056	244.38
183.275	275.08
183.494	313.89
183.713	241.07
183.932	216.5
184.151	180.28
184.37	166.74
184.589	244
184.808	236.11
185.027	265.42
185.246	266.23
185.465	227.65
185.684	248.96
185.903	257.91
186.122	254.73
186.341	412.26
186.56	708.1
186.779	593.23
186.998	584.96
187.216	682.27
187.435	1115.92
187.654	1135.71
187.873	3700
188.092	1159.26
188.311	734.2
188.53	1044.87
188.748	909.29
188.967	704.74
189.186	778.37
189.405	575.58
189.623	829.84
189.842	605.17
190.061	582.76
190.28	546.8
190.498	1011.04
190.717	770.5
190.936	1223.02
191.154	846.93
191.373	661.21
191.592	339.22
191.81	316.03
192.029	246.64
192.248	272.8
192.466	365.12
192.685	341.72
192.904	260.21
193.122	379.41
193.341	427.23
193.559	322.01
193.778	393.32
193.996	840.69
194.215	1217.42
194.433	-6074.07
194.652	1812.5
194.87	1271.54
195.089	1875.58
195.307	3130.19
195.526	1126.58
195.744	2215.58
195.963	-1900
196.181	-4237.21
196.399	-3398
196.618	-1376
196.836	-1431.03
197.055	-634.92
197.273	-750
197.491	-820.9
197.71	-2792.86
197.928	-1401.02
198.146	-1102.54
198.365	-1145.87
198.583	-2386.21
198.801	4611.76
199.019	953.7
199.238	530.74
199.456	388.66
199.674	559.15
199.892	770.21
200.111	895.85
200.329	1103.51
200.547	441.25
200.765	330.54
200.983	293.69
201.202	267.1
201.42	317.67
201.638	292.24
201.856	337.32
202.074	247.03
202.292	199.03
202.51	235.34
202.728	208.34
202.946	259.89
203.165	316.32
203.383	321.77
203.601	318.07
203.819	306.03
204.037	338.75
204.255	278.74
204.473	241.79
204.691	245.65
204.909	223.91
205.127	244.21
205.345	200.69
205.562	195.55
205.78	249.43
205.998	312.95
206.216	374.95
206.434	357.52
206.652	528.02
206.87	1260.16
207.088	4773.53
207.306	806.85
207.523	1059.49
207.741	1159.03
207.959	1296.69
208.177	528.35
208.395	395.28
208.612	329.03
208.83	339.91
209.048	352.31
209.266	284.72
209.483	286.36
209.701	339.8
209.919	425.06
210.136	312.43
210.354	275.87
210.572	380.88
210.79	332.93
211.007	252
211.225	239.86
211.442	203.58
211.66	210.6
211.878	245.69
212.095	173.55
212.313	154.7
212.53	172.39
212.748	200.48
212.966	168.51
213.183	163.41
213.401	179.44
213.618	180.5
213.836	160.49
214.053	160.28
214.271	144.94
214.488	212.85
214.705	200.25
214.923	225.13
215.14	189.98
215.358	199.56
215.575	226.8
215.793	174.82
216.01	163.6
216.227	170.77
216.445	174.68
216.662	184.95
216.879	153.86
217.097	149.95
217.314	132.45
217.531	133.01
217.749	132.73
217.966	127.85
218.183	160.7
218.4	165.68
218.618	180.04
218.835	169.74
219.052	133.2
219.269	143.5
219.487	133.17
219.704	127.47
219.921	130.21
220.138	128.87
220.355	110.35
220.572	99.07
220.79	94.67
221.007	86.66
221.224	82.87
221.441	86.84
221.658	85.39
221.875	83.73
222.092	84.92
222.309	78.46
222.526	74.93
222.743	77.77
222.96	76.73
223.177	74.99
223.394	76.91
223.611	78.12
223.828	81
224.045	72.7
224.262	70.55
224.479	62.65
224.696	57.65
224.913	59.07
225.13	54.11
225.347	52.18
225.564	47.62
225.781	48.09
225.997	44.76
226.214	39.34
226.431	39.47
226.648	36.43
226.865	34.42
227.082	32.54
227.298	26.77
227.515	23.76
227.732	21.18
227.949	20.3
228.165	16.41
228.382	15.44
228.599	13.95
228.816	11.91
229.032	11.52
229.249	11.01
229.466	11.19
229.682	10.82
229.899	10.96
230.116	11.01
230.332	10.64
230.549	11.82
230.765	11.79
230.982	13.26
231.199	14.44
231.415	14.83
231.632	16.57
231.848	16.29
232.065	18.09
232.281	17.58
232.498	19.02
232.714	20.48
232.931	20.26
233.147	21.64
233.364	21.56
233.58	21.16
233.797	21.36
234.013	21.45
234.23	21.3
234.446	21.11
234.662	22.15
234.879	20.85
235.095	19.76
235.312	20.87
235.528	19.72
235.744	19.86
235.961	19.87
236.177	19.88
236.393	19.64
236.61	20.77
236.826	20.52
237.042	20.38
237.258	20.18
237.475	20.68
237.691	20.4
237.907	21.61
238.123	21.76
238.339	22.49
238.556	22.66
238.772	21.23
238.988	20.11
239.204	22.79
239.42	23.03
239.636	21.7
239.853	20.82
240.069	18.43
240.285	17.34
240.501	16.05
240.717	14.87
240.933	13
241.149	12.31
241.365	11.63
241.581	9.72
241.797	8.91
242.013	8.84
242.229	8.37
242.445	8.63
242.661	8.2
242.877	8.11
243.093	8.45
243.309	8.97
243.525	9.24
243.741	9.58
243.957	11.03
244.173	11.33
244.388	11.09
244.604	10.75
244.82	11
245.036	10.25
245.252	10.16
245.468	9.13
245.683	8.68
245.899	7.79
246.115	7.33
246.331	5.89
246.547	5.16
246.762	5.47
246.978	5.35
247.194	5.61
247.409	5.8
247.625	5.67
247.841	5.74
248.057	5.62
248.272	6.03
248.488	5.54
248.703	6.1
248.919	6.39
249.135	6.51
249.35	7.58
249.566	7.33
249.782	7.76
249.997	8
250.213	8.51
250.428	8.78
250.644	7.96
250.859	9.45
251.075	9.2
251.29	9.47
251.506	9.77
251.721	8.75
251.937	8.17
252.152	7.86
252.368	7.5
252.583	7.51
252.798	7.86
253.014	8.28
253.229	7.81
253.445	8.24
253.66	9.05
253.875	9.75
254.091	10.56
254.306	10.7
254.521	10.89
254.737	11.76
254.952	11.72
255.167	11.86
255.383	11.91
255.598	12.49
255.813	11.84
256.028	11.53
256.244	9.79
256.459	9.41
256.674	10.2
256.889	9.76
257.104	9.56
257.32	9.32
257.535	8.44
257.75	8.28
257.965	7.54
258.18	7.15
258.395	6.09
258.61	5.64
258.826	5.1
259.041	4.47
259.256	4.51
259.471	4.28
259.686	3.98
259.901	3.98
260.116	3.63
260.331	3.63
260.546	3.62
260.761	4.16
260.976	4.2
261.191	4.48
261.406	5.17
261.621	5.46
261.836	5.64
262.05	6.08
262.265	6.83
262.48	7.52
262.695	8.24
262.91	8.48
263.125	7.84
263.34	8.45
263.555	9.71
263.769	9.77
263.984	9.81
264.199	10.48
264.414	10.46
264.629	10.42
264.843	10.4
265.058	10.2
265.273	10.29
265.488	10.6
265.702	10.66
265.917	9.84
266.132	9.28
266.346	9.53
266.561	9.6
266.776	9.62
266.99	9.29
267.205	9.17
267.42	8.72
267.634	8.65
267.849	8.2
268.063	8.2
268.278	8.07
268.492	8.11
268.707	7.93
268.922	7.22
269.136	7.33
269.351	7.45
269.565	7.07
269.78	6.75
269.994	6.75
270.209	6.93
270.423	6.61
270.637	6.45
270.852	5.68
271.066	5.34
271.281	5.36
271.495	4.87
271.709	4.66
271.924	5.08
272.138	5.35
272.353	5.33
272.567	5.29
272.781	5.51
272.996	4.87
273.21	5.49
273.424	5.82
273.638	5.86
273.853	6.24
274.067	6.25
274.281	6.46
274.495	6.06
274.71	6.32
274.924	6.53
275.138	6.22
275.352	7.19
275.566	7.22
275.781	6.9
275.995	7
276.209	7.06
276.423	7.04
276.637	6.48
276.851	7.19
277.065	6.84
277.279	6.58
277.493	6.47
277.707	6.44
277.921	6.38
278.135	6.35
278.349	6.48
278.563	6.44
278.777	6.33
278.991	7
279.205	6.82
279.419	6.92
279.633	7.15
279.847	6.73
280.061	6.92
280.275	6.81
280.489	7.07
280.703	6.9
280.917	6.85
281.131	6.92
281.344	6.81
281.558	6.8
281.772	6.73
281.986	6.7
282.2	7.63
282.414	7.4
282.627	6.99
282.841	6.81
283.055	6.73
283.269	6.69
283.482	6.36
283.696	5.96
283.91	5.87
284.123	5.6
284.337	5.23
284.551	4.82
284.764	4.43
284.978	4.83
285.192	4.69
285.405	4.86
285.619	4.8
285.833	4.94
286.046	5.19
286.26	4.82
286.473	5.07
286.687	5.2
286.9	5.34
287.114	5.42
287.327	5.27
287.541	5.33
287.754	5.17
287.968	5.09
288.181	4.91
288.395	4.46
288.608	5.09
288.822	5.04
289.035	4.88
289.248	4.48
289.462	4.34
289.675	4.15
289.889	4.09
290.102	3.8
290.315	3.92
290.529	4.25
290.742	4.49
290.955	4.29
291.169	4.25
291.382	4.5
291.595	4.48
291.808	4.8
292.022	5.49
292.235	5.65
292.448	5.64
292.661	5.15
292.875	4.92
293.088	5.08
293.301	5.04
293.514	4.68
293.727	4.82
293.94	5.05
294.153	4.7
294.367	4.11
294.58	3.86
294.793	3.88
295.006	4.01
295.219	3.9
295.432	3.76
295.645	3.83
295.858	4.14
296.071	4.03
296.284	3.99
296.497	4.14
296.71	4.28
296.923	3.98
297.136	4.4
297.349	4.53
297.562	4.5
297.775	4.17
297.988	4.31
298.201	4.47
298.414	4.64
298.626	4.56
298.839	4.8
299.052	4.86
299.265	5.58
299.478	5.37
299.691	5.9
299.903	6.31
300.116	6.47
300.329	6.48
300.542	6.07
300.755	5.9
300.967	6.24
301.18	6.27
301.393	6.3
301.605	6.2
301.818	6.25
302.031	6.03
302.243	6.28
302.456	6.41
302.669	6.15
302.881	6.2
303.094	6.33
303.307	6.43
303.519	6.46
303.732	6.38
303.944	6.4
304.157	6.66
304.37	6.47
304.582	6.22
304.795	6.38
305.007	6.29
305.22	6.33
305.432	6.78
305.645	6.13
305.857	5.99
306.069	6.22
306.282	6.06
306.494	5.55
306.707	5.77
306.919	5.9
307.132	6.04
307.344	6.09
307.556	6.11
307.769	5.78
307.981	6.22
308.193	6.06
308.406	5.93
308.618	5.93
308.83	5.95
309.043	5.89
309.255	5.58
309.467	5.68
309.679	5.92
309.892	5.67
310.104	5.35
310.316	4.96
310.528	4.85
310.74	4.66
310.953	4.64
311.165	4.96
311.377	4.96
311.589	4.68
311.801	4.25
312.013	4.12
312.225	4.38
312.437	4.93
312.649	5.52
312.862	5.85
313.074	6
313.286	5.95
313.498	5.63
313.71	5.48
313.922	6.06
314.134	6.81
314.346	7.19
314.558	7.45
314.77	6.94
314.982	6.91
315.193	6.9
315.405	6.99
315.617	6.87
315.829	7.22
316.041	7.26
316.253	7.13
316.465	7
316.677	6.52
316.888	6.58
317.1	6.22
317.312	6.54
317.524	6.47
317.736	6.68
317.947	7.65
318.159	7.66
318.371	7.83
318.583	7.96
318.794	7.9
319.006	8.35
319.218	8.5
319.43	9.07
319.641	8.74
319.853	9.42
320.064	9.8
320.276	9.47
320.488	9.34
320.699	9.53
320.911	10.08
321.123	9.88
321.334	9.38
321.546	9.2
321.757	9.02
321.969	9.01
322.18	8.4
322.392	8.2
322.603	8.49
322.815	8.85
323.026	8.75
323.238	8.1
323.449	8.16
323.661	8.67
323.872	8.52
324.083	8.9
324.295	9.28
324.506	9.74
324.718	9.4
324.929	9.33
325.14	9.24
325.352	9.56
325.563	9.77
325.774	10.01
325.986	9.85
326.197	9.95
326.408	10.26
326.62	9.95
326.831	9.55
327.042	10.12
327.253	10.15
327.464	10.43
327.676	10.5
327.887	10.76
328.098	11.15
328.309	11.73
328.52	12.24
328.732	12.08
328.943	12.5
329.154	12.74
329.365	13.05
329.576	13.56
329.787	13.6
329.998	13.67
330.209	13.9
330.42	13.72
330.631	13.44
330.842	13.46
331.053	13.63
331.264	13.7
331.475	13.91
331.686	13.51
331.897	13.21
332.108	13.09
332.319	13.01
332.53	13.33
332.741	13.86
332.952	14.4
333.163	14.35
333.374	14.56
333.585	14.98
333.795	15.54
334.006	16.1
334.217	16.38
334.428	16.39
334.639	16.44
334.849	16.28
335.06	15.95
335.271	15.86
335.482	16
335.692	16.22
335.903	15.92
336.114	15.62
336.325	15.27
336.535	15.1
336.746	15.17
336.957	14.96
337.167	15.13
337.378	15.04
337.589	15.27
337.799	15.36
338.01	15.54
338.22	15.72
338.431	15.9
338.642	16.13
338.852	16.34
339.063	16.53
339.273	16.64
339.484	16.22
339.694	16.72
339.905	16.45
340.115	16.45
340.326	16.5
340.536	16.24
340.746	15.94
340.957	16.28
341.167	16.24
341.378	16.22
341.588	16.3
341.799	16.5
342.009	16.38
342.219	16.11
342.43	16.01
342.64	15.5
342.85	15.8
343.061	15.7
343.271	15.13
343.481	15.21
343.691	15.28
343.902	15.32
344.112	15.62
344.322	15.57
344.532	15.77
344.743	16.06
344.953	15.91
345.163	15.69
345.373	15.91
345.583	16.05
345.793	15.86
346.004	15.52
346.214	15.77
346.424	15.42
346.634	15.22
346.844	15.21
347.054	14.85
347.264	15
347.474	14.74
347.684	14.85
347.894	14.49
348.104	14.36
348.314	14.68
348.524	14.98
348.734	15.04
348.944	14.96
349.154	14.97
349.364	14.66
349.574	14.61
349.784	15.08
349.994	14.84
350.204	15.02
350.413	15.23
350.623	15.27
350.833	15.06
351.043	15.05
351.253	14.97
351.463	15
351.672	15.42
351.882	15.38
352.092	15.13
352.302	15.32
352.511	15.73
352.721	15.67
352.931	15.73
353.141	15.65
353.35	15.63
353.56	15.72
353.77	15.89
353.979	15.41
354.189	15.33
354.399	15.25
354.608	15.1
354.818	14.67
355.027	14.73
355.237	14.82
355.447	14.77
355.656	14.57
355.866	14.99
356.075	14.55
356.285	14.56
356.494	14.83
356.704	14.87
356.913	14.64
357.123	14.73
357.332	14.66
357.542	14.65
357.751	14.46
357.96	14.67
358.17	14.45
358.379	14.45
358.589	14.89
358.798	14.38
359.007	14.35
359.217	14.54
359.426	14.62
359.635	14.27
359.845	14.28
360.054	14.23
360.263	14.22
360.472	13.91
360.682	14.07
360.891	13.67
361.1	13.89
361.309	13.88
361.519	13.6
361.728	13.44
361.937	13.7
362.146	13.56
362.355	13.56
362.564	13.62
362.774	13.65
362.983	13.36
363.192	13.48
363.401	13.31
363.61	13.04
363.819	13.36
364.028	13.48
364.237	13.43
364.446	13.37
364.655	13.42
364.864	13.4
365.073	13.65
365.282	13.94
365.491	13.93
365.7	13.86
365.909	14.27
366.118	14.24
366.327	14.25
366.536	14.22
366.745	14.04
366.954	14.33
367.162	14.14
367.371	14.04
367.58	13.99
367.789	14.09
367.998	14.19
368.207	14.18
368.415	14.17
368.624	13.86
368.833	13.71
369.042	13.87
369.25	13.87
369.459	14.24
369.668	14.19
369.877	14.26
370.085	14.23
370.294	14.24
370.503	13.82
370.711	13.96
370.92	14.06
371.129	14.23
371.337	14.47
371.546	14.22
371.754	14.09
371.963	14.24
372.171	14.04
372.38	14.05
372.589	14.05
372.797	14.41
373.006	14.19
373.214	14.19
373.423	14.18
373.631	13.93
373.84	13.92
374.048	14.01
374.256	13.82
374.465	13.66
374.673	13.57
374.882	13.83
375.09	13.65
375.298	13.92
375.507	13.9
375.715	13.77
375.923	13.77
376.132	13.78
376.34	13.48
376.548	13.58
376.757	13.75
376.965	13.78
377.173	13.76
377.381	13.83
377.59	13.47
377.798	13.49
378.006	13.4
378.214	13.52
378.423	13.38
378.631	13.62
378.839	13.39
379.047	13.47
379.255	13.48
379.463	13.3
379.671	13.39
379.879	13.39
380.088	13.27
380.296	13.34
380.504	13.04
380.712	13.06
380.92	12.78
381.128	13
381.336	12.88
381.544	12.81
381.752	12.87
381.96	12.79
382.168	12.75
382.376	12.94
382.584	13.04
382.791	13.09
382.999	13.08
383.207	13.06
383.415	13.1
383.623	13.17
383.831	13.01
384.039	12.97
384.247	12.96
384.454	12.94
384.662	12.86
384.87	12.82
385.078	12.77
385.285	12.78
385.493	12.77
385.701	12.56
385.909	12.47
386.116	12.77
386.324	12.82
386.532	12.63
386.739	12.9
386.947	13.04
387.155	13.05
387.362	13.06
387.57	12.99
387.778	13.17
387.985	13.27
388.193	13.34
388.4	13.34
388.608	13.25
388.816	13.49
389.023	13.39
389.231	13.41
389.438	13.48
389.646	13.67
389.853	13.7
390.061	13.84
390.268	13.59
390.475	13.58
390.683	13.46
390.89	13.65
391.098	13.6
391.305	13.52
391.512	13.44
391.72	13.39
391.927	13.25
392.135	13.14
392.342	12.7
392.549	12.66
392.756	12.44
392.964	12.41
393.171	12.19
393.378	12
393.586	11.93
393.793	11.76
394	11.77
394.207	11.98
394.414	12.14
394.622	12.14
394.829	12.41
395.036	12.42
395.243	12.51
395.45	12.63
395.657	12.68
395.864	12.74
396.072	12.84
396.279	12.91
396.486	12.74
396.693	12.49
396.9	12.62
397.107	12.53
397.314	12.85
397.521	12.59
397.728	12.39
397.935	12.58
398.142	12.71
398.349	12.68
398.556	12.52
398.763	12.35
398.97	12.48
399.177	12.38
399.383	12.49
399.59	12.42
399.797	12.61
400.004	12.69
400.211	12.43
400.418	12.42
400.625	12.47
400.831	12.51
401.038	12.59
401.245	12.74
401.452	12.98
401.658	12.68
401.865	12.74
402.072	12.7
402.279	12.7
402.485	13.09
402.692	12.95
402.899	13.02
403.105	12.89
403.312	12.94
403.519	12.68
403.725	12.58
403.932	12.84
404.138	12.79
404.345	12.72
404.552	12.68
404.758	12.36
404.965	12.44
405.171	12.37
405.378	12.37
405.584	12.55
405.791	12.74
405.997	12.74
406.204	12.71
406.41	12.67
406.617	12.77
406.823	12.85
407.029	13.1
407.236	13.06
407.442	13.11
407.649	13.2
407.855	13.03
408.061	13.02
408.268	12.96
408.474	13.01
408.68	13.04
408.887	13.12
409.093	13.19
409.299	12.97
409.505	12.85
409.712	12.89
409.918	12.85
410.124	12.94
410.33	12.99
410.537	13.12
410.743	13.04
410.949	13.13
411.155	13.14
411.361	13.05
411.567	13.13
411.773	13.22
411.98	13.24
412.186	13.24
412.392	13.05
412.598	12.96
412.804	12.92
413.01	12.87
413.216	12.76
413.422	12.63
413.628	12.79
413.834	12.94
414.04	12.99
414.246	12.93
414.452	13.01
414.658	13.14
414.864	13.33
415.07	13.48
415.275	13.57
415.481	13.64
415.687	13.58
415.893	13.38
416.099	13.22
416.305	13.29
416.511	13.18
416.716	13.12
416.922	13.02
417.128	12.74
417.334	12.66
417.539	12.47
417.745	12.34
417.951	12.35
418.157	12.38
418.362	12.22
418.568	12.1
418.774	12.07
418.979	12.02
419.185	12.03
419.391	12
419.596	11.9
419.802	11.94
420.008	11.96
420.213	11.31
420.419	11.2
420.624	11.24
420.83	11.24
421.035	11.17
421.241	11.16
421.446	11.02
421.652	11.06
421.857	11.04
422.063	10.95
422.268	10.89
422.474	11.32
422.679	11.4
422.885	11.47
423.09	11.43
423.295	11.41
423.501	11.35
423.706	11.45
423.911	11.45
424.117	11.35
424.322	11.41
424.527	11.41
424.733	11.51
424.938	11.5
425.143	11.49
425.349	11.52
425.554	11.58
425.759	11.69
425.964	11.71
426.169	11.81
426.375	11.82
426.58	11.91
426.785	12.04
426.99	12.06
427.195	12.18
427.4	12.24
427.605	12.36
427.811	12.51
428.016	12.46
428.221	12.43
428.426	12.45
428.631	12.71
428.836	12.59
429.041	12.56
429.246	12.72
429.451	12.8
429.656	12.74
429.861	12.82
430.066	12.77
430.271	12.74
430.476	12.78
430.681	12.6
430.886	12.6
431.09	12.72
431.295	12.73
431.5	12.7
431.705	12.58
431.91	12.46
432.115	12.27
432.32	12.34
432.524	12.44
432.729	12.38
432.934	12.52
433.139	12.51
433.343	12.57
433.548	12.68
433.753	12.75
433.958	12.89
434.162	13.16
434.367	13.34
434.572	13.38
434.776	13.55
434.981	13.82
435.186	13.93
435.39	14.02
435.595	14.14
435.799	14.09
436.004	14.12
436.209	14.01
436.413	13.83
436.618	13.74
436.822	13.64
437.027	13.56
437.231	13.34
437.436	13.23
437.64	13.15
437.845	12.89
438.049	12.8
438.253	12.65
438.458	12.61
438.662	12.66
438.867	12.7
439.071	12.63
439.275	12.47
439.48	12.49
439.684	12.47
439.888	12.36
440.093	12.44
440.297	12.4
440.501	12.39
440.706	12.43
440.91	12.38
441.114	12.36
441.318	12.25
441.523	12.34
441.727	12.34
441.931	12.41
442.135	12.54
442.339	12.56
442.543	12.57
442.748	12.57
442.952	12.5
443.156	12.55
443.36	12.55
443.564	12.68
443.768	12.62
443.972	12.58
444.176	12.46
444.38	12.5
444.584	12.39
444.788	12.38
444.992	12.35
445.196	12.42
445.4	12.33
445.604	12.2
445.808	12.22
446.012	12.23
446.216	12.23
446.42	12.22
446.624	12.15
446.828	12.32
447.032	12.34
447.235	12.41
447.439	12.45
447.643	12.48
447.847	12.64
448.051	12.64
448.254	12.63
448.458	12.61
448.662	12.73
448.866	12.83
449.069	12.73
449.273	12.67
449.477	12.71
449.681	12.67
449.884	12.83
450.088	12.87
450.292	12.93
450.495	13.03
450.699	13.09
450.902	13.04
451.106	12.97
451.31	13.02
451.513	13.07
451.717	13.06
451.92	12.98
452.124	12.87
452.327	12.85
452.531	12.89
452.734	12.85
452.938	12.89
453.141	12.91
453.345	12.78
453.548	12.81
453.752	12.9
453.955	12.97
454.158	13.1
454.362	13.11
454.565	13.13
454.769	13.21
454.972	13.3
455.175	13.42
455.379	13.48
455.582	13.65
455.785	13.71
455.988	13.77
456.192	13.67
456.395	13.58
456.598	13.51
456.801	13.43
457.005	13.33
457.208	13.38
457.411	13.33
457.614	13.2
457.817	13.06
458.021	12.88
458.224	12.73
458.427	12.72
458.63	12.57
458.833	12.63
459.036	12.6
459.239	12.57
459.442	12.45
459.645	12.49
459.848	12.46
460.051	12.49
460.254	12.52
460.457	12.55
460.66	12.49
460.863	12.57
461.066	12.53
461.269	12.52
461.472	12.65
461.675	12.72
461.878	12.66
462.081	12.82
462.284	12.85
462.486	12.9
462.689	12.96
462.892	13.24
463.095	13.39
463.298	13.42
463.5	13.55
463.703	13.47
463.906	13.37
464.109	13.43
464.311	13.32
464.514	13.3
464.717	13.4
464.92	13.49
465.122	13.47
465.325	13.36
465.528	13.52
465.73	13.5
465.933	13.54
466.135	13.63
466.338	13.62
466.541	13.72
466.743	13.77
466.946	13.75
467.148	13.63
467.351	13.55
467.553	13.65
467.756	13.73
467.958	13.8
468.161	13.84
468.363	14
468.566	13.95
468.768	14.05
468.971	13.96
469.173	13.98
469.375	14.07
469.578	13.99
469.78	14.17
469.983	14.12
470.185	14.08
470.387	14.1
470.59	14.02
470.792	14.17
470.994	14.15
471.196	14.24
471.399	14.16
471.601	14.19
471.803	14.32
472.005	14.22
472.208	14.06
472.41	14.21
472.612	14.16
472.814	14.26
473.016	14.24
473.218	14.22
473.421	14.27
473.623	14.33
473.825	14.41
474.027	14.52
474.229	14.59
474.431	14.76
474.633	14.6
474.835	14.59
475.037	14.43
475.239	14.47
475.441	14.58
475.643	14.6
475.845	14.62
476.047	14.62
476.249	14.59
476.451	14.51
476.653	14.4
476.855	14.31
477.057	14.41
477.258	14.44
477.46	14.3
477.662	14.25
477.864	14.2
478.066	14.12
478.268	14.02
478.469	14.02
478.671	13.96
478.873	13.99
479.075	14.01
479.276	13.89
479.478	13.82
479.68	13.91
479.882	13.8
480.083	13.79
480.285	13.77
480.487	13.78
480.688	13.65
480.89	13.67
481.091	13.52
481.293	13.47
481.495	13.39
481.696	13.23
481.898	13
482.099	12.85
482.301	12.64
482.502	12.5
482.704	12.32
482.905	12.2
483.107	12.04
483.308	11.98
483.51	11.9
483.711	11.82
483.913	11.79
484.114	11.79
484.315	11.76
484.517	11.8
484.718	11.83
484.92	11.9
485.121	11.98
485.322	12.04
485.524	12.11
485.725	12.17
485.926	12.23
486.127	12.28
486.329	12.32
486.53	12.35
486.731	12.36
486.932	12.33
487.134	12.3
487.335	12.26
487.536	12.26
487.737	12.25
487.938	12.25
488.139	12.28
488.341	12.29
488.542	12.36
488.743	12.47
488.944	12.56
489.145	12.63
489.346	12.72
489.547	12.8
489.748	12.88
489.949	12.95
490.15	13.01
490.351	13.02
490.552	13.03
490.753	13
490.954	12.92
491.155	12.89
491.356	12.87
491.557	12.82
491.758	12.83
491.959	12.83
492.159	12.85
492.36	12.92
492.561	13.03
492.762	13.16
492.963	13.29
493.164	13.5
493.364	13.62
493.565	13.81
493.766	13.97
493.967	14.16
494.167	14.36
494.368	14.48
494.569	14.57
494.769	14.64
494.97	14.65
495.171	14.64
495.371	14.55
495.572	14.64
495.773	14.65
495.973	14.69
496.174	14.63
496.375	14.5
496.575	14.6
496.776	14.59
496.976	14.57
497.177	14.62
497.377	14.58
497.578	14.56
497.778	14.53
497.979	14.51
498.179	14.57
498.38	14.6
498.58	14.69
498.78	14.68
498.981	14.7
499.181	14.71
499.382	14.76
499.582	14.88
499.782	14.9
499.983	14.9
500.183	15.04
500.383	15.07
500.584	15.17
500.784	15.25
500.984	15.2
501.184	15.26
501.385	15.28
501.585	15.25
501.785	15.27
501.985	15.32
502.185	15.3
502.386	15.25
502.586	15.23
502.786	15.18
502.986	15.17
503.186	15.16
503.386	15.26
503.586	15.31
503.786	15.31
503.987	15.37
504.187	15.36
504.387	15.49
504.587	15.52
504.787	15.63
504.987	15.69
505.187	15.74
505.387	15.81
505.587	15.76
505.786	15.81
505.986	15.92
506.186	15.9
506.386	16.08
506.586	16.13
506.786	16.02
506.986	15.91
507.186	15.92
507.386	15.83
507.585	15.74
507.785	15.71
507.985	15.73
508.185	15.6
508.384	15.56
508.584	15.41
508.784	15.38
508.984	15.43
509.183	15.47
509.383	15.55
509.583	15.62
509.782	15.69
509.982	15.72
510.182	15.8
510.381	15.81
510.581	15.82
510.781	15.91
510.98	15.88
511.18	15.92
511.379	15.92
511.579	15.94
511.778	15.99
511.978	16
512.177	16.07
512.377	15.96
512.576	16.06
512.776	16.19
512.975	16.26
513.175	16.29
513.374	16.31
513.573	16.41
513.773	16.31
513.972	16.32
514.172	16.38
514.371	16.42
514.57	16.48
514.77	16.61
514.969	16.59
515.168	16.58
515.367	16.65
515.567	16.81
515.766	16.77
515.965	16.88
516.164	16.9
516.364	16.85
516.563	16.72
516.762	16.74
516.961	16.61
517.16	16.58
517.359	16.48
517.559	16.41
517.758	16.31
517.957	16.28
518.156	16.23
518.355	16.28
518.554	16.31
518.753	16.36
518.952	16.35
519.151	16.34
519.35	16.44
519.549	16.47
519.748	16.6
519.947	16.59
520.146	16.69
520.345	16.79
520.544	16.83
520.743	16.92
520.942	17.02
521.141	17.14
521.339	17.29
521.538	17.33
521.737	17.39
521.936	17.45
522.135	17.66
522.333	17.66
522.532	17.67
522.731	17.62
522.93	17.69
523.129	17.75
523.327	17.79
523.526	17.75
523.725	17.77
523.923	17.7
524.122	17.56
524.321	17.43
524.519	17.38
524.718	17.31
524.917	17.32
525.115	17.24
525.314	17.18
525.512	17.11
525.711	17.03
525.909	16.92
526.108	16.94
526.306	16.85
526.505	16.78
526.703	16.67
526.902	16.61
527.1	16.44
527.299	16.36
527.497	16.23
527.696	16.11
527.894	16.07
528.092	16.01
528.291	15.96
528.489	15.99
528.688	16
528.886	16.04
529.084	16.05
529.283	16.15
529.481	16.21
529.679	16.3
529.877	16.46
530.076	16.58
530.274	16.76
530.472	16.95
530.67	17.12
530.869	17.26
531.067	17.39
531.265	17.44
531.463	17.52
531.661	17.54
531.859	17.56
532.057	17.52
532.255	17.53
532.454	17.5
532.652	17.43
532.85	17.38
533.048	17.38
533.246	17.4
533.444	17.49
533.642	17.54
533.84	17.64
534.038	17.76
534.236	17.86
534.434	17.92
534.632	18.03
534.83	18.17
535.027	18.24
535.225	18.39
535.423	18.51
535.621	18.57
535.819	18.71
536.017	18.78
536.215	18.87
536.412	18.94
536.61	19.06
536.808	19.11
537.006	19.18
537.203	19.41
537.401	19.58
537.599	19.71
537.797	19.94
537.994	20.06
538.192	20.27
538.39	20.43
538.587	20.65
538.785	20.92
538.983	21.17
539.18	21.42
539.378	21.46
539.575	21.45
539.773	21.52
539.97	21.53
540.168	21.55
540.366	21.52
540.563	21.57
540.761	21.6
540.958	21.53
541.155	21.5
541.353	21.51
541.55	21.6
541.748	21.65
541.945	21.74
542.143	21.89
542.34	22.05
542.537	22.22
542.735	22.36
542.932	22.5
543.129	22.79
543.327	23.2
543.524	23.68
543.721	24.15
543.919	24.74
544.116	25.31
544.313	25.97
544.51	26.61
544.708	27.22
544.905	27.92
545.102	28.59
545.299	29.11
545.496	29.45
545.693	29.61
545.891	29.63
546.088	29.56
546.285	29.31
546.482	28.95
546.679	28.64
546.876	28.35
547.073	28.03
547.27	27.66
547.467	27.45
547.664	27.09
547.861	26.88
548.058	26.74
548.255	26.57
548.452	26.67
548.649	26.73
548.846	26.74
549.043	26.7
549.24	26.72
549.437	26.66
549.633	26.49
549.83	26.59
550.027	26.43
550.224	26.25
550.421	26.24
550.618	25.94
550.814	25.74
551.011	25.41
551.208	25.17
551.405	25.06
551.601	24.87
551.798	24.68
551.995	24.3
552.191	24.19
552.388	24.06
552.585	23.86
552.781	23.77
552.978	23.68
553.175	23.66
553.371	23.62
553.568	23.47
553.764	23.57
553.961	23.64
554.157	23.7
554.354	23.63
554.55	23.67
554.747	23.67
554.943	23.72
555.14	23.76
555.336	23.75
555.533	23.81
555.729	23.9
555.926	23.72
556.122	23.57
556.318	23.69
556.515	23.85
556.711	23.73
556.907	23.95
557.104	23.92
557.3	23.94
557.496	23.93
557.693	23.94
557.889	23.96
558.085	24.04
558.281	24.11
558.478	24.05
558.674	23.98
558.87	24.14
559.066	24.02
559.262	24.13
559.459	24.04
559.655	24.17
559.851	24.19
560.047	24.15
560.243	24.23
560.439	24.03
560.635	24.02
560.831	24.04
561.027	24
561.223	23.86
561.419	23.78
561.615	23.74
561.811	23.81
562.007	23.76
562.203	23.66
562.399	23.62
562.595	23.81
562.791	23.87
562.987	23.86
563.183	23.83
563.379	23.88
563.575	23.85
563.771	24
563.966	23.74
564.162	23.71
564.358	23.66
564.554	23.45
564.75	23.33
564.945	23.03
565.141	22.92
565.337	22.88
565.533	22.72
565.728	22.61
565.924	22.37
566.12	22.42
566.315	22.41
566.511	22.55
566.707	22.64
566.902	22.61
567.098	22.73
567.293	22.84
567.489	22.81
567.684	22.87
567.88	22.92
568.076	22.93
568.271	22.91
568.467	22.83
568.662	22.73
568.858	22.7
569.053	22.73
569.248	22.72
569.444	22.63
569.639	22.56
569.835	22.64
570.03	22.61
570.225	22.77
570.421	22.75
570.616	22.83
570.812	22.71
571.007	22.62
571.202	22.51
571.397	22.44
571.593	22.46
571.788	22.48
571.983	22.45
572.178	22.52
572.374	22.43
572.569	22.42
572.764	22.42
572.959	22.51
573.154	22.6
573.35	22.64
573.545	22.66
573.74	22.58
573.935	22.55
574.13	22.5
574.325	22.52
574.52	22.63
574.715	22.85
574.91	22.92
575.105	23.03
575.3	23.28
575.495	23.63
575.69	23.83
575.885	24.08
576.08	24.43
576.275	24.69
576.47	24.97
576.665	25.24
576.86	25.45
577.055	25.7
577.25	25.95
577.444	26
577.639	26.18
577.834	26.51
578.029	26.76
578.224	26.94
578.418	27.1
578.613	27.37
578.808	27.63
579.003	27.71
579.197	27.81
579.392	27.88
579.587	28.13
579.781	28.12
579.976	28.22
580.171	28.13
580.365	28.14
580.56	28.32
580.755	28.13
580.949	27.93
581.144	28.04
581.338	28.15
581.533	28.23
581.727	28.28
581.922	28.4
582.116	28.45
582.311	28.64
582.505	28.66
582.7	28.49
582.894	28.6
583.089	28.79
583.283	28.88
583.478	28.75
583.672	28.73
583.866	28.61
584.061	28.61
584.255	28.49
584.449	28.49
584.644	28.68
584.838	28.87
585.032	28.96
585.226	29.08
585.421	29.2
585.615	29.51
585.809	29.83
586.003	30.19
586.198	30.3
586.392	30.55
586.586	30.53
586.78	30.57
586.974	30.57
587.168	30.53
587.363	30.2
587.557	29.82
587.751	29.59
587.945	29.11
588.139	28.84
588.333	28.38
588.527	28.08
588.721	27.95
588.915	27.55
589.109	27.48
589.303	27.23
589.497	27.21
589.691	27.32
589.885	27.23
590.079	27.26
590.273	27.21
590.466	27.51
590.66	27.66
590.854	27.84
591.048	28.18
591.242	28.3
591.436	28.56
591.629	28.91
591.823	29.03
592.017	29.22
592.211	29.31
592.404	29.38
592.598	29.29
592.792	29.23
592.986	29.17
593.179	29.03
593.373	28.79
593.567	28.57
593.76	28.25
593.954	27.84
594.147	27.57
594.341	27.44
594.535	27.21
594.728	27.05
594.922	26.78
595.115	26.53
595.309	26.31
595.502	26.07
595.696	25.91
595.889	25.78
596.083	25.69
596.276	25.59
596.47	25.38
596.663	25.27
596.856	25.19
597.05	25.19
597.243	25.25
597.437	25.37
597.63	25.6
597.823	25.75
598.017	26.08
598.21	26.33
598.403	26.6
598.596	26.97
598.79	27.25
598.983	27.55
599.176	27.9
599.369	28.13
599.563	28.35
599.756	28.55
599.949	28.62
600.142	28.41
600.335	28.47
600.528	28.33
600.722	28.24
600.915	28.07
601.108	27.86
601.301	27.57
601.494	27.27
601.687	26.88
601.88	26.66
602.073	26.46
602.266	26.34
602.459	26
602.652	25.86
602.845	25.69
603.038	25.65
603.231	25.53
603.424	25.46
603.617	25.34
603.809	25.17
604.002	25.16
604.195	25.15
604.388	25.02
604.581	25.21
604.774	25.33
604.966	25.53
605.159	25.55
605.352	25.73
605.545	25.83
605.737	26.11
605.93	26.44
606.123	26.7
606.316	27.06
606.508	27.56
606.701	27.86
606.894	28.08
607.086	28.3
607.279	28.79
607.471	29.02
607.664	29.6
607.857	30.06
608.049	30.97
608.242	32.05
608.434	33.34
608.627	34.79
608.819	36.67
609.012	39.06
609.204	41.47
609.397	44.17
609.589	47.31
609.782	50.49
609.974	54.01
610.166	57.59
610.359	60.74
610.551	63.72
610.743	66.66
610.936	68.95
611.128	70.7
611.32	72.28
611.513	73.07
611.705	73.3
611.897	72.96
612.09	71.99
612.282	70.45
612.474	68.97
612.666	67.06
612.858	65.07
613.051	63.22
613.243	61.43
613.435	59.68
613.627	58.17
613.819	56.54
614.011	55.33
614.203	53.9
614.395	52.51
614.588	51.02
614.78	49.9
614.972	48.6
615.164	47.38
615.356	45.96
615.548	44.6
615.74	43.36
615.932	42.28
616.124	40.89
616.315	39.98
616.507	38.94
616.699	38.14
616.891	37.23
617.083	36.32
617.275	35.49
617.467	34.97
617.659	34.67
617.85	34.28
618.042	33.91
618.234	33.69
618.426	33.21
618.618	33.13
618.809	32.91
619.001	32.96
619.193	33.05
619.384	32.95
619.576	33.22
619.768	33.03
619.959	33.16
620.151	33.22
620.343	33.46
620.534	33.36
620.726	33.43
620.917	33.48
621.109	33.56
621.301	33.62
621.492	33.88
621.684	33.88
621.875	34.22
622.067	34.16
622.258	34.24
622.45	34.3
622.641	34.76
622.832	34.98
623.024	34.94
623.215	34.79
623.407	34.96
623.598	34.91
623.789	34.85
623.981	34.59
624.172	34.44
624.363	34.39
624.555	34.18
624.746	33.75
624.937	33.29
625.129	33.22
625.32	33.12
625.511	32.81
625.702	32.63
625.893	32.34
626.085	32
626.276	31.75
626.467	31.68
626.658	31.4
626.849	31.48
627.04	31.49
627.231	31.5
627.422	31.55
627.614	31.64
627.805	31.72
627.996	31.9
628.187	32.23
628.378	32.78
628.569	33.17
628.76	33.87
628.951	34.32
629.142	34.89
629.332	35.36
629.523	35.8
629.714	36.32
629.905	36.81
630.096	37.35
630.287	37.68
630.478	37.86
630.669	37.89
630.859	37.65
631.05	37.53
631.241	37.28
631.432	36.88
631.623	36.45
631.813	35.94
632.004	35.3
632.195	34.58
632.385	33.95
632.576	33.25
632.767	32.51
632.957	31.95
633.148	31.47
633.339	30.95
633.529	30.58
633.72	30.27
633.91	29.93
634.101	29.56
634.292	29.34
634.482	29.24
634.673	29.06
634.863	29.14
635.054	29.25
635.244	29.1
635.435	29.16
635.625	29.08
635.815	29.02
636.006	29.03
636.196	29.06
636.387	29.13
636.577	29.27
636.767	29.45
636.958	29.47
637.148	29.38
637.338	29.55
637.529	29.74
637.719	29.92
637.909	29.99
638.099	30.07
638.29	30.17
638.48	30.14
638.67	30.05
638.86	30.06
639.05	30.05
639.241	30.15
639.431	30.32
639.621	30.07
639.811	30.17
640.001	30.16
640.191	30.02
640.381	30.32
640.571	30.57
640.761	30.75
640.951	30.82
641.141	30.68
641.331	30.73
641.521	30.58
641.711	30.9
641.901	30.69
642.091	30.94
642.281	31.21
642.471	31.05
642.661	31.34
642.851	31.41
643.041	31.56
643.231	31.78
643.42	31.74
643.61	31.74
643.8	31.58
643.99	31.86
644.18	31.54
644.369	31.53
644.559	31.6
644.749	31.46
644.939	31.48
645.128	31.31
645.318	31.26
645.508	31.4
645.697	31.47
645.887	31.45
646.076	31.2
646.266	31.3
646.456	31.24
646.645	31.3
646.835	31.16
647.024	30.95
647.214	31.03
647.403	30.89
647.593	31.25
647.782	31.51
647.972	31.53
648.161	31.85
648.351	31.89
648.54	32.49
648.73	32.53
648.919	32.75
649.108	33.03
649.298	33.26
649.487	33.6
649.677	33.36
649.866	33.14
650.055	33.07
650.244	32.98
650.434	33.16
650.623	32.73
650.812	32.71
651.002	32.48
651.191	32.42
651.38	32.11
651.569	32
651.758	31.99
651.947	32.16
652.137	32.46
652.326	32.46
652.515	32.44
652.704	32.57
652.893	32.77
653.082	33
653.271	33.13
653.46	33.35
653.649	33.37
653.838	33.19
654.027	32.89
654.216	32.61
654.405	32.44
654.594	32.15
654.783	31.74
654.972	31.48
655.161	31.05
655.35	30.79
655.539	30.55
655.728	30.66
655.916	30.34
656.105	30.38
656.294	30.35
656.483	30.41
656.672	30.6
656.86	30.76
657.049	30.45
657.238	30.37
657.427	30.24
657.615	30.07
657.804	29.69
657.993	29.69
658.181	29.46
658.37	29.33
658.559	28.77
658.747	28.53
658.936	28.34
659.125	28.37
659.313	28.44
659.502	28.44
659.69	28.64
659.879	28.65
660.067	29.06
660.256	29.27
660.444	29.58
660.633	30.12
660.821	30.45
661.01	30.97
661.198	31.43
661.387	31.74
661.575	31.91
661.763	32.18
661.952	32.42
662.14	32.64
662.328	32.83
662.517	33.03
662.705	33.06
662.893	33.25
663.082	33.17
663.27	32.94
663.458	33.02
663.646	33.41
663.834	33.18
664.023	33.52
664.211	33.17
664.399	33.15
664.587	33.09
664.775	33.29
664.963	33.44
665.152	33.34
665.34	33.66
665.528	33.69
665.716	33.57
665.904	33.58
666.092	33.43
666.28	33.42
666.468	33.27
666.656	33.33
666.844	33.28
667.032	32.99
667.22	32.96
667.408	32.58
667.596	32.64
667.784	32.52
667.971	32.67
668.159	32.48
668.347	32.34
668.535	32.59
668.723	32.24
668.911	32.14
669.098	32.2
669.286	32.11
669.474	32.08
669.662	31.82
669.849	31.97
670.037	32.11
670.225	32.18
670.413	32.45
670.6	32.56
670.788	32.83
670.976	32.87
671.163	32.79
671.351	33.22
671.538	33.75
671.726	33.97
671.913	33.64
672.101	33.48
672.289	33.55
672.476	33.42
672.664	33.21
672.851	33.38
673.039	33.53
673.226	33.9
673.413	33.57
673.601	33.38
673.788	33.31
673.976	33.75
674.163	33.81
674.35	33.77
674.538	33.81
674.725	34.03
674.912	33.93
675.1	34.02
675.287	33.88
675.474	34.05
675.662	34.3
675.849	34.28
676.036	33.82
676.223	33.6
676.411	33.65
676.598	33.8
676.785	33.39
676.972	33.45
677.159	33.34
677.346	33.09
677.533	33.1
677.721	32.36
677.908	32.49
678.095	32.43
678.282	32.28
678.469	32.13
678.656	31.93
678.843	31.85
679.03	31.5
679.217	31.33
679.404	31.37
679.591	31.09
679.778	31.46
679.964	31.18
680.151	31.24
680.338	31.25
680.525	31.47
680.712	31.62
680.899	31.98
681.086	32.11
681.272	32.26
681.459	32.21
681.646	32.46
681.833	32.32
682.02	32.54
682.206	32.56
682.393	32.94
682.58	32.97
682.766	32.99
682.953	32.92
683.14	33.12
683.326	33.48
683.513	33.62
683.7	33.88
683.886	34.08
684.073	34.2
684.259	34.56
684.446	34.6
684.632	34.83
684.819	34.89
685.005	34.99
685.192	34.95
685.378	34.99
685.565	35.21
685.751	34.74
685.938	34.89
686.124	34.74
686.31	35.25
686.497	34.99
686.683	34.9
686.87	34.76
687.056	34.93
687.242	35.04
687.429	34.78
687.615	34.66
687.801	34.79
687.987	35.07
688.174	35.34
688.36	34.69
688.546	34.76
688.732	34.42
688.918	34.53
689.105	34.37
689.291	34.16
689.477	34.01
689.663	34.41
689.849	34.49
690.035	33.96
690.221	33.87
690.407	34.29
690.593	34.69
690.779	34.83
690.965	35.19
691.151	35.27
691.337	35.45
691.523	35.82
691.709	35.84
691.895	35.71
692.081	35.92
692.267	36.11
692.453	36.05
692.639	36.05
692.825	36.25
693.011	35.99
693.196	36
693.382	36.12
693.568	36.09
693.754	35.63
693.94	36.17
694.125	36.22
694.311	36.35
694.497	36.39
694.682	36.5
694.868	36.53
695.054	36.88
695.239	36.94
695.425	36.8
695.611	36.49
695.796	36.43
695.982	36.03
696.168	35.82
696.353	35.06
696.539	34.82
696.724	34.19
696.91	33.84
697.095	33.03
697.281	32.48
697.466	31.93
697.652	31.68
697.837	31.41
698.023	31.12
698.208	30.83
698.393	30.81
698.579	30.39
698.764	30.19
698.949	30.13
699.135	30.05
699.32	30.3
699.505	30.59
699.691	30.6
699.876	30.78
700.061	30.88
700.246	31.27
700.432	31.55
700.617	31.94
700.802	32.23
700.987	32.71
701.172	33.64
701.358	34.09
701.543	34.74
701.728	35.25
701.913	35.6
702.098	36.11
702.283	36.68
702.468	37.38
702.653	37.79
702.838	38.35
703.023	38.86
703.208	38.87
703.393	38.87
703.578	39.34
703.763	40.11
703.948	40.51
704.133	41.32
704.318	41.82
704.503	42.56
704.688	43.24
704.873	44.21
705.057	44.93
705.242	45.75
705.427	46.48
705.612	46.8
705.797	47.43
705.981	48.33
706.166	48.62
706.351	48.82
706.536	48.84
706.72	49.19
706.905	49
707.09	49
707.274	49
707.459	49.32
707.644	49.24
707.828	49.36
708.013	49.09
708.197	49.24
708.382	49.07
708.567	48.5
708.751	48.57
708.936	48.48
709.12	47.97
709.305	47.2
709.489	46.55
709.673	45.89
709.858	44.99
710.042	44.56
710.227	44.11
710.411	44.13
710.596	44.28
710.78	43.72
710.964	43.22
711.149	43.34
711.333	43.7
711.517	43.68
711.702	43.51
711.886	43.75
712.07	43.78
712.254	43.74
712.438	43.3
712.623	42.92
712.807	42.53
712.991	42.68
713.175	42.01
713.359	41.54
713.544	41.32
713.728	41.36
713.912	41
714.096	40.32
714.28	39.26
714.464	38.65
714.648	38.11
714.832	37.59
715.016	37.06
715.2	37.15
715.384	37.01
715.568	36.79
715.752	36.47
715.936	36.02
716.12	36.07
716.304	36.32
716.488	36.24
716.671	36
716.855	36.15
717.039	35.75
717.223	35.43
717.407	35.34
717.59	35.14
717.774	34.89
717.958	35.1
718.142	35.3
718.325	35.47
718.509	35.33
718.693	35.54
718.877	35.37
719.06	35.6
719.244	35.73
719.428	35.82
719.611	36.32
719.795	37.02
719.978	36.91
720.162	36.71
720.345	36.44
720.529	36.95
720.713	37.47
720.896	38.1
721.08	38.87
721.263	39.22
721.446	39.42
721.63	39.17
721.813	38.89
721.997	39.42
722.18	39.5
722.364	39.81
722.547	39.22
722.73	39.22
722.914	38.85
723.097	38.59
723.28	38.26
723.464	38.04
723.647	37.83
723.83	37.48
724.013	36.47
724.197	36.25
724.38	35.75
724.563	36.08
724.746	36.23
724.929	36.18
725.112	35.79
725.296	35.92
725.479	35.87
725.662	35.74
725.845	35.61
726.028	35.81
726.211	35.89
726.394	36.25
726.577	35.71
726.76	35.29
726.943	35.26
727.126	35.37
727.309	35
727.492	34.73
727.675	34.46
727.858	34.92
728.041	35.24
728.224	35.46
728.407	35.5
728.589	35.89
728.772	35.76
728.955	35.45
729.138	35.66
729.321	36.01
729.503	36.22
729.686	36.45
729.869	36.14
730.052	35.56
730.234	35.44
730.417	35.62
730.6	35.63
730.782	36.05
730.965	36.13
731.148	35.51
731.33	35.21
731.513	35.02
731.695	35.26
731.878	35.56
732.061	36.42
732.243	36.49
732.426	36.5
732.608	37.14
732.791	36.83
732.973	37.14
733.156	37.77
733.338	37.78
733.52	38.52
733.703	38.51
733.885	38.7
734.068	38.58
734.25	38.25
734.432	37.78
734.615	37.62
734.797	38.09
734.979	38.46
735.162	38.39
735.344	38.36
735.526	37.87
735.708	38.38
735.891	38.92
736.073	38.79
736.255	39.1
736.437	39.34
736.619	39.03
736.802	38.69
736.984	38.7
737.166	38.97
737.348	39.61
737.53	39.58
737.712	39.37
737.894	39.04
738.076	39.66
738.258	39.17
738.44	39.51
738.622	39.49
738.804	39.41
738.986	39.46
739.168	39.16
739.35	39.47
739.532	39.84
739.714	39.95
739.896	40.17
740.078	39.55
740.259	40.35
740.441	40.12
740.623	40.13
740.805	40.54
740.987	40.48
741.168	41.02
741.35	41.07
741.532	41.02
741.714	40.35
741.895	40.66
742.077	41.55
742.259	42.19
742.44	42.82
742.622	42.71
742.804	43.61
742.985	44.17
743.167	44.1
743.348	43.5
743.53	43.6
743.711	44.82
743.893	44.81
744.075	44.16
744.256	43.88
744.438	43.64
744.619	44.97
744.8	44.38
744.982	44.25
745.163	44.39
745.345	45.12
745.526	45.81
745.707	45.37
745.889	45.23
746.07	46.01
746.252	45.77
746.433	47.12
746.614	46.58
746.795	46.08
746.977	46.19
747.158	46.52
747.339	46.84
747.52	45.98
747.702	45.75
747.883	45.23
748.064	44.54
748.245	44.77
748.426	43.59
748.607	43.53
748.788	42.91
748.97	42.38
749.151	41.89
749.332	41.72
749.513	41.9
749.694	42.56
749.875	42.84
750.056	42.64
750.237	42.48
750.418	42.56
750.599	42.27
750.78	43.18
750.96	43.31
751.141	43.28
751.322	42.58
751.503	43.15
751.684	42.62
751.865	42.92
752.046	43.52
752.226	43.28
752.407	43.31
752.588	43.53
752.769	43.85
752.949	44.07
753.13	44.98
753.311	45.37
753.492	45.41
753.672	45.5
753.853	45.12
754.034	44.75
754.214	44.91
754.395	44.5
754.575	45.16
754.756	44.53
754.937	44.41
755.117	43.36
755.298	43.74
755.478	43.51
755.659	44.31
755.839	44.7
756.02	45.2
756.2	45.26
756.381	45.39
756.561	44.57
756.741	44.65
756.922	44.41
757.102	44.94
757.283	43.89
757.463	43.89
757.643	42.78
757.823	41.85
758.004	40.44
758.184	39.85
758.364	38.88
758.545	38.39
758.725	37.69
758.905	36.83
759.085	35.22
759.265	34.21
759.446	33.07
759.626	32.54
759.806	32.28
759.986	32.33
760.166	31.77
760.346	31.57
760.526	31.23
760.706	31.11
760.886	31.45
761.066	31.48
761.246	32
761.426	32.13
761.606	32.49
761.786	32.12
761.966	31.89
762.146	31.94
762.326	31.57
762.506	31.76
762.686	31.54
762.866	31.1
763.046	30.6
763.225	30.54
763.405	30.63
763.585	30.49
763.765	30.45
763.945	30.49
764.124	30.67
764.304	31.18
764.484	31.4
764.664	31.32
764.843	31.49
765.023	32.37
765.203	32.78
765.382	32.92
765.562	33.32
765.741	34.18
765.921	35.3
766.101	36.15
766.28	36.69
766.46	36.97
766.639	37.96
766.819	38.9
766.998	39.23
767.178	39.65
767.357	40.65
767.537	41.29
767.716	41.63
767.896	41.42
768.075	40.5
768.254	41.02
768.434	41.68
768.613	42.23
768.792	43.3
768.972	43.53
769.151	45.02
769.33	44.86
769.51	45.23
769.689	45.31
769.868	45.79
770.047	47.28
770.226	47.54
770.406	47.57
770.585	48.03
770.764	47.13
770.943	47.85
771.122	46.47
771.301	46.46
771.48	46.18
771.66	46.44
771.839	46.94
772.018	47.15
772.197	47.98
772.376	48.52
772.555	49.28
772.734	49.57
772.913	50.4
773.092	50.66
773.271	50.91
773.449	51.42
773.628	51.96
773.807	51.88
773.986	52.35
774.165	51.61
774.344	52.06
774.523	52.33
774.701	53.09
774.88	51.98
775.059	52.42
775.238	52.52
775.417	52.34
775.595	52.12
775.774	51.3
775.953	50.22
776.131	50.05
776.31	48.83
776.489	47.56
776.667	46.61
776.846	47.69
777.025	47.09
777.203	46.98
777.382	47.2
777.56	47.33
777.739	47.62
777.917	48.27
778.096	48.4
778.274	49.29
778.453	50.44
778.631	50.61
778.81	50.57
778.988	51.54
779.166	50.81
779.345	50.3
779.523	50.16
779.702	51.24
779.88	51.45
780.058	52.2
780.237	51.98
780.415	52.33
780.593	53.31
780.771	53.47
780.95	53.24
781.128	54.66
781.306	54.02
781.484	54.23
781.662	53.48
781.841	53.42
782.019	53.78
782.197	53.8
782.375	52.1
782.553	50.9
782.731	50.23
782.909	50.34
783.087	50.05
783.265	51.03
783.443	50.96
783.621	50.87
783.799	50.77
783.977	50.53
784.155	50.53
784.333	51.61
784.511	51.45
784.689	51.18
784.867	50.64
785.045	49.4
785.223	49.31
785.4	49.44
785.578	49.95
785.756	50.24
785.934	49.75
786.112	50.14
786.289	48.68
786.467	48.83
786.645	48.65
786.823	48.78
787	49.55
787.178	48.84
787.356	47.87
787.533	48.01
787.711	47.26
787.889	46.1
788.066	45.44
788.244	45.01
788.421	45.2
788.599	45.73
788.776	45.55
788.954	45.68
789.131	45.94
789.309	46.48
789.486	45.72
789.664	45.78
789.841	46.65
790.019	47.31
790.196	48.72
790.373	49.27
790.551	49.7
790.728	50.45
790.906	51.72
791.083	52.81
791.26	52.53
791.437	52.14
791.615	52.27
791.792	52.61
791.969	51.39
792.146	51.37
792.324	51.85
792.501	52.06
792.678	51.06
792.855	50.63
793.032	50.33
793.209	50.85
793.387	52.13
793.564	52.26
793.741	51.97
793.918	53.38
794.095	52.8
794.272	52.19
794.449	51.13
794.626	51.74
794.803	50.82
794.98	49.77
795.157	49
795.334	48.52
795.511	47.64
795.688	47.21
795.864	46.01
796.041	45.37
796.218	44.86
796.395	45.03
796.572	44.38
796.749	44.21
796.925	44.92
797.102	44.76
797.279	43.78
797.456	45.32
797.632	45.82
797.809	46.05
797.986	46.96
798.162	47.04
798.339	46.86
798.516	47.19
798.692	47.2
798.869	46.87
799.046	48.34
799.222	49.49
799.399	48.56
799.575	48.31
799.752	49.58
799.928	49.27
800.105	49.78
800.281	49.04
800.458	49.3
800.634	50.33
800.811	50.53
800.987	50.95
801.163	50.72
801.34	51.3
801.516	51.01
801.692	49.64
801.869	49.16
802.045	48.07
802.221	47.66
802.398	46.92
802.574	46.4
802.75	46.66
802.926	45.7
803.103	45.89
803.279	46.08
803.455	46.68
803.631	48.06
803.807	48.27
803.983	49.42
804.16	51.16
804.336	51.4
804.512	52.4
804.688	53.26
804.864	51.92
805.04	52.94
805.216	52.44
805.392	53.8
805.568	52.87
805.744	53.92
805.92	53.54
806.096	53.2
806.272	53.03
806.448	51.86
806.623	51.3
806.799	51.75
806.975	50.9
807.151	49.54
807.327	47.55
807.503	46.46
807.678	47.3
807.854	47.1
808.03	46.45
808.206	46.54
808.381	46.32
808.557	46.73
808.733	47.61
808.908	47.78
809.084	49.8
809.26	51.27
809.435	52.65
809.611	51.46
809.787	52.91
809.962	54.29
810.138	56.27
810.313	56.5
810.489	56.45
810.664	57.13
810.84	56.51
811.015	56.33
811.191	55.09
811.366	55.8
811.542	57.37
811.717	56.28
811.892	55.8
812.068	55.44
812.243	54.49
812.419	54.15
812.594	53.78
812.769	54.4
812.944	53.75
813.12	53.92
813.295	53.16
813.47	51.73
813.645	51.27
813.821	50.84
813.996	49.85
814.171	52.18
814.346	51.19
814.521	51.37
814.697	50.67
814.872	51.15
815.047	52.77
815.222	51.37
815.397	50.94
815.572	52.09
815.747	52.08
815.922	50.92
816.097	50.44
816.272	52.04
816.447	50.67
816.622	50.65
816.797	51.1
816.972	48.29
817.147	48.49
817.322	48.65
817.496	46.25
817.671	46.69
817.846	47.3
818.021	45.03
818.196	44.37
818.371	44.5
818.545	44.85
818.72	41.4
818.895	42.15
819.069	42.5
819.244	40.45
819.419	39.93
819.594	38.68
819.768	37.13
819.943	35.7
820.117	33.84
820.292	31.54
820.467	29.8
820.641	28.99
820.816	26.96
820.99	25.46
821.165	24.63
821.339	23.58
821.514	23.11
821.688	22.31
821.863	21.83
822.037	21.22
822.212	20.58
822.386	20.29
822.56	20.13
822.735	20.33
822.909	19.95
823.084	20.13
823.258	20.28
823.432	19.83
823.606	20.2
823.781	20.63
823.955	21.03
824.129	22.08
824.303	22.5
824.478	23.28
824.652	23.84
824.826	24.8
825	25.36
825.174	26.25
825.348	27.76
825.523	27.89
825.697	28.4
825.871	28.87
826.045	28.61
826.219	28.92
826.393	28.4
826.567	27.54
826.741	27.57
826.915	27.49
827.089	27.21
827.263	26.78
827.437	27.04
827.611	26.68
827.784	27.18
827.958	27.34
828.132	27.29
828.306	28.04
828.48	28.9
828.654	29.14
828.827	29.45
829.001	30.09
829.175	30.47
829.349	31.32
829.522	31.88
829.696	32.93
829.87	34.36
830.044	34.35
830.217	34.59
830.391	34.5
830.565	35.01
830.738	36.03
830.912	36.31
831.085	36.74
831.259	37.2
831.432	37.94
831.606	36.3
831.779	34.7
831.953	35.03
832.126	35
832.3	36.43
832.473	36.12
832.647	34.36
832.82	33.89
832.994	33.67
833.167	32.61
833.34	32.43
833.514	32.03
833.687	31.73
833.86	31.39
834.034	30.5
834.207	29.23
834.38	29.01
834.553	29.55
834.727	30.12
834.9	30.56
835.073	31.34
835.246	30.79
835.419	31.69
835.593	32.99
835.766	33.86
835.939	36.18
836.112	37.95
836.285	39.78
836.458	41.37
836.631	41.65
836.804	42.5
836.977	44.28
837.15	47.41
837.323	48.39
837.496	50.52
837.669	51.64
837.842	52.63
838.015	54.14
838.188	54.07
838.361	54.62
838.533	55.26
838.706	55.88
838.879	55.41
839.052	54.22
839.225	54.01
839.398	51
839.57	50.41
839.743	49.58
839.916	47.55
840.088	49.45
840.261	49.62
840.434	49.6
840.607	49.2
840.779	48.59
840.952	49.6
841.124	51.05
841.297	52.91
841.47	53.96
841.642	55.22
841.815	57.49
841.987	57.43
842.16	57.66
842.332	62.17
842.505	64.62
842.677	65.14
842.85	65.41
843.022	65.27
843.194	64.76
843.367	66.04
843.539	66.37
843.712	66.19
843.884	65.65
844.056	68.16
844.229	65.37
844.401	62.79
844.573	64.81
844.745	68.06
844.918	67.85
845.09	70.44
845.262	72.74
845.434	76.04
845.606	80.32
845.779	83.7
845.951	85.92
846.123	86.24
846.295	88.26
846.467	86.49
846.639	83.33
846.811	86.4
846.983	86.39
847.155	83.8
847.327	80.11
847.499	75.79
847.671	74.6
847.843	72.7
848.015	74.45
848.187	77.79
848.359	78.34
848.531	79.23
848.703	76.17
848.875	77.99
849.047	79.98
849.218	83.24
849.39	87.66
849.562	86.57
849.734	82.42
849.905	81.33
850.077	79.37
850.249	78.68
850.421	79.3
850.592	80.9
850.764	79.56
850.936	80.67
851.107	79.72
851.279	78.54
851.451	84.06
851.622	86.64
851.794	85.71
851.965	84.46
852.137	86.09
852.308	88.48
852.48	84.91
852.651	83.39
852.823	80.38
852.994	78.78
853.166	77.76
853.337	72.72
853.509	75.1
853.68	73.56
853.851	73.84
854.023	73.67
854.194	72.04
854.365	76.03
854.537	76.23
854.708	73.66
854.879	75.93
855.05	78.56
855.222	76.55
855.393	76.61
855.564	79.21
855.735	78.98
855.906	78.53
856.078	75.28
856.249	71.92
856.42	71.86
856.591	74.32
856.762	68.15
856.933	64.5
857.104	69.49
857.275	65.08
857.446	65.37
857.617	67.98
857.788	67.61
857.959	71.37
858.13	73.38
858.301	79.76
858.472	84.12
858.643	92.27
858.814	94.76
858.985	90.06
859.155	95.04
859.326	98.4
859.497	90.84
859.668	90.46
859.839	94.53
860.009	96.13
860.18	89.94
860.351	84.84
860.522	84.3
860.692	81.11
860.863	86.43
861.034	84.8
861.204	79.61
861.375	85.36
861.546	84.54
861.716	81.37
861.887	84.43
862.057	83.1
862.228	80.78
862.398	81.17
862.569	84.3
862.739	83.75
862.91	84.04
863.08	86.61
863.251	87.94
863.421	92.14
863.592	92.22
863.762	85.77
863.932	93.77
864.103	93.95
864.273	89.39
864.443	84.2
864.614	79.78
864.784	76.29
864.954	76.4
865.125	75.55
865.295	71.11
865.465	70.33
865.635	72.84
865.805	67.99
865.976	66.91
866.146	72.98
866.316	77.7
866.486	80.03
866.656	85.76
866.826	84.74
866.996	84.57
867.166	85.34
867.336	86.34
867.506	88.26
867.676	88.64
867.846	86.8
868.016	87.43
868.186	88.6
868.356	89.01
868.526	91.3
868.696	90.99
868.866	89.95
869.036	94.45
869.206	88.93
869.376	83.21
869.545	83.2
869.715	92.85
869.885	87.58
870.055	88.93
870.224	86.84
870.394	83.17
870.564	85.01
870.734	84.17
870.903	82.15
871.073	85.79
871.243	90.88
871.412	85.72
871.582	78.85
871.751	76.73
871.921	75.77
872.091	76.29
872.26	75.57
872.43	72.44
872.599	74.44
872.769	72.34
872.938	72.96
873.108	69.8
873.277	69.57
873.446	68.35
873.616	68.29
873.785	62.61
873.955	63.5
874.124	63.29
874.293	66.95
874.463	65.94
874.632	64.89
874.801	64.84
874.971	65.52
875.14	71.4
875.309	73.94
875.478	75.86
875.647	82.61
875.817	81.19
875.986	79.14
876.155	78.93
876.324	81.3
876.493	84.22
876.662	80.06
876.831	75.81
877	72.89
877.17	71.76
877.339	73.73
877.508	64.26
877.677	66.76
877.846	64.19
878.015	61.44
878.184	57.39
878.352	57.09
878.521	56.98
878.69	59.76
878.859	58.35
879.028	60.78
879.197	59.15
879.366	58.89
879.534	54.34
879.703	54.1
879.872	51.58
880.041	50.09
880.21	48.25
880.378	45.19
880.547	40.52
880.716	37.32
880.884	34.68
881.053	32.44
881.222	31.55
881.39	29.5
881.559	27.8
881.727	26.46
881.896	24.36
882.065	23.06
882.233	22.94
882.402	23.57
882.57	23.49
882.739	23.74
882.907	23.64
883.076	23.92
883.244	25.18
883.412	26.48
883.581	27.26
883.749	29.12
883.918	31.01
884.086	32.41
884.254	33.18
884.423	34.43
884.591	35.06
884.759	36.95
884.927	40.11
885.096	40.97
885.264	41.61
885.432	44.07
885.6	45.67
885.769	45.66
885.937	44.3
886.105	46.9
886.273	47.11
886.441	48.61
886.609	49.84
886.777	50.13
886.945	52.25
887.113	54.14
887.281	55.71
887.449	58.54
887.617	61.27
887.785	65.52
887.953	66.12
888.121	70.6
888.289	74.89
888.457	74.01
888.625	73.34
888.793	72.47
888.961	68.88
889.129	69.97
889.296	69.41
889.464	68.84
889.632	69.67
889.8	70.56
889.967	73.17
890.135	68.13
