Data from 2938800__Reflection_03.txt Node
Date: Thu Mar 12 22:53:34 EDT 2015
User: robert
Spectrometer: USB4E03002
Autoset integration time: false
Trigger mode: 4
Integration Time (sec): 1.000000E-1
Scans to average: 10
Electric dark correction enabled: false
Nonlinearity correction enabled: false
Boxcar width: 5
Stray light correction enabled: false
XAxis mode: Wavelengths
Stop averaging: false
Number of Pixels in Spectrum: 3648
>>>>>Begin Spectral Data<<<<<
177.575	709.35
177.794	2211.11
178.014	692.95
178.233	726
178.452	327.13
178.672	352.06
178.891	379.78
179.11	311.14
179.33	281.56
179.549	291.38
179.768	239.86
179.987	213.53
180.207	192.59
180.426	207.63
180.645	243.99
180.864	250.08
181.084	260.56
181.303	199.45
181.522	184.18
181.741	159.67
181.96	158.2
182.179	160.34
182.398	168.9
182.618	160.8
182.837	157.05
183.056	159.12
183.275	164.79
183.494	151.64
183.713	147.65
183.932	152.4
184.151	166.53
184.37	161.82
184.589	159.87
184.808	153.95
185.027	157.72
185.246	156.35
185.465	136.85
185.684	147.08
185.903	143.71
186.122	156.38
186.341	170
186.56	168.71
186.779	175.19
186.998	192.9
187.216	189.72
187.435	186.11
187.654	187.02
187.873	198.98
188.092	199.71
188.311	231.24
188.53	221.4
188.748	203.15
188.967	205.1
189.186	196.04
189.405	175.55
189.623	181.34
189.842	175.34
190.061	151.15
190.28	156.81
190.498	146.22
190.717	124.32
190.936	130.11
191.154	124.95
191.373	117.56
191.592	117.3
191.81	120.47
192.029	115.91
192.248	114.25
192.466	117.61
192.685	115.3
192.904	129.7
193.122	136.25
193.341	146.09
193.559	183.48
193.778	195.03
193.996	198.9
194.215	191.27
194.433	222.55
194.652	268.35
194.87	297.1
195.089	326
195.307	262.04
195.526	228.71
195.744	223.53
195.963	193.98
196.181	209.03
196.399	222.35
196.618	213.2
196.836	190.53
197.055	173.11
197.273	165.76
197.491	148.97
197.71	162.52
197.928	176.81
198.146	168.44
198.365	144.51
198.583	134.47
198.801	126.54
199.019	142.36
199.238	131.45
199.456	127.99
199.674	149.88
199.892	149.29
200.111	151.73
200.329	160.49
200.547	184
200.765	217.65
200.983	187.85
201.202	178.55
201.42	156.04
201.638	170.57
201.856	176.16
202.074	144.96
202.292	144.18
202.51	125.05
202.728	125.73
202.946	105.16
203.165	105.3
203.383	121.15
203.601	133.42
203.819	140.1
204.037	149.76
204.255	158.31
204.473	169.64
204.691	170.28
204.909	167.45
205.127	161.14
205.345	174.65
205.562	155.6
205.78	145.47
205.998	158.92
206.216	144.11
206.434	146.76
206.652	140.19
206.87	138.73
207.088	129.71
207.306	138.1
207.523	136.72
207.741	133.44
207.959	137.48
208.177	145.18
208.395	131.11
208.612	142.22
208.83	130.14
209.048	125.9
209.266	122.03
209.483	130.88
209.701	126.75
209.919	131.23
210.136	128.45
210.354	130.59
210.572	124.56
210.79	124.36
211.007	128.44
211.225	129.52
211.442	125.08
211.66	128.49
211.878	121.15
212.095	115.59
212.313	107.88
212.53	109.64
212.748	109.99
212.966	112.39
213.183	109.15
213.401	103.77
213.618	93.51
213.836	94.82
214.053	96.83
214.271	99.07
214.488	103.69
214.705	108.8
214.923	108.09
215.14	103.85
215.358	103.55
215.575	120.54
215.793	117.5
216.01	119.57
216.227	116.81
216.445	117.75
216.662	132.48
216.879	125.35
217.097	117.69
217.314	113.43
217.531	110.45
217.749	111.1
217.966	100.48
218.183	100.31
218.4	104.2
218.618	106.14
218.835	97.1
219.052	91.61
219.269	96.05
219.487	90.22
219.704	89.57
219.921	96.97
220.138	96.68
220.355	97.93
220.572	92.57
220.79	88.1
221.007	84.54
221.224	84.91
221.441	81.05
221.658	78.46
221.875	74.27
222.092	75.08
222.309	65.72
222.526	58.76
222.743	54.11
222.96	56.61
223.177	53.95
223.394	54.47
223.611	54.93
223.828	54.41
224.045	50.79
224.262	55.16
224.479	52.08
224.696	52.71
224.913	52.74
225.13	53.34
225.347	49.11
225.564	47.51
225.781	45.27
225.997	41.62
226.214	37.35
226.431	35.6
226.648	31.37
226.865	29.05
227.082	27.63
227.298	25.61
227.515	22.35
227.732	20.38
227.949	18.35
228.165	17.03
228.382	16.07
228.599	15.86
228.816	14.97
229.032	15.05
229.249	14.77
229.466	13.2
229.682	12.21
229.899	12.29
230.116	12.56
230.332	13.32
230.549	12.81
230.765	13.76
230.982	14.62
231.199	14.97
231.415	15.42
231.632	15.97
231.848	18.05
232.065	19.32
232.281	20.46
232.498	20.59
232.714	21.09
232.931	22.64
233.147	22.12
233.364	20.39
233.58	20.15
233.797	19.96
234.013	19.61
234.23	17.96
234.446	19.19
234.662	17.46
234.879	18.22
235.095	17.76
235.312	16.41
235.528	16.72
235.744	19.15
235.961	20.2
236.177	20.41
236.393	21.19
236.61	22.49
236.826	23.59
237.042	24.9
237.258	24.78
237.475	24.63
237.691	25.9
237.907	24.42
238.123	22.21
238.339	20.76
238.556	20.29
238.772	19.78
238.988	20.02
239.204	18.28
239.42	18.46
239.636	18.07
239.853	17.82
240.069	17.24
240.285	16.07
240.501	15.85
240.717	15.3
240.933	14.53
241.149	13.36
241.365	11.97
241.581	12.27
241.797	11.38
242.013	11.03
242.229	10.59
242.445	10.44
242.661	10.6
242.877	10.46
243.093	10.78
243.309	11.15
243.525	11.04
243.741	11.43
243.957	11.44
244.173	11.55
244.388	12.15
244.604	12.8
244.82	12.74
245.036	12.62
245.252	12.23
245.468	11.51
245.683	10.61
245.899	10.36
246.115	10.38
246.331	9.45
246.547	9.36
246.762	8.37
246.978	7.87
247.194	7.69
247.409	7.58
247.625	7.62
247.841	7.57
248.057	7.33
248.272	7.47
248.488	7.28
248.703	7.73
248.919	7.77
249.135	8.74
249.35	9.41
249.566	9.89
249.782	10.38
249.997	10.77
250.213	11.32
250.428	12.61
250.644	12.71
250.859	13.24
251.075	12.55
251.29	12.06
251.506	11.37
251.721	10.77
251.937	10.16
252.152	10.82
252.368	10.35
252.583	10.05
252.798	9.66
253.014	9.56
253.229	9.38
253.445	9.88
253.66	10.28
253.875	10.36
254.091	11.06
254.306	11.78
254.521	11.05
254.737	11.2
254.952	10.78
255.167	10.73
255.383	10.37
255.598	10.12
255.813	9.63
256.028	10.22
256.244	10.44
256.459	10.11
256.674	10.35
256.889	10.01
257.104	10.06
257.32	10.62
257.535	9.97
257.75	10.42
257.965	10.31
258.18	9.98
258.395	9.34
258.61	8.76
258.826	8.25
259.041	7.53
259.256	7.01
259.471	6.81
259.686	6.55
259.901	6.6
260.116	6.2
260.331	6.01
260.546	6.12
260.761	6.03
260.976	6.18
261.191	6.26
261.406	6.41
261.621	6.69
261.836	7.1
262.05	7.04
262.265	7.41
262.48	7.91
262.695	8.22
262.91	8.53
263.125	9.19
263.34	9.37
263.555	9.96
263.769	10.27
263.984	10.19
264.199	9.87
264.414	10.18
264.629	9.95
264.843	10.1
265.058	9.74
265.273	8.93
265.488	8.82
265.702	8.48
265.917	8.04
266.132	8.73
266.346	9.09
266.561	9.01
266.776	9.31
266.99	9.18
267.205	8.84
267.42	8.5
267.634	8.86
267.849	8.5
268.063	8.8
268.278	8.94
268.492	8.66
268.707	9
268.922	9.05
269.136	8.89
269.351	8.59
269.565	8.59
269.78	9.04
269.994	8.83
270.209	8.62
270.423	8.08
270.637	7.53
270.852	6.89
271.066	6.8
271.281	6.81
271.495	6.76
271.709	6.79
271.924	6.48
272.138	6.41
272.353	6.15
272.567	6.22
272.781	6.46
272.996	6.75
273.21	7.16
273.424	6.95
273.638	6.87
273.853	6.88
274.067	7.07
274.281	7.79
274.495	7.69
274.71	7.84
274.924	7.91
275.138	7.49
275.352	7.51
275.566	7.43
275.781	7.47
275.995	7.7
276.209	8.03
276.423	8.29
276.637	7.96
276.851	8.53
277.065	8.58
277.279	8.6
277.493	9.21
277.707	9.33
277.921	9.47
278.135	9.5
278.349	9.22
278.563	8.91
278.777	8.74
278.991	8.17
279.205	7.7
279.419	7.57
279.633	7.57
279.847	7.74
280.061	7.37
280.275	7.24
280.489	7.11
280.703	6.93
280.917	6.74
281.131	6.63
281.344	6.75
281.558	6.37
281.772	6.35
281.986	6.05
282.2	5.61
282.414	5.88
282.627	5.86
282.841	5.94
283.055	6.16
283.269	6.26
283.482	6.39
283.696	6.51
283.91	6.73
284.123	7.11
284.337	7.55
284.551	7.55
284.764	7.43
284.978	7.36
285.192	6.86
285.405	6.7
285.619	6.6
285.833	6.44
286.046	6.6
286.26	6.62
286.473	6.39
286.687	6.12
286.9	5.98
287.114	5.92
287.327	5.94
287.541	6.35
287.754	6.7
287.968	6.85
288.181	6.95
288.395	7.01
288.608	7.24
288.822	7.38
289.035	7.3
289.248	7.57
289.462	7.49
289.675	7.21
289.889	6.8
290.102	6.2
290.315	6.21
290.529	6.17
290.742	6.05
290.955	5.79
291.169	5.68
291.382	6
291.595	6.23
291.808	6.37
292.022	6.46
292.235	6.83
292.448	7.23
292.661	6.8
292.875	6.71
293.088	7.14
293.301	7.28
293.514	7.22
293.727	7.18
293.94	7.02
294.153	6.73
294.367	6.67
294.58	6.41
294.793	6.41
295.006	6.88
295.219	6.94
295.432	6.47
295.645	6.25
295.858	6.23
296.071	6.09
296.284	5.92
296.497	5.99
296.71	6.17
296.923	6.24
297.136	5.95
297.349	5.56
297.562	5.57
297.775	5.68
297.988	5.69
298.201	5.79
298.414	5.63
298.626	5.55
298.839	5.56
299.052	5.5
299.265	5.68
299.478	6.26
299.691	6.48
299.903	6.46
300.116	6.19
300.329	6.37
300.542	6.31
300.755	6.43
300.967	6.72
301.18	6.79
301.393	6.92
301.605	6.95
301.818	6.83
302.031	6.92
302.243	7.26
302.456	7.82
302.669	8
302.881	8.18
303.094	8.22
303.307	7.89
303.519	7.83
303.732	7.59
303.944	7.72
304.157	8.06
304.37	8.01
304.582	7.82
304.795	7.42
305.007	7.36
305.22	6.9
305.432	7.02
305.645	7.15
305.857	7.31
306.069	7.62
306.282	7.19
306.494	6.8
306.707	6.82
306.919	6.82
307.132	6.67
307.344	6.79
307.556	6.97
307.769	7.18
307.981	7.18
308.193	7.22
308.406	7.01
308.618	7.32
308.83	7.22
309.043	7.32
309.255	7.37
309.467	7.46
309.679	7.31
309.892	7.51
310.104	7.06
310.316	7.11
310.528	7.04
310.74	7.11
310.953	6.91
311.165	7.02
311.377	6.89
311.589	6.86
311.801	6.91
312.013	6.85
312.225	6.72
312.437	7.41
312.649	7.59
312.862	7.62
313.074	7.69
313.286	8.35
313.498	7.99
313.71	8.44
313.922	8.5
314.134	8.43
314.346	8.44
314.558	8.94
314.77	8.37
314.982	8.06
315.193	8.16
315.405	8.27
315.617	8.01
315.829	8.48
316.041	8.62
316.253	8.49
316.465	9.1
316.677	9.37
316.888	9.03
317.1	9.13
317.312	9.5
317.524	9.14
317.736	9.06
317.947	8.92
318.159	9.21
318.371	8.79
318.583	9.37
318.794	9.18
319.006	9.78
319.218	9.86
319.43	10.46
319.641	10.96
319.853	11.31
320.064	11.35
320.276	11.52
320.488	11.42
320.699	11.77
320.911	11.54
321.123	11.68
321.334	11.05
321.546	11.56
321.757	11.3
321.969	10.86
322.18	10.81
322.392	11.4
322.603	11.93
322.815	12.08
323.026	11.95
323.238	11.93
323.449	11.69
323.661	11.55
323.872	11.29
324.083	11.37
324.295	11.62
324.506	11.92
324.718	11.62
324.929	11.78
325.14	11.75
325.352	11.79
325.563	12.04
325.774	12.39
325.986	12.9
326.197	13.11
326.408	13.41
326.62	13.6
326.831	14
327.042	14.17
327.253	14.03
327.464	14.14
327.676	14.54
327.887	14.52
328.098	14.98
328.309	15
328.52	15.14
328.732	14.94
328.943	15.24
329.154	15.27
329.365	15.99
329.576	16.17
329.787	16.92
329.998	17.37
330.209	17.84
330.42	17.69
330.631	18.22
330.842	18.58
331.053	18.89
331.264	19.06
331.475	19.31
331.686	19.33
331.897	19.21
332.108	19.08
332.319	19.01
332.53	19.33
332.741	19.51
332.952	19.42
333.163	19.53
333.374	19.69
333.585	19.61
333.795	19.85
334.006	19.81
334.217	20.33
334.428	20.27
334.639	20.35
334.849	20.17
335.06	20.16
335.271	20.23
335.482	20.39
335.692	20.58
335.903	20.48
336.114	20.17
336.325	20.2
336.535	20.12
336.746	20.36
336.957	20.11
337.167	20.04
337.378	20.16
337.589	20.18
337.799	20.18
338.01	20.37
338.22	20.68
338.431	20.87
338.642	20.73
338.852	20.75
339.063	20.46
339.273	20.68
339.484	20.81
339.694	20.99
339.905	20.84
340.115	20.59
340.326	20.49
340.536	20.35
340.746	20.3
340.957	20.36
341.167	20.14
341.378	20.15
341.588	20.24
341.799	20.03
342.009	19.58
342.219	19.47
342.43	19.57
342.64	19.35
342.85	19.38
343.061	19.2
343.271	19.26
343.481	19.34
343.691	19.32
343.902	19.19
344.112	19.29
344.322	19.45
344.532	19.43
344.743	19.34
344.953	19.01
345.163	18.71
345.373	18.92
345.583	18.8
345.793	18.84
346.004	18.6
346.214	18.45
346.424	18.56
346.634	18.71
346.844	19.02
347.054	19.03
347.264	19.65
347.474	19.73
347.684	19.59
347.894	19.41
348.104	19.35
348.314	19.67
348.524	19.76
348.734	19.9
348.944	19.63
349.154	19.3
349.364	19.21
349.574	18.82
349.784	18.58
349.994	18.74
350.204	18.97
350.413	18.79
350.623	18.65
350.833	18.71
351.043	18.57
351.253	18.71
351.463	18.83
351.672	18.94
351.882	19
352.092	19.18
352.302	18.96
352.511	18.82
352.721	18.96
352.931	18.98
353.141	18.6
353.35	18.47
353.56	18.2
353.77	18.11
353.979	17.87
354.189	17.88
354.399	17.98
354.608	17.97
354.818	18.03
355.027	18
355.237	17.79
355.447	18.13
355.656	18.29
355.866	18.29
356.075	18.19
356.285	18.21
356.494	18.22
356.704	18.1
356.913	17.92
357.123	17.89
357.332	17.75
357.542	17.67
357.751	17.58
357.96	17.36
358.17	17.14
358.379	17.2
358.589	17.09
358.798	16.91
359.007	16.85
359.217	16.91
359.426	16.74
359.635	16.82
359.845	16.99
360.054	16.83
360.263	16.72
360.472	16.81
360.682	16.78
360.891	16.72
361.1	16.53
361.309	16.48
361.519	16.45
361.728	16.54
361.937	16.53
362.146	16.53
362.355	16.69
362.564	16.85
362.774	16.96
362.983	16.81
363.192	16.94
363.401	16.84
363.61	16.86
363.819	16.85
364.028	16.59
364.237	16.41
364.446	16.31
364.655	16.14
364.864	16.01
365.073	16.02
365.282	16.14
365.491	16.12
365.7	16.38
365.909	16.5
366.118	16.6
366.327	16.89
366.536	16.97
366.745	17.28
366.954	17.08
367.162	17.23
367.371	17.06
367.58	17.14
367.789	17.23
367.998	17.12
368.207	17.14
368.415	17.25
368.624	17.07
368.833	17.25
369.042	16.89
369.25	17.31
369.459	17.39
369.668	17.47
369.877	17.36
370.085	17.33
370.294	17.35
370.503	17.33
370.711	17.1
370.92	17
371.129	17.06
371.337	17.12
371.546	16.83
371.754	16.53
371.963	16.44
372.171	16.35
372.38	16.45
372.589	16.69
372.797	16.4
373.006	16.35
373.214	16.52
373.423	16.21
373.631	16.24
373.84	16.25
374.048	16.27
374.256	16.29
374.465	16.45
374.673	16.38
374.882	16.29
375.09	16.42
375.298	16.66
375.507	16.87
375.715	17.14
375.923	17
376.132	17.08
376.34	17.06
376.548	16.95
376.757	16.95
376.965	16.8
377.173	16.75
377.381	16.68
377.59	16.2
377.798	15.77
378.006	15.61
378.214	15.7
378.423	15.46
378.631	15.36
378.839	15.41
379.047	15.36
379.255	15.28
379.463	15.41
379.671	15.49
379.879	15.72
380.088	16.11
380.296	16.08
380.504	16.01
380.712	16.18
380.92	16.15
381.128	16.13
381.336	16.19
381.544	16.13
381.752	15.93
381.96	15.77
382.168	15.79
382.376	15.47
382.584	15.33
382.791	15.28
382.999	15.26
383.207	15.26
383.415	15.25
383.623	15.09
383.831	15.04
384.039	15.09
384.247	15.25
384.454	15.25
384.662	15.24
384.87	15.3
385.078	15.19
385.285	15.14
385.493	15.28
385.701	15.26
385.909	15.14
386.116	15.14
386.324	15.26
386.532	15.16
386.739	15.11
386.947	15.09
387.155	15.13
387.362	15.3
387.57	15.24
387.778	15.23
387.985	15.27
388.193	15.38
388.4	15.54
388.608	15.4
388.816	15.38
389.023	15.39
389.231	15.4
389.438	15.32
389.646	15.04
389.853	15.01
390.061	15.02
390.268	15.05
390.475	15
390.683	14.91
390.89	14.88
391.098	14.68
391.305	14.73
391.512	14.7
391.72	14.66
391.927	14.66
392.135	14.8
392.342	14.6
392.549	14.55
392.756	14.54
392.964	14.62
393.171	14.63
393.378	14.68
393.586	14.46
393.793	14.38
394	14.33
394.207	14.35
394.414	14.4
394.622	14.61
394.829	14.75
395.036	14.74
395.243	14.77
395.45	14.9
395.657	14.92
395.864	15.01
396.072	15.28
396.279	15.46
396.486	15.58
396.693	15.51
396.9	15.18
397.107	14.92
397.314	14.75
397.521	14.7
397.728	14.49
397.935	14.53
398.142	14.62
398.349	14.48
398.556	14.46
398.763	14.42
398.97	14.39
399.177	14.49
399.383	14.55
399.59	14.7
399.797	14.85
400.004	14.8
400.211	14.88
400.418	14.95
400.625	14.99
400.831	14.86
401.038	14.88
401.245	14.71
401.452	14.84
401.658	14.86
401.865	15
402.072	14.8
402.279	15.01
402.485	14.95
402.692	14.77
402.899	14.84
403.105	14.79
403.312	14.64
403.519	14.8
403.725	14.7
403.932	14.65
404.138	14.58
404.345	14.58
404.552	14.53
404.758	14.64
404.965	14.77
405.171	14.77
405.378	14.8
405.584	14.92
405.791	14.76
405.997	14.8
406.204	14.83
406.41	14.7
406.617	14.77
406.823	14.85
407.029	14.83
407.236	14.79
407.442	14.61
407.649	14.68
407.855	14.66
408.061	14.89
408.268	14.71
408.474	14.74
408.68	14.79
408.887	14.68
409.093	14.6
409.299	14.54
409.505	14.45
409.712	14.47
409.918	14.42
410.124	14.39
410.33	14.35
410.537	14.41
410.743	14.6
410.949	14.71
411.155	14.82
411.361	14.63
411.567	14.61
411.773	14.58
411.98	14.59
412.186	14.62
412.392	14.71
412.598	14.62
412.804	14.76
413.01	14.53
413.216	14.51
413.422	14.26
413.628	14.41
413.834	14.37
414.04	14.56
414.246	14.52
414.452	14.53
414.658	14.65
414.864	14.5
415.07	14.41
415.275	14.35
415.481	14.14
415.687	14.22
415.893	14.2
416.099	14.18
416.305	14.06
416.511	13.98
416.716	13.86
416.922	13.85
417.128	13.98
417.334	13.99
417.539	13.99
417.745	14.04
417.951	14.01
418.157	13.89
418.362	13.83
418.568	13.78
418.774	13.82
418.979	13.84
419.185	13.73
419.391	13.65
419.596	13.54
419.802	13.49
420.008	13.52
420.213	13.55
420.419	13.53
420.624	13.56
420.83	13.56
421.035	13.51
421.241	13.42
421.446	13.4
421.652	13.3
421.857	13.31
422.063	13.32
422.268	13.31
422.474	13.3
422.679	13.31
422.885	13.27
423.09	13.25
423.295	13.24
423.501	13.4
423.706	13.4
423.911	13.52
424.117	13.54
424.322	13.59
424.527	13.48
424.733	13.49
424.938	13.53
425.143	13.57
425.349	13.6
425.554	13.65
425.759	13.61
425.964	13.61
426.169	13.57
426.375	13.61
426.58	13.62
426.785	13.75
426.99	13.75
427.195	13.8
427.4	13.82
427.605	13.83
427.811	13.91
428.016	13.83
428.221	13.84
428.426	14
428.631	14.08
428.836	14.04
429.041	14.16
429.246	14.14
429.451	14.05
429.656	14.04
429.861	14.16
430.066	14.2
430.271	14.17
430.476	14.19
430.681	14.03
430.886	13.96
431.09	14.09
431.295	13.89
431.5	13.96
431.705	14.03
431.91	14.02
432.115	13.88
432.32	13.84
432.524	13.95
432.729	14.02
432.934	14.02
433.139	14.08
433.343	13.99
433.548	14.12
433.753	14.11
433.958	14.2
434.162	14.29
434.367	14.41
434.572	14.44
434.776	14.43
434.981	14.58
435.186	14.74
435.39	14.79
435.595	14.83
435.799	14.77
436.004	14.74
436.209	14.72
436.413	14.59
436.618	14.5
436.822	14.36
437.027	14.34
437.231	14.08
437.436	14.02
437.64	13.98
437.845	13.89
438.049	13.9
438.253	13.94
438.458	13.82
438.662	13.9
438.867	13.94
439.071	14.05
439.275	14.06
439.48	14.1
439.684	13.96
439.888	13.95
440.093	13.92
440.297	13.89
440.501	13.86
440.706	13.89
440.91	13.89
441.114	13.82
441.318	13.78
441.523	13.77
441.727	13.76
441.931	13.83
442.135	13.79
442.339	13.82
442.543	13.81
442.748	13.89
442.952	13.95
443.156	13.91
443.36	13.94
443.564	13.93
443.768	13.9
443.972	13.89
444.176	13.88
444.38	13.86
444.584	13.83
444.788	13.78
444.992	13.68
445.196	13.6
445.4	13.59
445.604	13.61
445.808	13.58
446.012	13.53
446.216	13.47
446.42	13.42
446.624	13.43
446.828	13.44
447.032	13.5
447.235	13.45
447.439	13.41
447.643	13.39
447.847	13.38
448.051	13.32
448.254	13.39
448.458	13.48
448.662	13.51
448.866	13.47
449.069	13.48
449.273	13.45
449.477	13.5
449.681	13.53
449.884	13.67
450.088	13.61
450.292	13.7
450.495	13.62
450.699	13.59
450.902	13.63
451.106	13.63
451.31	13.68
451.513	13.63
451.717	13.56
451.92	13.65
452.124	13.5
452.327	13.55
452.531	13.54
452.734	13.61
452.938	13.73
453.141	13.64
453.345	13.59
453.548	13.58
453.752	13.59
453.955	13.78
454.158	13.74
454.362	13.74
454.565	13.74
454.769	13.73
454.972	13.76
455.175	13.69
455.379	13.76
455.582	13.96
455.785	14.01
455.988	14.09
456.192	13.94
456.395	14.01
456.598	14.05
456.801	14.04
457.005	14.04
457.208	14.07
457.411	13.98
457.614	14
457.817	13.81
458.021	13.73
458.224	13.63
458.427	13.67
458.63	13.67
458.833	13.58
459.036	13.55
459.239	13.51
459.442	13.44
459.645	13.43
459.848	13.35
460.051	13.44
460.254	13.51
460.457	13.59
460.66	13.58
460.863	13.53
461.066	13.48
461.269	13.52
461.472	13.61
461.675	13.68
461.878	13.76
462.081	13.91
462.284	13.95
462.486	13.9
462.689	13.91
462.892	13.88
463.095	13.87
463.298	14.08
463.5	14.13
463.703	14.09
463.906	14.1
464.109	14.11
464.311	14.09
464.514	14.08
464.717	14.12
464.92	14.09
465.122	14.17
465.325	14.24
465.528	14.22
465.73	14.26
465.933	14.31
466.135	14.25
466.338	14.15
466.541	14.06
466.743	14
466.946	13.92
467.148	13.82
467.351	13.79
467.553	13.72
467.756	13.61
467.958	13.52
468.161	13.43
468.363	13.43
468.566	13.51
468.768	13.57
468.971	13.64
469.173	13.73
469.375	13.8
469.578	13.85
469.78	13.85
469.983	13.96
470.185	14.03
470.387	14.02
470.59	14.1
470.792	14.18
470.994	14.24
471.196	14.14
471.399	14.13
471.601	14.15
471.803	14.08
472.005	14.17
472.208	14.14
472.41	14.15
472.612	14.25
472.814	14.25
473.016	14.23
473.218	14.18
473.421	14.21
473.623	14.17
473.825	14.21
474.027	14.15
474.229	14.04
474.431	14.12
474.633	14.04
474.835	14.09
475.037	13.97
475.239	13.99
475.441	13.98
475.643	13.96
475.845	13.98
476.047	13.99
476.249	14.08
476.451	14.11
476.653	14.12
476.855	14.18
477.057	14.01
477.258	14.09
477.46	14.03
477.662	14.11
477.864	14.08
478.066	14.01
478.268	13.97
478.469	13.99
478.671	14.06
478.873	14
479.075	13.91
479.276	14
479.478	13.98
479.68	14
479.882	13.92
480.083	13.96
480.285	14
480.487	14
480.688	13.88
480.89	13.87
481.091	13.83
481.293	13.83
481.495	13.76
481.696	13.68
481.898	13.56
482.099	13.49
482.301	13.47
482.502	13.43
482.704	13.34
482.905	13.29
483.107	13.26
483.308	13.24
483.51	13.19
483.711	13.19
483.913	13.21
484.114	13.2
484.315	13.16
484.517	13.14
484.718	13.14
484.92	13.18
485.121	13.23
485.322	13.23
485.524	13.22
485.725	13.28
485.926	13.26
486.127	13.28
486.329	13.29
486.53	13.36
486.731	13.39
486.932	13.39
487.134	13.37
487.335	13.38
487.536	13.36
487.737	13.38
487.938	13.35
488.139	13.38
488.341	13.39
488.542	13.46
488.743	13.45
488.944	13.45
489.145	13.45
489.346	13.51
489.547	13.51
489.748	13.56
489.949	13.56
490.15	13.55
490.351	13.54
490.552	13.5
490.753	13.38
490.954	13.39
491.155	13.39
491.356	13.46
491.557	13.41
491.758	13.44
491.959	13.44
492.159	13.44
492.36	13.49
492.561	13.54
492.762	13.61
492.963	13.71
493.164	13.72
493.364	13.81
493.565	13.81
493.766	13.84
493.967	13.81
494.167	13.85
494.368	13.88
494.569	13.95
494.769	13.94
494.97	13.84
495.171	13.83
495.371	13.84
495.572	13.76
495.773	13.77
495.973	13.83
496.174	13.89
496.375	13.86
496.575	13.89
496.776	13.89
496.976	13.91
497.177	13.96
497.377	14.01
497.578	14.01
497.778	14.07
497.979	14.04
498.179	14.12
498.38	14.05
498.58	14.06
498.78	14.09
498.981	14.09
499.181	14.09
499.382	14.16
499.582	14.19
499.782	14.24
499.983	14.23
500.183	14.25
500.383	14.22
500.584	14.33
500.784	14.39
500.984	14.34
501.184	14.48
501.385	14.55
501.585	14.57
501.785	14.52
501.985	14.49
502.185	14.47
502.386	14.48
502.586	14.51
502.786	14.58
502.986	14.6
503.186	14.76
503.386	14.64
503.586	14.65
503.786	14.61
503.987	14.71
504.187	14.81
504.387	14.91
504.587	14.94
504.787	14.93
504.987	14.87
505.187	14.84
505.387	14.73
505.587	14.73
505.786	14.81
505.986	14.8
506.186	14.8
506.386	14.74
506.586	14.71
506.786	14.78
506.986	14.78
507.186	14.81
507.386	14.81
507.585	14.77
507.785	14.87
507.985	14.81
508.185	14.86
508.384	14.89
508.584	14.97
508.784	14.96
508.984	14.94
509.183	15
509.383	14.96
509.583	14.98
509.782	15.03
509.982	15.07
510.182	15.11
510.381	15.06
510.581	15.1
510.781	15.17
510.98	15.2
511.18	15.18
511.379	15.15
511.579	15.21
511.778	15.26
511.978	15.34
512.177	15.32
512.377	15.27
512.576	15.39
512.776	15.4
512.975	15.35
513.175	15.38
513.374	15.46
513.573	15.52
513.773	15.63
513.972	15.67
514.172	15.76
514.371	15.8
514.57	15.93
514.77	15.95
514.969	15.99
515.168	16.12
515.367	16.13
515.567	16.2
515.766	16.21
515.965	16.18
516.164	16.33
516.364	16.22
516.563	16.25
516.762	16.27
516.961	16.29
517.16	16.4
517.359	16.39
517.559	16.48
517.758	16.5
517.957	16.56
518.156	16.63
518.355	16.58
518.554	16.69
518.753	16.73
518.952	16.7
519.151	16.72
519.35	16.61
519.549	16.61
519.748	16.65
519.947	16.68
520.146	16.7
520.345	16.72
520.544	16.77
520.743	16.86
520.942	16.88
521.141	17
521.339	17.09
521.538	17.22
521.737	17.29
521.936	17.29
522.135	17.3
522.333	17.36
522.532	17.42
522.731	17.41
522.93	17.41
523.129	17.48
523.327	17.56
523.526	17.61
523.725	17.69
523.923	17.7
524.122	17.79
524.321	17.88
524.519	17.85
524.718	17.84
524.917	17.93
525.115	17.92
525.314	17.94
525.512	17.95
525.711	17.95
525.909	17.97
526.108	18.01
526.306	18.1
526.505	18.1
526.703	18.15
526.902	18.26
527.1	18.3
527.299	18.33
527.497	18.35
527.696	18.36
527.894	18.38
528.092	18.36
528.291	18.43
528.489	18.42
528.688	18.47
528.886	18.5
529.084	18.47
529.283	18.52
529.481	18.57
529.679	18.62
529.877	18.7
530.076	18.77
530.274	18.87
530.472	18.86
530.67	18.91
530.869	18.98
531.067	19.04
531.265	19.15
531.463	19.18
531.661	19.24
531.859	19.36
532.057	19.39
532.255	19.46
532.454	19.51
532.652	19.59
532.85	19.7
533.048	19.73
533.246	19.86
533.444	19.89
533.642	19.91
533.84	19.98
534.038	20.03
534.236	20.06
534.434	20.1
534.632	20.17
534.83	20.25
535.027	20.25
535.225	20.33
535.423	20.31
535.621	20.39
535.819	20.48
536.017	20.62
536.215	20.68
536.412	20.74
536.61	20.86
536.808	20.97
537.006	21
537.203	21.11
537.401	21.21
537.599	21.37
537.797	21.38
537.994	21.43
538.192	21.47
538.39	21.63
538.587	21.79
538.785	21.95
538.983	22.14
539.18	22.4
539.378	22.48
539.575	22.7
539.773	22.82
539.97	23.06
540.168	23.17
540.366	23.22
540.563	23.24
540.761	23.29
540.958	23.31
541.155	23.31
541.353	23.26
541.55	23.34
541.748	23.27
541.945	23.29
542.143	23.29
542.34	23.37
542.537	23.43
542.735	23.5
542.932	23.59
543.129	23.7
543.327	23.86
543.524	24.18
543.721	24.38
543.919	24.76
544.116	25
544.313	25.33
544.51	25.68
544.708	26.04
544.905	26.33
545.102	26.68
545.299	26.93
545.496	27.11
545.693	27.09
545.891	27.14
546.088	27.05
546.285	27.06
546.482	26.95
546.679	26.85
546.876	26.7
547.073	26.53
547.27	26.31
547.467	26.16
547.664	26.03
547.861	25.93
548.058	25.84
548.255	25.84
548.452	25.79
548.649	25.71
548.846	25.53
549.043	25.51
549.24	25.58
549.437	25.61
549.633	25.51
549.83	25.47
550.027	25.45
550.224	25.41
550.421	25.23
550.618	25.12
550.814	25.08
551.011	25.12
551.208	24.95
551.405	24.83
551.601	24.62
551.798	24.6
551.995	24.56
552.191	24.5
552.388	24.35
552.585	24.4
552.781	24.33
552.978	24.3
553.175	24.24
553.371	24.31
553.568	24.29
553.764	24.35
553.961	24.35
554.157	24.33
554.354	24.31
554.55	24.49
554.747	24.43
554.943	24.55
555.14	24.48
555.336	24.52
555.533	24.48
555.729	24.53
555.926	24.66
556.122	24.74
556.318	24.66
556.515	24.81
556.711	24.66
556.907	24.63
557.104	24.65
557.3	24.75
557.496	24.75
557.693	24.77
557.889	24.84
558.085	24.8
558.281	24.72
558.478	24.8
558.674	24.72
558.87	24.75
559.066	24.75
559.262	24.78
559.459	24.77
559.655	24.76
559.851	24.83
560.047	24.75
560.243	24.81
560.439	24.7
560.635	24.71
560.831	24.79
561.027	24.92
561.223	24.83
561.419	24.81
561.615	24.93
561.811	25.04
562.007	25.01
562.203	24.93
562.399	24.84
562.595	24.91
562.791	24.95
562.987	24.94
563.183	24.85
563.379	25.02
563.575	25.07
563.771	24.95
563.966	24.9
564.162	24.98
564.358	25.11
564.554	25.11
564.75	25.11
564.945	25.11
565.141	25.08
565.337	25.12
565.533	25.12
565.728	25.07
565.924	25.16
566.12	25.16
566.315	25.09
566.511	25.1
566.707	25.06
566.902	25.02
567.098	25.04
567.293	24.96
567.489	24.94
567.684	24.93
567.88	24.93
568.076	24.83
568.271	24.91
568.467	24.94
568.662	24.96
568.858	24.98
569.053	25.12
569.248	25.17
569.444	25.29
569.639	25.37
569.835	25.39
570.03	25.35
570.225	25.42
570.421	25.34
570.616	25.32
570.812	25.36
571.007	25.42
571.202	25.4
571.397	25.44
571.593	25.42
571.788	25.45
571.983	25.38
572.178	25.39
572.374	25.38
572.569	25.31
572.764	25.35
572.959	25.29
573.154	25.27
573.35	25.2
573.545	25.12
573.74	25.1
573.935	25.03
574.13	25.15
574.325	25.22
574.52	25.22
574.715	25.3
574.91	25.36
575.105	25.44
575.3	25.56
575.495	25.67
575.69	25.73
575.885	25.95
576.08	26.06
576.275	26.19
576.47	26.31
576.665	26.48
576.86	26.7
577.055	26.82
577.25	26.82
577.444	26.92
577.639	27.2
577.834	27.4
578.029	27.44
578.224	27.44
578.418	27.61
578.613	27.56
578.808	27.58
579.003	27.63
579.197	27.56
579.392	27.72
579.587	27.61
579.781	27.42
579.976	27.32
580.171	27.25
580.365	27.33
580.56	27.05
580.755	27.11
580.949	27.18
581.144	27.16
581.338	27.3
581.533	27.31
581.727	27.35
581.922	27.44
582.116	27.59
582.311	27.59
582.505	27.65
582.7	27.9
582.894	28.02
583.089	27.91
583.283	27.81
583.478	27.82
583.672	27.91
583.866	28.02
584.061	28
584.255	27.97
584.449	28
584.644	28.09
584.838	28.06
585.032	28.03
585.226	28.21
585.421	28.27
585.615	28.12
585.809	28.25
586.003	28.31
586.198	28.4
586.392	28.39
586.586	28.43
586.78	28.39
586.974	28.38
587.168	28.34
587.363	28.25
587.557	28.16
587.751	28.33
587.945	28.19
588.139	28.14
588.333	28.08
588.527	27.88
588.721	27.87
588.915	27.81
589.109	27.69
589.303	27.7
589.497	27.65
589.691	27.7
589.885	27.64
590.079	27.59
590.273	27.6
590.466	27.68
590.66	27.78
590.854	27.89
591.048	27.96
591.242	28.04
591.436	28.08
591.629	28.26
591.823	28.43
592.017	28.4
592.211	28.44
592.404	28.43
592.598	28.3
592.792	28.44
592.986	28.43
593.179	28.41
593.373	28.39
593.567	28.49
593.76	28.34
593.954	28.19
594.147	28.35
594.341	28.21
594.535	28.07
594.728	28.09
594.922	27.98
595.115	27.81
595.309	27.65
595.502	27.6
595.696	27.39
595.889	27.41
596.083	27.45
596.276	27.35
596.47	27.38
596.663	27.46
596.856	27.4
597.05	27.4
597.243	27.43
597.437	27.52
597.63	27.58
597.823	27.7
598.017	27.76
598.21	27.85
598.403	27.89
598.596	28.05
598.79	28.07
598.983	28.24
599.176	28.31
599.369	28.45
599.563	28.51
599.756	28.7
599.949	28.64
600.142	28.7
600.335	28.71
600.528	28.76
600.722	28.6
600.915	28.6
601.108	28.27
601.301	28.32
601.494	28.18
601.687	28.17
601.88	28
602.073	28.05
602.266	27.89
602.459	27.86
602.652	27.9
602.845	27.84
603.038	27.86
603.231	28.01
603.424	27.74
603.617	27.7
603.809	27.68
604.002	27.61
604.195	27.54
604.388	27.68
604.581	27.71
604.774	27.62
604.966	27.66
605.159	27.62
605.352	27.68
605.545	27.86
605.737	27.9
605.93	27.95
606.123	28.15
606.316	28.37
606.508	28.45
606.701	28.49
606.894	28.68
607.086	28.87
607.279	29.05
607.471	29.16
607.664	29.46
607.857	29.82
608.049	30.1
608.242	30.39
608.434	30.91
608.627	31.59
608.819	32.33
609.012	33.23
609.204	34.29
609.397	35.48
609.589	36.83
609.782	38.24
609.974	39.67
610.166	41.21
610.359	42.65
610.551	44
610.743	44.91
610.936	45.91
611.128	46.58
611.32	47.19
611.513	47.46
611.705	47.46
611.897	47.1
612.09	46.68
612.282	46.07
612.474	45.38
612.666	44.6
612.858	43.91
613.051	43.21
613.243	42.47
613.435	41.63
613.627	40.87
613.819	40.34
614.011	39.88
614.203	39.24
614.395	38.55
614.588	38.04
614.78	37.43
614.972	36.82
615.164	36.1
615.356	35.47
615.548	34.86
615.74	34.61
615.932	34.02
616.124	33.6
616.315	33.22
616.507	32.85
616.699	32.44
616.891	32.1
617.083	31.98
617.275	31.83
617.467	31.77
617.659	31.55
617.85	31.19
618.042	31.04
618.234	30.74
618.426	30.6
618.618	30.63
618.809	30.39
619.001	30.32
619.193	30.17
619.384	30.07
619.576	29.97
619.768	30.11
619.959	30.08
620.151	30.21
620.343	30.28
620.534	30.18
620.726	30.16
620.917	30.3
621.109	30.33
621.301	30.41
621.492	30.42
621.684	30.35
621.875	30.26
622.067	30.47
622.258	30.3
622.45	30.43
622.641	30.65
622.832	30.71
623.024	30.88
623.215	30.92
623.407	30.84
623.598	30.93
623.789	30.97
623.981	31.08
624.172	31.21
624.363	31.31
624.555	31.3
624.746	31.13
624.937	31.12
625.129	30.98
625.32	30.92
625.511	30.96
625.702	31.06
625.893	31.09
626.085	31.04
626.276	30.8
626.467	30.76
626.658	30.6
626.849	30.65
627.04	30.52
627.231	30.59
627.422	30.6
627.614	30.6
627.805	30.47
627.996	30.51
628.187	30.58
628.378	30.61
628.569	30.78
628.76	30.94
628.951	30.95
629.142	31.16
629.332	31.3
629.523	31.47
629.714	31.49
629.905	31.78
630.096	32.01
630.287	32.09
630.478	32.4
630.669	32.33
630.859	32.26
631.05	32.36
631.241	32.3
631.432	32.05
631.623	31.8
631.813	31.62
632.004	31.21
632.195	30.99
632.385	30.69
632.576	30.26
632.767	30.23
632.957	30.03
633.148	29.96
633.339	29.77
633.529	29.62
633.72	29.6
633.91	29.68
634.101	29.53
634.292	29.31
634.482	29.38
634.673	29.48
634.863	29.12
635.054	29.26
635.244	29.13
635.435	29
635.625	28.99
635.815	28.79
636.006	28.71
636.196	28.78
636.387	28.99
636.577	28.85
636.767	28.83
636.958	28.72
637.148	28.77
637.338	28.8
637.529	28.99
637.719	28.97
637.909	29.2
638.099	29.24
638.29	29.13
638.48	29.01
638.67	29.09
638.86	29.04
639.05	29.2
639.241	29.07
639.431	29.05
639.621	28.88
639.811	28.93
640.001	28.9
640.191	28.89
640.381	29.17
640.571	29.32
640.761	29.43
640.951	29.54
641.141	29.79
641.331	29.85
641.521	29.89
641.711	30.04
641.901	29.98
642.091	29.71
642.281	29.88
642.471	29.77
642.661	29.58
642.851	29.6
643.041	29.6
643.231	29.5
643.42	29.51
643.61	29.42
643.8	29.38
643.99	29.38
644.18	29.57
644.369	29.51
644.559	29.43
644.749	29.43
644.939	29.25
645.128	29.15
645.318	29.24
645.508	29.09
645.697	29.17
645.887	29.12
646.076	29.29
646.266	29.33
646.456	29.45
646.645	29.57
646.835	29.51
647.024	29.41
647.214	29.44
647.403	29.52
647.593	29.66
647.782	29.68
647.972	29.69
648.161	29.73
648.351	29.79
648.54	29.61
648.73	29.65
648.919	29.96
649.108	30.17
649.298	30.25
649.487	30.21
649.677	30.28
649.866	30.4
650.055	30.61
650.244	30.66
650.434	30.79
650.623	30.85
650.812	30.89
651.002	30.61
651.191	30.61
651.38	30.64
651.569	30.6
651.758	30.45
651.947	30.48
652.137	30.48
652.326	30.43
652.515	30.47
652.704	30.35
652.893	30.39
653.082	30.33
653.271	30.49
653.46	30.4
653.649	30.53
653.838	30.74
654.027	30.51
654.216	30.46
654.405	30.39
654.594	30.16
654.783	30.25
654.972	30.26
655.161	30.42
655.35	30.34
655.539	30.32
655.728	30.17
655.916	30.14
656.105	30.24
656.294	30.43
656.483	30.34
656.672	30.31
656.86	30.5
657.049	30.3
657.238	30.16
657.427	30.13
657.615	30.02
657.804	30
657.993	29.8
658.181	29.53
658.37	29.31
658.559	29.48
658.747	29.48
658.936	29.22
659.125	29.46
659.313	29.46
659.502	29.42
659.69	29.43
659.879	29.38
660.067	29.65
660.256	29.9
660.444	29.97
660.633	29.95
660.821	29.89
661.01	30.18
661.198	29.76
661.387	29.93
661.575	30.08
661.763	30.28
661.952	30.58
662.14	30.27
662.328	30.4
662.517	30.35
662.705	30.5
662.893	30.71
663.082	30.82
663.27	30.97
663.458	30.76
663.646	30.95
663.834	30.92
664.023	30.76
664.211	30.96
664.399	30.58
664.587	30.51
664.775	30.06
664.963	30.03
665.152	30.01
665.34	30.33
665.528	30.44
665.716	30.13
665.904	30.13
666.092	30.25
666.28	30.2
666.468	30.43
666.656	30.74
666.844	31.01
667.032	31.03
667.22	30.76
667.408	30.74
667.596	30.73
667.784	30.69
667.971	30.54
668.159	30.29
668.347	30.47
668.535	30.81
668.723	30.45
668.911	30.44
669.098	30.45
669.286	30.54
669.474	30.36
669.662	30.51
669.849	30.68
670.037	30.77
670.225	31.08
670.413	31.07
670.6	30.96
670.788	31.18
670.976	31.34
671.163	31.41
671.351	31.54
671.538	31.71
671.726	31.76
671.913	31.72
672.101	31.58
672.289	31.26
672.476	31.2
672.664	31.38
672.851	31.42
673.039	31.19
673.226	31.07
673.413	30.83
673.601	30.92
673.788	30.83
673.976	30.77
674.163	30.73
674.35	31.1
674.538	31.06
674.725	30.76
674.912	30.81
675.1	30.93
675.287	30.99
675.474	30.86
675.662	30.62
675.849	30.56
676.036	30.41
676.223	30.68
676.411	30.49
676.598	30.3
676.785	30.23
676.972	30.27
677.159	30.09
677.346	30.12
677.533	30.34
677.721	30.46
677.908	30.23
678.095	30.54
678.282	30.53
678.469	30.54
678.656	30.55
678.843	30.44
679.03	30.36
679.217	30.55
679.404	30.61
679.591	30.59
679.778	30.61
679.964	30.75
680.151	30.53
680.338	30.6
680.525	30.6
680.712	30.73
680.899	30.97
681.086	30.85
681.272	30.83
681.459	30.71
681.646	30.86
681.833	30.74
682.02	31.02
682.206	31.15
682.393	31.11
682.58	31.11
682.766	31.16
682.953	31.1
683.14	31.19
683.326	31.42
683.513	31.51
683.7	31.24
683.886	31.52
684.073	31.45
684.259	31.43
684.446	31.67
684.632	31.66
684.819	31.42
685.005	31.46
685.192	31.52
685.378	31.34
685.565	31.52
685.751	31.83
685.938	31.84
686.124	32
686.31	32.35
686.497	32.07
686.683	32.41
686.87	32.71
687.056	32.85
687.242	32.86
687.429	32.99
687.615	32.93
687.801	32.81
687.987	32.44
688.174	32.38
688.36	32.04
688.546	31.95
688.732	31.7
688.918	31.76
689.105	31.68
689.291	31.55
689.477	31.39
689.663	31.17
689.849	30.99
690.035	31.15
690.221	31.02
690.407	31.33
690.593	31.71
690.779	31.87
690.965	31.92
691.151	31.91
691.337	32.28
691.523	32.5
691.709	32.86
691.895	32.7
692.081	33.06
692.267	33.38
692.453	33.05
692.639	32.71
692.825	32.39
693.011	32.35
693.196	32.38
693.382	32.09
693.568	31.92
693.754	31.96
693.94	32.25
694.125	32.35
694.311	32.4
694.497	32.62
694.682	32.69
694.868	32.98
695.054	33.13
695.239	33.09
695.425	33.04
695.611	32.87
695.796	32.55
695.982	32.71
696.168	32.3
696.353	31.83
696.539	31.67
696.724	31.79
696.91	31.59
697.095	31.23
697.281	31.04
697.466	31.09
697.652	31.15
697.837	31.19
698.023	31.11
698.208	31.09
698.393	31.03
698.579	31
698.764	30.74
698.949	30.69
699.135	30.56
699.32	30.5
699.505	30.49
699.691	30.62
699.876	30.58
700.061	30.63
700.246	30.63
700.432	30.55
700.617	30.48
700.802	30.63
700.987	30.6
701.172	30.98
701.358	31.26
701.543	31.14
701.728	31
701.913	31.25
702.098	31.2
702.283	30.93
702.468	31.35
702.653	31.77
702.838	31.88
703.023	32.11
703.208	32.15
703.393	32.16
703.578	32.61
703.763	32.64
703.948	32.53
704.133	33.18
704.318	34
704.503	34.18
704.688	34.13
704.873	34.49
705.057	34.98
705.242	35.28
705.427	35.86
705.612	36.33
705.797	36.92
705.981	37.13
706.166	37.2
706.351	37.21
706.536	37.08
706.72	37.75
706.905	38.01
707.09	38.14
707.274	38.11
707.459	37.88
707.644	37.84
707.828	37.84
708.013	38.03
708.197	37.8
708.382	37.89
708.567	38.23
708.751	37.7
708.936	37.31
709.12	37.06
709.305	37.02
709.489	36.96
709.673	36.78
709.858	36.36
710.042	36.49
710.227	36.57
710.411	36.27
710.596	36.33
710.78	36.2
710.964	36.32
711.149	36.43
711.333	36.62
711.517	36.6
711.702	36.5
711.886	36.75
712.07	36.14
712.254	35.74
712.438	35.71
712.623	35.05
712.807	35.01
712.991	34.75
713.175	34.41
713.359	33.59
713.544	33.35
713.728	33.36
713.912	33.14
714.096	33.13
714.28	32.99
714.464	33.06
714.648	33.09
714.832	32.88
715.016	32.86
715.2	32.64
715.384	32.79
715.568	32.83
715.752	32.31
715.936	32.05
716.12	32.19
716.304	32.23
716.488	32.13
716.671	31.9
716.855	31.98
717.039	31.93
717.223	31.86
717.407	32
717.59	32.04
717.774	32.02
717.958	32.24
718.142	32.14
718.325	32.33
718.509	32.39
718.693	32.91
718.877	32.66
719.06	32.71
719.244	32.79
719.428	32.93
719.611	32.74
719.795	33.08
719.978	33.05
720.162	33.25
720.345	33.24
720.529	33.66
720.713	33.81
720.896	34.23
721.08	34.04
721.263	34.24
721.446	33.98
721.63	34.14
721.813	34.29
721.997	34.48
722.18	34.36
722.364	34.03
722.547	33.28
722.73	33.2
722.914	32.99
723.097	33.26
723.28	33.48
723.464	33.64
723.647	33.74
723.83	33.35
724.013	33.32
724.197	33.51
724.38	33.76
724.563	34.05
724.746	34.17
724.929	34.23
725.112	34.16
725.296	33.75
725.479	34.03
725.662	33.96
725.845	34.25
726.028	33.85
726.211	33.72
726.394	34.17
726.577	33.9
726.76	33.96
726.943	33.92
727.126	34.11
727.309	34.34
727.492	34.28
727.675	34
727.858	33.84
728.041	34.13
728.224	33.95
728.407	33.51
728.589	33.8
728.772	33.61
728.955	33.71
729.138	33.75
729.321	33.65
729.503	33.37
729.686	33.72
729.869	33.7
730.052	33.59
730.234	33.69
730.417	33.57
730.6	33.28
730.782	33.3
730.965	33.56
731.148	33.44
731.33	33.5
731.513	33.58
731.695	33.58
731.878	33.87
732.061	33.77
732.243	34.37
732.426	34.66
732.608	34.82
732.791	34.66
732.973	34.33
733.156	34.09
733.338	34.37
733.52	34.81
733.703	34.68
733.885	34.38
734.068	34.69
734.25	33.84
734.432	33.96
734.615	34.02
734.797	34.27
734.979	34.65
735.162	35.06
735.344	34.8
735.526	34.47
735.708	34.79
735.891	34.72
736.073	34.59
736.255	34.84
736.437	34.25
736.619	34.42
736.802	34.59
736.984	34.91
737.166	35.04
737.348	34.85
737.53	34.74
737.712	34.29
737.894	34.49
738.076	34.52
738.258	34.85
738.44	34.8
738.622	34.19
738.804	34.09
738.986	33.7
739.168	33.62
739.35	33.73
739.532	33.84
739.714	34
739.896	34
740.078	33.47
740.259	33.27
740.441	33.54
740.623	34.18
740.805	34.05
740.987	33.96
741.168	33.63
741.35	33.39
741.532	33.17
741.714	33.57
741.895	33.81
742.077	34.05
742.259	34.28
742.44	34.4
742.622	34.61
742.804	34.65
742.985	34.6
743.167	34.76
743.348	35.37
743.53	35.81
743.711	35.32
743.893	35.03
744.075	35.17
744.256	35.08
744.438	35.22
744.619	34.88
744.8	34.92
744.982	35.07
745.163	35.47
745.345	35.36
745.526	35.61
745.707	35.49
745.889	35.76
746.07	36.16
746.252	36.48
746.433	36.06
746.614	35.94
746.795	35.96
746.977	36.17
747.158	36
747.339	36.3
747.52	36.31
747.702	36.53
747.883	36.26
748.064	36.18
748.245	35.62
748.426	35.56
748.607	35.68
748.788	35.27
748.97	35.12
749.151	35.28
749.332	35.08
749.513	34.98
749.694	34.97
749.875	35.9
750.056	35.57
750.237	36.24
750.418	37.01
750.599	37.54
750.78	37.68
750.96	37.33
751.141	36.89
751.322	36.96
751.503	37.2
751.684	37.47
751.865	36.62
752.046	36.93
752.226	36.5
752.407	36.13
752.588	36.35
752.769	36.36
752.949	36.36
753.13	36.69
753.311	36.43
753.492	36.11
753.672	35.87
753.853	35.92
754.034	35.51
754.214	35.38
754.395	35.57
754.575	34.94
754.756	35.52
754.937	35.83
755.117	35.27
755.298	35.22
755.478	35.27
755.659	35.86
755.839	35.75
756.02	36.21
756.2	36.22
756.381	35.99
756.561	35.66
756.741	35.6
756.922	36.24
757.102	36.32
757.283	36.04
757.463	35.84
757.643	35.64
757.823	36.08
758.004	36.35
758.184	36.6
758.364	37.42
758.545	37.74
758.725	37.49
758.905	37.22
759.085	37.59
759.265	37.8
759.446	37.44
759.626	37.12
759.806	37.22
759.986	37.13
760.166	37.04
760.346	36.91
760.526	37.28
760.706	37.54
760.886	37.15
761.066	36.39
761.246	36.42
761.426	36.69
761.606	36.48
761.786	36.4
761.966	36.49
762.146	36.19
762.326	35.94
762.506	35.71
762.686	35.71
762.866	35.61
763.046	36.19
763.225	36.05
763.405	35.76
763.585	35.63
763.765	35.62
763.945	35.24
764.124	35.13
764.304	34.61
764.484	34.69
764.664	34.61
764.843	34.68
765.023	34.17
765.203	34.6
765.382	35.21
765.562	35.69
765.741	35.45
765.921	35.89
766.101	36.3
766.28	36.94
766.46	36.58
766.639	36.77
766.819	36.64
766.998	36.87
767.178	36.76
767.357	36.15
767.537	35.36
767.716	35.27
767.896	35.12
768.075	34.81
768.254	34.48
768.434	35.25
768.613	34.91
768.792	35.27
768.972	35.25
769.151	35.12
769.33	35.42
769.51	36.12
769.689	36.7
769.868	36.3
770.047	36.94
770.226	37.46
770.406	36.84
770.585	36.79
770.764	37.16
770.943	37.31
771.122	37.62
771.301	38.16
771.48	38.07
771.66	38.17
771.839	38.88
772.018	39.02
772.197	38.88
772.376	39.35
772.555	38.94
772.734	39.03
772.913	39.7
773.092	39.47
773.271	38.85
773.449	39.45
773.628	39.1
773.807	38.77
773.986	37.78
774.165	37.73
774.344	37.79
774.523	37.95
774.701	37.44
774.88	37.07
775.059	37.41
775.238	37.09
775.417	37.09
775.595	37.03
775.774	37.45
775.953	38.04
776.131	38.12
776.31	37.31
776.489	37.72
776.667	38.09
776.846	38.75
777.025	38.69
777.203	38.87
777.382	37.91
777.56	38.2
777.739	37.95
777.917	38.33
778.096	38.56
778.274	38.84
778.453	39.41
778.631	39.24
778.81	37.54
778.988	36.72
779.166	37.19
779.345	37.64
779.523	37.53
779.702	37.72
779.88	37.81
780.058	37.32
780.237	37.4
780.415	37.36
780.593	37.33
780.771	39.32
780.95	40.84
781.128	40.53
781.306	41.21
781.484	41.47
781.662	41.08
781.841	41.28
782.019	41.2
782.197	41.69
782.375	40.94
782.553	40.74
782.731	40.07
782.909	39.62
783.087	40.47
783.265	40.53
783.443	40.41
783.621	40.54
783.799	40.21
783.977	40.37
784.155	39.88
784.333	39.97
784.511	40.28
784.689	40.59
784.867	40.69
785.045	40.43
785.223	40.2
785.4	39.89
785.578	40.89
785.756	40.94
785.934	41.22
786.112	41.42
786.289	41.62
786.467	40.95
786.645	40.49
786.823	40.02
787	39.85
787.178	38.9
787.356	39.01
787.533	39.03
787.711	38.74
787.889	39.27
788.066	39.28
788.244	39.72
788.421	40.14
788.599	39.94
788.776	39.9
788.954	39.81
789.131	40.56
789.309	40.61
789.486	40.52
789.664	40.87
789.841	41.15
790.019	40.26
790.196	39.94
790.373	40.38
790.551	40.33
790.728	40
790.906	40.8
791.083	40.72
791.26	41.09
791.437	40.72
791.615	39.88
791.792	39.25
791.969	40.73
792.146	40.93
792.324	40.74
792.501	41.42
792.678	42.6
792.855	42.5
793.032	42.57
793.209	43.66
793.387	43.59
793.564	44.54
793.741	43.35
793.918	43.66
794.095	42.9
794.272	42.99
794.449	42.57
794.626	41
794.803	40.18
794.98	39.08
795.157	38.75
795.334	37.51
795.511	37.05
795.688	38.23
795.864	37.33
796.041	38.95
796.218	38.55
796.395	37.27
796.572	38.1
796.749	39.01
796.925	39.53
797.102	38.57
797.279	39.65
797.456	39.83
797.632	39.27
797.809	40.17
797.986	39.33
798.162	39.23
798.339	39.66
798.516	40.32
798.692	40.34
798.869	40.74
799.046	41.49
799.222	41.49
799.399	42.38
799.575	42.68
799.752	41.78
799.928	41.51
800.105	42.06
800.281	42.74
800.458	41.89
800.634	40.76
800.811	40.85
800.987	41.19
801.163	41.36
801.34	40.32
801.516	40.52
801.692	40.06
801.869	40.21
802.045	40.36
802.221	40.49
802.398	40.99
802.574	41.51
802.75	41.49
802.926	41.22
803.103	41.69
803.279	41.38
803.455	40.87
803.631	42.1
803.807	42.52
803.983	42.84
804.16	43.49
804.336	42.96
804.512	43.68
804.688	43.86
804.864	43.38
805.04	42.5
805.216	43.2
805.392	43.81
805.568	44.21
805.744	45.04
805.92	44.83
806.096	44.49
806.272	45.48
806.448	44.27
806.623	43.92
806.799	43.52
806.975	44.73
807.151	44.43
807.327	44.1
807.503	43.58
807.678	41.94
807.854	41.26
808.03	42.19
808.206	42.04
808.381	42.6
808.557	43.14
808.733	43.83
808.908	44.1
809.084	43.57
809.26	43.81
809.435	43.77
809.611	44.59
809.787	44.94
809.962	44.55
810.138	44.03
810.313	43.94
810.489	43.91
810.664	43.89
810.84	42.46
811.015	43.5
811.191	42.12
811.366	43.07
811.542	43.38
811.717	43.5
811.892	43.32
812.068	43.11
812.243	43.99
812.419	45.08
812.594	44.91
812.769	46.42
812.944	45.54
813.12	46.54
813.295	44.44
813.47	43.88
813.645	43.97
813.821	42.81
813.996	43.05
814.171	42.54
814.346	41.39
814.521	42.12
814.697	40.66
814.872	41.57
815.047	41.87
815.222	43.36
815.397	43.37
815.572	43.25
815.747	43.87
815.922	43.26
816.097	42.78
816.272	43.13
816.447	41.95
816.622	42.56
816.797	42.5
816.972	42.47
817.147	42.37
817.322	41.39
817.496	40.83
817.671	40.58
817.846	40.5
818.021	41.43
818.196	40.52
818.371	40.6
818.545	40.96
818.72	40.58
818.895	40.28
819.069	39.68
819.244	40.5
819.419	41.01
819.594	41.29
819.768	41.67
819.943	40.8
820.117	39.51
820.292	38.72
820.467	37.67
820.641	37.18
820.816	35.99
820.99	35.06
821.165	33.74
821.339	32.61
821.514	31.9
821.688	31.63
821.863	30.85
822.037	30.51
822.212	30.08
822.386	29.45
822.56	29.19
822.735	29.03
822.909	28.95
823.084	29.09
823.258	29.19
823.432	29.3
823.606	29.08
823.781	29.32
823.955	29.71
824.129	30.2
824.303	30.83
824.478	31.03
824.652	31.57
824.826	31.93
825	32.25
825.174	32.52
825.348	32.86
825.523	32.89
825.697	32.73
825.871	33.08
826.045	32.74
826.219	33.02
826.393	32.82
826.567	32.8
826.741	32.41
826.915	32.33
827.089	32.3
827.263	31.98
827.437	32.26
827.611	32.7
827.784	32.35
827.958	32.51
828.132	32.04
828.306	32.14
828.48	32.14
828.654	32.86
828.827	33.24
829.001	33.45
829.175	33.06
829.349	33.12
829.522	33.52
829.696	34.41
829.87	35.08
830.044	35.56
830.217	36.65
830.391	37.3
830.565	36.98
830.738	36.9
830.912	37.13
831.085	39.64
831.259	40.5
831.432	39.91
831.606	39.66
831.779	38.95
831.953	38.43
832.126	37.89
832.3	37.57
832.473	37.62
832.647	37.49
832.82	37.78
832.994	36.81
833.167	37.19
833.34	37.21
833.514	36.87
833.687	36.86
833.86	37.25
834.034	36.8
834.207	37.38
834.38	36.63
834.553	35.94
834.727	35.8
834.9	35.93
835.073	35.77
835.246	35.57
835.419	36.17
835.593	37.2
835.766	37.23
835.939	38.61
836.112	38.33
836.285	39.75
836.458	40.1
836.631	39.37
836.804	39.68
836.977	39.21
837.15	41.38
837.323	40.96
837.496	41.61
837.669	42.71
837.842	43.26
838.015	43.5
838.188	42.41
838.361	44.94
838.533	47.89
838.706	47.33
838.879	47.49
839.052	45.54
839.225	46.32
839.398	44.5
839.57	43.48
839.743	42.98
839.916	44.06
840.088	44.24
840.261	43.61
840.434	42.98
840.607	45.08
840.779	46.17
840.952	46.87
841.124	45.72
841.297	45.43
841.47	45.54
841.642	45.92
841.815	44.89
841.987	45.92
842.16	48.48
842.332	49.19
842.505	50
842.677	49.33
842.85	48.04
843.022	51.41
843.194	53.38
843.367	54.2
843.539	52.09
843.712	52.97
843.884	53.42
844.056	50.83
844.229	50.69
844.401	48.03
844.573	48.56
844.745	50.97
844.918	48.94
845.09	48.27
845.262	50.13
845.434	49.4
845.606	51.49
845.779	52.27
845.951	55.57
846.123	54.24
846.295	55.28
846.467	57.41
846.639	57.47
846.811	58.14
846.983	58.91
847.155	58.29
847.327	61.83
847.499	57.84
847.671	58.65
847.843	55.78
848.015	56.56
848.187	56.9
848.359	54.79
848.531	58.33
848.703	57.29
848.875	59.32
849.047	58.71
849.218	59.39
849.39	62.5
849.562	60.87
849.734	62.99
849.905	67.55
850.077	68.78
850.249	70.32
850.421	66.99
850.592	66.73
850.764	65.34
850.936	64.51
851.107	62.69
851.279	61.51
851.451	65.85
851.622	64.92
851.794	62.73
851.965	63.85
852.137	61.22
852.308	61.16
852.48	63.06
852.651	61.28
852.823	61.88
852.994	60.43
853.166	59.98
853.337	55.02
853.509	56.23
853.68	53.88
853.851	50.76
854.023	50.23
854.194	51.15
854.365	49.82
854.537	51.28
854.708	50.46
854.879	50.09
855.05	52.78
855.222	53.23
855.393	55.44
855.564	56.81
855.735	56.15
855.906	56.53
856.078	53.94
856.249	55.46
856.42	56.36
856.591	58.78
856.762	61.81
856.933	58.98
857.104	59.5
857.275	55.82
857.446	57.23
857.617	57.6
857.788	59.37
857.959	58.57
858.13	56.09
858.301	54.25
858.472	54.57
858.643	53.82
858.814	53.32
858.985	53.53
859.155	53.76
859.326	55.85
859.497	57.72
859.668	56.53
859.839	57.89
860.009	59.47
860.18	62.97
860.351	63.42
860.522	64.93
860.692	66
860.863	65.92
861.034	68.09
861.204	65.28
861.375	67.83
861.546	66.88
861.716	67.89
861.887	66.28
862.057	65.76
862.228	69.1
862.398	68.3
862.569	71.88
862.739	73.64
862.91	69.84
863.08	71.84
863.251	69.4
863.421	69.12
863.592	64.75
863.762	66.05
863.932	62.88
864.103	59.93
864.273	57.92
864.443	52.24
864.614	49.42
864.784	50.59
864.954	49.55
865.125	51.26
865.295	54.58
865.465	60.26
865.635	59.46
865.805	61.44
865.976	62.96
866.146	64.92
866.316	67.71
866.486	66.89
866.656	71.81
866.826	70.81
866.996	68.69
867.166	69.49
867.336	69.7
867.506	71.21
867.676	68.19
867.846	66.72
868.016	68.44
868.186	67.81
868.356	74.21
868.526	70.66
868.696	71.23
868.866	71.39
869.036	69.67
869.206	68.37
869.376	71.81
869.545	73.26
869.715	72.49
869.885	68.98
870.055	73.49
870.224	72.82
870.394	73.97
870.564	75.39
870.734	74.71
870.903	72.82
871.073	69.78
871.243	67.94
871.412	66.18
871.582	66.96
871.751	67.91
871.921	64.99
872.091	64.98
872.26	66.89
872.43	62.08
872.599	62.07
872.769	63.05
872.938	65.4
873.108	65.85
873.277	68.01
873.446	68.09
873.616	67.58
873.785	70.68
873.955	69.93
874.124	67.41
874.293	74.29
874.463	74.69
874.632	72.97
874.801	72.46
874.971	69.53
875.14	66.24
875.309	64
875.478	64.62
875.647	64.68
875.817	64.23
875.986	64.16
876.155	59.71
876.324	55.44
876.493	56.73
876.662	57.17
876.831	57.2
877	59.82
877.17	62.16
877.339	63.7
877.508	60.9
877.677	60.79
877.846	61.93
878.015	63.94
878.184	68.06
878.352	68.69
878.521	65.23
878.69	66.72
878.859	65.93
879.028	64.3
879.197	61.46
879.366	60.04
879.534	57.58
879.703	55.18
879.872	52.87
880.041	50.3
880.21	48.04
880.378	47.11
880.547	44.5
880.716	42.09
880.884	41.48
881.053	40.55
881.222	39.18
881.39	37.62
881.559	35.82
881.727	34.52
881.896	33.62
882.065	32.91
882.233	32.27
882.402	31.99
882.57	32.07
882.739	30.83
882.907	30.23
883.076	29.92
883.244	30.3
883.412	30.75
883.581	30.9
883.749	31.16
883.918	31.87
884.086	32.39
884.254	32.54
884.423	33.77
884.591	34.9
884.759	35.67
884.927	36.82
885.096	37.88
885.264	39.52
885.432	41.98
885.6	42.09
885.769	43.21
885.937	43.13
886.105	45.03
886.273	46.88
886.441	48.41
886.609	51.32
886.777	52.44
886.945	52.43
887.113	50.31
887.281	48.74
887.449	53.26
887.617	53.64
887.785	55.43
887.953	58.05
888.121	53.86
888.289	54.34
888.457	54.91
888.625	57.18
888.793	59.54
888.961	62.42
889.129	63.75
889.296	64.98
889.464	65.22
889.632	68.23
889.8	67.27
889.967	71.68
890.135	74.42
