Data from 2938852__Reflection_01.txt Node
Date: Wed Mar 11 12:23:12 EDT 2015
User: robert
Spectrometer: USB4E03002
Autoset integration time: false
Trigger mode: 4
Integration Time (sec): 1.000000E-1
Scans to average: 10
Electric dark correction enabled: false
Nonlinearity correction enabled: false
Boxcar width: 5
Stray light correction enabled: false
XAxis mode: Wavelengths
Stop averaging: false
Number of Pixels in Spectrum: 3648
>>>>>Begin Spectral Data<<<<<
177.575	85.19
177.794	166.67
178.014	77.4
178.233	64.71
178.452	-40.88
178.672	28.66
178.891	11.06
179.11	23.31
179.33	-13.69
179.549	-26.88
179.768	-34.62
179.987	-26.03
180.207	-36.61
180.426	-39.46
180.645	-36.86
180.864	34.18
181.084	-85.11
181.303	-550
181.522	-243.36
181.741	-97.63
181.96	-155.32
182.179	-525.86
182.398	-231.76
182.618	421.98
182.837	653.85
183.056	944.68
183.275	172.5
183.494	110.57
183.713	170.3
183.932	116.52
184.151	119.83
184.37	81.29
184.589	184.11
184.808	310.22
185.027	-540.48
185.246	-263.33
185.465	-25.83
185.684	-15.54
185.903	-55.24
186.122	-40.47
186.341	-11.3
186.56	-18.62
186.779	-58.55
186.998	-27.31
187.216	3.36
187.435	9.2
187.654	22.26
187.873	37.26
188.092	28.69
188.311	41.95
188.53	50.37
188.748	45.33
188.967	43.53
189.186	67.47
189.405	70.72
189.623	70.61
189.842	59.61
190.061	63.23
190.28	52.93
190.498	63.4
190.717	62.69
190.936	72.97
191.154	59.34
191.373	74.91
191.592	67.01
191.81	56.56
192.029	50.88
192.248	132.74
192.466	94.86
192.685	35.33
192.904	0.69
193.122	-11.46
193.341	-67.13
193.559	-4.67
193.778	-106.17
193.996	-32.84
194.215	-15.24
194.433	-1.29
194.652	-45.74
194.87	-55.71
195.089	-38.22
195.307	-12.09
195.526	-19.44
195.744	17.03
195.963	29.68
196.181	33.52
196.399	39.89
196.618	13.16
196.836	18.03
197.055	29.93
197.273	59.01
197.491	65.74
197.71	58.88
197.928	43.86
198.146	33.59
198.365	12.33
198.583	7.7
198.801	10.09
199.019	23.83
199.238	29.82
199.456	25.74
199.674	-14.65
199.892	17.02
200.111	11.97
200.329	12.08
200.547	11.35
200.765	10.6
200.983	12.93
201.202	13.95
201.42	31.11
201.638	17.85
201.856	21.77
202.074	24.31
202.292	3.95
202.51	10.06
202.728	23.06
202.946	33.69
203.165	25.98
203.383	51.82
203.601	35.62
203.819	75.26
204.037	74.1
204.255	39.27
204.473	28.12
204.691	53.83
204.909	55.89
205.127	25.96
205.345	-15.85
205.562	11.25
205.78	3.45
205.998	4.18
206.216	-14.63
206.434	9.52
206.652	15.7
206.87	16.9
207.088	20.26
207.306	12.33
207.523	40.21
207.741	34.4
207.959	28.18
208.177	10.94
208.395	-10.39
208.612	-24.06
208.83	-36.58
209.048	-50
209.266	-2.27
209.483	-29.27
209.701	-36.81
209.919	-33.52
210.136	-22.2
210.354	10.71
210.572	31.1
210.79	59.36
211.007	52.51
211.225	58
211.442	59.43
211.66	29.79
211.878	55.65
212.095	-52.03
212.313	-84.01
212.53	-64.73
212.748	-49.74
212.966	-55.02
213.183	-66.67
213.401	-37.12
213.618	-53.92
213.836	-52.04
214.053	-32.76
214.271	-35.78
214.488	14.95
214.705	11.33
214.923	-1.55
215.14	-26.26
215.358	-25.92
215.575	-8.09
215.793	-17.03
216.01	-15.87
216.227	-14.15
216.445	-10.1
216.662	-23.03
216.879	-23.25
217.097	-14.84
217.314	-9.1
217.531	3.38
217.749	0.98
217.966	6.62
218.183	17.11
218.4	15.48
218.618	5.05
218.835	2
219.052	9.73
219.269	20.03
219.487	16.57
219.704	16.85
219.921	16.46
220.138	24.33
220.355	13.03
220.572	11.21
220.79	13.87
221.007	15.66
221.224	8.67
221.441	5.33
221.658	4.79
221.875	10.18
222.092	12.69
222.309	10.05
222.526	8.55
222.743	5.37
222.96	4.17
223.177	2.5
223.394	-0.78
223.611	0.13
223.828	1.52
224.045	0.73
224.262	0.8
224.479	3.07
224.696	3.58
224.913	3.29
225.13	8.48
225.347	3.15
225.564	3.78
225.781	6.78
225.997	6.28
226.214	3.77
226.431	3.44
226.648	0.95
226.865	0.11
227.082	2.2
227.298	2.14
227.515	0.52
227.732	1.38
227.949	1.79
228.165	1.67
228.382	2.12
228.599	3
228.816	3.79
229.032	3.92
229.249	3.44
229.466	2.79
229.682	2.25
229.899	2.66
230.116	2.8
230.332	2.54
230.549	2.08
230.765	2.25
230.982	1.42
231.199	0.26
231.415	0.03
231.632	0.36
231.848	0.79
232.065	2.56
232.281	2.39
232.498	2.75
232.714	1.91
232.931	3.21
233.147	2.36
233.364	2.55
233.58	3.51
233.797	3.43
234.013	3.75
234.23	2.83
234.446	1.95
234.662	1.17
234.879	0.19
235.095	0.56
235.312	0.28
235.528	0.17
235.744	0.53
235.961	-1.23
236.177	-1.26
236.393	-1.57
236.61	-1.44
236.826	0.05
237.042	2.15
237.258	2.51
237.475	2.91
237.691	2.74
237.907	3.84
238.123	3.2
238.339	4.59
238.556	4.67
238.772	4.29
238.988	4.81
239.204	2.98
239.42	2.7
239.636	3.2
239.853	2.63
240.069	2.26
240.285	2.18
240.501	3.55
240.717	3.36
240.933	2.82
241.149	3.24
241.365	2.95
241.581	3.37
241.797	2.65
242.013	3.02
242.229	3.32
242.445	3.85
242.661	4.17
242.877	3.67
243.093	3.19
243.309	3.65
243.525	3.52
243.741	3.63
243.957	2.98
244.173	3.55
244.388	2.81
244.604	2.49
244.82	1.46
245.036	0.67
245.252	0.71
245.468	1.73
245.683	2.6
245.899	2.58
246.115	2.74
246.331	3.1
246.547	3.07
246.762	3.39
246.978	3.45
247.194	3.82
247.409	4.24
247.625	4.31
247.841	3.88
248.057	3.63
248.272	3.75
248.488	3.58
248.703	3.98
248.919	4.19
249.135	4.28
249.35	4.43
249.566	3.87
249.782	3.51
249.997	3.47
250.213	3.79
250.428	3.51
250.644	3.43
250.859	3.14
251.075	2.6
251.29	2.51
251.506	2.39
251.721	2.89
251.937	3.53
252.152	4.31
252.368	4.32
252.583	4.64
252.798	4.29
253.014	4.79
253.229	5.41
253.445	5.03
253.66	4.74
253.875	5
254.091	3.66
254.306	3.92
254.521	2.57
254.737	2.71
254.952	2.41
255.167	2.9
255.383	2.05
255.598	1.1
255.813	1.4
256.028	1.74
256.244	2.14
256.459	3.58
256.674	2.86
256.889	2.88
257.104	2.66
257.32	2.48
257.535	2.28
257.75	2.34
257.965	3.1
258.18	3.07
258.395	3.39
258.61	3.08
258.826	2.76
259.041	2.96
259.256	2.96
259.471	3.02
259.686	3.18
259.901	3.34
260.116	3.45
260.331	3.28
260.546	3.36
260.761	3.01
260.976	2.83
261.191	2.83
261.406	2.91
261.621	3.26
261.836	3.17
262.05	2.55
262.265	2.29
262.48	1.86
262.695	1.33
262.91	1.12
263.125	1.32
263.34	1.48
263.555	1.54
263.769	1.25
263.984	0.09
264.199	-0.2
264.414	0.88
264.629	1.21
264.843	1.25
265.058	1.94
265.273	1.45
265.488	0.95
265.702	0.7
265.917	1.05
266.132	0.8
266.346	1.53
266.561	1.84
266.776	1.67
266.99	1.52
267.205	1.33
267.42	1.45
267.634	1.86
267.849	2.29
268.063	2.51
268.278	2.1
268.492	2.89
268.707	2.59
268.922	2.72
269.136	2.58
269.351	2.84
269.565	2.61
269.78	2.38
269.994	2.07
270.209	2.09
270.423	2.13
270.637	2.55
270.852	2.3
271.066	2.21
271.281	2.08
271.495	2.19
271.709	1.58
271.924	2.27
272.138	2.18
272.353	2.28
272.567	2
272.781	1.97
272.996	1.48
273.21	1.21
273.424	1.53
273.638	1.11
273.853	1.2
274.067	1.78
274.281	1.75
274.495	2.1
274.71	2.19
274.924	2.35
275.138	2.62
275.352	3.42
275.566	3.81
275.781	3.82
275.995	4.09
276.209	3.92
276.423	3.95
276.637	3.55
276.851	3.54
277.065	3.51
277.279	3.58
277.493	3.39
277.707	2.85
277.921	2.47
278.135	2.17
278.349	2.31
278.563	2.18
278.777	2.27
278.991	2.51
279.205	2.31
279.419	2.38
279.633	2.77
279.847	3.04
280.061	3.29
280.275	3.57
280.489	3.26
280.703	3.34
280.917	3.64
281.131	3.42
281.344	3.68
281.558	3.5
281.772	3.25
281.986	2.74
282.2	2.58
282.414	2.24
282.627	2.11
282.841	2.91
283.055	2.76
283.269	2.61
283.482	2.84
283.696	2.58
283.91	2.56
284.123	2.67
284.337	2.76
284.551	2.9
284.764	3.22
284.978	3.04
285.192	2.65
285.405	2.67
285.619	2.5
285.833	2.28
286.046	2.31
286.26	2.51
286.473	2.67
286.687	2.84
286.9	2.91
287.114	3.01
287.327	3.1
287.541	3.25
287.754	3.44
287.968	3.61
288.181	3.91
288.395	3.89
288.608	4.01
288.822	3.84
289.035	3.71
289.248	3.42
289.462	3.39
289.675	3.69
289.889	3.55
290.102	3.37
290.315	3.46
290.529	3.48
290.742	3.47
290.955	3.24
291.169	3.4
291.382	3.62
291.595	3.55
291.808	3.42
292.022	3.54
292.235	3.21
292.448	3.25
292.661	3
292.875	2.77
293.088	2.96
293.301	3.13
293.514	3.28
293.727	3.3
293.94	3.47
294.153	3.36
294.367	3.05
294.58	3.41
294.793	3.46
295.006	3.52
295.219	3.45
295.432	3.3
295.645	3.17
295.858	3.22
296.071	2.94
296.284	2.94
296.497	2.95
296.71	2.97
296.923	3.1
297.136	3.18
297.349	3.23
297.562	3.34
297.775	3.46
297.988	3.62
298.201	3.38
298.414	3.51
298.626	3.65
298.839	3.63
299.052	3.56
299.265	3.54
299.478	3.65
299.691	3.93
299.903	3.87
300.116	3.73
300.329	3.36
300.542	3.4
300.755	3.67
300.967	3.48
301.18	3.76
301.393	4.14
301.605	4.43
301.818	4.41
302.031	4.51
302.243	4.7
302.456	4.72
302.669	5.13
302.881	5.44
303.094	5.67
303.307	5.75
303.519	5.64
303.732	5.56
303.944	5.35
304.157	5.01
304.37	4.76
304.582	4.31
304.795	4.45
305.007	4.34
305.22	4.37
305.432	3.98
305.645	4.2
305.857	4
306.069	3.53
306.282	3.38
306.494	3.67
306.707	3.4
306.919	4.15
307.132	4.19
307.344	4.44
307.556	4.32
307.769	4.31
307.981	4.42
308.193	4.64
308.406	4.94
308.618	5.08
308.83	5.12
309.043	5.37
309.255	4.83
309.467	4.5
309.679	4.42
309.892	4.39
310.104	4.62
310.316	4.48
310.528	4.57
310.74	4.71
310.953	4.61
311.165	4.41
311.377	4.51
311.589	4.66
311.801	4.86
312.013	4.67
312.225	4.67
312.437	4.53
312.649	4.7
312.862	4.8
313.074	4.92
313.286	4.9
313.498	5.25
313.71	5.18
313.922	5.28
314.134	5.4
314.346	5.37
314.558	5.58
314.77	5.5
314.982	5.09
315.193	4.98
315.405	4.75
315.617	4.85
315.829	4.45
316.041	4.57
316.253	4.43
316.465	4.19
316.677	4.64
316.888	4.59
317.1	4.64
317.312	4.77
317.524	4.96
317.736	4.97
317.947	5.23
318.159	5.45
318.371	5.34
318.583	5.42
318.794	5.72
319.006	5.43
319.218	5.53
319.43	5.67
319.641	5.94
319.853	5.51
320.064	5.37
320.276	5.13
320.488	5.34
320.699	5.3
320.911	6.03
321.123	6.12
321.334	6.29
321.546	6.41
321.757	6.43
321.969	6.69
322.18	6.94
322.392	7.52
322.603	7.53
322.815	7.49
323.026	7.68
323.238	6.97
323.449	6.95
323.661	7.05
323.872	7.09
324.083	6.8
324.295	6.68
324.506	6.51
324.718	6.27
324.929	6.14
325.14	6.23
325.352	6.08
325.563	6.35
325.774	6.29
325.986	6.14
326.197	5.97
326.408	6.08
326.62	5.84
326.831	6.47
327.042	6.49
327.253	6.65
327.464	6.52
327.676	6.65
327.887	6.47
328.098	6.6
328.309	6.65
328.52	6.56
328.732	6.53
328.943	6.82
329.154	6.48
329.365	6.47
329.576	6.85
329.787	6.99
329.998	6.84
330.209	7.13
330.42	7.31
330.631	7.54
330.842	7.68
331.053	7.64
331.264	7.37
331.475	7.66
331.686	7.87
331.897	7.53
332.108	7.03
332.319	7.25
332.53	7.05
332.741	6.74
332.952	6.42
333.163	6.78
333.374	7.16
333.585	7.18
333.795	7.47
334.006	7.39
334.217	7.58
334.428	8.04
334.639	7.87
334.849	8.04
335.06	8.02
335.271	8.04
335.482	7.98
335.692	8
335.903	8.12
336.114	7.66
336.325	7.62
336.535	7.43
336.746	7.83
336.957	7.74
337.167	7.82
337.378	7.88
337.589	8.12
337.799	8
338.01	8.02
338.22	7.75
338.431	7.67
338.642	7.66
338.852	7.86
339.063	7.51
339.273	7.6
339.484	7.44
339.694	7.64
339.905	7.6
340.115	7.7
340.326	7.43
340.536	7.63
340.746	7.85
340.957	7.53
341.167	7.67
341.378	7.69
341.588	7.8
341.799	7.94
342.009	8.01
342.219	7.91
342.43	8.03
342.64	8.16
342.85	8.21
343.061	7.97
343.271	8.34
343.481	8.03
343.691	8.09
343.902	8.23
344.112	7.94
344.322	7.81
344.532	7.78
344.743	7.49
344.953	7.41
345.163	7.44
345.373	7.67
345.583	7.68
345.793	7.78
346.004	7.94
346.214	7.62
346.424	8.04
346.634	8.17
346.844	8.29
347.054	8.41
347.264	8.4
347.474	8.31
347.684	8.13
347.894	8.29
348.104	8.21
348.314	7.8
348.524	7.79
348.734	7.78
348.944	7.76
349.154	7.72
349.364	7.59
349.574	7.63
349.784	7.87
349.994	7.71
350.204	7.34
350.413	7.39
350.623	7.41
350.833	7.59
351.043	7.09
351.253	6.91
351.463	6.96
351.672	7.03
351.882	7.06
352.092	7.05
352.302	7.12
352.511	7.35
352.721	7.18
352.931	7.36
353.141	7.12
353.35	7.2
353.56	7.32
353.77	7.45
353.979	7.44
354.189	7.61
354.399	7.42
354.608	7.53
354.818	7.34
355.027	7.66
355.237	7.54
355.447	7.63
355.656	7.87
355.866	7.62
356.075	7.48
356.285	7.69
356.494	7.56
356.704	7.64
356.913	7.7
357.123	7.77
357.332	7.73
357.542	7.82
357.751	7.94
357.96	8.09
358.17	8.23
358.379	8.24
358.589	7.97
358.798	7.97
359.007	7.97
359.217	7.86
359.426	7.98
359.635	7.88
359.845	7.67
360.054	7.57
360.263	7.44
360.472	7.4
360.682	7.12
360.891	7.19
361.1	7.22
361.309	7.27
361.519	7.47
361.728	7.38
361.937	7.4
362.146	7.44
362.355	7.38
362.564	7.37
362.774	7.49
362.983	7.67
363.192	7.68
363.401	7.72
363.61	7.62
363.819	7.37
364.028	7.32
364.237	7.28
364.446	7.51
364.655	7.69
364.864	7.67
365.073	7.53
365.282	7.57
365.491	7.53
365.7	7.37
365.909	7.47
366.118	7.44
366.327	7.51
366.536	7.39
366.745	7.28
366.954	7.24
367.162	7.28
367.371	7.18
367.58	7.26
367.789	7.33
367.998	7.39
368.207	7.3
368.415	7.22
368.624	7.28
368.833	7.33
369.042	7.25
369.25	7.15
369.459	7.03
369.668	7.2
369.877	7.15
370.085	7.01
370.294	6.97
370.503	7.01
370.711	6.99
370.92	6.77
371.129	6.8
371.337	6.72
371.546	6.74
371.754	6.87
371.963	6.8
372.171	6.71
372.38	6.59
372.589	6.39
372.797	6.2
373.006	6.25
373.214	6.31
373.423	6.38
373.631	6.29
373.84	6.27
374.048	6.01
374.256	6.12
374.465	6.26
374.673	6.54
374.882	6.88
375.09	7.07
375.298	6.96
375.507	6.77
375.715	6.65
375.923	6.58
376.132	6.75
376.34	7.03
376.548	6.8
376.757	6.62
376.965	6.44
377.173	6.46
377.381	6.35
377.59	6.57
377.798	6.83
378.006	6.9
378.214	7.13
378.423	6.96
378.631	6.78
378.839	6.82
379.047	6.76
379.255	6.83
379.463	6.67
379.671	6.75
379.879	6.68
380.088	6.58
380.296	6.55
380.504	6.61
380.712	6.63
380.92	6.51
381.128	6.28
381.336	6.58
381.544	6.62
381.752	6.52
381.96	6.54
382.168	6.51
382.376	6.37
382.584	6.42
382.791	6.35
382.999	6.11
383.207	6.23
383.415	6.35
383.623	6.09
383.831	6.05
384.039	6.03
384.247	5.98
384.454	6.11
384.662	6.16
384.87	6.13
385.078	6.05
385.285	6.19
385.493	6.01
385.701	6.24
385.909	6.55
386.116	6.58
386.324	6.71
386.532	6.74
386.739	6.57
386.947	6.54
387.155	6.66
387.362	6.75
387.57	6.81
387.778	6.83
387.985	6.66
388.193	6.4
388.4	6.22
388.608	6.1
388.816	6.04
389.023	5.94
389.231	5.91
389.438	5.73
389.646	5.49
389.853	5.45
390.061	5.6
390.268	5.65
390.475	5.65
390.683	5.71
390.89	5.75
391.098	5.78
391.305	5.75
391.512	5.63
391.72	5.66
391.927	5.62
392.135	5.67
392.342	5.64
392.549	5.62
392.756	5.6
392.964	5.61
393.171	5.73
393.378	5.74
393.586	5.97
393.793	6.04
394	6.05
394.207	6.27
394.414	6.19
394.622	6.07
394.829	6.1
395.036	6
395.243	5.97
395.45	5.95
395.657	5.95
395.864	5.79
396.072	5.81
396.279	5.8
396.486	5.63
396.693	5.7
396.9	5.81
397.107	5.78
397.314	5.97
397.521	5.86
397.728	5.76
397.935	5.71
398.142	5.69
398.349	5.81
398.556	5.77
398.763	5.71
398.97	5.57
399.177	5.55
399.383	5.5
399.59	5.52
399.797	5.56
400.004	5.55
400.211	5.48
400.418	5.59
400.625	5.69
400.831	5.72
401.038	5.83
401.245	5.98
401.452	5.96
401.658	6.03
401.865	5.81
402.072	5.87
402.279	5.87
402.485	5.73
402.692	5.56
402.899	5.16
403.105	5.15
403.312	5.19
403.519	5.28
403.725	5.23
403.932	5.11
404.138	5.15
404.345	5.18
404.552	5.19
404.758	5.17
404.965	5.28
405.171	5.52
405.378	5.55
405.584	5.6
405.791	5.5
405.997	5.65
406.204	5.81
406.41	5.88
406.617	5.87
406.823	5.96
407.029	6.3
407.236	6.34
407.442	6.17
407.649	6.2
407.855	5.9
408.061	5.86
408.268	5.69
408.474	5.53
408.68	5.56
408.887	5.49
409.093	5.38
409.299	5.16
409.505	4.98
409.712	5.09
409.918	5.05
410.124	5.31
410.33	5.36
410.537	5.41
410.743	5.45
410.949	5.52
411.155	5.56
411.361	5.54
411.567	5.57
411.773	5.71
411.98	5.72
412.186	5.72
412.392	5.62
412.598	5.69
412.804	5.66
413.01	5.65
413.216	5.68
413.422	5.71
413.628	5.59
413.834	5.49
414.04	5.48
414.246	5.42
414.452	5.48
414.658	5.52
414.864	5.27
415.07	5.32
415.275	5.41
415.481	5.37
415.687	5.32
415.893	5.44
416.099	5.49
416.305	5.4
416.511	5.5
416.716	5.28
416.922	5.35
417.128	5.51
417.334	5.56
417.539	5.61
417.745	5.58
417.951	5.63
418.157	5.56
418.362	5.61
418.568	5.61
418.774	5.54
418.979	5.6
419.185	5.54
419.391	5.52
419.596	5.41
419.802	5.31
420.008	5.25
420.213	4.6
420.419	4.61
420.624	4.55
420.83	4.54
421.035	4.57
421.241	4.61
421.446	4.64
421.652	4.66
421.857	4.67
422.063	4.72
422.268	4.71
422.474	5.32
422.679	5.41
422.885	5.39
423.09	5.44
423.295	5.46
423.501	5.41
423.706	5.36
423.911	5.34
424.117	5.35
424.322	5.41
424.527	5.49
424.733	5.54
424.938	5.49
425.143	5.52
425.349	5.51
425.554	5.53
425.759	5.59
425.964	5.57
426.169	5.65
426.375	5.61
426.58	5.5
426.785	5.44
426.99	5.41
427.195	5.43
427.4	5.4
427.605	5.38
427.811	5.39
428.016	5.45
428.221	5.55
428.426	5.47
428.631	5.66
428.836	5.68
429.041	5.74
429.246	5.73
429.451	5.76
429.656	5.88
429.861	5.98
430.066	5.91
430.271	5.86
430.476	5.88
430.681	5.86
430.886	5.8
431.09	5.7
431.295	5.58
431.5	5.52
431.705	5.43
431.91	5.33
432.115	5.3
432.32	5.31
432.524	5.31
432.729	5.18
432.934	5.14
433.139	5.09
433.343	5.22
433.548	5.29
433.753	5.32
433.958	5.36
434.162	5.47
434.367	5.44
434.572	5.49
434.776	5.51
434.981	5.67
435.186	5.72
435.39	5.71
435.595	5.64
435.799	5.5
436.004	5.48
436.209	5.5
436.413	5.43
436.618	5.43
436.822	5.41
437.027	5.34
437.231	5.29
437.436	5.36
437.64	5.45
437.845	5.56
438.049	5.69
438.253	5.7
438.458	5.72
438.662	5.72
438.867	5.69
439.071	5.7
439.275	5.79
439.48	5.69
439.684	5.64
439.888	5.59
440.093	5.55
440.297	5.56
440.501	5.52
440.706	5.51
440.91	5.57
441.114	5.58
441.318	5.59
441.523	5.55
441.727	5.64
441.931	5.6
442.135	5.66
442.339	5.65
442.543	5.59
442.748	5.56
442.952	5.53
443.156	5.39
443.36	5.36
443.564	5.37
443.768	5.38
443.972	5.37
444.176	5.39
444.38	5.33
444.584	5.3
444.788	5.23
444.992	5.34
445.196	5.32
445.4	5.33
445.604	5.42
445.808	5.38
446.012	5.33
446.216	5.29
446.42	5.25
446.624	5.25
446.828	5.26
447.032	5.28
447.235	5.27
447.439	5.33
447.643	5.39
447.847	5.34
448.051	5.29
448.254	5.27
448.458	5.25
448.662	5.29
448.866	5.34
449.069	5.36
449.273	5.46
449.477	5.38
449.681	5.31
449.884	5.23
450.088	5.22
450.292	5.38
450.495	5.45
450.699	5.49
450.902	5.52
451.106	5.49
451.31	5.49
451.513	5.54
451.717	5.58
451.92	5.61
452.124	5.68
452.327	5.65
452.531	5.57
452.734	5.5
452.938	5.57
453.141	5.53
453.345	5.53
453.548	5.55
453.752	5.42
453.955	5.31
454.158	5.29
454.362	5.24
454.565	5.26
454.769	5.23
454.972	5.39
455.175	5.4
455.379	5.39
455.582	5.42
455.785	5.34
455.988	5.41
456.192	5.51
456.395	5.55
456.598	5.51
456.801	5.45
457.005	5.41
457.208	5.31
457.411	5.16
457.614	5.25
457.817	5.27
458.021	5.31
458.224	5.28
458.427	5.29
458.63	5.2
458.833	5.23
459.036	5.28
459.239	5.31
459.442	5.31
459.645	5.28
459.848	5.29
460.051	5.24
460.254	5.22
460.457	5.17
460.66	5.19
460.863	5.22
461.066	5.23
461.269	5.22
461.472	5.24
461.675	5.23
461.878	5.19
462.081	5.11
462.284	5.17
462.486	5.21
462.689	5.4
462.892	5.35
463.095	5.36
463.298	5.42
463.5	5.46
463.703	5.42
463.906	5.34
464.109	5.5
464.311	5.5
464.514	5.41
464.717	5.38
464.92	5.19
465.122	5.19
465.325	5.2
465.528	5.06
465.73	5.07
465.933	5.05
466.135	5.14
466.338	5.11
466.541	5.07
466.743	5.14
466.946	5.09
467.148	5.19
467.351	5.28
467.553	5.34
467.756	5.43
467.958	5.42
468.161	5.38
468.363	5.31
468.566	5.28
468.768	5.39
468.971	5.31
469.173	5.37
469.375	5.39
469.578	5.28
469.78	5.29
469.983	5.29
470.185	5.17
470.387	5.17
470.59	5.19
470.792	5.22
470.994	5.18
471.196	5.2
471.399	5.23
471.601	5.22
471.803	5.3
472.005	5.28
472.208	5.34
472.41	5.42
472.612	5.43
472.814	5.48
473.016	5.51
473.218	5.41
473.421	5.49
473.623	5.4
473.825	5.45
474.027	5.39
474.229	5.3
474.431	5.24
474.633	5.25
474.835	5.37
475.037	5.39
475.239	5.43
475.441	5.51
475.643	5.51
475.845	5.6
476.047	5.49
476.249	5.5
476.451	5.56
476.653	5.56
476.855	5.51
477.057	5.39
477.258	5.25
477.46	5.22
477.662	5.25
477.864	5.21
478.066	5.19
478.268	5.29
478.469	5.26
478.671	5.26
478.873	5.24
479.075	5.28
479.276	5.33
479.478	5.36
479.68	5.29
479.882	5.29
480.083	5.24
480.285	5.22
480.487	5.12
480.688	5.15
480.89	5.15
481.091	5.11
481.293	5.09
481.495	5.07
481.696	5.13
481.898	5.15
482.099	5.12
482.301	5.14
482.502	5.14
482.704	5.18
482.905	5.16
483.107	5.15
483.308	5.19
483.51	5.18
483.711	5.16
483.913	5.2
484.114	5.22
484.315	5.2
484.517	5.23
484.718	5.24
484.92	5.22
485.121	5.24
485.322	5.23
485.524	5.21
485.725	5.22
485.926	5.25
486.127	5.19
486.329	5.16
486.53	5.17
486.731	5.14
486.932	5.13
487.134	5.09
487.335	5.11
487.536	5.12
487.737	5.09
487.938	5.11
488.139	5.11
488.341	5.12
488.542	5.19
488.743	5.22
488.944	5.24
489.145	5.27
489.346	5.31
489.547	5.32
489.748	5.37
489.949	5.4
490.15	5.44
490.351	5.4
490.552	5.42
490.753	5.39
490.954	5.4
491.155	5.37
491.356	5.38
491.557	5.37
491.758	5.39
491.959	5.35
492.159	5.37
492.36	5.36
492.561	5.38
492.762	5.36
492.963	5.35
493.164	5.36
493.364	5.42
493.565	5.44
493.766	5.47
493.967	5.42
494.167	5.43
494.368	5.4
494.569	5.43
494.769	5.49
494.97	5.54
495.171	5.55
495.371	5.55
495.572	5.51
495.773	5.51
495.973	5.5
496.174	5.53
496.375	5.58
496.575	5.6
496.776	5.53
496.976	5.56
497.177	5.55
497.377	5.51
497.578	5.47
497.778	5.45
497.979	5.42
498.179	5.42
498.38	5.42
498.58	5.43
498.78	5.39
498.981	5.42
499.181	5.32
499.382	5.38
499.582	5.4
499.782	5.46
499.983	5.49
500.183	5.5
500.383	5.47
500.584	5.49
500.784	5.47
500.984	5.57
501.184	5.6
501.385	5.66
501.585	5.6
501.785	5.72
501.985	5.67
502.185	5.64
502.386	5.67
502.586	5.81
502.786	5.83
502.986	5.84
503.186	5.83
503.386	5.92
503.586	6.04
503.786	6.11
503.987	6.01
504.187	6.07
504.387	6.13
504.587	6.09
504.787	6.09
504.987	6.15
505.187	6.15
505.387	6.23
505.587	6.21
505.786	6.13
505.986	6.15
506.186	6.22
506.386	6.24
506.586	6.33
506.786	6.37
506.986	6.28
507.186	6.3
507.386	6.4
507.585	6.4
507.785	6.41
507.985	6.53
508.185	6.48
508.384	6.53
508.584	6.52
508.784	6.43
508.984	6.55
509.183	6.71
509.383	6.66
509.583	6.64
509.782	6.66
509.982	6.68
510.182	6.64
510.381	6.74
510.581	6.76
510.781	6.75
510.98	6.83
511.18	6.81
511.379	6.77
511.579	6.79
511.778	6.89
511.978	6.92
512.177	6.93
512.377	7.03
512.576	7
512.776	7.02
512.975	7.13
513.175	7.2
513.374	7.18
513.573	7.2
513.773	7.23
513.972	7.21
514.172	7.19
514.371	7.21
514.57	7.1
514.77	7.17
514.969	7.17
515.168	7.15
515.367	7.12
515.567	7.22
515.766	7.22
515.965	7.27
516.164	7.26
516.364	7.35
516.563	7.45
516.762	7.59
516.961	7.7
517.16	7.75
517.359	7.76
517.559	7.81
517.758	7.8
517.957	7.85
518.156	7.9
518.355	7.9
518.554	7.92
518.753	7.98
518.952	7.92
519.151	7.87
519.35	7.86
519.549	7.91
519.748	7.93
519.947	8.01
520.146	8.07
520.345	8.12
520.544	8.18
520.743	8.2
520.942	8.24
521.141	8.31
521.339	8.42
521.538	8.52
521.737	8.57
521.936	8.6
522.135	8.62
522.333	8.61
522.532	8.64
522.731	8.71
522.93	8.8
523.129	8.77
523.327	8.83
523.526	8.83
523.725	8.75
523.923	8.78
524.122	8.85
524.321	8.93
524.519	8.94
524.718	9.02
524.917	9
525.115	9
525.314	8.99
525.512	9.04
525.711	9
525.909	9.08
526.108	9.14
526.306	9.11
526.505	9.14
526.703	9.21
526.902	9.23
527.1	9.28
527.299	9.32
527.497	9.4
527.696	9.39
527.894	9.43
528.092	9.48
528.291	9.51
528.489	9.56
528.688	9.59
528.886	9.63
529.084	9.69
529.283	9.73
529.481	9.8
529.679	9.85
529.877	9.93
530.076	10.03
530.274	10.1
530.472	10.15
530.67	10.26
530.869	10.26
531.067	10.31
531.265	10.3
531.463	10.35
531.661	10.39
531.859	10.42
532.057	10.47
532.255	10.51
532.454	10.53
532.652	10.5
532.85	10.53
533.048	10.59
533.246	10.62
533.444	10.66
533.642	10.73
533.84	10.73
534.038	10.77
534.236	10.75
534.434	10.75
534.632	10.79
534.83	10.93
535.027	10.94
535.225	11.02
535.423	11.05
535.621	11.13
535.819	11.15
536.017	11.23
536.215	11.22
536.412	11.33
536.61	11.34
536.808	11.4
537.006	11.35
537.203	11.43
537.401	11.39
537.599	11.42
537.797	11.45
537.994	11.54
538.192	11.54
538.39	11.6
538.587	11.62
538.785	11.73
538.983	11.72
539.18	11.81
539.378	11.85
539.575	11.94
539.773	12.02
539.97	12.02
540.168	11.99
540.366	12.02
540.563	12.01
540.761	12.09
540.958	12.14
541.155	12.2
541.353	12.23
541.55	12.25
541.748	12.3
541.945	12.37
542.143	12.43
542.34	12.51
542.537	12.58
542.735	12.73
542.932	12.77
543.129	12.82
543.327	12.84
543.524	12.94
543.721	12.98
543.919	13.04
544.116	13.1
544.313	13.14
544.51	13.18
544.708	13.24
544.905	13.25
545.102	13.27
545.299	13.27
545.496	13.37
545.693	13.37
545.891	13.34
546.088	13.39
546.285	13.31
546.482	13.4
546.679	13.43
546.876	13.53
547.073	13.56
547.27	13.58
547.467	13.62
547.664	13.7
547.861	13.79
548.058	13.99
548.255	14.04
548.452	14.21
548.649	14.3
548.846	14.43
549.043	14.37
549.24	14.32
549.437	14.44
549.633	14.65
549.83	14.54
550.027	14.6
550.224	14.66
550.421	14.69
550.618	14.67
550.814	14.67
551.011	14.66
551.208	14.78
551.405	14.88
551.601	14.95
551.798	14.93
551.995	15.05
552.191	15.12
552.388	15.09
552.585	15.08
552.781	15.21
552.978	15.28
553.175	15.38
553.371	15.44
553.568	15.58
553.764	15.63
553.961	15.66
554.157	15.73
554.354	15.8
554.55	15.8
554.747	15.91
554.943	16.04
555.14	16.07
555.336	16.1
555.533	16.11
555.729	16.15
555.926	16.13
556.122	16.06
556.318	16.01
556.515	16.01
556.711	16.19
556.907	16.19
557.104	16.11
557.3	16.1
557.496	16.03
557.693	16.1
557.889	16.25
558.085	16.41
558.281	16.58
558.478	16.66
558.674	16.72
558.87	16.73
559.066	16.81
559.262	16.85
559.459	17
559.655	17.13
559.851	17.23
560.047	17.08
560.243	17.12
560.439	17.14
560.635	17.16
560.831	17.18
561.027	17.27
561.223	17.36
561.419	17.38
561.615	17.35
561.811	17.41
562.007	17.38
562.203	17.53
562.399	17.49
562.595	17.53
562.791	17.7
562.987	17.8
563.183	17.73
563.379	17.86
563.575	17.86
563.771	17.85
563.966	17.93
564.162	17.97
564.358	18.03
564.554	18.09
564.75	18.15
564.945	18.16
565.141	18.22
565.337	18.27
565.533	18.25
565.728	18.36
565.924	18.44
566.12	18.5
566.315	18.52
566.511	18.62
566.707	18.72
566.902	18.81
567.098	18.86
567.293	18.79
567.489	18.86
567.684	18.83
567.88	18.87
568.076	18.97
568.271	19.07
568.467	19.14
568.662	19.03
568.858	19.01
569.053	19.05
569.248	19.07
569.444	19.18
569.639	19.29
569.835	19.4
570.03	19.48
570.225	19.48
570.421	19.48
570.616	19.56
570.812	19.59
571.007	19.59
571.202	19.54
571.397	19.61
571.593	19.67
571.788	19.69
571.983	19.72
572.178	19.79
572.374	19.85
572.569	19.9
572.764	19.91
572.959	19.96
573.154	20.09
573.35	20.21
573.545	20.23
573.74	20.25
573.935	20.3
574.13	20.38
574.325	20.33
574.52	20.35
574.715	20.28
574.91	20.31
575.105	20.45
575.3	20.49
575.495	20.44
575.69	20.5
575.885	20.47
576.08	20.42
576.275	20.35
576.47	20.34
576.665	20.33
576.86	20.3
577.055	20.25
577.25	20.19
577.444	20.18
577.639	20.23
577.834	20.24
578.029	20.22
578.224	20.25
578.418	20.35
578.613	20.58
578.808	20.69
579.003	20.89
579.197	21.02
579.392	21.08
579.587	21.05
579.781	21.1
579.976	21.03
580.171	21.21
580.365	21.2
580.56	21.16
580.755	21.04
580.949	20.96
581.144	20.9
581.338	20.84
581.533	20.82
581.727	20.87
581.922	20.86
582.116	20.91
582.311	20.92
582.505	20.92
582.7	20.87
582.894	20.84
583.089	20.95
583.283	20.87
583.478	20.89
583.672	20.85
583.866	20.87
584.061	20.94
584.255	20.91
584.449	20.81
584.644	20.98
584.838	21.06
585.032	21.1
585.226	21.02
585.421	21.16
585.615	21.19
585.809	21.32
586.003	21.33
586.198	21.32
586.392	21.36
586.586	21.51
586.78	21.4
586.974	21.46
587.168	21.42
587.363	21.31
587.557	21.36
587.751	21.41
587.945	21.41
588.139	21.4
588.333	21.42
588.527	21.47
588.721	21.46
588.915	21.57
589.109	21.62
589.303	21.84
589.497	22.04
589.691	21.88
589.885	21.86
590.079	21.83
590.273	21.81
590.466	21.88
590.66	21.95
590.854	21.93
591.048	21.91
591.242	21.85
591.436	21.66
591.629	21.65
591.823	21.78
592.017	21.83
592.211	21.97
592.404	21.9
592.598	21.87
592.792	21.82
592.986	21.79
593.179	21.82
593.373	21.83
593.567	21.92
593.76	21.9
593.954	21.94
594.147	21.89
594.341	21.94
594.535	22.07
594.728	22.12
594.922	22.15
595.115	22.18
595.309	22.14
595.502	22.19
595.696	22.19
595.889	22.15
596.083	22.05
596.276	22.04
596.47	22.04
596.663	22.03
596.856	22.01
597.05	22
597.243	22.09
597.437	22.17
597.63	22.18
597.823	22.17
598.017	22.19
598.21	22.27
598.403	22.3
598.596	22.17
598.79	22.24
598.983	22.27
599.176	22.33
599.369	22.31
599.563	22.21
599.756	22.16
599.949	22.38
600.142	22.41
600.335	22.52
600.528	22.59
600.722	22.64
600.915	22.58
601.108	22.45
601.301	22.42
601.494	22.43
601.687	22.4
601.88	22.52
602.073	22.29
602.266	22.28
602.459	22.2
602.652	22.16
602.845	22.22
603.038	22.19
603.231	22.25
603.424	22.24
603.617	22.27
603.809	22.36
604.002	22.28
604.195	22.32
604.388	22.43
604.581	22.51
604.774	22.59
604.966	22.55
605.159	22.64
605.352	22.65
605.545	22.86
605.737	22.77
605.93	22.72
606.123	22.85
606.316	22.93
606.508	22.76
606.701	22.67
606.894	22.78
607.086	22.82
607.279	22.84
607.471	22.89
607.664	22.72
607.857	22.84
608.049	23.05
608.242	23.02
608.434	22.97
608.627	23.27
608.819	23.23
609.012	23.08
609.204	23.11
609.397	23.16
609.589	23.15
609.782	23.2
609.974	23.13
610.166	22.96
610.359	22.86
610.551	22.9
610.743	22.78
610.936	22.76
611.128	22.81
611.32	22.67
611.513	22.62
611.705	22.66
611.897	22.54
612.09	22.67
612.282	22.66
612.474	22.62
612.666	22.62
612.858	22.62
613.051	22.56
613.243	22.59
613.435	22.82
613.627	22.79
613.819	22.91
614.011	22.98
614.203	22.87
614.395	22.9
614.588	23
614.78	23.02
614.972	22.98
615.164	23.2
615.356	23.13
615.548	23.15
615.74	23.36
615.932	23.11
616.124	23.27
616.315	23.37
616.507	23.59
616.699	23.69
616.891	23.75
617.083	23.7
617.275	23.64
617.467	23.68
617.659	23.74
617.85	23.58
618.042	23.69
618.234	23.38
618.426	23.35
618.618	23.19
618.809	23.17
619.001	23.16
619.193	23.28
619.384	23.31
619.576	23.33
619.768	23.24
619.959	23.25
620.151	23.31
620.343	23.66
620.534	23.78
620.726	23.84
620.917	23.89
621.109	23.91
621.301	24.04
621.492	23.96
621.684	24
621.875	23.79
622.067	23.68
622.258	23.6
622.45	23.48
622.641	23.32
622.832	23.17
623.024	23.13
623.215	23.03
623.407	22.94
623.598	23.01
623.789	22.84
623.981	23.04
624.172	23.11
624.363	23.11
624.555	22.95
624.746	22.88
624.937	22.96
625.129	23.01
625.32	23.11
625.511	23.01
625.702	23.09
625.893	23.18
626.085	23.15
626.276	23.25
626.467	23.43
626.658	23.51
626.849	23.64
627.04	23.61
627.231	23.48
627.422	23.54
627.614	23.58
627.805	23.64
627.996	23.66
628.187	23.79
628.378	23.7
628.569	23.54
628.76	23.65
628.951	23.68
629.142	23.86
629.332	23.81
629.523	23.77
629.714	23.75
629.905	23.66
630.096	23.73
630.287	23.66
630.478	23.7
630.669	23.73
630.859	23.72
631.05	23.64
631.241	23.84
631.432	23.9
631.623	23.76
631.813	23.86
632.004	23.88
632.195	23.81
632.385	23.79
632.576	23.92
632.767	24
632.957	23.96
633.148	24.03
633.339	23.7
633.529	23.83
633.72	23.96
633.91	23.88
634.101	23.94
634.292	24.13
634.482	24.12
634.673	24.14
634.863	24.03
635.054	24.03
635.244	24.04
635.435	24.13
635.625	24.16
635.815	24.06
636.006	24.04
636.196	23.89
636.387	23.75
636.577	23.83
636.767	23.62
636.958	23.69
637.148	23.72
637.338	23.83
637.529	23.81
637.719	23.95
637.909	24.16
638.099	24.31
638.29	24.36
638.48	24.4
638.67	24.36
638.86	24.6
639.05	24.77
639.241	24.62
639.431	24.58
639.621	24.6
639.811	24.57
640.001	24.54
640.191	24.44
640.381	24.57
640.571	24.39
640.761	24.44
640.951	24.36
641.141	24.18
641.331	24.15
641.521	24.1
641.711	24.07
641.901	24.01
642.091	24.01
642.281	24.17
642.471	24.22
642.661	24.33
642.851	24.49
643.041	24.49
643.231	24.61
643.42	24.93
643.61	25.23
643.8	25.23
643.99	25.19
644.18	25.06
644.369	25.17
644.559	25.31
644.749	25.49
644.939	25.4
645.128	25.3
645.318	25.28
645.508	25.11
645.697	24.87
645.887	24.84
646.076	24.88
646.266	24.79
646.456	24.63
646.645	24.46
646.835	24.21
647.024	24
647.214	24.19
647.403	24.17
647.593	24.37
647.782	24.15
647.972	24.33
648.161	24.12
648.351	24.39
648.54	24.34
648.73	24.44
648.919	24.69
649.108	25.11
649.298	25.04
649.487	25.15
649.677	25.06
649.866	25.24
650.055	25.28
650.244	25.4
650.434	25.27
650.623	25.36
650.812	25.38
651.002	25.24
651.191	25.07
651.38	24.91
651.569	24.85
651.758	24.95
651.947	24.98
652.137	24.9
652.326	25
652.515	25.01
652.704	24.96
652.893	24.84
653.082	24.92
653.271	24.83
653.46	25.1
653.649	25.18
653.838	25.2
654.027	25.16
654.216	25.1
654.405	24.96
654.594	25.1
654.783	25.18
654.972	25.4
655.161	25.47
655.35	25.51
655.539	25.45
655.728	25.49
655.916	25.46
656.105	25.44
656.294	25.67
656.483	25.71
656.672	25.49
656.86	25.57
657.049	25.42
657.238	25.21
657.427	25.23
657.615	25.07
657.804	24.87
657.993	24.88
658.181	24.95
658.37	24.89
658.559	25.11
658.747	25.21
658.936	25.03
659.125	25.03
659.313	25.19
659.502	25.25
659.69	25.44
659.879	25.57
660.067	25.6
660.256	25.68
660.444	25.45
660.633	25.3
660.821	25.41
661.01	25.66
661.198	25.69
661.387	25.82
661.575	25.92
661.763	25.92
661.952	26
662.14	25.94
662.328	26.01
662.517	26.49
662.705	26.46
662.893	26.55
663.082	26.47
663.27	26.64
663.458	26.6
663.646	26.63
663.834	26.49
664.023	26.38
664.211	26.36
664.399	26.37
664.587	26.01
664.775	26.27
664.963	25.92
665.152	25.76
665.34	25.73
665.528	25.65
665.716	25.55
665.904	25.72
666.092	25.73
666.28	25.9
666.468	25.81
666.656	26.15
666.844	26.05
667.032	26.25
667.22	26.51
667.408	26.39
667.596	26.6
667.784	26.52
667.971	26.64
668.159	26.53
668.347	26.31
668.535	26.17
668.723	26.02
668.911	26.12
669.098	25.91
669.286	25.73
669.474	25.8
669.662	25.74
669.849	25.85
670.037	25.64
670.225	25.7
670.413	25.8
670.6	26.04
670.788	25.84
670.976	25.71
671.163	25.88
671.351	25.87
671.538	25.97
671.726	25.83
671.913	25.62
672.101	25.56
672.289	25.78
672.476	25.83
672.664	25.75
672.851	26.03
673.039	26
673.226	26.01
673.413	26.2
673.601	25.73
673.788	25.62
673.976	25.71
674.163	25.99
674.35	26.04
674.538	25.94
674.725	25.97
674.912	25.72
675.1	25.69
675.287	25.53
675.474	25.36
675.662	25.8
675.849	25.95
676.036	26.1
676.223	25.75
676.411	25.87
676.598	25.79
676.785	25.66
676.972	25.72
677.159	25.7
677.346	26.01
677.533	26.17
677.721	26.25
677.908	26.4
678.095	26.42
678.282	26.72
678.469	26.68
678.656	27
678.843	26.95
679.03	26.96
679.217	26.98
679.404	26.88
679.591	26.92
679.778	26.98
679.964	26.82
680.151	26.84
680.338	26.84
680.525	26.56
680.712	26.24
680.899	26.25
681.086	26.4
681.272	26.69
681.459	26.72
681.646	26.71
681.833	26.62
682.02	26.73
682.206	26.59
682.393	26.41
682.58	26.47
682.766	26.68
682.953	26.87
683.14	26.78
683.326	26.57
683.513	26.87
683.7	26.76
683.886	26.75
684.073	26.72
684.259	26.89
684.446	27.09
684.632	27.27
684.819	27.47
685.005	27.32
685.192	27.38
685.378	27.46
685.565	27.4
685.751	27.46
685.938	27.28
686.124	27.13
686.31	26.98
686.497	27.04
686.683	26.97
686.87	26.77
687.056	27.05
687.242	27.16
687.429	26.95
687.615	26.95
687.801	27
687.987	26.93
688.174	27.06
688.36	27.44
688.546	27.38
688.732	27.49
688.918	27.53
689.105	27.39
689.291	27.36
689.477	27.69
689.663	27.45
689.849	27.56
690.035	27.83
690.221	27.78
690.407	27.56
690.593	27.6
690.779	27.57
690.965	27.61
691.151	27.66
691.337	27.79
691.523	27.67
691.709	27.85
691.895	27.74
692.081	27.84
692.267	28.07
692.453	28.09
692.639	28.14
692.825	27.81
693.011	27.75
693.196	27.56
693.382	27.39
693.568	27.55
693.754	27.48
693.94	27.47
694.125	27.4
694.311	27.48
694.497	27.54
694.682	27.44
694.868	27.68
695.054	27.93
695.239	28.17
695.425	28.11
695.611	27.89
695.796	28.1
695.982	28.18
696.168	28
696.353	27.83
696.539	27.7
696.724	27.87
696.91	27.99
697.095	27.86
697.281	27.96
697.466	28.02
697.652	28.1
697.837	28.1
698.023	27.89
698.208	28.01
698.393	28.15
698.579	28.27
698.764	28.39
698.949	28.51
699.135	28.62
699.32	28.68
699.505	28.84
699.691	28.94
699.876	28.75
700.061	29.01
700.246	29.2
700.432	29.02
700.617	29.14
700.802	28.98
700.987	28.95
701.172	28.93
701.358	28.9
701.543	28.88
701.728	29.05
701.913	29.73
702.098	29.64
702.283	29.84
702.468	30.13
702.653	29.81
702.838	29.96
703.023	29.68
703.208	29.89
703.393	29.8
703.578	29.73
703.763	29.74
703.948	29.37
704.133	29.94
704.318	30
704.503	30.16
704.688	30.64
704.873	30.77
705.057	31.15
705.242	31.09
705.427	31.23
705.612	31.61
705.797	31.31
705.981	31.26
706.166	31
706.351	30.67
706.536	30.46
706.72	30.42
706.905	30.23
707.09	29.99
707.274	30.05
707.459	29.89
707.644	29.58
707.828	29.94
708.013	30.25
708.197	30.13
708.382	30.08
708.567	30
708.751	30.06
708.936	29.82
709.12	30.18
709.305	29.93
709.489	30.12
709.673	30.3
709.858	30.08
710.042	29.71
710.227	30.01
710.411	30.22
710.596	30.5
710.78	30.4
710.964	30.7
711.149	30.66
711.333	30.57
711.517	30.74
711.702	30.58
711.886	30.62
712.07	30.58
712.254	30.37
712.438	30.3
712.623	30.19
712.807	30.12
712.991	29.71
713.175	29.6
713.359	29.95
713.544	29.81
713.728	29.72
713.912	29.49
714.096	29.87
714.28	30.11
714.464	29.81
714.648	30.01
714.832	29.81
715.016	30.28
715.2	30.3
715.384	29.83
715.568	29.87
715.752	29.69
715.936	29.66
716.12	29.37
716.304	28.9
716.488	29.09
716.671	28.61
716.855	28.79
717.039	28.63
717.223	28.44
717.407	28.64
717.59	28.74
717.774	28.66
717.958	28.59
718.142	28.57
718.325	28.87
718.509	29.02
718.693	29.06
718.877	28.81
719.06	28.69
719.244	28.77
719.428	28.95
719.611	28.46
719.795	28.66
719.978	29.03
720.162	28.69
720.345	28.58
720.529	28.64
720.713	28.57
720.896	28.97
721.08	29.03
721.263	29.29
721.446	29.51
721.63	29.82
721.813	30.03
721.997	30.07
722.18	30.35
722.364	30.39
722.547	30.11
722.73	30.04
722.914	29.64
723.097	30
723.28	30.01
723.464	29.61
723.647	29.68
723.83	29.65
724.013	29.94
724.197	30.08
724.38	30.06
724.563	30.37
724.746	31.02
724.929	31.44
725.112	31.25
725.296	31.48
725.479	31.54
725.662	31.47
725.845	31.39
726.028	31.05
726.211	30.98
726.394	31.31
726.577	31.53
726.76	31.62
726.943	31.39
727.126	31.54
727.309	30.73
727.492	31.07
727.675	30.86
727.858	30.82
728.041	30.86
728.224	30.73
728.407	30.5
728.589	30.07
728.772	29.71
728.955	29.73
729.138	29.28
729.321	29.7
729.503	29.51
729.686	29.77
729.869	29.58
730.052	29.65
730.234	29.94
730.417	29.65
730.6	29.74
730.782	29.97
730.965	29.97
731.148	30.24
731.33	30.43
731.513	30.41
731.695	30.34
731.878	30.8
732.061	30.98
732.243	30.98
732.426	31.06
732.608	31.12
732.791	30.93
732.973	31.25
733.156	31.2
733.338	31.12
733.52	31.19
733.703	31.08
733.885	31.13
734.068	31.12
734.25	31.09
734.432	31.22
734.615	31.42
734.797	31.16
734.979	31.14
735.162	31.13
735.344	31.03
735.526	31.03
735.708	30.95
735.891	30.77
736.073	30.89
736.255	30.77
736.437	31.12
736.619	30.99
736.802	31.47
736.984	30.88
737.166	30.99
737.348	31.39
737.53	31.81
737.712	31.62
737.894	31.69
738.076	31.06
738.258	31.49
738.44	31.18
738.622	30.86
738.804	31.01
738.986	31.21
739.168	31.41
739.35	30.99
739.532	30.49
739.714	31.01
739.896	31.16
740.078	31.45
740.259	31.24
740.441	31.02
740.623	31.45
740.805	31.62
740.987	31.62
741.168	31.54
741.35	31.64
741.532	31.67
741.714	31.72
741.895	31.66
742.077	31.87
742.259	31.41
742.44	31.8
742.622	31.06
742.804	30.69
742.985	30.78
743.167	30.35
743.348	30.54
743.53	30.59
743.711	30.48
743.893	30.32
744.075	30.55
744.256	31.08
744.438	31.27
744.619	31.73
744.8	31.81
744.982	32.1
745.163	32.4
745.345	32.21
745.526	33.06
745.707	33.79
745.889	33.99
746.07	33.77
746.252	33.97
746.433	33.94
746.614	34.29
746.795	34.72
746.977	34.83
747.158	35.16
747.339	35.75
747.52	35.29
747.702	34.71
747.883	34.62
748.064	34.81
748.245	34.6
748.426	34.85
748.607	34.64
748.788	34.27
748.97	34.29
749.151	33.92
749.332	33.07
749.513	32.55
749.694	33.08
749.875	33.04
750.056	32.96
750.237	33.2
750.418	33.07
750.599	32.16
750.78	32.26
750.96	31.44
751.141	31.83
751.322	32.41
751.503	32.76
751.684	32.17
751.865	32.56
752.046	32.24
752.226	32.13
752.407	31.84
752.588	32.87
752.769	32.56
752.949	32.95
753.13	32.28
753.311	32.75
753.492	32.64
753.672	32.7
753.853	32.52
754.034	32.89
754.214	32.98
754.395	32.82
754.575	33.17
754.756	33.17
754.937	33.46
755.117	34.24
755.298	32.97
755.478	33.07
755.659	32.96
755.839	32.95
756.02	32.59
756.2	32.22
756.381	32.87
756.561	32.78
756.741	33.13
756.922	32.74
757.102	32.98
757.283	33.59
757.463	33.54
757.643	33.63
757.823	33.96
758.004	33.39
758.184	32.98
758.364	32.52
758.545	31.9
758.725	31.47
758.905	31.14
759.085	30.54
759.265	30.51
759.446	30.71
759.626	29.98
759.806	29.3
759.986	29.62
760.166	30.18
760.346	29.64
760.526	29.7
760.706	29.73
760.886	30.25
761.066	30.01
761.246	29.67
761.426	29.48
761.606	29.96
761.786	30.06
761.966	30.15
762.146	29.98
762.326	29.92
762.506	29.78
762.686	29.47
762.866	29.28
763.046	29.42
763.225	29.32
763.405	29.17
763.585	28.75
763.765	28.78
763.945	29.18
764.124	29.14
764.304	29.74
764.484	30.12
764.664	30.45
764.843	30.72
765.023	30.63
765.203	31.16
765.382	31.63
765.562	31.99
765.741	32.25
765.921	32.13
766.101	32.21
766.28	32.25
766.46	32.83
766.639	32.77
766.819	33.02
766.998	33.49
767.178	33.69
767.357	34.03
767.537	34.76
767.716	34.85
767.896	34.55
768.075	35.2
768.254	35.44
768.434	34.73
768.613	35.09
768.792	35.19
768.972	35.62
769.151	35.9
769.33	35.26
769.51	34.65
769.689	34.63
769.868	35.12
770.047	35.12
770.226	34.42
770.406	34.87
770.585	34.19
770.764	33.94
770.943	33.03
771.122	32.19
771.301	32.39
771.48	32.79
771.66	33.11
771.839	32.82
772.018	32.6
772.197	33.39
772.376	32.91
772.555	33.53
772.734	33.89
772.913	34.23
773.092	34.82
773.271	35.34
773.449	35.05
773.628	34.81
773.807	35.19
773.986	35.62
774.165	35.81
774.344	36.09
774.523	36.21
774.701	35.43
774.88	35.55
775.059	34.65
775.238	33.53
775.417	33.85
775.595	33.93
775.774	34.13
775.953	33.24
776.131	33.07
776.31	32.94
776.489	32.69
776.667	33.09
776.846	33.34
777.025	34.48
777.203	35.03
777.382	34.93
777.56	34.88
777.739	34.41
777.917	34.92
778.096	35.58
778.274	35.27
778.453	36.04
778.631	36.61
778.81	36.82
778.988	36.18
779.166	36.79
779.345	37.37
779.523	37.89
779.702	38.16
779.88	37.77
780.058	36.71
780.237	36.49
780.415	36.83
780.593	36
780.771	35.3
780.95	35.41
781.128	34.95
781.306	34.98
781.484	34.8
781.662	34.5
781.841	35.32
782.019	34.51
782.197	35.29
782.375	34.67
782.553	34.65
782.731	34.98
782.909	35.31
783.087	35.01
783.265	34.84
783.443	35.41
783.621	35.48
783.799	34.84
783.977	35.63
784.155	35.81
784.333	36.29
784.511	36.94
784.689	36.97
784.867	37.44
785.045	37.9
785.223	36.99
785.4	35.88
785.578	36.11
785.756	36.49
785.934	36.98
786.112	37.31
786.289	36.52
786.467	36.62
786.645	36.65
786.823	35.86
787	35.17
787.178	36.42
787.356	36.38
787.533	36.57
787.711	36
787.889	35.19
788.066	34.28
788.244	34.59
788.421	34.67
788.599	35.53
788.776	35.84
788.954	36.3
789.131	35.65
789.309	35.28
789.486	34.69
789.664	35.73
789.841	35.81
790.019	35.91
790.196	35.12
790.373	35.31
790.551	34.09
790.728	33.95
790.906	33.75
791.083	34.22
791.26	34.07
791.437	34.11
791.615	33.86
791.792	34.64
791.969	34.72
792.146	34.98
792.324	33.11
792.501	33.42
792.678	33.56
792.855	33.75
793.032	33.14
793.209	33.86
793.387	34.37
793.564	32.62
793.741	32.6
793.918	32.35
794.095	33.18
794.272	35.4
794.449	35.6
794.626	35.39
794.803	35.47
794.98	35.66
795.157	35.29
795.334	35.39
795.511	35.54
795.688	35.72
795.864	35.21
796.041	35.29
796.218	34.51
796.395	34.7
796.572	34.45
796.749	34.04
796.925	33.75
797.102	35.37
797.279	35.07
797.456	36.18
797.632	36.11
797.809	36.28
797.986	36.15
798.162	35.97
798.339	36.01
798.516	36.73
798.692	36.49
798.869	37.26
799.046	35.66
799.222	34.93
799.399	34.5
799.575	33.77
799.752	34.82
799.928	34.43
800.105	35.27
800.281	34.19
800.458	33.39
800.634	33.93
800.811	34.04
800.987	34.54
801.163	34.83
801.34	34.64
801.516	34.64
801.692	33.91
801.869	33.3
802.045	33.1
802.221	34.27
802.398	34.69
802.574	34.47
802.75	35.15
802.926	34.83
803.103	34.48
803.279	34.34
803.455	33.83
803.631	34.87
803.807	36.58
803.983	36.65
804.16	37.61
804.336	37.88
804.512	37.86
804.688	36.07
804.864	37.2
805.04	37.74
805.216	37.5
805.392	38.27
805.568	36.64
805.744	34.47
805.92	34.46
806.096	31.73
806.272	30.45
806.448	30.53
806.623	30.54
806.799	30.14
806.975	30.43
807.151	31.74
807.327	32.56
807.503	32.56
807.678	33.92
807.854	33.3
808.03	33
808.206	33.8
808.381	33.7
808.557	33.98
808.733	33.04
808.908	34.35
809.084	33.87
809.26	33.81
809.435	36.13
809.611	35.03
809.787	35.35
809.962	36.71
810.138	37.82
810.313	39.24
810.489	40.14
810.664	40.33
810.84	39.12
811.015	39.47
811.191	39.71
811.366	37.94
811.542	38.56
811.717	37.8
811.892	38
812.068	36.51
812.243	34.92
812.419	35.06
812.594	35.89
812.769	36.56
812.944	35.85
813.12	34.2
813.295	34.22
813.47	33.54
813.645	34.26
813.821	34.13
813.996	34.79
814.171	35.48
814.346	34.9
814.521	33.53
814.697	31.78
814.872	31.82
815.047	32.74
815.222	32.62
815.397	32.59
815.572	31.79
815.747	30.4
815.922	29.89
816.097	30.27
816.272	29.61
816.447	29.75
816.622	31.51
816.797	30.89
816.972	29.46
817.147	29.49
817.322	30.91
817.496	30.27
817.671	30.45
817.846	29.44
818.021	29
818.196	28.69
818.371	28.9
818.545	28.1
818.72	29.55
818.895	30.84
819.069	30.13
819.244	29.61
819.419	30.74
819.594	31.23
819.768	32.4
819.943	32.74
820.117	32.14
820.292	32.03
820.467	31.4
820.641	30.67
820.816	29.85
820.99	29.89
821.165	29.68
821.339	29.38
821.514	29.43
821.688	28.74
821.863	28.19
822.037	28.25
822.212	27.97
822.386	27.97
822.56	28.08
822.735	28.22
822.909	28.25
823.084	28.31
823.258	28.19
823.432	28.06
823.606	28.52
823.781	28.83
823.955	29.25
824.129	29.81
824.303	29.92
824.478	30.06
824.652	30.02
824.826	30.11
825	30.37
825.174	30.64
825.348	30.83
825.523	30.3
825.697	30.23
825.871	29.56
826.045	29.04
826.219	29.03
826.393	28.98
826.567	29.38
826.741	29.56
826.915	29.31
827.089	29.38
827.263	29.19
827.437	29.51
827.611	29.62
827.784	29.76
827.958	30.1
828.132	30.14
828.306	29.87
828.48	30.11
828.654	29.89
828.827	29.86
829.001	29.78
829.175	30.07
829.349	30.06
829.522	30.49
829.696	30.49
829.87	30.42
830.044	30.67
830.217	31.43
830.391	30.93
830.565	30.93
830.738	31.2
830.912	32.22
831.085	32.02
831.259	32.35
831.432	31.97
831.606	32.22
831.779	31.72
831.953	32.01
832.126	32.96
832.3	32.64
832.473	33.97
832.647	33.73
832.82	33.2
832.994	33.4
833.167	33.35
833.34	32.66
833.514	33.41
833.687	33.27
833.86	33.23
834.034	32.24
834.207	32.41
834.38	31.96
834.553	31.55
834.727	31.53
834.9	31.34
835.073	30.49
835.246	30.9
835.419	30.02
835.593	29.65
835.766	29.13
835.939	29.25
836.112	29.19
836.285	28.16
836.458	29.28
836.631	28.77
836.804	28.29
836.977	30.08
837.15	30.05
837.323	30.86
837.496	31.88
837.669	31.35
837.842	30.32
838.015	30.59
838.188	31.13
838.361	30.67
838.533	31.52
838.706	34.21
838.879	32.49
839.052	33.79
839.225	32.87
839.398	33.89
839.57	35.66
839.743	37.42
839.916	35.55
840.088	37.11
840.261	36.04
840.434	37.33
840.607	36.15
840.779	36.4
840.952	34.5
841.124	36.34
841.297	35.22
841.47	36.23
841.642	35.72
841.815	36.92
841.987	35.45
842.16	34.97
842.332	34.13
842.505	34.04
842.677	34.18
842.85	34.45
843.022	32.81
843.194	32.77
843.367	31.2
843.539	30.75
843.712	32.23
843.884	32.79
844.056	33.8
844.229	32.16
844.401	33.26
844.573	36.9
844.745	40.34
844.918	40.21
845.09	40.21
845.262	41.34
845.434	41.85
845.606	38.72
845.779	41.76
845.951	43.21
846.123	41.96
846.295	38.22
846.467	37.34
846.639	34.94
846.811	34.42
846.983	36.31
847.155	36.58
847.327	35.89
847.499	36.55
847.671	32.32
847.843	32.48
848.015	32.98
848.187	34.14
848.359	35.18
848.531	36
848.703	35.31
848.875	29.02
849.047	29.1
849.218	30.15
849.39	29.84
849.562	29.18
849.734	33.88
849.905	36.5
850.077	36.41
850.249	36.55
850.421	36.14
850.592	37.55
850.764	41.9
850.936	42.23
851.107	41.43
851.279	44.73
851.451	49.61
851.622	44.63
851.794	43.46
851.965	44.3
852.137	41.16
852.308	39.29
852.48	37.63
852.651	38.03
852.823	32.75
852.994	35.05
853.166	38.22
853.337	35.85
853.509	36.03
853.68	40.46
853.851	38.12
854.023	38.34
854.194	40.23
854.365	39.59
854.537	42.48
854.708	45.32
854.879	43.89
855.05	38.88
855.222	36.78
855.393	36.76
855.564	32.53
855.735	33.53
855.906	33.75
856.078	33.73
856.249	31.53
856.42	30.88
856.591	31.69
856.762	30.31
856.933	28.34
857.104	32.47
857.275	32.26
857.446	33.33
857.617	33.92
857.788	32.82
857.959	32.64
858.13	38.52
858.301	36.15
858.472	36.27
858.643	35.9
858.814	38.81
858.985	35.87
859.155	36.81
859.326	33.72
859.497	37.81
859.668	38.77
859.839	36.83
860.009	34.25
860.18	35.54
860.351	31.33
860.522	33.5
860.692	30.8
860.863	31.93
861.034	29.56
861.204	29.97
861.375	27.5
861.546	25.01
861.716	28.87
861.887	28.74
862.057	29.71
862.228	31.23
862.398	30.59
862.569	32.87
862.739	30.49
862.91	31.75
863.08	30.29
863.251	27.27
863.421	27.85
863.592	22.89
863.762	22.97
863.932	21.87
864.103	22.78
864.273	21.68
864.443	19.84
864.614	19.97
864.784	15.63
864.954	18.13
865.125	21.63
865.295	24.1
865.465	22.71
865.635	24.07
865.805	21.41
865.976	24.69
866.146	26.27
866.316	28.94
866.486	29.25
866.656	33.11
866.826	36.04
866.996	35.66
867.166	35.91
867.336	36.67
867.506	35.05
867.676	38.12
867.846	36.43
868.016	35.65
868.186	31.51
868.356	31.5
868.526	33.07
868.696	30.76
868.866	30.86
869.036	26.01
869.206	28.17
869.376	30.14
869.545	30.4
869.715	27.8
869.885	27.24
870.055	34.58
870.224	31.14
870.394	26.98
870.564	31.16
870.734	31.29
870.903	39.58
871.073	39.29
871.243	33.28
871.412	28.08
871.582	29
871.751	28.32
871.921	21.29
872.091	25.98
872.26	25.32
872.43	24.82
872.599	22.79
872.769	21.08
872.938	20.64
873.108	25.08
873.277	24.7
873.446	26.06
873.616	25.65
873.785	30.39
873.955	29.81
874.124	32.96
874.293	29.64
874.463	30.58
874.632	26.8
874.801	31.1
874.971	27.83
875.14	31.8
875.309	32.81
875.478	32.58
875.647	31.61
875.817	36.1
875.986	39.09
876.155	41.48
876.324	41.64
876.493	42.63
876.662	39.24
876.831	42.33
877	41.23
877.17	42.27
877.339	45.19
877.508	45.51
877.677	40.63
877.846	36.39
878.015	34.67
878.184	35.63
878.352	36.36
878.521	33.74
878.69	34.07
878.859	31.9
879.028	26.88
879.197	28.5
879.366	26.07
879.534	25.49
879.703	27.02
879.872	28.51
880.041	28.42
880.21	29.55
880.378	29.88
880.547	28.26
880.716	30.32
880.884	31.29
881.053	30
881.222	30.2
881.39	29.29
881.559	28.78
881.727	28.63
881.896	28
882.065	27.19
882.233	27.01
882.402	27.15
882.57	26.65
882.739	25.99
882.907	25.6
883.076	25.04
883.244	25.77
883.412	25.5
883.581	25.4
883.749	26.23
883.918	26.71
884.086	26.44
884.254	26.81
884.423	26.19
884.591	26.57
884.759	26.8
884.927	27.65
885.096	27.15
885.264	27.14
885.432	27.66
885.6	26.5
885.769	26.3
885.937	27.58
886.105	28.11
886.273	30.78
886.441	31.53
886.609	32.88
886.777	32.12
886.945	32.4
887.113	35.53
887.281	32.38
887.449	34.23
887.617	35.19
887.785	35.36
887.953	35.07
888.121	29.51
888.289	26.86
888.457	27.36
888.625	30.22
888.793	31.88
888.961	27.95
889.129	32.57
889.296	32.96
889.464	31.49
889.632	30.84
889.8	29.51
889.967	38.37
890.135	45.1
