Data from 2938748__Reflection_06.txt Node
Date: Sun Mar 15 11:32:50 EDT 2015
User: robert
Spectrometer: USB4E03002
Autoset integration time: false
Trigger mode: 4
Integration Time (sec): 1.000000E-1
Scans to average: 10
Electric dark correction enabled: false
Nonlinearity correction enabled: false
Boxcar width: 5
Stray light correction enabled: false
XAxis mode: Wavelengths
Stop averaging: false
Number of Pixels in Spectrum: 3648
>>>>>Begin Spectral Data<<<<<
177.575	157.86
177.794	335.9
178.014	137.93
178.233	134.3
178.452	163.73
178.672	226.39
178.891	977.78
179.11	38.78
179.33	-63.53
179.549	31.89
179.768	36.76
179.987	48.08
180.207	83.16
180.426	46.43
180.645	3.76
180.864	50
181.084	75.4
181.303	-89.91
181.522	-1200
181.741	5825
181.96	506.52
182.179	-5855.56
182.398	271.43
182.618	175.62
182.837	175.42
183.056	269.23
183.275	292.41
183.494	112.77
183.713	176.53
183.932	141.78
184.151	125.71
184.37	46.69
184.589	26.92
184.808	-111.63
185.027	-325
185.246	-411.84
185.465	436.63
185.684	1123.81
185.903	-949.28
186.122	8266.67
186.341	-1858.82
186.56	-337.65
186.779	-1165.75
186.998	499.5
187.216	423.65
187.435	-873.42
187.654	-216.21
187.873	-162.28
188.092	-90.21
188.311	-59.67
188.53	-82.71
188.748	-110.64
188.967	-115.68
189.186	-39.64
189.405	-36.58
189.623	-155.2
189.842	-141.34
190.061	-2536.36
190.28	-122.12
190.498	-5557.14
190.717	-756
190.936	3285.71
191.154	295.02
191.373	310.78
191.592	348.75
191.81	-211.92
192.029	-118.08
192.248	1681.08
192.466	735.71
192.685	362.81
192.904	289.29
193.122	59.34
193.341	40.09
193.559	50
193.778	-74.44
193.996	92.5
194.215	133.09
194.433	164.93
194.652	-480.95
194.87	542.31
195.089	373.6
195.307	-1980.77
195.526	-862.86
195.744	2550
195.963	410.41
196.181	748.57
196.399	374.02
196.618	247.56
196.836	226.93
197.055	177.6
197.273	187.45
197.491	214
197.71	149.81
197.928	100.61
198.146	110.7
198.365	106.07
198.583	72.46
198.801	96.39
199.019	108.6
199.238	121.11
199.456	119.22
199.674	133.16
199.892	77.02
200.111	92.42
200.329	125.78
200.547	86.04
200.765	104.5
200.983	95.08
201.202	70.57
201.42	54.47
201.638	31.74
201.856	39.59
202.074	57.05
202.292	71.53
202.51	60.04
202.728	80.91
202.946	110.28
203.165	100.54
203.383	117.72
203.601	94.5
203.819	91.31
204.037	96.66
204.255	65.23
204.473	66.48
204.691	65
204.909	72.38
205.127	57.5
205.345	54.88
205.562	59.06
205.78	59.67
205.998	76.73
206.216	98.83
206.434	109.09
206.652	134.74
206.87	130.29
207.088	134.47
207.306	187.71
207.523	313.23
207.741	179.38
207.959	140.33
208.177	240.45
208.395	124.05
208.612	114.43
208.83	126.91
209.048	174.48
209.266	177.05
209.483	136.64
209.701	91.13
209.919	85.22
210.136	83.6
210.354	75.65
210.572	32.25
210.79	55.03
211.007	3.94
211.225	39.89
211.442	11.18
211.66	-18.72
211.878	-43.31
212.095	-52.09
212.313	-83.22
212.53	-15.74
212.748	16.1
212.966	41.76
213.183	20.05
213.401	-1.99
213.618	-13.2
213.836	28.24
214.053	49.25
214.271	43.89
214.488	56.75
214.705	70
214.923	57.21
215.14	41.44
215.358	57.38
215.575	431.43
215.793	314.29
216.01	-1610.34
216.227	804.26
216.445	558.43
216.662	255.32
216.879	298.58
217.097	151.72
217.314	136.73
217.531	84.96
217.749	89.08
217.966	82.24
218.183	56
218.4	66.25
218.618	78.58
218.835	53.71
219.052	48.14
219.269	66.05
219.487	78.26
219.704	83.79
219.921	103.1
220.138	80.8
220.355	75.27
220.572	89.86
220.79	92.46
221.007	61.43
221.224	57.33
221.441	48.08
221.658	38.28
221.875	43.8
222.092	43.61
222.309	34.03
222.526	35.79
222.743	40
222.96	33.51
223.177	27.23
223.394	24.66
223.611	26
223.828	31.56
224.045	34.71
224.262	29.46
224.479	22.47
224.696	21.98
224.913	19.07
225.13	10.82
225.347	8.84
225.564	7.58
225.781	12.08
225.997	14.56
226.214	12.04
226.431	8.5
226.648	10.79
226.865	13.05
227.082	11.24
227.298	13.3
227.515	13.98
227.732	12.5
227.949	12.56
228.165	12.44
228.382	10.88
228.599	10.42
228.816	9.74
229.032	8.67
229.249	7.62
229.466	7.55
229.682	5.78
229.899	5.22
230.116	6.33
230.332	5.93
230.549	5.23
230.765	5.54
230.982	5.36
231.199	4.51
231.415	4.8
231.632	5.66
231.848	6.97
232.065	7.95
232.281	7.02
232.498	5.75
232.714	5.2
232.931	4.61
233.147	3.65
233.364	3.45
233.58	4.37
233.797	3.5
234.013	2.36
234.23	0.37
234.446	-0.3
234.662	2.04
234.879	2.1
235.095	1.81
235.312	0.8
235.528	3.1
235.744	3.51
235.961	2.23
236.177	3.45
236.393	2.65
236.61	3.56
236.826	3.83
237.042	1.91
237.258	1.32
237.475	1.62
237.691	3.5
237.907	0.6
238.123	0.3
238.339	2.75
238.556	2.83
238.772	4.33
238.988	3.8
239.204	3.02
239.42	4.45
239.636	4.76
239.853	5.43
240.069	4.33
240.285	5.15
240.501	7.09
240.717	7.06
240.933	6.52
241.149	7.14
241.365	7.76
241.581	7.72
241.797	7.17
242.013	7.18
242.229	6.86
242.445	6.73
242.661	6.51
242.877	5.87
243.093	5.45
243.309	4.93
243.525	4.52
243.741	4.38
243.957	4.33
244.173	4.98
244.388	4.89
244.604	4.68
244.82	5.36
245.036	5.14
245.252	4.26
245.468	4.2
245.683	4.45
245.899	4.67
246.115	4.36
246.331	4.52
246.547	4.23
246.762	4.12
246.978	4.32
247.194	4.16
247.409	4.47
247.625	4.56
247.841	4.82
248.057	4.89
248.272	4.2
248.488	4.15
248.703	4.06
248.919	3.99
249.135	3.87
249.35	3.81
249.566	3.97
249.782	3.54
249.997	3.51
250.213	3.14
250.428	2.7
250.644	3.89
250.859	4.44
251.075	4.81
251.29	5.32
251.506	4.82
251.721	5
251.937	4.6
252.152	4.82
252.368	5.26
252.583	5.45
252.798	5.81
253.014	6.36
253.229	5.69
253.445	5.5
253.66	5.51
253.875	5.74
254.091	5.14
254.306	6
254.521	5.98
254.737	4.75
254.952	4.94
255.167	5.49
255.383	4.44
255.598	3.43
255.813	3.07
256.028	2.63
256.244	3.95
256.459	4.35
256.674	4.15
256.889	5.04
257.104	6.12
257.32	5.73
257.535	5.24
257.75	5.17
257.965	5.49
258.18	5.46
258.395	5.05
258.61	4.61
258.826	4.13
259.041	3.78
259.256	3.45
259.471	3.34
259.686	3.31
259.901	3.41
260.116	3.05
260.331	3.17
260.546	3.15
260.761	3.32
260.976	3.49
261.191	3.46
261.406	3.64
261.621	3.15
261.836	3.04
262.05	2.93
262.265	2.99
262.48	3.2
262.695	3.31
262.91	3
263.125	2.68
263.34	2.17
263.555	2.31
263.769	2.5
263.984	3.5
264.199	3.98
264.414	4.37
264.629	3.36
264.843	4.59
265.058	4.62
265.273	4.08
265.488	4.64
265.702	4.64
265.917	4.77
266.132	4.41
266.346	4.07
266.561	3.75
266.776	3.68
266.99	4.02
267.205	3.3
267.42	3
267.634	4.05
267.849	3.85
268.063	3.89
268.278	3.81
268.492	4.14
268.707	4.11
268.922	3.87
269.136	3.79
269.351	4.06
269.565	4.41
269.78	4.44
269.994	3.87
270.209	3.5
270.423	3.32
270.637	3.3
270.852	2.67
271.066	2.88
271.281	3.1
271.495	2.78
271.709	2.39
271.924	2.55
272.138	2.43
272.353	2.4
272.567	2.82
272.781	2.73
272.996	2.88
273.21	2.94
273.424	2.55
273.638	2.62
273.853	2.88
274.067	3.56
274.281	2.8
274.495	3.12
274.71	3.32
274.924	2.81
275.138	2.7
275.352	3.13
275.566	3.38
275.781	3.53
275.995	3.96
276.209	3.71
276.423	3.15
276.637	3.41
276.851	3.29
277.065	3.31
277.279	3.57
277.493	3.91
277.707	2.88
277.921	2.76
278.135	3.45
278.349	2.96
278.563	3.29
278.777	3.07
278.991	3.46
279.205	3.77
279.419	3.27
279.633	3.25
279.847	3.92
280.061	4.72
280.275	5.19
280.489	4.97
280.703	4.36
280.917	4.15
281.131	4.22
281.344	3.72
281.558	3.09
281.772	3.32
281.986	2.97
282.2	2.7
282.414	2.65
282.627	2.72
282.841	2.17
283.055	2.65
283.269	2.83
283.482	3.02
283.696	3.2
283.91	3.44
284.123	3.53
284.337	3.9
284.551	3.9
284.764	3.43
284.978	2.87
285.192	2.49
285.405	2.35
285.619	2.28
285.833	2.05
286.046	2.12
286.26	1.71
286.473	1.81
286.687	1.82
286.9	1.45
287.114	1.87
287.327	1.99
287.541	2.67
287.754	2.76
287.968	2.89
288.181	3.47
288.395	3.7
288.608	4.13
288.822	4.05
289.035	4
289.248	3.79
289.462	3.69
289.675	3.78
289.889	3.91
290.102	3.78
290.315	3.6
290.529	3.39
290.742	3.06
290.955	3.11
291.169	3.24
291.382	3.02
291.595	3.31
291.808	3.31
292.022	3.23
292.235	3.01
292.448	3.07
292.661	3.28
292.875	3.33
293.088	3.31
293.301	2.99
293.514	2.88
293.727	3.27
293.94	3.53
294.153	3
294.367	3.03
294.58	3.25
294.793	3.48
295.006	3.7
295.219	3.85
295.432	4.27
295.645	4.62
295.858	4.45
296.071	4.51
296.284	4.34
296.497	4.8
296.71	4.9
296.923	4.81
297.136	4.85
297.349	4.56
297.562	4.56
297.775	4.35
297.988	4.5
298.201	4.71
298.414	4.71
298.626	4.76
298.839	4.6
299.052	4.68
299.265	4.56
299.478	4.45
299.691	4.39
299.903	4.1
300.116	4.21
300.329	4.18
300.542	4.02
300.755	3.85
300.967	3.64
301.18	3.86
301.393	4.22
301.605	4.34
301.818	4.47
302.031	4.72
302.243	4.69
302.456	4.47
302.669	4.41
302.881	4.51
303.094	4.3
303.307	4.43
303.519	4.29
303.732	3.83
303.944	3.9
304.157	3.69
304.37	3.81
304.582	4.1
304.795	4.41
305.007	4.33
305.22	4.63
305.432	4.59
305.645	5.07
305.857	4.77
306.069	5.01
306.282	4.75
306.494	4.95
306.707	4.78
306.919	4.53
307.132	4.51
307.344	4.89
307.556	4.65
307.769	4.87
307.981	4.5
308.193	4.89
308.406	4.95
308.618	4.98
308.83	4.74
309.043	5.1
309.255	5.08
309.467	4.88
309.679	4.65
309.892	4.79
310.104	4.79
310.316	5.02
310.528	5.08
310.74	5.02
310.953	5.24
311.165	5.15
311.377	5.05
311.589	5.33
311.801	5.53
312.013	5.34
312.225	5.38
312.437	5.53
312.649	5.43
312.862	5.33
313.074	5.19
313.286	5.11
313.498	5.66
313.71	5.65
313.922	5.44
314.134	5.28
314.346	5.62
314.558	5.56
314.77	5.61
314.982	5.27
315.193	5.48
315.405	5.51
315.617	5.43
315.829	5.25
316.041	5.05
316.253	4.91
316.465	5.39
316.677	5.37
316.888	5.52
317.1	5.18
317.312	5.51
317.524	4.84
317.736	4.96
317.947	5.01
318.159	5
318.371	5.02
318.583	5.49
318.794	5.1
319.006	4.38
319.218	4.26
319.43	4.39
319.641	4.18
319.853	4.8
320.064	4.6
320.276	5.03
320.488	5.18
320.699	5.44
320.911	5.41
321.123	5.4
321.334	6.33
321.546	6.23
321.757	6.35
321.969	6.86
322.18	6.75
322.392	7.3
322.603	6.67
322.815	6.91
323.026	6.78
323.238	6.57
323.449	6.75
323.661	6.9
323.872	7.05
324.083	7.07
324.295	6.85
324.506	6.98
324.718	6.91
324.929	7.2
325.14	7.15
325.352	6.88
325.563	7.19
325.774	7.46
325.986	7.03
326.197	7.31
326.408	7.58
326.62	7.63
326.831	7.52
327.042	7.53
327.253	7.76
327.464	7.52
327.676	8.04
327.887	7.79
328.098	7.3
328.309	7.55
328.52	7.78
328.732	7.64
328.943	7.67
329.154	8.15
329.365	8.3
329.576	8.14
329.787	8.36
329.998	8.04
330.209	8.95
330.42	9.26
330.631	9.15
330.842	8.76
331.053	8.92
331.264	8.82
331.475	8.62
331.686	8.51
331.897	8.63
332.108	8.61
332.319	9.2
332.53	8.95
332.741	9.44
332.952	9.76
333.163	9.99
333.374	10.15
333.585	10.33
333.795	10.37
334.006	10.49
334.217	10.41
334.428	10.37
334.639	10.07
334.849	9.83
335.06	9.51
335.271	9.57
335.482	9.52
335.692	9.31
335.903	9.51
336.114	9.84
336.325	9.94
336.535	10.32
336.746	10.74
336.957	10.78
337.167	10.81
337.378	10.98
337.589	11.09
337.799	10.9
338.01	11.2
338.22	11.16
338.431	10.55
338.642	10.57
338.852	10.52
339.063	10.23
339.273	9.89
339.484	9.98
339.694	10.07
339.905	9.72
340.115	9.95
340.326	9.75
340.536	9.7
340.746	10.2
340.957	9.87
341.167	9.9
341.378	10.01
341.588	10.33
341.799	10.24
342.009	10
342.219	10.34
342.43	9.85
342.64	9.64
342.85	9.66
343.061	9.42
343.271	9.74
343.481	9.5
343.691	9.67
343.902	9.67
344.112	9.66
344.322	9.92
344.532	9.92
344.743	10.39
344.953	10.54
345.163	10.66
345.373	10.65
345.583	10.38
345.793	10.34
346.004	9.93
346.214	9.94
346.424	9.89
346.634	9.56
346.844	9.34
347.054	9.17
347.264	9.22
347.474	8.95
347.684	9.06
347.894	9.15
348.104	9.34
348.314	10.01
348.524	10.03
348.734	10
348.944	10.33
349.154	10.3
349.364	10.43
349.574	10.56
349.784	10.54
349.994	10.57
350.204	10.77
350.413	10.61
350.623	10.36
350.833	10.43
351.043	10.4
351.253	9.94
351.463	10.26
351.672	10.04
351.882	10.13
352.092	10.17
352.302	9.94
352.511	9.8
352.721	9.92
352.931	9.85
353.141	9.7
353.35	9.73
353.56	9.94
353.77	9.74
353.979	9.75
354.189	9.55
354.399	9.87
354.608	9.99
354.818	9.87
355.027	9.7
355.237	9.55
355.447	9.47
355.656	9.57
355.866	9.42
356.075	9.42
356.285	9.5
356.494	9.18
356.704	8.78
356.913	8.71
357.123	8.75
357.332	8.93
357.542	8.9
357.751	8.82
357.96	8.86
358.17	8.86
358.379	8.45
358.589	8.27
358.798	8.29
359.007	8.6
359.217	8.41
359.426	8.21
359.635	8.02
359.845	8.18
360.054	8.21
360.263	7.99
360.472	8.05
360.682	8.32
360.891	8.3
361.1	8.43
361.309	8.45
361.519	8.7
361.728	8.93
361.937	9.15
362.146	9.12
362.355	9.06
362.564	9.04
362.774	8.91
362.983	8.85
363.192	9.1
363.401	9.13
363.61	8.68
363.819	8.65
364.028	8.45
364.237	8.27
364.446	8.11
364.655	8.18
364.864	8.45
365.073	8.7
365.282	8.73
365.491	8.55
365.7	8.62
365.909	8.84
366.118	8.84
366.327	9.03
366.536	8.7
366.745	8.75
366.954	8.74
367.162	8.54
367.371	8.72
367.58	8.85
367.789	8.82
367.998	8.64
368.207	8.65
368.415	8.47
368.624	8.43
368.833	8.93
369.042	8.76
369.25	8.97
369.459	8.93
369.668	8.57
369.877	8.38
370.085	8.3
370.294	8.36
370.503	8.45
370.711	8.64
370.92	8.28
371.129	8.12
371.337	8.14
371.546	8.05
371.754	7.95
371.963	7.83
372.171	7.75
372.38	7.79
372.589	7.74
372.797	7.75
373.006	7.67
373.214	7.86
373.423	7.82
373.631	7.82
373.84	7.45
374.048	7.38
374.256	7.35
374.465	7.41
374.673	7.3
374.882	7.02
375.09	6.99
375.298	6.76
375.507	6.68
375.715	6.64
375.923	6.38
376.132	6.57
376.34	6.77
376.548	6.65
376.757	6.52
376.965	6.62
377.173	6.98
377.381	7.1
377.59	7.11
377.798	7.18
378.006	6.74
378.214	6.9
378.423	6.71
378.631	6.81
378.839	6.77
379.047	7
379.255	7.05
379.463	6.82
379.671	6.45
379.879	6.07
380.088	5.76
380.296	6.11
380.504	6.01
380.712	6.29
380.92	6.22
381.128	6.7
381.336	6.47
381.544	6.18
381.752	6.41
381.96	6.4
382.168	6.82
382.376	7.09
382.584	7.25
382.791	7.19
382.999	7.1
383.207	6.9
383.415	6.26
383.623	6.25
383.831	6.33
384.039	6.18
384.247	6.19
384.454	5.91
384.662	5.67
384.87	5.31
385.078	5.39
385.285	5.46
385.493	5.29
385.701	5.56
385.909	5.56
386.116	5.58
386.324	5.55
386.532	5.65
386.739	5.83
386.947	5.72
387.155	6.12
387.362	6.09
387.57	5.93
387.778	6.03
387.985	6.08
388.193	6.21
388.4	6.1
388.608	6.09
388.816	6.06
389.023	6.01
389.231	6.06
389.438	5.64
389.646	5.87
389.853	6
390.061	6.02
390.268	5.92
390.475	5.74
390.683	5.77
390.89	5.62
391.098	5.59
391.305	5.38
391.512	5.41
391.72	5.64
391.927	5.35
392.135	5.18
392.342	5.15
392.549	5.15
392.756	5.18
392.964	4.82
393.171	4.81
393.378	4.74
393.586	4.8
393.793	4.73
394	4.64
394.207	4.71
394.414	4.59
394.622	4.51
394.829	4.62
395.036	4.5
395.243	4.79
395.45	4.89
395.657	4.78
395.864	4.98
396.072	4.95
396.279	4.58
396.486	4.48
396.693	4.69
396.9	4.68
397.107	4.72
397.314	4.76
397.521	4.69
397.728	4.55
397.935	4.61
398.142	4.36
398.349	4.68
398.556	5.02
398.763	5.2
398.97	5.28
399.177	5.16
399.383	5.07
399.59	5.19
399.797	5.16
400.004	5.15
400.211	5.06
400.418	5.09
400.625	4.83
400.831	4.79
401.038	4.74
401.245	4.34
401.452	4.58
401.658	4.45
401.865	4.35
402.072	4.5
402.279	4.64
402.485	5
402.692	5.05
402.899	4.87
403.105	4.81
403.312	4.65
403.519	4.99
403.725	4.85
403.932	4.82
404.138	4.88
404.345	4.73
404.552	4.54
404.758	4.15
404.965	4.08
405.171	4.2
405.378	4.33
405.584	4.37
405.791	4.22
405.997	4.13
406.204	4.29
406.41	4.14
406.617	4.21
406.823	4.36
407.029	4.45
407.236	4.38
407.442	4.43
407.649	4.33
407.855	4.28
408.061	4.4
408.268	4.67
408.474	4.75
408.68	4.85
408.887	4.74
409.093	4.59
409.299	4.7
409.505	4.89
409.712	4.94
409.918	4.82
410.124	4.9
410.33	4.81
410.537	4.59
410.743	4.39
410.949	4.4
411.155	4.57
411.361	4.69
411.567	4.63
411.773	4.5
411.98	4.44
412.186	4.65
412.392	4.68
412.598	4.57
412.804	4.54
413.01	4.55
413.216	4.51
413.422	4.56
413.628	4.49
413.834	4.52
414.04	4.58
414.246	4.36
414.452	4.22
414.658	4.13
414.864	4.11
415.07	4.18
415.275	4.13
415.481	4.2
415.687	4.15
415.893	4.24
416.099	4.3
416.305	4.28
416.511	4.35
416.716	4.18
416.922	4.19
417.128	4.27
417.334	4.36
417.539	4.31
417.745	4.25
417.951	4.18
418.157	4.05
418.362	4.03
418.568	4.06
418.774	4.1
418.979	4.13
419.185	4.2
419.391	4.15
419.596	4
419.802	3.98
420.008	3.99
420.213	3.96
420.419	3.86
420.624	3.85
420.83	3.89
421.035	3.82
421.241	3.86
421.446	3.77
421.652	3.76
421.857	3.83
422.063	3.82
422.268	3.8
422.474	3.87
422.679	3.93
422.885	3.75
423.09	3.7
423.295	3.76
423.501	3.75
423.706	3.74
423.911	3.72
424.117	3.6
424.322	3.56
424.527	3.52
424.733	3.32
424.938	3.32
425.143	3.47
425.349	3.49
425.554	3.43
425.759	3.41
425.964	3.38
426.169	3.37
426.375	3.37
426.58	3.5
426.785	3.44
426.99	3.63
427.195	3.66
427.4	3.55
427.605	3.41
427.811	3.47
428.016	3.53
428.221	3.6
428.426	3.65
428.631	3.73
428.836	3.67
429.041	3.7
429.246	3.67
429.451	3.59
429.656	3.73
429.861	3.8
430.066	3.8
430.271	3.78
430.476	3.66
430.681	3.53
430.886	3.61
431.09	3.65
431.295	3.67
431.5	3.69
431.705	3.71
431.91	3.63
432.115	3.59
432.32	3.58
432.524	3.55
432.729	3.52
432.934	3.57
433.139	3.45
433.343	3.44
433.548	3.42
433.753	3.39
433.958	3.48
434.162	3.47
434.367	3.44
434.572	3.44
434.776	3.37
434.981	3.43
435.186	3.52
435.39	3.61
435.595	3.54
435.799	3.45
436.004	3.55
436.209	3.5
436.413	3.48
436.618	3.41
436.822	3.46
437.027	3.67
437.231	3.7
437.436	3.57
437.64	3.46
437.845	3.56
438.049	3.68
438.253	3.61
438.458	3.58
438.662	3.63
438.867	3.74
439.071	3.72
439.275	3.67
439.48	3.77
439.684	3.79
439.888	3.78
440.093	3.61
440.297	3.56
440.501	3.63
440.706	3.72
440.91	3.6
441.114	3.53
441.318	3.5
441.523	3.44
441.727	3.35
441.931	3.37
442.135	3.38
442.339	3.47
442.543	3.53
442.748	3.42
442.952	3.39
443.156	3.55
443.36	3.61
443.564	3.52
443.768	3.47
443.972	3.52
444.176	3.57
444.38	3.61
444.584	3.59
444.788	3.59
444.992	3.54
445.196	3.49
445.4	3.49
445.604	3.45
445.808	3.53
446.012	3.53
446.216	3.45
446.42	3.42
446.624	3.35
446.828	3.4
447.032	3.36
447.235	3.32
447.439	3.38
447.643	3.35
447.847	3.38
448.051	3.36
448.254	3.38
448.458	3.41
448.662	3.34
448.866	3.39
449.069	3.36
449.273	3.37
449.477	3.42
449.681	3.36
449.884	3.35
450.088	3.32
450.292	3.18
450.495	3.26
450.699	3.25
450.902	3.34
451.106	3.36
451.31	3.4
451.513	3.5
451.717	3.58
451.92	3.45
452.124	3.44
452.327	3.42
452.531	3.56
452.734	3.45
452.938	3.53
453.141	3.5
453.345	3.54
453.548	3.47
453.752	3.36
453.955	3.34
454.158	3.38
454.362	3.29
454.565	3.33
454.769	3.25
454.972	3.19
455.175	3.17
455.379	3.19
455.582	3.21
455.785	3.17
455.988	3.31
456.192	3.3
456.395	3.36
456.598	3.5
456.801	3.5
457.005	3.5
457.208	3.59
457.411	3.48
457.614	3.45
457.817	3.31
458.021	3.3
458.224	3.17
458.427	3.17
458.63	3.17
458.833	3.2
459.036	3.21
459.239	3.29
459.442	3.23
459.645	3.27
459.848	3.27
460.051	3.25
460.254	3.24
460.457	3.23
460.66	3.28
460.863	3.27
461.066	3.22
461.269	3.27
461.472	3.3
461.675	3.35
461.878	3.35
462.081	3.43
462.284	3.54
462.486	3.66
462.689	3.72
462.892	3.61
463.095	3.71
463.298	3.84
463.5	3.83
463.703	3.78
463.906	3.8
464.109	3.78
464.311	3.8
464.514	3.74
464.717	3.73
464.92	3.87
465.122	4.1
465.325	4.02
465.528	3.96
465.73	3.88
465.933	3.84
466.135	3.8
466.338	3.86
466.541	3.75
466.743	3.73
466.946	3.62
467.148	3.43
467.351	3.27
467.553	3.28
467.756	3.23
467.958	3.28
468.161	3.25
468.363	3.25
468.566	3.17
468.768	3.22
468.971	3.32
469.173	3.32
469.375	3.36
469.578	3.31
469.78	3.25
469.983	3.29
470.185	3.3
470.387	3.29
470.59	3.22
470.792	3.19
470.994	3.2
471.196	3.28
471.399	3.27
471.601	3.28
471.803	3.35
472.005	3.45
472.208	3.47
472.41	3.52
472.612	3.53
472.814	3.56
473.016	3.68
473.218	3.62
473.421	3.57
473.623	3.66
473.825	3.7
474.027	3.73
474.229	3.66
474.431	3.65
474.633	3.54
474.835	3.6
475.037	3.78
475.239	3.69
475.441	3.77
475.643	3.76
475.845	3.69
476.047	3.71
476.249	3.7
476.451	3.57
476.653	3.5
476.855	3.61
477.057	3.57
477.258	3.49
477.46	3.53
477.662	3.45
477.864	3.48
478.066	3.55
478.268	3.46
478.469	3.48
478.671	3.59
478.873	3.59
479.075	3.54
479.276	3.64
479.478	3.58
479.68	3.54
479.882	3.61
480.083	3.45
480.285	3.47
480.487	3.58
480.688	3.51
480.89	3.49
481.091	3.55
481.293	3.49
481.495	3.37
481.696	3.46
481.898	3.46
482.099	3.4
482.301	3.43
482.502	3.36
482.704	3.27
482.905	3.27
483.107	3.27
483.308	3.19
483.51	3.19
483.711	3.2
483.913	3.15
484.114	3.13
484.315	3.13
484.517	3.16
484.718	3.16
484.92	3.19
485.121	3.17
485.322	3.21
485.524	3.25
485.725	3.22
485.926	3.24
486.127	3.21
486.329	3.21
486.53	3.25
486.731	3.22
486.932	3.21
487.134	3.21
487.335	3.2
487.536	3.2
487.737	3.18
487.938	3.22
488.139	3.21
488.341	3.21
488.542	3.21
488.743	3.18
488.944	3.2
489.145	3.26
489.346	3.27
489.547	3.33
489.748	3.32
489.949	3.36
490.15	3.37
490.351	3.37
490.552	3.42
490.753	3.44
490.954	3.44
491.155	3.42
491.356	3.4
491.557	3.35
491.758	3.34
491.959	3.33
492.159	3.35
492.36	3.35
492.561	3.39
492.762	3.41
492.963	3.45
493.164	3.47
493.364	3.52
493.565	3.56
493.766	3.65
493.967	3.76
494.167	3.79
494.368	3.81
494.569	3.82
494.769	3.82
494.97	3.84
495.171	3.82
495.371	3.8
495.572	3.82
495.773	3.79
495.973	3.79
496.174	3.69
496.375	3.64
496.575	3.65
496.776	3.67
496.976	3.65
497.177	3.68
497.377	3.68
497.578	3.74
497.778	3.73
497.979	3.73
498.179	3.73
498.38	3.7
498.58	3.77
498.78	3.73
498.981	3.73
499.181	3.81
499.382	3.78
499.582	3.75
499.782	3.77
499.983	3.75
500.183	3.85
500.383	3.91
500.584	3.96
500.784	3.99
500.984	4.07
501.184	4.09
501.385	4.06
501.585	4.11
501.785	4.18
501.985	4.16
502.185	4.07
502.386	4.03
502.586	3.89
502.786	3.94
502.986	4
503.186	4.1
503.386	4.08
503.586	4.03
503.786	4.02
503.987	3.98
504.187	3.99
504.387	4.05
504.587	4.14
504.787	4.26
504.987	4.24
505.187	4.18
505.387	4.09
505.587	4.26
505.786	4.35
505.986	4.38
506.186	4.5
506.386	4.54
506.586	4.64
506.786	4.53
506.986	4.46
507.186	4.49
507.386	4.48
507.585	4.49
507.785	4.43
507.985	4.44
508.185	4.4
508.384	4.34
508.584	4.36
508.784	4.28
508.984	4.44
509.183	4.48
509.383	4.55
509.583	4.65
509.782	4.65
509.982	4.66
510.182	4.63
510.381	4.76
510.581	4.81
510.781	4.86
510.98	5
511.18	4.97
511.379	5.08
511.579	5.15
511.778	5.03
511.978	5.12
512.177	5.17
512.377	5.33
512.576	5.37
512.776	5.4
512.975	5.44
513.175	5.5
513.374	5.56
513.573	5.6
513.773	5.55
513.972	5.67
514.172	5.7
514.371	5.73
514.57	5.7
514.77	5.76
514.969	5.8
515.168	5.85
515.367	5.85
515.567	5.84
515.766	5.82
515.965	5.89
516.164	5.97
516.364	6.02
516.563	6.04
516.762	6.03
516.961	6.07
517.16	6.13
517.359	6.1
517.559	6.1
517.758	6.16
517.957	6.21
518.156	6.24
518.355	6.26
518.554	6.25
518.753	6.28
518.952	6.4
519.151	6.42
519.35	6.45
519.549	6.6
519.748	6.78
519.947	6.85
520.146	6.98
520.345	7.11
520.544	7.18
520.743	7.34
520.942	7.42
521.141	7.5
521.339	7.58
521.538	7.76
521.737	7.81
521.936	7.75
522.135	7.9
522.333	7.91
522.532	8.06
522.731	8.24
522.93	8.37
523.129	8.45
523.327	8.56
523.526	8.65
523.725	8.63
523.923	8.68
524.122	8.78
524.321	8.76
524.519	8.79
524.718	8.83
524.917	8.77
525.115	8.77
525.314	8.89
525.512	8.93
525.711	8.98
525.909	9.1
526.108	9.1
526.306	9.15
526.505	9.27
526.703	9.42
526.902	9.47
527.1	9.53
527.299	9.57
527.497	9.58
527.696	9.63
527.894	9.69
528.092	9.71
528.291	9.79
528.489	9.85
528.688	9.88
528.886	9.91
529.084	10.02
529.283	10.13
529.481	10.21
529.679	10.31
529.877	10.43
530.076	10.56
530.274	10.71
530.472	10.9
530.67	11.06
530.869	11.24
531.067	11.4
531.265	11.49
531.463	11.57
531.661	11.71
531.859	11.8
532.057	11.84
532.255	11.87
532.454	11.92
532.652	11.94
532.85	12
533.048	12.05
533.246	12.11
533.444	12.15
533.642	12.25
533.84	12.31
534.038	12.46
534.236	12.58
534.434	12.75
534.632	12.88
534.83	12.99
535.027	13.15
535.225	13.35
535.423	13.49
535.621	13.68
535.819	13.77
536.017	13.93
536.215	14
536.412	14.08
536.61	14.17
536.808	14.25
537.006	14.41
537.203	14.5
537.401	14.54
537.599	14.63
537.797	14.66
537.994	14.86
538.192	14.95
538.39	15.09
538.587	15.32
538.785	15.43
538.983	15.59
539.18	15.68
539.378	15.82
539.575	15.88
539.773	15.97
539.97	16.02
540.168	16.01
540.366	16.04
540.563	16.04
540.761	15.99
540.958	15.95
541.155	16.03
541.353	16.09
541.55	16.13
541.748	16.21
541.945	16.31
542.143	16.39
542.34	16.52
542.537	16.62
542.735	16.7
542.932	16.85
543.129	17.06
543.327	17.18
543.524	17.3
543.721	17.41
543.919	17.62
544.116	17.79
544.313	18.1
544.51	18.32
544.708	18.59
544.905	18.84
545.102	19.13
545.299	19.4
545.496	19.53
545.693	19.62
545.891	19.82
546.088	19.76
546.285	19.8
546.482	19.8
546.679	19.78
546.876	19.79
547.073	19.84
547.27	19.78
547.467	19.75
547.664	19.79
547.861	19.86
548.058	19.89
548.255	20.04
548.452	20.11
548.649	20.19
548.846	20.35
549.043	20.53
549.24	20.69
549.437	20.78
549.633	20.8
549.83	20.92
550.027	21.12
550.224	21.07
550.421	21.19
550.618	21.16
550.814	21.14
551.011	21.09
551.208	21.02
551.405	21.02
551.601	21.19
551.798	21.18
551.995	21.17
552.191	21.08
552.388	21.11
552.585	21.05
552.781	21.22
552.978	21.23
553.175	21.3
553.371	21.3
553.568	21.24
553.764	21.17
553.961	21.22
554.157	21.21
554.354	21.31
554.55	21.43
554.747	21.6
554.943	21.49
555.14	21.59
555.336	21.65
555.533	21.65
555.729	21.77
555.926	21.87
556.122	21.94
556.318	22.07
556.515	22.04
556.711	22.03
556.907	22.01
557.104	22.22
557.3	22.16
557.496	22.24
557.693	22.31
557.889	22.29
558.085	22.26
558.281	22.39
558.478	22.35
558.674	22.43
558.87	22.54
559.066	22.57
559.262	22.53
559.459	22.52
559.655	22.48
559.851	22.64
560.047	22.73
560.243	22.79
560.439	22.7
560.635	22.85
560.831	23
561.027	22.99
561.223	23.03
561.419	22.95
561.615	23.06
561.811	22.98
562.007	22.78
562.203	22.72
562.399	22.69
562.595	22.78
562.791	22.74
562.987	22.66
563.183	22.83
563.379	22.77
563.575	22.75
563.771	22.77
563.966	22.85
564.162	23.03
564.358	23.11
564.554	23.11
564.75	22.92
564.945	22.79
565.141	22.69
565.337	22.52
565.533	22.48
565.728	22.58
565.924	22.52
566.12	22.43
566.315	22.35
566.511	22.23
566.707	22.12
566.902	22.19
567.098	22.26
567.293	22.34
567.489	22.35
567.684	22.44
567.88	22.44
568.076	22.45
568.271	22.48
568.467	22.59
568.662	22.71
568.858	22.84
569.053	22.91
569.248	23.05
569.444	23
569.639	23.04
569.835	23.03
570.03	23.04
570.225	23.01
570.421	23.08
570.616	22.98
570.812	22.91
571.007	22.88
571.202	22.71
571.397	22.54
571.593	22.57
571.788	22.52
571.983	22.58
572.178	22.58
572.374	22.61
572.569	22.65
572.764	22.53
572.959	22.52
573.154	22.62
573.35	22.76
573.545	22.8
573.74	22.82
573.935	22.82
574.13	22.73
574.325	22.81
574.52	22.73
574.715	22.8
574.91	23
575.105	23.17
575.3	23.17
575.495	23.17
575.69	23.27
575.885	23.39
576.08	23.55
576.275	23.8
576.47	23.79
576.665	23.96
576.86	23.97
577.055	24.27
577.25	24.51
577.444	24.55
577.639	24.89
577.834	24.92
578.029	25
578.224	25.14
578.418	25.08
578.613	25.24
578.808	25.34
579.003	25.49
579.197	25.31
579.392	25.19
579.587	25.34
579.781	25.26
579.976	25.38
580.171	25.47
580.365	25.32
580.56	25.42
580.755	25.35
580.949	25.63
581.144	25.59
581.338	25.73
581.533	25.66
581.727	25.87
581.922	26.07
582.116	26.14
582.311	26.14
582.505	26.33
582.7	26.36
582.894	26.3
583.089	26.22
583.283	26.44
583.478	26.32
583.672	26.46
583.866	26.22
584.061	26.08
584.255	26.19
584.449	26.19
584.644	26.23
584.838	26.26
585.032	26.47
585.226	26.5
585.421	26.42
585.615	26.71
585.809	26.77
586.003	26.93
586.198	27.07
586.392	26.82
586.586	26.82
586.78	26.87
586.974	26.82
587.168	26.78
587.363	26.69
587.557	26.62
587.751	26.44
587.945	26.38
588.139	26.02
588.333	25.84
588.527	25.84
588.721	25.75
588.915	25.5
589.109	25.44
589.303	25.37
589.497	25.17
589.691	25.23
589.885	25.26
590.079	25.26
590.273	25.39
590.466	25.38
590.66	25.33
590.854	25.45
591.048	25.5
591.242	25.62
591.436	25.72
591.629	26.11
591.823	26.06
592.017	26.12
592.211	26.12
592.404	26.31
592.598	26.43
592.792	26.7
592.986	26.66
593.179	26.63
593.373	26.57
593.567	26.55
593.76	26.5
593.954	26.53
594.147	26.42
594.341	26.33
594.535	26.22
594.728	25.97
594.922	25.81
595.115	25.8
595.309	25.93
595.502	25.89
595.696	25.69
595.889	25.48
596.083	25.42
596.276	25.28
596.47	25.22
596.663	25.13
596.856	25.12
597.05	25
597.243	24.91
597.437	24.91
597.63	24.91
597.823	25.1
598.017	25.3
598.21	25.34
598.403	25.5
598.596	25.58
598.79	25.72
598.983	26.12
599.176	26.43
599.369	26.63
599.563	26.56
599.756	26.61
599.949	26.61
600.142	26.45
600.335	26.42
600.528	26.42
600.722	26.41
600.915	26.28
601.108	25.96
601.301	25.89
601.494	25.76
601.687	25.87
601.88	25.9
602.073	25.87
602.266	25.78
602.459	25.76
602.652	25.82
602.845	25.74
603.038	25.82
603.231	25.76
603.424	25.65
603.617	25.61
603.809	25.34
604.002	25.31
604.195	25.28
604.388	25.33
604.581	25.32
604.774	25.17
604.966	25.21
605.159	25.24
605.352	25.36
605.545	25.47
605.737	25.6
605.93	25.91
606.123	26.15
606.316	26.37
606.508	26.57
606.701	26.68
606.894	26.84
607.086	27.13
607.279	27.25
607.471	27.37
607.664	27.51
607.857	27.49
608.049	27.5
608.242	27.45
608.434	27.51
608.627	27.7
608.819	28.06
609.012	28.5
609.204	28.95
609.397	29.37
609.589	29.81
609.782	30.44
609.974	31.14
610.166	31.89
610.359	32.54
610.551	33.12
610.743	33.76
610.936	34.24
611.128	34.51
611.32	34.68
611.513	34.89
611.705	35.29
611.897	35.19
612.09	35.19
612.282	34.85
612.474	34.82
612.666	34.95
612.858	34.79
613.051	34.45
613.243	34.11
613.435	33.8
613.627	33.6
613.819	32.98
614.011	32.95
614.203	32.67
614.395	32.57
614.588	32.06
614.78	31.69
614.972	31.09
615.164	31.04
615.356	31.1
615.548	31.04
615.74	30.77
615.932	30.81
616.124	30.51
616.315	30.41
616.507	30.31
616.699	30.3
616.891	29.97
617.083	30.1
617.275	30.1
617.467	30.04
617.659	29.69
617.85	29.55
618.042	29.37
618.234	29.2
618.426	29
618.618	28.96
618.809	29.02
619.001	29.1
619.193	29.05
619.384	28.74
619.576	28.71
619.768	28.91
619.959	29.04
620.151	29.14
620.343	29.18
620.534	29.34
620.726	29.33
620.917	29.43
621.109	29.42
621.301	29.37
621.492	29.5
621.684	29.45
621.875	29.22
622.067	29.24
622.258	29.23
622.45	29.28
622.641	29.19
622.832	29.2
623.024	29.06
623.215	29.04
623.407	29.19
623.598	29.09
623.789	29.13
623.981	29.43
624.172	29.34
624.363	29.29
624.555	29.11
624.746	29.02
624.937	28.89
625.129	28.75
625.32	28.71
625.511	28.47
625.702	28.29
625.893	28.19
626.085	28.02
626.276	28.1
626.467	28.16
626.658	28.24
626.849	28.32
627.04	28.39
627.231	28.36
627.422	28.28
627.614	28.25
627.805	28.41
627.996	28.5
628.187	28.61
628.378	28.68
628.569	28.63
628.76	28.6
628.951	28.62
629.142	28.68
629.332	28.7
629.523	28.77
629.714	28.99
629.905	29.11
630.096	29.18
630.287	29.27
630.478	29.43
630.669	29.52
630.859	29.55
631.05	29.47
631.241	29.66
631.432	29.84
631.623	29.89
631.813	29.82
632.004	29.64
632.195	29.47
632.385	29.31
632.576	29.05
632.767	29.03
632.957	29.01
633.148	29.28
633.339	28.97
633.529	28.93
633.72	28.78
633.91	28.6
634.101	28.65
634.292	28.58
634.482	28.62
634.673	28.64
634.863	28.6
635.054	28.57
635.244	28.48
635.435	28.39
635.625	28.38
635.815	28.59
636.006	28.75
636.196	28.86
636.387	29.02
636.577	29.24
636.767	29.17
636.958	29.03
637.148	29.35
637.338	29.36
637.529	29.6
637.719	29.68
637.909	29.71
638.099	29.78
638.29	29.86
638.48	29.77
638.67	29.52
638.86	29.59
639.05	29.69
639.241	29.63
639.431	29.52
639.621	29.34
639.811	29.54
640.001	29.37
640.191	29.4
640.381	29.35
640.571	29.6
640.761	29.59
640.951	29.71
641.141	29.87
641.331	29.85
641.521	29.91
641.711	30.02
641.901	29.83
642.091	29.99
642.281	30.1
642.471	29.95
642.661	29.92
642.851	30.1
643.041	30.04
643.231	29.87
643.42	29.92
643.61	30.01
643.8	29.96
643.99	30.04
644.18	30.15
644.369	30.15
644.559	30.31
644.749	30.37
644.939	30.32
645.128	30.39
645.318	30.54
645.508	30.65
645.697	30.76
645.887	30.83
646.076	30.49
646.266	30.31
646.456	30.1
646.645	30.08
646.835	29.85
647.024	29.94
647.214	29.89
647.403	29.95
647.593	29.72
647.782	29.61
647.972	29.55
648.161	29.95
648.351	29.83
648.54	29.99
648.73	29.91
648.919	30.11
649.108	29.85
649.298	29.93
649.487	29.75
649.677	29.81
649.866	29.83
650.055	29.89
650.244	29.66
650.434	29.71
650.623	29.48
650.812	29.48
651.002	29.55
651.191	29.64
651.38	29.56
651.569	29.62
651.758	29.64
651.947	29.36
652.137	29.44
652.326	29.5
652.515	29.56
652.704	30.07
652.893	30.06
653.082	29.87
653.271	29.97
653.46	29.89
653.649	29.93
653.838	29.82
654.027	29.88
654.216	29.72
654.405	29.64
654.594	29.76
654.783	29.56
654.972	29.63
655.161	29.84
655.35	29.95
655.539	30.15
655.728	30.21
655.916	30.3
656.105	30.55
656.294	30.68
656.483	30.61
656.672	30.35
656.86	30.07
657.049	29.92
657.238	29.85
657.427	29.49
657.615	29.25
657.804	29.2
657.993	29.04
658.181	28.75
658.37	28.54
658.559	28.6
658.747	28.52
658.936	28.5
659.125	28.55
659.313	28.37
659.502	28.53
659.69	28.51
659.879	28.49
660.067	28.41
660.256	28.63
660.444	28.82
660.633	28.93
660.821	29.31
661.01	29.62
661.198	30.02
661.387	30.14
661.575	30.13
661.763	30.38
661.952	30.36
662.14	30.75
662.328	30.69
662.517	30.98
662.705	31.13
662.893	30.92
663.082	30.9
663.27	30.84
663.458	30.84
663.646	30.99
663.834	31.14
664.023	31.11
664.211	31.04
664.399	31.12
664.587	31.11
664.775	31.08
664.963	31.35
665.152	31.61
665.34	31.65
665.528	32.09
665.716	32.22
665.904	32.03
666.092	32.59
666.28	32.65
666.468	32.69
666.656	32.59
666.844	32.59
667.032	32.58
667.22	32.41
667.408	32.21
667.596	31.78
667.784	31.68
667.971	32.06
668.159	31.78
668.347	31.99
668.535	31.97
668.723	32
668.911	32.01
669.098	31.96
669.286	31.94
669.474	32.19
669.662	32.28
669.849	32.45
670.037	32.05
670.225	31.97
670.413	32
670.6	32.07
670.788	32.3
670.976	32.23
671.163	32.28
671.351	32.24
671.538	31.83
671.726	31.8
671.913	31.69
672.101	31.83
672.289	31.96
672.476	31.63
672.664	31.85
672.851	31.91
673.039	32.08
673.226	32.14
673.413	32.18
673.601	32.55
673.788	33.06
673.976	33.1
674.163	33.19
674.35	33.53
674.538	33.85
674.725	33.79
674.912	33.68
675.1	33.71
675.287	33.82
675.474	33.96
675.662	33.87
675.849	33.58
676.036	33.51
676.223	33.38
676.411	33.13
676.598	33
676.785	32.69
676.972	32.5
677.159	32.27
677.346	31.96
677.533	31.96
677.721	31.73
677.908	31.72
678.095	31.48
678.282	31.38
678.469	31.21
678.656	31.11
678.843	31.07
679.03	31.02
679.217	30.95
679.404	30.96
679.591	30.72
679.778	30.6
679.964	30.72
680.151	30.66
680.338	30.8
680.525	30.57
680.712	30.71
680.899	30.91
681.086	30.96
681.272	31.29
681.459	31.39
681.646	31.42
681.833	31.83
682.02	31.59
682.206	31.77
682.393	31.81
682.58	31.95
682.766	32.06
682.953	32.33
683.14	32.52
683.326	32.37
683.513	32.59
683.7	32.71
683.886	32.51
684.073	32.61
684.259	32.83
684.446	32.65
684.632	32.76
684.819	32.83
685.005	32.25
685.192	32.17
685.378	31.9
685.565	31.92
685.751	31.58
685.938	31.85
686.124	31.99
686.31	31.87
686.497	32.09
686.683	32.04
686.87	31.54
687.056	31.68
687.242	31.59
687.429	31.58
687.615	31.11
687.801	31.63
687.987	31.28
688.174	31.03
688.36	30.95
688.546	30.75
688.732	30.99
688.918	31
689.105	31.27
689.291	30.88
689.477	31.38
689.663	31.54
689.849	31.41
690.035	31.95
690.221	32.17
690.407	32.04
690.593	32.19
690.779	32.01
690.965	32.37
691.151	32.28
691.337	32.78
691.523	32.66
691.709	32.85
691.895	32.72
692.081	32.55
692.267	32.72
692.453	33.11
692.639	33.5
692.825	33.82
693.011	34.27
693.196	34.73
693.382	34.77
693.568	34.8
693.754	34.82
693.94	35.13
694.125	35.42
694.311	35.34
694.497	35.1
694.682	34.99
694.868	34.98
695.054	34.44
695.239	34.42
695.425	34.77
695.611	34.42
695.796	34.17
695.982	34.48
696.168	34.13
696.353	33.78
696.539	33.67
696.724	33.11
696.91	32.94
697.095	32.58
697.281	31.82
697.466	31.24
697.652	31.42
697.837	31.04
698.023	30.27
698.208	29.97
698.393	29.97
698.579	29.83
698.764	29.77
698.949	29.5
699.135	29.69
699.32	29.86
699.505	30.1
699.691	29.92
699.876	30.32
700.061	30.66
700.246	30.97
700.432	31.08
700.617	31.39
700.802	31.75
700.987	32.23
701.172	32.12
701.358	32.47
701.543	32.9
701.728	33.57
701.913	33.72
702.098	34.43
702.283	34.82
702.468	35.31
702.653	35.91
702.838	36.35
703.023	36.6
703.208	37.47
703.393	37.81
703.578	37.51
703.763	37.5
703.948	38.08
704.133	37.81
704.318	37.73
704.503	37.82
704.688	37.9
704.873	38.29
705.057	38.51
705.242	38.78
705.427	38.76
705.612	39.01
705.797	39.05
705.981	39.01
706.166	39.31
706.351	39.27
706.536	39.54
706.72	39.54
706.905	39.09
707.09	39.19
707.274	38.93
707.459	39.04
707.644	38.86
707.828	38.88
708.013	38.72
708.197	38.17
708.382	38.25
708.567	38.13
708.751	38.17
708.936	38.36
709.12	38.26
709.305	37.76
709.489	37.53
709.673	37.47
709.858	37.44
710.042	37.46
710.227	37.56
710.411	37.53
710.596	37.28
710.78	37.01
710.964	37.24
711.149	37.15
711.333	37.45
711.517	37.26
711.702	37.38
711.886	37.36
712.07	37.37
712.254	37.2
712.438	36.89
712.623	37.01
712.807	36.64
712.991	36.33
713.175	36.04
713.359	36.14
713.544	36.15
713.728	35.75
713.912	35.63
714.096	35.27
714.28	35.16
714.464	35.03
714.648	34.46
714.832	34.55
715.016	34.21
715.2	34.02
715.384	34.04
715.568	33.75
715.752	33.67
715.936	33.56
716.12	33.49
716.304	33.43
716.488	33.19
716.671	33.12
716.855	32.66
717.039	32.58
717.223	32.49
717.407	31.84
717.59	32.04
717.774	31.82
717.958	31.85
718.142	31.89
718.325	31.8
718.509	32.63
718.693	32.88
718.877	33.49
719.06	33.86
719.244	34.36
719.428	34.36
719.611	34.61
719.795	35.61
719.978	35.3
720.162	35.52
720.345	35.8
720.529	35.4
720.713	35.21
720.896	35.6
721.08	35.74
721.263	35.8
721.446	35.98
721.63	36.06
721.813	35.81
721.997	36.37
722.18	37.05
722.364	37.41
722.547	37.55
722.73	38.18
722.914	38.32
723.097	38.24
723.28	38.47
723.464	38.76
723.647	38.66
723.83	38.39
724.013	38.01
724.197	37.1
724.38	36.77
724.563	36.66
724.746	36.45
724.929	35.53
725.112	34.97
725.296	34.43
725.479	34.21
725.662	34.47
725.845	34.34
726.028	34.17
726.211	34.59
726.394	35.26
726.577	35.32
726.76	35.5
726.943	35.75
727.126	36.08
727.309	35.87
727.492	35.5
727.675	35.03
727.858	35.1
728.041	34.77
728.224	33.87
728.407	33.19
728.589	33.11
728.772	32.8
728.955	33.19
729.138	33.57
729.321	33.81
729.503	34.38
729.686	34.8
729.869	34.86
730.052	35.2
730.234	36.07
730.417	35.92
730.6	36.04
730.782	35.84
730.965	35.61
731.148	35.33
731.33	35.99
731.513	35.77
731.695	35.78
731.878	35.59
732.061	35.76
732.243	35.22
732.426	35.99
732.608	36.13
732.791	36.95
732.973	37.2
733.156	37.31
733.338	37.09
733.52	37.53
733.703	37.87
733.885	37.95
734.068	38.28
734.25	39.08
734.432	38.81
734.615	39.01
734.797	38.85
734.979	38.62
735.162	38.55
735.344	38.53
735.526	38.52
735.708	38.45
735.891	39.13
736.073	39.56
736.255	39.19
736.437	39.06
736.619	39.24
736.802	39.3
736.984	40.04
737.166	40.43
737.348	40.03
737.53	40.14
737.712	40.07
737.894	39.92
738.076	39.52
738.258	40.11
738.44	40.27
738.622	40.28
738.804	40.28
738.986	39.88
739.168	39.74
739.35	39.95
739.532	39.86
739.714	39.75
739.896	39.81
740.078	39.82
740.259	39.08
740.441	39.65
740.623	39.68
740.805	39.48
740.987	40.14
741.168	40.57
741.35	41.31
741.532	41.53
741.714	41.73
741.895	41.72
742.077	41.93
742.259	43.49
742.44	43.82
742.622	43.64
742.804	43.91
742.985	43.77
743.167	44.12
743.348	43.97
743.53	44.77
743.711	44.7
743.893	44.94
744.075	45.69
744.256	45.11
744.438	44.8
744.619	45.02
744.8	44.78
744.982	44.72
745.163	45.05
745.345	44.97
745.526	44.44
745.707	45.42
745.889	45.25
746.07	45.28
746.252	45.05
746.433	44.39
746.614	44.35
746.795	44.4
746.977	44.46
747.158	44.1
747.339	44.29
747.52	45.21
747.702	44.26
747.883	44.61
748.064	44.36
748.245	44.69
748.426	45.24
748.607	45.37
748.788	45.26
748.97	45.54
749.151	45.07
749.332	45.4
749.513	44.25
749.694	44
749.875	44.38
750.056	43.52
750.237	43.68
750.418	43.28
750.599	43.64
750.78	43.73
750.96	43.76
751.141	44.53
751.322	44.45
751.503	44.98
751.684	44.62
751.865	43.54
752.046	43.52
752.226	43.21
752.407	43.54
752.588	42.58
752.769	42.87
752.949	42.24
753.13	41.74
753.311	41.6
753.492	41.96
753.672	42.8
753.853	44.01
754.034	44.66
754.214	44.9
754.395	45.18
754.575	45.92
754.756	46.41
754.937	46.58
755.117	46.09
755.298	45.83
755.478	45.2
755.659	45.44
755.839	45.04
756.02	45.32
756.2	44.43
756.381	44.47
756.561	44.62
756.741	44.11
756.922	43.88
757.102	43.42
757.283	43.81
757.463	43.67
757.643	42.95
757.823	42.23
758.004	40.96
758.184	41.46
758.364	40.2
758.545	39.25
758.725	38.31
758.905	37.31
759.085	37.73
759.265	36.3
759.446	35.04
759.626	34.88
759.806	34.2
759.986	33.91
760.166	32.48
760.346	32.1
760.526	31.49
760.706	31.29
760.886	31.36
761.066	30.43
761.246	29.73
761.426	30.05
761.606	29.35
761.786	29.44
761.966	29.46
762.146	29.85
762.326	29.93
762.506	29.94
762.686	29.83
762.866	29.4
763.046	29.66
763.225	29.4
763.405	29.5
763.585	29.82
763.765	29.35
763.945	29.06
764.124	29.52
764.304	29.6
764.484	30.21
764.664	30.79
764.843	32.04
765.023	32.4
765.203	34.05
765.382	34.31
765.562	34.88
765.741	36.52
765.921	37.81
766.101	38.14
766.28	39.45
766.46	40.13
766.639	40.76
766.819	40.77
766.998	40.8
767.178	40.68
767.357	41.47
767.537	41.44
767.716	42.3
767.896	43.12
768.075	43.88
768.254	44.07
768.434	44.47
768.613	44.39
768.792	45.27
768.972	46.41
769.151	46.93
769.33	47.93
769.51	48.63
769.689	48.33
769.868	48.09
770.047	48.43
770.226	49.35
770.406	49.16
770.585	50.38
770.764	50.43
770.943	50.51
771.122	50.66
771.301	49.9
771.48	50.17
771.66	50.93
771.839	51.37
772.018	50.92
772.197	50.2
772.376	51.38
772.555	50.74
772.734	50.7
772.913	49.77
773.092	49.83
773.271	50.67
773.449	51.17
773.628	51.26
773.807	51.9
773.986	53.06
774.165	53.09
774.344	53.07
774.523	54.08
774.701	53.34
774.88	54.27
775.059	53.72
775.238	53.27
775.417	53
775.595	52.59
775.774	52.38
775.953	51.46
776.131	51.82
776.31	51.16
776.489	51.35
776.667	52.91
776.846	53.52
777.025	53.92
777.203	53.73
777.382	53.54
777.56	52.32
777.739	51.86
777.917	51.57
778.096	52.24
778.274	51.79
778.453	50.63
778.631	49.98
778.81	49.64
778.988	50.07
779.166	50.02
779.345	50.34
779.523	51.51
779.702	52.45
779.88	52.88
780.058	52.29
780.237	53.03
780.415	53.58
780.593	53.82
780.771	54.05
780.95	54.44
781.128	54.62
781.306	54.62
781.484	54.43
781.662	54.22
781.841	53.04
782.019	51.74
782.197	50.62
782.375	49.56
782.553	49.75
782.731	48.73
782.909	48.03
783.087	47.58
783.265	47.2
783.443	46.88
783.621	46.39
783.799	48.37
783.977	48.85
784.155	49.57
784.333	50.14
784.511	50
784.689	50.89
784.867	51.26
785.045	51.13
785.223	51.57
785.4	51.06
785.578	50.31
785.756	48.39
785.934	48.88
786.112	49.13
786.289	48.82
786.467	46.8
786.645	46.16
786.823	46.09
787	46.24
787.178	46.35
787.356	46.67
787.533	47.45
787.711	48.2
787.889	47.79
788.066	47.16
788.244	47.17
788.421	48.66
788.599	48.91
788.776	49.25
788.954	50.01
789.131	49.28
789.309	49.03
789.486	47.19
789.664	48.19
789.841	47.89
790.019	47.44
790.196	46.61
790.373	46.88
790.551	47.95
790.728	47.95
790.906	48.29
791.083	50.02
791.26	51.1
791.437	53.22
791.615	53.17
791.792	53
791.969	53.85
792.146	54.69
792.324	54.61
792.501	54.28
792.678	53.92
792.855	52.55
793.032	50.9
793.209	51.4
793.387	50.93
793.564	51.03
793.741	52.11
793.918	51.95
794.095	52.49
794.272	51.29
794.449	51.66
794.626	51.51
794.803	52.5
794.98	52.6
795.157	50.67
795.334	49.81
795.511	49.12
795.688	48.92
795.864	47.24
796.041	48.17
796.218	48.53
796.395	49.34
796.572	48.31
796.749	46.13
796.925	46.55
797.102	46.62
797.279	46.52
797.456	45.29
797.632	45.17
797.809	46.67
797.986	44.94
798.162	44.42
798.339	42.04
798.516	42.7
798.692	43.98
798.869	43.01
799.046	44.48
799.222	46.51
799.399	46.25
799.575	46.65
799.752	46.55
799.928	46.93
800.105	47.91
800.281	48.79
800.458	48.83
800.634	49.64
800.811	50.47
800.987	49.37
801.163	47.9
801.34	48.85
801.516	48.91
801.692	48.98
801.869	49.99
802.045	49.67
802.221	49.58
802.398	49.06
802.574	47.68
802.75	48
802.926	48.24
803.103	49.07
803.279	48.64
803.455	48.59
803.631	49.15
803.807	48.45
803.983	49.38
804.16	50.25
804.336	51.3
804.512	52.86
804.688	52.29
804.864	51.9
805.04	51.28
805.216	51.76
805.392	51.7
805.568	50.48
805.744	49.57
805.92	46.98
806.096	45.27
806.272	46.31
806.448	47.66
806.623	48.45
806.799	48.15
806.975	48.88
807.151	48.73
807.327	48.03
807.503	49
807.678	50.35
807.854	52.65
808.03	51.61
808.206	50.6
808.381	49
808.557	47.3
808.733	47.78
808.908	46.59
809.084	46.9
809.26	48.12
809.435	48.9
809.611	48.45
809.787	48.22
809.962	51.41
810.138	52.04
810.313	53.15
810.489	53.74
810.664	53.24
810.84	53.51
811.015	53.11
811.191	52.61
811.366	51.85
811.542	51.78
811.717	50.66
811.892	49.45
812.068	47.83
812.243	46.61
812.419	46.14
812.594	45.9
812.769	46.96
812.944	47.81
813.12	47.03
813.295	46.37
813.47	45.3
813.645	47.14
813.821	45.95
813.996	45.43
814.171	46.73
814.346	46.62
814.521	46.78
814.697	45.2
814.872	44.08
815.047	43.18
815.222	44.58
815.397	44.32
815.572	44.34
815.747	43.94
815.922	44.77
816.097	42.22
816.272	40.62
816.447	40.49
816.622	42.95
816.797	41.96
816.972	41.42
817.147	39.55
817.322	40.17
817.496	38.3
817.671	37.5
817.846	36.47
818.021	35.79
818.196	36.68
818.371	36.51
818.545	33.48
818.72	34.81
818.895	36.12
819.069	36.09
819.244	36.68
819.419	36.2
819.594	36.39
819.768	36.49
819.943	37.15
820.117	37.49
820.292	36.82
820.467	35.11
820.641	33.52
820.816	32.01
820.99	31.8
821.165	30.09
821.339	29.15
821.514	28.1
821.688	27.74
821.863	26.92
822.037	26.1
822.212	25.39
822.386	25.46
822.56	25.15
822.735	25.12
822.909	24.6
823.084	24.65
823.258	24.61
823.432	25
823.606	24.82
823.781	25.11
823.955	25.49
824.129	26
824.303	26.01
824.478	26.31
824.652	26.54
824.826	27.39
825	27.79
825.174	28.12
825.348	28.13
825.523	28.45
825.697	28.61
825.871	28.36
826.045	28.45
826.219	28.63
826.393	28.84
826.567	28.63
826.741	28.17
826.915	27.67
827.089	27.73
827.263	27.58
827.437	27.42
827.611	27.43
827.784	27.68
827.958	27.48
828.132	27.43
828.306	27.89
828.48	28.15
828.654	27.79
828.827	28.69
829.001	28.87
829.175	28.99
829.349	29.46
829.522	29.06
829.696	29.67
829.87	29.96
830.044	30.1
830.217	30.06
830.391	30.93
830.565	33.21
830.738	33.34
830.912	33.9
831.085	34.55
831.259	34.75
831.432	37.59
831.606	37.26
831.779	39.03
831.953	40.49
832.126	39.93
832.3	39.22
832.473	36.13
832.647	36.12
832.82	36.15
832.994	36.18
833.167	35.2
833.34	34.74
833.514	34.39
833.687	32.01
833.86	31.56
834.034	30.86
834.207	29.98
834.38	30.47
834.553	30.36
834.727	29.93
834.9	29.59
835.073	30.15
835.246	29.53
835.419	29.31
835.593	30.97
835.766	30.35
835.939	30.49
836.112	32.46
836.285	33.64
836.458	34.83
836.631	35.1
836.804	35.18
836.977	36.03
837.15	37.07
837.323	38.36
837.496	40.53
837.669	43.42
837.842	46.46
838.015	45.84
838.188	45.41
838.361	43.88
838.533	46.06
838.706	47.07
838.879	47.38
839.052	48.47
839.225	49.09
839.398	48.68
839.57	48.15
839.743	46.63
839.916	47.15
840.088	47.35
840.261	48.25
840.434	49.02
840.607	49.35
840.779	48.05
840.952	47.05
841.124	47.09
841.297	46.96
841.47	47.35
841.642	49.72
841.815	51.01
841.987	51.99
842.16	52.74
842.332	50.88
842.505	52.08
842.677	54.4
842.85	55.28
843.022	56.26
843.194	59.39
843.367	59.3
843.539	61.28
843.712	58.19
843.884	58.24
844.056	57.92
844.229	56.51
844.401	59.12
844.573	61.17
844.745	58.75
844.918	57.55
845.09	52.29
845.262	52.55
845.434	50.46
845.606	53
845.779	55.93
845.951	56.48
846.123	59.12
846.295	54.89
846.467	53.56
846.639	59.41
846.811	63.88
846.983	68.46
847.155	64.12
847.327	64.72
847.499	67.57
847.671	66.18
847.843	65.5
848.015	67.18
848.187	67.13
848.359	64.07
848.531	62.59
848.703	60.98
848.875	55.9
849.047	60.39
849.218	57.56
849.39	60.23
849.562	61.73
849.734	60.5
849.905	60.71
850.077	65.29
850.249	70.68
850.421	65.16
850.592	64.16
850.764	67.31
850.936	63.38
851.107	68.4
851.279	64.82
851.451	62.81
851.622	66.9
851.794	67.75
851.965	66.29
852.137	62.24
852.308	61.95
852.48	64.76
852.651	68.95
852.823	74.62
852.994	70.49
853.166	69.65
853.337	74.53
853.509	74.39
853.68	71.03
853.851	68.72
854.023	67.66
854.194	70.92
854.365	73.19
854.537	67.57
854.708	68.44
854.879	67.21
855.05	69.63
855.222	66.34
855.393	69.65
855.564	72.86
855.735	74.05
855.906	79.21
856.078	82.66
856.249	80.6
856.42	77.86
856.591	77.54
856.762	79.89
856.933	82.32
857.104	84.18
857.275	76.63
857.446	76.32
857.617	74.9
857.788	72.06
857.959	70.9
858.13	72.1
858.301	74.5
858.472	76.09
858.643	73.85
858.814	67.49
858.985	67.36
859.155	66.3
859.326	62.31
859.497	68.77
859.668	67.68
859.839	60.85
860.009	55.4
860.18	55.68
860.351	49.56
860.522	47.24
860.692	48.86
860.863	46.03
861.034	52.84
861.204	59.93
861.375	58.39
861.546	59.13
861.716	60.21
861.887	56.45
862.057	56.16
862.228	59.05
862.398	57.05
862.569	57.67
862.739	55.7
862.91	49.96
863.08	45.43
863.251	45.86
863.421	41.19
863.592	44.66
863.762	53.39
863.932	47.92
864.103	49.64
864.273	57.97
864.443	60.08
864.614	64.76
864.784	67.75
864.954	64.93
865.125	58.52
865.295	63.54
865.465	63.98
865.635	60.28
865.805	64.92
865.976	64.58
866.146	58.8
866.316	55.54
866.486	49.07
866.656	48.76
866.826	51.55
866.996	49.21
867.166	49.92
867.336	47.87
867.506	42.28
867.676	53.34
867.846	51.38
868.016	56.28
868.186	59.64
868.356	70
868.526	69.31
868.696	68.19
868.866	73.73
869.036	71.05
869.206	70.92
869.376	74.4
869.545	68.5
869.715	70.36
869.885	71.59
870.055	69.31
870.224	69.24
870.394	71.64
870.564	75.12
870.734	70.73
870.903	67.75
871.073	72.22
871.243	73.2
871.412	65.59
871.582	62.43
871.751	59.27
871.921	60.2
872.091	55.26
872.26	55.04
872.43	58.31
872.599	63.28
872.769	66.99
872.938	67.21
873.108	67.19
873.277	69.08
873.446	68.62
873.616	70.92
873.785	72.44
873.955	68.54
874.124	65.26
874.293	62.05
874.463	58.42
874.632	55.34
874.801	49.25
874.971	49.15
875.14	51.91
875.309	47.63
875.478	48.62
875.647	41.82
875.817	43.02
875.986	45.77
876.155	46.15
876.324	45.13
876.493	51.63
876.662	55.06
876.831	57.79
877	50.92
877.17	53.26
877.339	54.6
877.508	55.37
877.677	56.45
877.846	56.76
878.015	57.82
878.184	59.7
878.352	56.91
878.521	54.54
878.69	53.71
878.859	55.8
879.028	57.21
879.197	53.88
879.366	52.52
879.534	49.4
879.703	42.71
879.872	41.06
880.041	36.88
880.21	33.22
880.378	32.53
880.547	30.48
880.716	29.96
880.884	27.41
881.053	27.43
881.222	27.03
881.39	25.45
881.559	26.9
881.727	25.27
881.896	25.6
882.065	25.86
882.233	25.13
882.402	24.18
882.57	24.25
882.739	24.73
882.907	24.68
883.076	24.36
883.244	25
883.412	24.44
883.581	25.03
883.749	25.4
883.918	25.71
884.086	27.53
884.254	28.97
884.423	29.67
884.591	30.52
884.759	30.26
884.927	31.15
885.096	30.11
885.264	31.7
885.432	31.32
885.6	31.38
885.769	32.04
885.937	29.51
886.105	31.56
886.273	32.08
886.441	33.81
886.609	35.01
886.777	33.15
886.945	39.81
887.113	41.7
887.281	43.09
887.449	43.29
887.617	39.73
887.785	40.01
887.953	42.51
888.121	39.72
888.289	35.25
888.457	32.34
888.625	43.94
888.793	36.76
888.961	34.32
889.129	36.39
889.296	41.63
889.464	48.77
889.632	50.52
889.8	42.71
889.967	45.25
890.135	53.44
