Data from 2938836__Reflection_03.txt Node
Date: Thu Mar 12 11:04:21 EDT 2015
User: robert
Spectrometer: USB4E03002
Autoset integration time: false
Trigger mode: 4
Integration Time (sec): 1.000000E-1
Scans to average: 10
Electric dark correction enabled: false
Nonlinearity correction enabled: false
Boxcar width: 5
Stray light correction enabled: false
XAxis mode: Wavelengths
Stop averaging: false
Number of Pixels in Spectrum: 3648
>>>>>Begin Spectral Data<<<<<
177.575	548.81
177.794	929.55
178.014	915.43
178.233	1012.11
178.452	955.84
178.672	1031.31
178.891	1245.04
179.11	1187.4
179.33	1100.68
179.549	936.73
179.768	922.47
179.987	1893.98
180.207	1706.78
180.426	1904.67
180.645	1336.84
180.864	911.93
181.084	1088.84
181.303	952.18
181.522	1039.52
181.741	1515.22
181.96	3002.53
182.179	3127.81
182.398	1769.71
182.618	1229.44
182.837	1130.66
183.056	1426.75
183.275	5942.31
183.494	2980.25
183.713	4453.7
183.932	-17207.41
184.151	14264.52
184.37	1696.89
184.589	3061.94
184.808	2898.59
185.027	3080.6
185.246	8697.83
185.465	-3504.46
185.684	4189.9
185.903	430700
186.122	1315
186.341	827.82
186.56	613.54
186.779	647.54
186.998	722.66
187.216	702.64
187.435	669.62
187.654	619.9
187.873	495.2
188.092	607.46
188.311	534.09
188.53	613.3
188.748	630.6
188.967	830.96
189.186	1107.89
189.405	881.77
189.623	800.31
189.842	795.11
190.061	733.23
190.28	719.1
190.498	797.81
190.717	687.24
190.936	719.39
191.154	855.03
191.373	751.23
191.592	696.97
191.81	711.26
192.029	1009.98
192.248	959.92
192.466	1060.35
192.685	1124.18
192.904	720.97
193.122	729.92
193.341	926.97
193.559	729.52
193.778	701.18
193.996	656.96
194.215	736.93
194.433	613.69
194.652	678.22
194.87	986.95
195.089	1217.98
195.307	1787.98
195.526	3802.52
195.744	5741.25
195.963	-79233.33
196.181	-4310.81
196.399	-2685.79
196.618	-2223.79
196.836	-1238.4
197.055	-1446.9
197.273	-7489.55
197.491	26763.16
197.71	122650
197.928	5157.29
198.146	4358.12
198.365	7105.88
198.583	4360.91
198.801	2056.17
199.019	1344.2
199.238	879.55
199.456	1000
199.674	982.36
199.892	888.97
200.111	786.39
200.329	761.9
200.547	658.46
200.765	612.5
200.983	617.26
201.202	743.51
201.42	702.2
201.638	668.23
201.856	737.4
202.074	883.78
202.292	1288.11
202.51	1978.31
202.728	1623.08
202.946	1932.81
203.165	1201.41
203.383	1160.18
203.601	859.9
203.819	1093.26
204.037	1192.36
204.255	889.77
204.473	709.19
204.691	628.16
204.909	605.83
205.127	620.76
205.345	546.67
205.562	550.63
205.78	578.6
205.998	676.78
206.216	533.29
206.434	467.59
206.652	555.85
206.87	638.44
207.088	648.25
207.306	531.46
207.523	489.57
207.741	515.99
207.959	525.81
208.177	450.69
208.395	416.85
208.612	450.28
208.83	469.25
209.048	397.48
209.266	399.6
209.483	348.27
209.701	410.65
209.919	412.46
210.136	457.45
210.354	555.72
210.572	692.25
210.79	748.77
211.007	1058.35
211.225	1482.64
211.442	1710.41
211.66	1357.51
211.878	2733.14
212.095	1597.32
212.313	1410.86
212.53	1321.49
212.748	1016.07
212.966	797.99
213.183	654.98
213.401	518.24
213.618	481.02
213.836	493.34
214.053	523.61
214.271	455.04
214.488	478.86
214.705	562.34
214.923	480.73
215.14	464.9
215.358	471.16
215.575	505.56
215.793	471.11
216.01	526.62
216.227	500.52
216.445	463.03
216.662	532.92
216.879	491.56
217.097	476.69
217.314	439.13
217.531	496.38
217.749	493.66
217.966	474.03
218.183	461.89
218.4	391.32
218.618	399.68
218.835	403.75
219.052	373.85
219.269	373.74
219.487	338.07
219.704	359.72
219.921	303.26
220.138	281.94
220.355	296.15
220.572	293.39
220.79	292.11
221.007	291.75
221.224	290.08
221.441	288.73
221.658	245.79
221.875	235.31
222.092	225.06
222.309	229.17
222.526	256.41
222.743	238.03
222.96	221.79
223.177	210.87
223.394	202.27
223.611	186.94
223.828	176.82
224.045	190.89
224.262	186.89
224.479	180.66
224.696	179.44
224.913	162.01
225.13	147.84
225.347	141.99
225.564	139.7
225.781	130.91
225.997	120.34
226.214	114.74
226.431	99.64
226.648	89.61
226.865	78.86
227.082	70.8
227.298	61.75
227.515	53.33
227.732	46.76
227.949	42.82
228.165	38.52
228.382	35.47
228.599	32.45
228.816	29.79
229.032	28.71
229.249	28.07
229.466	26.73
229.682	27.1
229.899	28.17
230.116	29.19
230.332	29.65
230.549	31.83
230.765	33.78
230.982	35.21
231.199	38.16
231.415	40.72
231.632	42.27
231.848	45.57
232.065	47.73
232.281	49.79
232.498	50.92
232.714	52.25
232.931	51.11
233.147	51.09
233.364	52.06
233.58	51.13
233.797	49.99
234.013	49.86
234.23	48.78
234.446	46.55
234.662	45.76
234.879	47.12
235.095	47.42
235.312	46.39
235.528	47.57
235.744	48.11
235.961	47.88
236.177	46.77
236.393	47.81
236.61	46.87
236.826	48.55
237.042	49.82
237.258	49.21
237.475	48.48
237.691	50.54
237.907	49.75
238.123	50.54
238.339	50.67
238.556	51.89
238.772	49.76
238.988	49.69
239.204	47.37
239.42	45.05
239.636	43.01
239.853	41.01
240.069	39.86
240.285	36.89
240.501	34.13
240.717	31.52
240.933	29.03
241.149	27.11
241.365	25.81
241.581	24.05
241.797	22.73
242.013	21.59
242.229	21.23
242.445	19.98
242.661	19.66
242.877	19.78
243.093	19.65
243.309	19.67
243.525	20.23
243.741	20.64
243.957	21.97
244.173	22.43
244.388	23.47
244.604	23.27
244.82	24.48
245.036	24.36
245.252	23.23
245.468	21.85
245.683	20.88
245.899	19.27
246.115	17.96
246.331	16.44
246.547	15.45
246.762	14.81
246.978	13.9
247.194	13.25
247.409	12.99
247.625	12.52
247.841	12.58
248.057	12.64
248.272	13.08
248.488	13.64
248.703	14.33
248.919	15.14
249.135	15.86
249.35	17.23
249.566	18.14
249.782	19.44
249.997	21.52
250.213	22.51
250.428	23.07
250.644	23.84
250.859	23.99
251.075	23.88
251.29	23.11
251.506	22.77
251.721	22.84
251.937	21.89
252.152	21.56
252.368	21.29
252.583	21.74
252.798	22.8
253.014	22.62
253.229	23.5
253.445	24.71
253.66	25.99
253.875	26.41
254.091	27.59
254.306	29.83
254.521	32
254.737	32.74
254.952	33.13
255.167	32.61
255.383	32.18
255.598	31.28
255.813	30.33
256.028	30.18
256.244	29.29
256.459	28.59
256.674	27.79
256.889	25.75
257.104	24.45
257.32	23.83
257.535	22.12
257.75	21.41
257.965	19.71
258.18	18.49
258.395	17.51
258.61	16.29
258.826	14.81
259.041	14.06
259.256	13.56
259.471	12.67
259.686	12.1
259.901	11.87
260.116	11.47
260.331	11.67
260.546	11.74
260.761	11.54
260.976	12.01
261.191	12.59
261.406	12.36
261.621	12.89
261.836	13.99
262.05	14.96
262.265	16.02
262.48	16.9
262.695	17.28
262.91	17.67
263.125	18.67
263.34	19.04
263.555	19.53
263.769	21.15
263.984	22.03
264.199	22.47
264.414	22.24
264.629	22.19
264.843	22.55
265.058	22.02
265.273	22.43
265.488	21.74
265.702	21.43
265.917	20.66
266.132	19.69
266.346	19.06
266.561	18.16
266.776	17.75
266.99	17.15
267.205	16.69
267.42	17.06
267.634	16.43
267.849	16.39
268.063	16.33
268.278	16.2
268.492	16.65
268.707	16.36
268.922	16.68
269.136	16.7
269.351	16.93
269.565	16.92
269.78	16.36
269.994	16.31
270.209	16.33
270.423	16.3
270.637	16.53
270.852	15.57
271.066	14.85
271.281	14.42
271.495	14.25
271.709	14.03
271.924	13.82
272.138	13.74
272.353	13.59
272.567	13.25
272.781	13.27
272.996	13.01
273.21	13.6
273.424	14.02
273.638	14.37
273.853	14.41
274.067	14.44
274.281	14.96
274.495	15.18
274.71	15.71
274.924	16.13
275.138	16.09
275.352	16.59
275.566	16.8
275.781	16.66
275.995	16.24
276.209	17.07
276.423	17.1
276.637	17.27
276.851	17.39
277.065	16.44
277.279	16.28
277.493	16.36
277.707	15.85
277.921	15.9
278.135	16.25
278.349	16.73
278.563	16.04
278.777	16.31
278.991	16.13
279.205	16.07
279.419	16.57
279.633	16.89
279.847	16.62
280.061	16.8
280.275	16.39
280.489	15.95
280.703	15.55
280.917	15.09
281.131	14.68
281.344	14.19
281.558	14.06
281.772	14.01
281.986	13.79
282.2	13.65
282.414	13.5
282.627	13.24
282.841	13.32
283.055	13.53
283.269	13.46
283.482	13.53
283.696	13.55
283.91	13.26
284.123	12.73
284.337	12.13
284.551	12.05
284.764	11.92
284.978	11.99
285.192	11.52
285.405	10.88
285.619	10.84
285.833	10.78
286.046	10.49
286.26	10.41
286.473	10.72
286.687	11.36
286.9	11.31
287.114	11.26
287.327	11.34
287.541	11.81
287.754	12.31
287.968	12.64
288.181	12.71
288.395	12.84
288.608	13.13
288.822	13.31
289.035	12.95
289.248	12.78
289.462	12.89
289.675	12.61
289.889	12.64
290.102	12.48
290.315	12.6
290.529	12.62
290.742	12.49
290.955	12.59
291.169	12.24
291.382	12.12
291.595	12.43
291.808	12.88
292.022	13.47
292.235	13.64
292.448	14.03
292.661	13.52
292.875	13.17
293.088	13.66
293.301	13.67
293.514	14
293.727	14.08
293.94	13.95
294.153	13.5
294.367	13.25
294.58	12.74
294.793	12.61
295.006	12.99
295.219	13.08
295.432	12.84
295.645	12.26
295.858	11.82
296.071	11.78
296.284	11.71
296.497	11.47
296.71	11.1
296.923	11.37
297.136	11.13
297.349	11.07
297.562	10.92
297.775	10.82
297.988	11.23
298.201	11.84
298.414	11.94
298.626	11.92
298.839	12.09
299.052	12.55
299.265	12.52
299.478	12.58
299.691	12.83
299.903	13.41
300.116	13.63
300.329	13.71
300.542	13.54
300.755	13.77
300.967	14.05
301.18	14.53
301.393	14.37
301.605	14.49
301.818	15.02
302.031	15.07
302.243	15.35
302.456	15.64
302.669	15.89
302.881	15.99
303.094	15.66
303.307	15.67
303.519	15.48
303.732	15.66
303.944	15.73
304.157	15.25
304.37	15.09
304.582	14.82
304.795	14.86
305.007	14.92
305.22	14.86
305.432	14.96
305.645	15.04
305.857	15.4
306.069	15.26
306.282	15.32
306.494	15.69
306.707	15.94
306.919	16.25
307.132	15.93
307.344	15.71
307.556	15.82
307.769	16.19
307.981	16.19
308.193	15.72
308.406	15.42
308.618	15.29
308.83	15.11
309.043	14.75
309.255	14.18
309.467	14.39
309.679	14.44
309.892	14.2
310.104	13.88
310.316	13.47
310.528	13.25
310.74	13.15
310.953	13.21
311.165	13.31
311.377	13.08
311.589	13.25
311.801	13.08
312.013	12.77
312.225	12.82
312.437	13.02
312.649	13.57
312.862	13.72
313.074	14.05
313.286	14
313.498	13.95
313.71	14.47
313.922	14.73
314.134	15.02
314.346	15.57
314.558	15.84
314.77	16.14
314.982	16.1
315.193	16.35
315.405	16.9
315.617	17
315.829	17.04
316.041	17.41
316.253	17.52
316.465	17.44
316.677	17.41
316.888	17.31
317.1	17.02
317.312	17
317.524	17.34
317.736	17.58
317.947	17.88
318.159	18.71
318.371	18.57
318.583	18.46
318.794	18.66
319.006	18.76
319.218	18.96
319.43	19.31
319.641	19.86
319.853	19.54
320.064	19.46
320.276	19.53
320.488	19.18
320.699	19.27
320.911	19.77
321.123	20.19
321.334	20.27
321.546	20.73
321.757	20.53
321.969	20.44
322.18	20.54
322.392	20.7
322.603	20.91
322.815	21.39
323.026	21.47
323.238	20.86
323.449	20.73
323.661	20.25
323.872	19.9
324.083	19.99
324.295	19.94
324.506	19.93
324.718	19.68
324.929	19.46
325.14	18.73
325.352	19.15
325.563	19.48
325.774	19.4
325.986	19.86
326.197	19.85
326.408	20.05
326.62	20.1
326.831	20.5
327.042	20.53
327.253	20.86
327.464	21.36
327.676	21.35
327.887	21.51
328.098	21.82
328.309	21.91
328.52	22.57
328.732	22.86
328.943	23.36
329.154	23.84
329.365	24.42
329.576	24.6
329.787	25.27
329.998	25.57
330.209	25.85
330.42	26.27
330.631	26.82
330.842	26.84
331.053	26.9
331.264	26.71
331.475	26.92
331.686	26.99
331.897	27.23
332.108	26.9
332.319	26.84
332.53	26.82
332.741	26.87
332.952	26.82
333.163	26.86
333.374	26.92
333.585	26.76
333.795	26.9
334.006	27.04
334.217	26.92
334.428	27.39
334.639	27.52
334.849	27.58
335.06	27.55
335.271	27.55
335.482	27.75
335.692	27.76
335.903	28.14
336.114	27.86
336.325	27.84
336.535	27.94
336.746	27.95
336.957	27.64
337.167	27.86
337.378	27.84
337.589	27.76
337.799	27.56
338.01	27.91
338.22	27.95
338.431	27.47
338.642	27.81
338.852	27.89
339.063	27.74
339.273	27.81
339.484	27.7
339.694	27.66
339.905	27.78
340.115	27.79
340.326	27.77
340.536	27.57
340.746	27.8
340.957	27.46
341.167	27.41
341.378	27.09
341.588	27.14
341.799	27.12
342.009	26.99
342.219	26.64
342.43	26.44
342.64	26.45
342.85	26.58
343.061	26.4
343.271	26.24
343.481	26.05
343.691	26.05
343.902	26.13
344.112	25.7
344.322	25.45
344.532	25.76
344.743	25.88
344.953	25.5
345.163	25.36
345.373	25.58
345.583	25.69
345.793	25.98
346.004	25.85
346.214	25.68
346.424	26.08
346.634	26.31
346.844	26.58
347.054	26.63
347.264	26.61
347.474	26.83
347.684	26.9
347.894	26.78
348.104	26.87
348.314	26.95
348.524	26.86
348.734	26.95
348.944	27.08
349.154	26.6
349.364	26.71
349.574	27.06
349.784	27.05
349.994	26.9
350.204	26.85
350.413	26.43
350.623	26.76
350.833	26.74
351.043	26.25
351.253	26.62
351.463	26.99
351.672	26.76
351.882	26.56
352.092	26.47
352.302	26.4
352.511	26.46
352.721	26.17
352.931	26.08
353.141	26.13
353.35	26.5
353.56	25.71
353.77	25.12
353.979	25.04
354.189	24.65
354.399	24.33
354.608	24.37
354.818	24.28
355.027	24.56
355.237	24.04
355.447	23.95
355.656	23.65
355.866	23.66
356.075	23.79
356.285	23.67
356.494	23.66
356.704	23.65
356.913	23.42
357.123	23.17
357.332	22.98
357.542	23.01
357.751	22.89
357.96	23.15
358.17	23.14
358.379	23.11
358.589	23.11
358.798	23.47
359.007	23.61
359.217	23.53
359.426	23.15
359.635	23.1
359.845	23.03
360.054	23
360.263	22.56
360.472	22.47
360.682	22.45
360.891	22.23
361.1	21.99
361.309	21.72
361.519	21.7
361.728	21.93
361.937	21.91
362.146	22.12
362.355	22.06
362.564	22.32
362.774	22.25
362.983	22.05
363.192	22.09
363.401	22.12
363.61	22.09
363.819	22.12
364.028	21.91
364.237	21.92
364.446	21.8
364.655	21.79
364.864	21.66
365.073	21.95
365.282	22.02
365.491	22.14
365.7	21.85
365.909	21.98
366.118	22
366.327	22.4
366.536	22.4
366.745	22.51
366.954	22.41
367.162	22.33
367.371	22.29
367.58	22.55
367.789	22.66
367.998	22.6
368.207	22.71
368.415	22.83
368.624	22.71
368.833	22.83
369.042	22.84
369.25	23.2
369.459	23.38
369.668	23.28
369.877	23.17
370.085	22.83
370.294	22.89
370.503	22.63
370.711	22.76
370.92	22.69
371.129	22.56
371.337	22.08
371.546	21.79
371.754	21.9
371.963	21.67
372.171	21.54
372.38	21.67
372.589	21.69
372.797	21.92
373.006	21.53
373.214	21.73
373.423	21.63
373.631	21.98
373.84	21.93
374.048	21.59
374.256	21.66
374.465	21.78
374.673	21.97
374.882	21.96
375.09	21.67
375.298	21.52
375.507	21.37
375.715	21.2
375.923	21
376.132	20.88
376.34	20.74
376.548	20.66
376.757	20.51
376.965	20.39
377.173	20.46
377.381	20.5
377.59	20.66
377.798	20.42
378.006	20.35
378.214	20.31
378.423	20.22
378.631	20.22
378.839	20.33
379.047	20.24
379.255	20.27
379.463	20.31
379.671	20.36
379.879	20.49
380.088	20.78
380.296	21.02
380.504	21.25
380.712	21.53
380.92	21.82
381.128	21.84
381.336	22.08
381.544	21.99
381.752	21.78
381.96	21.71
382.168	21.58
382.376	21.59
382.584	21.67
382.791	21.61
382.999	21.53
383.207	21.38
383.415	21.28
383.623	21.01
383.831	20.95
384.039	21.12
384.247	21.06
384.454	21.39
384.662	21.4
384.87	21.17
385.078	21.18
385.285	21.08
385.493	20.93
385.701	20.76
385.909	20.79
386.116	20.73
386.324	20.73
386.532	20.77
386.739	20.34
386.947	20.21
387.155	20.23
387.362	20.04
387.57	20.08
387.778	20.26
387.985	20.42
388.193	20.61
388.4	20.53
388.608	20.6
388.816	20.77
389.023	20.84
389.231	20.78
389.438	20.83
389.646	20.77
389.853	20.75
390.061	20.46
390.268	20.47
390.475	20.29
390.683	20.38
390.89	20.16
391.098	19.91
391.305	19.71
391.512	19.67
391.72	19.33
391.927	19.41
392.135	19.34
392.342	19.47
392.549	19.4
392.756	19.22
392.964	19.11
393.171	19.14
393.378	19.24
393.586	19.19
393.793	19.26
394	19.4
394.207	19.61
394.414	19.64
394.622	19.64
394.829	19.6
395.036	19.86
395.243	20.14
395.45	20.15
395.657	20.2
395.864	20.44
396.072	20.47
396.279	20.51
396.486	20.38
396.693	20.57
396.9	20.6
397.107	20.74
397.314	20.72
397.521	20.62
397.728	20.74
397.935	20.6
398.142	20.68
398.349	20.63
398.556	20.8
398.763	20.68
398.97	20.61
399.177	20.5
399.383	20.3
399.59	20.12
399.797	20.12
400.004	20.12
400.211	20.27
400.418	20.26
400.625	20.34
400.831	20.38
401.038	20.48
401.245	20.54
401.452	20.76
401.658	20.73
401.865	21.04
402.072	21.04
402.279	21.12
402.485	21.11
402.692	21.12
402.899	20.99
403.105	20.86
403.312	20.88
403.519	20.85
403.725	20.68
403.932	20.74
404.138	20.51
404.345	20.35
404.552	20.14
404.758	20.16
404.965	20.13
405.171	20.08
405.378	20.27
405.584	20.28
405.791	20.24
405.997	20.32
406.204	20.42
406.41	20.46
406.617	20.58
406.823	20.68
407.029	20.67
407.236	20.59
407.442	20.79
407.649	20.85
407.855	20.67
408.061	20.72
408.268	20.73
408.474	20.96
408.68	20.94
408.887	20.92
409.093	20.94
409.299	20.88
409.505	20.85
409.712	20.79
409.918	20.62
410.124	20.95
410.33	21
410.537	20.97
410.743	20.9
410.949	20.94
411.155	21.12
411.361	21.04
411.567	21.13
411.773	21.15
411.98	21.27
412.186	21.38
412.392	21.45
412.598	21.3
412.804	21.44
413.01	21.46
413.216	21.61
413.422	21.59
413.628	21.73
413.834	21.78
414.04	21.88
414.246	21.73
414.452	21.62
414.658	21.31
414.864	21.41
415.07	21.49
415.275	21.46
415.481	21.32
415.687	21.17
415.893	21.19
416.099	21.14
416.305	21.19
416.511	21.14
416.716	21.09
416.922	21.08
417.128	21.07
417.334	21.02
417.539	20.87
417.745	20.8
417.951	20.64
418.157	20.51
418.362	20.4
418.568	20.33
418.774	20.32
418.979	20.31
419.185	20.27
419.391	20.14
419.596	19.97
419.802	19.96
420.008	20
420.213	20.12
420.419	20.11
420.624	20.03
420.83	19.97
421.035	19.87
421.241	19.86
421.446	19.91
421.652	19.9
421.857	19.94
422.063	19.94
422.268	19.88
422.474	19.84
422.679	19.85
422.885	19.94
423.09	19.94
423.295	20
423.501	20
423.706	19.92
423.911	19.98
424.117	20.07
424.322	20.17
424.527	20.18
424.733	20.2
424.938	20.21
425.143	20.19
425.349	20.24
425.554	20.28
425.759	20.41
425.964	20.48
426.169	20.54
426.375	20.53
426.58	20.46
426.785	20.58
426.99	20.63
427.195	20.66
427.4	20.79
427.605	20.97
427.811	21.1
428.016	21.07
428.221	21.09
428.426	21.06
428.631	21.06
428.836	21.22
429.041	21.35
429.246	21.38
429.451	21.5
429.656	21.57
429.861	21.51
430.066	21.68
430.271	21.61
430.476	21.73
430.681	21.95
430.886	22.03
431.09	22.01
431.295	22.06
431.5	22.07
431.705	22.05
431.91	21.89
432.115	21.86
432.32	21.78
432.524	21.86
432.729	21.82
432.934	21.72
433.139	21.69
433.343	21.6
433.548	21.59
433.753	21.63
433.958	21.74
434.162	21.91
434.367	21.93
434.572	21.81
434.776	21.77
434.981	21.85
435.186	21.87
435.39	21.94
435.595	22.23
435.799	22.13
436.004	22.32
436.209	22.24
436.413	22.23
436.618	22.18
436.822	22.29
437.027	22.37
437.231	22.45
437.436	22.49
437.64	22.55
437.845	22.44
438.049	22.5
438.253	22.25
438.458	22.25
438.662	22.28
438.867	22.34
439.071	22.31
439.275	22.25
439.48	22.12
439.684	22.02
439.888	21.9
440.093	21.9
440.297	21.88
440.501	21.89
440.706	21.78
440.91	21.7
441.114	21.59
441.318	21.61
441.523	21.67
441.727	21.75
441.931	21.8
442.135	21.87
442.339	21.9
442.543	21.95
442.748	22
442.952	22.12
443.156	22.06
443.36	22.34
443.564	22.35
443.768	22.25
443.972	22.21
444.176	22.13
444.38	22.11
444.584	21.98
444.788	21.87
444.992	21.85
445.196	21.74
445.4	21.72
445.604	21.52
445.808	21.51
446.012	21.43
446.216	21.4
446.42	21.42
446.624	21.37
446.828	21.35
447.032	21.41
447.235	21.44
447.439	21.46
447.643	21.53
447.847	21.64
448.051	21.69
448.254	21.85
448.458	21.92
448.662	21.95
448.866	22.03
449.069	22.09
449.273	22.11
449.477	22.11
449.681	22.28
449.884	22.39
450.088	22.47
450.292	22.58
450.495	22.51
450.699	22.63
450.902	22.73
451.106	22.75
451.31	22.86
451.513	22.95
451.717	23.04
451.92	23.02
452.124	22.94
452.327	23.06
452.531	22.84
452.734	22.93
452.938	22.81
453.141	22.87
453.345	22.94
453.548	22.82
453.752	22.77
453.955	22.82
454.158	22.78
454.362	22.91
454.565	22.81
454.769	23.05
454.972	23.07
455.175	23.13
455.379	23.13
455.582	23.09
455.785	23.22
455.988	23.37
456.192	23.26
456.395	23.28
456.598	23.2
456.801	23.1
457.005	23
457.208	23.03
457.411	23
457.614	22.84
457.817	22.72
458.021	22.6
458.224	22.46
458.427	22.38
458.63	22.34
458.833	22.36
459.036	22.32
459.239	22.25
459.442	22.13
459.645	22.02
459.848	21.99
460.051	21.86
460.254	21.86
460.457	21.82
460.66	21.88
460.863	21.97
461.066	21.94
461.269	21.97
461.472	21.98
461.675	22.07
461.878	22.2
462.081	22.34
462.284	22.62
462.486	22.63
462.689	22.59
462.892	22.74
463.095	22.69
463.298	22.83
463.5	22.94
463.703	23.06
463.906	23.12
464.109	23.07
464.311	23.13
464.514	23.15
464.717	23.32
464.92	23.61
465.122	23.46
465.325	23.55
465.528	23.54
465.73	23.46
465.933	23.29
466.135	23.22
466.338	23.35
466.541	23.3
466.743	23.27
466.946	23.22
467.148	23.05
467.351	23.1
467.553	23.08
467.756	23.08
467.958	23.16
468.161	23.18
468.363	23.3
468.566	23.25
468.768	23.19
468.971	23.14
469.173	23.19
469.375	23.16
469.578	23.16
469.78	23.12
469.983	22.99
470.185	22.97
470.387	22.97
470.59	22.88
470.792	22.99
470.994	23.09
471.196	23.16
471.399	23.12
471.601	23.19
471.803	23.22
472.005	23.11
472.208	23.2
472.41	23.23
472.612	23.28
472.814	23.29
473.016	23.26
473.218	23.18
473.421	23.17
473.623	23.1
473.825	23.05
474.027	23.02
474.229	23.19
474.431	23.19
474.633	23.19
474.835	23.34
475.037	23.26
475.239	23.21
475.441	23.25
475.643	23.2
475.845	23.12
476.047	23.13
476.249	23.06
476.451	22.98
476.653	22.99
476.855	22.89
477.057	22.76
477.258	22.74
477.46	22.74
477.662	22.72
477.864	22.76
478.066	22.86
478.268	22.85
478.469	22.92
478.671	22.86
478.873	22.77
479.075	22.81
479.276	22.8
479.478	22.81
479.68	22.73
479.882	22.67
480.083	22.7
480.285	22.57
480.487	22.6
480.688	22.5
480.89	22.49
481.091	22.46
481.293	22.47
481.495	22.39
481.696	22.31
481.898	22.19
482.099	22.04
482.301	21.87
482.502	21.76
482.704	21.59
482.905	21.49
483.107	21.41
483.308	21.34
483.51	21.21
483.711	21.11
483.913	21.08
484.114	21.05
484.315	21.03
484.517	20.99
484.718	21.02
484.92	21.04
485.121	21.07
485.322	21.09
485.524	21.13
485.725	21.15
485.926	21.19
486.127	21.25
486.329	21.26
486.53	21.28
486.731	21.31
486.932	21.3
487.134	21.34
487.335	21.31
487.536	21.31
487.737	21.28
487.938	21.31
488.139	21.33
488.341	21.27
488.542	21.27
488.743	21.3
488.944	21.31
489.145	21.35
489.346	21.32
489.547	21.36
489.748	21.37
489.949	21.42
490.15	21.46
490.351	21.5
490.552	21.55
490.753	21.53
490.954	21.52
491.155	21.53
491.356	21.53
491.557	21.54
491.758	21.56
491.959	21.55
492.159	21.54
492.36	21.55
492.561	21.54
492.762	21.55
492.963	21.71
493.164	21.78
493.364	21.82
493.565	21.92
493.766	22.02
493.967	22.1
494.167	22.21
494.368	22.27
494.569	22.32
494.769	22.52
494.97	22.57
495.171	22.57
495.371	22.58
495.572	22.72
495.773	22.73
495.973	22.81
496.174	22.73
496.375	22.78
496.575	22.82
496.776	22.87
496.976	22.77
497.177	22.76
497.377	22.76
497.578	22.8
497.778	22.78
497.979	22.8
498.179	22.78
498.38	22.89
498.58	22.85
498.78	22.94
498.981	23.01
499.181	23.11
499.382	23.26
499.582	23.31
499.782	23.36
499.983	23.48
500.183	23.5
500.383	23.58
500.584	23.66
500.784	23.8
500.984	23.75
501.184	23.69
501.385	23.76
501.585	23.81
501.785	23.84
501.985	23.92
502.185	23.77
502.386	23.82
502.586	23.8
502.786	23.86
502.986	23.8
503.186	23.82
503.386	23.88
503.586	23.8
503.786	23.8
503.987	23.8
504.187	23.77
504.387	23.9
504.587	23.95
504.787	24.01
504.987	24.08
505.187	24.22
505.387	24.34
505.587	24.45
505.786	24.58
505.986	24.61
506.186	24.67
506.386	24.74
506.586	24.79
506.786	24.75
506.986	24.71
507.186	24.66
507.386	24.64
507.585	24.59
507.785	24.59
507.985	24.56
508.185	24.59
508.384	24.6
508.584	24.56
508.784	24.56
508.984	24.66
509.183	24.84
509.383	24.92
509.583	25.03
509.782	25.05
509.982	25.1
510.182	25.16
510.381	25.21
510.581	25.29
510.781	25.35
510.98	25.37
511.18	25.37
511.379	25.34
511.579	25.41
511.778	25.4
511.978	25.51
512.177	25.48
512.377	25.53
512.576	25.54
512.776	25.53
512.975	25.65
513.175	25.72
513.374	25.8
513.573	25.88
513.773	25.88
513.972	25.88
514.172	26.01
514.371	26.1
514.57	26.27
514.77	26.38
514.969	26.51
515.168	26.47
515.367	26.55
515.567	26.56
515.766	26.51
515.965	26.52
516.164	26.6
516.364	26.44
516.563	26.47
516.762	26.42
516.961	26.41
517.16	26.42
517.359	26.49
517.559	26.47
517.758	26.48
517.957	26.43
518.156	26.49
518.355	26.46
518.554	26.62
518.753	26.73
518.952	26.71
519.151	26.75
519.35	26.81
519.549	26.87
519.748	26.97
519.947	27.11
520.146	27.23
520.345	27.36
520.544	27.51
520.743	27.51
520.942	27.47
521.141	27.65
521.339	27.72
521.538	27.82
521.737	27.88
521.936	27.95
522.135	27.94
522.333	28.09
522.532	28.06
522.731	28.06
522.93	28.18
523.129	28.38
523.327	28.37
523.526	28.43
523.725	28.46
523.923	28.44
524.122	28.41
524.321	28.5
524.519	28.54
524.718	28.59
524.917	28.58
525.115	28.54
525.314	28.46
525.512	28.51
525.711	28.56
525.909	28.53
526.108	28.58
526.306	28.67
526.505	28.68
526.703	28.75
526.902	28.74
527.1	28.85
527.299	28.89
527.497	28.87
527.696	28.87
527.894	28.82
528.092	28.82
528.291	28.84
528.489	28.87
528.688	28.87
528.886	28.82
529.084	28.88
529.283	28.84
529.481	28.9
529.679	28.95
529.877	28.98
530.076	29.08
530.274	29.2
530.472	29.26
530.67	29.31
530.869	29.38
531.067	29.52
531.265	29.63
531.463	29.73
531.661	29.76
531.859	29.86
532.057	29.95
532.255	30.01
532.454	30.05
532.652	30.1
532.85	30.18
533.048	30.2
533.246	30.2
533.444	30.23
533.642	30.27
533.84	30.33
534.038	30.46
534.236	30.5
534.434	30.54
534.632	30.57
534.83	30.63
535.027	30.71
535.225	30.82
535.423	30.93
535.621	30.98
535.819	31.05
536.017	31.12
536.215	31.19
536.412	31.23
536.61	31.3
536.808	31.42
537.006	31.47
537.203	31.51
537.401	31.61
537.599	31.64
537.797	31.76
537.994	31.91
538.192	32.06
538.39	32.07
538.587	32.26
538.785	32.43
538.983	32.57
539.18	32.7
539.378	32.76
539.575	32.75
539.773	32.8
539.97	32.78
540.168	32.76
540.366	32.77
540.563	32.77
540.761	32.73
540.958	32.71
541.155	32.62
541.353	32.57
541.55	32.56
541.748	32.56
541.945	32.55
542.143	32.5
542.34	32.49
542.537	32.51
542.735	32.52
542.932	32.57
543.129	32.59
543.327	32.66
543.524	32.8
543.721	32.95
543.919	33.03
544.116	33.19
544.313	33.4
544.51	33.58
544.708	33.68
544.905	33.84
545.102	34
545.299	34.1
545.496	34.27
545.693	34.28
545.891	34.26
546.088	34.32
546.285	34.31
546.482	34.35
546.679	34.34
546.876	34.31
547.073	34.29
547.27	34.24
547.467	34.23
547.664	34.23
547.861	34.46
548.058	34.57
548.255	34.68
548.452	34.83
548.649	34.9
548.846	34.98
549.043	35.05
549.24	35.1
549.437	35.2
549.633	35.3
549.83	35.26
550.027	35.23
550.224	35.34
550.421	35.37
550.618	35.29
550.814	35.26
551.011	35.25
551.208	35.46
551.405	35.56
551.601	35.58
551.798	35.58
551.995	35.61
552.191	35.62
552.388	35.49
552.585	35.51
552.781	35.49
552.978	35.59
553.175	35.66
553.371	35.53
553.568	35.53
553.764	35.5
553.961	35.58
554.157	35.63
554.354	35.57
554.55	35.72
554.747	35.84
554.943	36.04
555.14	36.13
555.336	36.04
555.533	36.15
555.729	36.22
555.926	36.28
556.122	36.37
556.318	36.3
556.515	36.4
556.711	36.36
556.907	36.41
557.104	36.54
557.3	36.42
557.496	36.57
557.693	36.55
557.889	36.71
558.085	36.69
558.281	36.77
558.478	37.12
558.674	37.1
558.87	37.19
559.066	37.02
559.262	36.95
559.459	37.03
559.655	37.08
559.851	37.22
560.047	37.21
560.243	37.26
560.439	37.21
560.635	36.95
560.831	36.97
561.027	37.03
561.223	37.01
561.419	36.99
561.615	36.99
561.811	37.02
562.007	36.93
562.203	36.8
562.399	36.89
562.595	36.84
562.791	36.91
562.987	36.98
563.183	36.85
563.379	36.86
563.575	36.85
563.771	36.91
563.966	36.94
564.162	37.03
564.358	37.07
564.554	36.9
564.75	36.87
564.945	36.86
565.141	36.86
565.337	36.94
565.533	37.04
565.728	37.01
565.924	36.98
566.12	36.92
566.315	36.82
566.511	36.77
566.707	36.86
566.902	37.01
567.098	37.08
567.293	36.99
567.489	36.93
567.684	36.83
567.88	37.01
568.076	36.98
568.271	37.1
568.467	37.16
568.662	37.2
568.858	37.32
569.053	37.44
569.248	37.5
569.444	37.62
569.639	37.59
569.835	37.67
570.03	37.64
570.225	37.65
570.421	37.52
570.616	37.6
570.812	37.54
571.007	37.48
571.202	37.29
571.397	37.15
571.593	37.06
571.788	37.21
571.983	37.21
572.178	37.18
572.374	37.29
572.569	37.27
572.764	37.32
572.959	37.46
573.154	37.45
573.35	37.54
573.545	37.68
573.74	37.7
573.935	37.63
574.13	37.64
574.325	37.59
574.52	37.49
574.715	37.52
574.91	37.43
575.105	37.37
575.3	37.39
575.495	37.47
575.69	37.46
575.885	37.58
576.08	37.74
576.275	37.86
576.47	38.06
576.665	38.1
576.86	38.24
577.055	38.4
577.25	38.4
577.444	38.57
577.639	38.59
577.834	38.69
578.029	38.8
578.224	38.7
578.418	38.9
578.613	38.91
578.808	39
579.003	39.06
579.197	39.18
579.392	39.24
579.587	39.18
579.781	39.18
579.976	39.36
580.171	39.37
580.365	39.55
580.56	39.55
580.755	39.54
580.949	39.53
581.144	39.65
581.338	39.49
581.533	39.82
581.727	39.91
581.922	39.86
582.116	39.72
582.311	39.67
582.505	39.53
582.7	39.31
582.894	39.4
583.089	39.61
583.283	39.7
583.478	39.9
583.672	39.76
583.866	39.8
584.061	39.86
584.255	39.94
584.449	40.09
584.644	40.32
584.838	40.64
585.032	40.78
585.226	40.69
585.421	40.79
585.615	40.75
585.809	40.78
586.003	40.87
586.198	40.86
586.392	41
586.586	40.95
586.78	40.93
586.974	40.87
587.168	40.71
587.363	40.75
587.557	40.67
587.751	40.71
587.945	40.78
588.139	40.76
588.333	40.73
588.527	40.53
588.721	40.61
588.915	40.66
589.109	40.56
589.303	40.78
589.497	40.81
589.691	40.74
589.885	40.71
590.079	40.59
590.273	40.65
590.466	40.93
590.66	41.05
590.854	41.05
591.048	41.12
591.242	41.11
591.436	40.93
591.629	41.02
591.823	41.14
592.017	41.29
592.211	41.42
592.404	41.49
592.598	41.26
592.792	41.4
592.986	41.29
593.179	41.22
593.373	41.24
593.567	41.25
593.76	41.17
593.954	41.06
594.147	41.03
594.341	40.91
594.535	40.73
594.728	40.95
594.922	40.82
595.115	40.83
595.309	40.67
595.502	40.81
595.696	40.83
595.889	40.84
596.083	40.97
596.276	40.79
596.47	40.85
596.663	40.92
596.856	40.73
597.05	40.83
597.243	40.86
597.437	40.93
597.63	41.07
597.823	41.05
598.017	41.13
598.21	41.12
598.403	41.33
598.596	41.41
598.79	41.39
598.983	41.6
599.176	41.56
599.369	41.84
599.563	42.11
599.756	42.04
599.949	42.34
600.142	42.32
600.335	42.48
600.528	42.59
600.722	42.67
600.915	42.86
601.108	42.88
601.301	43.01
601.494	42.89
601.687	42.89
601.88	42.83
602.073	42.42
602.266	42.46
602.459	42.29
602.652	42.22
602.845	42.25
603.038	42.19
603.231	42.12
603.424	42
603.617	41.92
603.809	41.81
604.002	41.8
604.195	42.02
604.388	42.04
604.581	41.99
604.774	41.9
604.966	41.89
605.159	41.89
605.352	41.91
605.545	42.11
605.737	42.26
605.93	42.39
606.123	42.47
606.316	42.66
606.508	42.74
606.701	42.98
606.894	43.37
607.086	43.58
607.279	43.75
607.471	43.89
607.664	43.82
607.857	43.95
608.049	43.97
608.242	44.2
608.434	44.31
608.627	44.52
608.819	44.72
609.012	44.81
609.204	45.12
609.397	45.37
609.589	45.8
609.782	46.28
609.974	46.77
610.166	47.41
610.359	47.92
610.551	48.24
610.743	48.6
610.936	48.92
611.128	49.24
611.32	49.34
611.513	49.66
611.705	49.74
611.897	49.84
612.09	49.84
612.282	49.55
612.474	49.46
612.666	49.53
612.858	49.61
613.051	49.63
613.243	49.57
613.435	49.54
613.627	49.14
613.819	49
614.011	49.09
614.203	48.77
614.395	48.71
614.588	48.35
614.78	48.02
614.972	47.69
615.164	47.3
615.356	47.02
615.548	46.87
615.74	46.87
615.932	46.81
616.124	46.27
616.315	46.4
616.507	46.41
616.699	46.37
616.891	46.52
617.083	46.5
617.275	46.59
617.467	46.72
617.659	46.72
617.85	46.87
618.042	46.87
618.234	46.85
618.426	46.64
618.618	46.6
618.809	46.6
619.001	46.68
619.193	46.89
619.384	46.97
619.576	46.75
619.768	46.58
619.959	46.6
620.151	46.75
620.343	46.99
620.534	47.18
620.726	47.25
620.917	47.4
621.109	47.13
621.301	46.95
621.492	47.04
621.684	47.2
621.875	47.35
622.067	47.31
622.258	47.31
622.45	47.42
622.641	47.2
622.832	47.16
623.024	47.13
623.215	47.02
623.407	47.01
623.598	47.01
623.789	47.08
623.981	47.1
624.172	47.24
624.363	46.98
624.555	46.82
624.746	46.81
624.937	46.66
625.129	46.57
625.32	46.73
625.511	46.85
625.702	46.8
625.893	46.65
626.085	46.52
626.276	46.29
626.467	46.39
626.658	46.31
626.849	46.17
627.04	46.21
627.231	46.43
627.422	46.49
627.614	46.37
627.805	46.43
627.996	46.55
628.187	46.75
628.378	47.09
628.569	47.2
628.76	47.43
628.951	47.73
629.142	47.84
629.332	47.81
629.523	48
629.714	48.11
629.905	48.13
630.096	48.16
630.287	48.23
630.478	48.03
630.669	48
630.859	47.86
631.05	47.92
631.241	47.87
631.432	47.56
631.623	47.41
631.813	47.47
632.004	47.44
632.195	47.46
632.385	47.3
632.576	47.3
632.767	47.26
632.957	47.27
633.148	47.34
633.339	47.49
633.529	47.45
633.72	47.47
633.91	47.44
634.101	47.22
634.292	47.22
634.482	47.4
634.673	47.51
634.863	47.54
635.054	47.69
635.244	47.73
635.435	47.67
635.625	47.82
635.815	47.81
636.006	47.81
636.196	48.11
636.387	48.29
636.577	48.15
636.767	48.21
636.958	48.36
637.148	48.38
637.338	48.39
637.529	48.43
637.719	48.81
637.909	48.8
638.099	48.91
638.29	48.92
638.48	48.8
638.67	48.95
638.86	49.02
639.05	48.91
639.241	49.11
639.431	49.23
639.621	49.2
639.811	49
640.001	49.3
640.191	49.33
640.381	49.22
640.571	49.52
640.761	49.56
640.951	49.46
641.141	49.73
641.331	49.54
641.521	49.44
641.711	49.63
641.901	49.88
642.091	49.89
642.281	49.79
642.471	49.88
642.661	49.93
642.851	50.02
643.041	50.06
643.231	49.85
643.42	50
643.61	50.17
643.8	50.22
643.99	50.05
644.18	49.88
644.369	49.76
644.559	49.91
644.749	49.71
644.939	49.9
645.128	49.77
645.318	49.82
645.508	49.94
645.697	49.95
645.887	49.95
646.076	50.07
646.266	50.23
646.456	50.68
646.645	50.64
646.835	50.38
647.024	50.12
647.214	50.34
647.403	50.52
647.593	50.2
647.782	49.93
647.972	49.97
648.161	49.95
648.351	49.94
648.54	49.67
648.73	49.65
648.919	50.07
649.108	50.24
649.298	50.36
649.487	50.32
649.677	50.41
649.866	50.68
650.055	50.49
650.244	50.42
650.434	50.4
650.623	50.49
650.812	50.69
651.002	50.65
651.191	50.64
651.38	50.54
651.569	50.42
651.758	50.43
651.947	50.3
652.137	50.45
652.326	50.35
652.515	50.39
652.704	50.52
652.893	50.3
653.082	50.29
653.271	50.49
653.46	50.47
653.649	50.5
653.838	50.63
654.027	50.8
654.216	50.77
654.405	51.19
654.594	50.9
654.783	51
654.972	51.1
655.161	51.25
655.35	50.97
655.539	51.04
655.728	51.35
655.916	51.42
656.105	51.38
656.294	51.59
656.483	51.44
656.672	51.54
656.86	51.49
657.049	51.57
657.238	51.48
657.427	51.6
657.615	51.33
657.804	50.93
657.993	50.72
658.181	50.43
658.37	50.19
658.559	50.07
658.747	50.03
658.936	49.78
659.125	50.12
659.313	50.14
659.502	49.92
659.69	50.09
659.879	50.28
660.067	50.44
660.256	50.58
660.444	50.83
660.633	50.91
660.821	51.12
661.01	51.35
661.198	51
661.387	51.03
661.575	51.11
661.763	51.12
661.952	51.24
662.14	51.6
662.328	51.81
662.517	51.9
662.705	52
662.893	52.05
663.082	52.45
663.27	52.3
663.458	52.39
663.646	52.85
663.834	53.07
664.023	53.15
664.211	53.12
664.399	53.47
664.587	53.38
664.775	53.62
664.963	53.76
665.152	53.54
665.34	53.94
665.528	54.04
665.716	53.85
665.904	53.99
666.092	54.14
666.28	53.77
666.468	53.42
666.656	53.38
666.844	53.11
667.032	53.11
667.22	53.07
667.408	52.93
667.596	52.79
667.784	52.67
667.971	52.68
668.159	52.48
668.347	52.27
668.535	52.27
668.723	52.29
668.911	52.06
669.098	52.11
669.286	52.26
669.474	52.33
669.662	52.28
669.849	52.59
670.037	52.57
670.225	53.02
670.413	53.2
670.6	53.23
670.788	53.64
670.976	54.12
671.163	53.98
671.351	53.69
671.538	53.54
671.726	53.67
671.913	53.58
672.101	53.55
672.289	52.94
672.476	53.04
672.664	53.17
672.851	52.83
673.039	52.87
673.226	52.87
673.413	52.89
673.601	53.25
673.788	53.2
673.976	53.24
674.163	53.28
674.35	53.63
674.538	53.79
674.725	53.83
674.912	54.14
675.1	53.88
675.287	54.33
675.474	54.92
675.662	54.98
675.849	55.26
676.036	55.42
676.223	55.57
676.411	55.53
676.598	55.49
676.785	55.35
676.972	55.11
677.159	55.17
677.346	54.95
677.533	54.68
677.721	54.68
677.908	54.56
678.095	54.34
678.282	53.94
678.469	53.86
678.656	53.87
678.843	53.94
679.03	54.12
679.217	54.24
679.404	53.92
679.591	53.61
679.778	53.44
679.964	53.37
680.151	53.3
680.338	53.49
680.525	53.5
680.712	53.43
680.899	53.44
681.086	53.41
681.272	53.25
681.459	53.57
681.646	53.63
681.833	53.64
682.02	53.62
682.206	53.67
682.393	53.66
682.58	53.9
682.766	53.82
682.953	54.05
683.14	53.94
683.326	54.78
683.513	54.98
683.7	55.52
683.886	55.28
684.073	55.55
684.259	55.64
684.446	55.91
684.632	56.13
684.819	56.31
685.005	56.02
685.192	56.16
685.378	55.54
685.565	55.38
685.751	55.06
685.938	55.21
686.124	55.16
686.31	55.02
686.497	54.78
686.683	54.35
686.87	54.32
687.056	54.53
687.242	54.46
687.429	54.61
687.615	54.54
687.801	54.74
687.987	55.14
688.174	55.11
688.36	55.24
688.546	55.37
688.732	55.58
688.918	55.57
689.105	55.79
689.291	55.94
689.477	56.21
689.663	56.51
689.849	56.44
690.035	56.19
690.221	56.34
690.407	56.45
690.593	56.51
690.779	56.55
690.965	56.5
691.151	56.35
691.337	56.43
691.523	56.2
691.709	56.01
691.895	56.32
692.081	56.45
692.267	56.35
692.453	56.53
692.639	56.63
692.825	56.88
693.011	57.67
693.196	58.28
693.382	57.97
693.568	58.06
693.754	58.18
693.94	57.63
694.125	57.73
694.311	57.7
694.497	57.88
694.682	57.8
694.868	57.54
695.054	57.02
695.239	56.63
695.425	56.65
695.611	56.68
695.796	56.59
695.982	56.85
696.168	56.8
696.353	56.74
696.539	56.26
696.724	55.99
696.91	55.66
697.095	55.39
697.281	55.28
697.466	55.03
697.652	54.76
697.837	54.54
698.023	54.19
698.208	53.85
698.393	53.77
698.579	53.77
698.764	53.72
698.949	53.84
699.135	53.9
699.32	53.75
699.505	53.81
699.691	53.63
699.876	53.59
700.061	54.04
700.246	54.31
700.432	54.28
700.617	54.45
700.802	54.76
700.987	55.04
701.172	55.36
701.358	55.45
701.543	55.54
701.728	55.79
701.913	56.39
702.098	56.72
702.283	57.42
702.468	58.14
702.653	58.39
702.838	58.85
703.023	59.13
703.208	59.5
703.393	59.81
703.578	60.86
703.763	61.6
703.948	61.72
704.133	61.47
704.318	61.27
704.503	60.98
704.688	61.41
704.873	61.54
705.057	61.24
705.242	61.14
705.427	61.36
705.612	60.91
705.797	60.86
705.981	60.77
706.166	61.13
706.351	61.27
706.536	61.45
706.72	61.28
706.905	61.22
707.09	61.71
707.274	62.18
707.459	62.46
707.644	62.68
707.828	62.75
708.013	62.77
708.197	62.78
708.382	62.13
708.567	62.14
708.751	62.02
708.936	61.89
709.12	61.65
709.305	61.1
709.489	60.78
709.673	60.58
709.858	60.22
710.042	60.4
710.227	60.2
710.411	60.49
710.596	60.09
710.78	60.27
710.964	60.54
711.149	60.53
711.333	60.8
711.517	60.59
711.702	60.64
711.886	60.6
712.07	60.07
712.254	59.82
712.438	60.02
712.623	60.36
712.807	59.83
712.991	59.24
713.175	58.92
713.359	58.56
713.544	58.39
713.728	58.14
713.912	58.1
714.096	58.11
714.28	58.26
714.464	58.04
714.648	57.61
714.832	57.92
715.016	58.21
715.2	58.6
715.384	58.33
715.568	58.41
715.752	58.25
715.936	58.41
716.12	58.43
716.304	58.21
716.488	57.94
716.671	58.15
716.855	58.55
717.039	58
717.223	57.73
717.407	58.14
717.59	58.25
717.774	58.76
717.958	58.76
718.142	58.92
718.325	59.06
718.509	59.57
718.693	59.66
718.877	59.14
719.06	59.29
719.244	59.43
719.428	58.95
719.611	59.06
719.795	58.88
719.978	59.15
720.162	59.99
720.345	60.23
720.529	60.2
720.713	60.7
720.896	61.05
721.08	61.59
721.263	62.31
721.446	62.8
721.63	63.21
721.813	63.09
721.997	62.88
722.18	62.6
722.364	62.92
722.547	63.06
722.73	62.5
722.914	62.44
723.097	63.01
723.28	62.04
723.464	62.23
723.647	62.22
723.83	62.23
724.013	62.16
724.197	62.02
724.38	62.17
724.563	62.1
724.746	62.78
724.929	63.08
725.112	63.36
725.296	63.49
725.479	63.43
725.662	62.87
725.845	63.18
726.028	62.87
726.211	62.57
726.394	61.77
726.577	61.71
726.76	61.4
726.943	60.99
727.126	59.72
727.309	59.87
727.492	59.54
727.675	59.46
727.858	59.05
728.041	58.66
728.224	58.66
728.407	58.44
728.589	58.68
728.772	58.81
728.955	59.15
729.138	59.24
729.321	59.17
729.503	59.65
729.686	59.81
729.869	60.3
730.052	61.35
730.234	61.61
730.417	62.1
730.6	61.82
730.782	61.6
730.965	61.08
731.148	61.6
731.33	61.69
731.513	61.56
731.695	61.45
731.878	61.17
732.061	60.32
732.243	60.51
732.426	60.32
732.608	60.38
732.791	60.36
732.973	60.34
733.156	60.38
733.338	60.37
733.52	60.35
733.703	60.52
733.885	60.67
734.068	61.06
734.25	60.76
734.432	60.92
734.615	60.97
734.797	60.9
734.979	61.29
735.162	61.07
735.344	60.94
735.526	60.72
735.708	60.99
735.891	61.12
736.073	61.26
736.255	61.6
736.437	61.57
736.619	61.69
736.802	62.34
736.984	62.43
737.166	62.44
737.348	62.47
737.53	62.44
737.712	62.12
737.894	62.26
738.076	62.44
738.258	62.25
738.44	62.24
738.622	61.87
738.804	61.59
738.986	61.14
739.168	61.06
739.35	61.41
739.532	61.46
739.714	61.99
739.896	61.77
740.078	62.05
740.259	61.65
740.441	61.88
740.623	62.31
740.805	62.74
740.987	63.24
741.168	63.8
741.35	64
741.532	64.89
741.714	65.14
741.895	65.49
742.077	65.38
742.259	66.49
742.44	67.5
742.622	67.34
742.804	66.53
742.985	66.53
743.167	66.04
743.348	65.87
743.53	66.04
743.711	66.12
743.893	66.3
744.075	67.08
744.256	66.57
744.438	66.64
744.619	67.03
744.8	67.41
744.982	67.59
745.163	68.33
745.345	68.83
745.526	68.49
745.707	68.74
745.889	68.41
746.07	67.74
746.252	67.77
746.433	67.12
746.614	67.05
746.795	67.43
746.977	67.8
747.158	67.14
747.339	66.7
747.52	66.26
747.702	65.6
747.883	65.88
748.064	66.58
748.245	67.24
748.426	67.24
748.607	67.35
748.788	66.84
748.97	66.73
749.151	67.61
749.332	67.89
749.513	68.69
749.694	69.14
749.875	69.37
750.056	69.56
750.237	69.49
750.418	69.86
750.599	70.08
750.78	70.87
750.96	70.9
751.141	70.06
751.322	69.58
751.503	69.53
751.684	69.24
751.865	68.8
752.046	68.02
752.226	67.35
752.407	67.34
752.588	67.33
752.769	67.55
752.949	66.74
753.13	67.68
753.311	67.44
753.492	67.28
753.672	67.13
753.853	67.91
754.034	67.69
754.214	67.55
754.395	67.37
754.575	67.34
754.756	66.99
754.937	67.19
755.117	66.38
755.298	67.23
755.478	67.25
755.659	67.56
755.839	66.88
756.02	67.18
756.2	67.56
756.381	66.79
756.561	67.44
756.741	67.35
756.922	67.8
757.102	67.73
757.283	67.75
757.463	67.49
757.643	67.83
757.823	67.78
758.004	67.35
758.184	67.14
758.364	67.35
758.545	66.7
758.725	66.15
758.905	65.71
759.085	65.66
759.265	65.69
759.446	65.59
759.626	64.98
759.806	64.78
759.986	64.07
760.166	64.33
760.346	64.23
760.526	63.63
760.706	63.98
760.886	63.71
761.066	63.68
761.246	62.86
761.426	62.39
761.606	61.52
761.786	60.91
761.966	61.16
762.146	59.89
762.326	59.61
762.506	59.19
762.686	58.66
762.866	58.16
763.046	57.87
763.225	57.39
763.405	56.63
763.585	56.57
763.765	56.41
763.945	55.94
764.124	56.17
764.304	56.02
764.484	56.3
764.664	55.88
764.843	56.08
765.023	56.13
765.203	56.38
765.382	57.01
765.562	57.57
765.741	58.29
765.921	59.72
766.101	59.78
766.28	60.39
766.46	60.7
766.639	61.44
766.819	62.72
766.998	63.17
767.178	63.91
767.357	64.32
767.537	65.24
767.716	65.5
767.896	64.88
768.075	65.24
768.254	65.56
768.434	65.75
768.613	66.94
768.792	66.29
768.972	67.22
769.151	67.36
769.33	67.87
769.51	68.05
769.689	68.68
769.868	70.25
770.047	72.28
770.226	72.29
770.406	72.74
770.585	73.32
770.764	73.46
770.943	73.23
771.122	73.79
771.301	74.7
771.48	73.71
771.66	73.74
771.839	72.32
772.018	70.65
772.197	71.64
772.376	71.88
772.555	70.91
772.734	71.55
772.913	71.48
773.092	71.7
773.271	71.36
773.449	71.01
773.628	70.77
773.807	71.7
773.986	72.01
774.165	71.64
774.344	71.68
774.523	71.19
774.701	69.82
774.88	70.29
775.059	69.68
775.238	69.84
775.417	71.22
775.595	70.8
775.774	70.71
775.953	70.8
776.131	70.52
776.31	70.11
776.489	71.23
776.667	72.26
776.846	71.86
777.025	71.33
777.203	71.96
777.382	72.63
777.56	72.76
777.739	72.99
777.917	73.41
778.096	73.97
778.274	74.72
778.453	74.56
778.631	74.57
778.81	74.28
778.988	74.49
779.166	73.32
779.345	72.82
779.523	73.47
779.702	73.59
779.88	74.34
780.058	74.33
780.237	73.9
780.415	74.29
780.593	74.13
780.771	74.46
780.95	75.96
781.128	76.47
781.306	75.81
781.484	75.5
781.662	74.84
781.841	73.91
782.019	72.44
782.197	72.95
782.375	72.62
782.553	73.69
782.731	73.73
782.909	74.06
783.087	74.46
783.265	74.94
783.443	75.38
783.621	75.21
783.799	75.04
783.977	76.76
784.155	76.44
784.333	76.14
784.511	75.02
784.689	75.1
784.867	74.26
785.045	73.31
785.223	72.68
785.4	72.73
785.578	73.15
785.756	73.85
785.934	73.36
786.112	73.47
786.289	73.25
786.467	73.13
786.645	72.48
786.823	72.03
787	73.33
787.178	73.44
787.356	72.75
787.533	72.98
787.711	72.51
787.889	72.05
788.066	70.74
788.244	69.65
788.421	70.64
788.599	70.6
788.776	69.65
788.954	69.72
789.131	69.73
789.309	70.55
789.486	69.93
789.664	70.76
789.841	71.19
790.019	72.05
790.196	73.37
790.373	72.21
790.551	72.31
790.728	74.31
790.906	73.9
791.083	74.67
791.26	75.04
791.437	75.72
791.615	74.78
791.792	75.37
791.969	76.43
792.146	76.86
792.324	78.27
792.501	79.89
792.678	79.76
792.855	79.94
793.032	79.97
793.209	78.68
793.387	78.25
793.564	79.39
793.741	79.39
793.918	78.6
794.095	79.45
794.272	78.5
794.449	77.42
794.626	78.16
794.803	77.66
794.98	77.41
795.157	76.63
795.334	76.19
795.511	74.77
795.688	74.72
795.864	73.74
796.041	73.02
796.218	73.32
796.395	72.74
796.572	71.65
796.749	71.3
796.925	71.52
797.102	72.21
797.279	72.22
797.456	71.76
797.632	70.88
797.809	71.21
797.986	71.27
798.162	71.71
798.339	71.92
798.516	72.35
798.692	72.25
798.869	70.61
799.046	69.77
799.222	69.78
799.399	70.74
799.575	70.9
799.752	71.56
799.928	71.59
800.105	71.18
800.281	71.17
800.458	71.39
800.634	71.79
800.811	74.26
800.987	75.57
801.163	76.9
801.34	77.68
801.516	77.51
801.692	78.35
801.869	77.21
802.045	78.45
802.221	78.12
802.398	76.87
802.574	77.12
802.75	76.85
802.926	76.11
803.103	76.18
803.279	76.05
803.455	77.01
803.631	77.57
803.807	79.62
803.983	79.45
804.16	80.31
804.336	80.63
804.512	82.2
804.688	82.24
804.864	83.79
805.04	83.25
805.216	82.66
805.392	81.88
805.568	82.73
805.744	83.27
805.92	84.18
806.096	86.07
806.272	87.2
806.448	86.43
806.623	86.75
806.799	86.9
806.975	86.41
807.151	87.72
807.327	88.33
807.503	85.54
807.678	85.47
807.854	85.14
808.03	84.57
808.206	85.01
808.381	83.9
808.557	84.31
808.733	84.24
808.908	85.9
809.084	87.64
809.26	87.06
809.435	87.76
809.611	85.77
809.787	84.22
809.962	83.98
810.138	82.42
810.313	82.75
810.489	82.62
810.664	82.23
810.84	81.52
811.015	79.46
811.191	79.32
811.366	80.08
811.542	81.68
811.717	82.91
811.892	83.27
812.068	85.34
812.243	86.46
812.419	86.64
812.594	86.76
812.769	86.88
812.944	86.16
813.12	87.34
813.295	86.56
813.47	86.68
813.645	86.7
813.821	86.75
813.996	85.43
814.171	85.36
814.346	84.51
814.521	85.9
814.697	86.2
814.872	86.25
815.047	85.8
815.222	86.38
815.397	84.82
815.572	83.99
815.747	83.97
815.922	84.45
816.097	83.32
816.272	83.34
816.447	82.92
816.622	84.17
816.797	85.62
816.972	85.03
817.147	84.12
817.322	85.34
817.496	85.38
817.671	85.3
817.846	84.8
818.021	85.62
818.196	86.53
818.371	85.21
818.545	82.56
818.72	80.68
818.895	80.77
819.069	79.56
819.244	79.05
819.419	76.57
819.594	74.64
819.768	73.04
819.943	69.9
820.117	66.41
820.292	64.79
820.467	62.96
820.641	60.2
820.816	57.53
820.99	55.77
821.165	53.13
821.339	51.65
821.514	49.6
821.688	48.43
821.863	47.43
822.037	46.66
822.212	45.69
822.386	44.91
822.56	44.46
822.735	44.21
822.909	43.8
823.084	43.72
823.258	43.72
823.432	44.06
823.606	44.22
823.781	44.53
823.955	44.66
824.129	45.26
824.303	45.85
824.478	46.51
824.652	46.85
824.826	47.9
825	48.49
825.174	48.62
825.348	49.22
825.523	49.76
825.697	50.24
825.871	50.68
826.045	50.79
826.219	50.51
826.393	50.59
826.567	50.53
826.741	49.99
826.915	50.25
827.089	51.39
827.263	51.16
827.437	50.63
827.611	50.68
827.784	51.16
827.958	50.97
828.132	51.17
828.306	51.75
828.48	52.6
828.654	53.64
828.827	54.91
829.001	54.41
829.175	56.21
829.349	58.71
829.522	59.83
829.696	60.93
829.87	63.05
830.044	66.67
830.217	68.39
830.391	70.61
830.565	71.96
830.738	72.89
830.912	75.75
831.085	75.72
831.259	76.31
831.432	77.29
831.606	77.66
831.779	77.07
831.953	74.02
832.126	73.6
832.3	71.75
832.473	69.82
832.647	67.54
832.82	65.75
832.994	64.12
833.167	63.58
833.34	62.71
833.514	60.92
833.687	59.84
833.86	59.93
834.034	58.72
834.207	58.57
834.38	58.1
834.553	57.98
834.727	57.81
834.9	58.67
835.073	57.36
835.246	57.87
835.419	59.58
835.593	60.51
835.766	61.25
835.939	62.07
836.112	63.16
836.285	64.46
836.458	65.6
836.631	68.65
836.804	68.87
836.977	70.79
837.15	73.48
837.323	73.79
837.496	75.06
837.669	78.36
837.842	80.97
838.015	82.65
838.188	82.96
838.361	86.77
838.533	86.4
838.706	88.7
838.879	89.25
839.052	86.79
839.225	90.19
839.398	89.76
839.57	86.46
839.743	86.69
839.916	86.66
840.088	88.97
840.261	88.79
840.434	87.54
840.607	87.16
840.779	88.77
840.952	90.06
841.124	87.78
841.297	89.83
841.47	92.72
841.642	91.64
841.815	91.68
841.987	92.88
842.16	94.33
842.332	95.93
842.505	101.05
842.677	99.46
842.85	102.31
843.022	107.34
843.194	110.63
843.367	114.11
843.539	119.17
843.712	119.1
843.884	119.08
844.056	119.33
844.229	124.09
844.401	121.81
844.573	129.2
844.745	129.99
844.918	126.09
845.09	123.86
845.262	124.39
845.434	125.86
845.606	133.96
845.779	133.75
845.951	134.43
846.123	131.1
846.295	131.86
846.467	130.98
846.639	136.01
846.811	135.84
846.983	134.59
847.155	133.73
847.327	132.65
847.499	129.71
847.671	130.36
847.843	133.39
848.015	136.78
848.187	136.09
848.359	138.92
848.531	133.53
848.703	131.27
848.875	135.5
849.047	134.35
849.218	139.69
849.39	144.97
849.562	152.62
849.734	148.37
849.905	151.49
850.077	158.39
850.249	156.9
850.421	157.8
850.592	158.71
850.764	159.84
850.936	164.16
851.107	162.97
851.279	159.51
851.451	153.1
851.622	160.12
851.794	156.18
851.965	151.22
852.137	149.3
852.308	152.5
852.48	160.78
852.651	159.38
852.823	158.36
852.994	159.14
853.166	157.8
853.337	159.24
853.509	157.7
853.68	158.38
853.851	157.67
854.023	157.57
854.194	157.49
854.365	152.94
854.537	156.46
854.708	159.33
854.879	154.84
855.05	159.08
855.222	163.02
855.393	160.75
855.564	161.47
855.735	166.11
855.906	171.66
856.078	163.56
856.249	162.58
856.42	159
856.591	154.07
856.762	152.85
856.933	155.07
857.104	145.06
857.275	144.61
857.446	148.03
857.617	145.08
857.788	144.58
857.959	148.55
858.13	153.56
858.301	155.72
858.472	160.02
858.643	168.13
858.814	168.26
858.985	177.59
859.155	180.29
859.326	175.1
859.497	178.04
859.668	178.34
859.839	178.94
860.009	177.14
860.18	172.11
860.351	171.73
860.522	165.43
860.692	155.01
860.863	158.35
861.034	163.16
861.204	166.64
861.375	162.79
861.546	164.53
861.716	171.71
861.887	173.67
862.057	179.36
862.228	175.92
862.398	180.64
862.569	187.17
862.739	187.47
862.91	180.9
863.08	179.17
863.251	181.62
863.421	176.48
863.592	170.74
863.762	168.73
863.932	163.44
864.103	169.02
864.273	165.84
864.443	168.58
864.614	167.24
864.784	164.45
864.954	165.58
865.125	172.58
865.295	176.07
865.465	174.66
865.635	170.05
865.805	177.84
865.976	173.57
866.146	172.67
866.316	166.27
866.486	163.86
866.656	166.88
866.826	163.25
866.996	156.22
867.166	161.12
867.336	163.3
867.506	169.92
867.676	163.55
867.846	164.16
868.016	167.26
868.186	168.72
868.356	173.4
868.526	166.85
868.696	165.49
868.866	170.38
869.036	160.17
869.206	159.44
869.376	161.14
869.545	162.87
869.715	166.99
869.885	163.71
870.055	163.83
870.224	159.6
870.394	160.5
870.564	168.19
870.734	166.7
870.903	165.07
871.073	167.85
871.243	159.48
871.412	158.68
871.582	157.04
871.751	162.97
871.921	170.26
872.091	172.52
872.26	174.97
872.43	172.24
872.599	164.2
872.769	169
872.938	164.62
873.108	159.5
873.277	154.81
873.446	152.19
873.616	147.21
873.785	144.65
873.955	142.15
874.124	145
874.293	142.37
874.463	149.21
874.632	147.88
874.801	147.92
874.971	154.13
875.14	158.8
875.309	156.49
875.478	155.44
875.647	151.05
875.817	154.56
875.986	151.37
876.155	150.23
876.324	147.98
876.493	147.77
876.662	149.19
876.831	146.01
877	148.28
877.17	149.97
877.339	150.54
877.508	147.91
877.677	144.32
877.846	138.31
878.015	135.97
878.184	134.93
878.352	135.19
878.521	135.39
878.69	135.93
878.859	129.17
879.028	125.33
879.197	124.29
879.366	121.93
879.534	114.6
879.703	113.09
879.872	107.16
880.041	100.01
880.21	94.17
880.378	85.52
880.547	79
880.716	74.09
880.884	68.89
881.053	65.15
881.222	61.64
881.39	59.51
881.559	57.3
881.727	55.46
881.896	53.87
882.065	52.51
882.233	52
882.402	51.29
882.57	51.21
882.739	51.24
882.907	50.67
883.076	50.45
883.244	50.91
883.412	51.3
883.581	52.93
883.749	53.91
883.918	54.55
884.086	55.63
884.254	57.89
884.423	60.2
884.591	62.43
884.759	65.11
884.927	67.68
885.096	69.89
885.264	74.36
885.432	77.43
885.6	81.06
885.769	84.22
885.937	87.68
886.105	89.83
886.273	92.2
886.441	95.01
886.609	100.8
886.777	107.05
886.945	110.92
887.113	114.63
887.281	112.44
887.449	113.82
887.617	118.13
887.785	127.77
887.953	137.13
888.121	137.28
888.289	145.15
888.457	143.46
888.625	142.26
888.793	148.21
888.961	148.88
889.129	158.25
889.296	171.2
889.464	176.11
889.632	171.61
889.8	164.36
889.967	176.13
890.135	174.28
