Data from 2938721__Reflection_03.txt Node
Date: Tue Mar 17 10:44:14 EDT 2015
User: robert
Spectrometer: USB4E03002
Autoset integration time: false
Trigger mode: 4
Integration Time (sec): 1.000000E-1
Scans to average: 10
Electric dark correction enabled: false
Nonlinearity correction enabled: false
Boxcar width: 5
Stray light correction enabled: false
XAxis mode: Wavelengths
Stop averaging: false
Number of Pixels in Spectrum: 3648
>>>>>Begin Spectral Data<<<<<
177.575	326.07
177.794	265.99
178.014	214.52
178.233	242.71
178.452	325.32
178.672	327.36
178.891	401.57
179.11	600
179.33	1507.69
179.549	1024.14
179.768	825.88
179.987	358.5
180.207	509.42
180.426	-172.99
180.645	-259.89
180.864	-610.87
181.084	-227.51
181.303	-542.59
181.522	-351.06
181.741	-423.85
181.96	3542.11
182.179	4564.29
182.398	634.78
182.618	798.59
182.837	177.95
183.056	151.23
183.275	170.53
183.494	202.3
183.713	167.94
183.932	237.04
184.151	372.73
184.37	-563.64
184.589	-1658.82
184.808	-162.31
185.027	18450
185.246	1417.86
185.465	658.06
185.684	318.75
185.903	195.67
186.122	138.69
186.341	110.62
186.56	101.79
186.779	71.27
186.998	93.35
187.216	73.51
187.435	90.66
187.654	89.41
187.873	142.64
188.092	42.86
188.311	457.14
188.53	907.14
188.748	-413.04
188.967	-270.37
189.186	-417.65
189.405	-306.25
189.623	-76.77
189.842	-155.34
190.061	258.43
190.28	235.26
190.498	186.27
190.717	116.06
190.936	116.73
191.154	132.34
191.373	142.2
191.592	296.23
191.81	202.71
192.029	197.62
192.248	244.59
192.466	-5737.5
192.685	262.61
192.904	164.77
193.122	309.92
193.341	491.76
193.559	146.31
193.778	145.33
193.996	118.44
194.215	173.41
194.433	121.04
194.652	160.33
194.87	157.07
195.089	308.42
195.307	361.9
195.526	206.32
195.744	171.33
195.963	185.79
196.181	148.4
196.399	134.06
196.618	87.35
196.836	107.58
197.055	105.4
197.273	111.42
197.491	115.48
197.71	99.01
197.928	76.72
198.146	83.14
198.365	81.02
198.583	130.64
198.801	171.76
199.019	178.64
199.238	144.42
199.456	133.75
199.674	111.24
199.892	97.47
200.111	100
200.329	266.41
200.547	259.62
200.765	370.59
200.983	217.79
201.202	130.43
201.42	149.36
201.638	223.22
201.856	213.57
202.074	213.66
202.292	247.6
202.51	159.6
202.728	118.33
202.946	124.02
203.165	120.71
203.383	117.87
203.601	129.66
203.819	103.24
204.037	103.57
204.255	86.91
204.473	33.57
204.691	45.05
204.909	77.43
205.127	68.83
205.345	109.3
205.562	148.57
205.78	236.23
205.998	308
206.216	195.28
206.434	118.65
206.652	132.24
206.87	170.51
207.088	156.1
207.306	294.3
207.523	277.83
207.741	156.97
207.959	151.84
208.177	132.6
208.395	141.39
208.612	171.09
208.83	378.36
209.048	441.46
209.266	629.79
209.483	388.31
209.701	225.79
209.919	216.07
210.136	223.01
210.354	181.7
210.572	433.59
210.79	312.8
211.007	180.74
211.225	92.59
211.442	96.41
211.66	111.9
211.878	99.04
212.095	106.2
212.313	114.32
212.53	115.17
212.748	106.03
212.966	81.44
213.183	89.76
213.401	91.7
213.618	112.88
213.836	127.35
214.053	81.67
214.271	111.88
214.488	90.87
214.705	92.37
214.923	95.67
215.14	104.75
215.358	79.35
215.575	60.41
215.793	43.05
216.01	32.47
216.227	17.3
216.445	27.33
216.662	20.42
216.879	59.81
217.097	85.52
217.314	72.77
217.531	55.44
217.749	82.91
217.966	108.52
218.183	136.58
218.4	78.04
218.618	110.33
218.835	58.16
219.052	24.19
219.269	32.11
219.487	20.8
219.704	21.1
219.921	23.45
220.138	36.68
220.355	34.01
220.572	37.56
220.79	36.36
221.007	33.51
221.224	26.02
221.441	31.52
221.658	32.29
221.875	34.2
222.092	33.16
222.309	36.15
222.526	26.23
222.743	24.9
222.96	21.39
223.177	23.54
223.394	27.43
223.611	35.89
223.828	35.84
224.045	30.65
224.262	26.34
224.479	18.59
224.696	19.72
224.913	20.41
225.13	20.9
225.347	19.93
225.564	16.99
225.781	12.65
225.997	9.4
226.214	9.64
226.431	10.74
226.648	9.59
226.865	9.41
227.082	5.57
227.298	5.47
227.515	3.65
227.732	4.69
227.949	4.99
228.165	4.42
228.382	4.82
228.599	3.26
228.816	2.58
229.032	2.99
229.249	4.15
229.466	4.47
229.682	4.57
229.899	4.1
230.116	3.46
230.332	2.97
230.549	2.72
230.765	3.04
230.982	3.82
231.199	4.34
231.415	3.3
231.632	2.84
231.848	2.4
232.065	2.74
232.281	2.72
232.498	2.17
232.714	2.96
232.931	5.28
233.147	4
233.364	4.81
233.58	4.25
233.797	6.64
234.013	6.97
234.23	9.1
234.446	9.4
234.662	9.6
234.879	9.65
235.095	9.34
235.312	6.91
235.528	6.64
235.744	5.76
235.961	4.6
236.177	2.04
236.393	2.6
236.61	-0.16
236.826	-1.7
237.042	-3.05
237.258	-4.15
237.475	-1.73
237.691	-0.83
237.907	-1.45
238.123	-1.03
238.339	-0.05
238.556	0.97
238.772	-0.14
238.988	0.81
239.204	1.78
239.42	2.92
239.636	3.07
239.853	2.21
240.069	3.51
240.285	3.36
240.501	3.01
240.717	3.44
240.933	2.33
241.149	1.8
241.365	2.13
241.581	2.06
241.797	2.74
242.013	3.45
242.229	3.55
242.445	3.07
242.661	3.47
242.877	3.78
243.093	3.59
243.309	4.41
243.525	5.12
243.741	4.95
243.957	5.27
244.173	4.26
244.388	4.47
244.604	4.6
244.82	4.06
245.036	3.87
245.252	3.47
245.468	3.79
245.683	3.75
245.899	3.06
246.115	2.85
246.331	2.99
246.547	3.33
246.762	3.32
246.978	3.56
247.194	3.69
247.409	3.72
247.625	3.64
247.841	3.44
248.057	3.29
248.272	3.47
248.488	3.69
248.703	3.38
248.919	3.3
249.135	2.57
249.35	2.03
249.566	2.63
249.782	2.87
249.997	2.71
250.213	3.08
250.428	3.71
250.644	3.89
250.859	4.36
251.075	4.31
251.29	4.35
251.506	5.69
251.721	5.31
251.937	4.43
252.152	3.53
252.368	3.88
252.583	3.65
252.798	3.22
253.014	2.86
253.229	2.02
253.445	2.09
253.66	2.01
253.875	1.53
254.091	1.58
254.306	2.1
254.521	2.9
254.737	2.88
254.952	2.96
255.167	2.64
255.383	2.54
255.598	2.68
255.813	1.77
256.028	1.32
256.244	1.04
256.459	0.86
256.674	0.24
256.889	-0.3
257.104	-0.24
257.32	-0.71
257.535	-0.29
257.75	0.42
257.965	-0.19
258.18	0.56
258.395	0.82
258.61	0.87
258.826	1.04
259.041	1.54
259.256	1.7
259.471	1.75
259.686	2.16
259.901	2.5
260.116	2.47
260.331	3.16
260.546	3.38
260.761	3.31
260.976	3.52
261.191	3.59
261.406	3.63
261.621	3.9
261.836	3.7
262.05	3.55
262.265	3.53
262.48	3.62
262.695	3.08
262.91	2.64
263.125	3.21
263.34	2.68
263.555	2.71
263.769	2.3
263.984	1.55
264.199	1.82
264.414	2.24
264.629	1.6
264.843	0.79
265.058	0.62
265.273	0.48
265.488	0.5
265.702	1.32
265.917	1.69
266.132	1.87
266.346	2.5
266.561	2.52
266.776	2.12
266.99	2.02
267.205	2.34
267.42	2.65
267.634	2.8
267.849	2.52
268.063	2.2
268.278	2.09
268.492	2.01
268.707	2.47
268.922	2.88
269.136	2.66
269.351	2.77
269.565	2.9
269.78	2.86
269.994	2.59
270.209	2.65
270.423	2.76
270.637	2.7
270.852	2.35
271.066	1.39
271.281	1.27
271.495	1.48
271.709	1.4
271.924	1.4
272.138	1.26
272.353	1.31
272.567	1.27
272.781	1.4
272.996	1.82
273.21	1.92
273.424	2.22
273.638	2.2
273.853	1.99
274.067	2.21
274.281	2.55
274.495	2.6
274.71	2.69
274.924	2.52
275.138	2.15
275.352	1.43
275.566	1.71
275.781	2.02
275.995	1.98
276.209	2.68
276.423	2.62
276.637	2.26
276.851	2.22
277.065	2.65
277.279	2.46
277.493	2.73
277.707	3.27
277.921	2.82
278.135	2.51
278.349	2.19
278.563	1.5
278.777	1.29
278.991	0.97
279.205	1.03
279.419	1.12
279.633	1.37
279.847	1.22
280.061	0.78
280.275	1.18
280.489	1.51
280.703	2.15
280.917	2.47
281.131	2.81
281.344	2.7
281.558	2.72
281.772	2.27
281.986	2.44
282.2	2.73
282.414	2.74
282.627	2.69
282.841	2.09
283.055	2.04
283.269	1.76
283.482	1.66
283.696	1.9
283.91	1.93
284.123	1.75
284.337	1.45
284.551	1.14
284.764	1.4
284.978	1.46
285.192	1.4
285.405	1.17
285.619	1.21
285.833	0.87
286.046	1.07
286.26	1.15
286.473	1.4
286.687	1.84
286.9	1.8
287.114	1.47
287.327	1.53
287.541	1.94
287.754	1.81
287.968	2.19
288.181	2.66
288.395	2.45
288.608	2.68
288.822	2.76
289.035	2.82
289.248	3.03
289.462	3.18
289.675	3.2
289.889	3.24
290.102	3.54
290.315	3.35
290.529	3.48
290.742	3.4
290.955	3.29
291.169	3.32
291.382	3.19
291.595	3.07
291.808	2.96
292.022	2.5
292.235	2.51
292.448	2.36
292.661	2.18
292.875	1.89
293.088	2.11
293.301	1.81
293.514	1.78
293.727	1.64
293.94	2.08
294.153	2.34
294.367	2.57
294.58	2.43
294.793	2.15
295.006	2.05
295.219	2.28
295.432	2.17
295.645	2.3
295.858	2.43
296.071	2.45
296.284	2.27
296.497	2.33
296.71	2.56
296.923	2.73
297.136	2.89
297.349	3.09
297.562	3.04
297.775	3.1
297.988	3.3
298.201	3.2
298.414	3.15
298.626	3.2
298.839	2.92
299.052	2.63
299.265	2.66
299.478	2.86
299.691	2.92
299.903	2.95
300.116	2.76
300.329	2.44
300.542	2.4
300.755	2.51
300.967	2.41
301.18	2.87
301.393	3.18
301.605	2.99
301.818	2.98
302.031	2.86
302.243	2.79
302.456	2.78
302.669	2.95
302.881	3.1
303.094	3.29
303.307	3.17
303.519	3.02
303.732	2.83
303.944	2.54
304.157	2.61
304.37	2.88
304.582	2.84
304.795	3.06
305.007	2.95
305.22	2.84
305.432	2.66
305.645	2.81
305.857	3.02
306.069	2.78
306.282	3.14
306.494	2.91
306.707	2.92
306.919	2.73
307.132	2.81
307.344	2.97
307.556	3.11
307.769	3.11
307.981	3.2
308.193	3.24
308.406	3.55
308.618	3.44
308.83	3.7
309.043	3.31
309.255	3.33
309.467	3.38
309.679	3.35
309.892	3.4
310.104	3.39
310.316	3.33
310.528	3.17
310.74	3.04
310.953	3.38
311.165	3.3
311.377	3.82
311.589	4.27
311.801	4.14
312.013	4.37
312.225	4.48
312.437	4.76
312.649	4.76
312.862	4.8
313.074	5
313.286	4.95
313.498	5.06
313.71	4.67
313.922	4.39
314.134	4.46
314.346	4.08
314.558	3.87
314.77	3.87
314.982	4.36
315.193	4.04
315.405	3.98
315.617	3.6
315.829	3.68
316.041	3.82
316.253	3.91
316.465	4.2
316.677	4.3
316.888	4.45
317.1	4.1
317.312	3.7
317.524	4.22
317.736	5.03
317.947	5.29
318.159	5.27
318.371	5.4
318.583	5.23
318.794	5.14
319.006	5.65
319.218	5.51
319.43	5.84
319.641	5.85
319.853	6.13
320.064	6.21
320.276	6.45
320.488	6.46
320.699	6.41
320.911	7.03
321.123	6.9
321.334	6.41
321.546	6.94
321.757	6.87
321.969	6.61
322.18	6.01
322.392	5.1
322.603	5.53
322.815	5.85
323.026	5.62
323.238	4.92
323.449	4.96
323.661	5.46
323.872	5.3
324.083	5.41
324.295	5.76
324.506	6.12
324.718	6.25
324.929	5.75
325.14	5.46
325.352	5.43
325.563	5.61
325.774	5.85
325.986	5.54
326.197	5.51
326.408	5.66
326.62	5.93
326.831	6.07
327.042	6.4
327.253	6.74
327.464	7.05
327.676	7.5
327.887	8.13
328.098	8.21
328.309	8.57
328.52	8.5
328.732	8.22
328.943	7.79
329.154	7.66
329.365	7.48
329.576	7.28
329.787	6.82
329.998	6.66
330.209	6.11
330.42	6.18
330.631	6.22
330.842	6.5
331.053	7.12
331.264	7.51
331.475	7.35
331.686	7.39
331.897	7.33
332.108	7.68
332.319	8.09
332.53	8.14
332.741	8.42
332.952	8.08
333.163	7.93
333.374	7.6
333.585	7.61
333.795	7.71
334.006	7.92
334.217	8.05
334.428	7.96
334.639	8.04
334.849	8.09
335.06	7.88
335.271	8.06
335.482	8.12
335.692	8.41
335.903	8.46
336.114	8.19
336.325	8.24
336.535	8.4
336.746	8.58
336.957	7.87
337.167	7.99
337.378	7.9
337.589	8.03
337.799	8.09
338.01	8.17
338.22	7.94
338.431	8.35
338.642	8.32
338.852	8
339.063	7.91
339.273	8.52
339.484	8.43
339.694	8.18
339.905	7.94
340.115	7.95
340.326	7.56
340.536	7.77
340.746	7.59
340.957	7.4
341.167	7.45
341.378	7.53
341.588	7.39
341.799	7.48
342.009	7.72
342.219	7.7
342.43	7.64
342.64	7.85
342.85	7.77
343.061	8.01
343.271	8.23
343.481	8.35
343.691	8.17
343.902	8.02
344.112	7.96
344.322	7.81
344.532	7.9
344.743	8.21
344.953	8
345.163	8.01
345.373	7.8
345.583	7.88
345.793	7.55
346.004	7.62
346.214	7.55
346.424	7.56
346.634	7.55
346.844	7.4
347.054	7.1
347.264	7.08
347.474	6.95
347.684	7.03
347.894	6.49
348.104	6.94
348.314	6.82
348.524	7.14
348.734	7
348.944	7.03
349.154	7.07
349.364	7.04
349.574	6.95
349.784	7.05
349.994	6.96
350.204	7.4
350.413	7.28
350.623	7.63
350.833	7.45
351.043	7.76
351.253	7.82
351.463	8.09
351.672	7.98
351.882	8.16
352.092	7.96
352.302	7.7
352.511	7.68
352.721	7.45
352.931	7.4
353.141	7.46
353.35	6.91
353.56	6.84
353.77	6.47
353.979	6.77
354.189	6.81
354.399	7.28
354.608	7.84
354.818	7.65
355.027	7.89
355.237	7.6
355.447	7.42
355.656	7.74
355.866	7.67
356.075	7.63
356.285	7.7
356.494	7.6
356.704	7.26
356.913	6.88
357.123	6.95
357.332	6.97
357.542	7.21
357.751	7.27
357.96	7.27
358.17	7.26
358.379	7.49
358.589	7.05
358.798	6.88
359.007	6.88
359.217	7.15
359.426	7.11
359.635	7.11
359.845	6.93
360.054	6.93
360.263	6.87
360.472	6.94
360.682	6.79
360.891	7.02
361.1	7.31
361.309	7.22
361.519	7.05
361.728	7.01
361.937	7.01
362.146	6.96
362.355	7.02
362.564	6.93
362.774	6.97
362.983	7.15
363.192	7.12
363.401	7.01
363.61	7.07
363.819	7.31
364.028	7.33
364.237	7.25
364.446	7.33
364.655	7.34
364.864	7.15
365.073	7.05
365.282	6.96
365.491	7.04
365.7	6.82
365.909	6.96
366.118	6.55
366.327	6.41
366.536	6.29
366.745	6.42
366.954	6.33
367.162	6.61
367.371	6.62
367.58	6.78
367.789	6.7
367.998	6.74
368.207	6.64
368.415	6.89
368.624	7.03
368.833	6.97
369.042	6.93
369.25	6.87
369.459	6.65
369.668	6.55
369.877	6.33
370.085	6.2
370.294	6.45
370.503	6.4
370.711	6.12
370.92	6.1
371.129	6.17
371.337	5.93
371.546	5.89
371.754	6.13
371.963	6.29
372.171	6.24
372.38	6.21
372.589	6.04
372.797	6.14
373.006	6.28
373.214	6.18
373.423	6.18
373.631	6.16
373.84	6.12
374.048	5.85
374.256	5.6
374.465	5.82
374.673	5.79
374.882	5.65
375.09	5.47
375.298	5.5
375.507	5.51
375.715	5.37
375.923	5.13
376.132	5.17
376.34	5.23
376.548	5.31
376.757	5.09
376.965	5.13
377.173	5.17
377.381	5.3
377.59	5.34
377.798	5.35
378.006	5.55
378.214	5.65
378.423	5.59
378.631	5.72
378.839	5.55
379.047	5.51
379.255	5.53
379.463	5.4
379.671	5.21
379.879	4.96
380.088	5.03
380.296	4.83
380.504	4.94
380.712	4.91
380.92	4.68
381.128	4.81
381.336	4.74
381.544	4.72
381.752	4.78
381.96	4.72
382.168	5.06
382.376	4.88
382.584	4.94
382.791	4.91
382.999	4.71
383.207	4.87
383.415	4.95
383.623	5.1
383.831	5.19
384.039	5.32
384.247	5.41
384.454	5.38
384.662	5.18
384.87	5.16
385.078	5.11
385.285	5.29
385.493	5.32
385.701	5.09
385.909	4.96
386.116	4.68
386.324	4.73
386.532	4.75
386.739	4.45
386.947	4.59
387.155	4.46
387.362	4.43
387.57	4.3
387.778	3.95
387.985	4.21
388.193	4.19
388.4	4.26
388.608	4.12
388.816	3.97
389.023	3.9
389.231	3.89
389.438	3.96
389.646	4.06
389.853	4.09
390.061	4.38
390.268	4.32
390.475	4.27
390.683	4.23
390.89	4.04
391.098	4.2
391.305	4.39
391.512	4.48
391.72	4.49
391.927	4.57
392.135	4.52
392.342	4.38
392.549	4.27
392.756	4.36
392.964	4.4
393.171	4.71
393.378	4.67
393.586	4.52
393.793	4.52
394	4.44
394.207	4.3
394.414	4.34
394.622	4.27
394.829	4.32
395.036	4.02
395.243	3.95
395.45	3.73
395.657	3.57
395.864	3.54
396.072	3.32
396.279	3.31
396.486	3.32
396.693	3.23
396.9	3.22
397.107	3.18
397.314	3.37
397.521	3.35
397.728	3.28
397.935	3.12
398.142	3.2
398.349	3.21
398.556	3.26
398.763	3.29
398.97	3.39
399.177	3.5
399.383	3.45
399.59	3.48
399.797	3.68
400.004	3.72
400.211	3.81
400.418	3.83
400.625	3.78
400.831	3.67
401.038	3.52
401.245	3.51
401.452	3.53
401.658	3.54
401.865	3.56
402.072	3.37
402.279	3.47
402.485	3.41
402.692	3.44
402.899	3.49
403.105	3.49
403.312	3.6
403.519	3.53
403.725	3.48
403.932	3.66
404.138	3.64
404.345	3.82
404.552	3.61
404.758	3.78
404.965	3.74
405.171	3.79
405.378	3.89
405.584	3.77
405.791	3.77
405.997	3.75
406.204	3.58
406.41	3.41
406.617	3.23
406.823	3.34
407.029	3.29
407.236	3.26
407.442	3.09
407.649	3.12
407.855	3.16
408.061	3.13
408.268	3
408.474	2.92
408.68	3.11
408.887	3.01
409.093	3.01
409.299	3.11
409.505	2.87
409.712	2.97
409.918	2.99
410.124	2.9
410.33	2.87
410.537	2.83
410.743	2.91
410.949	2.81
411.155	2.8
411.361	2.81
411.567	2.67
411.773	2.88
411.98	2.83
412.186	2.66
412.392	2.72
412.598	2.66
412.804	2.79
413.01	2.87
413.216	2.9
413.422	3.11
413.628	3.19
413.834	3.2
414.04	3.18
414.246	3.17
414.452	3.06
414.658	2.94
414.864	3.15
415.07	3.13
415.275	3.04
415.481	2.9
415.687	2.92
415.893	2.94
416.099	2.92
416.305	2.9
416.511	2.91
416.716	3
416.922	3.16
417.128	3.09
417.334	3.08
417.539	3.06
417.745	3.17
417.951	3.1
418.157	3.01
418.362	2.94
418.568	2.91
418.774	2.88
418.979	2.9
419.185	2.86
419.391	2.75
419.596	2.72
419.802	2.72
420.008	2.73
420.213	2.77
420.419	2.71
420.624	2.86
420.83	2.92
421.035	3
421.241	3.06
421.446	3.04
421.652	3.13
421.857	3.17
422.063	3.17
422.268	3.13
422.474	3.06
422.679	3.1
422.885	2.99
423.09	2.98
423.295	2.94
423.501	2.87
423.706	2.9
423.911	2.85
424.117	2.81
424.322	2.88
424.527	2.9
424.733	2.88
424.938	2.9
425.143	2.92
425.349	2.91
425.554	2.9
425.759	2.94
425.964	2.86
426.169	2.89
426.375	2.94
426.58	2.91
426.785	2.83
426.99	2.88
427.195	2.83
427.4	2.79
427.605	2.71
427.811	2.74
428.016	2.64
428.221	2.65
428.426	2.56
428.631	2.57
428.836	2.34
429.041	2.37
429.246	2.35
429.451	2.37
429.656	2.37
429.861	2.38
430.066	2.33
430.271	2.3
430.476	2.44
430.681	2.45
430.886	2.31
431.09	2.54
431.295	2.51
431.5	2.53
431.705	2.46
431.91	2.51
432.115	2.56
432.32	2.59
432.524	2.69
432.729	2.57
432.934	2.63
433.139	2.65
433.343	2.53
433.548	2.51
433.753	2.49
433.958	2.58
434.162	2.48
434.367	2.4
434.572	2.33
434.776	2.34
434.981	2.44
435.186	2.48
435.39	2.57
435.595	2.6
435.799	2.72
436.004	2.72
436.209	2.71
436.413	2.85
436.618	2.89
436.822	2.94
437.027	2.93
437.231	2.82
437.436	2.73
437.64	2.71
437.845	2.69
438.049	2.66
438.253	2.72
438.458	2.71
438.662	2.6
438.867	2.7
439.071	2.67
439.275	2.59
439.48	2.57
439.684	2.7
439.888	2.63
440.093	2.73
440.297	2.71
440.501	2.66
440.706	2.62
440.91	2.66
441.114	2.5
441.318	2.55
441.523	2.59
441.727	2.57
441.931	2.52
442.135	2.55
442.339	2.48
442.543	2.57
442.748	2.53
442.952	2.6
443.156	2.56
443.36	2.65
443.564	2.62
443.768	2.65
443.972	2.72
444.176	2.75
444.38	2.78
444.584	2.8
444.788	2.69
444.992	2.68
445.196	2.68
445.4	2.66
445.604	2.62
445.808	2.58
446.012	2.53
446.216	2.48
446.42	2.42
446.624	2.38
446.828	2.35
447.032	2.29
447.235	2.28
447.439	2.23
447.643	2.32
447.847	2.38
448.051	2.4
448.254	2.35
448.458	2.34
448.662	2.38
448.866	2.35
449.069	2.33
449.273	2.4
449.477	2.37
449.681	2.34
449.884	2.32
450.088	2.3
450.292	2.32
450.495	2.32
450.699	2.37
450.902	2.37
451.106	2.45
451.31	2.5
451.513	2.49
451.717	2.54
451.92	2.61
452.124	2.52
452.327	2.52
452.531	2.48
452.734	2.59
452.938	2.63
453.141	2.54
453.345	2.55
453.548	2.55
453.752	2.63
453.955	2.65
454.158	2.8
454.362	2.83
454.565	2.77
454.769	2.88
454.972	2.88
455.175	2.86
455.379	2.88
455.582	2.9
455.785	2.87
455.988	2.82
456.192	2.78
456.395	2.66
456.598	2.6
456.801	2.62
457.005	2.55
457.208	2.54
457.411	2.56
457.614	2.6
457.817	2.51
458.021	2.49
458.224	2.49
458.427	2.44
458.63	2.41
458.833	2.45
459.036	2.39
459.239	2.38
459.442	2.34
459.645	2.26
459.848	2.24
460.051	2.26
460.254	2.24
460.457	2.17
460.66	2.19
460.863	2.17
461.066	2.23
461.269	2.28
461.472	2.31
461.675	2.37
461.878	2.41
462.081	2.43
462.284	2.41
462.486	2.46
462.689	2.5
462.892	2.53
463.095	2.55
463.298	2.51
463.5	2.53
463.703	2.5
463.906	2.54
464.109	2.58
464.311	2.58
464.514	2.53
464.717	2.61
464.92	2.62
465.122	2.75
465.325	2.79
465.528	2.73
465.73	2.71
465.933	2.75
466.135	2.68
466.338	2.69
466.541	2.64
466.743	2.74
466.946	2.56
467.148	2.6
467.351	2.43
467.553	2.41
467.756	2.49
467.958	2.5
468.161	2.57
468.363	2.62
468.566	2.57
468.768	2.62
468.971	2.65
469.173	2.57
469.375	2.66
469.578	2.79
469.78	2.76
469.983	2.69
470.185	2.64
470.387	2.48
470.59	2.42
470.792	2.43
470.994	2.47
471.196	2.44
471.399	2.66
471.601	2.6
471.803	2.53
472.005	2.62
472.208	2.67
472.41	2.7
472.612	2.78
472.814	2.78
473.016	2.87
473.218	2.85
473.421	2.97
473.623	2.95
473.825	2.92
474.027	2.82
474.229	2.83
474.431	2.83
474.633	2.92
474.835	2.89
475.037	2.95
475.239	2.84
475.441	2.77
475.643	2.62
475.845	2.65
476.047	2.67
476.249	2.75
476.451	2.67
476.653	2.68
476.855	2.55
477.057	2.58
477.258	2.51
477.46	2.55
477.662	2.53
477.864	2.5
478.066	2.52
478.268	2.54
478.469	2.56
478.671	2.54
478.873	2.46
479.075	2.45
479.276	2.4
479.478	2.45
479.68	2.47
479.882	2.52
480.083	2.6
480.285	2.62
480.487	2.58
480.688	2.56
480.89	2.56
481.091	2.63
481.293	2.66
481.495	2.68
481.696	2.69
481.898	2.62
482.099	2.62
482.301	2.6
482.502	2.56
482.704	2.56
482.905	2.54
483.107	2.55
483.308	2.53
483.51	2.53
483.711	2.51
483.913	2.49
484.114	2.51
484.315	2.52
484.517	2.51
484.718	2.49
484.92	2.51
485.121	2.52
485.322	2.54
485.524	2.55
485.725	2.54
485.926	2.53
486.127	2.57
486.329	2.56
486.53	2.57
486.731	2.55
486.932	2.6
487.134	2.62
487.335	2.63
487.536	2.62
487.737	2.64
487.938	2.67
488.139	2.69
488.341	2.67
488.542	2.72
488.743	2.72
488.944	2.75
489.145	2.73
489.346	2.67
489.547	2.67
489.748	2.67
489.949	2.68
490.15	2.67
490.351	2.68
490.552	2.69
490.753	2.66
490.954	2.63
491.155	2.66
491.356	2.68
491.557	2.71
491.758	2.72
491.959	2.74
492.159	2.7
492.36	2.72
492.561	2.71
492.762	2.68
492.963	2.69
493.164	2.71
493.364	2.7
493.565	2.72
493.766	2.67
493.967	2.73
494.167	2.69
494.368	2.74
494.569	2.77
494.769	2.79
494.97	2.84
495.171	2.87
495.371	2.86
495.572	2.87
495.773	2.86
495.973	2.91
496.174	2.86
496.375	2.89
496.575	2.88
496.776	2.87
496.976	2.91
497.177	2.95
497.377	2.9
497.578	2.96
497.778	3
497.979	2.96
498.179	2.95
498.38	2.96
498.58	2.92
498.78	2.92
498.981	2.85
499.181	2.81
499.382	2.8
499.582	2.85
499.782	2.79
499.983	2.79
500.183	2.83
500.383	2.85
500.584	2.9
500.784	2.94
500.984	2.97
501.184	3.08
501.385	3.07
501.585	3.09
501.785	3.04
501.985	3.14
502.185	3.11
502.386	3.09
502.586	3.15
502.786	3.22
502.986	3.28
503.186	3.31
503.386	3.27
503.586	3.25
503.786	3.25
503.987	3.39
504.187	3.37
504.387	3.39
504.587	3.43
504.787	3.45
504.987	3.41
505.187	3.43
505.387	3.49
505.587	3.51
505.786	3.63
505.986	3.67
506.186	3.53
506.386	3.48
506.586	3.56
506.786	3.57
506.986	3.56
507.186	3.55
507.386	3.53
507.585	3.56
507.785	3.61
507.985	3.63
508.185	3.7
508.384	3.84
508.584	3.9
508.784	3.84
508.984	3.89
509.183	3.93
509.383	3.98
509.583	4.04
509.782	4.08
509.982	4.12
510.182	4.15
510.381	4.12
510.581	4.14
510.781	4.17
510.98	4.23
511.18	4.28
511.379	4.34
511.579	4.35
511.778	4.43
511.978	4.46
512.177	4.51
512.377	4.66
512.576	4.74
512.776	4.79
512.975	4.84
513.175	4.89
513.374	4.89
513.573	4.96
513.773	4.97
513.972	4.96
514.172	4.99
514.371	4.99
514.57	4.87
514.77	4.95
514.969	4.99
515.168	5.02
515.367	5.12
515.567	5.16
515.766	5.12
515.965	5.25
516.164	5.31
516.364	5.33
516.563	5.39
516.762	5.49
516.961	5.52
517.16	5.52
517.359	5.64
517.559	5.67
517.758	5.75
517.957	5.86
518.156	5.9
518.355	5.95
518.554	6.09
518.753	6.14
518.952	6.23
519.151	6.25
519.35	6.37
519.549	6.39
519.748	6.43
519.947	6.51
520.146	6.57
520.345	6.67
520.544	6.73
520.743	6.79
520.942	6.88
521.141	6.93
521.339	7.04
521.538	7.1
521.737	7.15
521.936	7.23
522.135	7.35
522.333	7.4
522.532	7.44
522.731	7.64
522.93	7.68
523.129	7.81
523.327	7.9
523.526	7.96
523.725	8.09
523.923	8.31
524.122	8.41
524.321	8.48
524.519	8.58
524.718	8.67
524.917	8.68
525.115	8.79
525.314	8.86
525.512	8.97
525.711	9.05
525.909	9.16
526.108	9.25
526.306	9.34
526.505	9.48
526.703	9.63
526.902	9.72
527.1	9.84
527.299	9.92
527.497	9.97
527.696	10.02
527.894	10.1
528.092	10.18
528.291	10.21
528.489	10.28
528.688	10.3
528.886	10.33
529.084	10.38
529.283	10.46
529.481	10.53
529.679	10.62
529.877	10.7
530.076	10.77
530.274	10.84
530.472	10.94
530.67	11.06
530.869	11.21
531.067	11.38
531.265	11.55
531.463	11.66
531.661	11.76
531.859	11.88
532.057	12.03
532.255	12.2
532.454	12.3
532.652	12.39
532.85	12.49
533.048	12.56
533.246	12.59
533.444	12.64
533.642	12.7
533.84	12.77
534.038	12.87
534.236	12.99
534.434	13.02
534.632	13.1
534.83	13.24
535.027	13.29
535.225	13.42
535.423	13.52
535.621	13.64
535.819	13.74
536.017	13.83
536.215	13.93
536.412	14.03
536.61	14.15
536.808	14.22
537.006	14.27
537.203	14.37
537.401	14.51
537.599	14.65
537.797	14.76
537.994	14.87
538.192	14.98
538.39	15.08
538.587	15.2
538.785	15.29
538.983	15.41
539.18	15.6
539.378	15.83
539.575	15.93
539.773	16.02
539.97	16.1
540.168	16.19
540.366	16.31
540.563	16.39
540.761	16.38
540.958	16.46
541.155	16.51
541.353	16.53
541.55	16.53
541.748	16.53
541.945	16.61
542.143	16.69
542.34	16.71
542.537	16.77
542.735	16.85
542.932	16.99
543.129	17.11
543.327	17.2
543.524	17.34
543.721	17.46
543.919	17.66
544.116	17.74
544.313	17.93
544.51	18.16
544.708	18.26
544.905	18.47
545.102	18.59
545.299	18.68
545.496	18.88
545.693	18.99
545.891	19.02
546.088	18.98
546.285	19.06
546.482	19.13
546.679	19.17
546.876	19.23
547.073	19.22
547.27	19.21
547.467	19.18
547.664	19.15
547.861	19.19
548.058	19.29
548.255	19.38
548.452	19.43
548.649	19.39
548.846	19.4
549.043	19.54
549.24	19.55
549.437	19.62
549.633	19.78
549.83	19.87
550.027	19.87
550.224	19.9
550.421	20.06
550.618	20.04
550.814	20.12
551.011	20.11
551.208	20
551.405	19.94
551.601	19.99
551.798	19.94
551.995	19.99
552.191	20.03
552.388	20.04
552.585	20.04
552.781	20.04
552.978	19.91
553.175	19.98
553.371	20.1
553.568	20.31
553.764	20.32
553.961	20.35
554.157	20.35
554.354	20.35
554.55	20.39
554.747	20.47
554.943	20.52
555.14	20.68
555.336	20.76
555.533	20.78
555.729	20.73
555.926	20.79
556.122	20.86
556.318	20.83
556.515	20.97
556.711	21.02
556.907	20.98
557.104	21.03
557.3	21.05
557.496	21.03
557.693	20.99
557.889	21.04
558.085	21.07
558.281	21.17
558.478	21.18
558.674	21.05
558.87	21.06
559.066	21.13
559.262	21.18
559.459	21.25
559.655	21.3
559.851	21.44
560.047	21.57
560.243	21.61
560.439	21.51
560.635	21.65
560.831	21.81
561.027	21.86
561.223	21.79
561.419	21.84
561.615	21.88
561.811	21.98
562.007	22
562.203	21.95
562.399	22.02
562.595	22.19
562.791	22.15
562.987	22.13
563.183	22.1
563.379	22.15
563.575	22.18
563.771	22.14
563.966	22.02
564.162	21.95
564.358	21.82
564.554	21.91
564.75	21.82
564.945	21.9
565.141	21.94
565.337	22.05
565.533	22.1
565.728	22.1
565.924	22.12
566.12	22.19
566.315	22.19
566.511	22.38
566.707	22.26
566.902	22.36
567.098	22.36
567.293	22.36
567.489	22.27
567.684	22.27
567.88	22.27
568.076	22.31
568.271	22.39
568.467	22.52
568.662	22.52
568.858	22.68
569.053	22.76
569.248	22.75
569.444	22.76
569.639	22.84
569.835	23.01
570.03	23
570.225	23.03
570.421	22.97
570.616	22.95
570.812	22.94
571.007	22.93
571.202	22.75
571.397	22.82
571.593	22.84
571.788	22.85
571.983	22.75
572.178	22.82
572.374	22.87
572.569	22.93
572.764	23.01
572.959	23.01
573.154	23
573.35	23.13
573.545	23.14
573.74	23.17
573.935	23.18
574.13	23.2
574.325	23.21
574.52	23.17
574.715	23.22
574.91	23.22
575.105	23.19
575.3	23.25
575.495	23.32
575.69	23.36
575.885	23.42
576.08	23.45
576.275	23.52
576.47	23.53
576.665	23.63
576.86	23.74
577.055	23.82
577.25	23.95
577.444	23.94
577.639	23.91
577.834	23.95
578.029	23.96
578.224	24
578.418	24.03
578.613	24.19
578.808	24.22
579.003	24.14
579.197	24.13
579.392	24.1
579.587	24.13
579.781	24.15
579.976	24.18
580.171	24.15
580.365	24.26
580.56	24.34
580.755	24.21
580.949	24.28
581.144	24.24
581.338	24.25
581.533	24.37
581.727	24.31
581.922	24.33
582.116	24.48
582.311	24.56
582.505	24.61
582.7	24.55
582.894	24.66
583.089	24.62
583.283	24.64
583.478	24.59
583.672	24.51
583.866	24.77
584.061	24.83
584.255	24.76
584.449	24.84
584.644	24.84
584.838	24.9
585.032	24.91
585.226	24.96
585.421	25.14
585.615	25.3
585.809	25.45
586.003	25.35
586.198	25.35
586.392	25.4
586.586	25.41
586.78	25.34
586.974	25.41
587.168	25.51
587.363	25.48
587.557	25.38
587.751	25.37
587.945	25.3
588.139	25.4
588.333	25.18
588.527	25.15
588.721	25.11
588.915	25.21
589.109	25.07
589.303	25
589.497	25.02
589.691	25.03
589.885	24.95
590.079	24.89
590.273	24.85
590.466	25.16
590.66	25.13
590.854	25.26
591.048	25.24
591.242	25.2
591.436	25.31
591.629	25.26
591.823	25.23
592.017	25.46
592.211	25.51
592.404	25.44
592.598	25.48
592.792	25.54
592.986	25.68
593.179	25.66
593.373	25.72
593.567	25.67
593.76	25.77
593.954	25.88
594.147	25.85
594.341	25.93
594.535	25.9
594.728	25.87
594.922	25.93
595.115	25.73
595.309	25.81
595.502	25.9
595.696	25.9
595.889	25.96
596.083	25.89
596.276	25.79
596.47	25.91
596.663	25.87
596.856	25.83
597.05	25.78
597.243	25.7
597.437	25.68
597.63	25.66
597.823	25.65
598.017	25.62
598.21	25.67
598.403	25.75
598.596	25.59
598.79	25.76
598.983	25.85
599.176	25.86
599.369	26.07
599.563	26.16
599.756	26.28
599.949	26.26
600.142	26.2
600.335	26.24
600.528	26.18
600.722	26.27
600.915	26.19
601.108	26.26
601.301	26.27
601.494	26.25
601.687	26.17
601.88	26.12
602.073	26.2
602.266	26.33
602.459	26.27
602.652	26.23
602.845	26.21
603.038	26.35
603.231	26.27
603.424	26.22
603.617	26.24
603.809	26.23
604.002	26.2
604.195	26.1
604.388	25.89
604.581	25.93
604.774	25.96
604.966	25.9
605.159	25.74
605.352	25.77
605.545	25.76
605.737	25.67
605.93	25.73
606.123	25.77
606.316	25.94
606.508	26.03
606.701	26.19
606.894	26.3
607.086	26.35
607.279	26.52
607.471	26.59
607.664	26.64
607.857	26.82
608.049	26.97
608.242	27.22
608.434	27.42
608.627	27.82
608.819	28.08
609.012	28.47
609.204	29.04
609.397	29.54
609.589	30.02
609.782	30.74
609.974	31.37
610.166	32.05
610.359	32.68
610.551	33.16
610.743	33.76
610.936	34.14
611.128	34.55
611.32	34.78
611.513	34.89
611.705	35.07
611.897	35.1
612.09	34.97
612.282	34.71
612.474	34.29
612.666	34.03
612.858	33.61
613.051	33.46
613.243	32.98
613.435	32.62
613.627	32.38
613.819	32.05
614.011	31.65
614.203	31.3
614.395	30.79
614.588	30.76
614.78	30.42
614.972	30.19
615.164	29.82
615.356	29.73
615.548	29.53
615.74	29.35
615.932	29.17
616.124	29.09
616.315	29.12
616.507	29.12
616.699	28.83
616.891	28.83
617.083	28.73
617.275	28.55
617.467	28.33
617.659	28.41
617.85	28.35
618.042	28.32
618.234	28.21
618.426	27.96
618.618	27.73
618.809	27.64
619.001	27.82
619.193	27.71
619.384	27.86
619.576	27.92
619.768	27.93
619.959	27.83
620.151	27.69
620.343	27.63
620.534	27.88
620.726	27.98
620.917	28.19
621.109	27.97
621.301	28.03
621.492	28.29
621.684	28.32
621.875	28.16
622.067	28.37
622.258	28.51
622.45	28.53
622.641	28.44
622.832	28.63
623.024	28.42
623.215	28.56
623.407	28.69
623.598	28.52
623.789	28.46
623.981	28.49
624.172	28.33
624.363	28.29
624.555	28.43
624.746	28.27
624.937	28.17
625.129	28.18
625.32	28.08
625.511	27.83
625.702	27.77
625.893	27.91
626.085	27.98
626.276	28
626.467	27.94
626.658	27.89
626.849	28.03
627.04	28.08
627.231	28.18
627.422	28.16
627.614	28.19
627.805	28.09
627.996	28.04
628.187	27.91
628.378	27.96
628.569	28.09
628.76	28.04
628.951	28.03
629.142	28.25
629.332	28.37
629.523	28.53
629.714	28.66
629.905	28.77
630.096	28.86
630.287	29.04
630.478	29.09
630.669	29.26
630.859	29.28
631.05	29.34
631.241	29.08
631.432	28.84
631.623	28.7
631.813	28.72
632.004	28.63
632.195	28.56
632.385	28.41
632.576	28.39
632.767	28.07
632.957	28.04
633.148	27.93
633.339	27.96
633.529	28.02
633.72	28.11
633.91	28.1
634.101	28.25
634.292	28.22
634.482	28.19
634.673	28.13
634.863	28.32
635.054	28.29
635.244	28.46
635.435	28.44
635.625	28.61
635.815	28.51
636.006	28.43
636.196	28.36
636.387	28.15
636.577	28.1
636.767	28.02
636.958	28.01
637.148	28.12
637.338	27.88
637.529	27.95
637.719	27.85
637.909	27.91
638.099	27.99
638.29	27.91
638.48	28.27
638.67	28.53
638.86	28.64
639.05	28.7
639.241	28.66
639.431	28.95
639.621	28.98
639.811	29.02
640.001	29.1
640.191	28.96
640.381	28.82
640.571	28.69
640.761	28.58
640.951	28.49
641.141	28.19
641.331	28.07
641.521	27.84
641.711	27.8
641.901	27.86
642.091	27.86
642.281	28.1
642.471	28.37
642.661	28.45
642.851	28.43
643.041	28.41
643.231	28.31
643.42	28.61
643.61	28.47
643.8	28.37
643.99	28.21
644.18	28.02
644.369	27.68
644.559	27.58
644.749	27.51
644.939	27.45
645.128	27.56
645.318	27.78
645.508	27.72
645.697	27.86
645.887	27.83
646.076	28.13
646.266	28.29
646.456	28.51
646.645	28.7
646.835	28.54
647.024	28.65
647.214	28.68
647.403	28.77
647.593	28.7
647.782	28.83
647.972	28.99
648.161	28.63
648.351	28.69
648.54	28.88
648.73	28.89
648.919	29.11
649.108	29.15
649.298	29.12
649.487	29.14
649.677	29.01
649.866	29.01
650.055	29.08
650.244	29.08
650.434	29.11
650.623	29.06
650.812	28.96
651.002	28.81
651.191	28.91
651.38	29.04
651.569	29.1
651.758	29.27
651.947	29.15
652.137	28.98
652.326	29.22
652.515	29.07
652.704	29.14
652.893	29.21
653.082	29.18
653.271	29.06
653.46	28.81
653.649	28.76
653.838	28.75
654.027	28.96
654.216	29.09
654.405	29.16
654.594	29.07
654.783	28.94
654.972	29.03
655.161	29.27
655.35	29.25
655.539	29.47
655.728	29.39
655.916	29.34
656.105	29.16
656.294	28.93
656.483	28.67
656.672	28.89
656.86	28.88
657.049	28.83
657.238	28.63
657.427	28.56
657.615	28.57
657.804	28.63
657.993	28.76
658.181	28.77
658.37	28.85
658.559	28.78
658.747	28.78
658.936	28.76
659.125	28.77
659.313	28.74
659.502	28.85
659.69	28.79
659.879	28.76
660.067	28.72
660.256	28.68
660.444	28.84
660.633	29.03
660.821	29.01
661.01	29.08
661.198	29.14
661.387	29.29
661.575	29.24
661.763	29.29
661.952	29.5
662.14	29.39
662.328	29.63
662.517	29.6
662.705	29.8
662.893	29.9
663.082	29.76
663.27	29.66
663.458	29.59
663.646	29.77
663.834	29.73
664.023	29.66
664.211	29.83
664.399	29.8
664.587	29.72
664.775	29.53
664.963	29.39
665.152	29.48
665.34	29.7
665.528	29.87
665.716	29.93
665.904	29.89
666.092	29.9
666.28	29.91
666.468	29.92
666.656	29.97
666.844	29.97
667.032	30.17
667.22	30.25
667.408	30.01
667.596	29.76
667.784	29.64
667.971	29.67
668.159	29.41
668.347	29.33
668.535	29.03
668.723	28.96
668.911	28.88
669.098	28.84
669.286	28.82
669.474	28.73
669.662	29.08
669.849	28.99
670.037	29.11
670.225	29.2
670.413	29.14
670.6	29.41
670.788	29.59
670.976	29.59
671.163	29.72
671.351	29.69
671.538	29.81
671.726	29.63
671.913	29.7
672.101	29.66
672.289	29.9
672.476	30.12
672.664	30.14
672.851	29.93
673.039	30.07
673.226	29.67
673.413	29.84
673.601	29.88
673.788	30.01
673.976	30.29
674.163	30.37
674.35	30.26
674.538	30.08
674.725	30.01
674.912	30.31
675.1	30.32
675.287	30.69
675.474	30.58
675.662	30.58
675.849	30.37
676.036	30.13
676.223	29.99
676.411	29.85
676.598	30.03
676.785	30.17
676.972	29.86
677.159	29.82
677.346	29.63
677.533	29.67
677.721	29.72
677.908	29.77
678.095	29.58
678.282	29.63
678.469	29.68
678.656	29.39
678.843	29.21
679.03	29.36
679.217	29.64
679.404	29.67
679.591	29.75
679.778	29.74
679.964	29.67
680.151	29.89
680.338	29.72
680.525	29.72
680.712	30.13
680.899	30.37
681.086	30.52
681.272	30.19
681.459	30.12
681.646	30.12
681.833	29.91
682.02	30.08
682.206	30.2
682.393	30.21
682.58	30.19
682.766	29.91
682.953	29.82
683.14	29.59
683.326	29.84
683.513	29.69
683.7	29.48
683.886	29.61
684.073	29.6
684.259	29.5
684.446	29.7
684.632	29.65
684.819	29.54
685.005	29.4
685.192	29.41
685.378	29.11
685.565	29.42
685.751	29.52
685.938	29.69
686.124	29.73
686.31	29.56
686.497	29.55
686.683	29.59
686.87	29.62
687.056	29.67
687.242	29.71
687.429	29.94
687.615	29.94
687.801	29.99
687.987	29.93
688.174	30.02
688.36	30.02
688.546	30.31
688.732	30.32
688.918	30.53
689.105	30.85
689.291	31.13
689.477	31.17
689.663	31.01
689.849	30.96
690.035	30.85
690.221	30.76
690.407	30.95
690.593	30.7
690.779	30.64
690.965	30.56
691.151	30.53
691.337	30.32
691.523	30.22
691.709	30.48
691.895	30.68
692.081	30.87
692.267	30.84
692.453	30.88
692.639	31.29
692.825	31.5
693.011	31.42
693.196	31.29
693.382	31.13
693.568	31.04
693.754	30.97
693.94	30.68
694.125	30.69
694.311	30.57
694.497	30.33
694.682	30.03
694.868	29.99
695.054	30.16
695.239	30.19
695.425	30.3
695.611	30.14
695.796	30.04
695.982	30.21
696.168	30.26
696.353	30.48
696.539	30.57
696.724	30.29
696.91	30.25
697.095	30.4
697.281	30.11
697.466	30.19
697.652	30.44
697.837	30.46
698.023	30.41
698.208	30.25
698.393	30.09
698.579	30.11
698.764	30.19
698.949	30.32
699.135	30.17
699.32	30.14
699.505	30.11
699.691	30.14
699.876	30.02
700.061	29.87
700.246	29.81
700.432	29.81
700.617	29.82
700.802	30.09
700.987	30.19
701.172	30.18
701.358	30.43
701.543	30.54
701.728	30.61
701.913	31.08
702.098	31.33
702.283	31.48
702.468	31.79
702.653	31.83
702.838	31.59
703.023	31.78
703.208	31.62
703.393	31.48
703.578	31.49
703.763	31.58
703.948	31.23
704.133	31.28
704.318	31.68
704.503	31.93
704.688	32.23
704.873	32.64
705.057	32.73
705.242	32.86
705.427	33.5
705.612	33.63
705.797	33.79
705.981	34.31
706.166	34.58
706.351	34.58
706.536	34.79
706.72	34.64
706.905	34.69
707.09	34.72
707.274	35.09
707.459	34.73
707.644	34.83
707.828	34.71
708.013	34.62
708.197	34.78
708.382	34.62
708.567	34.56
708.751	34.43
708.936	34.25
709.12	33.89
709.305	34.06
709.489	34.26
709.673	33.87
709.858	33.94
710.042	33.7
710.227	33.63
710.411	33.88
710.596	33.53
710.78	33.58
710.964	33.9
711.149	34.04
711.333	33.77
711.517	33.63
711.702	33.95
711.886	33.78
712.07	33.68
712.254	33.46
712.438	33.15
712.623	32.8
712.807	32.55
712.991	31.93
713.175	31.54
713.359	31.45
713.544	31.37
713.728	31.13
713.912	30.76
714.096	30.72
714.28	30.61
714.464	30.23
714.648	30.13
714.832	30.27
715.016	30.42
715.2	30.61
715.384	30.49
715.568	30.42
715.752	30.48
715.936	30.83
716.12	31.04
716.304	31.12
716.488	31.44
716.671	31.69
716.855	31.55
717.039	31.15
717.223	30.85
717.407	30.5
717.59	30.54
717.774	30.31
717.958	30.12
718.142	29.86
718.325	29.36
718.509	29
718.693	28.83
718.877	28.9
719.06	29.35
719.244	29.69
719.428	30.27
719.611	30.52
719.795	31.3
719.978	31.27
720.162	31.69
720.345	32.31
720.529	32.64
720.713	32.78
720.896	32.55
721.08	32.23
721.263	32.56
721.446	32.66
721.63	32.4
721.813	31.68
721.997	32.18
722.18	31.58
722.364	30.86
722.547	30.61
722.73	30.53
722.914	30.96
723.097	31.23
723.28	30.93
723.464	30.83
723.647	30.85
723.83	30.71
724.013	30.36
724.197	30.69
724.38	31.44
724.563	31.59
724.746	31.57
724.929	31.15
725.112	31.3
725.296	31.02
725.479	31.13
725.662	31.04
725.845	31.2
726.028	31.24
726.211	31.13
726.394	31.1
726.577	31.23
726.76	31.52
726.943	32
727.126	31.61
727.309	31.76
727.492	31.41
727.675	31.33
727.858	31.33
728.041	31.05
728.224	30.94
728.407	30.67
728.589	30.62
728.772	30.82
728.955	30.58
729.138	31.02
729.321	30.75
729.503	30.83
729.686	30.87
729.869	30.83
730.052	31.2
730.234	31.12
730.417	30.92
730.6	30.38
730.782	30.02
730.965	29.79
731.148	29.77
731.33	29.86
731.513	29.95
731.695	29.7
731.878	29.88
732.061	29.62
732.243	29.89
732.426	30.18
732.608	30.84
732.791	30.86
732.973	30.97
733.156	30.82
733.338	30.9
733.52	30.8
733.703	31.44
733.885	31.41
734.068	31.6
734.25	31.62
734.432	31.62
734.615	31.16
734.797	31.6
734.979	32.19
735.162	32.13
735.344	32.03
735.526	32.2
735.708	31.82
735.891	31.65
736.073	31.8
736.255	31.82
736.437	31.51
736.619	31.69
736.802	31.02
736.984	30.79
737.166	31.01
737.348	31.56
737.53	31.74
737.712	32.21
737.894	31.79
738.076	31.84
738.258	31.99
738.44	32.03
738.622	32.37
738.804	32.74
738.986	32.41
739.168	32.47
739.35	32.16
739.532	31.67
739.714	31.2
739.896	31.76
740.078	31.69
740.259	31.66
740.441	32.47
740.623	32.16
740.805	31.75
740.987	31.7
741.168	31.47
741.35	31.55
741.532	32.07
741.714	31.97
741.895	32.16
742.077	32.26
742.259	32.02
742.44	31.99
742.622	32.4
742.804	32.67
742.985	32.72
743.167	33.19
743.348	33.42
743.53	33.49
743.711	33.58
743.893	33.26
744.075	32.69
744.256	32.36
744.438	31.96
744.619	31.9
744.8	32.07
744.982	32.4
745.163	32.58
745.345	32.95
745.526	32.58
745.707	32.78
745.889	33.36
746.07	33.95
746.252	33.8
746.433	33.8
746.614	33.86
746.795	33.61
746.977	33.89
747.158	34.01
747.339	33.13
747.52	33.53
747.702	33.36
747.883	32.68
748.064	33.03
748.245	33.24
748.426	33.09
748.607	32.54
748.788	33.06
748.97	32.77
749.151	31.42
749.332	31.53
749.513	31.77
749.694	31.78
749.875	32.79
750.056	32.25
750.237	32.1
750.418	32.74
750.599	32.99
750.78	32.6
750.96	32.29
751.141	33.51
751.322	33.73
751.503	33.46
751.684	33.55
751.865	32.43
752.046	31.93
752.226	32.83
752.407	32.69
752.588	32.4
752.769	32.67
752.949	32.48
753.13	32.09
753.311	32.21
753.492	32.27
753.672	32.47
753.853	32.99
754.034	32.99
754.214	32.66
754.395	32.01
754.575	32.76
754.756	32.77
754.937	33.77
755.117	33.51
755.298	33.26
755.478	33.11
755.659	32.99
755.839	32.78
756.02	33.17
756.2	33.43
756.381	33.87
756.561	33.38
756.741	33.86
756.922	33.8
757.102	34.39
757.283	34.77
757.463	34.63
757.643	34.13
757.823	33.76
758.004	32.99
758.184	32.5
758.364	31.81
758.545	31.65
758.725	30.53
758.905	30.28
759.085	29.55
759.265	28.88
759.446	28.41
759.626	28.2
759.806	28.49
759.986	29.1
760.166	29.02
760.346	29.05
760.526	28.98
760.706	29.35
760.886	29.23
761.066	29.11
761.246	29.09
761.426	29.79
761.606	30.33
761.786	30.79
761.966	30.25
762.146	29.88
762.326	29.89
762.506	29.81
762.686	29.45
762.866	29.39
763.046	29.5
763.225	29.59
763.405	29.24
763.585	28.97
763.765	28.65
763.945	29.21
764.124	29.36
764.304	29.52
764.484	29.42
764.664	29.63
764.843	29.44
765.023	29.21
765.203	29.09
765.382	29.27
765.562	29.67
765.741	29.46
765.921	29.6
766.101	30.2
766.28	30.31
766.46	31.05
766.639	30.98
766.819	31.63
766.998	32.07
767.178	32.14
767.357	31.5
767.537	31.5
767.716	32.54
767.896	31.77
768.075	31.46
768.254	31.59
768.434	31.71
768.613	32.45
768.792	32.03
768.972	32.54
769.151	33.28
769.33	34.34
769.51	34.13
769.689	33.72
769.868	34.2
770.047	35.22
770.226	35.24
770.406	35.37
770.585	34.63
770.764	35.27
770.943	35.22
771.122	35.54
771.301	36.55
771.48	36.65
771.66	36.93
771.839	37.02
772.018	36.06
772.197	35.92
772.376	36.17
772.555	37.03
772.734	36.16
772.913	35.5
773.092	34.79
773.271	32.5
773.449	33.13
773.628	32.58
773.807	32.87
773.986	32.62
774.165	33.42
774.344	32.91
774.523	32.68
774.701	33.51
774.88	34.82
775.059	34.63
775.238	35.33
775.417	34.57
775.595	35.76
775.774	35.6
775.953	36.28
776.131	36.45
776.31	35.98
776.489	36.52
776.667	36.14
776.846	35.99
777.025	36.08
777.203	35.81
777.382	35.61
777.56	34.48
777.739	35.06
777.917	34.19
778.096	33.99
778.274	34.2
778.453	33.3
778.631	33.76
778.81	32.73
778.988	32.67
779.166	32.53
779.345	33.02
779.523	32.42
779.702	32.01
779.88	32.66
780.058	32.04
780.237	33
780.415	33.23
780.593	33.51
780.771	33.75
780.95	34.03
781.128	34.6
781.306	35
781.484	35.92
781.662	36.61
781.841	36.14
782.019	35.29
782.197	33.55
782.375	33.62
782.553	32.66
782.731	32.64
782.909	32.24
783.087	33.4
783.265	33.05
783.443	32.89
783.621	31.69
783.799	31.92
783.977	32.45
784.155	33.11
784.333	33.13
784.511	33.68
784.689	33.77
784.867	34.7
785.045	33.45
785.223	33.27
785.4	34.06
785.578	34.43
785.756	35.29
785.934	35.21
786.112	35.45
786.289	34.94
786.467	35.23
786.645	36.28
786.823	34.77
787	34.85
787.178	33.63
787.356	32.75
787.533	33.21
787.711	32.86
787.889	33.31
788.066	32.49
788.244	32.4
788.421	31.19
788.599	29.97
788.776	31.05
788.954	30.58
789.131	31.16
789.309	30.54
789.486	29.85
789.664	29.32
789.841	29.05
790.019	29.88
790.196	29.35
790.373	29.62
790.551	29.84
790.728	30.44
790.906	32.02
791.083	33.15
791.26	33.64
791.437	32.24
791.615	32.01
791.792	32.3
791.969	32.31
792.146	33.16
792.324	33.48
792.501	34.55
792.678	33.86
792.855	32.93
793.032	31.92
793.209	32.51
793.387	34.21
793.564	35.57
793.741	35.07
793.918	34.76
794.095	35.23
794.272	35.17
794.449	34.61
794.626	35.22
794.803	35.07
794.98	35.77
795.157	35.2
795.334	34.87
795.511	34.16
795.688	34.41
795.864	34.34
796.041	34.12
796.218	33.57
796.395	33.09
796.572	32.02
796.749	32.96
796.925	32.75
797.102	32.82
797.279	32.33
797.456	32.34
797.632	31.47
797.809	31.69
797.986	31.62
798.162	32.15
798.339	32.16
798.516	32.22
798.692	32.01
798.869	32.26
799.046	32.27
799.222	33.57
799.399	33
799.575	33.38
799.752	32.61
799.928	33.07
800.105	32.95
800.281	32.37
800.458	33.04
800.634	31.82
800.811	30.7
800.987	31.01
801.163	30.36
801.34	30.59
801.516	31.2
801.692	31.17
801.869	31.24
802.045	31.14
802.221	32.33
802.398	31.47
802.574	32.78
802.75	33.61
802.926	32.55
803.103	32.11
803.279	31.82
803.455	32.28
803.631	33.2
803.807	32.07
803.983	33.66
804.16	32.39
804.336	32.34
804.512	30.49
804.688	29.89
804.864	30.39
805.04	31.59
805.216	33.36
805.392	32.84
805.568	33
805.744	33.3
805.92	30.72
806.096	31.86
806.272	32.34
806.448	32.69
806.623	33.34
806.799	34.26
806.975	33.93
807.151	32.55
807.327	32.31
807.503	32.53
807.678	33.29
807.854	34.54
808.03	33.4
808.206	33.45
808.381	33.55
808.557	33.5
808.733	32.72
808.908	32.88
809.084	33.35
809.26	33.16
809.435	32.51
809.611	31.82
809.787	32.18
809.962	33.16
810.138	33.16
810.313	33.23
810.489	33.23
810.664	33.43
810.84	32.52
811.015	31.87
811.191	32.76
811.366	33.01
811.542	33.49
811.717	33.64
811.892	33.43
812.068	32.86
812.243	33.52
812.419	33.82
812.594	33.89
812.769	34.9
812.944	35.03
813.12	34.4
813.295	33.95
813.47	32.63
813.645	32.03
813.821	31.97
813.996	32.35
814.171	32
814.346	31.5
814.521	30.81
814.697	29.04
814.872	27.85
815.047	28.38
815.222	28.38
815.397	28.1
815.572	28.99
815.747	28.88
815.922	28.7
816.097	29.21
816.272	29.9
816.447	29.66
816.622	30.68
816.797	33.08
816.972	32.21
817.147	32.62
817.322	34.75
817.496	32.17
817.671	30.94
817.846	30.91
818.021	32.2
818.196	31.61
818.371	32.53
818.545	32.61
818.72	31.16
818.895	31.93
819.069	30.6
819.244	29.36
819.419	31.1
819.594	32.28
819.768	31.84
819.943	30.88
820.117	30.5
820.292	29.71
820.467	28.74
820.641	29.1
820.816	28.88
820.99	29.04
821.165	28.55
821.339	28.1
821.514	27.4
821.688	27.11
821.863	26.58
822.037	26.37
822.212	26.26
822.386	26.29
822.56	26.23
822.735	26.18
822.909	26.13
823.084	26.22
823.258	26.14
823.432	26.2
823.606	26.3
823.781	26.42
823.955	26.69
824.129	26.73
824.303	26.86
824.478	26.89
824.652	26.67
824.826	26.65
825	26.47
825.174	26.02
825.348	26.02
825.523	26.08
825.697	26.04
825.871	26.06
826.045	26.53
826.219	26.41
826.393	25.79
826.567	25.96
826.741	25.77
826.915	26.27
827.089	26.73
827.263	27.06
827.437	27.31
827.611	27.53
827.784	27.33
827.958	27.05
828.132	27.34
828.306	27.46
828.48	27.53
828.654	27.89
828.827	27.54
829.001	27.39
829.175	27.39
829.349	27.53
829.522	27.41
829.696	27.56
829.87	28.22
830.044	27.93
830.217	29.44
830.391	29.78
830.565	29.66
830.738	31.03
830.912	31.87
831.085	31.85
831.259	31.93
831.432	32.93
831.606	31.92
831.779	30.66
831.953	30.61
832.126	29.93
832.3	29.53
832.473	29.45
832.647	28.28
832.82	27.99
832.994	27.54
833.167	27.5
833.34	26.18
833.514	27.18
833.687	27.53
833.86	27.33
834.034	27.58
834.207	27.51
834.38	27.29
834.553	27.47
834.727	27.93
834.9	27.77
835.073	27.67
835.246	27.85
835.419	28.04
835.593	28.08
835.766	28.38
835.939	27.87
836.112	28.95
836.285	30.2
836.458	30.84
836.631	30
836.804	30.46
836.977	31.18
837.15	34.29
837.323	33.81
837.496	33.74
837.669	34.01
837.842	34.3
838.015	35.08
838.188	33.87
838.361	34.31
838.533	34.67
838.706	35.44
838.879	32.98
839.052	29.96
839.225	29.54
839.398	29.15
839.57	28.92
839.743	28.25
839.916	26.46
840.088	27.99
840.261	26.36
840.434	26.71
840.607	27.07
840.779	29.48
840.952	30.07
841.124	30.61
841.297	30.74
841.47	31.73
841.642	32.27
841.815	33.1
841.987	32.03
842.16	33.65
842.332	32.83
842.505	31.45
842.677	29.79
842.85	30.74
843.022	29.4
843.194	32.85
843.367	33.82
843.539	33.23
843.712	30.56
843.884	32.44
844.056	34.2
844.229	36.78
844.401	38.87
844.573	42
844.745	38.81
844.918	39.22
845.09	37.71
845.262	37.03
845.434	40.63
845.606	42.52
845.779	41.4
845.951	38.52
846.123	37.56
846.295	36.53
846.467	33.5
846.639	40.31
846.811	43.37
846.983	44.56
847.155	44.01
847.327	43.08
847.499	42.93
847.671	45.46
847.843	42.47
848.015	40.83
848.187	41.16
848.359	43.77
848.531	41.65
848.703	43.92
848.875	43.87
849.047	45.63
849.218	44.28
849.39	44.82
849.562	42.19
849.734	47.16
849.905	49.13
850.077	53.21
850.249	52.97
850.421	48.17
850.592	42.19
850.764	39.65
850.936	37.19
851.107	36.75
851.279	32.56
851.451	32.41
851.622	32.73
851.794	31.34
851.965	25.96
852.137	22.68
852.308	24.62
852.48	25.99
852.651	25.84
852.823	28.55
852.994	30.08
853.166	34.67
853.337	38.37
853.509	34.26
853.68	35.46
853.851	36.73
854.023	39.46
854.194	39.87
854.365	41.46
854.537	39.38
854.708	40.29
854.879	38.95
855.05	39.66
855.222	37.47
855.393	38.67
855.564	38.39
855.735	44.88
855.906	44.37
856.078	45.64
856.249	43.41
856.42	46.71
856.591	40.56
856.762	41.53
856.933	42.91
857.104	40.16
857.275	40.69
857.446	40.6
857.617	31.94
857.788	34.2
857.959	32.46
858.13	37.29
858.301	41.52
858.472	43.64
858.643	42.5
858.814	38.37
858.985	40.32
859.155	40.49
859.326	44.11
859.497	41.99
859.668	40.79
859.839	39.21
860.009	33.81
860.18	28.63
860.351	32.42
860.522	33.59
860.692	35.13
860.863	35.57
861.034	37.14
861.204	37.3
861.375	41.25
861.546	44.03
861.716	44.36
861.887	45.61
862.057	41.81
862.228	41.7
862.398	40.36
862.569	37.97
862.739	36.38
862.91	36.24
863.08	33.17
863.251	32.98
863.421	29.62
863.592	31.4
863.762	31.81
863.932	37.51
864.103	36.12
864.273	36.22
864.443	38.67
864.614	41.76
864.784	41.49
864.954	41.53
865.125	40.92
865.295	39.35
865.465	37.98
865.635	39.19
865.805	39.15
865.976	37.99
866.146	44.4
866.316	41.37
866.486	39.02
866.656	37.25
866.826	40
866.996	38.97
867.166	38.87
867.336	39.48
867.506	39.98
867.676	37.94
867.846	41.11
868.016	34.96
868.186	42.87
868.356	44.96
868.526	45.14
868.696	40.6
868.866	42.66
869.036	45.16
869.206	47.03
869.376	46.34
869.545	49.01
869.715	45.08
869.885	43.31
870.055	39.39
870.224	37.91
870.394	40.41
870.564	39.54
870.734	41.93
870.903	43.41
871.073	44.56
871.243	45.06
871.412	41.76
871.582	38.09
871.751	41.47
871.921	42.82
872.091	40
872.26	41.33
872.43	44.52
872.599	40.56
872.769	36.55
872.938	36.25
873.108	35.12
873.277	34.9
873.446	36.77
873.616	34.2
873.785	33.5
873.955	38.82
874.124	36.43
874.293	34.93
874.463	37.67
874.632	40.44
874.801	39.76
874.971	40.38
875.14	41.75
875.309	40.32
875.478	40.36
875.647	41.96
875.817	43.65
875.986	44.71
876.155	48.71
876.324	43
876.493	41.03
876.662	41.91
876.831	41.74
877	42.18
877.17	46.86
877.339	48.8
877.508	48.25
877.677	44.38
877.846	40.58
878.015	36.85
878.184	42.93
878.352	44.28
878.521	41.88
878.69	40.03
878.859	40.08
879.028	38.38
879.197	35.82
879.366	33.18
879.534	34.16
879.703	36.04
879.872	34.22
880.041	30.94
880.21	29.32
880.378	29.3
880.547	27.54
880.716	25.54
880.884	24.87
881.053	25.38
881.222	24.74
881.39	23.63
881.559	23.11
881.727	23.27
881.896	23.44
882.065	23.01
882.233	22.79
882.402	23.69
882.57	23.92
882.739	24.01
882.907	23.73
883.076	24.06
883.244	24.62
883.412	24.55
883.581	24.19
883.749	24.43
883.918	25.32
884.086	24.88
884.254	24.89
884.423	24.21
884.591	24.98
884.759	24.98
884.927	25.55
885.096	25.76
885.264	26.93
885.432	27.2
885.6	27.11
885.769	25.97
885.937	28.4
886.105	27.31
886.273	27.43
886.441	27.02
886.609	27.2
886.777	25.74
886.945	26.21
887.113	27.49
887.281	27.4
887.449	28.82
887.617	29.78
887.785	29.42
887.953	29.6
888.121	31.56
888.289	31.68
888.457	36.07
888.625	39.53
888.793	34.98
888.961	32.25
889.129	34.43
889.296	36.15
889.464	37.01
889.632	35.74
889.8	38.27
889.967	41.53
890.135	42.84
