Data from 2938785__Reflection_01.txt Node
Date: Fri Mar 13 12:02:42 EDT 2015
User: robert
Spectrometer: USB4E03002
Autoset integration time: false
Trigger mode: 4
Integration Time (sec): 1.000000E-1
Scans to average: 10
Electric dark correction enabled: false
Nonlinearity correction enabled: false
Boxcar width: 5
Stray light correction enabled: false
XAxis mode: Wavelengths
Stop averaging: false
Number of Pixels in Spectrum: 3648
>>>>>Begin Spectral Data<<<<<
177.575	-765
177.794	-8821.43
178.014	-1298.26
178.233	-975.27
178.452	-645.45
178.672	-451.11
178.891	-486.52
179.11	-499.16
179.33	-481.15
179.549	-584.98
179.768	-663.82
179.987	-1062.13
180.207	-671.95
180.426	-1084.93
180.645	-1914.74
180.864	-7392.68
181.084	2355.22
181.303	3552.81
181.522	1802.82
181.741	4129.73
181.96	1787.5
182.179	752.8
182.398	641.28
182.618	510.12
182.837	568.84
183.056	443.98
183.275	447.1
183.494	507.26
183.713	462.72
183.932	453.05
184.151	426.21
184.37	476.23
184.589	595.08
184.808	739.19
185.027	757.14
185.246	774.94
185.465	2626.5
185.684	1266.1
185.903	1509.85
186.122	1721.79
186.341	6196.08
186.56	2826.72
186.779	3660.24
186.998	1766.67
187.216	-4481.25
187.435	-1039.77
187.654	-1089.64
187.873	-1512.5
188.092	-4018.84
188.311	20300
188.53	-3065.43
188.748	7625
188.967	-1117.44
189.186	-1466.86
189.405	-755.72
189.623	-2607.84
189.842	6265.96
190.061	2321.54
190.28	3411.96
190.498	-1804.71
190.717	-1380.73
190.936	-1122.22
191.154	-687.44
191.373	-2081.88
191.592	-1630.23
191.81	-1266.67
192.029	-1112.8
192.248	-1100.8
192.466	-4012.68
192.685	-19700
192.904	-981.78
193.122	-4821.82
193.341	1167.2
193.559	706.44
193.778	815.98
193.996	653.1
194.215	722.11
194.433	688.43
194.652	582.01
194.87	1110.43
195.089	857.03
195.307	457.49
195.526	500.87
195.744	563.18
195.963	465.44
196.181	405.26
196.399	445.27
196.618	369.89
196.836	418.04
197.055	504.28
197.273	531.88
197.491	624.9
197.71	577.03
197.928	796.47
198.146	864.95
198.365	8290.63
198.583	-5039.62
198.801	-2065.15
199.019	-2254.69
199.238	-5624
199.456	1902.01
199.674	1011.72
199.892	782.13
200.111	1247.64
200.329	1239.66
200.547	1067.84
200.765	704.7
200.983	634.93
201.202	634.11
201.42	782.7
201.638	836.89
201.856	1394.9
202.074	1679.62
202.292	-4211.29
202.51	17362.5
202.728	9579.31
202.946	-3468.83
203.165	-3505
203.383	5623.08
203.601	2228.15
203.819	5190.91
204.037	1052.16
204.255	1099.2
204.473	1268.2
204.691	737
204.909	643.17
205.127	664.97
205.345	734.15
205.562	924.19
205.78	1142.51
205.998	1098.72
206.216	665.84
206.434	1033.08
206.652	636.09
206.87	694.46
207.088	610.14
207.306	860.86
207.523	732.89
207.741	562.37
207.959	512.16
208.177	727.79
208.395	798.67
208.612	1155.38
208.83	811.35
209.048	957.73
209.266	1179.84
209.483	1032.98
209.701	1112.16
209.919	1654.55
210.136	1279.37
210.354	1074.16
210.572	744.71
210.79	541.95
211.007	528.37
211.225	612.02
211.442	607.09
211.66	457.14
211.878	534.8
212.095	-984.43
212.313	-2539.36
212.53	-1603.33
212.748	-1121.95
212.966	-1979.49
213.183	-1316.87
213.401	-2017.86
213.618	4423.64
213.836	-14670.59
214.053	-7767.74
214.271	8711.54
214.488	288.89
214.705	297.43
214.923	267.29
215.14	289.18
215.358	328.88
215.575	375.43
215.793	373.36
216.01	556.83
216.227	495.44
216.445	484.38
216.662	541.84
216.879	713.17
217.097	612.8
217.314	521.33
217.531	315.77
217.749	277
217.966	245.84
218.183	205.61
218.4	188.01
218.618	201.21
218.835	199.58
219.052	206.56
219.269	179.27
219.487	166.49
219.704	188.29
219.921	208.59
220.138	210.07
220.355	213.97
220.572	208.99
220.79	186.56
221.007	172.7
221.224	179.55
221.441	157.76
221.658	159.61
221.875	160.77
222.092	153.74
222.309	145.83
222.526	138.67
222.743	133.3
222.96	132.74
223.177	136.82
223.394	130.72
223.611	118.33
223.828	123
224.045	120.51
224.262	117.16
224.479	105.33
224.696	103.36
224.913	100.65
225.13	95.1
225.347	87.82
225.564	83.77
225.781	81.23
225.997	75.2
226.214	67.84
226.431	61.7
226.648	55.49
226.865	50.99
227.082	44.27
227.298	38.81
227.515	33.45
227.732	29.01
227.949	26.14
228.165	22.88
228.382	22.17
228.599	21.71
228.816	20.86
229.032	19.61
229.249	18.64
229.466	17.57
229.682	17.15
229.899	17.68
230.116	17.66
230.332	17.89
230.549	18.2
230.765	19.06
230.982	18.85
231.199	20.44
231.415	22.98
231.632	24.26
231.848	26.58
232.065	29.08
232.281	29.76
232.498	30.72
232.714	31.94
232.931	32.5
233.147	32.76
233.364	32.46
233.58	31.35
233.797	30.82
234.013	31.16
234.23	31.12
234.446	29.9
234.662	30.09
234.879	31
235.095	29.26
235.312	30.43
235.528	31.32
235.744	32.05
235.961	31.22
236.177	30.43
236.393	31.72
236.61	31.07
236.826	29.8
237.042	29.65
237.258	30.15
237.475	31.13
237.691	31.8
237.907	30.26
238.123	30.18
238.339	32.28
238.556	33.93
238.772	32.2
238.988	33.13
239.204	32.13
239.42	30.06
239.636	28.41
239.853	26.06
240.069	23.21
240.285	21.69
240.501	20.56
240.717	18.78
240.933	16.72
241.149	15.32
241.365	13.42
241.581	13.72
241.797	13.73
242.013	12.8
242.229	12.84
242.445	12.62
242.661	12.52
242.877	12.43
243.093	12.44
243.309	12.55
243.525	13.11
243.741	13.36
243.957	13
244.173	13.53
244.388	13.86
244.604	13.91
244.82	14.56
245.036	14.09
245.252	13.32
245.468	12.68
245.683	12.17
245.899	11.09
246.115	10.68
246.331	9.99
246.547	9.64
246.762	9.13
246.978	8.71
247.194	8.47
247.409	8.23
247.625	8.21
247.841	7.74
248.057	7.75
248.272	7.83
248.488	8.02
248.703	8.31
248.919	8.19
249.135	8.5
249.35	9.56
249.566	9.95
249.782	10.85
249.997	10.98
250.213	11.53
250.428	11.99
250.644	13.67
250.859	14
251.075	14.1
251.29	14.44
251.506	14.21
251.721	13.61
251.937	13.32
252.152	13.38
252.368	14.17
252.583	14.45
252.798	14.66
253.014	14.27
253.229	14.21
253.445	14.78
253.66	14.93
253.875	16.16
254.091	16.57
254.306	16.87
254.521	18.18
254.737	18.54
254.952	18.78
255.167	18.69
255.383	17.64
255.598	17.32
255.813	17.49
256.028	17.15
256.244	16.08
256.459	16.34
256.674	16.53
256.889	14.46
257.104	14.54
257.32	13.51
257.535	11.95
257.75	11.51
257.965	11.22
258.18	10.09
258.395	9.28
258.61	8.54
258.826	7.35
259.041	6.87
259.256	6.69
259.471	6.05
259.686	6.31
259.901	6.42
260.116	6.22
260.331	5.79
260.546	6.14
260.761	6.27
260.976	6.62
261.191	6.73
261.406	6.83
261.621	7.07
261.836	7.05
262.05	7.4
262.265	7.6
262.48	8.57
262.695	9.67
262.91	9.93
263.125	10.35
263.34	10.24
263.555	11.12
263.769	12
263.984	12.3
264.199	12.68
264.414	11.99
264.629	12.34
264.843	12.13
265.058	11.84
265.273	11.4
265.488	10.91
265.702	10.77
265.917	10.15
266.132	9.64
266.346	9.38
266.561	9.51
266.776	9.92
266.99	9.95
267.205	9.57
267.42	9.44
267.634	8.6
267.849	8.77
268.063	8.88
268.278	9.18
268.492	9.23
268.707	8.94
268.922	9.16
269.136	9.13
269.351	8.26
269.565	8.2
269.78	7.89
269.994	8.16
270.209	7.85
270.423	7.03
270.637	6.77
270.852	6.42
271.066	6.53
271.281	6.31
271.495	6.25
271.709	6.82
271.924	7.05
272.138	7.21
272.353	7.34
272.567	7.52
272.781	8.3
272.996	8.15
273.21	8.27
273.424	8.37
273.638	8.16
273.853	8.1
274.067	7.93
274.281	8.2
274.495	8.61
274.71	8.97
274.924	9.39
275.138	9.61
275.352	9.59
275.566	9.73
275.781	9.62
275.995	10.05
276.209	9.86
276.423	9.95
276.637	9.84
276.851	9.67
277.065	9.01
277.279	8.78
277.493	8.19
277.707	8.72
277.921	8.6
278.135	8.84
278.349	8.3
278.563	8.59
278.777	9.21
278.991	9.13
279.205	9.45
279.419	10.04
279.633	9.37
279.847	9.8
280.061	9.84
280.275	9.33
280.489	9.29
280.703	9.86
280.917	9.62
281.131	8.97
281.344	8.5
281.558	7.89
281.772	7.76
281.986	8.34
282.2	8.23
282.414	7.99
282.627	8.33
282.841	8.24
283.055	8.17
283.269	8.15
283.482	7.93
283.696	7.99
283.91	8.14
284.123	7.53
284.337	7.02
284.551	6.65
284.764	6.77
284.978	6.51
285.192	6.52
285.405	6.28
285.619	5.92
285.833	6.2
286.046	6.22
286.26	6.4
286.473	6.81
286.687	6.68
286.9	6.75
287.114	6.57
287.327	6.8
287.541	6.95
287.754	7
287.968	7.44
288.181	7.25
288.395	7.51
288.608	7.23
288.822	7.05
289.035	7.22
289.248	6.9
289.462	6.56
289.675	6.5
289.889	6.29
290.102	6.12
290.315	5.93
290.529	6.24
290.742	5.9
290.955	5.84
291.169	6.04
291.382	6.37
291.595	6.5
291.808	7.11
292.022	7.27
292.235	7.29
292.448	7.46
292.661	7.54
292.875	7
293.088	7.25
293.301	7.27
293.514	7.26
293.727	6.82
293.94	7.16
294.153	6.95
294.367	6.99
294.58	6.56
294.793	6.5
295.006	6.27
295.219	6.25
295.432	6.18
295.645	6.21
295.858	5.88
296.071	5.78
296.284	5.58
296.497	5.4
296.71	5.18
296.923	5.64
297.136	5.79
297.349	5.76
297.562	5.75
297.775	5.68
297.988	5.68
298.201	5.87
298.414	6.16
298.626	6.4
298.839	6.43
299.052	6.57
299.265	6.54
299.478	6.37
299.691	6.94
299.903	7.54
300.116	7.88
300.329	7.74
300.542	7.62
300.755	7.35
300.967	7.46
301.18	7.54
301.393	7.46
301.605	7.33
301.818	7.54
302.031	7.5
302.243	7.18
302.456	6.74
302.669	7.28
302.881	7.61
303.094	8.12
303.307	7.94
303.519	8.18
303.732	8.47
303.944	8.42
304.157	8.62
304.37	8.04
304.582	8.19
304.795	8.81
305.007	8.33
305.22	8.56
305.432	8.26
305.645	8.5
305.857	8.62
306.069	8.84
306.282	8.98
306.494	8.66
306.707	9.23
306.919	9.18
307.132	8.86
307.344	9.22
307.556	9.09
307.769	9.13
307.981	8.56
308.193	8.24
308.406	7.54
308.618	7.52
308.83	7.68
309.043	7.3
309.255	7.22
309.467	7.19
309.679	6.72
309.892	6.82
310.104	6.64
310.316	6.75
310.528	6.77
310.74	7.04
310.953	7.11
311.165	7.03
311.377	7.33
311.589	7.68
311.801	7.73
312.013	7.88
312.225	7.74
312.437	7.93
312.649	8.15
312.862	8.32
313.074	8.59
313.286	8.55
313.498	8.69
313.71	8.65
313.922	8.51
314.134	8.45
314.346	8.71
314.558	8.54
314.77	8.77
314.982	9.1
315.193	9.27
315.405	9.24
315.617	9.27
315.829	9.6
316.041	9.62
316.253	9.46
316.465	9.95
316.677	10.09
316.888	10.61
317.1	10.89
317.312	10.79
317.524	11.19
317.736	11.18
317.947	11.94
318.159	11.78
318.371	12.06
318.583	12.41
318.794	12.17
319.006	12.42
319.218	12.32
319.43	12.42
319.641	12.49
319.853	12.17
320.064	12.61
320.276	12.21
320.488	12.7
320.699	12.87
320.911	13.09
321.123	13.13
321.334	12.75
321.546	12.92
321.757	12.89
321.969	13.2
322.18	13.77
322.392	13.63
322.603	13.93
322.815	13.28
323.026	13.54
323.238	13.53
323.449	13.47
323.661	13.89
323.872	13.9
324.083	13.84
324.295	13.55
324.506	13.09
324.718	13.22
324.929	13.18
325.14	13.6
325.352	13.48
325.563	14.03
325.774	14.51
325.986	14.84
326.197	15.19
326.408	15.71
326.62	16.37
326.831	16.73
327.042	17.23
327.253	18.07
327.464	18.53
327.676	18.94
327.887	19.01
328.098	19.44
328.309	19.52
328.52	20.01
328.732	20.43
328.943	21.29
329.154	22.11
329.365	22.75
329.576	22.87
329.787	23.53
329.998	24.34
330.209	24.81
330.42	25.29
330.631	26.05
330.842	26.35
331.053	26.39
331.264	26.07
331.475	26.2
331.686	26.29
331.897	26.48
332.108	26.62
332.319	26.69
332.53	26.92
332.741	27.01
332.952	27.29
333.163	27.29
333.374	27.74
333.585	28.02
333.795	28.44
334.006	28.37
334.217	28.67
334.428	28.81
334.639	29.02
334.849	28.84
335.06	29.01
335.271	29.09
335.482	29.63
335.692	29.46
335.903	29.52
336.114	29.04
336.325	29.42
336.535	29.47
336.746	29.45
336.957	29.66
337.167	29.88
337.378	29.93
337.589	29.73
337.799	29.33
338.01	29.39
338.22	29.33
338.431	29.58
338.642	29.4
338.852	29.19
339.063	29.38
339.273	29.19
339.484	29.35
339.694	29.46
339.905	29.73
340.115	30.16
340.326	30.22
340.536	30.3
340.746	30.4
340.957	30.46
341.167	30.7
341.378	30.65
341.588	30.56
341.799	30.82
342.009	30.7
342.219	30.54
342.43	30.43
342.64	30.52
342.85	30.45
343.061	30.43
343.271	30.62
343.481	30.19
343.691	29.94
343.902	30.11
344.112	29.61
344.322	29.37
344.532	29.39
344.743	29.16
344.953	29.05
345.163	29.16
345.373	28.71
345.583	28.49
345.793	28.79
346.004	28.77
346.214	28.69
346.424	28.85
346.634	28.98
346.844	28.78
347.054	28.74
347.264	28.81
347.474	28.67
347.684	29.08
347.894	29.02
348.104	28.87
348.314	29.02
348.524	28.65
348.734	28.62
348.944	28.97
349.154	28.75
349.364	28.71
349.574	28.66
349.784	28.81
349.994	28.96
350.204	28.75
350.413	28.82
350.623	28.78
350.833	28.87
351.043	28.65
351.253	28.38
351.463	28.42
351.672	28.47
351.882	28.3
352.092	27.95
352.302	27.84
352.511	28.16
352.721	28.13
352.931	27.68
353.141	27.59
353.35	27.62
353.56	27.45
353.77	27.76
353.979	27.8
354.189	27.92
354.399	27.92
354.608	27.74
354.818	27.49
355.027	27.29
355.237	27.39
355.447	27.68
355.656	27.6
355.866	27.67
356.075	27.37
356.285	27.54
356.494	27.55
356.704	27.45
356.913	27.47
357.123	27.38
357.332	27.33
357.542	27.47
357.751	27.18
357.96	27.15
358.17	26.95
358.379	26.99
358.589	26.79
358.798	26.72
359.007	26.84
359.217	26.89
359.426	26.78
359.635	26.7
359.845	26.38
360.054	26.16
360.263	25.89
360.472	25.72
360.682	25.41
360.891	25.27
361.1	24.99
361.309	24.88
361.519	24.86
361.728	24.89
361.937	24.88
362.146	24.98
362.355	25.09
362.564	25.47
362.774	25.65
362.983	25.77
363.192	25.77
363.401	25.73
363.61	25.74
363.819	25.8
364.028	25.94
364.237	26.08
364.446	26.1
364.655	25.94
364.864	25.55
365.073	25.46
365.282	25.47
365.491	25.42
365.7	25.65
365.909	25.59
366.118	25.3
366.327	25.26
366.536	25.22
366.745	25.16
366.954	25.18
367.162	25.33
367.371	25.38
367.58	25.57
367.789	25.47
367.998	25.29
368.207	25.19
368.415	25.14
368.624	25.31
368.833	25.11
369.042	25.11
369.25	25.5
369.459	25.66
369.668	25.54
369.877	25.35
370.085	25.23
370.294	25.5
370.503	25.68
370.711	25.78
370.92	25.28
371.129	25.26
371.337	25.06
371.546	24.8
371.754	24.66
371.963	24.52
372.171	24.67
372.38	25.1
372.589	25.02
372.797	24.95
373.006	24.91
373.214	24.99
373.423	25.03
373.631	25.09
373.84	24.96
374.048	24.78
374.256	24.77
374.465	24.62
374.673	24.33
374.882	24.31
375.09	24.24
375.298	24.1
375.507	24.08
375.715	24.18
375.923	24.27
376.132	24.18
376.34	24.22
376.548	24.19
376.757	24.27
376.965	24.31
377.173	24.18
377.381	23.96
377.59	24.13
377.798	24.18
378.006	24.14
378.214	23.99
378.423	24.19
378.631	24.03
378.839	24.15
379.047	24
379.255	24.08
379.463	24.22
379.671	24.32
379.879	24.15
380.088	23.99
380.296	23.88
380.504	23.98
380.712	23.84
380.92	23.95
381.128	23.93
381.336	23.9
381.544	23.57
381.752	23.38
381.96	23.33
382.168	23.2
382.376	23.39
382.584	23.4
382.791	23.56
382.999	23.52
383.207	23.6
383.415	23.64
383.623	23.71
383.831	23.74
384.039	23.81
384.247	23.95
384.454	24.16
384.662	24.17
384.87	24.19
385.078	24.11
385.285	23.98
385.493	23.83
385.701	23.83
385.909	23.76
386.116	23.75
386.324	23.64
386.532	23.45
386.739	23.43
386.947	23.14
387.155	23.33
387.362	23.27
387.57	23.44
387.778	23.39
387.985	23.18
388.193	23.14
388.4	23.23
388.608	23.36
388.816	23.58
389.023	23.51
389.231	23.69
389.438	23.25
389.646	23.08
389.853	22.95
390.061	23.14
390.268	23.42
390.475	23.22
390.683	23.19
390.89	23.02
391.098	22.93
391.305	23.05
391.512	22.92
391.72	23.15
391.927	23.18
392.135	23.23
392.342	23.18
392.549	23.18
392.756	23.28
392.964	23.2
393.171	23.49
393.378	23.55
393.586	23.45
393.793	23.47
394	23.44
394.207	23.6
394.414	23.65
394.622	23.52
394.829	23.31
395.036	23.47
395.243	23.46
395.45	23.21
395.657	23.14
395.864	23.17
396.072	23.28
396.279	23.34
396.486	23.23
396.693	23.23
396.9	23.27
397.107	23.42
397.314	23.6
397.521	23.68
397.728	23.77
397.935	23.73
398.142	23.57
398.349	23.55
398.556	23.56
398.763	23.52
398.97	23.45
399.177	23.6
399.383	23.49
399.59	23.34
399.797	23.52
400.004	23.43
400.211	23.57
400.418	23.78
400.625	23.83
400.831	23.75
401.038	23.99
401.245	24.07
401.452	24.14
401.658	24.26
401.865	24.31
402.072	24.11
402.279	24.24
402.485	24.05
402.692	23.96
402.899	23.9
403.105	23.87
403.312	23.82
403.519	23.81
403.725	23.76
403.932	23.66
404.138	23.49
404.345	23.45
404.552	23.31
404.758	23.3
404.965	23.15
405.171	23.16
405.378	23.09
405.584	23.16
405.791	23.15
405.997	23.02
406.204	23.05
406.41	23.02
406.617	23.17
406.823	23.3
407.029	23.54
407.236	23.77
407.442	23.93
407.649	24.28
407.855	24.26
408.061	24.3
408.268	24.47
408.474	24.58
408.68	24.74
408.887	24.76
409.093	24.76
409.299	24.79
409.505	24.85
409.712	24.84
409.918	24.69
410.124	24.5
410.33	24.63
410.537	24.56
410.743	24.6
410.949	24.75
411.155	24.78
411.361	24.87
411.567	24.92
411.773	24.95
411.98	24.88
412.186	24.93
412.392	25.2
412.598	25.18
412.804	25.14
413.01	25.08
413.216	25.03
413.422	24.97
413.628	24.83
413.834	24.82
414.04	24.76
414.246	24.75
414.452	24.57
414.658	24.49
414.864	24.44
415.07	24.57
415.275	24.49
415.481	24.52
415.687	24.61
415.893	24.65
416.099	24.48
416.305	24.42
416.511	24.45
416.716	24.53
416.922	24.59
417.128	24.59
417.334	24.46
417.539	24.53
417.745	24.46
417.951	24.43
418.157	24.43
418.362	24.5
418.568	24.56
418.774	24.44
418.979	24.41
419.185	24.32
419.391	24.27
419.596	24.21
419.802	24.16
420.008	24.12
420.213	24.73
420.419	24.72
420.624	24.72
420.83	24.73
421.035	24.77
421.241	24.82
421.446	24.83
421.652	24.84
421.857	24.89
422.063	24.91
422.268	24.91
422.474	24.35
422.679	24.4
422.885	24.41
423.09	24.37
423.295	24.37
423.501	24.36
423.706	24.33
423.911	24.38
424.117	24.47
424.322	24.44
424.527	24.44
424.733	24.4
424.938	24.34
425.143	24.29
425.349	24.37
425.554	24.42
425.759	24.51
425.964	24.61
426.169	24.64
426.375	24.63
426.58	24.8
426.785	24.92
426.99	25.14
427.195	25.3
427.4	25.4
427.605	25.33
427.811	25.48
428.016	25.5
428.221	25.56
428.426	25.61
428.631	25.7
428.836	25.58
429.041	25.49
429.246	25.4
429.451	25.38
429.656	25.51
429.861	25.62
430.066	25.48
430.271	25.46
430.476	25.47
430.681	25.45
430.886	25.6
431.09	25.77
431.295	25.92
431.5	26
431.705	26.02
431.91	26.02
432.115	26.13
432.32	26.24
432.524	26.18
432.729	26.24
432.934	26.28
433.139	26.13
433.343	26.07
433.548	26.12
433.753	26.14
433.958	26.19
434.162	26.13
434.367	26.11
434.572	26.15
434.776	26.19
434.981	26.12
435.186	26.2
435.39	26.36
435.595	26.4
435.799	26.31
436.004	26.19
436.209	26.19
436.413	26.26
436.618	26.27
436.822	26.26
437.027	26.25
437.231	26.32
437.436	26.32
437.64	26.35
437.845	26.36
438.049	26.42
438.253	26.41
438.458	26.38
438.662	26.43
438.867	26.29
439.071	26.31
439.275	26.35
439.48	26.34
439.684	26.29
439.888	26.22
440.093	26.18
440.297	26.11
440.501	26.23
440.706	26.22
440.91	26.13
441.114	26.16
441.318	26.19
441.523	26.16
441.727	26.07
441.931	26.08
442.135	26.1
442.339	26.17
442.543	26.34
442.748	26.35
442.952	26.43
443.156	26.44
443.36	26.49
443.564	26.46
443.768	26.53
443.972	26.48
444.176	26.36
444.38	26.34
444.584	26.34
444.788	26.15
444.992	26.1
445.196	26.04
445.4	26.11
445.604	26.14
445.808	26.13
446.012	26.1
446.216	26.22
446.42	26.32
446.624	26.23
446.828	26.14
447.032	26.13
447.235	26.15
447.439	26.18
447.643	26.19
447.847	26.18
448.051	26.18
448.254	26.2
448.458	26.22
448.662	26.26
448.866	26.38
449.069	26.51
449.273	26.67
449.477	26.65
449.681	26.61
449.884	26.68
450.088	26.82
450.292	26.74
450.495	26.76
450.699	26.82
450.902	26.78
451.106	26.7
451.31	26.73
451.513	26.71
451.717	26.71
451.92	26.73
452.124	26.66
452.327	26.57
452.531	26.68
452.734	26.72
452.938	26.64
453.141	26.68
453.345	26.82
453.548	26.79
453.752	26.77
453.955	26.92
454.158	26.96
454.362	26.96
454.565	26.92
454.769	26.96
454.972	26.95
455.175	26.92
455.379	26.81
455.582	26.76
455.785	26.78
455.988	26.89
456.192	26.85
456.395	26.79
456.598	26.83
456.801	26.98
457.005	26.89
457.208	26.92
457.411	26.96
457.614	26.98
457.817	26.97
458.021	26.85
458.224	26.76
458.427	26.53
458.63	26.5
458.833	26.46
459.036	26.35
459.239	26.33
459.442	26.3
459.645	26.26
459.848	26.26
460.051	26.22
460.254	26.32
460.457	26.31
460.66	26.48
460.863	26.62
461.066	26.65
461.269	26.62
461.472	26.77
461.675	26.83
461.878	26.94
462.081	27
462.284	27.07
462.486	27.02
462.689	27.01
462.892	26.97
463.095	26.83
463.298	26.82
463.5	26.99
463.703	26.85
463.906	26.86
464.109	26.84
464.311	26.86
464.514	26.94
464.717	27.03
464.92	27.11
465.122	27.13
465.325	27.26
465.528	27.26
465.73	27.2
465.933	27.23
466.135	27.2
466.338	27.08
466.541	26.94
466.743	26.84
466.946	26.75
467.148	26.76
467.351	26.75
467.553	26.71
467.756	26.78
467.958	26.77
468.161	26.96
468.363	26.94
468.566	26.98
468.768	27.13
468.971	27.18
469.173	27.28
469.375	27.29
469.578	27.38
469.78	27.36
469.983	27.43
470.185	27.46
470.387	27.43
470.59	27.47
470.792	27.56
470.994	27.59
471.196	27.64
471.399	27.61
471.601	27.61
471.803	27.56
472.005	27.58
472.208	27.4
472.41	27.42
472.612	27.31
472.814	27.34
473.016	27.47
473.218	27.47
473.421	27.45
473.623	27.61
473.825	27.65
474.027	27.65
474.229	27.71
474.431	27.82
474.633	27.74
474.835	27.76
475.037	27.72
475.239	27.51
475.441	27.49
475.643	27.44
475.845	27.28
476.047	27.22
476.249	27.19
476.451	27.07
476.653	26.92
476.855	27.01
477.057	27.1
477.258	27.01
477.46	27.12
477.662	27.19
477.864	27.21
478.066	27.19
478.268	27.17
478.469	27.12
478.671	27.13
478.873	27.28
479.075	27.13
479.276	26.92
479.478	27.01
479.68	26.99
479.882	26.89
480.083	26.92
480.285	26.87
480.487	26.93
480.688	26.93
480.89	26.94
481.091	26.84
481.293	26.88
481.495	26.88
481.696	26.84
481.898	26.67
482.099	26.58
482.301	26.49
482.502	26.49
482.704	26.34
482.905	26.33
483.107	26.25
483.308	26.21
483.51	26.16
483.711	26.15
483.913	26.11
484.114	26.13
484.315	26.11
484.517	26.09
484.718	26.07
484.92	26.1
485.121	26.08
485.322	26.13
485.524	26.14
485.725	26.16
485.926	26.17
486.127	26.2
486.329	26.23
486.53	26.24
486.731	26.25
486.932	26.23
487.134	26.27
487.335	26.31
487.536	26.28
487.737	26.27
487.938	26.27
488.139	26.29
488.341	26.33
488.542	26.28
488.743	26.31
488.944	26.37
489.145	26.45
489.346	26.46
489.547	26.47
489.748	26.57
489.949	26.65
490.15	26.65
490.351	26.69
490.552	26.7
490.753	26.75
490.954	26.78
491.155	26.77
491.356	26.78
491.557	26.78
491.758	26.84
491.959	26.8
492.159	26.82
492.36	26.87
492.561	26.84
492.762	26.81
492.963	26.86
493.164	26.88
493.364	26.9
493.565	26.86
493.766	26.9
493.967	26.85
494.167	26.95
494.368	27.07
494.569	27.17
494.769	27.33
494.97	27.47
495.171	27.53
495.371	27.6
495.572	27.64
495.773	27.73
495.973	27.78
496.174	27.8
496.375	27.8
496.575	27.65
496.776	27.7
496.976	27.65
497.177	27.63
497.377	27.59
497.578	27.61
497.778	27.72
497.979	27.77
498.179	27.79
498.38	27.84
498.58	27.86
498.78	27.95
498.981	27.98
499.181	28.03
499.382	28.16
499.582	28.24
499.782	28.31
499.983	28.31
500.183	28.34
500.383	28.34
500.584	28.42
500.784	28.46
500.984	28.62
501.184	28.65
501.385	28.66
501.585	28.63
501.785	28.64
501.985	28.74
502.185	28.73
502.386	28.77
502.586	28.83
502.786	28.84
502.986	28.94
503.186	28.93
503.386	28.94
503.586	28.95
503.786	29
503.987	29.08
504.187	28.98
504.387	28.96
504.587	28.98
504.787	29.01
504.987	29.06
505.187	29.07
505.387	29.07
505.587	29.09
505.786	29.15
505.986	29.25
506.186	29.26
506.386	29.37
506.586	29.55
506.786	29.51
506.986	29.58
507.186	29.57
507.386	29.6
507.585	29.62
507.785	29.66
507.985	29.71
508.185	29.71
508.384	29.75
508.584	29.74
508.784	29.67
508.984	29.81
509.183	29.87
509.383	29.91
509.583	29.89
509.782	30.02
509.982	30.05
510.182	30.1
510.381	30.18
510.581	30.26
510.781	30.31
510.98	30.41
511.18	30.45
511.379	30.49
511.579	30.57
511.778	30.63
511.978	30.62
512.177	30.68
512.377	30.65
512.576	30.64
512.776	30.58
512.975	30.71
513.175	30.79
513.374	30.82
513.573	30.81
513.773	30.89
513.972	31.03
514.172	31.08
514.371	31.24
514.57	31.34
514.77	31.4
514.969	31.5
515.168	31.59
515.367	31.6
515.567	31.63
515.766	31.75
515.965	31.69
516.164	31.65
516.364	31.69
516.563	31.54
516.762	31.59
516.961	31.62
517.16	31.58
517.359	31.6
517.559	31.68
517.758	31.71
517.957	31.67
518.156	31.75
518.355	31.79
518.554	31.76
518.753	31.86
518.952	31.91
519.151	31.99
519.35	32.08
519.549	32.13
519.748	32.16
519.947	32.23
520.146	32.36
520.345	32.44
520.544	32.51
520.743	32.54
520.942	32.61
521.141	32.62
521.339	32.64
521.538	32.7
521.737	32.66
521.936	32.64
522.135	32.67
522.333	32.7
522.532	32.74
522.731	32.68
522.93	32.76
523.129	32.82
523.327	32.92
523.526	32.94
523.725	32.99
523.923	33.06
524.122	33.15
524.321	33.19
524.519	33.23
524.718	33.2
524.917	33.3
525.115	33.32
525.314	33.34
525.512	33.33
525.711	33.38
525.909	33.43
526.108	33.39
526.306	33.34
526.505	33.31
526.703	33.28
526.902	33.28
527.1	33.27
527.299	33.28
527.497	33.26
527.696	33.25
527.894	33.25
528.092	33.19
528.291	33.23
528.489	33.29
528.688	33.3
528.886	33.32
529.084	33.31
529.283	33.33
529.481	33.34
529.679	33.41
529.877	33.42
530.076	33.46
530.274	33.56
530.472	33.61
530.67	33.69
530.869	33.76
531.067	33.84
531.265	33.95
531.463	33.99
531.661	34.06
531.859	34.07
532.057	34.15
532.255	34.11
532.454	34.15
532.652	34.13
532.85	34.13
533.048	34.11
533.246	34.17
533.444	34.2
533.642	34.29
533.84	34.32
534.038	34.36
534.236	34.4
534.434	34.49
534.632	34.5
534.83	34.64
535.027	34.65
535.225	34.67
535.423	34.67
535.621	34.69
535.819	34.64
536.017	34.62
536.215	34.56
536.412	34.53
536.61	34.56
536.808	34.48
537.006	34.46
537.203	34.45
537.401	34.6
537.599	34.64
537.797	34.74
537.994	34.85
538.192	34.98
538.39	35.17
538.587	35.24
538.785	35.31
538.983	35.51
539.18	35.51
539.378	35.54
539.575	35.5
539.773	35.56
539.97	35.51
540.168	35.53
540.366	35.54
540.563	35.54
540.761	35.6
540.958	35.54
541.155	35.55
541.353	35.57
541.55	35.57
541.748	35.55
541.945	35.47
542.143	35.51
542.34	35.49
542.537	35.47
542.735	35.48
542.932	35.42
543.129	35.55
543.327	35.52
543.524	35.57
543.721	35.71
543.919	35.89
544.116	36.02
544.313	36.15
544.51	36.31
544.708	36.52
544.905	36.56
545.102	36.75
545.299	36.78
545.496	36.89
545.693	36.97
545.891	36.94
546.088	36.95
546.285	37.03
546.482	36.92
546.679	36.85
546.876	36.72
547.073	36.79
547.27	36.71
547.467	36.69
547.664	36.74
547.861	36.76
548.058	36.84
548.255	36.82
548.452	36.89
548.649	37.07
548.846	37.09
549.043	37.13
549.24	37.17
549.437	37.29
549.633	37.37
549.83	37.38
550.027	37.38
550.224	37.25
550.421	37.18
550.618	37.07
550.814	37.08
551.011	37.07
551.208	37.12
551.405	37.01
551.601	37.03
551.798	37.05
551.995	36.99
552.191	36.96
552.388	37.07
552.585	37.17
552.781	37.2
552.978	37.14
553.175	37.26
553.371	37.41
553.568	37.46
553.764	37.44
553.961	37.39
554.157	37.41
554.354	37.51
554.55	37.52
554.747	37.55
554.943	37.64
555.14	37.67
555.336	37.6
555.533	37.54
555.729	37.65
555.926	37.67
556.122	37.77
556.318	37.82
556.515	37.68
556.711	37.65
556.907	37.68
557.104	37.65
557.3	37.68
557.496	37.65
557.693	37.67
557.889	37.65
558.085	37.65
558.281	37.65
558.478	37.71
558.674	37.88
558.87	37.91
559.066	37.84
559.262	37.93
559.459	37.91
559.655	37.98
559.851	37.86
560.047	37.92
560.243	37.95
560.439	37.97
560.635	37.91
560.831	37.84
561.027	37.92
561.223	37.89
561.419	37.8
561.615	37.75
561.811	37.94
562.007	37.98
562.203	37.98
562.399	38
562.595	37.92
562.791	38.07
562.987	38.07
563.183	37.93
563.379	38.04
563.575	38.13
563.771	38.21
563.966	38.06
564.162	38.17
564.358	38.06
564.554	38.16
564.75	38.23
564.945	38.07
565.141	38.03
565.337	38.07
565.533	37.93
565.728	37.75
565.924	37.76
566.12	37.71
566.315	37.59
566.511	37.62
566.707	37.55
566.902	37.49
567.098	37.59
567.293	37.64
567.489	37.71
567.684	37.81
567.88	37.84
568.076	37.78
568.271	37.95
568.467	38
568.662	38.04
568.858	37.99
569.053	38.07
569.248	37.98
569.444	38.05
569.639	37.98
569.835	37.97
570.03	38.08
570.225	38.02
570.421	37.92
570.616	37.92
570.812	37.89
571.007	37.84
571.202	37.79
571.397	37.88
571.593	37.73
571.788	37.78
571.983	37.85
572.178	37.8
572.374	37.9
572.569	37.91
572.764	37.94
572.959	38.1
573.154	38.23
573.35	38.34
573.545	38.3
573.74	38.45
573.935	38.41
574.13	38.25
574.325	38.3
574.52	38.41
574.715	38.43
574.91	38.5
575.105	38.36
575.3	38.38
575.495	38.33
575.69	38.39
575.885	38.4
576.08	38.43
576.275	38.6
576.47	38.68
576.665	38.62
576.86	38.67
577.055	38.59
577.25	38.75
577.444	38.72
577.639	38.94
577.834	38.96
578.029	39.08
578.224	39.22
578.418	39.43
578.613	39.57
578.808	39.55
579.003	39.63
579.197	39.78
579.392	39.59
579.587	39.57
579.781	39.45
579.976	39.56
580.171	39.52
580.365	39.47
580.56	39.27
580.755	39.27
580.949	39.26
581.144	39.23
581.338	39.2
581.533	39.36
581.727	39.62
581.922	39.5
582.116	39.54
582.311	39.59
582.505	39.67
582.7	39.75
582.894	39.7
583.089	39.83
583.283	39.76
583.478	39.79
583.672	39.85
583.866	39.78
584.061	39.94
584.255	39.77
584.449	39.86
584.644	39.99
584.838	40.03
585.032	40.01
585.226	40.13
585.421	40.27
585.615	40.52
585.809	40.4
586.003	40.45
586.198	40.41
586.392	40.58
586.586	40.49
586.78	40.41
586.974	40.39
587.168	40.39
587.363	40.39
587.557	40.26
587.751	40.15
587.945	40.23
588.139	40.06
588.333	40.02
588.527	40
588.721	40.12
588.915	39.92
589.109	39.83
589.303	39.82
589.497	39.64
589.691	39.72
589.885	39.54
590.079	39.73
590.273	39.76
590.466	39.89
590.66	39.95
590.854	40.05
591.048	40.33
591.242	40.46
591.436	40.52
591.629	40.71
591.823	40.76
592.017	40.96
592.211	40.86
592.404	40.86
592.598	40.77
592.792	40.69
592.986	40.55
593.179	40.37
593.373	40.44
593.567	40.48
593.76	40.33
593.954	40.3
594.147	40.28
594.341	40.21
594.535	40.3
594.728	40.28
594.922	40.25
595.115	40.16
595.309	40.09
595.502	39.94
595.696	39.93
595.889	39.89
596.083	39.87
596.276	39.74
596.47	39.87
596.663	39.81
596.856	39.8
597.05	39.86
597.243	39.89
597.437	40.1
597.63	40.22
597.823	40.24
598.017	40.36
598.21	40.55
598.403	40.59
598.596	40.55
598.79	40.65
598.983	40.8
599.176	40.79
599.369	40.94
599.563	40.84
599.756	40.95
599.949	40.93
600.142	40.99
600.335	40.96
600.528	41.14
600.722	41.01
600.915	41.09
601.108	41.06
601.301	41.17
601.494	41.1
601.687	41.1
601.88	40.93
602.073	40.99
602.266	40.89
602.459	40.84
602.652	40.68
602.845	40.77
603.038	40.63
603.231	40.65
603.424	40.62
603.617	40.46
603.809	40.48
604.002	40.47
604.195	40.48
604.388	40.55
604.581	40.56
604.774	40.72
604.966	40.71
605.159	40.74
605.352	40.69
605.545	40.8
605.737	41.05
605.93	41.15
606.123	41.16
606.316	41.15
606.508	41.31
606.701	41.36
606.894	41.32
607.086	41.38
607.279	41.52
607.471	41.65
607.664	41.74
607.857	41.72
608.049	41.87
608.242	42.19
608.434	42.46
608.627	42.49
608.819	42.78
609.012	43.07
609.204	43.62
609.397	44.24
609.589	44.88
609.782	45.38
609.974	46.21
610.166	46.76
610.359	47.28
610.551	47.93
610.743	48.52
610.936	48.87
611.128	49.34
611.32	49.52
611.513	49.59
611.705	49.56
611.897	49.47
612.09	49.15
612.282	48.94
612.474	48.6
612.666	48.32
612.858	48.16
613.051	48.16
613.243	47.74
613.435	47.3
613.627	47.12
613.819	46.9
614.011	46.83
614.203	46.62
614.395	46.52
614.588	46.43
614.78	46.25
614.972	46.05
615.164	45.87
615.356	45.88
615.548	45.88
615.74	45.82
615.932	45.68
616.124	45.41
616.315	45.28
616.507	45.21
616.699	45.01
616.891	44.8
617.083	44.76
617.275	44.41
617.467	44.27
617.659	44.07
617.85	43.7
618.042	43.6
618.234	43.49
618.426	43.3
618.618	43.18
618.809	43.06
619.001	43.26
619.193	43.17
619.384	43.56
619.576	43.71
619.768	43.76
619.959	43.87
620.151	43.77
620.343	43.72
620.534	43.79
620.726	43.88
620.917	44.12
621.109	43.92
621.301	43.88
621.492	43.66
621.684	43.5
621.875	43.58
622.067	43.66
622.258	43.89
622.45	44.25
622.641	44.19
622.832	44.31
623.024	44.31
623.215	44.22
623.407	44.24
623.598	44.27
623.789	44.49
623.981	44.46
624.172	44.34
624.363	44.28
624.555	44.06
624.746	44.19
624.937	43.88
625.129	43.83
625.32	43.74
625.511	43.75
625.702	43.5
625.893	43.43
626.085	43.51
626.276	43.51
626.467	43.53
626.658	43.42
626.849	43.24
627.04	43.31
627.231	43.39
627.422	43.48
627.614	43.42
627.805	43.5
627.996	43.34
628.187	43.37
628.378	43.4
628.569	43.33
628.76	43.56
628.951	43.84
629.142	43.96
629.332	43.95
629.523	44.02
629.714	44.13
629.905	44.39
630.096	44.66
630.287	44.71
630.478	44.73
630.669	44.92
630.859	45.02
631.05	44.92
631.241	44.69
631.432	44.65
631.623	44.62
631.813	44.63
632.004	44.4
632.195	44.06
632.385	43.97
632.576	44.1
632.767	43.93
632.957	43.87
633.148	43.86
633.339	43.97
633.529	43.96
633.72	43.9
633.91	43.86
634.101	43.94
634.292	44.04
634.482	44.05
634.673	43.98
634.863	43.99
635.054	43.84
635.244	43.71
635.435	43.67
635.625	43.59
635.815	43.74
636.006	43.85
636.196	43.7
636.387	43.67
636.577	43.78
636.767	43.75
636.958	43.91
637.148	43.9
637.338	44.1
637.529	44.21
637.719	44.28
637.909	44.23
638.099	43.97
638.29	44.26
638.48	44.61
638.67	44.58
638.86	44.47
639.05	44.42
639.241	44.6
639.431	44.49
639.621	44.71
639.811	44.69
640.001	44.74
640.191	45.06
640.381	45
640.571	44.86
640.761	44.72
640.951	45.08
641.141	44.82
641.331	44.76
641.521	44.76
641.711	44.63
641.901	44.72
642.091	44.77
642.281	44.76
642.471	44.72
642.661	44.8
642.851	44.99
643.041	44.85
643.231	45.08
643.42	45.33
643.61	45.76
643.8	45.69
643.99	45.68
644.18	45.63
644.369	45.54
644.559	45.73
644.749	45.87
644.939	45.81
645.128	45.91
645.318	45.93
645.508	45.64
645.697	45.38
645.887	45.59
646.076	45.53
646.266	45.51
646.456	45.67
646.645	45.45
646.835	45.03
647.024	45
647.214	44.78
647.403	45.01
647.593	44.98
647.782	45.18
647.972	45.09
648.161	45.4
648.351	45.56
648.54	45.33
648.73	45.41
648.919	45.97
649.108	46.07
649.298	46.29
649.487	46.18
649.677	46.55
649.866	46.25
650.055	46.31
650.244	46.35
650.434	46.2
650.623	46.36
650.812	46.3
651.002	46.03
651.191	46.12
651.38	46.1
651.569	46.23
651.758	46.14
651.947	46.37
652.137	46.47
652.326	46.15
652.515	46.18
652.704	46.23
652.893	46.44
653.082	46.25
653.271	46.19
653.46	46.4
653.649	46.47
653.838	46.3
654.027	46.27
654.216	46.33
654.405	46.7
654.594	46.76
654.783	46.79
654.972	46.91
655.161	47.19
655.35	47.25
655.539	46.86
655.728	46.55
655.916	46.74
656.105	46.57
656.294	46.51
656.483	46.36
656.672	46.5
656.86	46.36
657.049	46.31
657.238	46.16
657.427	46.1
657.615	46.14
657.804	46.23
657.993	46.12
658.181	46.12
658.37	45.93
658.559	46.02
658.747	45.92
658.936	45.98
659.125	45.48
659.313	45.73
659.502	45.87
659.69	45.97
659.879	45.9
660.067	45.83
660.256	45.93
660.444	46.11
660.633	46.07
660.821	46.04
661.01	46.16
661.198	46.74
661.387	46.54
661.575	46.38
661.763	46.5
661.952	46.69
662.14	46.87
662.328	46.9
662.517	46.77
662.705	47.02
662.893	47.25
663.082	47.44
663.27	47.61
663.458	47.57
663.646	47.83
663.834	48.05
664.023	48.06
664.211	48.32
664.399	48.62
664.587	48.43
664.775	48.15
664.963	48.21
665.152	48.24
665.34	48.09
665.528	48.46
665.716	48.38
665.904	48.1
666.092	48.27
666.28	48.08
666.468	47.88
666.656	48.51
666.844	48.6
667.032	48.38
667.22	48.32
667.408	48.46
667.596	48.44
667.784	48.66
667.971	48.57
668.159	48.47
668.347	48.54
668.535	48.39
668.723	48.26
668.911	48.24
669.098	48.51
669.286	48.61
669.474	48.51
669.662	48.41
669.849	48.21
670.037	48.47
670.225	48.62
670.413	48.49
670.6	48.66
670.788	48.64
670.976	48.8
671.163	48.59
671.351	48.4
671.538	48.54
671.726	48.55
671.913	48.5
672.101	48.47
672.289	48.36
672.476	48.35
672.664	48.33
672.851	48.26
673.039	48.33
673.226	48.46
673.413	48.38
673.601	48.28
673.788	48.52
673.976	48.68
674.163	48.67
674.35	48.88
674.538	49.14
674.725	49.4
674.912	49.35
675.1	49.25
675.287	49.28
675.474	49.4
675.662	49.52
675.849	49.52
676.036	49.35
676.223	49.3
676.411	48.92
676.598	48.63
676.785	48.31
676.972	48.55
677.159	48.45
677.346	48.48
677.533	48.55
677.721	48.48
677.908	48.07
678.095	48.05
678.282	47.9
678.469	47.76
678.656	47.97
678.843	47.78
679.03	47.72
679.217	47.94
679.404	47.92
679.591	47.92
679.778	47.78
679.964	48.01
680.151	48.35
680.338	48.26
680.525	48.7
680.712	48.62
680.899	48.99
681.086	48.97
681.272	48.88
681.459	49.03
681.646	49.12
681.833	49.28
682.02	49.21
682.206	49.13
682.393	49.25
682.58	49.01
682.766	49.06
682.953	49.14
683.14	49.18
683.326	49.35
683.513	49.54
683.7	49.48
683.886	49.41
684.073	49.7
684.259	49.38
684.446	49.79
684.632	50.02
684.819	50
685.005	50.15
685.192	50.32
685.378	50.51
685.565	50.28
685.751	50.34
685.938	50.43
686.124	50.16
686.31	50.45
686.497	50.37
686.683	49.98
686.87	49.85
687.056	49.74
687.242	49.73
687.429	49.57
687.615	49.66
687.801	49.51
687.987	49.57
688.174	49.91
688.36	49.77
688.546	49.99
688.732	50.13
688.918	50.51
689.105	50.88
689.291	51.16
689.477	51.19
689.663	51.08
689.849	51.27
690.035	51.15
690.221	51.38
690.407	51.6
690.593	51.8
690.779	51.97
690.965	52.02
691.151	51.66
691.337	51.51
691.523	51.67
691.709	51.71
691.895	51.63
692.081	51.79
692.267	51.68
692.453	52.03
692.639	51.93
692.825	52.08
693.011	52.15
693.196	52.26
693.382	51.8
693.568	51.65
693.754	51.74
693.94	52.03
694.125	52.26
694.311	52.08
694.497	51.48
694.682	51.19
694.868	51.18
695.054	51.25
695.239	51.23
695.425	51.89
695.611	51.92
695.796	51.84
695.982	51.59
696.168	51.4
696.353	51.14
696.539	51.32
696.724	50.82
696.91	50.82
697.095	50.44
697.281	50.35
697.466	50.07
697.652	49.69
697.837	49.64
698.023	49.73
698.208	49.61
698.393	49.7
698.579	49.55
698.764	49.88
698.949	49.93
699.135	50.04
699.32	50.05
699.505	49.91
699.691	50.01
699.876	50.01
700.061	50.01
700.246	50.04
700.432	50.36
700.617	50.48
700.802	50.48
700.987	50.62
701.172	50.84
701.358	50.94
701.543	51.11
701.728	51.7
701.913	52.06
702.098	52.37
702.283	52.82
702.468	52.55
702.653	52.85
702.838	53.33
703.023	53.51
703.208	53.63
703.393	53.86
703.578	54.37
703.763	54.37
703.948	54.47
704.133	54.43
704.318	54.48
704.503	54.66
704.688	54.51
704.873	54.85
705.057	54.69
705.242	54.8
705.427	54.96
705.612	54.68
705.797	55.04
705.981	54.98
706.166	55.43
706.351	55.69
706.536	55.73
706.72	56.01
706.905	55.78
707.09	55.91
707.274	55.98
707.459	55.87
707.644	56.21
707.828	55.59
708.013	55.79
708.197	55.13
708.382	54.89
708.567	54.95
708.751	54.83
708.936	54.51
709.12	54.51
709.305	54.33
709.489	54.35
709.673	54.24
709.858	54.47
710.042	54.58
710.227	54.67
710.411	54.76
710.596	54.57
710.78	55
710.964	55.16
711.149	55.35
711.333	55.82
711.517	55.54
711.702	55.41
711.886	55.26
712.07	54.92
712.254	55.42
712.438	55.32
712.623	55.48
712.807	55.1
712.991	55.13
713.175	54.88
713.359	54.28
713.544	54.39
713.728	54.26
713.912	54.17
714.096	53.98
714.28	53.42
714.464	53.44
714.648	53.12
714.832	53.07
715.016	53.22
715.2	53.04
715.384	53.07
715.568	53.48
715.752	53.54
715.936	53.32
716.12	53.25
716.304	53.47
716.488	53.44
716.671	53.57
716.855	53.81
717.039	53.68
717.223	53.7
717.407	53.53
717.59	53.23
717.774	53.42
717.958	53.61
718.142	53.93
718.325	53.82
718.509	53.64
718.693	53.73
718.877	53.44
719.06	53.34
719.244	53.71
719.428	54.09
719.611	54.13
719.795	53.94
719.978	54.77
720.162	54.75
720.345	55.09
720.529	55.46
720.713	55.78
720.896	55.84
721.08	56.09
721.263	56.09
721.446	56.21
721.63	56.2
721.813	56.58
721.997	56.26
722.18	56.29
722.364	56.19
722.547	56.47
722.73	56.21
722.914	56.86
723.097	56.69
723.28	56.54
723.464	56.84
723.647	57.27
723.83	56.8
724.013	56.59
724.197	57.06
724.38	56.86
724.563	56.33
724.746	56.49
724.929	55.79
725.112	56.07
725.296	55.67
725.479	55.46
725.662	54.97
725.845	55.21
726.028	55.21
726.211	54.99
726.394	55.06
726.577	55.49
726.76	55.02
726.943	55.1
727.126	54.28
727.309	54.23
727.492	53.88
727.675	54.46
727.858	54.9
728.041	54.78
728.224	54.77
728.407	55.12
728.589	55.14
728.772	55.36
728.955	55.7
729.138	56.39
729.321	56.5
729.503	56.87
729.686	56.51
729.869	55.92
730.052	56.36
730.234	55.93
730.417	55.96
730.6	55.56
730.782	55.68
730.965	55.38
731.148	55.09
731.33	55
731.513	54.67
731.695	53.98
731.878	54.15
732.061	53.94
732.243	54.33
732.426	54.03
732.608	53.95
732.791	54.1
732.973	54.08
733.156	54.14
733.338	54.72
733.52	54.85
733.703	55.24
733.885	55.01
734.068	55.01
734.25	55.38
734.432	54.98
734.615	55.55
734.797	55.37
734.979	55.59
735.162	55.83
735.344	55.59
735.526	56.09
735.708	56.39
735.891	56.73
736.073	56.63
736.255	56.78
736.437	57.46
736.619	57.41
736.802	57.98
736.984	57.89
737.166	58.52
737.348	58.55
737.53	58.09
737.712	58.39
737.894	58.12
738.076	57.91
738.258	57.1
738.44	56.98
738.622	56.63
738.804	56.52
738.986	56.79
739.168	56.26
739.35	56.34
739.532	56.79
739.714	56.61
739.896	56.58
740.078	57.02
740.259	57
740.441	57.22
740.623	57.26
740.805	56.89
740.987	56.46
741.168	56.43
741.35	56.45
741.532	56.06
741.714	56.37
741.895	56.83
742.077	56.87
742.259	57.45
742.44	57.06
742.622	57.35
742.804	57.77
742.985	58.09
743.167	57.93
743.348	57.91
743.53	58.57
743.711	58.06
743.893	58.1
744.075	57.94
744.256	57.88
744.438	58.6
744.619	58.75
744.8	58.93
744.982	59.12
745.163	59.35
745.345	59.85
745.526	59.56
745.707	60.11
745.889	59.8
746.07	59.91
746.252	60.08
746.433	59.55
746.614	59.51
746.795	59.12
746.977	60.05
747.158	60.18
747.339	59.81
747.52	60.2
747.702	60.03
747.883	61.01
748.064	61.57
748.245	61.35
748.426	61.25
748.607	62.04
748.788	62.42
748.97	61.47
749.151	61.84
749.332	61.79
749.513	61.34
749.694	60.74
749.875	60.42
750.056	59.78
750.237	60.32
750.418	60.98
750.599	60.04
750.78	59.68
750.96	59.77
751.141	59.75
751.322	60.07
751.503	59.83
751.684	60.49
751.865	60.22
752.046	60.33
752.226	59.76
752.407	59.18
752.588	59.12
752.769	59.25
752.949	59.63
753.13	59.47
753.311	59.43
753.492	59.71
753.672	60.63
753.853	61
754.034	61.05
754.214	61.33
754.395	61.25
754.575	61.85
754.756	62.44
754.937	62.36
755.117	62.66
755.298	62.92
755.478	62.86
755.659	61.73
755.839	61.46
756.02	61.34
756.2	60.55
756.381	61.14
756.561	60.46
756.741	59.81
756.922	59.54
757.102	59.3
757.283	59.12
757.463	59.37
757.643	59.16
757.823	59.15
758.004	59.33
758.184	60.51
758.364	60.24
758.545	59.74
758.725	59.77
758.905	59.43
759.085	59.93
759.265	60
759.446	60.2
759.626	60.81
759.806	60.95
759.986	61.41
760.166	60.49
760.346	59.64
760.526	59.87
760.706	59.81
760.886	59.95
761.066	59.54
761.246	59.42
761.426	59.2
761.606	58.95
761.786	58.27
761.966	57.38
762.146	56.68
762.326	57.19
762.506	57.29
762.686	56.79
762.866	55.94
763.046	55.51
763.225	54.99
763.405	54.23
763.585	53.54
763.765	53.22
763.945	53.04
764.124	53.7
764.304	53.51
764.484	53.6
764.664	53.94
764.843	54.44
765.023	54.39
765.203	54.41
765.382	54.47
765.562	55.04
765.741	55.8
765.921	56.62
766.101	57
766.28	57.17
766.46	57.25
766.639	57.03
766.819	57.44
766.998	57.64
767.178	57.17
767.357	58.26
767.537	58.72
767.716	58.76
767.896	58.67
768.075	58.35
768.254	58.11
768.434	58.13
768.613	58.9
768.792	59.32
768.972	59.77
769.151	61.25
769.33	61.07
769.51	60.78
769.689	61.08
769.868	61.19
770.047	61.35
770.226	61.58
770.406	61.68
770.585	61.92
770.764	62.06
770.943	61.76
771.122	61.29
771.301	60.88
771.48	61.77
771.66	60.82
771.839	60.28
772.018	60.46
772.197	60.78
772.376	60.89
772.555	61.42
772.734	60.73
772.913	60.79
773.092	61.19
773.271	61.63
773.449	60.81
773.628	62.26
773.807	63.07
773.986	63.37
774.165	63.57
774.344	63.04
774.523	62.33
774.701	62.96
774.88	64.23
775.059	64.9
775.238	64.02
775.417	64.02
775.595	64.03
775.774	63.92
775.953	63.97
776.131	64.2
776.31	64.08
776.489	63.94
776.667	63.99
776.846	63.49
777.025	62.66
777.203	63.39
777.382	62.93
777.56	62.45
777.739	61.86
777.917	62.01
778.096	62.03
778.274	62.83
778.453	63.43
778.631	64.16
778.81	64.11
778.988	64.43
779.166	64.3
779.345	65.41
779.523	64.69
779.702	65.46
779.88	65.17
780.058	65.56
780.237	66.27
780.415	65.37
780.593	63.73
780.771	63.29
780.95	62.93
781.128	64.28
781.306	64.88
781.484	65.79
781.662	65.39
781.841	65.2
782.019	64.21
782.197	63.56
782.375	64.21
782.553	65.23
782.731	66.19
782.909	67.59
783.087	67.31
783.265	66.41
783.443	66.16
783.621	66.98
783.799	67.48
783.977	68.07
784.155	68.19
784.333	67.76
784.511	67.47
784.689	66.65
784.867	66.16
785.045	65.41
785.223	66.2
785.4	65.95
785.578	66.62
785.756	66.93
785.934	67.43
786.112	66.76
786.289	66.82
786.467	66.05
786.645	65.93
786.823	65.17
787	64.53
787.178	63.93
787.356	63.59
787.533	62.05
787.711	61.69
787.889	60.9
788.066	61.8
788.244	61.03
788.421	61.73
788.599	61.33
788.776	61.64
788.954	62.84
789.131	62.09
789.309	62.92
789.486	63.85
789.664	63.63
789.841	64.29
790.019	63.95
790.196	65.41
790.373	65.89
790.551	67.59
790.728	67.92
790.906	67.96
791.083	69.55
791.26	70.04
791.437	69.99
791.615	70.26
791.792	70.43
791.969	71.17
792.146	70.46
792.324	70.11
792.501	68.54
792.678	68.95
792.855	68.67
793.032	67.85
793.209	67.52
793.387	66.22
793.564	66.61
793.741	67.2
793.918	66.28
794.095	65.82
794.272	66.03
794.449	66.13
794.626	65.37
794.803	65.02
794.98	65.82
795.157	66.12
795.334	67.38
795.511	66.99
795.688	65.71
795.864	65.54
796.041	66.54
796.218	66.44
796.395	66.71
796.572	66.42
796.749	66.97
796.925	65.67
797.102	64.67
797.279	64.43
797.456	65.07
797.632	65.19
797.809	66.01
797.986	64.63
798.162	64.27
798.339	63.28
798.516	63.82
798.692	63.86
798.869	65.35
799.046	65.67
799.222	65
799.399	64.81
799.575	65.37
799.752	65.14
799.928	67.64
800.105	68.49
800.281	69.03
800.458	69.39
800.634	69.61
800.811	68.91
800.987	69.7
801.163	69.52
801.34	69.36
801.516	70.06
801.692	70.66
801.869	68.9
802.045	68.1
802.221	69.39
802.398	69.37
802.574	68.53
802.75	68.65
802.926	68.6
803.103	68.68
803.279	68.57
803.455	67.46
803.631	66.99
803.807	68.05
803.983	68.28
804.16	68.19
804.336	68.53
804.512	68.18
804.688	69.3
804.864	68.51
805.04	70.42
805.216	69.19
805.392	72.25
805.568	72.83
805.744	71.45
805.92	71.8
806.096	72
806.272	70.62
806.448	71.55
806.623	70.46
806.799	71
806.975	69.22
807.151	69.89
807.327	67.38
807.503	66.83
807.678	68.18
807.854	66.98
808.03	66.58
808.206	67.82
808.381	67.81
808.557	68.2
808.733	69.72
808.908	70.52
809.084	70.89
809.26	72.59
809.435	73.03
809.611	73.04
809.787	73.25
809.962	74.16
810.138	72.88
810.313	72.27
810.489	72.79
810.664	70.91
810.84	71.07
811.015	70.83
811.191	69.43
811.366	69.23
811.542	69.2
811.717	69.58
811.892	69.64
812.068	71.23
812.243	71.43
812.419	70.65
812.594	71.67
812.769	72.47
812.944	73
813.12	73.21
813.295	73.57
813.47	74.22
813.645	73.89
813.821	73.07
813.996	71.22
814.171	72.17
814.346	72.76
814.521	73.1
814.697	72.23
814.872	71.6
815.047	72.26
815.222	71.09
815.397	69.21
815.572	69.4
815.747	68.3
815.922	68.99
816.097	69.17
816.272	68.41
816.447	68.16
816.622	69.48
816.797	69.21
816.972	67.71
817.147	68.66
817.322	68.78
817.496	69.57
817.671	70.37
817.846	71.06
818.021	68.3
818.196	67.65
818.371	66.13
818.545	64.71
818.72	64.72
818.895	64.8
819.069	62.49
819.244	61.87
819.419	60.49
819.594	59.53
819.768	58.31
819.943	58.9
820.117	57.7
820.292	56.35
820.467	54.53
820.641	53.24
820.816	51.67
820.99	50.92
821.165	49.74
821.339	48.49
821.514	47.22
821.688	46.55
821.863	45.54
822.037	45.17
822.212	44.92
822.386	44.61
822.56	44.28
822.735	44.16
822.909	44.09
823.084	43.97
823.258	44.07
823.432	44.48
823.606	44.41
823.781	44.75
823.955	44.93
824.129	45.17
824.303	45.88
824.478	46.09
824.652	46.52
824.826	47.04
825	47.35
825.174	48.25
825.348	48.49
825.523	49.11
825.697	49.09
825.871	48.97
826.045	49.13
826.219	48.95
826.393	48.98
826.567	48.6
826.741	48.43
826.915	48.76
827.089	48.39
827.263	48.14
827.437	47.8
827.611	48.1
827.784	48.4
827.958	48.38
828.132	48.22
828.306	48.67
828.48	49.04
828.654	49.76
828.827	50.39
829.001	51.14
829.175	52.54
829.349	54.16
829.522	55.25
829.696	56.48
829.87	57.64
830.044	59.52
830.217	61.45
830.391	63.16
830.565	63.63
830.738	63.98
830.912	65.08
831.085	65.07
831.259	64.67
831.432	63.98
831.606	63.97
831.779	62.71
831.953	62.95
832.126	61.13
832.3	60.62
832.473	60.01
832.647	59.44
832.82	58.67
832.994	57.05
833.167	56.64
833.34	56.8
833.514	55.72
833.687	55.7
833.86	54.72
834.034	54.69
834.207	54.68
834.38	54.21
834.553	53.95
834.727	54.04
834.9	53.86
835.073	53.93
835.246	53.69
835.419	54.71
835.593	56
835.766	56.3
835.939	57.13
836.112	57.65
836.285	59.21
836.458	60.53
836.631	61.31
836.804	63.52
836.977	64.98
837.15	66.66
837.323	67.94
837.496	69
837.669	69.69
837.842	71.28
838.015	71.63
838.188	72.16
838.361	72.2
838.533	72.58
838.706	73.27
838.879	73.42
839.052	74.41
839.225	74.09
839.398	73.18
839.57	75.21
839.743	76.92
839.916	77.01
840.088	76.28
840.261	77.64
840.434	77.81
840.607	77.92
840.779	76.9
840.952	75.44
841.124	74.43
841.297	74.05
841.47	74.77
841.642	72.31
841.815	73.2
841.987	73.66
842.16	75
842.332	77.27
842.505	78.29
842.677	80.02
842.85	83.34
843.022	85.21
843.194	88.64
843.367	87.35
843.539	89.12
843.712	91.02
843.884	94.16
844.056	92.65
844.229	90.05
844.401	92.93
844.573	96.19
844.745	98.35
844.918	100.33
845.09	96.61
845.262	102.1
845.434	102.98
845.606	100.82
845.779	100.51
845.951	101.81
846.123	101.81
846.295	99.94
846.467	98.58
846.639	99.81
846.811	99.94
846.983	104.59
847.155	101.19
847.327	104.22
847.499	104.54
847.671	105.89
847.843	106.66
848.015	108.23
848.187	109.13
848.359	104.83
848.531	101.39
848.703	102.04
848.875	102.07
849.047	100.13
849.218	96.04
849.39	97.79
849.562	98.02
849.734	98.36
849.905	97.7
850.077	95.38
850.249	99.23
850.421	101.58
850.592	99.57
850.764	101.3
850.936	104.55
851.107	107.35
851.279	104.28
851.451	108.15
851.622	107.44
851.794	113.77
851.965	119.27
852.137	121.03
852.308	120.96
852.48	123.27
852.651	118.72
852.823	115.89
852.994	114.5
853.166	117.96
853.337	113.73
853.509	112.94
853.68	107.69
853.851	102.12
854.023	104.5
854.194	102.92
854.365	101.09
854.537	103.59
854.708	102.95
854.879	111.32
855.05	114.64
855.222	114.97
855.393	118.56
855.564	117.17
855.735	124.49
855.906	125.74
856.078	127.82
856.249	126.72
856.42	127.33
856.591	128.49
856.762	123.22
856.933	120.18
857.104	118.66
857.275	116.02
857.446	115.42
857.617	111.02
857.788	109.13
857.959	108.3
858.13	113.17
858.301	111.12
858.472	111.12
858.643	108.67
858.814	109.52
858.985	112.4
859.155	117.3
859.326	119.4
859.497	120.12
859.668	115.01
859.839	116.59
860.009	118.16
860.18	119.53
860.351	115.54
860.522	119.16
860.692	116.7
860.863	113.08
861.034	108.94
861.204	112.79
861.375	112.26
861.546	115.87
861.716	116.72
861.887	112.64
862.057	110.42
862.228	113.03
862.398	110.52
862.569	110.35
862.739	113
862.91	116.05
863.08	110.05
863.251	109.42
863.421	109.16
863.592	104.27
863.762	104.83
863.932	104.42
864.103	108.96
864.273	110.12
864.443	111.96
864.614	114.26
864.784	111.08
864.954	114.71
865.125	114.27
865.295	113.12
865.465	118.37
865.635	122.1
865.805	124.08
865.976	119.28
866.146	117.96
866.316	119.57
866.486	119.73
866.656	119.86
866.826	121.57
866.996	131.26
867.166	132.53
867.336	132.84
867.506	132.58
867.676	130.72
867.846	133.01
868.016	133.2
868.186	130.17
868.356	122.33
868.526	121.08
868.696	123.61
868.866	116.55
869.036	119.33
869.206	120.81
869.376	116.07
869.545	119.68
869.715	120.77
869.885	125.26
870.055	127.35
870.224	132.59
870.394	134.39
870.564	127.56
870.734	129.35
870.903	128.63
871.073	128.72
871.243	132.95
871.412	132.93
871.582	133.39
871.751	128.9
871.921	128
872.091	125.75
872.26	127.91
872.43	132.3
872.599	126.08
872.769	126.77
872.938	123.88
873.108	119.14
873.277	113.07
873.446	110.81
873.616	114.68
873.785	116.69
873.955	115.59
874.124	114.65
874.293	110.83
874.463	118.14
874.632	114.64
874.801	117.27
874.971	120.52
875.14	125.02
875.309	123.89
875.478	126.02
875.647	122.32
875.817	128.67
875.986	119.19
876.155	120.39
876.324	112.55
876.493	112.31
876.662	108.19
876.831	109.23
877	108.46
877.17	108.51
877.339	107.44
877.508	104.89
877.677	98.83
877.846	104.88
878.015	101.97
878.184	105.74
878.352	110.79
878.521	109.67
878.69	107.3
878.859	105.98
879.028	105.37
879.197	101.81
879.366	100.87
879.534	97.66
879.703	92.77
879.872	86.54
880.041	79.98
880.21	72.52
880.378	68.35
880.547	64.99
880.716	61.81
880.884	59.75
881.053	55.56
881.222	53.11
881.39	50.64
881.559	48.83
881.727	47.33
881.896	45.86
882.065	45.67
882.233	45.19
882.402	43.92
882.57	44.06
882.739	43.86
882.907	44.54
883.076	45.27
883.244	46.41
883.412	46.52
883.581	47.14
883.749	48.3
883.918	48.64
884.086	49.61
884.254	51.55
884.423	52.13
884.591	52.61
884.759	53.62
884.927	54.28
885.096	54.56
885.264	55.87
885.432	59.33
885.6	62.8
885.769	65.48
885.937	66.48
886.105	70.17
886.273	72.72
886.441	76.29
886.609	78.58
886.777	80.46
886.945	84.92
887.113	90.2
887.281	90.52
887.449	89.25
887.617	93.21
887.785	96.42
887.953	93.97
888.121	93.93
888.289	97.11
888.457	101.4
888.625	105.76
888.793	108
888.961	111.06
889.129	116.97
889.296	118.23
889.464	115.24
889.632	117.76
889.8	120.91
889.967	128.36
890.135	129.15
