Data from 2938712__Reflection_02.txt Node
Date: Tue Mar 17 19:21:43 EDT 2015
User: robert
Spectrometer: USB4E03002
Autoset integration time: false
Trigger mode: 4
Integration Time (sec): 1.000000E-1
Scans to average: 10
Electric dark correction enabled: false
Nonlinearity correction enabled: false
Boxcar width: 5
Stray light correction enabled: false
XAxis mode: Wavelengths
Stop averaging: false
Number of Pixels in Spectrum: 3648
>>>>>Begin Spectral Data<<<<<
177.575	5.15
177.794	13.56
178.014	11.95
178.233	16.72
178.452	19.84
178.672	22.82
178.891	25.9
179.11	59.38
179.33	200.49
179.549	183.76
179.768	-7966.67
179.987	-81.36
180.207	-72.55
180.426	1015.79
180.645	300
180.864	153.85
181.084	185.19
181.303	3842.86
181.522	389.47
181.741	97.86
181.96	65.8
182.179	50.77
182.398	72.99
182.618	50.79
182.837	40.55
183.056	48.95
183.275	66.02
183.494	58.12
183.713	56.74
183.932	37.24
184.151	38.62
184.37	54.56
184.589	57.19
184.808	52.26
185.027	77.79
185.246	74.81
185.465	74.83
185.684	66.52
185.903	99.09
186.122	129.54
186.341	125.92
186.56	95.2
186.779	60.94
186.998	98.07
187.216	85.33
187.435	102.1
187.654	114.26
187.873	102.83
188.092	95.92
188.311	80.26
188.53	85.8
188.748	85.95
188.967	94.16
189.186	119.65
189.405	97.46
189.623	122.12
189.842	78.48
190.061	79.27
190.28	89.28
190.498	76.26
190.717	84.7
190.936	63.55
191.154	64.94
191.373	60.75
191.592	60.38
191.81	68.79
192.029	53
192.248	69.75
192.466	63.69
192.685	65.71
192.904	68.85
193.122	66.2
193.341	66.24
193.559	83.9
193.778	79.94
193.996	83.27
194.215	76.8
194.433	89.56
194.652	82.7
194.87	90.24
195.089	84.95
195.307	92.07
195.526	108.85
195.744	127.44
195.963	118.06
196.181	125.07
196.399	111.3
196.618	126.44
196.836	129.93
197.055	96.01
197.273	92.02
197.491	58.33
197.71	98.63
197.928	31.84
198.146	51.16
198.365	97.22
198.583	128.21
198.801	166.98
199.019	158.8
199.238	117.07
199.456	120.9
199.674	127.56
199.892	120.18
200.111	115.46
200.329	122.33
200.547	106.26
200.765	83.55
200.983	68.75
201.202	63.52
201.42	81.03
201.638	85.22
201.856	92.32
202.074	96.22
202.292	111.25
202.51	89.84
202.728	86.04
202.946	79.89
203.165	95.71
203.383	99.34
203.601	109.67
203.819	89.51
204.037	79.37
204.255	96.41
204.473	87.56
204.691	76.13
204.909	66.35
205.127	76.83
205.345	66.1
205.562	50.71
205.78	52.18
205.998	36.4
206.216	41.04
206.434	40.04
206.652	31.49
206.87	18.58
207.088	13.66
207.306	34.27
207.523	15.2
207.741	25.36
207.959	15.37
208.177	11
208.395	8.11
208.612	5.32
208.83	20.51
209.048	25.79
209.266	40.4
209.483	48.9
209.701	41.94
209.919	54.78
210.136	46.08
210.354	60.84
210.572	56.03
210.79	55.36
211.007	55.52
211.225	60.08
211.442	57.24
211.66	75.48
211.878	57.33
212.095	129.05
212.313	119.41
212.53	104.52
212.748	107.76
212.966	108.98
213.183	121.57
213.401	113.28
213.618	100.4
213.836	94.47
214.053	79.86
214.271	74.93
214.488	30.78
214.705	42.66
214.923	56.06
215.14	49.45
215.358	48.07
215.575	53.33
215.793	37.45
216.01	28.85
216.227	29.19
216.445	23.49
216.662	26.63
216.879	15.31
217.097	-3.27
217.314	-2.13
217.531	9.74
217.749	17.43
217.966	11.81
218.183	35.76
218.4	34
218.618	22.71
218.835	35.09
219.052	35.84
219.269	45.74
219.487	47.28
219.704	46.09
219.921	48.85
220.138	47.79
220.355	50.18
220.572	33.91
220.79	37.41
221.007	39.86
221.224	29.66
221.441	25.99
221.658	17.65
221.875	18.31
222.092	10.83
222.309	2.89
222.526	-0.04
222.743	-1.03
222.96	4.6
223.177	-3.03
223.394	-1.54
223.611	4.03
223.828	6.89
224.045	5.96
224.262	-1.93
224.479	3.26
224.696	5.9
224.913	5.91
225.13	3.52
225.347	1.8
225.564	4.13
225.781	1.6
225.997	4.77
226.214	2.7
226.431	6.16
226.648	9.21
226.865	7.72
227.082	7.06
227.298	7.58
227.515	8
227.732	8.3
227.949	7.73
228.165	7.74
228.382	7.29
228.599	7.44
228.816	6.22
229.032	5.15
229.249	4.81
229.466	4.46
229.682	3.14
229.899	2.65
230.116	2.07
230.332	2.17
230.549	1.78
230.765	1.58
230.982	1.41
231.199	1.38
231.415	2.34
231.632	2.44
231.848	2.06
232.065	3.83
232.281	4.65
232.498	6.05
232.714	6.7
232.931	7.34
233.147	6.98
233.364	6.01
233.58	7.34
233.797	5.71
234.013	6.27
234.23	7.4
234.446	6.44
234.662	6.71
234.879	5.44
235.095	5.45
235.312	5.22
235.528	5.41
235.744	7.74
235.961	7.08
236.177	8.87
236.393	7.81
236.61	6.96
236.826	6.66
237.042	4.77
237.258	5.87
237.475	4.81
237.691	4.31
237.907	3
238.123	2.69
238.339	1.58
238.556	0.48
238.772	0.83
238.988	2.48
239.204	4.32
239.42	6.31
239.636	6.09
239.853	5.7
240.069	6.33
240.285	7.08
240.501	6.15
240.717	6.11
240.933	6.56
241.149	6.77
241.365	5.76
241.581	4.75
241.797	4.71
242.013	4.43
242.229	5.52
242.445	5.12
242.661	4.56
242.877	4.92
243.093	5.23
243.309	4.91
243.525	5.27
243.741	5.6
243.957	6.1
244.173	5.94
244.388	5.98
244.604	4.5
244.82	4.54
245.036	5.04
245.252	4.84
245.468	5.37
245.683	5.24
245.899	5.11
246.115	5.76
246.331	5.45
246.547	5.39
246.762	5.36
246.978	5.55
247.194	5.59
247.409	5.79
247.625	5.86
247.841	5.37
248.057	5.51
248.272	5.62
248.488	5.07
248.703	5.16
248.919	5.29
249.135	5.29
249.35	5.62
249.566	6.22
249.782	5.91
249.997	5.63
250.213	5.84
250.428	6.43
250.644	6.26
250.859	6.95
251.075	7.08
251.29	6.88
251.506	6.68
251.721	6.37
251.937	5.86
252.152	5.88
252.368	5.52
252.583	5.74
252.798	5.14
253.014	4.71
253.229	4.4
253.445	4.15
253.66	4.74
253.875	4.89
254.091	4.61
254.306	4.43
254.521	4.61
254.737	4.59
254.952	5.54
255.167	5.29
255.383	5.51
255.598	5.22
255.813	5.68
256.028	4.84
256.244	4.64
256.459	5
256.674	5.24
256.889	5.18
257.104	5.76
257.32	4.97
257.535	4.72
257.75	5.01
257.965	5.04
258.18	4.85
258.395	4.37
258.61	4.45
258.826	4.36
259.041	4.38
259.256	4.43
259.471	4.32
259.686	4.24
259.901	4.39
260.116	4.34
260.331	4.35
260.546	4.29
260.761	4.22
260.976	4.16
261.191	3.95
261.406	3.87
261.621	3.61
261.836	3.74
262.05	3.57
262.265	3.47
262.48	2.96
262.695	2.53
262.91	2.5
263.125	2.87
263.34	2.1
263.555	2.55
263.769	2.39
263.984	2.38
264.199	2.05
264.414	1.82
264.629	2.05
264.843	1.98
265.058	2.05
265.273	2.48
265.488	2.62
265.702	3.56
265.917	2.95
266.132	3.12
266.346	3.12
266.561	3.12
266.776	3.47
266.99	3.6
267.205	4.09
267.42	4.31
267.634	4.32
267.849	4.14
268.063	3.99
268.278	4.23
268.492	4.05
268.707	3.85
268.922	4.48
269.136	4.67
269.351	4.76
269.565	4.68
269.78	4.27
269.994	3.57
270.209	3.81
270.423	3.33
270.637	3.21
270.852	3.57
271.066	3.97
271.281	3.46
271.495	3.28
271.709	2.92
271.924	2.83
272.138	3.04
272.353	3.6
272.567	3.31
272.781	3.77
272.996	3.9
273.21	3.65
273.424	3.32
273.638	3.22
273.853	3.29
274.067	3.15
274.281	3.01
274.495	2.91
274.71	2.21
274.924	2.01
275.138	1.96
275.352	1.87
275.566	1.87
275.781	2.15
275.995	2.28
276.209	2.25
276.423	2.4
276.637	2.46
276.851	2.5
277.065	3.17
277.279	3.6
277.493	3.64
277.707	3.55
277.921	3.32
278.135	3.56
278.349	3.29
278.563	3.27
278.777	3.47
278.991	3.41
279.205	3.39
279.419	2.83
279.633	2.96
279.847	3.03
280.061	2.79
280.275	2.98
280.489	2.92
280.703	2.93
280.917	3.23
281.131	3.46
281.344	3.55
281.558	3.44
281.772	3.79
281.986	3.78
282.2	3.61
282.414	3.44
282.627	3.31
282.841	3.12
283.055	3.09
283.269	2.93
283.482	2.6
283.696	2.6
283.91	2.85
284.123	2.51
284.337	2.5
284.551	2.5
284.764	3.05
284.978	3.07
285.192	2.84
285.405	3.19
285.619	3.19
285.833	3.19
286.046	3.23
286.26	3.29
286.473	3.33
286.687	3.19
286.9	3.19
287.114	3.13
287.327	3.15
287.541	3.21
287.754	3.02
287.968	3.01
288.181	3.09
288.395	2.97
288.608	2.89
288.822	2.97
289.035	3.01
289.248	3.07
289.462	2.97
289.675	3.14
289.889	3.63
290.102	3.43
290.315	3.45
290.529	3.25
290.742	3.38
290.955	3.42
291.169	3.44
291.382	3.68
291.595	3.93
291.808	3.88
292.022	3.68
292.235	3.05
292.448	3.7
292.661	3.63
292.875	3.66
293.088	3.75
293.301	3.58
293.514	3.59
293.727	3.73
293.94	3.69
294.153	3.94
294.367	4.32
294.58	4.57
294.793	4.17
295.006	4.04
295.219	4.19
295.432	4.14
295.645	4.42
295.858	4.55
296.071	4.27
296.284	4.53
296.497	4.51
296.71	4.4
296.923	4.51
297.136	4.55
297.349	4.84
297.562	4.98
297.775	4.74
297.988	4.44
298.201	4.43
298.414	4.34
298.626	4.08
298.839	4.06
299.052	4.04
299.265	4.05
299.478	4.13
299.691	4.19
299.903	4.15
300.116	4.56
300.329	4.99
300.542	5.13
300.755	5.58
300.967	5.84
301.18	5.78
301.393	5.8
301.605	5.56
301.818	5.45
302.031	5.35
302.243	5.39
302.456	5.58
302.669	5.71
302.881	5.76
303.094	5.71
303.307	5.5
303.519	5.77
303.732	5.87
303.944	6.36
304.157	6.46
304.37	6.33
304.582	6.46
304.795	6.39
305.007	6
305.22	6.05
305.432	5.83
305.645	6.18
305.857	6.37
306.069	6.13
306.282	5.66
306.494	5.74
306.707	5.79
306.919	5.46
307.132	5.45
307.344	5.75
307.556	5.91
307.769	6.26
307.981	6.01
308.193	5.76
308.406	6.13
308.618	6.52
308.83	6.4
309.043	6.64
309.255	6.87
309.467	6.56
309.679	6.53
309.892	6.35
310.104	6.19
310.316	6.1
310.528	6.3
310.74	6.28
310.953	6.21
311.165	6.5
311.377	6.11
311.589	6.34
311.801	6.8
312.013	6.52
312.225	6.56
312.437	6.66
312.649	6.95
312.862	6.6
313.074	6.51
313.286	6.36
313.498	6.08
313.71	6.71
313.922	6.39
314.134	5.82
314.346	6.17
314.558	6.13
314.77	6.08
314.982	5.51
315.193	5.82
315.405	6.02
315.617	6.2
315.829	6.16
316.041	5.8
316.253	6.11
316.465	6.68
316.677	6.75
316.888	6.86
317.1	6.69
317.312	7.41
317.524	7.22
317.736	7.02
317.947	6.82
318.159	7.18
318.371	7.03
318.583	7.02
318.794	6.39
319.006	6.39
319.218	6.26
319.43	6.64
319.641	6.59
319.853	6.77
320.064	7.21
320.276	7.64
320.488	7.66
320.699	7.83
320.911	7.19
321.123	7.65
321.334	7.35
321.546	7.77
321.757	7.92
321.969	7.63
322.18	7.71
322.392	7.28
322.603	7.03
322.815	6.91
323.026	7.38
323.238	7.21
323.449	6.76
323.661	6.97
323.872	6.64
324.083	6.31
324.295	6.31
324.506	6.51
324.718	6.7
324.929	6.58
325.14	6.72
325.352	6.5
325.563	7.08
325.774	7.09
325.986	7.04
326.197	7.21
326.408	7.32
326.62	7.27
326.831	7.52
327.042	7.56
327.253	7.85
327.464	7.87
327.676	7.82
327.887	7.61
328.098	7.72
328.309	8.07
328.52	7.87
328.732	7.81
328.943	7.89
329.154	7.78
329.365	8.1
329.576	7.96
329.787	7.91
329.998	7.81
330.209	8.07
330.42	8.49
330.631	8.34
330.842	8.37
331.053	8.11
331.264	8.2
331.475	7.84
331.686	7.87
331.897	7.85
332.108	7.96
332.319	8.21
332.53	7.63
332.741	7.5
332.952	7.29
333.163	7.65
333.374	8.04
333.585	7.8
333.795	7.93
334.006	7.44
334.217	7.32
334.428	7.12
334.639	6.84
334.849	7.11
335.06	6.81
335.271	7.03
335.482	7.05
335.692	7.25
335.903	7.45
336.114	7.26
336.325	7.23
336.535	7.32
336.746	7.23
336.957	7.25
337.167	7.83
337.378	8.2
337.589	7.92
337.799	7.35
338.01	7.01
338.22	7.07
338.431	7.29
338.642	7.24
338.852	7.1
339.063	7.53
339.273	7.67
339.484	7.45
339.694	7.65
339.905	8.01
340.115	8.5
340.326	8.52
340.536	8.4
340.746	8.34
340.957	8.49
341.167	8.8
341.378	8.3
341.588	8.1
341.799	7.93
342.009	7.23
342.219	6.97
342.43	6.69
342.64	6.7
342.85	7.05
343.061	6.88
343.271	6.83
343.481	6.83
343.691	7
343.902	7.19
344.112	7.14
344.322	7.78
344.532	7.99
344.743	8.08
344.953	8.25
345.163	7.89
345.373	7.86
345.583	7.84
345.793	7.53
346.004	7.43
346.214	7.23
346.424	7.47
346.634	7.06
346.844	6.77
347.054	6.76
347.264	6.32
347.474	6.15
347.684	6.44
347.894	6.38
348.104	6.35
348.314	6.41
348.524	6.55
348.734	6.35
348.944	6.59
349.154	6.99
349.364	6.91
349.574	7.28
349.784	7.34
349.994	7.16
350.204	7.32
350.413	7.55
350.623	7.27
350.833	7.47
351.043	7.42
351.253	7.51
351.463	7.14
351.672	6.8
351.882	6.69
352.092	6.59
352.302	6.58
352.511	6.63
352.721	6.59
352.931	6.88
353.141	6.74
353.35	6.73
353.56	6.81
353.77	6.77
353.979	7.2
354.189	6.92
354.399	6.91
354.608	6.9
354.818	6.82
355.027	6.56
355.237	6.6
355.447	6.56
355.656	6.76
355.866	6.75
356.075	6.81
356.285	6.68
356.494	6.9
356.704	6.94
356.913	6.91
357.123	6.63
357.332	6.75
357.542	6.84
357.751	6.79
357.96	6.58
358.17	6.45
358.379	6.38
358.589	6.57
358.798	6.7
359.007	6.61
359.217	6.57
359.426	6.92
359.635	6.85
359.845	6.69
360.054	6.82
360.263	6.93
360.472	6.99
360.682	7.2
360.891	7.06
361.1	6.84
361.309	6.9
361.519	7.01
361.728	6.84
361.937	7
362.146	6.89
362.355	6.67
362.564	6.71
362.774	6.6
362.983	6.36
363.192	6.42
363.401	6.39
363.61	6.3
363.819	6.15
364.028	6.12
364.237	5.95
364.446	6.36
364.655	6.51
364.864	6.59
365.073	6.64
365.282	6.68
365.491	6.57
365.7	6.73
365.909	6.84
366.118	6.63
366.327	6.55
366.536	6.66
366.745	6.29
366.954	6.32
367.162	5.78
367.371	5.54
367.58	5.48
367.789	5.34
367.998	5.02
368.207	5.05
368.415	5.37
368.624	5.3
368.833	5.07
369.042	5.2
369.25	5.25
369.459	5.56
369.668	5.68
369.877	5.58
370.085	5.52
370.294	5.71
370.503	5.63
370.711	5.38
370.92	5.66
371.129	5.93
371.337	5.72
371.546	5.61
371.754	5.54
371.963	5.53
372.171	5.65
372.38	5.53
372.589	5.56
372.797	5.42
373.006	5.39
373.214	5.3
373.423	5.05
373.631	5.14
373.84	4.95
374.048	4.88
374.256	4.7
374.465	4.56
374.673	4.99
374.882	4.95
375.09	5.11
375.298	5.12
375.507	5.22
375.715	5.09
375.923	5.04
376.132	5.14
376.34	5.13
376.548	5.11
376.757	5.2
376.965	4.98
377.173	4.96
377.381	4.94
377.59	5.16
377.798	5.01
378.006	5.17
378.214	5.14
378.423	4.92
378.631	4.85
378.839	4.81
379.047	4.79
379.255	4.71
379.463	4.65
379.671	4.54
379.879	4.21
380.088	4.25
380.296	4.18
380.504	4.19
380.712	4.16
380.92	4.25
381.128	4.3
381.336	4.3
381.544	4.3
381.752	4.17
381.96	4.1
382.168	4.14
382.376	4.16
382.584	4.02
382.791	3.95
382.999	4.02
383.207	4.02
383.415	4
383.623	4.14
383.831	4.03
384.039	4.26
384.247	4.57
384.454	4.47
384.662	4.25
384.87	4.29
385.078	4.38
385.285	4.29
385.493	4.1
385.701	4.15
385.909	3.86
386.116	3.88
386.324	3.83
386.532	3.58
386.739	3.88
386.947	3.97
387.155	4.13
387.362	4.04
387.57	4.26
387.778	4.49
387.985	4.43
388.193	4.6
388.4	4.53
388.608	4.49
388.816	4.29
389.023	4.08
389.231	3.91
389.438	3.77
389.646	3.67
389.853	3.53
390.061	3.51
390.268	3.41
390.475	3.35
390.683	3.39
390.89	3.3
391.098	3.51
391.305	3.67
391.512	3.85
391.72	3.77
391.927	3.74
392.135	3.67
392.342	3.48
392.549	3.59
392.756	3.58
392.964	3.55
393.171	3.46
393.378	3.39
393.586	3.15
393.793	3.19
394	3.28
394.207	3.41
394.414	3.41
394.622	3.34
394.829	3.33
395.036	3.3
395.243	3.33
395.45	3.62
395.657	3.56
395.864	3.68
396.072	3.55
396.279	3.53
396.486	3.5
396.693	3.55
396.9	3.79
397.107	3.71
397.314	3.87
397.521	3.8
397.728	3.49
397.935	3.5
398.142	3.43
398.349	3.34
398.556	3.24
398.763	3.34
398.97	3.49
399.177	3.33
399.383	3.22
399.59	3.11
399.797	3.46
400.004	3.64
400.211	3.62
400.418	3.45
400.625	3.71
400.831	3.99
401.038	3.66
401.245	3.5
401.452	3.45
401.658	3.59
401.865	3.4
402.072	3.14
402.279	3.21
402.485	3.02
402.692	3.19
402.899	3.11
403.105	2.89
403.312	2.92
403.519	3
403.725	3.1
403.932	3.21
404.138	3.39
404.345	3.41
404.552	3.37
404.758	3.59
404.965	3.56
405.171	3.56
405.378	3.56
405.584	3.68
405.791	3.63
405.997	3.54
406.204	3.47
406.41	3.49
406.617	3.57
406.823	3.39
407.029	3.36
407.236	3.26
407.442	3.21
407.649	3.19
407.855	3.05
408.061	3.1
408.268	3.06
408.474	2.9
408.68	2.89
408.887	2.75
409.093	2.71
409.299	2.8
409.505	2.92
409.712	2.87
409.918	2.84
410.124	2.95
410.33	2.82
410.537	2.88
410.743	3.01
410.949	3.01
411.155	2.97
411.361	3.13
411.567	3.07
411.773	3.08
411.98	3.18
412.186	3.21
412.392	3.06
412.598	3.27
412.804	3.37
413.01	3.24
413.216	3.1
413.422	3.27
413.628	3.35
413.834	3.28
414.04	3.34
414.246	3.23
414.452	3.3
414.658	3.35
414.864	3.24
415.07	3.08
415.275	3.16
415.481	3.14
415.687	3.02
415.893	2.92
416.099	2.92
416.305	2.86
416.511	2.8
416.716	2.61
416.922	2.69
417.128	2.75
417.334	2.9
417.539	2.89
417.745	2.95
417.951	2.99
418.157	2.96
418.362	3.05
418.568	3.08
418.774	3.16
418.979	3.23
419.185	3.27
419.391	3.09
419.596	3.03
419.802	2.93
420.008	2.92
420.213	2.21
420.419	2.23
420.624	2.2
420.83	2.11
421.035	2.09
421.241	2.11
421.446	2.06
421.652	2.13
421.857	2.13
422.063	2.27
422.268	2.27
422.474	2.86
422.679	2.87
422.885	2.85
423.09	2.87
423.295	2.85
423.501	2.86
423.706	2.84
423.911	2.85
424.117	2.82
424.322	2.82
424.527	2.8
424.733	2.8
424.938	2.76
425.143	2.77
425.349	2.84
425.554	2.89
425.759	2.84
425.964	2.88
426.169	2.91
426.375	2.99
426.58	3.01
426.785	2.99
426.99	3.08
427.195	3.08
427.4	2.95
427.605	2.94
427.811	2.9
428.016	2.91
428.221	2.92
428.426	2.78
428.631	2.66
428.836	2.54
429.041	2.53
429.246	2.45
429.451	2.56
429.656	2.66
429.861	2.72
430.066	2.69
430.271	2.84
430.476	2.81
430.681	2.92
430.886	2.98
431.09	3.08
431.295	3.14
431.5	3.19
431.705	3.23
431.91	3.21
432.115	3.13
432.32	3.04
432.524	3.01
432.729	3.01
432.934	2.99
433.139	2.99
433.343	2.86
433.548	2.87
433.753	2.87
433.958	2.79
434.162	2.82
434.367	2.82
434.572	2.98
434.776	2.98
434.981	2.99
435.186	3.04
435.39	3.05
435.595	3.2
435.799	3.27
436.004	3.29
436.209	3.24
436.413	3.14
436.618	3.08
436.822	2.97
437.027	2.91
437.231	2.89
437.436	2.84
437.64	2.85
437.845	2.78
438.049	2.7
438.253	2.68
438.458	2.79
438.662	2.86
438.867	2.9
439.071	2.86
439.275	2.95
439.48	2.94
439.684	2.9
439.888	2.87
440.093	2.82
440.297	2.82
440.501	2.85
440.706	2.76
440.91	2.69
441.114	2.68
441.318	2.7
441.523	2.68
441.727	2.71
441.931	2.77
442.135	2.77
442.339	2.81
442.543	2.77
442.748	2.7
442.952	2.76
443.156	2.86
443.36	2.79
443.564	2.8
443.768	2.67
443.972	2.58
444.176	2.54
444.38	2.61
444.584	2.52
444.788	2.59
444.992	2.58
445.196	2.59
445.4	2.57
445.604	2.62
445.808	2.66
446.012	2.75
446.216	2.8
446.42	2.85
446.624	2.79
446.828	2.84
447.032	2.84
447.235	2.81
447.439	2.76
447.643	2.79
447.847	2.8
448.051	2.8
448.254	2.72
448.458	2.69
448.662	2.69
448.866	2.7
449.069	2.78
449.273	2.71
449.477	2.79
449.681	2.76
449.884	2.72
450.088	2.78
450.292	2.81
450.495	2.83
450.699	2.85
450.902	2.76
451.106	2.74
451.31	2.58
451.513	2.63
451.717	2.61
451.92	2.64
452.124	2.66
452.327	2.61
452.531	2.58
452.734	2.55
452.938	2.59
453.141	2.58
453.345	2.66
453.548	2.78
453.752	2.73
453.955	2.68
454.158	2.7
454.362	2.59
454.565	2.55
454.769	2.54
454.972	2.6
455.175	2.56
455.379	2.49
455.582	2.43
455.785	2.41
455.988	2.37
456.192	2.47
456.395	2.43
456.598	2.46
456.801	2.49
457.005	2.48
457.208	2.46
457.411	2.41
457.614	2.53
457.817	2.5
458.021	2.52
458.224	2.58
458.427	2.5
458.63	2.53
458.833	2.58
459.036	2.59
459.239	2.53
459.442	2.59
459.645	2.63
459.848	2.63
460.051	2.69
460.254	2.58
460.457	2.56
460.66	2.59
460.863	2.6
461.066	2.53
461.269	2.56
461.472	2.65
461.675	2.56
461.878	2.54
462.081	2.47
462.284	2.39
462.486	2.53
462.689	2.62
462.892	2.62
463.095	2.65
463.298	2.78
463.5	2.65
463.703	2.49
463.906	2.43
464.109	2.47
464.311	2.6
464.514	2.66
464.717	2.7
464.92	2.54
465.122	2.55
465.325	2.54
465.528	2.55
465.73	2.69
465.933	2.86
466.135	3.01
466.338	3.03
466.541	3.07
466.743	3.04
466.946	3.02
467.148	3.05
467.351	3.01
467.553	3.12
467.756	3.04
467.958	2.95
468.161	2.98
468.363	2.98
468.566	2.9
468.768	2.77
468.971	2.79
469.173	2.79
469.375	2.83
469.578	2.84
469.78	2.8
469.983	2.84
470.185	2.96
470.387	2.93
470.59	2.89
470.792	2.91
470.994	3
471.196	2.94
471.399	2.95
471.601	3.01
471.803	2.95
472.005	3
472.208	3.01
472.41	2.93
472.612	2.93
472.814	2.88
473.016	2.98
473.218	2.87
473.421	2.87
473.623	2.79
473.825	2.79
474.027	2.93
474.229	2.84
474.431	2.82
474.633	2.86
474.835	2.73
475.037	2.91
475.239	2.86
475.441	2.95
475.643	3.02
475.845	3
476.047	2.96
476.249	2.87
476.451	2.8
476.653	2.77
476.855	2.77
477.057	2.76
477.258	2.68
477.46	2.7
477.662	2.71
477.864	2.62
478.066	2.61
478.268	2.54
478.469	2.59
478.671	2.68
478.873	2.69
479.075	2.63
479.276	2.73
479.478	2.69
479.68	2.64
479.882	2.69
480.083	2.75
480.285	2.79
480.487	2.87
480.688	2.82
480.89	2.77
481.091	2.78
481.293	2.87
481.495	2.81
481.696	2.75
481.898	2.8
482.099	2.72
482.301	2.66
482.502	2.63
482.704	2.61
482.905	2.61
483.107	2.59
483.308	2.56
483.51	2.53
483.711	2.51
483.913	2.54
484.114	2.5
484.315	2.51
484.517	2.53
484.718	2.53
484.92	2.56
485.121	2.59
485.322	2.61
485.524	2.66
485.725	2.68
485.926	2.73
486.127	2.69
486.329	2.72
486.53	2.73
486.731	2.72
486.932	2.72
487.134	2.71
487.335	2.67
487.536	2.63
487.737	2.6
487.938	2.58
488.139	2.56
488.341	2.58
488.542	2.59
488.743	2.57
488.944	2.56
489.145	2.6
489.346	2.62
489.547	2.63
489.748	2.69
489.949	2.7
490.15	2.66
490.351	2.63
490.552	2.65
490.753	2.65
490.954	2.68
491.155	2.68
491.356	2.65
491.557	2.64
491.758	2.64
491.959	2.61
492.159	2.61
492.36	2.66
492.561	2.73
492.762	2.69
492.963	2.66
493.164	2.66
493.364	2.7
493.565	2.68
493.766	2.63
493.967	2.69
494.167	2.67
494.368	2.61
494.569	2.67
494.769	2.68
494.97	2.77
495.171	2.87
495.371	2.86
495.572	2.85
495.773	2.88
495.973	2.92
496.174	2.91
496.375	3.07
496.575	3.14
496.776	3.12
496.976	3.1
497.177	3.13
497.377	3.08
497.578	3.13
497.778	3.12
497.979	3.16
498.179	3.23
498.38	3.21
498.58	3.2
498.78	3.16
498.981	3.13
499.181	3.21
499.382	3.26
499.582	3.27
499.782	3.26
499.983	3.31
500.183	3.27
500.383	3.27
500.584	3.31
500.784	3.29
500.984	3.43
501.184	3.48
501.385	3.47
501.585	3.38
501.785	3.5
501.985	3.64
502.185	3.62
502.386	3.62
502.586	3.61
502.786	3.68
502.986	3.62
503.186	3.57
503.386	3.54
503.586	3.57
503.786	3.55
503.987	3.56
504.187	3.43
504.387	3.5
504.587	3.54
504.787	3.59
504.987	3.67
505.187	3.8
505.387	3.85
505.587	3.91
505.786	3.94
505.986	4.06
506.186	4.12
506.386	4.25
506.586	4.3
506.786	4.36
506.986	4.34
507.186	4.29
507.386	4.28
507.585	4.3
507.785	4.32
507.985	4.37
508.185	4.42
508.384	4.31
508.584	4.35
508.784	4.39
508.984	4.5
509.183	4.53
509.383	4.55
509.583	4.55
509.782	4.65
509.982	4.66
510.182	4.69
510.381	4.68
510.581	4.8
510.781	4.84
510.98	4.86
511.18	4.85
511.379	4.96
511.579	4.93
511.778	4.98
511.978	4.95
512.177	5.01
512.377	5.08
512.576	5.13
512.776	5.17
512.975	5.14
513.175	5.19
513.374	5.25
513.573	5.34
513.773	5.46
513.972	5.56
514.172	5.67
514.371	5.78
514.57	5.78
514.77	5.83
514.969	5.9
515.168	6.02
515.367	6.03
515.567	6.02
515.766	6.03
515.965	6.02
516.164	6.15
516.364	6.2
516.563	6.39
516.762	6.47
516.961	6.55
517.16	6.65
517.359	6.7
517.559	6.83
517.758	6.99
517.957	7
518.156	7.14
518.355	7.13
518.554	7.15
518.753	7.08
518.952	7.18
519.151	7.27
519.35	7.26
519.549	7.31
519.748	7.37
519.947	7.4
520.146	7.48
520.345	7.53
520.544	7.62
520.743	7.78
520.942	7.92
521.141	8.02
521.339	8.14
521.538	8.32
521.737	8.51
521.936	8.57
522.135	8.64
522.333	8.81
522.532	8.9
522.731	9.04
522.93	9.06
523.129	9.14
523.327	9.22
523.526	9.35
523.725	9.38
523.923	9.41
524.122	9.51
524.321	9.69
524.519	9.72
524.718	9.88
524.917	9.94
525.115	10.08
525.314	10.17
525.512	10.23
525.711	10.28
525.909	10.39
526.108	10.51
526.306	10.64
526.505	10.69
526.703	10.8
526.902	10.92
527.1	11.03
527.299	11.1
527.497	11.18
527.696	11.22
527.894	11.27
528.092	11.31
528.291	11.35
528.489	11.34
528.688	11.41
528.886	11.48
529.084	11.5
529.283	11.53
529.481	11.61
529.679	11.7
529.877	11.82
530.076	11.94
530.274	12.07
530.472	12.18
530.67	12.36
530.869	12.53
531.067	12.66
531.265	12.83
531.463	13.05
531.661	13.22
531.859	13.3
532.057	13.4
532.255	13.51
532.454	13.58
532.652	13.68
532.85	13.78
533.048	13.81
533.246	13.86
533.444	13.92
533.642	13.94
533.84	13.93
534.038	14.06
534.236	14.17
534.434	14.25
534.632	14.34
534.83	14.48
535.027	14.58
535.225	14.69
535.423	14.82
535.621	14.95
535.819	15.07
536.017	15.24
536.215	15.3
536.412	15.35
536.61	15.48
536.808	15.65
537.006	15.7
537.203	15.84
537.401	16
537.599	16.09
537.797	16.18
537.994	16.29
538.192	16.34
538.39	16.5
538.587	16.68
538.785	16.82
538.983	16.92
539.18	17.01
539.378	17.1
539.575	17.23
539.773	17.39
539.97	17.55
540.168	17.6
540.366	17.71
540.563	17.78
540.761	17.84
540.958	17.91
541.155	17.99
541.353	18.11
541.55	18.17
541.748	18.24
541.945	18.29
542.143	18.35
542.34	18.48
542.537	18.58
542.735	18.67
542.932	18.82
543.129	18.89
543.327	19.03
543.524	19.15
543.721	19.32
543.919	19.39
544.116	19.49
544.313	19.58
544.51	19.68
544.708	19.85
544.905	19.95
545.102	19.98
545.299	20.09
545.496	20.15
545.693	20.23
545.891	20.31
546.088	20.4
546.285	20.53
546.482	20.62
546.679	20.72
546.876	20.7
547.073	20.79
547.27	20.81
547.467	20.84
547.664	20.92
547.861	20.96
548.058	21.04
548.255	21.16
548.452	21.18
548.649	21.25
548.846	21.42
549.043	21.53
549.24	21.6
549.437	21.8
549.633	21.95
549.83	21.98
550.027	22.15
550.224	22.19
550.421	22.2
550.618	22.3
550.814	22.25
551.011	22.09
551.208	22.14
551.405	22.23
551.601	22.23
551.798	22.35
551.995	22.43
552.191	22.43
552.388	22.49
552.585	22.54
552.781	22.55
552.978	22.67
553.175	22.92
553.371	23.02
553.568	23.03
553.764	23.22
553.961	23.24
554.157	23.35
554.354	23.39
554.55	23.46
554.747	23.55
554.943	23.63
555.14	23.76
555.336	23.68
555.533	23.7
555.729	23.72
555.926	23.72
556.122	23.75
556.318	23.72
556.515	23.85
556.711	23.86
556.907	23.89
557.104	23.97
557.3	24.07
557.496	24.21
557.693	24.36
557.889	24.55
558.085	24.51
558.281	24.57
558.478	24.68
558.674	24.56
558.87	24.74
559.066	24.81
559.262	24.8
559.459	24.72
559.655	24.78
559.851	24.71
560.047	24.63
560.243	24.69
560.439	24.72
560.635	24.66
560.831	24.82
561.027	24.74
561.223	24.71
561.419	24.82
561.615	25.03
561.811	24.97
562.007	24.96
562.203	25.1
562.399	25.21
562.595	25.29
562.791	25.35
562.987	25.35
563.183	25.43
563.379	25.54
563.575	25.53
563.771	25.4
563.966	25.45
564.162	25.57
564.358	25.55
564.554	25.65
564.75	25.64
564.945	25.79
565.141	25.9
565.337	25.83
565.533	25.88
565.728	26
565.924	26.07
566.12	26.14
566.315	26.2
566.511	26.27
566.707	26.27
566.902	26.31
567.098	26.31
567.293	26.25
567.489	26.37
567.684	26.45
567.88	26.5
568.076	26.6
568.271	26.59
568.467	26.6
568.662	26.65
568.858	26.68
569.053	26.69
569.248	26.78
569.444	26.87
569.639	26.91
569.835	26.87
570.03	26.85
570.225	26.82
570.421	26.97
570.616	27.09
570.812	27.2
571.007	27.11
571.202	27.18
571.397	27.17
571.593	27.2
571.788	27.28
571.983	27.33
572.178	27.42
572.374	27.38
572.569	27.44
572.764	27.4
572.959	27.31
573.154	27.47
573.35	27.4
573.545	27.44
573.74	27.4
573.935	27.44
574.13	27.51
574.325	27.51
574.52	27.71
574.715	27.67
574.91	27.69
575.105	27.73
575.3	27.66
575.495	27.76
575.69	27.84
575.885	27.89
576.08	27.94
576.275	27.91
576.47	27.82
576.665	27.82
576.86	27.83
577.055	27.97
577.25	28.02
577.444	28.11
577.639	28.18
577.834	28.28
578.029	28.4
578.224	28.36
578.418	28.45
578.613	28.75
578.808	28.68
579.003	28.75
579.197	28.71
579.392	28.71
579.587	28.7
579.781	28.81
579.976	28.76
580.171	28.82
580.365	28.88
580.56	28.83
580.755	28.73
580.949	28.74
581.144	28.72
581.338	28.74
581.533	28.7
581.727	28.84
581.922	28.83
582.116	28.8
582.311	28.74
582.505	28.79
582.7	28.88
582.894	28.79
583.089	28.79
583.283	28.9
583.478	28.92
583.672	29.09
583.866	29.11
584.061	29.17
584.255	29.14
584.449	29.27
584.644	29.39
584.838	29.39
585.032	29.62
585.226	29.86
585.421	29.82
585.615	29.95
585.809	30.04
586.003	30.12
586.198	30
586.392	30.13
586.586	30.14
586.78	30.08
586.974	30.08
587.168	29.96
587.363	29.82
587.557	29.76
587.751	29.73
587.945	29.63
588.139	29.5
588.333	29.51
588.527	29.44
588.721	29.36
588.915	29.32
589.109	29.32
589.303	29.38
589.497	29.39
589.691	29.55
589.885	29.5
590.079	29.66
590.273	29.67
590.466	29.77
590.66	29.87
590.854	29.93
591.048	30.05
591.242	30.05
591.436	30.13
591.629	30.2
591.823	30.2
592.017	30.15
592.211	30.09
592.404	30.28
592.598	30.23
592.792	30.18
592.986	30.13
593.179	30.23
593.373	30.42
593.567	30.36
593.76	30.37
593.954	30.33
594.147	30.38
594.341	30.43
594.535	30.45
594.728	30.55
594.922	30.6
595.115	30.59
595.309	30.4
595.502	30.34
595.696	30.28
595.889	30.35
596.083	30.36
596.276	30.5
596.47	30.52
596.663	30.46
596.856	30.42
597.05	30.44
597.243	30.44
597.437	30.45
597.63	30.48
597.823	30.67
598.017	30.57
598.21	30.56
598.403	30.49
598.596	30.54
598.79	30.41
598.983	30.48
599.176	30.46
599.369	30.59
599.563	30.72
599.756	30.72
599.949	30.7
600.142	30.75
600.335	30.7
600.528	30.69
600.722	30.56
600.915	30.76
601.108	30.68
601.301	30.69
601.494	30.75
601.687	30.82
601.88	30.7
602.073	30.66
602.266	30.67
602.459	30.76
602.652	30.82
602.845	30.85
603.038	30.75
603.231	30.73
603.424	30.76
603.617	30.7
603.809	30.64
604.002	30.7
604.195	30.72
604.388	30.78
604.581	30.91
604.774	30.81
604.966	30.73
605.159	30.8
605.352	30.86
605.545	30.8
605.737	30.8
605.93	30.85
606.123	30.93
606.316	30.84
606.508	30.8
606.701	30.66
606.894	30.66
607.086	30.8
607.279	30.93
607.471	30.9
607.664	30.95
607.857	31.17
608.049	31.26
608.242	31.38
608.434	31.66
608.627	31.9
608.819	32.27
609.012	32.63
609.204	33.03
609.397	33.26
609.589	33.54
609.782	34.06
609.974	34.37
610.166	34.85
610.359	35.28
610.551	35.56
610.743	35.87
610.936	36.01
611.128	36.16
611.32	36.2
611.513	36.34
611.705	36.41
611.897	36.21
612.09	36.2
612.282	35.83
612.474	35.42
612.666	35.23
612.858	35.05
613.051	34.95
613.243	34.88
613.435	34.71
613.627	34.43
613.819	34.25
614.011	34.3
614.203	34.16
614.395	34.04
614.588	34.03
614.78	33.81
614.972	33.63
615.164	33.44
615.356	33.32
615.548	33.21
615.74	33.27
615.932	33.3
616.124	33.1
616.315	32.88
616.507	32.82
616.699	32.69
616.891	32.71
617.083	32.54
617.275	32.47
617.467	32.41
617.659	32.42
617.85	32.18
618.042	32.17
618.234	32.1
618.426	32.12
618.618	32.25
618.809	32.23
619.001	32.3
619.193	32.51
619.384	32.36
619.576	32.35
619.768	32.32
619.959	32.29
620.151	32.21
620.343	31.99
620.534	32.01
620.726	32
620.917	32.12
621.109	32
621.301	31.82
621.492	32.11
621.684	32.09
621.875	32.18
622.067	32.31
622.258	32.49
622.45	32.75
622.641	32.57
622.832	32.62
623.024	32.54
623.215	32.71
623.407	32.62
623.598	32.47
623.789	32.48
623.981	32.5
624.172	32.67
624.363	32.67
624.555	32.6
624.746	32.66
624.937	32.61
625.129	32.74
625.32	32.79
625.511	32.98
625.702	32.91
625.893	32.92
626.085	32.84
626.276	32.71
626.467	32.64
626.658	32.69
626.849	32.8
627.04	32.83
627.231	32.79
627.422	32.6
627.614	32.59
627.805	32.64
627.996	32.65
628.187	32.78
628.378	32.98
628.569	33.05
628.76	33.14
628.951	33.17
629.142	33.16
629.332	33.23
629.523	33.43
629.714	33.73
629.905	33.81
630.096	33.89
630.287	33.74
630.478	33.69
630.669	33.89
630.859	33.88
631.05	33.89
631.241	33.94
631.432	33.85
631.623	33.84
631.813	33.65
632.004	33.5
632.195	33.38
632.385	33.45
632.576	33.25
632.767	32.91
632.957	32.79
633.148	32.75
633.339	32.58
633.529	32.53
633.72	32.45
633.91	32.32
634.101	32.43
634.292	32.52
634.482	32.55
634.673	32.55
634.863	32.58
635.054	32.75
635.244	32.87
635.435	32.94
635.625	32.9
635.815	32.77
636.006	32.89
636.196	32.94
636.387	32.79
636.577	32.83
636.767	32.89
636.958	32.88
637.148	32.71
637.338	32.6
637.529	32.41
637.719	32.59
637.909	32.72
638.099	32.68
638.29	32.76
638.48	33
638.67	32.96
638.86	32.87
639.05	33.13
639.241	33.08
639.431	33.14
639.621	33.32
639.811	33.34
640.001	33.35
640.191	33.28
640.381	33.28
640.571	33.12
640.761	32.99
640.951	33.3
641.141	33.14
641.331	33.36
641.521	33.23
641.711	33.3
641.901	33.26
642.091	33.15
642.281	33.04
642.471	32.7
642.661	32.85
642.851	32.92
643.041	32.67
643.231	32.71
643.42	32.75
643.61	32.95
643.8	33.01
643.99	32.9
644.18	33.26
644.369	33.37
644.559	33.55
644.749	33.38
644.939	33.29
645.128	33.26
645.318	33.28
645.508	33.22
645.697	33.02
645.887	32.85
646.076	32.95
646.266	32.75
646.456	32.82
646.645	33
646.835	33.14
647.024	33.19
647.214	33.46
647.403	33.37
647.593	33.32
647.782	33.41
647.972	33.61
648.161	33.6
648.351	33.69
648.54	33.59
648.73	33.65
648.919	33.7
649.108	33.72
649.298	33.59
649.487	33.62
649.677	33.69
649.866	33.86
650.055	33.72
650.244	33.72
650.434	33.71
650.623	33.98
650.812	33.9
651.002	33.96
651.191	34
651.38	34.13
651.569	34.12
651.758	34.01
651.947	34.02
652.137	34.23
652.326	34.45
652.515	34.44
652.704	34.33
652.893	34.06
653.082	33.98
653.271	34.09
653.46	34.01
653.649	33.96
653.838	33.91
654.027	33.74
654.216	33.59
654.405	33.19
654.594	33.22
654.783	33.14
654.972	33.31
655.161	33.26
655.35	33.3
655.539	33.31
655.728	33.53
655.916	33.63
656.105	33.75
656.294	33.68
656.483	33.96
656.672	33.95
656.86	34.01
657.049	34.23
657.238	34.12
657.427	34.07
657.615	34.14
657.804	34.2
657.993	34.43
658.181	34.43
658.37	34.69
658.559	34.63
658.747	34.76
658.936	34.79
659.125	34.37
659.313	34.43
659.502	34.42
659.69	34.3
659.879	34.18
660.067	34.12
660.256	34.01
660.444	33.86
660.633	33.92
660.821	33.73
661.01	33.61
661.198	33.94
661.387	33.92
661.575	33.91
661.763	33.9
661.952	34.09
662.14	33.93
662.328	34.04
662.517	34
662.705	34.13
662.893	34.14
663.082	34.47
663.27	34.46
663.458	34.5
663.646	34.38
663.834	34.71
664.023	34.61
664.211	34.6
664.399	34.75
664.587	34.88
664.775	34.77
664.963	34.91
665.152	34.76
665.34	34.8
665.528	34.69
665.716	34.6
665.904	34.2
666.092	34.15
666.28	34.03
666.468	33.78
666.656	33.68
666.844	33.62
667.032	33.55
667.22	33.55
667.408	33.55
667.596	33.79
667.784	33.92
667.971	34.01
668.159	33.9
668.347	34.09
668.535	34.03
668.723	34.08
668.911	34.34
669.098	34.37
669.286	34.32
669.474	34.36
669.662	34.38
669.849	34.67
670.037	34.73
670.225	34.91
670.413	34.81
670.6	35.14
670.788	35.08
670.976	34.98
671.163	35.17
671.351	35.04
671.538	35.3
671.726	35.23
671.913	35.08
672.101	35.16
672.289	35.17
672.476	35.16
672.664	35.07
672.851	35.16
673.039	34.81
673.226	34.77
673.413	34.66
673.601	34.3
673.788	34.34
673.976	34.19
674.163	34.09
674.35	33.87
674.538	33.86
674.725	33.76
674.912	33.78
675.1	34.09
675.287	33.92
675.474	34.06
675.662	34.37
675.849	34.15
676.036	34.25
676.223	34.41
676.411	34.62
676.598	34.91
676.785	35.09
676.972	34.84
677.159	34.82
677.346	34.86
677.533	34.96
677.721	34.9
677.908	35.28
678.095	35.22
678.282	35.17
678.469	34.83
678.656	34.8
678.843	34.65
679.03	34.92
679.217	35.14
679.404	35.2
679.591	35.12
679.778	35.09
679.964	34.87
680.151	34.92
680.338	34.88
680.525	35.18
680.712	35.31
680.899	35.47
681.086	35.53
681.272	35.47
681.459	35.44
681.646	35.62
681.833	35.54
682.02	35.57
682.206	35.66
682.393	35.85
682.58	35.84
682.766	35.92
682.953	35.91
683.14	35.89
683.326	35.6
683.513	35.42
683.7	35.38
683.886	35.44
684.073	35.52
684.259	35.43
684.446	35.27
684.632	35.31
684.819	35.11
685.005	35.2
685.192	35.31
685.378	35.34
685.565	35.72
685.751	35.89
685.938	35.98
686.124	35.73
686.31	35.86
686.497	35.58
686.683	35.45
686.87	35.32
687.056	34.95
687.242	34.78
687.429	34.84
687.615	34.63
687.801	34.38
687.987	34.29
688.174	34.5
688.36	34.52
688.546	35.02
688.732	35.26
688.918	35.26
689.105	35.32
689.291	35.19
689.477	35.1
689.663	35.22
689.849	35.29
690.035	35.29
690.221	35.62
690.407	35.67
690.593	35.43
690.779	35.13
690.965	35.24
691.151	35.49
691.337	35.69
691.523	35.69
691.709	35.67
691.895	35.61
692.081	35.6
692.267	35.03
692.453	34.93
692.639	35.08
692.825	35.4
693.011	35.44
693.196	35.4
693.382	35.42
693.568	35.77
693.754	35.9
693.94	36.12
694.125	36.26
694.311	36.55
694.497	36.57
694.682	36.47
694.868	36.16
695.054	36.15
695.239	36.18
695.425	35.88
695.611	35.49
695.796	35.51
695.982	35.22
696.168	35.25
696.353	35.44
696.539	35.66
696.724	35.73
696.91	36.02
697.095	36.18
697.281	36.21
697.466	36.32
697.652	36.43
697.837	36.3
698.023	36.29
698.208	36.32
698.393	36.15
698.579	35.99
698.764	35.83
698.949	35.67
699.135	35.39
699.32	35.35
699.505	35.36
699.691	35.49
699.876	35.51
700.061	35.81
700.246	35.76
700.432	35.73
700.617	35.62
700.802	35.58
700.987	35.7
701.172	36.28
701.358	36.3
701.543	36.68
701.728	36.69
701.913	36.5
702.098	36.31
702.283	36.32
702.468	36.26
702.653	36.05
702.838	36.31
703.023	36.6
703.208	36.08
703.393	35.99
703.578	35.86
703.763	36.03
703.948	36.25
704.133	36.02
704.318	36.5
704.503	36.46
704.688	36.94
704.873	37.11
705.057	36.91
705.242	36.91
705.427	37.33
705.612	37.17
705.797	37.26
705.981	37.58
706.166	38.2
706.351	37.93
706.536	38.47
706.72	38.43
706.905	38.35
707.09	38.36
707.274	38.66
707.459	38.41
707.644	38.66
707.828	38.53
708.013	38.46
708.197	37.97
708.382	37.97
708.567	37.78
708.751	37.86
708.936	37.78
709.12	37.57
709.305	37.52
709.489	37.35
709.673	36.93
709.858	36.84
710.042	36.73
710.227	37.12
710.411	37.15
710.596	37.17
710.78	37.2
710.964	37.7
711.149	37.63
711.333	37.45
711.517	37.46
711.702	37.31
711.886	37.29
712.07	37.17
712.254	37.11
712.438	36.99
712.623	36.77
712.807	36.68
712.991	36.43
713.175	36.69
713.359	36.52
713.544	36.41
713.728	36.43
713.912	36.52
714.096	36.8
714.28	36.8
714.464	36.68
714.648	36.8
714.832	36.64
715.016	36.23
715.2	35.99
715.384	36.03
715.568	35.87
715.752	36
715.936	35.9
716.12	35.7
716.304	35.35
716.488	35.46
716.671	35.61
716.855	35.64
717.039	35.78
717.223	35.65
717.407	35.44
717.59	36.1
717.774	36.31
717.958	36.29
718.142	35.9
718.325	36.06
718.509	35.84
718.693	35.54
718.877	35.46
719.06	35.28
719.244	35.38
719.428	35.76
719.611	35.35
719.795	35.13
719.978	35.39
720.162	35.44
720.345	35.21
720.529	35.36
720.713	35.72
720.896	36.15
721.08	36.54
721.263	36.9
721.446	36.79
721.63	37.11
721.813	37.04
721.997	36.73
722.18	36.76
722.364	36.8
722.547	36.54
722.73	36.27
722.914	36.09
723.097	36
723.28	36.01
723.464	35.95
723.647	35.7
723.83	36.1
724.013	35.98
724.197	35.6
724.38	35.72
724.563	35.9
724.746	35.83
724.929	35.74
725.112	36.29
725.296	35.96
725.479	36.18
725.662	36.09
725.845	36.11
726.028	35.92
726.211	36.56
726.394	36.7
726.577	36.56
726.76	36.83
726.943	36.81
727.126	36.25
727.309	36.38
727.492	36.55
727.675	36.48
727.858	36.62
728.041	37.09
728.224	37.4
728.407	37.66
728.589	37.91
728.772	37.72
728.955	37.46
729.138	37.28
729.321	37.1
729.503	36.6
729.686	36.4
729.869	36.38
730.052	36.65
730.234	36.26
730.417	35.74
730.6	35.59
730.782	35.8
730.965	36.63
731.148	36.75
731.33	36.99
731.513	37.27
731.695	37.58
731.878	37.42
732.061	37.27
732.243	37.29
732.426	37.58
732.608	37.52
732.791	37.42
732.973	37.01
733.156	37.45
733.338	37.05
733.52	36.99
733.703	37.25
733.885	37.37
734.068	37.13
734.25	37.12
734.432	37.15
734.615	37.47
734.797	37.52
734.979	37.14
735.162	37.17
735.344	37.68
735.526	37.99
735.708	37.67
735.891	37.71
736.073	37.25
736.255	36.86
736.437	37.01
736.619	37.25
736.802	37.03
736.984	37.27
737.166	36.91
737.348	36.95
737.53	37.02
737.712	36.86
737.894	36.81
738.076	37.36
738.258	38.04
738.44	37.86
738.622	37.49
738.804	37.37
738.986	37.69
739.168	38.11
739.35	38.21
739.532	38
739.714	38.34
739.896	38.19
740.078	38.13
740.259	37.81
740.441	37.96
740.623	37.73
740.805	37.54
740.987	37.54
741.168	37.24
741.35	37.11
741.532	37.46
741.714	37.15
741.895	36.99
742.077	37.03
742.259	37.1
742.44	37.16
742.622	37.83
742.804	38.07
742.985	37.33
743.167	37.23
743.348	36.93
743.53	36.6
743.711	36.91
743.893	37.37
744.075	37.53
744.256	37.88
744.438	37.39
744.619	37.43
744.8	37.8
744.982	37.8
745.163	37.92
745.345	38.11
745.526	38.01
745.707	38.06
745.889	37.61
746.07	37.35
746.252	36.73
746.433	36.54
746.614	36.28
746.795	36.48
746.977	37.4
747.158	36.79
747.339	37.29
747.52	37.74
747.702	37.25
747.883	36.75
748.064	36.33
748.245	36.4
748.426	36.97
748.607	36.84
748.788	36.9
748.97	36.11
749.151	36.42
749.332	36.42
749.513	36.45
749.694	36.76
749.875	37.15
750.056	37.41
750.237	37.68
750.418	37.71
750.599	36.71
750.78	36.73
750.96	37.26
751.141	36.44
751.322	35.68
751.503	35.68
751.684	35.63
751.865	35.87
752.046	36.53
752.226	35.5
752.407	35.51
752.588	36.05
752.769	36.51
752.949	36.93
753.13	37.89
753.311	37.21
753.492	37.25
753.672	37.09
753.853	37.14
754.034	37.15
754.214	38.4
754.395	38.13
754.575	38.26
754.756	36.49
754.937	36.48
755.117	36.71
755.298	37.98
755.478	37.34
755.659	37.78
755.839	37.85
756.02	37.4
756.2	37.11
756.381	37.49
756.561	37.02
756.741	38.38
756.922	38.26
757.102	38.09
757.283	37.98
757.463	38.3
757.643	38.28
757.823	37.56
758.004	37.56
758.184	37.46
758.364	36.95
758.545	38.04
758.725	37.17
758.905	37.08
759.085	37.3
759.265	36.62
759.446	36.43
759.626	36.37
759.806	36.61
759.986	37.16
760.166	36.98
760.346	36.81
760.526	36.46
760.706	36.8
760.886	36.56
761.066	36.32
761.246	36.58
761.426	36.53
761.606	36.25
761.786	36.63
761.966	36.34
762.146	36.39
762.326	36.9
762.506	36.87
762.686	36.61
762.866	36.57
763.046	35.89
763.225	35.97
763.405	36.04
763.585	35.99
763.765	36.21
763.945	35.8
764.124	35.74
764.304	35.39
764.484	35.13
764.664	35.4
764.843	35.45
765.023	35.77
765.203	35.93
765.382	35.81
765.562	35.76
765.741	35.47
765.921	35.71
766.101	35.93
766.28	35.85
766.46	36.03
766.639	36.33
766.819	35.94
766.998	36.07
767.178	35.56
767.357	35.22
767.537	35.18
767.716	35.37
767.896	35.74
768.075	35.73
768.254	35.86
768.434	36.78
768.613	36.98
768.792	37.31
768.972	37.92
769.151	38.38
769.33	38.6
769.51	39.32
769.689	38.85
769.868	39.1
770.047	39.29
770.226	39.56
770.406	38.76
770.585	38.66
770.764	38.96
770.943	37.98
771.122	38.07
771.301	38.45
771.48	38.28
771.66	39.03
771.839	38.67
772.018	38.02
772.197	38.1
772.376	37.71
772.555	36.89
772.734	36.59
772.913	37.05
773.092	37.72
773.271	37.75
773.449	37.04
773.628	36.97
773.807	37.07
773.986	38.19
774.165	38.8
774.344	39.06
774.523	40.69
774.701	40.75
774.88	41.94
775.059	41.43
775.238	41.76
775.417	42.05
775.595	41.5
775.774	41.06
775.953	40.52
776.131	40.01
776.31	40.11
776.489	38.09
776.667	37.64
776.846	36.37
777.025	35.69
777.203	35.72
777.382	36.67
777.56	36.28
777.739	36.45
777.917	36.27
778.096	35.99
778.274	36.06
778.453	35.88
778.631	36.53
778.81	36.82
778.988	37.72
779.166	37.55
779.345	36.89
779.523	36.66
779.702	36.79
779.88	36.21
780.058	36.84
780.237	36.03
780.415	37.17
780.593	36.33
780.771	36.43
780.95	36.08
781.128	35.54
781.306	35.09
781.484	35.12
781.662	34.41
781.841	34.31
782.019	33.83
782.197	35.4
782.375	34.59
782.553	34.68
782.731	35.28
782.909	35.42
783.087	36.42
783.265	37.23
783.443	37.79
783.621	38.16
783.799	39.35
783.977	39.7
784.155	39.06
784.333	39.38
784.511	39.28
784.689	38.58
784.867	38.64
785.045	38.29
785.223	37.64
785.4	37.21
785.578	37.57
785.756	37.69
785.934	37.93
786.112	37.03
786.289	36.98
786.467	36.88
786.645	38.45
786.823	38.29
787	37.5
787.178	37.75
787.356	38.32
787.533	38.19
787.711	36.98
787.889	36.17
788.066	36.58
788.244	36.25
788.421	36.83
788.599	35.29
788.776	34.74
788.954	34.62
789.131	34.58
789.309	34.58
789.486	34.84
789.664	35.49
789.841	36.17
790.019	36.67
790.196	37.4
790.373	36.89
790.551	36.7
790.728	36.62
790.906	37.89
791.083	36.01
791.26	36.68
791.437	36.71
791.615	37.14
791.792	35.82
791.969	35.05
792.146	34.4
792.324	35.64
792.501	36.37
792.678	36.76
792.855	34.95
793.032	37.08
793.209	36.31
793.387	35.59
793.564	36.24
793.741	37.18
793.918	36.76
794.095	37.64
794.272	36.24
794.449	35.86
794.626	35.6
794.803	36.47
794.98	36.71
795.157	36.29
795.334	36.57
795.511	35.17
795.688	35.4
795.864	35.58
796.041	35.36
796.218	36.28
796.395	36.55
796.572	36.74
796.749	37.42
796.925	37.27
797.102	38.1
797.279	37.66
797.456	37.51
797.632	37.06
797.809	37.02
797.986	37.55
798.162	37.25
798.339	36.5
798.516	36.57
798.692	35.9
798.869	35.13
799.046	34.82
799.222	35.13
799.399	35.16
799.575	34.67
799.752	35.92
799.928	35.73
800.105	35.35
800.281	34.62
800.458	35.13
800.634	35.22
800.811	34.54
800.987	34.1
801.163	33.81
801.34	34.38
801.516	34.5
801.692	34.55
801.869	33.4
802.045	33.89
802.221	35.55
802.398	34.03
802.574	32.58
802.75	34.06
802.926	34.67
803.103	35.15
803.279	36.11
803.455	37.15
803.631	37.23
803.807	38.31
803.983	39.25
804.16	39.11
804.336	39.74
804.512	41.62
804.688	40.47
804.864	39.51
805.04	41.01
805.216	39.73
805.392	38.22
805.568	37.88
805.744	35.94
805.92	35.46
806.096	35.41
806.272	36.45
806.448	36.36
806.623	37.8
806.799	38.03
806.975	35.77
807.151	35.6
807.327	36.86
807.503	35.93
807.678	37.17
807.854	36.77
808.03	37.04
808.206	36.82
808.381	36.3
808.557	36.6
808.733	35.92
808.908	35.87
809.084	36.11
809.26	36.35
809.435	35.67
809.611	35.33
809.787	35.42
809.962	35.31
810.138	34.57
810.313	35.54
810.489	34.95
810.664	35.93
810.84	37.26
811.015	38.15
811.191	37.53
811.366	38.17
811.542	37.95
811.717	36.2
811.892	35.96
812.068	36.74
812.243	36.82
812.419	37.11
812.594	36.62
812.769	36
812.944	35.55
813.12	34.14
813.295	34.23
813.47	34.76
813.645	36.69
813.821	36.57
813.996	35.54
814.171	35.86
814.346	37.2
814.521	36.43
814.697	36
814.872	35.25
815.047	37.17
815.222	37.11
815.397	36.77
815.572	36.87
815.747	37.11
815.922	37.62
816.097	35
816.272	32.79
816.447	33.42
816.622	33.78
816.797	33.64
816.972	33.11
817.147	33.47
817.322	32.99
817.496	32.63
817.671	33.31
817.846	33.05
818.021	34.92
818.196	35.18
818.371	35.44
818.545	35.13
818.72	36.74
818.895	37.45
819.069	36.64
819.244	37.17
819.419	36.96
819.594	35.51
819.768	35.82
819.943	35.88
820.117	35.72
820.292	36.21
820.467	36.15
820.641	35.12
820.816	34.83
820.99	35.36
821.165	35.59
821.339	35.69
821.514	35.8
821.688	35.94
821.863	35.84
822.037	35.64
822.212	35.58
822.386	35.64
822.56	35.8
822.735	35.89
822.909	35.7
823.084	35.62
823.258	35.46
823.432	35.39
823.606	35.08
823.781	35.12
823.955	35.24
824.129	35.08
824.303	35.08
824.478	34.89
824.652	34.72
824.826	35.01
825	35.06
825.174	35.31
825.348	35.66
825.523	36.08
825.697	35.62
825.871	35.87
826.045	35.96
826.219	36.25
826.393	35.94
826.567	36.23
826.741	36.07
826.915	35.71
827.089	35.51
827.263	35.95
827.437	35.9
827.611	36.12
827.784	36.13
827.958	36.16
828.132	36.02
828.306	37.05
828.48	36.57
828.654	36.05
828.827	36.33
829.001	36.29
829.175	35.64
829.349	35.53
829.522	35.47
829.696	35.94
829.87	36.61
830.044	35.61
830.217	34.26
830.391	34.21
830.565	34.72
830.738	34.81
830.912	34.74
831.085	34.65
831.259	35.17
831.432	34.89
831.606	34.16
831.779	33.26
831.953	34.6
832.126	35
832.3	35.92
832.473	35.72
832.647	36.18
832.82	36.72
832.994	36.44
833.167	35.65
833.34	36.08
833.514	36.01
833.687	36.17
833.86	36.08
834.034	35.7
834.207	35.56
834.38	35.65
834.553	35.61
834.727	35.21
834.9	35.72
835.073	36.1
835.246	35.49
835.419	35.41
835.593	34.84
835.766	34.95
835.939	35.63
836.112	34.81
836.285	35.61
836.458	36.29
836.631	36.6
836.804	35.73
836.977	35.01
837.15	36.5
837.323	36.67
837.496	38.09
837.669	37.96
837.842	36.74
838.015	37.72
838.188	36.45
838.361	36.3
838.533	36.36
838.706	36.29
838.879	37.92
839.052	35.41
839.225	34.85
839.398	34.11
839.57	34.08
839.743	35.67
839.916	34.35
840.088	34.03
840.261	32.46
840.434	34.11
840.607	34.65
840.779	34.87
840.952	37.47
841.124	36.99
841.297	37.55
841.47	37.95
841.642	38.96
841.815	41.04
841.987	43.3
842.16	44.84
842.332	43.22
842.505	43.84
842.677	42.03
842.85	41.38
843.022	42.41
843.194	42
843.367	41.38
843.539	40.64
843.712	39.33
843.884	37.87
844.056	36.2
844.229	38.46
844.401	38.77
844.573	41.29
844.745	41.74
844.918	42.48
845.09	41.86
845.262	41.13
845.434	40.96
845.606	42.82
845.779	43.37
845.951	45.89
846.123	43
846.295	41.53
846.467	41.06
846.639	39.34
846.811	37.29
846.983	37.02
847.155	37.25
847.327	36.15
847.499	36.04
847.671	32.57
847.843	31.42
848.015	30.86
848.187	28.7
848.359	29.29
848.531	29.68
848.703	29.28
848.875	28.21
849.047	27.94
849.218	23.93
849.39	24.58
849.562	25.58
849.734	27.42
849.905	29.52
850.077	30.5
850.249	28.99
850.421	29.06
850.592	32.57
850.764	32.91
850.936	32.1
851.107	35.77
851.279	34.33
851.451	37.48
851.622	33.61
851.794	34.12
851.965	34.3
852.137	33.13
852.308	33.18
852.48	32.12
852.651	32.74
852.823	34.84
852.994	34.08
853.166	33.28
853.337	30.34
853.509	31.36
853.68	30.93
853.851	29.86
854.023	27.9
854.194	29.49
854.365	31.71
854.537	33.11
854.708	28.99
854.879	32.98
855.05	36.09
855.222	36.11
855.393	40.09
855.564	43.53
855.735	45.7
855.906	44.8
856.078	42.56
856.249	40.42
856.42	41.56
856.591	42.9
856.762	38
856.933	34.33
857.104	36.39
857.275	34.22
857.446	30.67
857.617	29.39
857.788	36.76
857.959	36.02
858.13	37.68
858.301	36.41
858.472	40.1
858.643	44.99
858.814	46.3
858.985	45.02
859.155	43.31
859.326	41.36
859.497	42.18
859.668	38.15
859.839	36.8
860.009	34.81
860.18	34.5
860.351	33.43
860.522	30.74
860.692	32.61
860.863	31.22
861.034	32.76
861.204	32.53
861.375	35.22
861.546	38.61
861.716	36.66
861.887	40.15
862.057	41.84
862.228	43.28
862.398	42.41
862.569	42.43
862.739	44.42
862.91	42.27
863.08	43.8
863.251	44.84
863.421	40.3
863.592	46.41
863.762	43.47
863.932	43.33
864.103	39.87
864.273	42.93
864.443	43.27
864.614	43.35
864.784	45.19
864.954	43.38
865.125	41.07
865.295	39.9
865.465	39.41
865.635	38.71
865.805	36.74
865.976	35.05
866.146	36.88
866.316	37.25
866.486	33.53
866.656	32.8
866.826	34.6
866.996	32.41
867.166	33.17
867.336	30.5
867.506	33.31
867.676	33.11
867.846	36.6
868.016	30.46
868.186	27.46
868.356	30.87
868.526	34.94
868.696	34.88
868.866	38.93
869.036	42.84
869.206	41.14
869.376	43.43
869.545	44.42
869.715	45
869.885	49.58
870.055	51.79
870.224	52.97
870.394	49.52
870.564	49.88
870.734	46.8
870.903	42.13
871.073	46.99
871.243	45.18
871.412	46.49
871.582	43.09
871.751	41.25
871.921	42.45
872.091	41.51
872.26	41.44
872.43	41.91
872.599	42.62
872.769	44.24
872.938	46
873.108	43.02
873.277	42.05
873.446	44.06
873.616	42.33
873.785	39.59
873.955	37.38
874.124	35.68
874.293	32.79
874.463	35.29
874.632	34.92
874.801	31.53
874.971	36.44
875.14	39.09
875.309	35.91
875.478	35.43
875.647	34.16
875.817	35.41
875.986	38.21
876.155	39.1
876.324	38.41
876.493	42.78
876.662	44.42
876.831	41.51
877	38.05
877.17	43.94
877.339	45.21
877.508	46.2
877.677	48.7
877.846	47.18
878.015	44.91
878.184	41.56
878.352	37.9
878.521	37.91
878.69	34.39
878.859	34.62
879.028	33.51
879.197	33.02
879.366	33.06
879.534	31.3
879.703	32.9
879.872	34.97
880.041	36.14
880.21	35.07
880.378	33.71
880.547	34.63
880.716	33.8
880.884	33.39
881.053	33.47
881.222	34.06
881.39	33.4
881.559	32.7
881.727	32.1
881.896	32.81
882.065	33.02
882.233	32.88
882.402	33.16
882.57	33.36
882.739	33.28
882.907	33.56
883.076	32.48
883.244	33.47
883.412	33.9
883.581	33.84
883.749	33.07
883.918	33.32
884.086	33.07
884.254	32.06
884.423	32.16
884.591	32.37
884.759	32.01
884.927	32.64
885.096	31.91
885.264	30.6
885.432	32.42
885.6	33.65
885.769	33.06
885.937	35.38
886.105	36.66
886.273	37.52
886.441	38.07
886.609	38.4
886.777	40.27
886.945	42.99
887.113	43.79
887.281	41.83
887.449	40.18
887.617	39.18
887.785	40.08
887.953	39.67
888.121	35.45
888.289	31.74
888.457	30.9
888.625	32.33
888.793	29.63
888.961	30.17
889.129	32.11
889.296	36.15
889.464	39.55
889.632	36.19
889.8	38.82
889.967	45.65
890.135	52.64
