Data from 29388109__Reflection_03.txt Node
Date: Thu Mar 12 21:48:27 EDT 2015
User: robert
Spectrometer: USB4E03002
Autoset integration time: false
Trigger mode: 4
Integration Time (sec): 1.000000E-1
Scans to average: 10
Electric dark correction enabled: false
Nonlinearity correction enabled: false
Boxcar width: 5
Stray light correction enabled: false
XAxis mode: Wavelengths
Stop averaging: false
Number of Pixels in Spectrum: 3648
>>>>>Begin Spectral Data<<<<<
177.575	288.48
177.794	235
178.014	267.41
178.233	276.72
178.452	223.87
178.672	225.64
178.891	227.73
179.11	215.13
179.33	204.56
179.549	198.73
179.768	202.06
179.987	217.01
180.207	216.84
180.426	208.83
180.645	183.17
180.864	224.06
181.084	221.39
181.303	198.53
181.522	190.32
181.741	223.85
181.96	213.61
182.179	225.69
182.398	211.45
182.618	205.65
182.837	210.76
183.056	232.24
183.275	242.16
183.494	260.64
183.713	254.53
183.932	248.03
184.151	229.57
184.37	239.65
184.589	251.34
184.808	257.54
185.027	364.97
185.246	362.55
185.465	340.49
185.684	263.15
185.903	207.2
186.122	232.56
186.341	272.58
186.56	265.15
186.779	225.31
186.998	233.88
187.216	239.66
187.435	194
187.654	149.61
187.873	167.55
188.092	163.59
188.311	213.75
188.53	232.91
188.748	255.11
188.967	239.76
189.186	255.69
189.405	234.42
189.623	227.17
189.842	236
190.061	298.35
190.28	321.24
190.498	501.75
190.717	365.96
190.936	357.47
191.154	262.62
191.373	279.19
191.592	294.97
191.81	304.2
192.029	287.03
192.248	391.75
192.466	317.24
192.685	317
192.904	263.48
193.122	258.18
193.341	213.36
193.559	219.92
193.778	191.71
193.996	173.74
194.215	154.7
194.433	157.41
194.652	143.06
194.87	155.44
195.089	150.93
195.307	153.39
195.526	149.96
195.744	166.55
195.963	192.28
196.181	202.68
196.399	207.4
196.618	222.38
196.836	254.55
197.055	244.23
197.273	228.12
197.491	198.49
197.71	182.4
197.928	167.67
198.146	163.36
198.365	162.1
198.583	148.04
198.801	154.03
199.019	162.63
199.238	145.57
199.456	150.61
199.674	140.82
199.892	154.39
200.111	173.2
200.329	199.62
200.547	175.97
200.765	167.77
200.983	203.13
201.202	205.92
201.42	185.31
201.638	201.71
201.856	214.43
202.074	246.59
202.292	250.89
202.51	214.91
202.728	217.35
202.946	234.72
203.165	244.15
203.383	246.35
203.601	229.32
203.819	225.84
204.037	211.13
204.255	204.95
204.473	200.55
204.691	179.59
204.909	190.04
205.127	199.52
205.345	200.18
205.562	195.41
205.78	176.66
205.998	166.6
206.216	161.34
206.434	168.29
206.652	166.34
206.87	166.31
207.088	184.42
207.306	176.68
207.523	163.65
207.741	164.55
207.959	172.63
208.177	168.17
208.395	177.91
208.612	200.22
208.83	200.21
209.048	185.71
209.266	192.66
209.483	180.4
209.701	188.77
209.919	215.82
210.136	202.46
210.354	221.36
210.572	224.28
210.79	199.91
211.007	173.13
211.225	156.89
211.442	160.57
211.66	165.53
211.878	173.42
212.095	126.8
212.313	126.65
212.53	129.11
212.748	115.29
212.966	111.1
213.183	116.04
213.401	114.14
213.618	115.05
213.836	113.32
214.053	105.59
214.271	104.37
214.488	149.47
214.705	135.47
214.923	122.55
215.14	117.53
215.358	125.62
215.575	127.77
215.793	134.73
216.01	144.49
216.227	158.18
216.445	159.13
216.662	152.75
216.879	154.99
217.097	169.74
217.314	202.73
217.531	193.84
217.749	184.03
217.966	166.95
218.183	158.69
218.4	147.96
218.618	136.88
218.835	137.85
219.052	139.19
219.269	134.12
219.487	129.1
219.704	128.8
219.921	123.29
220.138	113.37
220.355	112.97
220.572	115.55
220.79	108.75
221.007	107.88
221.224	108.95
221.441	104.91
221.658	98.25
221.875	94.97
222.092	90.79
222.309	90.5
222.526	91.7
222.743	91.53
222.96	80.69
223.177	85.2
223.394	75.89
223.611	66.34
223.828	58.34
224.045	58.63
224.262	52.14
224.479	52.96
224.696	51.82
224.913	47.79
225.13	43.57
225.347	42.81
225.564	39.91
225.781	40.07
225.997	38.92
226.214	38.02
226.431	34.51
226.648	32.02
226.865	26.73
227.082	22.98
227.298	19.99
227.515	17.34
227.732	17.14
227.949	14.48
228.165	13.03
228.382	11.95
228.599	12.41
228.816	12.44
229.032	12.39
229.249	12.78
229.466	13.22
229.682	13.9
229.899	14.57
230.116	14.3
230.332	15.01
230.549	15.4
230.765	15.97
230.982	16.03
231.199	16.34
231.415	17.23
231.632	17.7
231.848	18.46
232.065	19.55
232.281	21.13
232.498	21.34
232.714	22.79
232.931	24.55
233.147	24.32
233.364	23.72
233.58	23.77
233.797	23.16
234.013	22.73
234.23	22.53
234.446	21.87
234.662	21.45
234.879	21.21
235.095	19.24
235.312	18.78
235.528	18.51
235.744	19.27
235.961	19.57
236.177	19.83
236.393	20.93
236.61	20.65
236.826	20.6
237.042	19.81
237.258	20.61
237.475	21.85
237.691	20.36
237.907	21.16
238.123	19.3
238.339	19.83
238.556	21.06
238.772	19.53
238.988	20.32
239.204	20.07
239.42	20.17
239.636	18.91
239.853	18
240.069	18.51
240.285	17.56
240.501	18.08
240.717	16.59
240.933	14.98
241.149	14.92
241.365	13.85
241.581	12.87
241.797	12.1
242.013	11.55
242.229	11.19
242.445	10.9
242.661	11.12
242.877	10.92
243.093	11.1
243.309	11.23
243.525	10.9
243.741	10.64
243.957	11.5
244.173	11.76
244.388	12.51
244.604	12.78
244.82	12.24
245.036	11.58
245.252	11.23
245.468	10.61
245.683	10.01
245.899	9.61
246.115	9.36
246.331	8.77
246.547	8.48
246.762	8.05
246.978	7.57
247.194	7.68
247.409	7.39
247.625	7.18
247.841	7.21
248.057	7.57
248.272	7.87
248.488	7.98
248.703	8.04
248.919	8.07
249.135	8.28
249.35	8.67
249.566	8.68
249.782	9.3
249.997	9.77
250.213	10.59
250.428	10.65
250.644	10.38
250.859	11.1
251.075	10.7
251.29	10.47
251.506	11.25
251.721	11.45
251.937	11.89
252.152	11.66
252.368	11.43
252.583	10.77
252.798	10.13
253.014	10.55
253.229	10.1
253.445	11.42
253.66	12.5
253.875	12.17
254.091	11.86
254.306	11.68
254.521	12.13
254.737	13.7
254.952	14.14
255.167	14.98
255.383	15.35
255.598	15.26
255.813	14.04
256.028	13.69
256.244	13.98
256.459	14.47
256.674	14.3
256.889	13.94
257.104	12.36
257.32	11.76
257.535	10.94
257.75	10.36
257.965	9.94
258.18	9.34
258.395	8.67
258.61	7.72
258.826	7.3
259.041	7
259.256	6.76
259.471	6.86
259.686	6.72
259.901	6.86
260.116	6.87
260.331	6.67
260.546	6.67
260.761	6.65
260.976	6.8
261.191	6.94
261.406	7.1
261.621	7.56
261.836	7.71
262.05	7.85
262.265	7.75
262.48	7.5
262.695	8.2
262.91	8.78
263.125	9.05
263.34	9.17
263.555	9.58
263.769	9.41
263.984	8.8
264.199	9.17
264.414	9.67
264.629	10
264.843	9.96
265.058	9.68
265.273	9.33
265.488	9.37
265.702	9.44
265.917	9.32
266.132	9.72
266.346	9.62
266.561	9.45
266.776	9.15
266.99	8.68
267.205	8.87
267.42	9.25
267.634	9.64
267.849	9.75
268.063	9.43
268.278	8.93
268.492	8.8
268.707	9.04
268.922	8.86
269.136	8.88
269.351	9.22
269.565	8.68
269.78	7.98
269.994	7.68
270.209	7.75
270.423	8.11
270.637	8.04
270.852	7.99
271.066	7.74
271.281	7.21
271.495	7.25
271.709	7.14
271.924	7.2
272.138	7.31
272.353	7.04
272.567	6.69
272.781	6.44
272.996	6.59
273.21	6.63
273.424	6.46
273.638	7.11
273.853	6.93
274.067	7.16
274.281	7.71
274.495	7.66
274.71	7.96
274.924	8.09
275.138	8.2
275.352	8.35
275.566	8.3
275.781	8.56
275.995	7.99
276.209	8.03
276.423	7.64
276.637	7.35
276.851	7.78
277.065	7.88
277.279	7.86
277.493	7.81
277.707	7.96
277.921	7.97
278.135	8.15
278.349	8.51
278.563	8.47
278.777	8.57
278.991	8.8
279.205	8.31
279.419	7.94
279.633	7.9
279.847	7.71
280.061	7.72
280.275	7.38
280.489	7.53
280.703	7.62
280.917	7.44
281.131	7.52
281.344	7.26
281.558	7.29
281.772	7.27
281.986	7.22
282.2	7.51
282.414	7.43
282.627	7.54
282.841	7.13
283.055	6.81
283.269	6.87
283.482	6.81
283.696	6.77
283.91	6.78
284.123	6.66
284.337	6.83
284.551	6.74
284.764	6.57
284.978	6.54
285.192	6.55
285.405	6.74
285.619	6.78
285.833	6.76
286.046	6.79
286.26	6.7
286.473	6.76
286.687	6.65
286.9	6.54
287.114	6.53
287.327	6.74
287.541	6.84
287.754	6.7
287.968	6.94
288.181	6.97
288.395	6.88
288.608	6.83
288.822	6.75
289.035	6.95
289.248	7.07
289.462	6.94
289.675	7.04
289.889	6.95
290.102	6.87
290.315	6.66
290.529	6.84
290.742	6.91
290.955	7.14
291.169	7.26
291.382	7.18
291.595	7.23
291.808	7.6
292.022	7.85
292.235	8.17
292.448	8.34
292.661	8.54
292.875	8.33
293.088	8.28
293.301	8.17
293.514	8.35
293.727	8.34
293.94	8.56
294.153	8.59
294.367	7.82
294.58	7.79
294.793	7.65
295.006	7.71
295.219	8.01
295.432	8.33
295.645	8.54
295.858	8.41
296.071	8.3
296.284	8.06
296.497	7.7
296.71	7.99
296.923	7.72
297.136	7.65
297.349	7.52
297.562	7.28
297.775	7.18
297.988	7.06
298.201	7.11
298.414	7.39
298.626	7.57
298.839	8.01
299.052	8.14
299.265	8.62
299.478	9.03
299.691	9.04
299.903	9.4
300.116	9.3
300.329	9.4
300.542	9.6
300.755	9.87
300.967	9.99
301.18	9.89
301.393	9.77
301.605	9.62
301.818	9.6
302.031	9.79
302.243	9.65
302.456	9.77
302.669	9.83
302.881	10.04
303.094	9.51
303.307	9.56
303.519	9.77
303.732	9.88
303.944	9.93
304.157	9.77
304.37	9.89
304.582	9.85
304.795	9.99
305.007	10.01
305.22	9.81
305.432	10.04
305.645	10.06
305.857	9.85
306.069	9.92
306.282	9.99
306.494	10.15
306.707	10.3
306.919	10.41
307.132	10.22
307.344	10.34
307.556	10.33
307.769	10.49
307.981	10.38
308.193	10.35
308.406	10.32
308.618	10.31
308.83	10.45
309.043	10.36
309.255	10.17
309.467	10.49
309.679	10.42
309.892	10.39
310.104	10.07
310.316	10.09
310.528	10.19
310.74	10
310.953	9.96
311.165	10.06
311.377	10.12
311.589	10.03
311.801	9.9
312.013	9.93
312.225	10.12
312.437	10.31
312.649	10.29
312.862	10.4
313.074	10.64
313.286	10.79
313.498	10.69
313.71	10.65
313.922	11.1
314.134	11.13
314.346	11.12
314.558	11.24
314.77	11.36
314.982	11.43
315.193	11.3
315.405	11.03
315.617	11.25
315.829	11.25
316.041	11
316.253	10.87
316.465	10.83
316.677	11.09
316.888	10.74
317.1	10.86
317.312	11.28
317.524	11.63
317.736	12.21
317.947	11.95
318.159	12.1
318.371	12.47
318.583	12.72
318.794	12.91
319.006	12.62
319.218	12.96
319.43	13.07
319.641	12.85
319.853	12.49
320.064	12.52
320.276	12.34
320.488	12.32
320.699	12.48
320.911	12.23
321.123	12.68
321.334	13.3
321.546	13.24
321.757	13.28
321.969	13.06
322.18	13.18
322.392	13.15
322.603	13.66
322.815	13.64
323.026	13.12
323.238	13.49
323.449	12.88
323.661	12.57
323.872	12.49
324.083	12.29
324.295	12.5
324.506	12.77
324.718	12.44
324.929	12.15
325.14	12.18
325.352	12.57
325.563	12.62
325.774	12.81
325.986	12.64
326.197	12.94
326.408	12.87
326.62	12.91
326.831	13.11
327.042	13.07
327.253	13.16
327.464	13.42
327.676	13.61
327.887	13.73
328.098	13.89
328.309	14.31
328.52	14.25
328.732	14.39
328.943	14.59
329.154	14.65
329.365	15.24
329.576	15.2
329.787	14.97
329.998	14.76
330.209	14.65
330.42	14.91
330.631	14.99
330.842	15.31
331.053	15.63
331.264	15.67
331.475	15.55
331.686	15.39
331.897	15.85
332.108	16.21
332.319	16.51
332.53	16.42
332.741	16.21
332.952	16.34
333.163	16.22
333.374	16.1
333.585	16.09
333.795	16.22
334.006	16.43
334.217	16.5
334.428	16.19
334.639	16.38
334.849	16.64
335.06	16.64
335.271	16.63
335.482	16.51
335.692	16.45
335.903	16.73
336.114	16.68
336.325	16.6
336.535	16.49
336.746	16.71
336.957	16.47
337.167	16.42
337.378	16.35
337.589	16.27
337.799	16.63
338.01	16.73
338.22	16.54
338.431	16.65
338.642	16.63
338.852	16.65
339.063	16.74
339.273	17
339.484	17.11
339.694	17.23
339.905	17.33
340.115	17.27
340.326	17.23
340.536	17.05
340.746	16.75
340.957	16.65
341.167	16.75
341.378	16.58
341.588	16.35
341.799	15.95
342.009	15.78
342.219	15.82
342.43	15.33
342.64	15.1
342.85	15.06
343.061	14.9
343.271	14.96
343.481	14.59
343.691	14.38
343.902	14.11
344.112	14.25
344.322	14.39
344.532	14.2
344.743	14.34
344.953	14.54
345.163	14.73
345.373	15.19
345.583	14.98
345.793	15.11
346.004	15.07
346.214	15.41
346.424	15.57
346.634	15.42
346.844	15.45
347.054	15.39
347.264	15.27
347.474	15.27
347.684	15.17
347.894	15.58
348.104	15.71
348.314	16.22
348.524	16.13
348.734	16.23
348.944	16.36
349.154	16.15
349.364	16.31
349.574	16.41
349.784	16.35
349.994	16.18
350.204	15.81
350.413	15.5
350.623	15.15
350.833	15.11
351.043	14.72
351.253	14.65
351.463	14.68
351.672	14.73
351.882	14.79
352.092	14.59
352.302	14.69
352.511	14.84
352.721	15.1
352.931	15.09
353.141	15.13
353.35	15.21
353.56	15.35
353.77	15.35
353.979	15.34
354.189	15.08
354.399	15.37
354.608	15.54
354.818	15.45
355.027	15.38
355.237	15.43
355.447	15.34
355.656	15.35
355.866	15.59
356.075	15.74
356.285	15.58
356.494	15.67
356.704	15.78
356.913	15.44
357.123	15.39
357.332	15.26
357.542	15.26
357.751	15.31
357.96	15.44
358.17	15.11
358.379	14.86
358.589	14.95
358.798	15.05
359.007	14.65
359.217	14.79
359.426	14.88
359.635	15.11
359.845	15.01
360.054	14.88
360.263	14.62
360.472	14.52
360.682	14.69
360.891	14.64
361.1	14.47
361.309	14.49
361.519	14.51
361.728	14.54
361.937	14.53
362.146	14.6
362.355	14.54
362.564	14.62
362.774	14.61
362.983	14.39
363.192	14.39
363.401	14.5
363.61	14.31
363.819	14.11
364.028	14.08
364.237	13.92
364.446	13.86
364.655	13.98
364.864	14.11
365.073	14.22
365.282	14.34
365.491	14.2
365.7	14.11
365.909	14.64
366.118	14.76
366.327	14.79
366.536	14.74
366.745	14.85
366.954	15.08
367.162	15.24
367.371	15.16
367.58	15.3
367.789	15.33
367.998	15.61
368.207	15.15
368.415	15.17
368.624	15.28
368.833	15.37
369.042	15.23
369.25	14.92
369.459	14.73
369.668	14.7
369.877	14.67
370.085	14.7
370.294	14.44
370.503	14.55
370.711	14.58
370.92	14.4
371.129	14.28
371.337	14.23
371.546	14.19
371.754	14.01
371.963	14.16
372.171	14
372.38	13.94
372.589	13.82
372.797	13.85
373.006	13.9
373.214	13.76
373.423	13.81
373.631	13.86
373.84	13.69
374.048	13.65
374.256	13.31
374.465	13.47
374.673	13.51
374.882	13.64
375.09	13.57
375.298	13.44
375.507	13.49
375.715	13.5
375.923	13.59
376.132	14
376.34	13.97
376.548	14.08
376.757	13.96
376.965	14.02
377.173	13.93
377.381	13.94
377.59	13.96
377.798	13.81
378.006	13.81
378.214	13.61
378.423	13.41
378.631	13.49
378.839	13.56
379.047	13.44
379.255	13.46
379.463	13.32
379.671	13.2
379.879	13.11
380.088	13.24
380.296	13.2
380.504	13.29
380.712	13.44
380.92	13.57
381.128	13.66
381.336	13.78
381.544	13.61
381.752	13.96
381.96	14.11
382.168	14.13
382.376	14.13
382.584	13.99
382.791	13.82
382.999	13.55
383.207	13.33
383.415	13.24
383.623	13.34
383.831	13.3
384.039	13.1
384.247	13.21
384.454	13.15
384.662	13.22
384.87	13.33
385.078	13.63
385.285	13.61
385.493	13.53
385.701	13.43
385.909	13.42
386.116	13.58
386.324	13.45
386.532	13.39
386.739	13.41
386.947	13.38
387.155	13.39
387.362	13.25
387.57	13.35
387.778	13.5
387.985	13.45
388.193	13.18
388.4	13.12
388.608	13.4
388.816	13.27
389.023	13.13
389.231	13.1
389.438	13.14
389.646	13.22
389.853	13.21
390.061	13.23
390.268	13.24
390.475	13.43
390.683	13.4
390.89	13.21
391.098	13.23
391.305	13.36
391.512	13.38
391.72	13.36
391.927	13.4
392.135	13.35
392.342	13.14
392.549	13.2
392.756	13.12
392.964	13.17
393.171	13.33
393.378	13.27
393.586	13.22
393.793	13.07
394	13.03
394.207	12.93
394.414	13.04
394.622	13.37
394.829	13.5
395.036	13.47
395.243	13.59
395.45	13.32
395.657	13.39
395.864	13.62
396.072	13.74
396.279	13.79
396.486	13.66
396.693	13.75
396.9	13.62
397.107	13.48
397.314	13.68
397.521	13.48
397.728	13.84
397.935	13.86
398.142	13.62
398.349	13.62
398.556	13.46
398.763	13.68
398.97	13.61
399.177	13.67
399.383	13.77
399.59	13.8
399.797	13.89
400.004	13.8
400.211	13.81
400.418	13.83
400.625	13.81
400.831	13.91
401.038	13.79
401.245	13.72
401.452	13.73
401.658	13.63
401.865	13.61
402.072	13.73
402.279	13.73
402.485	13.73
402.692	13.77
402.899	13.9
403.105	13.83
403.312	13.85
403.519	13.83
403.725	13.68
403.932	13.71
404.138	13.57
404.345	13.34
404.552	13.29
404.758	13.32
404.965	13.27
405.171	13.32
405.378	13.52
405.584	13.46
405.791	13.43
405.997	13.57
406.204	13.62
406.41	13.78
406.617	13.86
406.823	13.77
407.029	13.76
407.236	13.81
407.442	13.74
407.649	13.75
407.855	13.66
408.061	13.75
408.268	13.63
408.474	13.62
408.68	13.49
408.887	13.56
409.093	13.78
409.299	13.79
409.505	13.71
409.712	13.62
409.918	13.59
410.124	13.67
410.33	13.62
410.537	13.7
410.743	13.71
410.949	13.7
411.155	13.81
411.361	13.6
411.567	13.73
411.773	13.85
411.98	13.97
412.186	13.84
412.392	13.98
412.598	14.07
412.804	13.86
413.01	13.87
413.216	13.83
413.422	13.76
413.628	13.81
413.834	13.73
414.04	13.64
414.246	13.45
414.452	13.48
414.658	13.32
414.864	13.17
415.07	13.26
415.275	13.12
415.481	13.13
415.687	12.96
415.893	12.9
416.099	12.72
416.305	12.64
416.511	12.75
416.716	12.76
416.922	12.75
417.128	12.86
417.334	12.78
417.539	12.75
417.745	12.7
417.951	12.66
418.157	12.59
418.362	12.64
418.568	12.7
418.774	12.68
418.979	12.6
419.185	12.57
419.391	12.45
419.596	12.49
419.802	12.52
420.008	12.54
420.213	12.58
420.419	12.58
420.624	12.56
420.83	12.51
421.035	12.46
421.241	12.48
421.446	12.45
421.652	12.5
421.857	12.48
422.063	12.49
422.268	12.44
422.474	12.36
422.679	12.41
422.885	12.41
423.09	12.36
423.295	12.27
423.501	12.19
423.706	12.21
423.911	12.12
424.117	12.09
424.322	12.08
424.527	12
424.733	12.01
424.938	11.96
425.143	11.89
425.349	11.88
425.554	11.94
425.759	11.93
425.964	11.91
426.169	11.93
426.375	11.97
426.58	11.92
426.785	12.04
426.99	12.08
427.195	12.06
427.4	12.12
427.605	12.14
427.811	12.11
428.016	12.16
428.221	12.19
428.426	12.1
428.631	12.18
428.836	12.14
429.041	12.08
429.246	12.15
429.451	12.21
429.656	12.18
429.861	12.18
430.066	12.18
430.271	12.2
430.476	12.14
430.681	12.25
430.886	12.06
431.09	12.12
431.295	12.14
431.5	12.08
431.705	11.91
431.91	12.03
432.115	12.12
432.32	12.11
432.524	12.12
432.729	12.13
432.934	12.1
433.139	12.14
433.343	12.14
433.548	12.2
433.753	12.19
433.958	12.32
434.162	12.29
434.367	12.24
434.572	12.21
434.776	12.21
434.981	12.14
435.186	12.07
435.39	12.12
435.595	12.15
435.799	12.04
436.004	12.08
436.209	12.13
436.413	11.99
436.618	11.99
436.822	11.98
437.027	11.95
437.231	12.02
437.436	12.01
437.64	11.93
437.845	11.92
438.049	11.96
438.253	12.02
438.458	11.97
438.662	12.05
438.867	12.02
439.071	12.04
439.275	11.98
439.48	12.04
439.684	12.07
439.888	12.09
440.093	11.98
440.297	11.95
440.501	11.87
440.706	11.8
440.91	11.79
441.114	11.77
441.318	11.77
441.523	11.8
441.727	11.68
441.931	11.64
442.135	11.65
442.339	11.75
442.543	11.85
442.748	11.83
442.952	11.88
443.156	11.84
443.36	11.85
443.564	11.9
443.768	11.92
443.972	11.95
444.176	11.96
444.38	11.89
444.584	11.79
444.788	11.67
444.992	11.57
445.196	11.51
445.4	11.45
445.604	11.43
445.808	11.4
446.012	11.4
446.216	11.42
446.42	11.42
446.624	11.46
446.828	11.49
447.032	11.49
447.235	11.46
447.439	11.42
447.643	11.44
447.847	11.48
448.051	11.49
448.254	11.48
448.458	11.45
448.662	11.47
448.866	11.46
449.069	11.45
449.273	11.47
449.477	11.56
449.681	11.69
449.884	11.68
450.088	11.7
450.292	11.55
450.495	11.51
450.699	11.48
450.902	11.52
451.106	11.53
451.31	11.61
451.513	11.6
451.717	11.59
451.92	11.51
452.124	11.45
452.327	11.41
452.531	11.46
452.734	11.42
452.938	11.45
453.141	11.36
453.345	11.33
453.548	11.23
453.752	11.21
453.955	11.2
454.158	11.29
454.362	11.31
454.565	11.39
454.769	11.45
454.972	11.56
455.175	11.59
455.379	11.57
455.582	11.56
455.785	11.52
455.988	11.57
456.192	11.66
456.395	11.74
456.598	11.79
456.801	11.71
457.005	11.69
457.208	11.59
457.411	11.56
457.614	11.52
457.817	11.5
458.021	11.47
458.224	11.41
458.427	11.26
458.63	11.17
458.833	11.19
459.036	11.12
459.239	11.14
459.442	11.22
459.645	11.21
459.848	11.19
460.051	11.23
460.254	11.27
460.457	11.29
460.66	11.38
460.863	11.33
461.066	11.34
461.269	11.41
461.472	11.43
461.675	11.38
461.878	11.49
462.081	11.59
462.284	11.53
462.486	11.6
462.689	11.69
462.892	11.66
463.095	11.69
463.298	11.76
463.5	11.78
463.703	11.7
463.906	11.78
464.109	11.61
464.311	11.66
464.514	11.68
464.717	11.62
464.92	11.59
465.122	11.6
465.325	11.68
465.528	11.63
465.73	11.74
465.933	11.83
466.135	11.8
466.338	11.98
466.541	12.04
466.743	11.99
466.946	11.98
467.148	12.03
467.351	12.08
467.553	12.13
467.756	12.09
467.958	12
468.161	11.92
468.363	11.95
468.566	11.82
468.768	11.82
468.971	11.85
469.173	11.96
469.375	11.99
469.578	12.02
469.78	11.96
469.983	12
470.185	11.93
470.387	12.05
470.59	12.08
470.792	12.22
470.994	12.18
471.196	12.21
471.399	12.21
471.601	12.06
471.803	12.09
472.005	12.1
472.208	12.13
472.41	12.23
472.612	12.2
472.814	12.15
473.016	12.11
473.218	12.03
473.421	12.08
473.623	12.03
473.825	12.09
474.027	12.11
474.229	12.15
474.431	12.07
474.633	12.03
474.835	12.07
475.037	12.1
475.239	12.12
475.441	12.07
475.643	12.06
475.845	11.94
476.047	11.93
476.249	11.9
476.451	11.9
476.653	12.01
476.855	11.97
477.057	11.96
477.258	11.85
477.46	11.8
477.662	11.9
477.864	11.92
478.066	12.06
478.268	12.08
478.469	12.15
478.671	12.17
478.873	12.11
479.075	12.19
479.276	12.07
479.478	12.11
479.68	12.16
479.882	12.11
480.083	12.12
480.285	12.12
480.487	12.04
480.688	11.89
480.89	11.83
481.091	11.75
481.293	11.7
481.495	11.7
481.696	11.7
481.898	11.66
482.099	11.61
482.301	11.5
482.502	11.41
482.704	11.35
482.905	11.31
483.107	11.29
483.308	11.25
483.51	11.23
483.711	11.23
483.913	11.21
484.114	11.16
484.315	11.17
484.517	11.2
484.718	11.21
484.92	11.22
485.121	11.24
485.322	11.23
485.524	11.25
485.725	11.24
485.926	11.23
486.127	11.24
486.329	11.28
486.53	11.23
486.731	11.22
486.932	11.22
487.134	11.24
487.335	11.22
487.536	11.23
487.737	11.24
487.938	11.24
488.139	11.27
488.341	11.25
488.542	11.22
488.743	11.24
488.944	11.25
489.145	11.28
489.346	11.28
489.547	11.28
489.748	11.29
489.949	11.28
490.15	11.32
490.351	11.3
490.552	11.32
490.753	11.34
490.954	11.39
491.155	11.38
491.356	11.35
491.557	11.36
491.758	11.38
491.959	11.38
492.159	11.43
492.36	11.44
492.561	11.47
492.762	11.49
492.963	11.53
493.164	11.53
493.364	11.59
493.565	11.65
493.766	11.66
493.967	11.71
494.167	11.73
494.368	11.74
494.569	11.78
494.769	11.75
494.97	11.85
495.171	11.86
495.371	11.86
495.572	11.85
495.773	11.85
495.973	11.96
496.174	11.96
496.375	12.02
496.575	12.05
496.776	12.05
496.976	12.07
497.177	11.96
497.377	11.96
497.578	11.99
497.778	11.99
497.979	12.06
498.179	12.02
498.38	12.08
498.58	12.08
498.78	12.11
498.981	12.14
499.181	12.12
499.382	12.23
499.582	12.26
499.782	12.27
499.983	12.3
500.183	12.25
500.383	12.3
500.584	12.31
500.784	12.3
500.984	12.35
501.184	12.33
501.385	12.4
501.585	12.44
501.785	12.5
501.985	12.61
502.185	12.65
502.386	12.73
502.586	12.8
502.786	12.84
502.986	12.98
503.186	12.94
503.386	12.97
503.586	13.08
503.786	13.1
503.987	13.16
504.187	13.18
504.387	13.21
504.587	13.21
504.787	13.22
504.987	13.22
505.187	13.19
505.387	13.28
505.587	13.33
505.786	13.39
505.986	13.48
506.186	13.52
506.386	13.5
506.586	13.51
506.786	13.57
506.986	13.54
507.186	13.59
507.386	13.69
507.585	13.66
507.785	13.68
507.985	13.66
508.185	13.54
508.384	13.58
508.584	13.63
508.784	13.66
508.984	13.73
509.183	13.79
509.383	13.84
509.583	13.82
509.782	13.9
509.982	13.99
510.182	14.07
510.381	14.2
510.581	14.23
510.781	14.22
510.98	14.28
511.18	14.26
511.379	14.38
511.579	14.41
511.778	14.54
511.978	14.58
512.177	14.65
512.377	14.63
512.576	14.62
512.776	14.68
512.975	14.73
513.175	14.8
513.374	14.87
513.573	14.87
513.773	14.93
513.972	14.92
514.172	14.95
514.371	15
514.57	15.15
514.77	15.21
514.969	15.23
515.168	15.41
515.367	15.56
515.567	15.74
515.766	15.81
515.965	15.83
516.164	15.91
516.364	16.02
516.563	16.09
516.762	16.14
516.961	16.25
517.16	16.32
517.359	16.3
517.559	16.31
517.758	16.29
517.957	16.36
518.156	16.47
518.355	16.45
518.554	16.54
518.753	16.54
518.952	16.58
519.151	16.7
519.35	16.77
519.549	16.81
519.748	16.83
519.947	16.87
520.146	16.92
520.345	17
520.544	17.12
520.743	17.11
520.942	17.24
521.141	17.25
521.339	17.19
521.538	17.25
521.737	17.34
521.936	17.46
522.135	17.62
522.333	17.65
522.532	17.73
522.731	17.79
522.93	17.9
523.129	17.88
523.327	18.02
523.526	18.18
523.725	18.24
523.923	18.3
524.122	18.4
524.321	18.43
524.519	18.49
524.718	18.49
524.917	18.46
525.115	18.5
525.314	18.57
525.512	18.63
525.711	18.65
525.909	18.73
526.108	18.83
526.306	18.83
526.505	18.86
526.703	18.93
526.902	18.96
527.1	19.05
527.299	19.14
527.497	19.15
527.696	19.17
527.894	19.18
528.092	19.21
528.291	19.21
528.489	19.21
528.688	19.25
528.886	19.25
529.084	19.3
529.283	19.32
529.481	19.31
529.679	19.35
529.877	19.38
530.076	19.41
530.274	19.39
530.472	19.45
530.67	19.56
530.869	19.58
531.067	19.66
531.265	19.7
531.463	19.78
531.661	19.86
531.859	19.99
532.057	20.07
532.255	20.12
532.454	20.23
532.652	20.22
532.85	20.21
533.048	20.25
533.246	20.3
533.444	20.36
533.642	20.42
533.84	20.45
534.038	20.44
534.236	20.43
534.434	20.49
534.632	20.5
534.83	20.59
535.027	20.67
535.225	20.72
535.423	20.68
535.621	20.74
535.819	20.76
536.017	20.79
536.215	20.8
536.412	20.9
536.61	20.95
536.808	21
537.006	20.98
537.203	21.06
537.401	21.2
537.599	21.31
537.797	21.36
537.994	21.38
538.192	21.45
538.39	21.56
538.587	21.66
538.785	21.76
538.983	21.88
539.18	22
539.378	22.06
539.575	22.11
539.773	22.19
539.97	22.29
540.168	22.36
540.366	22.38
540.563	22.42
540.761	22.47
540.958	22.48
541.155	22.49
541.353	22.52
541.55	22.51
541.748	22.49
541.945	22.53
542.143	22.53
542.34	22.57
542.537	22.65
542.735	22.7
542.932	22.7
543.129	22.75
543.327	22.87
543.524	23
543.721	23.14
543.919	23.31
544.116	23.46
544.313	23.71
544.51	23.89
544.708	24.04
544.905	24.28
545.102	24.55
545.299	24.69
545.496	24.8
545.693	24.78
545.891	24.88
546.088	24.83
546.285	24.86
546.482	24.73
546.679	24.63
546.876	24.55
547.073	24.4
547.27	24.27
547.467	24.15
547.664	24
547.861	24
548.058	23.82
548.255	23.85
548.452	23.74
548.649	23.7
548.846	23.72
549.043	23.8
549.24	23.82
549.437	23.71
549.633	23.68
549.83	23.72
550.027	23.69
550.224	23.71
550.421	23.6
550.618	23.61
550.814	23.62
551.011	23.56
551.208	23.45
551.405	23.41
551.601	23.44
551.798	23.49
551.995	23.31
552.191	23.3
552.388	23.21
552.585	23.18
552.781	23.08
552.978	23.02
553.175	22.98
553.371	22.89
553.568	22.83
553.764	22.95
553.961	22.87
554.157	22.93
554.354	22.97
554.55	23.08
554.747	23.03
554.943	23.12
555.14	23.21
555.336	23.23
555.533	23.37
555.729	23.32
555.926	23.22
556.122	23.27
556.318	23.26
556.515	23.23
556.711	23.34
556.907	23.44
557.104	23.49
557.3	23.5
557.496	23.5
557.693	23.41
557.889	23.59
558.085	23.53
558.281	23.43
558.478	23.53
558.674	23.39
558.87	23.34
559.066	23.34
559.262	23.23
559.459	23.27
559.655	23.27
559.851	23.35
560.047	23.38
560.243	23.44
560.439	23.57
560.635	23.59
560.831	23.79
561.027	23.72
561.223	23.8
561.419	23.91
561.615	23.86
561.811	23.88
562.007	23.85
562.203	23.94
562.399	23.9
562.595	23.98
562.791	23.84
562.987	23.79
563.183	23.79
563.379	23.65
563.575	23.58
563.771	23.47
563.966	23.6
564.162	23.55
564.358	23.4
564.554	23.44
564.75	23.38
564.945	23.53
565.141	23.5
565.337	23.51
565.533	23.59
565.728	23.63
565.924	23.59
566.12	23.49
566.315	23.57
566.511	23.56
566.707	23.48
566.902	23.48
567.098	23.47
567.293	23.6
567.489	23.66
567.684	23.75
567.88	23.68
568.076	23.83
568.271	23.82
568.467	23.85
568.662	23.76
568.858	23.9
569.053	23.91
569.248	23.96
569.444	23.81
569.639	23.8
569.835	23.72
570.03	23.8
570.225	23.84
570.421	23.93
570.616	23.92
570.812	24.03
571.007	24.02
571.202	24.1
571.397	24.11
571.593	24.19
571.788	24.07
571.983	24.07
572.178	23.99
572.374	23.95
572.569	23.95
572.764	23.95
572.959	23.98
573.154	23.86
573.35	23.84
573.545	23.78
573.74	23.74
573.935	23.86
574.13	23.86
574.325	23.94
574.52	23.99
574.715	23.97
574.91	23.95
575.105	23.93
575.3	23.93
575.495	23.97
575.69	24.01
575.885	24.05
576.08	23.94
576.275	24.05
576.47	24.13
576.665	24.06
576.86	24.03
577.055	24.06
577.25	24.02
577.444	24.15
577.639	24.18
577.834	24.2
578.029	24.29
578.224	24.39
578.418	24.33
578.613	24.41
578.808	24.52
579.003	24.63
579.197	24.76
579.392	24.74
579.587	24.93
579.781	24.88
579.976	24.99
580.171	24.92
580.365	25
580.56	25.06
580.755	25
580.949	25
581.144	25.02
581.338	24.89
581.533	25.14
581.727	25.06
581.922	25.15
582.116	25.07
582.311	25.11
582.505	25.12
582.7	25.13
582.894	25.14
583.089	25.08
583.283	25.13
583.478	25.29
583.672	25.35
583.866	25.25
584.061	25.26
584.255	25.38
584.449	25.41
584.644	25.44
584.838	25.52
585.032	25.49
585.226	25.66
585.421	25.7
585.615	25.71
585.809	25.58
586.003	25.7
586.198	25.55
586.392	25.56
586.586	25.58
586.78	25.6
586.974	25.54
587.168	25.53
587.363	25.44
587.557	25.47
587.751	25.46
587.945	25.45
588.139	25.48
588.333	25.51
588.527	25.44
588.721	25.41
588.915	25.4
589.109	25.24
589.303	25.27
589.497	25.13
589.691	24.91
589.885	24.86
590.079	24.83
590.273	24.91
590.466	25
590.66	24.98
590.854	25.05
591.048	25.05
591.242	25.24
591.436	25.28
591.629	25.39
591.823	25.52
592.017	25.51
592.211	25.52
592.404	25.43
592.598	25.45
592.792	25.58
592.986	25.55
593.179	25.57
593.373	25.47
593.567	25.57
593.76	25.57
593.954	25.59
594.147	25.58
594.341	25.63
594.535	25.59
594.728	25.52
594.922	25.29
595.115	25.31
595.309	25.28
595.502	25.28
595.696	25.07
595.889	25.08
596.083	25.09
596.276	25.21
596.47	25.16
596.663	25.17
596.856	25.22
597.05	25.29
597.243	25.28
597.437	25.28
597.63	25.36
597.823	25.43
598.017	25.48
598.21	25.48
598.403	25.32
598.596	25.37
598.79	25.46
598.983	25.39
599.176	25.58
599.369	25.52
599.563	25.41
599.756	25.39
599.949	25.57
600.142	25.51
600.335	25.59
600.528	25.73
600.722	25.79
600.915	25.71
601.108	25.79
601.301	25.54
601.494	25.7
601.687	25.86
601.88	25.87
602.073	25.66
602.266	25.67
602.459	25.57
602.652	25.59
602.845	25.68
603.038	25.53
603.231	25.49
603.424	25.66
603.617	25.51
603.809	25.45
604.002	25.36
604.195	25.44
604.388	25.47
604.581	25.49
604.774	25.48
604.966	25.36
605.159	25.54
605.352	25.44
605.545	25.36
605.737	25.39
605.93	25.48
606.123	25.59
606.316	25.64
606.508	25.67
606.701	25.78
606.894	25.71
607.086	25.71
607.279	25.55
607.471	25.69
607.664	25.79
607.857	26.01
608.049	26.22
608.242	26.39
608.434	26.59
608.627	26.92
608.819	27.24
609.012	27.74
609.204	28.35
609.397	29.14
609.589	29.87
609.782	30.54
609.974	31.16
610.166	31.79
610.359	32.56
610.551	33.23
610.743	33.85
610.936	34.42
611.128	34.77
611.32	34.93
611.513	35.09
611.705	34.97
611.897	34.83
612.09	34.6
612.282	34.35
612.474	33.97
612.666	33.68
612.858	33.36
613.051	33.08
613.243	32.81
613.435	32.61
613.627	32.01
613.819	31.8
614.011	31.63
614.203	31.41
614.395	31.2
614.588	30.94
614.78	30.53
614.972	30.16
615.164	29.69
615.356	29.53
615.548	29.37
615.74	29.31
615.932	29.04
616.124	28.73
616.315	28.62
616.507	28.43
616.699	28.28
616.891	28.08
617.083	27.89
617.275	27.75
617.467	27.54
617.659	27.47
617.85	27.44
618.042	27.46
618.234	27.41
618.426	27.3
618.618	27.23
618.809	27.13
619.001	27.16
619.193	27.07
619.384	27.06
619.576	26.91
619.768	26.76
619.959	26.71
620.151	26.79
620.343	27
620.534	27.1
620.726	27.08
620.917	27.1
621.109	27.2
621.301	27.32
621.492	27.35
621.684	27.6
621.875	27.68
622.067	27.69
622.258	27.35
622.45	27.33
622.641	27.22
622.832	27.43
623.024	27.39
623.215	27.32
623.407	27.49
623.598	27.74
623.789	27.56
623.981	27.52
624.172	27.67
624.363	27.94
624.555	28.02
624.746	27.96
624.937	27.64
625.129	27.69
625.32	27.71
625.511	27.63
625.702	27.17
625.893	27.17
626.085	27.07
626.276	26.89
626.467	26.9
626.658	26.6
626.849	26.62
627.04	26.85
627.231	26.76
627.422	26.66
627.614	26.7
627.805	26.99
627.996	27.15
628.187	27.09
628.378	27.26
628.569	27.39
628.76	27.62
628.951	27.61
629.142	27.55
629.332	27.79
629.523	28.11
629.714	28.14
629.905	28.4
630.096	28.52
630.287	28.72
630.478	28.58
630.669	28.37
630.859	28.3
631.05	28.43
631.241	28.45
631.432	28.21
631.623	27.93
631.813	27.89
632.004	27.57
632.195	27.49
632.385	27.37
632.576	27.32
632.767	27.47
632.957	27.45
633.148	27.4
633.339	27.31
633.529	27.38
633.72	27.2
633.91	27.09
634.101	27.03
634.292	26.87
634.482	26.95
634.673	26.93
634.863	26.71
635.054	26.66
635.244	26.66
635.435	26.65
635.625	26.67
635.815	26.82
636.006	26.77
636.196	26.67
636.387	26.82
636.577	26.63
636.767	26.65
636.958	26.8
637.148	26.82
637.338	26.8
637.529	26.77
637.719	26.78
637.909	26.78
638.099	26.9
638.29	26.98
638.48	26.78
638.67	26.89
638.86	26.91
639.05	26.71
639.241	26.83
639.431	26.73
639.621	26.84
639.811	26.67
640.001	26.66
640.191	26.75
640.381	26.7
640.571	26.71
640.761	26.73
640.951	26.66
641.141	26.92
641.331	26.85
641.521	26.8
641.711	26.53
641.901	26.56
642.091	26.38
642.281	26.35
642.471	26.26
642.661	26.26
642.851	26.39
643.041	26.53
643.231	26.58
643.42	26.5
643.61	26.66
643.8	26.78
643.99	26.93
644.18	27.22
644.369	27.01
644.559	27.23
644.749	27.31
644.939	27.27
645.128	27.21
645.318	27.1
645.508	27.27
645.697	27.3
645.887	27.52
646.076	27.52
646.266	27.37
646.456	27.56
646.645	27.79
646.835	27.86
647.024	27.86
647.214	27.75
647.403	27.67
647.593	27.57
647.782	27.65
647.972	27.51
648.161	27.6
648.351	27.6
648.54	27.58
648.73	27.46
648.919	27.45
649.108	27.42
649.298	27.44
649.487	27.62
649.677	27.62
649.866	27.65
650.055	27.68
650.244	27.5
650.434	27.53
650.623	27.55
650.812	27.55
651.002	27.47
651.191	27.51
651.38	27.67
651.569	27.73
651.758	27.85
651.947	27.68
652.137	27.79
652.326	27.97
652.515	27.96
652.704	27.88
652.893	27.94
653.082	27.95
653.271	28.01
653.46	27.98
653.649	27.81
653.838	27.79
654.027	27.96
654.216	27.81
654.405	27.8
654.594	27.92
654.783	27.96
654.972	27.8
655.161	27.66
655.35	27.6
655.539	27.63
655.728	27.74
655.916	27.55
656.105	27.58
656.294	27.51
656.483	27.3
656.672	27.27
656.86	27.09
657.049	27.11
657.238	27.4
657.427	27.41
657.615	27.47
657.804	27.33
657.993	27.35
658.181	27.19
658.37	27.22
658.559	27.25
658.747	27.19
658.936	27.22
659.125	27.15
659.313	27
659.502	26.94
659.69	26.89
659.879	26.98
660.067	26.92
660.256	27.12
660.444	27.16
660.633	27.32
660.821	27.25
661.01	27.4
661.198	27.57
661.387	27.66
661.575	27.67
661.763	27.75
661.952	27.79
662.14	28.04
662.328	27.88
662.517	27.96
662.705	27.83
662.893	28.01
663.082	27.91
663.27	27.82
663.458	28.03
663.646	28.13
663.834	28
664.023	28.07
664.211	27.85
664.399	27.91
664.587	27.94
664.775	28.04
664.963	28.07
665.152	28.24
665.34	28.32
665.528	28.27
665.716	28.22
665.904	28.06
666.092	28.09
666.28	28.18
666.468	28.04
666.656	27.82
666.844	27.84
667.032	28.01
667.22	27.63
667.408	27.52
667.596	27.25
667.784	27.5
667.971	27.62
668.159	27.58
668.347	27.65
668.535	27.72
668.723	28.04
668.911	28.02
669.098	27.85
669.286	28.09
669.474	28.03
669.662	27.95
669.849	27.91
670.037	27.86
670.225	27.87
670.413	27.76
670.6	27.89
670.788	27.7
670.976	27.62
671.163	27.66
671.351	27.87
671.538	28
671.726	28.35
671.913	28.07
672.101	28.26
672.289	28.07
672.476	28.2
672.664	28.25
672.851	28.13
673.039	28.13
673.226	28.08
673.413	28.03
673.601	28.25
673.788	28.1
673.976	28.08
674.163	27.96
674.35	28.07
674.538	28.11
674.725	28.02
674.912	28.19
675.1	28.28
675.287	28.53
675.474	28.37
675.662	28.07
675.849	28.07
676.036	28.28
676.223	28.54
676.411	28.39
676.598	28.29
676.785	28.46
676.972	28.54
677.159	28.67
677.346	28.45
677.533	28.42
677.721	28.58
677.908	28.52
678.095	28.51
678.282	28.27
678.469	28.43
678.656	28.52
678.843	28.35
679.03	28.46
679.217	28.39
679.404	28.51
679.591	28.56
679.778	28.55
679.964	28.82
680.151	28.72
680.338	28.79
680.525	28.63
680.712	28.61
680.899	28.53
681.086	28.14
681.272	27.83
681.459	27.87
681.646	27.71
681.833	27.77
682.02	27.44
682.206	27.43
682.393	27.6
682.58	27.7
682.766	27.5
682.953	27.75
683.14	27.95
683.326	28.2
683.513	28.16
683.7	28.36
683.886	28.12
684.073	28.37
684.259	28.52
684.446	28.37
684.632	28.35
684.819	28.56
685.005	28.31
685.192	28.61
685.378	28.71
685.565	28.6
685.751	28.34
685.938	28.53
686.124	28.6
686.31	28.45
686.497	28.48
686.683	28.52
686.87	28.7
687.056	28.76
687.242	28.78
687.429	28.83
687.615	28.75
687.801	29.19
687.987	29.08
688.174	28.92
688.36	28.87
688.546	28.51
688.732	28.66
688.918	28.27
689.105	28.44
689.291	28.19
689.477	28.15
689.663	28.29
689.849	28.11
690.035	28.09
690.221	28.04
690.407	28.36
690.593	28.61
690.779	28.51
690.965	28.75
691.151	28.62
691.337	28.56
691.523	28.59
691.709	28.82
691.895	28.98
692.081	29.24
692.267	29.48
692.453	29.5
692.639	29.49
692.825	29.68
693.011	29.77
693.196	29.85
693.382	29.88
693.568	30.03
693.754	29.58
693.94	29.55
694.125	29.46
694.311	29.34
694.497	29.17
694.682	29.26
694.868	28.89
695.054	28.65
695.239	28.68
695.425	28.93
695.611	28.9
695.796	29.23
695.982	29.07
696.168	29.01
696.353	28.98
696.539	28.79
696.724	28.7
696.91	28.89
697.095	29.3
697.281	29.17
697.466	28.73
697.652	28.51
697.837	28.48
698.023	28.43
698.208	28.4
698.393	28.4
698.579	28.55
698.764	28.47
698.949	28.52
699.135	28.35
699.32	28.41
699.505	28.62
699.691	28.52
699.876	28.46
700.061	28.45
700.246	28.4
700.432	28.46
700.617	28.32
700.802	28.7
700.987	28.56
701.172	28.28
701.358	28.11
701.543	28.2
701.728	28.5
701.913	28.58
702.098	28.9
702.283	29
702.468	28.76
702.653	28.77
702.838	28.55
703.023	28.88
703.208	29.38
703.393	29.63
703.578	29.7
703.763	29.75
703.948	29.8
704.133	30.1
704.318	30.07
704.503	30.08
704.688	30.45
704.873	30.89
705.057	30.52
705.242	30.83
705.427	31.14
705.612	31.16
705.797	31.47
705.981	31.31
706.166	31.26
706.351	31.69
706.536	31.97
706.72	31.94
706.905	31.69
707.09	32.21
707.274	31.91
707.459	31.97
707.644	32.25
707.828	32.4
708.013	32.83
708.197	32.84
708.382	32.6
708.567	32.92
708.751	33.07
708.936	33.13
709.12	33.1
709.305	33.02
709.489	32.6
709.673	32.32
709.858	32.09
710.042	31.67
710.227	31.38
710.411	31.47
710.596	31.54
710.78	31.15
710.964	31.14
711.149	31.06
711.333	31.21
711.517	31.56
711.702	31.48
711.886	31.19
712.07	31.41
712.254	31.24
712.438	31.02
712.623	30.57
712.807	30.69
712.991	30.52
713.175	30.28
713.359	30.13
713.544	29.5
713.728	29.73
713.912	29.81
714.096	29.7
714.28	29.72
714.464	29.5
714.648	29.48
714.832	29.66
715.016	29.77
715.2	29.42
715.384	29.48
715.568	29.62
715.752	29.75
715.936	29.83
716.12	29.81
716.304	29.99
716.488	30.33
716.671	30.33
716.855	30.2
717.039	30.3
717.223	30.62
717.407	30.85
717.59	31.03
717.774	30.91
717.958	30.85
718.142	30.5
718.325	30.23
718.509	30.14
718.693	29.79
718.877	29.6
719.06	29.01
719.244	29.29
719.428	29.24
719.611	29.51
719.795	29.55
719.978	29.6
720.162	30.15
720.345	30.26
720.529	30.32
720.713	31.01
720.896	31.01
721.08	31.27
721.263	31.01
721.446	31.06
721.63	30.67
721.813	30.57
721.997	30.34
722.18	29.94
722.364	29.95
722.547	29.93
722.73	29.66
722.914	30.08
723.097	30.3
723.28	30.47
723.464	29.9
723.647	29.83
723.83	29.88
724.013	30.12
724.197	30.38
724.38	30.31
724.563	30.65
724.746	30.65
724.929	30.7
725.112	30.67
725.296	30.52
725.479	30.94
725.662	31.48
725.845	31.4
726.028	31.26
726.211	31.26
726.394	31.46
726.577	31.19
726.76	30.99
726.943	30.78
727.126	30.55
727.309	30.51
727.492	30.62
727.675	30.36
727.858	30.23
728.041	30.5
728.224	31
728.407	30.87
728.589	31.03
728.772	31.4
728.955	31.46
729.138	31.48
729.321	31.34
729.503	30.8
729.686	30.74
729.869	30.8
730.052	30.42
730.234	30.11
730.417	30.15
730.6	30.16
730.782	29.92
730.965	29.94
731.148	30.14
731.33	30.49
731.513	30.35
731.695	30.6
731.878	30.28
732.061	30.76
732.243	30.5
732.426	30.83
732.608	30.71
732.791	30.86
732.973	30.9
733.156	31.23
733.338	31.08
733.52	31.26
733.703	31.16
733.885	31.17
734.068	31.02
734.25	31.27
734.432	31.07
734.615	30.77
734.797	31.04
734.979	31.12
735.162	30.99
735.344	30.96
735.526	31.37
735.708	31.34
735.891	31.55
736.073	31.61
736.255	31.65
736.437	31.47
736.619	31.43
736.802	31.53
736.984	31.16
737.166	31.09
737.348	31.05
737.53	31.38
737.712	31.58
737.894	31.75
738.076	31.45
738.258	31.75
738.44	31.66
738.622	32.17
738.804	32
738.986	32.38
739.168	32.43
739.35	32.86
739.532	32.61
739.714	32.87
739.896	32.83
740.078	33.31
740.259	32.93
740.441	33.74
740.623	33.42
740.805	33.27
740.987	32.59
741.168	32.09
741.35	31.6
741.532	32.14
741.714	31.89
741.895	31.99
742.077	32.15
742.259	31.92
742.44	31.62
742.622	31.85
742.804	32.13
742.985	32.61
743.167	32.74
743.348	32.98
743.53	32.3
743.711	32.52
743.893	32.71
744.075	32.51
744.256	33.07
744.438	33.25
744.619	33.56
744.8	33.26
744.982	33.45
745.163	33.73
745.345	33.6
745.526	33.9
745.707	33.32
745.889	32.98
746.07	32.67
746.252	32.97
746.433	33.02
746.614	32.74
746.795	32.53
746.977	32.63
747.158	32.49
747.339	33.2
747.52	32.97
747.702	33.08
747.883	33.56
748.064	34.2
748.245	34
748.426	33.61
748.607	33.34
748.788	33.6
748.97	33.2
749.151	32.88
749.332	32.92
749.513	32.79
749.694	32.28
749.875	32.07
750.056	31.44
750.237	31.51
750.418	31.77
750.599	32.37
750.78	32.56
750.96	32.86
751.141	33.35
751.322	32.46
751.503	31.25
751.684	32.41
751.865	32.17
752.046	32.2
752.226	31.58
752.407	31.26
752.588	31.42
752.769	31.2
752.949	30.95
753.13	30.65
753.311	31.48
753.492	32.66
753.672	31.71
753.853	31.92
754.034	32.23
754.214	32.86
754.395	33.31
754.575	33.09
754.756	33.2
754.937	33.31
755.117	33.91
755.298	33.91
755.478	34.21
755.659	34.63
755.839	34.23
756.02	34.2
756.2	34.01
756.381	33.54
756.561	33.37
756.741	33.24
756.922	32.99
757.102	33.09
757.283	32.77
757.463	32.3
757.643	32.09
757.823	32.1
758.004	32.07
758.184	31.48
758.364	31.3
758.545	30.88
758.725	31.53
758.905	32.08
759.085	31.63
759.265	31.46
759.446	31.54
759.626	32.09
759.806	32.45
759.986	32.7
760.166	33.06
760.346	33.53
760.526	33.78
760.706	32.94
760.886	32.39
761.066	32.16
761.246	32.75
761.426	32.88
761.606	32.07
761.786	31.73
761.966	31.47
762.146	30.94
762.326	30.61
762.506	30.22
762.686	30.18
762.866	30.39
763.046	30.18
763.225	29.94
763.405	29.62
763.585	30.1
763.765	29.98
763.945	29.82
764.124	30.02
764.304	30.05
764.484	30.01
764.664	30.06
764.843	29.84
765.023	30.33
765.203	29.96
765.382	30.21
765.562	30.28
765.741	30.4
765.921	30.5
766.101	30.34
766.28	30.64
766.46	31.28
766.639	32.25
766.819	33.23
766.998	33.07
767.178	33.56
767.357	33.87
767.537	33.47
767.716	33.62
767.896	33.41
768.075	34.13
768.254	33.85
768.434	33.95
768.613	33.31
768.792	32.66
768.972	33.24
769.151	32.61
769.33	32.36
769.51	32.62
769.689	32.91
769.868	33.39
770.047	33.93
770.226	33.96
770.406	33.8
770.585	34.24
770.764	34.69
770.943	34.99
771.122	35.23
771.301	35.82
771.48	35.36
771.66	35.34
771.839	35.56
772.018	34.37
772.197	34.31
772.376	34.47
772.555	34.58
772.734	33.95
772.913	33.02
773.092	33.56
773.271	33.67
773.449	34.24
773.628	34.68
773.807	34.6
773.986	34.63
774.165	34.65
774.344	34.78
774.523	34.41
774.701	34.83
774.88	35.05
775.059	34.71
775.238	34.1
775.417	34.18
775.595	33.65
775.774	34.34
775.953	34.56
776.131	35.24
776.31	34.8
776.489	34.55
776.667	34.16
776.846	34.6
777.025	34.68
777.203	34.48
777.382	33.7
777.56	33.75
777.739	33.17
777.917	33.05
778.096	32.34
778.274	32.93
778.453	33.43
778.631	33.68
778.81	32.6
778.988	33.1
779.166	33.7
779.345	34.88
779.523	35.08
779.702	34.96
779.88	35.38
780.058	36.15
780.237	35.88
780.415	35.75
780.593	36.12
780.771	36.31
780.95	36.42
781.128	36.42
781.306	36.7
781.484	37.05
781.662	36.93
781.841	37.52
782.019	36.18
782.197	36.93
782.375	36.61
782.553	36.69
782.731	37.59
782.909	38.15
783.087	37.83
783.265	36.26
783.443	36.11
783.621	35.96
783.799	35.2
783.977	36.29
784.155	34.64
784.333	35.45
784.511	35.24
784.689	34.8
784.867	33.26
785.045	32.92
785.223	33.29
785.4	33.19
785.578	32.93
785.756	33.14
785.934	32.54
786.112	33.67
786.289	33.12
786.467	32.77
786.645	33.1
786.823	34.08
787	33.66
787.178	33.94
787.356	34.06
787.533	34.14
787.711	35.05
787.889	35.66
788.066	35.27
788.244	34.83
788.421	34.31
788.599	34.55
788.776	34.09
788.954	34.91
789.131	34.31
789.309	33.8
789.486	33.97
789.664	33.4
789.841	33.59
790.019	34.58
790.196	34.31
790.373	34.71
790.551	35.36
790.728	35.44
790.906	36.19
791.083	36.75
791.26	37.41
791.437	37.83
791.615	37.78
791.792	37.43
791.969	36.79
792.146	37.77
792.324	37.92
792.501	36.28
792.678	36.38
792.855	35.93
793.032	36.07
793.209	36.41
793.387	35.24
793.564	34.79
793.741	35.26
793.918	35.84
794.095	35.56
794.272	35.76
794.449	36.32
794.626	36.02
794.803	35.14
794.98	35.37
795.157	34.69
795.334	35.23
795.511	35.51
795.688	34.96
795.864	34.16
796.041	33.49
796.218	33.28
796.395	33.46
796.572	33.71
796.749	33.82
796.925	34.17
797.102	33.83
797.279	34.6
797.456	34.23
797.632	34.28
797.809	34.52
797.986	35.63
798.162	34.63
798.339	34.7
798.516	34.93
798.692	36.08
798.869	36.73
799.046	37.38
799.222	37.04
799.399	37.12
799.575	37.08
799.752	36.78
799.928	36.06
800.105	37.24
800.281	37.63
800.458	37.54
800.634	36.4
800.811	35.27
800.987	34.97
801.163	35.31
801.34	35.85
801.516	36.38
801.692	36.59
801.869	37.02
802.045	36.86
802.221	37.34
802.398	37.71
802.574	38.89
802.75	39.64
802.926	39.25
803.103	39.5
803.279	39.42
803.455	39.23
803.631	40.23
803.807	38.78
803.983	38.96
804.16	38.76
804.336	38.06
804.512	37.81
804.688	36.81
804.864	37
805.04	36.97
805.216	36.17
805.392	36.81
805.568	36.36
805.744	37.89
805.92	38.62
806.096	37.72
806.272	37.24
806.448	37.51
806.623	39.36
806.799	39.28
806.975	39.34
807.151	40.27
807.327	38.53
807.503	38
807.678	38.02
807.854	38.6
808.03	39.35
808.206	39.45
808.381	37.9
808.557	36.69
808.733	37.58
808.908	36.5
809.084	36.03
809.26	37.38
809.435	37.97
809.611	38.15
809.787	37.14
809.962	34.99
810.138	36.08
810.313	37.57
810.489	37.06
810.664	35.78
810.84	35.75
811.015	36.95
811.191	37.02
811.366	37.43
811.542	38.43
811.717	38.42
811.892	40.09
812.068	38.5
812.243	38.89
812.419	38.71
812.594	39.97
812.769	40.4
812.944	40.01
813.12	39.13
813.295	38.46
813.47	37.59
813.645	37.99
813.821	38.63
813.996	39.83
814.171	39.5
814.346	40.08
814.521	38.68
814.697	39.3
814.872	38.39
815.047	38.13
815.222	39.04
815.397	38.34
815.572	39.28
815.747	38.84
815.922	39.26
816.097	38.4
816.272	38.99
816.447	39.51
816.622	40.12
816.797	40.14
816.972	40.32
817.147	38.39
817.322	40.25
817.496	38.24
817.671	39.15
817.846	38.5
818.021	37.77
818.196	36.58
818.371	36.64
818.545	36.04
818.72	36.23
818.895	36.81
819.069	37.9
819.244	37.87
819.419	38.85
819.594	36.69
819.768	36.15
819.943	36.23
820.117	36.15
820.292	35.03
820.467	33.68
820.641	33.01
820.816	31.64
820.99	30.45
821.165	29.07
821.339	28.25
821.514	28.14
821.688	27.62
821.863	27.13
822.037	26.87
822.212	26.8
822.386	26.63
822.56	26.46
822.735	26.48
822.909	26.61
823.084	26.63
823.258	26.53
823.432	26.58
823.606	26.64
823.781	26.78
823.955	26.66
824.129	26.9
824.303	27.24
824.478	27.37
824.652	27.65
824.826	27.98
825	28.11
825.174	28.48
825.348	28.35
825.523	29.02
825.697	29.21
825.871	29.47
826.045	29.18
826.219	28.77
826.393	28.99
826.567	28.59
826.741	28.14
826.915	28.11
827.089	28.13
827.263	28.47
827.437	28.61
827.611	28.49
827.784	28.75
827.958	29.46
828.132	30.08
828.306	30.54
828.48	31.25
828.654	31.52
828.827	31.9
829.001	31.95
829.175	32.08
829.349	31.84
829.522	32.94
829.696	33.78
829.87	33.59
830.044	33.91
830.217	34.36
830.391	34.2
830.565	35.34
830.738	36.71
830.912	37.68
831.085	38.06
831.259	39.72
831.432	39.12
831.606	38.32
831.779	38.08
831.953	37.06
832.126	36.35
832.3	36.33
832.473	34.83
832.647	34.06
832.82	33.61
832.994	34.54
833.167	33.76
833.34	33.62
833.514	33.06
833.687	33.36
833.86	33.82
834.034	33.36
834.207	33.09
834.38	33
834.553	33.42
834.727	34
834.9	33.28
835.073	33.43
835.246	33.62
835.419	34.15
835.593	34.14
835.766	34.08
835.939	34.58
836.112	34.69
836.285	35.61
836.458	35.89
836.631	35.83
836.804	36.44
836.977	37.07
837.15	38.13
837.323	39.23
837.496	39.73
837.669	41.21
837.842	42.09
838.015	42.44
838.188	42.46
838.361	43.3
838.533	44.28
838.706	44.82
838.879	45.18
839.052	46.22
839.225	45.93
839.398	45.74
839.57	44.89
839.743	44.92
839.916	47.53
840.088	47.92
840.261	46.9
840.434	45.62
840.607	44.96
840.779	44.14
840.952	43.11
841.124	44.5
841.297	44.36
841.47	45.68
841.642	45.79
841.815	43.85
841.987	44.23
842.16	45.4
842.332	45.91
842.505	45.72
842.677	47.48
842.85	48.71
843.022	47.82
843.194	49.9
843.367	48.68
843.539	49.96
843.712	50.86
843.884	51.29
844.056	50.58
844.229	52.77
844.401	54.84
844.573	53.45
844.745	53.46
844.918	55.24
845.09	54.14
845.262	56.08
845.434	56.39
845.606	59.35
845.779	60.26
845.951	60.22
846.123	58.56
846.295	56.18
846.467	58.32
846.639	58.85
846.811	58.17
846.983	60.38
847.155	59.7
847.327	56.13
847.499	55.11
847.671	55.36
847.843	58.38
848.015	60.54
848.187	64.41
848.359	64.38
848.531	60.02
848.703	59.49
848.875	60.03
849.047	59.08
849.218	61.57
849.39	61.3
849.562	63.02
849.734	62.59
849.905	62.22
850.077	64.13
850.249	62.18
850.421	66.49
850.592	69.14
850.764	68.39
850.936	68.9
851.107	69.28
851.279	70.46
851.451	68.82
851.622	66.65
851.794	64.15
851.965	60.59
852.137	61.45
852.308	61.81
852.48	60.52
852.651	60.98
852.823	64.36
852.994	65.24
853.166	64.79
853.337	67.16
853.509	66.94
853.68	68.47
853.851	73.49
854.023	74.39
854.194	74.36
854.365	77.13
854.537	79.3
854.708	78.42
854.879	80.42
855.05	80.87
855.222	79.16
855.393	80.92
855.564	81.66
855.735	77.89
855.906	80.62
856.078	79.08
856.249	79.76
856.42	78.36
856.591	75.11
856.762	72.64
856.933	74.99
857.104	76.29
857.275	74.94
857.446	74.52
857.617	72.03
857.788	70.16
857.959	71.35
858.13	69.15
858.301	66.62
858.472	69.63
858.643	71.58
858.814	68.01
858.985	69
859.155	74.71
859.326	72.88
859.497	75.01
859.668	76.69
859.839	77.87
860.009	75.58
860.18	77.17
860.351	73.03
860.522	73.42
860.692	75.77
860.863	71.21
861.034	66.75
861.204	70.52
861.375	70.68
861.546	64.75
861.716	65.94
861.887	70.62
862.057	72.16
862.228	77.76
862.398	79.09
862.569	73.93
862.739	76.58
862.91	76.14
863.08	77.22
863.251	76.03
863.421	80.77
863.592	81.66
863.762	81.5
863.932	80.93
864.103	77.86
864.273	75.65
864.443	78.97
864.614	77.8
864.784	75.44
864.954	70.21
865.125	71.1
865.295	68.82
865.465	69.62
865.635	65.75
865.805	67.54
865.976	69.89
866.146	69.88
866.316	71.21
866.486	74.5
866.656	77.89
866.826	79.77
866.996	83.16
867.166	85.13
867.336	84.36
867.506	87.67
867.676	85.51
867.846	85.28
868.016	84.89
868.186	84.17
868.356	81.39
868.526	84.32
868.696	85.52
868.866	90.94
869.036	90.95
869.206	90.01
869.376	88.62
869.545	87.35
869.715	83.49
869.885	83.35
870.055	80.83
870.224	78.99
870.394	75.47
870.564	74.7
870.734	68.23
870.903	65.66
871.073	65.81
871.243	64.74
871.412	67.75
871.582	70.93
871.751	69.91
871.921	73.17
872.091	78.92
872.26	82.12
872.43	83.06
872.599	81.88
872.769	82.92
872.938	81.09
873.108	82.55
873.277	81.53
873.446	79.81
873.616	82.36
873.785	82.14
873.955	74.24
874.124	69.57
874.293	67.68
874.463	65.91
874.632	67.62
874.801	69.17
874.971	72.48
875.14	69.01
875.309	70.69
875.478	66.47
875.647	62.5
875.817	68.31
875.986	71.96
876.155	73.47
876.324	76.66
876.493	73.44
876.662	70.31
876.831	65.09
877	67.57
877.17	63.4
877.339	60.25
877.508	65.45
877.677	66.02
877.846	66.67
878.015	65.82
878.184	66.77
878.352	67.42
878.521	67.02
878.69	63.77
878.859	61.47
879.028	61.72
879.197	64.84
879.366	59.69
879.534	56.4
879.703	51.51
879.872	51.01
880.041	48.36
880.21	47.17
880.378	45.98
880.547	45.05
880.716	42.3
880.884	39.41
881.053	36.79
881.222	35.52
881.39	33.86
881.559	33.16
881.727	31.27
881.896	30.2
882.065	28.81
882.233	28.74
882.402	28.88
882.57	29.22
882.739	28.9
882.907	29.15
883.076	29.32
883.244	29.45
883.412	29.91
883.581	30.48
883.749	31.55
883.918	32.11
884.086	31.46
884.254	32
884.423	32.98
884.591	34.83
884.759	35.9
884.927	36.98
885.096	39.01
885.264	40.61
885.432	42.98
885.6	43.52
885.769	46.51
885.937	51.04
886.105	53.52
886.273	53.15
886.441	55.24
886.609	56.12
886.777	57.67
886.945	57.69
887.113	59.36
887.281	60.27
887.449	61.22
887.617	62.93
887.785	62.1
887.953	62.59
888.121	65.02
888.289	63.49
888.457	65.26
888.625	66
888.793	68.88
888.961	66.37
889.129	67.6
889.296	68.54
889.464	67.65
889.632	68.45
889.8	67.5
889.967	67.88
890.135	70.56
