Data from 2938760__Reflection_02.txt Node
Date: Fri Mar 13 17:47:46 EDT 2015
User: robert
Spectrometer: USB4E03002
Autoset integration time: false
Trigger mode: 4
Integration Time (sec): 1.000000E-1
Scans to average: 10
Electric dark correction enabled: false
Nonlinearity correction enabled: false
Boxcar width: 5
Stray light correction enabled: false
XAxis mode: Wavelengths
Stop averaging: false
Number of Pixels in Spectrum: 3648
>>>>>Begin Spectral Data<<<<<
177.575	-1643.75
177.794	-7246.15
178.014	-1185.9
178.233	-636.36
178.452	-504.13
178.672	-411.87
178.891	-224.16
179.11	-153.85
179.33	-205.74
179.549	-430.67
179.768	-372.79
179.987	-412.6
180.207	-300
180.426	-336.66
180.645	-1234.44
180.864	-5038.1
181.084	1237.08
181.303	1322.99
181.522	470.35
181.741	650
181.96	837.23
182.179	383.63
182.398	305.79
182.618	264.96
182.837	207.11
183.056	248.47
183.275	256.17
183.494	216.18
183.713	175.82
183.932	149.04
184.151	142.96
184.37	124.03
184.589	94.94
184.808	113.01
185.027	116.35
185.246	92.22
185.465	78.4
185.684	101.8
185.903	133.94
186.122	169.34
186.341	327.06
186.56	1606.38
186.779	759.46
186.998	-324.21
187.216	-1209.09
187.435	616.67
187.654	-5566.67
187.873	-552.67
188.092	15250
188.311	857.84
188.53	277.67
188.748	249.67
188.967	224.29
189.186	231.74
189.405	213.65
189.623	226.02
189.842	334.87
190.061	526.8
190.28	352.04
190.498	398.41
190.717	288.02
190.936	472.43
191.154	377.29
191.373	326.55
191.592	257.2
191.81	263.03
192.029	378
192.248	528.21
192.466	191.27
192.685	176.73
192.904	213.86
193.122	247.72
193.341	280.84
193.559	612.37
193.778	1034.29
193.996	3014.81
194.215	-1785.37
194.433	2610.34
194.652	-1012.68
194.87	-371.74
195.089	-3831.58
195.307	1523.21
195.526	-4194.12
195.744	831.68
195.963	411.48
196.181	251.89
196.399	273.7
196.618	283.19
196.836	296.72
197.055	253.2
197.273	243.65
197.491	287.07
197.71	195.13
197.928	176.95
198.146	182.74
198.365	160.73
198.583	168.23
198.801	134.23
199.019	129.85
199.238	131.22
199.456	122.46
199.674	120.86
199.892	117.55
200.111	145.32
200.329	154.17
200.547	179.74
200.765	256.76
200.983	307.32
201.202	297.41
201.42	294.18
201.638	244.03
201.856	347.8
202.074	244.6
202.292	284.81
202.51	227.31
202.728	231.52
202.946	199.48
203.165	193.57
203.383	207.47
203.601	241.42
203.819	291.25
204.037	352.01
204.255	334.12
204.473	435.56
204.691	319.58
204.909	253.71
205.127	248.79
205.345	262.33
205.562	282.18
205.78	239.81
205.998	262.47
206.216	356.4
206.434	229.26
206.652	207.69
206.87	348.67
207.088	300
207.306	1217.46
207.523	676.52
207.741	592.42
207.959	494.76
208.177	666.12
208.395	280.29
208.612	157.84
208.83	206.26
209.048	255.02
209.266	217.4
209.483	253.3
209.701	228.91
209.919	249.83
210.136	229.01
210.354	236.45
210.572	208.08
210.79	185.14
211.007	204.32
211.225	186.91
211.442	205.07
211.66	187.25
211.878	146.6
212.095	172.25
212.313	143.23
212.53	145.77
212.748	123.95
212.966	144.72
213.183	176.32
213.401	207.07
213.618	169.7
213.836	117.76
214.053	108.91
214.271	138.68
214.488	94.08
214.705	138.81
214.923	145.04
215.14	185.96
215.358	168.51
215.575	137.2
215.793	113.79
216.01	113.21
216.227	138.88
216.445	139.81
216.662	109.52
216.879	115.62
217.097	99.07
217.314	108.6
217.531	91.21
217.749	80.36
217.966	77.73
218.183	75.02
218.4	84.99
218.618	79.13
218.835	84.3
219.052	94.22
219.269	91.86
219.487	97.94
219.704	78.77
219.921	86.02
220.138	101.75
220.355	81.75
220.572	70.99
220.79	68.97
221.007	80.11
221.224	71.58
221.441	69.03
221.658	58.13
221.875	56.06
222.092	59.4
222.309	65.13
222.526	62.78
222.743	69.39
222.96	73.91
223.177	70.92
223.394	59.77
223.611	51.47
223.828	49.66
224.045	48.54
224.262	46.22
224.479	45.83
224.696	36.22
224.913	30.16
225.13	28.7
225.347	23.94
225.564	19.38
225.781	17.99
225.997	16.27
226.214	15.6
226.431	16.2
226.648	12.1
226.865	10.16
227.082	10.28
227.298	9.37
227.515	8.93
227.732	8.22
227.949	7.43
228.165	6.49
228.382	6.55
228.599	5.8
228.816	5.86
229.032	6.33
229.249	5.87
229.466	6.19
229.682	6.73
229.899	6.65
230.116	5.84
230.332	5.94
230.549	5.93
230.765	5.71
230.982	6.46
231.199	6.8
231.415	6.51
231.632	7.03
231.848	5.66
232.065	5.68
232.281	5.66
232.498	6.7
232.714	6.75
232.931	7.13
233.147	9.41
233.364	8.84
233.58	7.83
233.797	9.09
234.013	9.92
234.23	9.4
234.446	7.93
234.662	9.26
234.879	9.37
235.095	10.46
235.312	11.19
235.528	8.82
235.744	7.97
235.961	8.25
236.177	8.66
236.393	8.25
236.61	8.62
236.826	9.56
237.042	8.55
237.258	8.46
237.475	9.3
237.691	9.31
237.907	8.46
238.123	8.81
238.339	9.24
238.556	8.05
238.772	7.55
238.988	7.19
239.204	7.31
239.42	6.75
239.636	7.1
239.853	5.02
240.069	4.69
240.285	5.79
240.501	4.86
240.717	4.95
240.933	4.48
241.149	3.91
241.365	3.95
241.581	3.19
241.797	3.05
242.013	2.66
242.229	2.42
242.445	1.96
242.661	1.89
242.877	2.44
243.093	1.96
243.309	1.86
243.525	2.17
243.741	2.94
243.957	3.32
244.173	3.02
244.388	3.62
244.604	4.35
244.82	5.52
245.036	5.83
245.252	5.55
245.468	5.5
245.683	5.65
245.899	5.42
246.115	5.03
246.331	4.75
246.547	4.89
246.762	4.44
246.978	4.57
247.194	3.96
247.409	3.76
247.625	3.71
247.841	3.98
248.057	3.69
248.272	3.49
248.488	3.07
248.703	2.98
248.919	2.85
249.135	2.79
249.35	2.34
249.566	2.77
249.782	2.06
249.997	2.16
250.213	1.99
250.428	2.66
250.644	4.17
250.859	4.32
251.075	4.67
251.29	5.33
251.506	5.3
251.721	5.27
251.937	4.94
252.152	4.69
252.368	3.96
252.583	3.82
252.798	4.09
253.014	3.21
253.229	3.57
253.445	3.46
253.66	3.89
253.875	4.16
254.091	4.57
254.306	5.47
254.521	7.11
254.737	8.28
254.952	7.48
255.167	6.87
255.383	6.97
255.598	7.07
255.813	7.82
256.028	7.41
256.244	7.3
256.459	6.34
256.674	5.79
256.889	5.82
257.104	5.56
257.32	6.05
257.535	5.33
257.75	4.65
257.965	4.32
258.18	3.42
258.395	2.9
258.61	2.3
258.826	2.43
259.041	2.27
259.256	2.1
259.471	2.11
259.686	2.18
259.901	2.27
260.116	2.41
260.331	2.29
260.546	2.17
260.761	2.23
260.976	2.46
261.191	2.62
261.406	3.06
261.621	3.32
261.836	3.57
262.05	3.52
262.265	3.68
262.48	3.7
262.695	4.34
262.91	5.71
263.125	5.84
263.34	6.5
263.555	6.14
263.769	5.66
263.984	5.36
264.199	4.1
264.414	3.79
264.629	3.68
264.843	3.92
265.058	3.92
265.273	3.33
265.488	3.32
265.702	3.22
265.917	3.68
266.132	4.2
266.346	4.12
266.561	4.78
266.776	5.45
266.99	5.59
267.205	5.1
267.42	4.48
267.634	4.46
267.849	4.38
268.063	4.27
268.278	4.38
268.492	3.79
268.707	3.71
268.922	3.81
269.136	3.51
269.351	3.53
269.565	3.85
269.78	4.09
269.994	3.99
270.209	4.06
270.423	4.03
270.637	3.79
270.852	3.82
271.066	3.44
271.281	3.61
271.495	3.45
271.709	3.11
271.924	2.77
272.138	2.78
272.353	2.38
272.567	2.21
272.781	2.11
272.996	1.87
273.21	2.31
273.424	2.49
273.638	2.29
273.853	2.2
274.067	2.62
274.281	3.13
274.495	3
274.71	3.27
274.924	3.1
275.138	3.11
275.352	3.05
275.566	2.33
275.781	2.66
275.995	2.01
276.209	2.41
276.423	2.42
276.637	1.83
276.851	1.84
277.065	1.7
277.279	1.72
277.493	1.58
277.707	1.96
277.921	1.92
278.135	1.73
278.349	1.95
278.563	2.36
278.777	2.37
278.991	2.9
279.205	3.03
279.419	2.97
279.633	3.57
279.847	3.64
280.061	3.48
280.275	3.68
280.489	3.55
280.703	4.15
280.917	3.39
281.131	2.97
281.344	2.65
281.558	2.39
281.772	2.45
281.986	2.09
282.2	2.11
282.414	1.98
282.627	2.35
282.841	2.36
283.055	2.22
283.269	2.1
283.482	1.95
283.696	2.17
283.91	2.45
284.123	2.21
284.337	2.17
284.551	1.91
284.764	2.15
284.978	1.79
285.192	1.81
285.405	1.86
285.619	1.98
285.833	2.26
286.046	2.17
286.26	1.96
286.473	2.15
286.687	2.21
286.9	2.49
287.114	2.44
287.327	2.36
287.541	2.11
287.754	1.96
287.968	2.03
288.181	1.79
288.395	1.47
288.608	1.83
288.822	1.86
289.035	1.81
289.248	1.61
289.462	1.62
289.675	1.61
289.889	2
290.102	1.49
290.315	1.38
290.529	1.53
290.742	1.98
290.955	1.61
291.169	1.77
291.382	1.48
291.595	1.4
291.808	1.08
292.022	0.89
292.235	0.7
292.448	1.47
292.661	1.42
292.875	1.35
293.088	1.35
293.301	1.58
293.514	1.44
293.727	1.66
293.94	1.78
294.153	2.08
294.367	2.24
294.58	2.29
294.793	1.99
295.006	2.18
295.219	2.18
295.432	1.9
295.645	1.78
295.858	1.96
296.071	1.79
296.284	1.91
296.497	1.9
296.71	1.97
296.923	2.19
297.136	2.46
297.349	2.63
297.562	2.69
297.775	2.57
297.988	2.68
298.201	2.57
298.414	2.86
298.626	2.92
298.839	2.95
299.052	2.87
299.265	2.65
299.478	2.3
299.691	2.18
299.903	2.31
300.116	2.46
300.329	2.6
300.542	2.57
300.755	2.36
300.967	2.26
301.18	2.29
301.393	2.63
301.605	2.48
301.818	2.44
302.031	2.22
302.243	2.18
302.456	2.29
302.669	2.07
302.881	2.15
303.094	2.39
303.307	2.27
303.519	2.19
303.732	2.25
303.944	2.56
304.157	2.74
304.37	2.88
304.582	2.62
304.795	2.87
305.007	3.14
305.22	3.39
305.432	3.32
305.645	3.87
305.857	4.3
306.069	3.93
306.282	3.63
306.494	3.63
306.707	3.73
306.919	3.89
307.132	3.61
307.344	3.28
307.556	2.98
307.769	3.19
307.981	2.84
308.193	2.54
308.406	2.5
308.618	2.86
308.83	2.71
309.043	2.59
309.255	2.5
309.467	2.47
309.679	2.35
309.892	2.6
310.104	2.27
310.316	2.28
310.528	2.22
310.74	2.13
310.953	2.06
311.165	2.17
311.377	2.04
311.589	2.23
311.801	2.28
312.013	2.55
312.225	2.57
312.437	2.86
312.649	3.01
312.862	3.02
313.074	3.14
313.286	3.2
313.498	3.07
313.71	3.09
313.922	3.25
314.134	3.28
314.346	3.36
314.558	3.1
314.77	3.41
314.982	3.06
315.193	3.27
315.405	3.22
315.617	3.24
315.829	3.56
316.041	3.9
316.253	3.52
316.465	3.6
316.677	3.62
316.888	3.89
317.1	3.86
317.312	4.18
317.524	4.26
317.736	4.4
317.947	4.49
318.159	4.86
318.371	5.06
318.583	5.38
318.794	5.42
319.006	5.75
319.218	5.6
319.43	5.51
319.641	5.83
319.853	6.02
320.064	6.57
320.276	6.94
320.488	6.27
320.699	6.38
320.911	6.68
321.123	6.45
321.334	6.38
321.546	6.64
321.757	7.34
321.969	7.5
322.18	7.54
322.392	7.19
322.603	6.73
322.815	7.54
323.026	7.2
323.238	6.89
323.449	7.72
323.661	7.68
323.872	7.86
324.083	7.63
324.295	7.8
324.506	7.99
324.718	8.14
324.929	8.63
325.14	8.5
325.352	8.96
325.563	9.53
325.774	9.94
325.986	10.26
326.197	10.56
326.408	10.51
326.62	10.5
326.831	10.52
327.042	11.12
327.253	11.26
327.464	11.48
327.676	11.78
327.887	11.84
328.098	12
328.309	12.44
328.52	12.37
328.732	12.84
328.943	13.21
329.154	13.59
329.365	14.17
329.576	14.82
329.787	15.36
329.998	15.75
330.209	16.36
330.42	16.88
330.631	17.19
330.842	17.51
331.053	18.16
331.264	18.62
331.475	19.13
331.686	19.42
331.897	19.72
332.108	20.08
332.319	20.54
332.53	20.77
332.741	20.98
332.952	21.37
333.163	21.59
333.374	21.67
333.585	22.12
333.795	22.57
334.006	22.61
334.217	23.01
334.428	23.08
334.639	23.07
334.849	23.12
335.06	23
335.271	22.92
335.482	23.73
335.692	23.96
335.903	24.15
336.114	24.39
336.325	24.65
336.535	24.51
336.746	24.71
336.957	24.81
337.167	25.17
337.378	25.41
337.589	25.52
337.799	25.36
338.01	25.23
338.22	25.06
338.431	24.75
338.642	24.91
338.852	24.93
339.063	24.99
339.273	25.31
339.484	25.33
339.694	25.44
339.905	25.85
340.115	25.87
340.326	26.08
340.536	26.2
340.746	26.31
340.957	26.12
341.167	26.38
341.378	26.61
341.588	26.48
341.799	26.44
342.009	26.26
342.219	25.89
342.43	25.92
342.64	26.1
342.85	25.94
343.061	26.16
343.271	26.17
343.481	25.78
343.691	25.79
343.902	25.65
344.112	25.76
344.322	25.89
344.532	25.98
344.743	25.88
344.953	25.59
345.163	25.38
345.373	25.28
345.583	25.49
345.793	25.7
346.004	25.56
346.214	25.68
346.424	25.69
346.634	25.73
346.844	25.6
347.054	25.68
347.264	25.8
347.474	26.15
347.684	26.07
347.894	25.76
348.104	25.87
348.314	25.87
348.524	25.36
348.734	25.13
348.944	25.03
349.154	25.08
349.364	24.88
349.574	24.94
349.784	24.94
349.994	24.51
350.204	24.5
350.413	24.36
350.623	24.29
350.833	24.83
351.043	25.14
351.253	24.95
351.463	24.78
351.672	24.86
351.882	24.74
352.092	24.77
352.302	25.34
352.511	25.41
352.721	25.52
352.931	25.42
353.141	25.23
353.35	24.85
353.56	24.98
353.77	25.06
353.979	25.15
354.189	25.38
354.399	25.33
354.608	25.21
354.818	25.04
355.027	25
355.237	24.8
355.447	24.68
355.656	24.79
355.866	24.63
356.075	24.59
356.285	24.45
356.494	24.21
356.704	23.99
356.913	23.56
357.123	23.51
357.332	23.2
357.542	23.24
357.751	23.57
357.96	23.5
358.17	23.54
358.379	23.69
358.589	23.68
358.798	23.64
359.007	23.75
359.217	23.98
359.426	23.84
359.635	23.92
359.845	24.14
360.054	23.73
360.263	23.62
360.472	23.51
360.682	23.44
360.891	23.16
361.1	23.26
361.309	23.23
361.519	23.26
361.728	23.15
361.937	23.18
362.146	23.02
362.355	23.1
362.564	23.04
362.774	22.97
362.983	22.9
363.192	23.12
363.401	22.99
363.61	22.86
363.819	22.91
364.028	22.89
364.237	22.86
364.446	22.89
364.655	22.84
364.864	22.8
365.073	22.89
365.282	23.04
365.491	23.11
365.7	23.03
365.909	23.31
366.118	23.11
366.327	23.32
366.536	23.33
366.745	23.29
366.954	23.33
367.162	23.69
367.371	23.55
367.58	23.48
367.789	23.36
367.998	23.42
368.207	23.22
368.415	23.13
368.624	23.19
368.833	23.01
369.042	23.03
369.25	23.39
369.459	23.2
369.668	23.13
369.877	23.03
370.085	23.04
370.294	22.93
370.503	22.92
370.711	22.99
370.92	22.9
371.129	23.13
371.337	23.19
371.546	22.75
371.754	22.55
371.963	22.69
372.171	22.72
372.38	22.62
372.589	22.72
372.797	22.78
373.006	22.82
373.214	22.86
373.423	23
373.631	22.91
373.84	23.05
374.048	23.28
374.256	23.22
374.465	23.06
374.673	23.09
374.882	23.06
375.09	22.95
375.298	22.72
375.507	22.84
375.715	22.66
375.923	22.61
376.132	22.61
376.34	22.39
376.548	22.34
376.757	22.42
376.965	22.43
377.173	22.3
377.381	22.28
377.59	22.44
377.798	22.53
378.006	22.35
378.214	22.4
378.423	22.25
378.631	22.38
378.839	22.53
379.047	22.5
379.255	22.63
379.463	22.74
379.671	22.75
379.879	22.7
380.088	22.52
380.296	22.65
380.504	22.63
380.712	22.84
380.92	22.8
381.128	22.78
381.336	22.54
381.544	22.41
381.752	22.36
381.96	22.31
382.168	22.42
382.376	22.3
382.584	22.31
382.791	22.25
382.999	22.03
383.207	22.2
383.415	22.19
383.623	22.39
383.831	22.15
384.039	22.24
384.247	22.28
384.454	22.43
384.662	22.48
384.87	22.38
385.078	22.29
385.285	22.16
385.493	22.02
385.701	21.91
385.909	21.73
386.116	21.97
386.324	21.81
386.532	21.79
386.739	21.63
386.947	21.57
387.155	21.35
387.362	21.56
387.57	21.7
387.778	21.68
387.985	21.83
388.193	22.09
388.4	21.91
388.608	21.99
388.816	21.93
389.023	22.06
389.231	22.14
389.438	22.3
389.646	22.1
389.853	22.03
390.061	22.02
390.268	21.89
390.475	21.86
390.683	22.15
390.89	21.96
391.098	22.08
391.305	21.89
391.512	21.88
391.72	21.96
391.927	21.96
392.135	21.84
392.342	21.8
392.549	21.84
392.756	21.7
392.964	21.49
393.171	21.61
393.378	21.36
393.586	21.32
393.793	21.21
394	21.2
394.207	21.24
394.414	21.37
394.622	21.41
394.829	21.4
395.036	21.45
395.243	21.43
395.45	21.46
395.657	21.65
395.864	21.8
396.072	21.88
396.279	21.82
396.486	21.83
396.693	21.93
396.9	21.99
397.107	22.23
397.314	22.48
397.521	22.46
397.728	22.65
397.935	22.65
398.142	22.69
398.349	22.72
398.556	22.54
398.763	22.78
398.97	22.81
399.177	23.08
399.383	22.85
399.59	22.79
399.797	22.88
400.004	22.73
400.211	22.75
400.418	22.77
400.625	22.83
400.831	23.16
401.038	22.84
401.245	22.81
401.452	22.47
401.658	22.48
401.865	22.47
402.072	22.63
402.279	22.79
402.485	22.76
402.692	22.72
402.899	22.7
403.105	22.7
403.312	22.91
403.519	22.93
403.725	23.04
403.932	23.15
404.138	23.15
404.345	23.04
404.552	22.94
404.758	23.06
404.965	22.96
405.171	22.93
405.378	22.85
405.584	22.94
405.791	23
405.997	22.96
406.204	22.88
406.41	22.71
406.617	22.78
406.823	22.71
407.029	22.77
407.236	22.87
407.442	22.98
407.649	23.08
407.855	22.98
408.061	22.85
408.268	23
408.474	23.04
408.68	23.29
408.887	23.4
409.093	23.57
409.299	23.57
409.505	23.6
409.712	23.56
409.918	23.49
410.124	23.43
410.33	23.39
410.537	23.11
410.743	23.35
410.949	23.24
411.155	22.98
411.361	22.97
411.567	22.8
411.773	22.89
411.98	22.76
412.186	22.85
412.392	23.03
412.598	23.12
412.804	23.49
413.01	23.36
413.216	23.45
413.422	23.62
413.628	23.68
413.834	23.86
414.04	23.73
414.246	23.9
414.452	23.93
414.658	23.59
414.864	23.54
415.07	23.43
415.275	23.41
415.481	23.28
415.687	23.23
415.893	23.11
416.099	22.97
416.305	22.85
416.511	22.91
416.716	22.75
416.922	22.76
417.128	22.87
417.334	22.74
417.539	22.71
417.745	22.78
417.951	22.63
418.157	22.52
418.362	22.49
418.568	22.53
418.774	22.44
418.979	22.41
419.185	22.43
419.391	22.29
419.596	22.29
419.802	22.23
420.008	22.19
420.213	22.17
420.419	22.2
420.624	22.14
420.83	22.06
421.035	22.04
421.241	22.02
421.446	21.99
421.652	22.02
421.857	21.99
422.063	22
422.268	21.98
422.474	22.08
422.679	22.09
422.885	22
423.09	22.08
423.295	22.04
423.501	22.04
423.706	22.12
423.911	22.05
424.117	22.05
424.322	22
424.527	22
424.733	21.91
424.938	21.9
425.143	22.03
425.349	22.09
425.554	22.2
425.759	22.27
425.964	22.27
426.169	22.42
426.375	22.47
426.58	22.53
426.785	22.57
426.99	22.71
427.195	22.8
427.4	22.89
427.605	22.79
427.811	22.77
428.016	22.92
428.221	22.88
428.426	22.89
428.631	22.91
428.836	22.92
429.041	22.96
429.246	23.05
429.451	22.96
429.656	22.96
429.861	23.05
430.066	23.06
430.271	22.9
430.476	22.84
430.681	22.88
430.886	22.89
431.09	22.96
431.295	23.02
431.5	22.98
431.705	23.11
431.91	23.16
432.115	23.11
432.32	23.11
432.524	23.16
432.729	23.24
432.934	23.27
433.139	23.43
433.343	23.41
433.548	23.37
433.753	23.39
433.958	23.55
434.162	23.68
434.367	23.89
434.572	24.01
434.776	24.12
434.981	24.26
435.186	24.28
435.39	24.31
435.595	24.47
435.799	24.48
436.004	24.51
436.209	24.35
436.413	24.21
436.618	24.17
436.822	24.06
437.027	24.17
437.231	24.1
437.436	24.09
437.64	23.95
437.845	23.73
438.049	23.78
438.253	23.78
438.458	23.64
438.662	23.54
438.867	23.42
439.071	23.42
439.275	23.32
439.48	23.33
439.684	23.37
439.888	23.33
440.093	23.43
440.297	23.42
440.501	23.47
440.706	23.5
440.91	23.63
441.114	23.71
441.318	23.71
441.523	23.66
441.727	23.7
441.931	23.65
442.135	23.8
442.339	23.78
442.543	23.78
442.748	23.74
442.952	23.86
443.156	23.84
443.36	23.83
443.564	23.88
443.768	23.97
443.972	23.98
444.176	24.05
444.38	23.93
444.584	23.92
444.788	23.86
444.992	23.84
445.196	23.82
445.4	23.74
445.604	23.64
445.808	23.66
446.012	23.58
446.216	23.52
446.42	23.42
446.624	23.48
446.828	23.48
447.032	23.57
447.235	23.54
447.439	23.53
447.643	23.63
447.847	23.72
448.051	23.76
448.254	23.86
448.458	23.92
448.662	24.01
448.866	24.06
449.069	24.19
449.273	24.21
449.477	24.33
449.681	24.4
449.884	24.44
450.088	24.45
450.292	24.4
450.495	24.27
450.699	24.3
450.902	24.3
451.106	24.3
451.31	24.21
451.513	24.26
451.717	24.29
451.92	24.32
452.124	24.21
452.327	24.22
452.531	24.27
452.734	24.38
452.938	24.36
453.141	24.44
453.345	24.4
453.548	24.41
453.752	24.38
453.955	24.41
454.158	24.42
454.362	24.5
454.565	24.49
454.769	24.48
454.972	24.52
455.175	24.62
455.379	24.58
455.582	24.58
455.785	24.6
455.988	24.64
456.192	24.54
456.395	24.42
456.598	24.35
456.801	24.38
457.005	24.41
457.208	24.37
457.411	24.26
457.614	24.17
457.817	24.16
458.021	24.11
458.224	23.93
458.427	23.87
458.63	23.88
458.833	23.92
459.036	23.87
459.239	23.88
459.442	23.79
459.645	23.83
459.848	23.83
460.051	23.75
460.254	23.71
460.457	23.77
460.66	23.77
460.863	23.72
461.066	23.68
461.269	23.74
461.472	23.71
461.675	23.8
461.878	23.77
462.081	23.79
462.284	23.86
462.486	23.97
462.689	24.05
462.892	24.12
463.095	24.33
463.298	24.35
463.5	24.38
463.703	24.45
463.906	24.43
464.109	24.41
464.311	24.48
464.514	24.58
464.717	24.64
464.92	24.57
465.122	24.68
465.325	24.64
465.528	24.75
465.73	24.75
465.933	24.65
466.135	24.63
466.338	24.6
466.541	24.56
466.743	24.56
466.946	24.55
467.148	24.61
467.351	24.59
467.553	24.46
467.756	24.41
467.958	24.38
468.161	24.35
468.363	24.42
468.566	24.48
468.768	24.54
468.971	24.57
469.173	24.55
469.375	24.53
469.578	24.6
469.78	24.75
469.983	24.74
470.185	24.81
470.387	24.99
470.59	24.95
470.792	25.04
470.994	25.15
471.196	25.07
471.399	25.1
471.601	25.1
471.803	25
472.005	25.07
472.208	25.12
472.41	25.11
472.612	25.08
472.814	25.12
473.016	25.02
473.218	24.85
473.421	24.83
473.623	24.84
473.825	24.83
474.027	24.9
474.229	24.92
474.431	24.95
474.633	25
474.835	24.94
475.037	25.02
475.239	25.09
475.441	25.16
475.643	25.27
475.845	25.24
476.047	25.27
476.249	25.31
476.451	25.27
476.653	25.22
476.855	25.19
477.057	25.29
477.258	25.29
477.46	25.31
477.662	25.35
477.864	25.3
478.066	25.26
478.268	25.29
478.469	25.27
478.671	25.24
478.873	25.27
479.075	25.2
479.276	25.09
479.478	25.05
479.68	25.01
479.882	25.01
480.083	24.94
480.285	24.92
480.487	24.84
480.688	24.73
480.89	24.66
481.091	24.58
481.293	24.54
481.495	24.5
481.696	24.33
481.898	24.18
482.099	23.98
482.301	23.88
482.502	23.73
482.704	23.63
482.905	23.55
483.107	23.41
483.308	23.34
483.51	23.26
483.711	23.15
483.913	23.09
484.114	23.03
484.315	22.95
484.517	22.89
484.718	22.85
484.92	22.82
485.121	22.79
485.322	22.82
485.524	22.82
485.725	22.84
485.926	22.89
486.127	22.94
486.329	22.98
486.53	23.06
486.731	23.13
486.932	23.19
487.134	23.21
487.335	23.24
487.536	23.26
487.737	23.24
487.938	23.27
488.139	23.31
488.341	23.33
488.542	23.37
488.743	23.44
488.944	23.49
489.145	23.57
489.346	23.64
489.547	23.69
489.748	23.76
489.949	23.84
490.15	23.81
490.351	23.79
490.552	23.82
490.753	23.8
490.954	23.78
491.155	23.76
491.356	23.71
491.557	23.66
491.758	23.64
491.959	23.61
492.159	23.61
492.36	23.69
492.561	23.74
492.762	23.75
492.963	23.83
493.164	23.9
493.364	23.98
493.565	24.08
493.766	24.26
493.967	24.42
494.167	24.61
494.368	24.8
494.569	24.95
494.769	25.04
494.97	25.19
495.171	25.25
495.371	25.33
495.572	25.32
495.773	25.41
495.973	25.44
496.174	25.4
496.375	25.36
496.575	25.31
496.776	25.2
496.976	25.23
497.177	25.22
497.377	25.29
497.578	25.25
497.778	25.29
497.979	25.22
498.179	25.23
498.38	25.31
498.58	25.4
498.78	25.44
498.981	25.5
499.181	25.54
499.382	25.57
499.582	25.61
499.782	25.75
499.983	25.85
500.183	25.96
500.383	26.1
500.584	26.08
500.784	26.12
500.984	26.17
501.184	26.23
501.385	26.18
501.585	26.21
501.785	26.15
501.985	26.1
502.185	26.18
502.386	26.22
502.586	26.13
502.786	26.12
502.986	26.08
503.186	26.13
503.386	26.2
503.586	26.25
503.786	26.24
503.987	26.36
504.187	26.36
504.387	26.29
504.587	26.24
504.787	26.31
504.987	26.36
505.187	26.38
505.387	26.44
505.587	26.43
505.786	26.45
505.986	26.55
506.186	26.5
506.386	26.5
506.586	26.49
506.786	26.54
506.986	26.47
507.186	26.32
507.386	26.4
507.585	26.35
507.785	26.29
507.985	26.24
508.185	26.17
508.384	26.16
508.584	26.19
508.784	26.18
508.984	26.17
509.183	26.23
509.383	26.36
509.583	26.23
509.782	26.13
509.982	26.13
510.182	26.15
510.381	26.14
510.581	26.12
510.781	26.15
510.98	26.11
511.18	26.16
511.379	26.05
511.579	26.01
511.778	26.06
511.978	26.14
512.177	26.19
512.377	26.26
512.576	26.29
512.776	26.33
512.975	26.26
513.175	26.26
513.374	26.3
513.573	26.41
513.773	26.49
513.972	26.47
514.172	26.45
514.371	26.45
514.57	26.37
514.77	26.41
514.969	26.44
515.168	26.46
515.367	26.55
515.567	26.39
515.766	26.31
515.965	26.28
516.164	26.28
516.364	26.3
516.563	26.23
516.762	26.25
516.961	26.19
517.16	26.12
517.359	26.03
517.559	25.97
517.758	25.96
517.957	25.98
518.156	25.95
518.355	25.92
518.554	25.94
518.753	25.92
518.952	25.84
519.151	25.89
519.35	25.9
519.549	25.9
519.748	25.9
519.947	25.95
520.146	26.01
520.345	26.01
520.544	26.06
520.743	26.09
520.942	26.17
521.141	26.35
521.339	26.41
521.538	26.51
521.737	26.61
521.936	26.77
522.135	26.83
522.333	26.87
522.532	26.9
522.731	26.94
522.93	26.95
523.129	26.94
523.327	26.9
523.526	26.83
523.725	26.79
523.923	26.81
524.122	26.76
524.321	26.68
524.519	26.52
524.718	26.41
524.917	26.29
525.115	26.18
525.314	26.11
525.512	26
525.711	25.98
525.909	25.93
526.108	25.78
526.306	25.68
526.505	25.67
526.703	25.67
526.902	25.68
527.1	25.66
527.299	25.58
527.497	25.49
527.696	25.4
527.894	25.31
528.092	25.21
528.291	25.19
528.489	25.12
528.688	25.02
528.886	24.97
529.084	24.86
529.283	24.8
529.481	24.8
529.679	24.82
529.877	24.83
530.076	24.84
530.274	24.92
530.472	24.9
530.67	24.94
530.869	25.08
531.067	25.14
531.265	25.25
531.463	25.28
531.661	25.31
531.859	25.34
532.057	25.37
532.255	25.38
532.454	25.33
532.652	25.4
532.85	25.46
533.048	25.42
533.246	25.43
533.444	25.46
533.642	25.5
533.84	25.51
534.038	25.53
534.236	25.53
534.434	25.56
534.632	25.64
534.83	25.67
535.027	25.7
535.225	25.74
535.423	25.8
535.621	25.85
535.819	25.91
536.017	25.99
536.215	26.07
536.412	26.19
536.61	26.25
536.808	26.27
537.006	26.31
537.203	26.36
537.401	26.48
537.599	26.57
537.797	26.68
537.994	26.86
538.192	26.98
538.39	27.04
538.587	27.09
538.785	27.18
538.983	27.31
539.18	27.53
539.378	27.58
539.575	27.63
539.773	27.68
539.97	27.6
540.168	27.57
540.366	27.55
540.563	27.55
540.761	27.55
540.958	27.5
541.155	27.45
541.353	27.37
541.55	27.37
541.748	27.31
541.945	27.33
542.143	27.35
542.34	27.38
542.537	27.42
542.735	27.47
542.932	27.59
543.129	27.77
543.327	27.95
543.524	28.19
543.721	28.47
543.919	28.74
544.116	29.03
544.313	29.43
544.51	29.76
544.708	30.17
544.905	30.54
545.102	30.81
545.299	31.07
545.496	31.26
545.693	31.37
545.891	31.39
546.088	31.41
546.285	31.29
546.482	31.14
546.679	31
546.876	30.85
547.073	30.7
547.27	30.54
547.467	30.35
547.664	30.26
547.861	30.12
548.058	30.01
548.255	29.91
548.452	29.97
548.649	29.98
548.846	30.02
549.043	29.86
549.24	29.88
549.437	29.91
549.633	29.92
549.83	29.7
550.027	29.61
550.224	29.61
550.421	29.63
550.618	29.55
550.814	29.56
551.011	29.36
551.208	29.31
551.405	29.23
551.601	29.05
551.798	28.97
551.995	28.99
552.191	29.03
552.388	29.01
552.585	28.86
552.781	28.7
552.978	28.5
553.175	28.39
553.371	28.34
553.568	28.27
553.764	28.24
553.961	28.24
554.157	28.15
554.354	28.04
554.55	28
554.747	28.05
554.943	28.08
555.14	28.14
555.336	28.28
555.533	28.36
555.729	28.43
555.926	28.37
556.122	28.34
556.318	28.47
556.515	28.52
556.711	28.5
556.907	28.54
557.104	28.59
557.3	28.59
557.496	28.59
557.693	28.63
557.889	28.65
558.085	28.88
558.281	28.86
558.478	28.95
558.674	28.91
558.87	28.95
559.066	28.94
559.262	28.9
559.459	28.87
559.655	28.93
559.851	28.93
560.047	28.83
560.243	28.74
560.439	28.77
560.635	28.53
560.831	28.5
561.027	28.42
561.223	28.32
561.419	28.21
561.615	28.19
561.811	28.18
562.007	28.11
562.203	28.17
562.399	28.27
562.595	28.26
562.791	28.38
562.987	28.4
563.183	28.38
563.379	28.41
563.575	28.4
563.771	28.34
563.966	28.34
564.162	28.22
564.358	28.14
564.554	27.95
564.75	27.89
564.945	27.82
565.141	27.8
565.337	27.67
565.533	27.64
565.728	27.6
565.924	27.57
566.12	27.48
566.315	27.52
566.511	27.41
566.707	27.33
566.902	27.29
567.098	27.26
567.293	27.21
567.489	27.28
567.684	27.32
567.88	27.32
568.076	27.25
568.271	27.33
568.467	27.3
568.662	27.45
568.858	27.5
569.053	27.44
569.248	27.38
569.444	27.37
569.639	27.48
569.835	27.36
570.03	27.43
570.225	27.44
570.421	27.35
570.616	27.43
570.812	27.24
571.007	27.29
571.202	27.32
571.397	27.37
571.593	27.39
571.788	27.22
571.983	27.23
572.178	27.18
572.374	27.21
572.569	27.17
572.764	27.09
572.959	27.2
573.154	27.17
573.35	27.18
573.545	27.1
573.74	27.09
573.935	27.13
574.13	27.19
574.325	27.27
574.52	27.29
574.715	27.31
574.91	27.38
575.105	27.55
575.3	27.66
575.495	27.71
575.69	27.84
575.885	27.91
576.08	28.01
576.275	28.04
576.47	28.08
576.665	28.23
576.86	28.4
577.055	28.49
577.25	28.46
577.444	28.47
577.639	28.65
577.834	28.81
578.029	29.04
578.224	29.15
578.418	29.39
578.613	29.5
578.808	29.63
579.003	29.62
579.197	29.59
579.392	29.61
579.587	29.68
579.781	29.69
579.976	29.71
580.171	29.54
580.365	29.62
580.56	29.53
580.755	29.56
580.949	29.57
581.144	29.69
581.338	29.81
581.533	29.78
581.727	29.87
581.922	29.91
582.116	29.91
582.311	30.06
582.505	30.15
582.7	30.19
582.894	30.31
583.089	30.25
583.283	30.32
583.478	30.36
583.672	30.44
583.866	30.42
584.061	30.45
584.255	30.57
584.449	30.68
584.644	30.68
584.838	30.78
585.032	30.79
585.226	30.88
585.421	30.85
585.615	30.96
585.809	31.06
586.003	31.15
586.198	31.15
586.392	31.08
586.586	31.1
586.78	30.98
586.974	30.98
587.168	30.93
587.363	31
587.557	30.81
587.751	30.84
587.945	30.75
588.139	30.62
588.333	30.57
588.527	30.48
588.721	30.15
588.915	29.99
589.109	29.74
589.303	29.63
589.497	29.44
589.691	29.52
589.885	29.43
590.079	29.48
590.273	29.56
590.466	29.59
590.66	29.79
590.854	29.96
591.048	30.09
591.242	30.28
591.436	30.44
591.629	30.65
591.823	30.82
592.017	30.81
592.211	30.79
592.404	30.82
592.598	30.8
592.792	30.77
592.986	30.72
593.179	30.78
593.373	30.74
593.567	30.69
593.76	30.53
593.954	30.37
594.147	30.14
594.341	29.95
594.535	29.82
594.728	29.69
594.922	29.46
595.115	29.41
595.309	29.32
595.502	29.28
595.696	29.02
595.889	28.94
596.083	28.84
596.276	28.9
596.47	28.93
596.663	28.92
596.856	28.99
597.05	29.14
597.243	29.26
597.437	29.2
597.63	29.18
597.823	29.41
598.017	29.47
598.21	29.6
598.403	29.72
598.596	29.94
598.79	30.07
598.983	30.11
599.176	30.11
599.369	30.03
599.563	30.31
599.756	30.48
599.949	30.57
600.142	30.58
600.335	30.62
600.528	30.61
600.722	30.7
600.915	30.48
601.108	30.46
601.301	30.33
601.494	30.4
601.687	30.27
601.88	30.17
602.073	29.99
602.266	30
602.459	29.99
602.652	29.87
602.845	29.53
603.038	29.5
603.231	29.44
603.424	29.34
603.617	29.22
603.809	29.01
604.002	28.9
604.195	28.92
604.388	28.91
604.581	28.81
604.774	28.75
604.966	28.86
605.159	28.92
605.352	28.98
605.545	29.08
605.737	29.06
605.93	29.22
606.123	29.4
606.316	29.57
606.508	29.68
606.701	29.96
606.894	30.17
607.086	30.34
607.279	30.43
607.471	30.69
607.664	30.95
607.857	31.44
608.049	32.05
608.242	32.49
608.434	33.21
608.627	34.13
608.819	35.09
609.012	36.3
609.204	37.62
609.397	39.16
609.589	40.69
609.782	42.39
609.974	44.05
610.166	45.6
610.359	47.37
610.551	48.7
610.743	49.77
610.936	50.93
611.128	51.87
611.32	52.32
611.513	52.65
611.705	52.67
611.897	52.36
612.09	51.96
612.282	51.34
612.474	50.52
612.666	49.73
612.858	49.16
613.051	48.21
613.243	47.28
613.435	46.67
613.627	45.98
613.819	45.43
614.011	44.97
614.203	44.06
614.395	43.53
614.588	42.81
614.78	42.09
614.972	41.46
615.164	40.8
615.356	40.15
615.548	39.49
615.74	38.83
615.932	37.94
616.124	37.19
616.315	36.77
616.507	36.23
616.699	35.87
616.891	35.52
617.083	34.98
617.275	34.69
617.467	34.37
617.659	34.07
617.85	33.86
618.042	33.95
618.234	33.91
618.426	33.83
618.618	33.77
618.809	33.62
619.001	33.42
619.193	33.23
619.384	33.14
619.576	33.16
619.768	33.19
619.959	33.13
620.151	32.9
620.343	32.94
620.534	33.06
620.726	32.87
620.917	32.98
621.109	33.18
621.301	33.38
621.492	33.23
621.684	33.37
621.875	33.43
622.067	33.45
622.258	33.45
622.45	33.37
622.641	33.45
622.832	33.46
623.024	33.46
623.215	33.52
623.407	33.49
623.598	33.75
623.789	33.62
623.981	33.48
624.172	33.49
624.363	33.47
624.555	33.55
624.746	33.27
624.937	33.26
625.129	33.12
625.32	32.97
625.511	32.9
625.702	32.69
625.893	32.55
626.085	32.55
626.276	32.34
626.467	32.17
626.658	31.98
626.849	32.09
627.04	32.18
627.231	32.09
627.422	32.06
627.614	32.11
627.805	32.27
627.996	32.34
628.187	32.5
628.378	32.88
628.569	33.17
628.76	33.5
628.951	33.78
629.142	33.95
629.332	34.24
629.523	34.49
629.714	34.91
629.905	35.11
630.096	35.32
630.287	35.45
630.478	35.37
630.669	35.51
630.859	35.32
631.05	35.03
631.241	34.8
631.432	34.8
631.623	34.65
631.813	34.19
632.004	33.74
632.195	33.56
632.385	33.12
632.576	32.89
632.767	32.69
632.957	32.48
633.148	32.38
633.339	32.25
633.529	31.94
633.72	31.68
633.91	31.77
634.101	31.65
634.292	31.49
634.482	31.48
634.673	31.41
634.863	31.27
635.054	31.2
635.244	31.06
635.435	31.12
635.625	31.14
635.815	31.19
636.006	30.76
636.196	30.9
636.387	31
636.577	31.24
636.767	31.37
636.958	31.49
637.148	31.7
637.338	31.71
637.529	31.62
637.719	31.61
637.909	31.66
638.099	31.9
638.29	31.75
638.48	31.71
638.67	31.33
638.86	31.33
639.05	31.26
639.241	31.42
639.431	31.57
639.621	31.51
639.811	31.62
640.001	31.68
640.191	31.59
640.381	31.75
640.571	31.81
640.761	32.09
640.951	32.08
641.141	32.02
641.331	31.74
641.521	31.85
641.711	32.21
641.901	32.07
642.091	31.97
642.281	32.25
642.471	32.25
642.661	32.34
642.851	32.25
643.041	32.3
643.231	32.45
643.42	32.43
643.61	32.13
643.8	31.83
643.99	31.95
644.18	32.02
644.369	31.73
644.559	31.82
644.749	31.65
644.939	31.59
645.128	31.64
645.318	31.44
645.508	31.5
645.697	31.43
645.887	31.5
646.076	31.46
646.266	31.48
646.456	31.67
646.645	31.65
646.835	31.86
647.024	31.99
647.214	31.84
647.403	31.99
647.593	32.22
647.782	32.44
647.972	32.6
648.161	32.5
648.351	32.74
648.54	32.95
648.73	33.02
648.919	33.03
649.108	32.96
649.298	33.24
649.487	33.25
649.677	33.32
649.866	33.39
650.055	33.33
650.244	33.35
650.434	33.31
650.623	33.11
650.812	33.03
651.002	32.82
651.191	32.9
651.38	32.7
651.569	32.7
651.758	32.47
651.947	32.36
652.137	32.48
652.326	32.73
652.515	32.57
652.704	32.51
652.893	32.56
653.082	32.72
653.271	32.84
653.46	32.92
653.649	33.06
653.838	33.12
654.027	33.13
654.216	32.81
654.405	32.67
654.594	32.64
654.783	32.55
654.972	32.55
655.161	32.21
655.35	32.09
655.539	31.96
655.728	31.93
655.916	32
656.105	32.16
656.294	32.26
656.483	32.55
656.672	32.54
656.86	32.45
657.049	32.45
657.238	32.54
657.427	32.4
657.615	32.45
657.804	32.19
657.993	31.95
658.181	31.8
658.37	31.8
658.559	31.42
658.747	31.34
658.936	31.34
659.125	31.14
659.313	31.23
659.502	31.34
659.69	31.35
659.879	31.49
660.067	31.64
660.256	31.55
660.444	31.61
660.633	31.88
660.821	31.92
661.01	32.07
661.198	32.2
661.387	32.17
661.575	32.21
661.763	32.5
661.952	32.49
662.14	32.52
662.328	32.89
662.517	33
662.705	32.95
662.893	33.16
663.082	33.18
663.27	33.35
663.458	33.6
663.646	33.74
663.834	33.7
664.023	33.55
664.211	33.71
664.399	33.75
664.587	33.64
664.775	33.44
664.963	33.55
665.152	33.65
665.34	33.57
665.528	33.24
665.716	33.27
665.904	32.89
666.092	33.2
666.28	33.16
666.468	33.07
666.656	32.98
666.844	33.43
667.032	33.32
667.22	33.19
667.408	33.05
667.596	33.05
667.784	32.93
667.971	33.04
668.159	32.95
668.347	33.14
668.535	33.3
668.723	33.53
668.911	33.27
669.098	33.03
669.286	33.23
669.474	33.61
669.662	33.68
669.849	33.65
670.037	33.68
670.225	33.98
670.413	33.51
670.6	33.18
670.788	33.03
670.976	32.96
671.163	33.2
671.351	33.22
671.538	32.92
671.726	32.94
671.913	32.96
672.101	33.05
672.289	32.69
672.476	32.89
672.664	32.98
672.851	33.04
673.039	32.98
673.226	33.2
673.413	33.03
673.601	33.27
673.788	33.55
673.976	33.44
674.163	33.14
674.35	33.38
674.538	33.53
674.725	33.91
674.912	34.02
675.1	34.18
675.287	34.01
675.474	33.96
675.662	34.08
675.849	34.14
676.036	34.52
676.223	34.77
676.411	34.8
676.598	34.55
676.785	34.27
676.972	34.42
677.159	34.58
677.346	34.52
677.533	34.63
677.721	34.44
677.908	34.34
678.095	34.01
678.282	34.09
678.469	34.11
678.656	34.19
678.843	34.16
679.03	33.82
679.217	33.68
679.404	33.93
679.591	33.77
679.778	33.86
679.964	33.87
680.151	33.74
680.338	33.58
680.525	33.27
680.712	33.24
680.899	33.21
681.086	33.2
681.272	33.24
681.459	33.01
681.646	33.02
681.833	32.92
682.02	32.89
682.206	32.97
682.393	32.99
682.58	33.15
682.766	33.17
682.953	33.17
683.14	33.33
683.326	33.61
683.513	33.76
683.7	34.08
683.886	34.2
684.073	34.14
684.259	34.51
684.446	34.61
684.632	34.65
684.819	34.9
685.005	35.04
685.192	35.44
685.378	35.25
685.565	35.22
685.751	35.02
685.938	34.9
686.124	34.92
686.31	34.7
686.497	34.98
686.683	34.81
686.87	34.78
687.056	34.9
687.242	34.61
687.429	34.38
687.615	34.13
687.801	34.39
687.987	34.52
688.174	34.42
688.36	34.67
688.546	34.45
688.732	34.65
688.918	34.42
689.105	34.42
689.291	34.38
689.477	34.58
689.663	34.89
689.849	34.93
690.035	35.12
690.221	35.34
690.407	35.07
690.593	34.87
690.779	35.01
690.965	35.33
691.151	35.12
691.337	34.99
691.523	35.25
691.709	35.29
691.895	35.37
692.081	35.48
692.267	35.5
692.453	35.84
692.639	35.99
692.825	36.08
693.011	35.84
693.196	36.23
693.382	36.33
693.568	36.22
693.754	36.18
693.94	36.24
694.125	35.84
694.311	35.8
694.497	35.86
694.682	35.89
694.868	35.81
695.054	36.07
695.239	35.81
695.425	35.92
695.611	35.69
695.796	35.81
695.982	35.59
696.168	35.49
696.353	35.28
696.539	34.99
696.724	35.19
696.91	35.11
697.095	34.72
697.281	34.45
697.466	34.15
697.652	34.21
697.837	33.91
698.023	33.57
698.208	33.55
698.393	33.37
698.579	33.11
698.764	32.83
698.949	32.68
699.135	32.81
699.32	32.83
699.505	32.97
699.691	32.75
699.876	32.86
700.061	33.1
700.246	33.15
700.432	33.39
700.617	33.9
700.802	34.07
700.987	34.07
701.172	34.12
701.358	34.43
701.543	34.71
701.728	35.04
701.913	35.01
702.098	35.13
702.283	35.23
702.468	35.6
702.653	35.24
702.838	35.65
703.023	36.12
703.208	36.4
703.393	36.73
703.578	36.82
703.763	37.02
703.948	37.48
704.133	38.07
704.318	38.28
704.503	38.68
704.688	39.37
704.873	39.44
705.057	39.86
705.242	40.46
705.427	40.42
705.612	40.86
705.797	41.62
705.981	42.11
706.166	42.27
706.351	42.93
706.536	43.12
706.72	43.31
706.905	43.96
707.09	43.97
707.274	43.83
707.459	44.16
707.644	43.99
707.828	43.91
708.013	44.1
708.197	43.75
708.382	43.75
708.567	43.63
708.751	43.72
708.936	43.12
709.12	43.26
709.305	43.35
709.489	43.21
709.673	43.47
709.858	43.1
710.042	42.8
710.227	43.12
710.411	42.46
710.596	42.46
710.78	42.37
710.964	42.63
711.149	42.36
711.333	41.83
711.517	41.74
711.702	41.37
711.886	41.64
712.07	41.66
712.254	41.38
712.438	41.64
712.623	41.45
712.807	41.15
712.991	40.9
713.175	40.47
713.359	40.69
713.544	40.54
713.728	40.26
713.912	39.71
714.096	39.49
714.28	39.11
714.464	38.62
714.648	38.44
714.832	38.39
715.016	38.22
715.2	38.2
715.384	37.78
715.568	37.69
715.752	37.49
715.936	37.13
716.12	36.44
716.304	36.64
716.488	36.89
716.671	36.7
716.855	36.5
717.039	35.98
717.223	35.98
717.407	36.06
717.59	35.79
717.774	36.25
717.958	36.8
718.142	36.98
718.325	36.69
718.509	36.83
718.693	36.64
718.877	36.36
719.06	36.58
719.244	36.74
719.428	37.1
719.611	37.52
719.795	37.21
719.978	37.3
720.162	37.67
720.345	38.33
720.529	38.5
720.713	38.89
720.896	39.1
721.08	39.45
721.263	39.28
721.446	39.25
721.63	38.99
721.813	39
721.997	38.88
722.18	38.93
722.364	38.71
722.547	38.32
722.73	38.27
722.914	38.82
723.097	38.66
723.28	38.85
723.464	38.82
723.647	38.69
723.83	38.53
724.013	38.89
724.197	38.83
724.38	39.08
724.563	39.37
724.746	39.82
724.929	39.69
725.112	39.91
725.296	40.12
725.479	39.66
725.662	39.9
725.845	40.07
726.028	39.41
726.211	39.29
726.394	38.73
726.577	38.11
726.76	37.89
726.943	37.91
727.126	37.88
727.309	37.66
727.492	37.83
727.675	37.59
727.858	37.54
728.041	37.76
728.224	37.85
728.407	37.93
728.589	38.47
728.772	38.82
728.955	39
729.138	39.06
729.321	39.21
729.503	39.4
729.686	39.56
729.869	39.57
730.052	39.15
730.234	39.48
730.417	39.39
730.6	39.3
730.782	38.62
730.965	38.22
731.148	37.95
731.33	37.75
731.513	37.73
731.695	37.89
731.878	38
732.061	38.44
732.243	38.46
732.426	38.76
732.608	38.53
732.791	38.77
732.973	38.98
733.156	38.84
733.338	39.17
733.52	39.21
733.703	38.98
733.885	39.19
734.068	39.37
734.25	39.06
734.432	38.73
734.615	39.21
734.797	39.61
734.979	39.88
735.162	40.61
735.344	40.53
735.526	40.54
735.708	40.45
735.891	40.43
736.073	40.71
736.255	40.76
736.437	40.93
736.619	40.73
736.802	40.16
736.984	40.14
737.166	40.07
737.348	40.18
737.53	40.43
737.712	41.31
737.894	41.15
738.076	40.49
738.258	40.57
738.44	40.52
738.622	40.48
738.804	40.92
738.986	40.77
739.168	40.45
739.35	40.63
739.532	40.34
739.714	40.26
739.896	39.88
740.078	40.18
740.259	40.24
740.441	40.61
740.623	41.02
740.805	41.14
740.987	40.7
741.168	41.27
741.35	41.15
741.532	41.32
741.714	41.56
741.895	41.82
742.077	42.14
742.259	42.54
742.44	42.54
742.622	42.25
742.804	42.28
742.985	42.73
743.167	42.82
743.348	42.57
743.53	43.33
743.711	43.08
743.893	43.61
744.075	43.48
744.256	43.13
744.438	43.47
744.619	43.6
744.8	44.06
744.982	44.14
745.163	44.04
745.345	44.34
745.526	43.62
745.707	43.17
745.889	43.09
746.07	43.24
746.252	43.28
746.433	42.95
746.614	43.67
746.795	43.29
746.977	43.24
747.158	43.12
747.339	42.88
747.52	42.56
747.702	42.93
747.883	42.99
748.064	43.55
748.245	44.05
748.426	44.5
748.607	43.79
748.788	43.95
748.97	43.92
749.151	43.45
749.332	44.17
749.513	45.02
749.694	45.19
749.875	45.09
750.056	44.59
750.237	44.46
750.418	44.09
750.599	44.4
750.78	44.33
750.96	44.67
751.141	45.58
751.322	45.06
751.503	44.9
751.684	45.2
751.865	45.76
752.046	46
752.226	45.9
752.407	46.15
752.588	46.07
752.769	45.82
752.949	45.52
753.13	45.19
753.311	44.97
753.492	45.11
753.672	45.06
753.853	44.44
754.034	44.15
754.214	44.37
754.395	44.19
754.575	43.67
754.756	43.76
754.937	43.6
755.117	43.8
755.298	44.14
755.478	44.07
755.659	43.5
755.839	43.49
756.02	43.69
756.2	43.05
756.381	43.25
756.561	43.62
756.741	43.98
756.922	44.13
757.102	44.03
757.283	43.93
757.463	43.69
757.643	44.11
757.823	44.24
758.004	43.63
758.184	43.71
758.364	42.93
758.545	42.69
758.725	42.97
758.905	42.74
759.085	42.37
759.265	42.37
759.446	41.24
759.626	40.86
759.806	40.66
759.986	41.1
760.166	40.99
760.346	41.32
760.526	41.9
760.706	40.95
760.886	41.68
761.066	41.47
761.246	41.4
761.426	42.15
761.606	41.93
761.786	41.58
761.966	41.04
762.146	41.06
762.326	40.78
762.506	40.02
762.686	39.82
762.866	39.41
763.046	38.93
763.225	38.71
763.405	38.87
763.585	38.68
763.765	38.7
763.945	38.86
764.124	38.75
764.304	38.82
764.484	39.03
764.664	39.04
764.843	38.92
765.023	39.38
765.203	39.53
765.382	39.21
765.562	39.65
765.741	39.71
765.921	40.01
766.101	40.28
766.28	40.59
766.46	40.56
766.639	40.72
766.819	41.11
766.998	41.77
767.178	42.33
767.357	42.72
767.537	43.2
767.716	43.99
767.896	43.99
768.075	44.61
768.254	45.64
768.434	46.43
768.613	47.61
768.792	47.71
768.972	47.83
769.151	47.81
769.33	48.25
769.51	48.15
769.689	48.1
769.868	48.16
770.047	48.7
770.226	47.72
770.406	47.56
770.585	47.19
770.764	47.76
770.943	47.49
771.122	48.08
771.301	48.2
771.48	47.94
771.66	47.98
771.839	49.2
772.018	48.23
772.197	48.36
772.376	48.57
772.555	48.33
772.734	48.24
772.913	48.14
773.092	47.86
773.271	47.61
773.449	48.23
773.628	48.42
773.807	47.14
773.986	47.33
774.165	47.33
774.344	47.28
774.523	46.6
774.701	46.64
774.88	48.05
775.059	48.12
775.238	48.13
775.417	47.2
775.595	47.24
775.774	47.77
775.953	47.81
776.131	48.77
776.31	48.54
776.489	48.77
776.667	48.13
776.846	47.23
777.025	46.8
777.203	47.29
777.382	47.96
777.56	47.93
777.739	47.15
777.917	47
778.096	46.55
778.274	46.97
778.453	47.5
778.631	48.07
778.81	47.36
778.988	47.2
779.166	47.17
779.345	46.96
779.523	46.58
779.702	46.82
779.88	46.96
780.058	46
780.237	46.07
780.415	46.29
780.593	46.05
780.771	47.19
780.95	48.06
781.128	47.53
781.306	47.43
781.484	48.09
781.662	47.69
781.841	47.88
782.019	47.9
782.197	48.14
782.375	47.83
782.553	47.05
782.731	46.51
782.909	45.42
783.087	46.07
783.265	46.46
783.443	45.73
783.621	46.21
783.799	46.76
783.977	46.49
784.155	46.71
784.333	47.27
784.511	47.88
784.689	47.18
784.867	47.75
785.045	47.6
785.223	46.88
785.4	47.39
785.578	47.84
785.756	46.48
785.934	47.43
786.112	47.15
786.289	47.04
786.467	46.61
786.645	47.05
786.823	46.93
787	47.46
787.178	47.81
787.356	47.29
787.533	47.16
787.711	47.17
787.889	47.89
788.066	46.68
788.244	46.66
788.421	46.67
788.599	46.34
788.776	46.75
788.954	46.11
789.131	45.17
789.309	45.85
789.486	45.31
789.664	45.83
789.841	44.8
790.019	45.04
790.196	44.79
790.373	44.5
790.551	45.35
790.728	45.67
790.906	45.87
791.083	46.95
791.26	45.98
791.437	46.65
791.615	46.63
791.792	45.97
791.969	46.9
792.146	46.4
792.324	46.38
792.501	45.95
792.678	44.39
792.855	44.05
793.032	44.5
793.209	45.2
793.387	45.22
793.564	45
793.741	46.21
793.918	46.41
794.095	47.37
794.272	48.61
794.449	49.26
794.626	50.14
794.803	49.7
794.98	49.39
795.157	48.81
795.334	48.09
795.511	48.31
795.688	47.31
795.864	46.33
796.041	46.14
796.218	46.04
796.395	44.87
796.572	45.61
796.749	46.2
796.925	46.22
797.102	47.19
797.279	47.55
797.456	46.94
797.632	47.6
797.809	48.03
797.986	47.7
798.162	47.13
798.339	47.25
798.516	46.31
798.692	46.45
798.869	45.8
799.046	45.2
799.222	44.96
799.399	45.81
799.575	46.83
799.752	46.88
799.928	46.85
800.105	47.06
800.281	47.3
800.458	47.22
800.634	46.97
800.811	46.79
800.987	47.56
801.163	47.11
801.34	47.09
801.516	46.29
801.692	46.07
801.869	45.44
802.045	45.76
802.221	45.13
802.398	45.12
802.574	46.26
802.75	46.56
802.926	45.11
803.103	47.62
803.279	46.22
803.455	47.61
803.631	48.04
803.807	49.45
803.983	49.54
804.16	50.57
804.336	49.63
804.512	48.19
804.688	48.84
804.864	48.83
805.04	47.38
805.216	48.36
805.392	46.11
805.568	46.55
805.744	46.37
805.92	45.18
806.096	45.78
806.272	46.97
806.448	47.46
806.623	47.48
806.799	47.83
806.975	47.68
807.151	48.2
807.327	48.07
807.503	47.71
807.678	48.5
807.854	48.99
808.03	48.58
808.206	49.22
808.381	49.36
808.557	49.53
808.733	50.62
808.908	50.12
809.084	50.01
809.26	50.64
809.435	49.62
809.611	47.5
809.787	48.07
809.962	46.72
810.138	46.35
810.313	44.49
810.489	44.51
810.664	44.25
810.84	43.61
811.015	43.27
811.191	43.11
811.366	43.35
811.542	43.46
811.717	42.85
811.892	44.88
812.068	44.04
812.243	45.14
812.419	46.02
812.594	44.47
812.769	45.45
812.944	44.58
813.12	44.52
813.295	44.67
813.47	44.61
813.645	43.59
813.821	42.5
813.996	42.01
814.171	43.17
814.346	41.19
814.521	42.67
814.697	41.91
814.872	42.39
815.047	42.21
815.222	42.06
815.397	42.29
815.572	45.01
815.747	46
815.922	46.03
816.097	45.16
816.272	46.6
816.447	47.2
816.622	48.41
816.797	50.35
816.972	50.82
817.147	51.11
817.322	50.82
817.496	49
817.671	48.94
817.846	47.57
818.021	47.5
818.196	46.56
818.371	44.88
818.545	43.6
818.72	42.98
818.895	42.76
819.069	42.1
819.244	42.74
819.419	43.01
819.594	42.09
819.768	43.53
819.943	42.05
820.117	41.27
820.292	41.16
820.467	41.31
820.641	40.01
820.816	39.65
820.99	39.82
821.165	39.09
821.339	38.65
821.514	38.32
821.688	37.93
821.863	38.23
822.037	37.94
822.212	37.84
822.386	37.63
822.56	37.67
822.735	37.44
822.909	37.04
823.084	37.04
823.258	36.64
823.432	36.4
823.606	36.37
823.781	36.05
823.955	36.11
824.129	35.66
824.303	35.27
824.478	35.3
824.652	35.27
824.826	35.57
825	35.54
825.174	36.12
825.348	36.43
825.523	36.39
825.697	36.69
825.871	36.83
826.045	37.54
826.219	37.93
826.393	37.72
826.567	37.73
826.741	37.83
826.915	37.56
827.089	37.56
827.263	37.62
827.437	37.58
827.611	37.69
827.784	38.07
827.958	37.58
828.132	37.66
828.306	37.76
828.48	37.52
828.654	37.24
828.827	37.33
829.001	37.49
829.175	37.47
829.349	37.72
829.522	37.35
829.696	37.15
829.87	38.01
830.044	38.27
830.217	38.67
830.391	39.91
830.565	40.43
830.738	41.62
830.912	42.47
831.085	43.63
831.259	44.67
831.432	45
831.606	44.49
831.779	44.07
831.953	43.62
832.126	43.14
832.3	42.76
832.473	42.07
832.647	42.36
832.82	41.74
832.994	40.98
833.167	40.39
833.34	40.64
833.514	40.58
833.687	40.33
833.86	40.47
834.034	40.46
834.207	40.34
834.38	40.02
834.553	38.64
834.727	38.67
834.9	38.53
835.073	38.77
835.246	39.12
835.419	38.96
835.593	38.75
835.766	38.76
835.939	39.13
836.112	38.82
836.285	39.08
836.458	40.72
836.631	40.02
836.804	39.93
836.977	39.13
837.15	37.9
837.323	40.39
837.496	41.14
837.669	41.51
837.842	41.9
838.015	42.75
838.188	43.75
838.361	44.48
838.533	44.63
838.706	45.01
838.879	45.96
839.052	47.99
839.225	46.06
839.398	46.53
839.57	46.88
839.743	45.02
839.916	44.09
840.088	44.91
840.261	43.14
840.434	44.84
840.607	46.76
840.779	46.85
840.952	45.28
841.124	44.13
841.297	44.8
841.47	43.3
841.642	44.4
841.815	45.64
841.987	43.96
842.16	47.2
842.332	46.36
842.505	47.59
842.677	47.34
842.85	47.48
843.022	49.17
843.194	49.56
843.367	52.38
843.539	51.55
843.712	53.6
843.884	55.51
844.056	54.92
844.229	53.62
844.401	50.6
844.573	54.86
844.745	57
844.918	57.12
845.09	56.02
845.262	50.36
845.434	52.57
845.606	48.06
845.779	47.18
845.951	45.97
846.123	48.69
846.295	50.77
846.467	44.92
846.639	42.24
846.811	42.61
846.983	42.3
847.155	45.56
847.327	41.74
847.499	47.02
847.671	48.48
847.843	48.8
848.015	48.95
848.187	47.91
848.359	53.64
848.531	52.98
848.703	55.11
848.875	54.92
849.047	54.73
849.218	57.52
849.39	54.18
849.562	54.34
849.734	56.71
849.905	55.11
850.077	54.75
850.249	52.95
850.421	52.66
850.592	50.42
850.764	51.84
850.936	54.59
851.107	55.52
851.279	58.16
851.451	60.04
851.622	57.51
851.794	60.44
851.965	57.37
852.137	54.76
852.308	55.73
852.48	56.39
852.651	58.65
852.823	60.13
852.994	58.73
853.166	57.84
853.337	56.73
853.509	56.01
853.68	54.07
853.851	56.81
854.023	58.2
854.194	62.13
854.365	63.15
854.537	62.25
854.708	60.59
854.879	60.94
855.05	61.74
855.222	62.53
855.393	60.53
855.564	61.89
855.735	59.66
855.906	58.99
856.078	56.14
856.249	56.87
856.42	55.2
856.591	57.09
856.762	58.19
856.933	55.85
857.104	55.71
857.275	57.27
857.446	57.29
857.617	61.65
857.788	62.3
857.959	64.91
858.13	64.58
858.301	66.23
858.472	66.04
858.643	65.69
858.814	69.59
858.985	67.39
859.155	70.41
859.326	69.28
859.497	68.61
859.668	69.23
859.839	66.35
860.009	64.3
860.18	66.38
860.351	63.39
860.522	65.06
860.692	60.19
860.863	60.25
861.034	58.98
861.204	57.49
861.375	58.45
861.546	52.76
861.716	52.9
861.887	52.22
862.057	49.49
862.228	50.91
862.398	45.09
862.569	44.49
862.739	44.05
862.91	44.5
863.08	45.51
863.251	46.85
863.421	52.78
863.592	54.02
863.762	60.4
863.932	62.3
864.103	58.79
864.273	61.74
864.443	62.07
864.614	62.51
864.784	61.27
864.954	59.97
865.125	55.62
865.295	56.24
865.465	51.48
865.635	42.46
865.805	42.58
865.976	44
866.146	40.58
866.316	43.72
866.486	49.26
866.656	49.04
866.826	53.64
866.996	51.68
867.166	49.87
867.336	53.1
867.506	55.87
867.676	51.66
867.846	54.31
868.016	56.59
868.186	54.22
868.356	47.38
868.526	45.76
868.696	41.69
868.866	44.79
869.036	43.28
869.206	41.83
869.376	42.22
869.545	44.96
869.715	45.5
869.885	44.27
870.055	45.88
870.224	49.27
870.394	56.02
870.564	59.98
870.734	57.63
870.903	57.95
871.073	57.12
871.243	60.82
871.412	59.78
871.582	58.27
871.751	59.45
871.921	54.73
872.091	55.89
872.26	52.46
872.43	48.51
872.599	47.53
872.769	50.54
872.938	54.79
873.108	54.39
873.277	55.1
873.446	55.24
873.616	54.59
873.785	61.46
873.955	58.28
874.124	55.67
874.293	57.86
874.463	54.19
874.632	53.29
874.801	50.36
874.971	50.68
875.14	50.64
875.309	46.85
875.478	47.03
875.647	38.21
875.817	39.14
875.986	39.95
876.155	37.65
876.324	45.51
876.493	42.33
876.662	44.88
876.831	44.7
877	44.2
877.17	50.63
877.339	51.87
877.508	55.52
877.677	57.03
877.846	57.61
878.015	58.36
878.184	56.38
878.352	57.95
878.521	58.21
878.69	53.86
878.859	55.58
879.028	52.38
879.197	49.75
879.366	48.63
879.534	44.48
879.703	40.86
879.872	39.29
880.041	38.92
880.21	37.03
880.378	36.09
880.547	36.3
880.716	34.7
880.884	33.6
881.053	33.99
881.222	32.93
881.39	32.32
881.559	33.18
881.727	32.25
881.896	30.92
882.065	30.18
882.233	29.65
882.402	29.02
882.57	28.77
882.739	28.7
882.907	27.68
883.076	28.29
883.244	28.51
883.412	27.99
883.581	28.13
883.749	28.78
883.918	29.02
884.086	29.62
884.254	30.2
884.423	29.36
884.591	29.82
884.759	30.45
884.927	30.09
885.096	30.55
885.264	30.93
885.432	32.12
885.6	32.77
885.769	32.81
885.937	32.67
886.105	32.51
886.273	35.97
886.441	35.85
886.609	36.96
886.777	35.62
886.945	35.86
887.113	39.19
887.281	36.07
887.449	38.58
887.617	42.49
887.785	41.96
887.953	41.9
888.121	40.5
888.289	43.24
888.457	43.35
888.625	47.59
888.793	47.57
888.961	46.2
889.129	49.95
889.296	47.26
889.464	44.43
889.632	44.51
889.8	46.96
889.967	48.06
890.135	45.78
