Data from 2938777__Reflection_01.txt Node
Date: Fri Mar 13 13:42:07 EDT 2015
User: robert
Spectrometer: USB4E03002
Autoset integration time: false
Trigger mode: 4
Integration Time (sec): 1.000000E-1
Scans to average: 10
Electric dark correction enabled: false
Nonlinearity correction enabled: false
Boxcar width: 5
Stray light correction enabled: false
XAxis mode: Wavelengths
Stop averaging: false
Number of Pixels in Spectrum: 3648
>>>>>Begin Spectral Data<<<<<
177.575	-293.75
177.794	-852.05
178.014	-2437.04
178.233	1277.61
178.452	2075.68
178.672	521.59
178.891	562.8
179.11	3917.39
179.33	-1274.63
179.549	-484.92
179.768	-2160
179.987	1031.34
180.207	2159.26
180.426	912.31
180.645	-1580
180.864	-1027.42
181.084	-206.69
181.303	-243.93
181.522	-825.53
181.741	2406.67
181.96	180.32
182.179	167.37
182.398	157.75
182.618	115.49
182.837	180.07
183.056	120.69
183.275	89.29
183.494	77.76
183.713	52.02
183.932	97.21
184.151	98.47
184.37	123.75
184.589	92.13
184.808	-7.78
185.027	108.77
185.246	99.45
185.465	79.11
185.684	102.59
185.903	106.14
186.122	115.66
186.341	103.36
186.56	99.83
186.779	123.94
186.998	124.65
187.216	165.33
187.435	388.98
187.654	147.96
187.873	95.48
188.092	114.25
188.311	147.98
188.53	147.12
188.748	312.5
188.967	-362.5
189.186	221.74
189.405	292.09
189.623	146.01
189.842	128.74
190.061	176.44
190.28	257
190.498	181.73
190.717	161.44
190.936	174.41
191.154	148.73
191.373	178.62
191.592	157.21
191.81	114.92
192.029	120.82
192.248	128.01
192.466	115.63
192.685	117.32
192.904	135.86
193.122	87.02
193.341	71.68
193.559	211.88
193.778	94.27
193.996	109.45
194.215	1244
194.433	276.64
194.652	141.89
194.87	177.66
195.089	3560
195.307	234.62
195.526	-87.85
195.744	461.7
195.963	156.28
196.181	182.64
196.399	153.6
196.618	158.68
196.836	231.77
197.055	372.73
197.273	564.84
197.491	1005.88
197.71	909.26
197.928	302.79
198.146	392.37
198.365	390.67
198.583	322.73
198.801	3.93
199.019	38.28
199.238	46.19
199.456	44.88
199.674	18.21
199.892	-14.23
200.111	51.28
200.329	43.67
200.547	53.89
200.765	5.21
200.983	-58.02
201.202	-168.22
201.42	-441.67
201.638	665.22
201.856	103.09
202.074	263.41
202.292	125.79
202.51	95.35
202.728	58.72
202.946	119.46
203.165	123.81
203.383	-17500
203.601	-35.21
203.819	-25.74
204.037	14.44
204.255	79.72
204.473	54.03
204.691	92.82
204.909	84.17
205.127	123.01
205.345	68.64
205.562	82.27
205.78	120
205.998	122.97
206.216	85.58
206.434	91.03
206.652	105.73
206.87	140.53
207.088	124.44
207.306	149.89
207.523	123.57
207.741	135.83
207.959	126.32
208.177	115.72
208.395	102.31
208.612	155.35
208.83	120.97
209.048	102.06
209.266	113.33
209.483	85.29
209.701	-736
209.919	750
210.136	10280
210.354	-1297.22
210.572	-134.97
210.79	504.67
211.007	230.94
211.225	1010.17
211.442	265.15
211.66	158.59
211.878	121.04
212.095	237.67
212.313	214.87
212.53	174.26
212.748	157.4
212.966	126.41
213.183	148.26
213.401	123.17
213.618	95.95
213.836	81.67
214.053	88.4
214.271	109.28
214.488	13.22
214.705	24.62
214.923	33.47
215.14	38.04
215.358	43.77
215.575	39.81
215.793	60.58
216.01	68.69
216.227	77.28
216.445	72.3
216.662	63.82
216.879	56.39
217.097	43.81
217.314	41.13
217.531	50.87
217.749	50.53
217.966	43.49
218.183	14.5
218.4	-16.58
218.618	-8.39
218.835	-1.52
219.052	-9.66
219.269	-6.35
219.487	-1.74
219.704	-3.15
219.921	-9.9
220.138	1.77
220.355	6.46
220.572	8.23
220.79	19.87
221.007	-0.75
221.224	-10.55
221.441	-8.68
221.658	-0.3
221.875	3.24
222.092	12.41
222.309	7.63
222.526	-1.08
222.743	-4.62
222.96	5.18
223.177	5.93
223.394	16.08
223.611	19.3
223.828	28.64
224.045	27.2
224.262	32.23
224.479	26.11
224.696	24.79
224.913	26.66
225.13	27.01
225.347	25.46
225.564	22.2
225.781	23.27
225.997	18.33
226.214	16.93
226.431	15.51
226.648	10.93
226.865	10.62
227.082	10.67
227.298	8.79
227.515	8.07
227.732	7.39
227.949	6.3
228.165	5.31
228.382	5.93
228.599	4.38
228.816	4.26
229.032	3.49
229.249	3.28
229.466	3.81
229.682	3.3
229.899	3.12
230.116	2.18
230.332	2.14
230.549	2.58
230.765	2.62
230.982	2.83
231.199	2.3
231.415	3.5
231.632	4.11
231.848	4.12
232.065	4.16
232.281	4.75
232.498	5.95
232.714	8.61
232.931	8.06
233.147	6.89
233.364	7.83
233.58	6.91
233.797	5.89
234.013	5.9
234.23	5.03
234.446	6.32
234.662	4.67
234.879	4.29
235.095	3.07
235.312	5.64
235.528	5.72
235.744	3.74
235.961	5.23
236.177	4.8
236.393	3.69
236.61	2.69
236.826	1.01
237.042	1.91
237.258	0.18
237.475	-1.02
237.691	-4.13
237.907	-5.86
238.123	-2.29
238.339	-1.07
238.556	1.08
238.772	1.54
238.988	2.93
239.204	4.03
239.42	4.86
239.636	6.25
239.853	6.34
240.069	6.87
240.285	8.11
240.501	7.32
240.717	6.49
240.933	6
241.149	5.36
241.365	5.05
241.581	4.38
241.797	4.26
242.013	4.62
242.229	5.31
242.445	5.14
242.661	5.31
242.877	5.26
243.093	5.33
243.309	5.03
243.525	5.35
243.741	5.31
243.957	6.1
244.173	6.73
244.388	6.63
244.604	5.07
244.82	4.86
245.036	4.06
245.252	3.16
245.468	2.92
245.683	3.41
245.899	3.52
246.115	3.76
246.331	3.91
246.547	3.56
246.762	3.53
246.978	4.08
247.194	4.09
247.409	4.51
247.625	4.74
247.841	4.59
248.057	4.45
248.272	4.14
248.488	4.36
248.703	4.47
248.919	4.79
249.135	4.63
249.35	4.65
249.566	4.71
249.782	4.49
249.997	4.47
250.213	5.23
250.428	5.26
250.644	5.92
250.859	5.43
251.075	5.3
251.29	4.39
251.506	5.23
251.721	5.56
251.937	5.28
252.152	5.24
252.368	5.78
252.583	5.86
252.798	6.21
253.014	6.27
253.229	6.39
253.445	5.69
253.66	6.12
253.875	5.66
254.091	5.09
254.306	6.11
254.521	5.76
254.737	5.84
254.952	5.66
255.167	5.56
255.383	5.23
255.598	4.64
255.813	4.64
256.028	4.59
256.244	3.78
256.459	3.93
256.674	2.58
256.889	3.25
257.104	2.31
257.32	2.77
257.535	2.09
257.75	2.22
257.965	2.38
258.18	2.56
258.395	2.36
258.61	2.86
258.826	2.86
259.041	3.13
259.256	3.17
259.471	3.13
259.686	2.76
259.901	3.09
260.116	3.18
260.331	3.11
260.546	2.96
260.761	3.19
260.976	3.12
261.191	3.17
261.406	3.07
261.621	3
261.836	3.02
262.05	2.69
262.265	2.17
262.48	1.58
262.695	1.95
262.91	1.85
263.125	1.41
263.34	1.58
263.555	0.85
263.769	1.2
263.984	0.45
264.199	0.1
264.414	0.07
264.629	0.49
264.843	0.79
265.058	1.04
265.273	1.56
265.488	1.99
265.702	1.6
265.917	1.78
266.132	1.6
266.346	1.77
266.561	2.45
266.776	2.83
266.99	3.04
267.205	3.16
267.42	2.69
267.634	2.73
267.849	2.69
268.063	2.98
268.278	3.1
268.492	3.12
268.707	3.08
268.922	2.54
269.136	3.28
269.351	2.56
269.565	2.77
269.78	2.78
269.994	2.32
270.209	1.82
270.423	2.07
270.637	1.99
270.852	1.95
271.066	2.45
271.281	2.33
271.495	1.87
271.709	2.09
271.924	2.26
272.138	2.19
272.353	2.5
272.567	2.71
272.781	2.46
272.996	2.52
273.21	2.86
273.424	2.7
273.638	2.92
273.853	2.75
274.067	2.81
274.281	2.6
274.495	2.56
274.71	2.54
274.924	3.08
275.138	2.9
275.352	3.07
275.566	2.38
275.781	2.22
275.995	2.66
276.209	3.16
276.423	2.86
276.637	2.53
276.851	3.13
277.065	3.39
277.279	2.97
277.493	3.1
277.707	3.37
277.921	3.51
278.135	3.44
278.349	3
278.563	2.87
278.777	3.27
278.991	3.57
279.205	3.22
279.419	2.87
279.633	2.12
279.847	2
280.061	1.31
280.275	1.43
280.489	1.72
280.703	1.94
280.917	1.98
281.131	1.44
281.344	1.49
281.558	1.32
281.772	1.41
281.986	1.69
282.2	1.74
282.414	1.97
282.627	1.89
282.841	1.54
283.055	1.46
283.269	0.96
283.482	1.4
283.696	1.17
283.91	1.02
284.123	0.99
284.337	1.5
284.551	1.65
284.764	2.05
284.978	2.13
285.192	2.29
285.405	2.35
285.619	2.55
285.833	2.32
286.046	2.38
286.26	2.49
286.473	2.67
286.687	2.28
286.9	2.24
287.114	1.95
287.327	1.88
287.541	1.83
287.754	1.77
287.968	1.97
288.181	2.36
288.395	2.72
288.608	3.02
288.822	2.77
289.035	2.94
289.248	2.48
289.462	2.49
289.675	2.68
289.889	2.72
290.102	2.67
290.315	2.76
290.529	2.73
290.742	2.54
290.955	2.24
291.169	2.52
291.382	2.48
291.595	3.03
291.808	3.06
292.022	2.9
292.235	2.85
292.448	2.91
292.661	2.78
292.875	2.59
293.088	2.74
293.301	2.73
293.514	2.3
293.727	2.46
293.94	2
294.153	2
294.367	1.88
294.58	1.83
294.793	1.72
295.006	1.67
295.219	1.59
295.432	1.24
295.645	1.52
295.858	1.71
296.071	1.75
296.284	1.9
296.497	1.88
296.71	2.05
296.923	2.23
297.136	2.18
297.349	2.15
297.562	2.32
297.775	2.43
297.988	2.58
298.201	2.42
298.414	2.31
298.626	2.49
298.839	2.51
299.052	2.49
299.265	2.23
299.478	2.43
299.691	2.42
299.903	2.15
300.116	2.16
300.329	1.7
300.542	1.93
300.755	1.8
300.967	1.51
301.18	1.48
301.393	1.63
301.605	2.11
301.818	1.95
302.031	1.91
302.243	2.07
302.456	2.13
302.669	2.43
302.881	2.4
303.094	2.48
303.307	2.77
303.519	2.46
303.732	2.36
303.944	1.7
304.157	1.66
304.37	1.94
304.582	1.63
304.795	1.41
305.007	1.46
305.22	1.44
305.432	1.5
305.645	1.36
305.857	1.86
306.069	1.93
306.282	2.29
306.494	2.42
306.707	1.81
306.919	1.95
307.132	2.02
307.344	2.2
307.556	2.52
307.769	2.63
307.981	2.67
308.193	2.36
308.406	2.27
308.618	2.09
308.83	2.06
309.043	2.34
309.255	2.86
309.467	2.97
309.679	2.67
309.892	2.63
310.104	2.86
310.316	2.46
310.528	2.45
310.74	2.59
310.953	2.81
311.165	2.83
311.377	2.84
311.589	2.83
311.801	2.86
312.013	2.97
312.225	2.92
312.437	2.65
312.649	3.05
312.862	3.34
313.074	3
313.286	2.88
313.498	2.65
313.71	3.02
313.922	3.03
314.134	3.21
314.346	3.2
314.558	3.32
314.77	3.31
314.982	3.24
315.193	3.23
315.405	3.67
315.617	3.86
315.829	4
316.041	3.87
316.253	3.2
316.465	3.51
316.677	3.37
316.888	3.35
317.1	3.55
317.312	4.09
317.524	4.12
317.736	4.03
317.947	4.08
318.159	4.84
318.371	4.53
318.583	5.15
318.794	4.87
319.006	4.96
319.218	4.61
319.43	4.01
319.641	3.79
319.853	4.13
320.064	4.27
320.276	4.49
320.488	3.98
320.699	4.58
320.911	4.48
321.123	4.43
321.334	4.3
321.546	4.61
321.757	5.01
321.969	4.67
322.18	4.91
322.392	5.03
322.603	4.61
322.815	4.77
323.026	5.09
323.238	5.11
323.449	4.82
323.661	5.06
323.872	5.32
324.083	5.89
324.295	6.62
324.506	6.15
324.718	6.19
324.929	6.65
325.14	6.51
325.352	6.21
325.563	6.41
325.774	6.6
325.986	6.79
326.197	7.01
326.408	7.16
326.62	6.98
326.831	7.42
327.042	7.6
327.253	7.68
327.464	8.39
327.676	8.66
327.887	8.94
328.098	9.51
328.309	9.94
328.52	10.42
328.732	10.51
328.943	11.21
329.154	11.16
329.365	11.28
329.576	11.3
329.787	11.66
329.998	11.63
330.209	12.07
330.42	12.36
330.631	12.38
330.842	12.14
331.053	12.55
331.264	12.35
331.475	12.23
331.686	12.66
331.897	13.2
332.108	13.24
332.319	13.65
332.53	13.67
332.741	14.03
332.952	14.13
333.163	14.13
333.374	13.92
333.585	14.04
333.795	14.57
334.006	14.59
334.217	14.68
334.428	14.43
334.639	14.61
334.849	14.45
335.06	13.99
335.271	14.31
335.482	14.52
335.692	14.88
335.903	15.08
336.114	15.32
336.325	15.16
336.535	15.04
336.746	15.26
336.957	15.04
337.167	15.43
337.378	15.76
337.589	15.77
337.799	15.54
338.01	15.58
338.22	15.52
338.431	15.28
338.642	15.25
338.852	15.37
339.063	15.38
339.273	15.55
339.484	15.49
339.694	15.38
339.905	15.08
340.115	15.46
340.326	15.01
340.536	14.92
340.746	15.09
340.957	15.52
341.167	15.31
341.378	15.05
341.588	15.14
341.799	15.08
342.009	15.18
342.219	15.54
342.43	15.18
342.64	15.6
342.85	15.86
343.061	15.91
343.271	15.46
343.481	15.51
343.691	15.77
343.902	15.8
344.112	15.63
344.322	15.46
344.532	15.33
344.743	15.51
344.953	15.5
345.163	15.17
345.373	14.92
345.583	15.11
345.793	15.12
346.004	15.21
346.214	15
346.424	15.07
346.634	15.23
346.844	15.24
347.054	15.04
347.264	14.84
347.474	14.99
347.684	14.98
347.894	15.02
348.104	15.25
348.314	15.18
348.524	15.28
348.734	15.12
348.944	15.15
349.154	15.14
349.364	15.28
349.574	15.29
349.784	15.44
349.994	15.69
350.204	15.64
350.413	15.56
350.623	15.56
350.833	15.18
351.043	15.33
351.253	15.25
351.463	15.18
351.672	15.09
351.882	15.31
352.092	15.19
352.302	15.13
352.511	15.33
352.721	15.03
352.931	14.95
353.141	15.04
353.35	14.98
353.56	14.9
353.77	14.94
353.979	14.96
354.189	14.76
354.399	14.71
354.608	14.65
354.818	14.61
355.027	14.8
355.237	14.96
355.447	15.34
355.656	15.25
355.866	15.28
356.075	15.07
356.285	15.01
356.494	14.84
356.704	14.88
356.913	14.81
357.123	14.71
357.332	14.76
357.542	14.65
357.751	14.5
357.96	14.46
358.17	14.43
358.379	14.32
358.589	14.46
358.798	14.78
359.007	14.63
359.217	14.82
359.426	14.85
359.635	14.8
359.845	14.51
360.054	14.34
360.263	14.53
360.472	14.58
360.682	14.68
360.891	14.57
361.1	14.47
361.309	14.52
361.519	14.36
361.728	14.26
361.937	14.23
362.146	14.27
362.355	14.41
362.564	14.32
362.774	14.17
362.983	14.17
363.192	13.97
363.401	13.84
363.61	13.82
363.819	13.79
364.028	13.56
364.237	13.49
364.446	13.44
364.655	13.31
364.864	13.23
365.073	13.3
365.282	13.41
365.491	13.78
365.7	13.83
365.909	13.87
366.118	13.89
366.327	14.08
366.536	14.05
366.745	14.16
366.954	14.01
367.162	14.17
367.371	14.15
367.58	13.95
367.789	14.02
367.998	13.83
368.207	13.59
368.415	13.55
368.624	13.62
368.833	13.58
369.042	13.67
369.25	13.99
369.459	13.87
369.668	13.7
369.877	13.75
370.085	13.38
370.294	13.57
370.503	13.82
370.711	13.91
370.92	13.88
371.129	13.96
371.337	13.8
371.546	13.72
371.754	13.87
371.963	13.86
372.171	14.1
372.38	14.34
372.589	14.29
372.797	14.04
373.006	13.77
373.214	13.73
373.423	13.75
373.631	13.98
373.84	13.88
374.048	13.62
374.256	13.65
374.465	13.47
374.673	13.49
374.882	13.53
375.09	13.59
375.298	13.98
375.507	13.92
375.715	13.73
375.923	13.65
376.132	13.64
376.34	13.67
376.548	13.95
376.757	13.97
376.965	13.8
377.173	13.69
377.381	13.71
377.59	13.55
377.798	13.63
378.006	13.68
378.214	13.55
378.423	13.33
378.631	13.3
378.839	13.02
379.047	12.94
379.255	13.01
379.463	12.94
379.671	12.98
379.879	13.03
380.088	13.05
380.296	12.99
380.504	12.83
380.712	12.98
380.92	12.84
381.128	13.03
381.336	12.99
381.544	12.91
381.752	12.99
381.96	13.06
382.168	13.04
382.376	13.15
382.584	13.16
382.791	13.27
382.999	13.54
383.207	13.75
383.415	13.59
383.623	13.52
383.831	13.55
384.039	13.51
384.247	13.29
384.454	13.26
384.662	13.05
384.87	12.94
385.078	12.9
385.285	12.55
385.493	12.52
385.701	12.33
385.909	12.44
386.116	12.57
386.324	12.71
386.532	12.87
386.739	12.86
386.947	12.92
387.155	13.05
387.362	13.22
387.57	13.3
387.778	13.27
387.985	13.39
388.193	13.36
388.4	13.25
388.608	13.28
388.816	13.24
389.023	13.28
389.231	13.17
389.438	13.27
389.646	13.15
389.853	13.45
390.061	13.4
390.268	13.45
390.475	13.29
390.683	13.06
390.89	12.81
391.098	12.75
391.305	12.61
391.512	12.53
391.72	12.46
391.927	12.47
392.135	12.32
392.342	12.32
392.549	12.28
392.756	12.17
392.964	12.24
393.171	12.22
393.378	12.15
393.586	12.27
393.793	12.46
394	12.49
394.207	12.54
394.414	12.43
394.622	12.41
394.829	12.44
395.036	12.69
395.243	12.68
395.45	12.85
395.657	12.93
395.864	12.74
396.072	12.56
396.279	12.65
396.486	12.43
396.693	12.63
396.9	12.71
397.107	12.63
397.314	12.59
397.521	12.84
397.728	12.67
397.935	12.84
398.142	13.07
398.349	13.19
398.556	12.93
398.763	13
398.97	12.79
399.177	12.81
399.383	12.86
399.59	12.79
399.797	12.5
400.004	12.52
400.211	12.38
400.418	12.22
400.625	12.11
400.831	12.13
401.038	12.33
401.245	12.51
401.452	12.67
401.658	12.64
401.865	12.61
402.072	12.8
402.279	12.73
402.485	12.7
402.692	12.65
402.899	12.8
403.105	12.96
403.312	12.68
403.519	12.49
403.725	12.38
403.932	12.45
404.138	12.54
404.345	12.57
404.552	12.61
404.758	12.62
404.965	12.67
405.171	12.47
405.378	12.26
405.584	12.42
405.791	12.56
405.997	12.42
406.204	12.49
406.41	12.58
406.617	12.54
406.823	12.67
407.029	12.76
407.236	12.74
407.442	13
407.649	13.14
407.855	13.15
408.061	13.12
408.268	13.09
408.474	13
408.68	12.98
408.887	13.01
409.093	12.84
409.299	12.82
409.505	12.71
409.712	12.5
409.918	12.59
410.124	12.65
410.33	12.79
410.537	13.03
410.743	12.96
410.949	12.67
411.155	12.64
411.361	12.8
411.567	12.66
411.773	12.85
411.98	12.92
412.186	12.75
412.392	12.66
412.598	12.43
412.804	12.25
413.01	12.17
413.216	12.53
413.422	12.36
413.628	12.4
413.834	12.56
414.04	12.52
414.246	12.61
414.452	12.66
414.658	12.63
414.864	12.65
415.07	12.77
415.275	12.76
415.481	12.58
415.687	12.82
415.893	12.77
416.099	12.68
416.305	12.62
416.511	12.58
416.716	12.44
416.922	12.6
417.128	12.61
417.334	12.54
417.539	12.6
417.745	12.69
417.951	12.55
418.157	12.54
418.362	12.51
418.568	12.49
418.774	12.46
418.979	12.55
419.185	12.41
419.391	12.41
419.596	12.46
419.802	12.46
420.008	12.4
420.213	11.81
420.419	11.84
420.624	11.84
420.83	11.91
421.035	11.89
421.241	11.87
421.446	11.91
421.652	11.91
421.857	11.91
422.063	11.92
422.268	12
422.474	12.53
422.679	12.55
422.885	12.57
423.09	12.56
423.295	12.56
423.501	12.64
423.706	12.63
423.911	12.64
424.117	12.63
424.322	12.68
424.527	12.58
424.733	12.64
424.938	12.58
425.143	12.62
425.349	12.61
425.554	12.64
425.759	12.6
425.964	12.6
426.169	12.59
426.375	12.55
426.58	12.45
426.785	12.4
426.99	12.38
427.195	12.46
427.4	12.34
427.605	12.44
427.811	12.44
428.016	12.45
428.221	12.44
428.426	12.42
428.631	12.46
428.836	12.53
429.041	12.7
429.246	12.68
429.451	12.65
429.656	12.63
429.861	12.51
430.066	12.51
430.271	12.48
430.476	12.55
430.681	12.63
430.886	12.6
431.09	12.57
431.295	12.66
431.5	12.74
431.705	12.77
431.91	12.73
432.115	12.76
432.32	12.85
432.524	12.87
432.729	12.95
432.934	12.94
433.139	12.97
433.343	12.97
433.548	12.88
433.753	12.95
433.958	12.99
434.162	13.1
434.367	13.06
434.572	12.96
434.776	12.98
434.981	12.92
435.186	12.95
435.39	12.97
435.595	12.91
435.799	12.83
436.004	12.73
436.209	12.67
436.413	12.81
436.618	12.86
436.822	12.86
437.027	12.84
437.231	12.77
437.436	12.75
437.64	12.61
437.845	12.72
438.049	12.81
438.253	12.8
438.458	12.77
438.662	12.66
438.867	12.69
439.071	12.7
439.275	12.7
439.48	12.7
439.684	12.65
439.888	12.73
440.093	12.68
440.297	12.59
440.501	12.56
440.706	12.53
440.91	12.6
441.114	12.59
441.318	12.62
441.523	12.7
441.727	12.74
441.931	12.73
442.135	12.72
442.339	12.78
442.543	12.79
442.748	12.88
442.952	12.88
443.156	12.75
443.36	12.89
443.564	12.97
443.768	12.91
443.972	12.88
444.176	12.94
444.38	12.9
444.584	12.95
444.788	13.01
444.992	12.99
445.196	12.99
445.4	13.14
445.604	13.02
445.808	12.97
446.012	12.89
446.216	12.97
446.42	12.97
446.624	12.99
446.828	12.93
447.032	12.92
447.235	12.89
447.439	12.8
447.643	12.73
447.847	12.7
448.051	12.7
448.254	12.81
448.458	12.78
448.662	12.79
448.866	12.78
449.069	12.77
449.273	12.79
449.477	12.81
449.681	12.93
449.884	12.93
450.088	13
450.292	13.04
450.495	13.04
450.699	13.01
450.902	12.99
451.106	12.93
451.31	13.04
451.513	13.09
451.717	13.06
451.92	12.96
452.124	12.87
452.327	12.87
452.531	12.78
452.734	12.73
452.938	12.77
453.141	12.82
453.345	12.8
453.548	12.7
453.752	12.72
453.955	12.71
454.158	12.8
454.362	12.87
454.565	12.85
454.769	12.8
454.972	12.83
455.175	12.79
455.379	12.79
455.582	12.95
455.785	13.03
455.988	12.91
456.192	12.94
456.395	12.93
456.598	12.94
456.801	12.85
457.005	12.95
457.208	12.91
457.411	12.95
457.614	12.91
457.817	12.84
458.021	12.78
458.224	12.81
458.427	12.82
458.63	12.84
458.833	12.81
459.036	12.78
459.239	12.82
459.442	12.8
459.645	12.81
459.848	12.77
460.051	12.76
460.254	12.73
460.457	12.74
460.66	12.77
460.863	12.71
461.066	12.73
461.269	12.87
461.472	12.85
461.675	12.88
461.878	12.81
462.081	12.83
462.284	12.91
462.486	12.97
462.689	13.04
462.892	12.98
463.095	13.03
463.298	13.01
463.5	12.95
463.703	12.9
463.906	12.9
464.109	12.91
464.311	12.89
464.514	12.87
464.717	12.83
464.92	12.88
465.122	12.94
465.325	13.06
465.528	13.02
465.73	13.01
465.933	13.04
466.135	13.04
466.338	13.12
466.541	13.17
466.743	13.04
466.946	13.04
467.148	12.91
467.351	12.84
467.553	12.89
467.756	12.98
467.958	12.98
468.161	13.01
468.363	13.03
468.566	13
468.768	12.92
468.971	13.09
469.173	13.16
469.375	13.3
469.578	13.37
469.78	13.29
469.983	13.25
470.185	13.26
470.387	13.32
470.59	13.32
470.792	13.4
470.994	13.51
471.196	13.55
471.399	13.62
471.601	13.51
471.803	13.61
472.005	13.63
472.208	13.67
472.41	13.67
472.612	13.63
472.814	13.62
473.016	13.56
473.218	13.5
473.421	13.34
473.623	13.25
473.825	13.23
474.027	13.23
474.229	13.22
474.431	13.16
474.633	13.25
474.835	13.24
475.037	13.31
475.239	13.31
475.441	13.34
475.643	13.5
475.845	13.46
476.047	13.44
476.249	13.44
476.451	13.48
476.653	13.44
476.855	13.28
477.057	13.26
477.258	13.35
477.46	13.39
477.662	13.42
477.864	13.42
478.066	13.41
478.268	13.54
478.469	13.5
478.671	13.4
478.873	13.46
479.075	13.53
479.276	13.53
479.478	13.46
479.68	13.42
479.882	13.45
480.083	13.41
480.285	13.48
480.487	13.46
480.688	13.43
480.89	13.51
481.091	13.46
481.293	13.42
481.495	13.42
481.696	13.35
481.898	13.36
482.099	13.29
482.301	13.24
482.502	13.24
482.704	13.22
482.905	13.22
483.107	13.18
483.308	13.18
483.51	13.18
483.711	13.16
483.913	13.14
484.114	13.12
484.315	13.11
484.517	13.15
484.718	13.14
484.92	13.12
485.121	13.11
485.322	13.18
485.524	13.2
485.725	13.17
485.926	13.2
486.127	13.24
486.329	13.21
486.53	13.22
486.731	13.19
486.932	13.17
487.134	13.19
487.335	13.21
487.536	13.18
487.737	13.18
487.938	13.23
488.139	13.25
488.341	13.28
488.542	13.35
488.743	13.38
488.944	13.43
489.145	13.5
489.346	13.48
489.547	13.45
489.748	13.47
489.949	13.51
490.15	13.5
490.351	13.48
490.552	13.47
490.753	13.45
490.954	13.45
491.155	13.42
491.356	13.39
491.557	13.44
491.758	13.45
491.959	13.43
492.159	13.44
492.36	13.43
492.561	13.48
492.762	13.51
492.963	13.5
493.164	13.49
493.364	13.49
493.565	13.46
493.766	13.43
493.967	13.49
494.167	13.48
494.368	13.55
494.569	13.63
494.769	13.61
494.97	13.69
495.171	13.72
495.371	13.72
495.572	13.81
495.773	13.94
495.973	13.99
496.174	13.94
496.375	13.95
496.575	13.92
496.776	13.88
496.976	13.88
497.177	13.86
497.377	13.99
497.578	13.99
497.778	14
497.979	13.96
498.179	13.98
498.38	14.04
498.58	14.09
498.78	14.1
498.981	14.11
499.181	14.1
499.382	14.11
499.582	13.99
499.782	14.09
499.983	14
500.183	13.98
500.383	13.94
500.584	13.9
500.784	13.91
500.984	13.89
501.184	13.96
501.385	14.09
501.585	14.08
501.785	14.13
501.985	14.08
502.185	14.15
502.386	14.35
502.586	14.46
502.786	14.47
502.986	14.49
503.186	14.53
503.386	14.45
503.586	14.42
503.786	14.42
503.987	14.49
504.187	14.58
504.387	14.53
504.587	14.43
504.787	14.38
504.987	14.43
505.187	14.52
505.387	14.57
505.587	14.7
505.786	14.72
505.986	14.69
506.186	14.74
506.386	14.72
506.586	14.83
506.786	14.87
506.986	15.01
507.186	14.96
507.386	14.92
507.585	14.86
507.785	14.78
507.985	14.8
508.185	14.8
508.384	14.8
508.584	14.81
508.784	14.82
508.984	14.83
509.183	14.71
509.383	14.85
509.583	14.91
509.782	14.88
509.982	14.96
510.182	14.94
510.381	15.08
510.581	14.98
510.781	14.98
510.98	14.93
511.18	14.96
511.379	15.01
511.579	15.01
511.778	15.05
511.978	15.18
512.177	15.17
512.377	15.3
512.576	15.27
512.776	15.38
512.975	15.49
513.175	15.62
513.374	15.62
513.573	15.69
513.773	15.71
513.972	15.69
514.172	15.69
514.371	15.76
514.57	15.66
514.77	15.6
514.969	15.59
515.168	15.61
515.367	15.65
515.567	15.75
515.766	15.73
515.965	15.73
516.164	15.76
516.364	15.79
516.563	15.77
516.762	15.85
516.961	15.93
517.16	15.98
517.359	15.97
517.559	15.97
517.758	15.92
517.957	16.01
518.156	15.98
518.355	15.97
518.554	15.99
518.753	16.1
518.952	16.16
519.151	16.21
519.35	16.28
519.549	16.35
519.748	16.37
519.947	16.41
520.146	16.48
520.345	16.62
520.544	16.72
520.743	16.78
520.942	16.87
521.141	16.93
521.339	16.93
521.538	16.97
521.737	17.05
521.936	17.1
522.135	17.19
522.333	17.2
522.532	17.17
522.731	17.18
522.93	17.21
523.129	17.23
523.327	17.23
523.526	17.23
523.725	17.23
523.923	17.27
524.122	17.33
524.321	17.37
524.519	17.36
524.718	17.43
524.917	17.43
525.115	17.45
525.314	17.43
525.512	17.46
525.711	17.56
525.909	17.56
526.108	17.55
526.306	17.52
526.505	17.55
526.703	17.6
526.902	17.6
527.1	17.58
527.299	17.61
527.497	17.66
527.696	17.62
527.894	17.57
528.092	17.58
528.291	17.56
528.489	17.57
528.688	17.55
528.886	17.56
529.084	17.58
529.283	17.62
529.481	17.62
529.679	17.63
529.877	17.68
530.076	17.76
530.274	17.8
530.472	17.89
530.67	17.96
530.869	18.04
531.067	18.09
531.265	18.17
531.463	18.21
531.661	18.25
531.859	18.28
532.057	18.27
532.255	18.34
532.454	18.39
532.652	18.42
532.85	18.47
533.048	18.5
533.246	18.49
533.444	18.49
533.642	18.57
533.84	18.63
534.038	18.67
534.236	18.78
534.434	18.78
534.632	18.82
534.83	18.87
535.027	18.91
535.225	18.98
535.423	19.13
535.621	19.2
535.819	19.24
536.017	19.29
536.215	19.3
536.412	19.38
536.61	19.45
536.808	19.53
537.006	19.61
537.203	19.67
537.401	19.67
537.599	19.69
537.797	19.7
537.994	19.69
538.192	19.77
538.39	19.92
538.587	19.98
538.785	20.02
538.983	20.06
539.18	20.1
539.378	20.18
539.575	20.26
539.773	20.3
539.97	20.39
540.168	20.47
540.366	20.48
540.563	20.49
540.761	20.47
540.958	20.56
541.155	20.56
541.353	20.56
541.55	20.59
541.748	20.66
541.945	20.64
542.143	20.7
542.34	20.71
542.537	20.79
542.735	20.81
542.932	20.88
543.129	20.91
543.327	21.01
543.524	21.09
543.721	21.15
543.919	21.28
544.116	21.48
544.313	21.63
544.51	21.82
544.708	22.01
544.905	22.21
545.102	22.38
545.299	22.5
545.496	22.7
545.693	22.88
545.891	22.99
546.088	22.99
546.285	23
546.482	22.96
546.679	22.94
546.876	22.79
547.073	22.71
547.27	22.65
547.467	22.61
547.664	22.51
547.861	22.4
548.058	22.32
548.255	22.32
548.452	22.38
548.649	22.39
548.846	22.47
549.043	22.57
549.24	22.62
549.437	22.67
549.633	22.73
549.83	22.74
550.027	22.88
550.224	23.09
550.421	23.07
550.618	22.94
550.814	22.96
551.011	22.99
551.208	22.96
551.405	22.9
551.601	22.93
551.798	22.9
551.995	22.84
552.191	22.8
552.388	22.71
552.585	22.71
552.781	22.81
552.978	22.77
553.175	22.73
553.371	22.65
553.568	22.78
553.764	22.77
553.961	22.79
554.157	22.81
554.354	22.88
554.55	22.91
554.747	23
554.943	23.01
555.14	23.03
555.336	23.11
555.533	23.27
555.729	23.26
555.926	23.39
556.122	23.55
556.318	23.66
556.515	23.57
556.711	23.53
556.907	23.44
557.104	23.42
557.3	23.53
557.496	23.48
557.693	23.56
557.889	23.65
558.085	23.58
558.281	23.52
558.478	23.46
558.674	23.59
558.87	23.62
559.066	23.69
559.262	23.71
559.459	23.68
559.655	23.68
559.851	23.67
560.047	23.71
560.243	23.77
560.439	23.73
560.635	23.89
560.831	23.99
561.027	24.16
561.223	24.22
561.419	24.42
561.615	24.53
561.811	24.59
562.007	24.55
562.203	24.55
562.399	24.63
562.595	24.73
562.791	24.73
562.987	24.66
563.183	24.65
563.379	24.73
563.575	24.75
563.771	24.73
563.966	24.77
564.162	24.83
564.358	24.81
564.554	24.57
564.75	24.63
564.945	24.67
565.141	24.63
565.337	24.62
565.533	24.61
565.728	24.52
565.924	24.52
566.12	24.59
566.315	24.63
566.511	24.71
566.707	24.97
566.902	25.04
567.098	24.98
567.293	25.09
567.489	25.14
567.684	25.19
567.88	25.25
568.076	25.39
568.271	25.43
568.467	25.42
568.662	25.34
568.858	25.34
569.053	25.24
569.248	25.31
569.444	25.37
569.639	25.42
569.835	25.37
570.03	25.47
570.225	25.32
570.421	25.32
570.616	25.31
570.812	25.41
571.007	25.36
571.202	25.41
571.397	25.37
571.593	25.31
571.788	25.34
571.983	25.3
572.178	25.29
572.374	25.38
572.569	25.31
572.764	25.38
572.959	25.3
573.154	25.34
573.35	25.3
573.545	25.31
573.74	25.32
573.935	25.25
574.13	25.34
574.325	25.37
574.52	25.48
574.715	25.51
574.91	25.56
575.105	25.6
575.3	25.73
575.495	25.82
575.69	25.97
575.885	26.17
576.08	26.27
576.275	26.36
576.47	26.42
576.665	26.49
576.86	26.71
577.055	26.83
577.25	27.02
577.444	27.14
577.639	27.27
577.834	27.39
578.029	27.37
578.224	27.51
578.418	27.7
578.613	27.86
578.808	27.92
579.003	27.95
579.197	28.01
579.392	28.03
579.587	28.04
579.781	28.09
579.976	28.12
580.171	28.19
580.365	28.21
580.56	28.24
580.755	28.25
580.949	28.2
581.144	28.14
581.338	28.32
581.533	28.46
581.727	28.53
581.922	28.6
582.116	28.69
582.311	28.71
582.505	28.73
582.7	28.75
582.894	28.76
583.089	28.89
583.283	29.07
583.478	29
583.672	28.86
583.866	28.87
584.061	28.92
584.255	29.03
584.449	29.08
584.644	29.21
584.838	29.37
585.032	29.44
585.226	29.49
585.421	29.52
585.615	29.53
585.809	29.71
586.003	29.73
586.198	29.69
586.392	29.67
586.586	29.88
586.78	29.98
586.974	29.83
587.168	29.71
587.363	29.64
587.557	29.63
587.751	29.47
587.945	29.44
588.139	29.38
588.333	29.4
588.527	29.35
588.721	29.1
588.915	28.95
589.109	28.92
589.303	29.13
589.497	29.18
589.691	29.16
589.885	29.33
590.079	29.32
590.273	29.4
590.466	29.45
590.66	29.56
590.854	29.61
591.048	29.74
591.242	29.87
591.436	29.88
591.629	30
591.823	30.04
592.017	30.02
592.211	30.27
592.404	30.37
592.598	30.28
592.792	30.15
592.986	30.28
593.179	30.24
593.373	30.22
593.567	30.04
593.76	29.91
593.954	29.97
594.147	30.03
594.341	29.78
594.535	29.68
594.728	29.62
594.922	29.58
595.115	29.45
595.309	29.33
595.502	29.12
595.696	29.09
595.889	29.12
596.083	29.05
596.276	28.92
596.47	29.11
596.663	29.1
596.856	29.11
597.05	29.14
597.243	29.23
597.437	29.31
597.63	29.54
597.823	29.74
598.017	29.83
598.21	29.92
598.403	30.05
598.596	29.95
598.79	30.06
598.983	30.36
599.176	30.43
599.369	30.56
599.563	30.56
599.756	30.62
599.949	30.57
600.142	30.56
600.335	30.73
600.528	30.82
600.722	30.87
600.915	30.74
601.108	30.62
601.301	30.75
601.494	30.47
601.687	30.54
601.88	30.57
602.073	30.69
602.266	30.67
602.459	30.48
602.652	30.43
602.845	30.42
603.038	30.58
603.231	30.6
603.424	30.47
603.617	30.52
603.809	30.45
604.002	30.3
604.195	30.26
604.388	30.25
604.581	30.25
604.774	30.33
604.966	30.29
605.159	30.21
605.352	30.23
605.545	30.28
605.737	30.41
605.93	30.54
606.123	30.64
606.316	30.62
606.508	30.82
606.701	30.97
606.894	31.13
607.086	31.33
607.279	31.6
607.471	31.71
607.664	31.92
607.857	32.25
608.049	32.58
608.242	33.02
608.434	33.48
608.627	34.05
608.819	34.87
609.012	35.9
609.204	36.94
609.397	37.97
609.589	39.12
609.782	40.54
609.974	41.67
610.166	42.99
610.359	44.25
610.551	45.52
610.743	46.63
610.936	47.62
611.128	48.22
611.32	48.76
611.513	49.18
611.705	49.45
611.897	49.28
612.09	49.25
612.282	48.87
612.474	48.49
612.666	47.95
612.858	47.38
613.051	46.66
613.243	45.94
613.435	45.1
613.627	44.47
613.819	43.87
614.011	43.33
614.203	42.54
614.395	41.98
614.588	41.39
614.78	40.86
614.972	40.24
615.164	39.55
615.356	39.12
615.548	38.73
615.74	38.34
615.932	38.11
616.124	37.56
616.315	37.28
616.507	37.02
616.699	36.77
616.891	36.47
617.083	36.11
617.275	36.04
617.467	35.97
617.659	35.97
617.85	35.63
618.042	35.3
618.234	35.35
618.426	35.54
618.618	35.5
618.809	35.43
619.001	35.47
619.193	35.62
619.384	35.54
619.576	35.15
619.768	35.16
619.959	35.3
620.151	35.2
620.343	35.36
620.534	35.12
620.726	35.06
620.917	35.02
621.109	35.17
621.301	35.05
621.492	35.17
621.684	35.44
621.875	35.26
622.067	35.34
622.258	35.79
622.45	35.64
622.641	35.62
622.832	35.96
623.024	36.02
623.215	35.79
623.407	35.85
623.598	35.84
623.789	35.89
623.981	36.07
624.172	35.99
624.363	35.71
624.555	35.52
624.746	35.62
624.937	35.44
625.129	35.33
625.32	35.27
625.511	35.11
625.702	35.09
625.893	34.98
626.085	34.81
626.276	34.8
626.467	34.77
626.658	34.79
626.849	34.67
627.04	34.52
627.231	34.57
627.422	34.61
627.614	34.66
627.805	34.73
627.996	34.8
628.187	34.95
628.378	35.01
628.569	35.08
628.76	35.4
628.951	35.66
629.142	35.97
629.332	36.27
629.523	36.54
629.714	36.79
629.905	36.97
630.096	37.08
630.287	37.13
630.478	37.16
630.669	37.11
630.859	37.11
631.05	37.09
631.241	37.08
631.432	36.94
631.623	36.85
631.813	36.74
632.004	36.55
632.195	36.38
632.385	36.31
632.576	36.18
632.767	36.21
632.957	35.88
633.148	35.66
633.339	35.47
633.529	35.31
633.72	35.18
633.91	34.98
634.101	34.84
634.292	34.68
634.482	34.63
634.673	34.67
634.863	34.65
635.054	34.78
635.244	34.76
635.435	34.77
635.625	34.79
635.815	34.83
636.006	34.82
636.196	34.81
636.387	34.8
636.577	34.73
636.767	34.67
636.958	34.61
637.148	34.55
637.338	34.64
637.529	34.6
637.719	34.77
637.909	34.68
638.099	34.91
638.29	34.97
638.48	34.98
638.67	34.97
638.86	35.1
639.05	35.13
639.241	35.16
639.431	35.32
639.621	35.35
639.811	35.16
640.001	35.24
640.191	35.11
640.381	35.27
640.571	35.54
640.761	35.56
640.951	35.33
641.141	35.51
641.331	35.59
641.521	35.54
641.711	35.62
641.901	35.77
642.091	36
642.281	36.05
642.471	35.81
642.661	35.84
642.851	35.97
643.041	36.29
643.231	36.22
643.42	36.44
643.61	36.37
643.8	36.33
643.99	36.17
644.18	36.01
644.369	36.13
644.559	36.13
644.749	36.22
644.939	36.12
645.128	35.93
645.318	36.3
645.508	36.13
645.697	36.23
645.887	36.12
646.076	36.2
646.266	36.12
646.456	35.93
646.645	36.13
646.835	35.93
647.024	36.03
647.214	35.96
647.403	35.63
647.593	35.63
647.782	35.5
647.972	35.62
648.161	35.71
648.351	35.84
648.54	36.31
648.73	36.5
648.919	36.66
649.108	36.68
649.298	36.89
649.487	37.06
649.677	36.92
649.866	37.24
650.055	37.39
650.244	37.4
650.434	37.51
650.623	37.16
650.812	37.09
651.002	36.84
651.191	37.06
651.38	36.9
651.569	36.91
651.758	37.01
651.947	36.78
652.137	36.64
652.326	36.55
652.515	36.41
652.704	36.65
652.893	36.61
653.082	36.7
653.271	36.48
653.46	36.57
653.649	36.4
653.838	36.66
654.027	36.57
654.216	36.3
654.405	36.36
654.594	36.05
654.783	36.1
654.972	35.89
655.161	36.04
655.35	36.18
655.539	36.32
655.728	36.14
655.916	35.91
656.105	35.85
656.294	36.13
656.483	36.34
656.672	36.41
656.86	35.98
657.049	35.96
657.238	36.01
657.427	35.77
657.615	35.43
657.804	35.58
657.993	35.33
658.181	35.17
658.37	35.1
658.559	34.92
658.747	34.84
658.936	34.95
659.125	34.79
659.313	34.68
659.502	34.71
659.69	34.86
659.879	34.93
660.067	35.16
660.256	35.43
660.444	35.42
660.633	35.5
660.821	35.79
661.01	35.95
661.198	36.22
661.387	36.47
661.575	36.62
661.763	36.72
661.952	36.83
662.14	37.04
662.328	36.95
662.517	37.28
662.705	37.17
662.893	37.25
663.082	37.21
663.27	37.39
663.458	37.49
663.646	37.97
663.834	38.12
664.023	38.27
664.211	38.27
664.399	38.31
664.587	38.12
664.775	38.36
664.963	38.51
665.152	38.49
665.34	38.58
665.528	38.34
665.716	38.08
665.904	38.04
666.092	37.76
666.28	37.62
666.468	37.73
666.656	37.87
666.844	37.73
667.032	37.51
667.22	37.61
667.408	37.53
667.596	37.59
667.784	37.39
667.971	37
668.159	37.09
668.347	37.09
668.535	37.11
668.723	37.01
668.911	37.2
669.098	37.23
669.286	37.04
669.474	37.1
669.662	37.12
669.849	37.28
670.037	37.86
670.225	37.86
670.413	37.97
670.6	38.24
670.788	38.32
670.976	38.07
671.163	38.14
671.351	38.43
671.538	38.48
671.726	38.7
671.913	38.5
672.101	38.43
672.289	38.48
672.476	38.4
672.664	38.33
672.851	38.41
673.039	38.71
673.226	38.73
673.413	38.62
673.601	38.84
673.788	38.78
673.976	38.8
674.163	38.82
674.35	38.93
674.538	39.11
674.725	38.99
674.912	38.72
675.1	38.65
675.287	38.63
675.474	38.6
675.662	38.41
675.849	38.02
676.036	38.36
676.223	38.43
676.411	38.48
676.598	38.56
676.785	38.66
676.972	38.96
677.159	38.74
677.346	38.89
677.533	38.86
677.721	38.93
677.908	38.96
678.095	38.65
678.282	38.52
678.469	37.92
678.656	37.66
678.843	37.63
679.03	37.56
679.217	37.42
679.404	37.22
679.591	37.18
679.778	36.99
679.964	37.01
680.151	37.1
680.338	36.84
680.525	37
680.712	36.91
680.899	37
681.086	36.93
681.272	36.98
681.459	37.02
681.646	36.93
681.833	37.11
682.02	37.01
682.206	36.88
682.393	36.95
682.58	37.15
682.766	37.44
682.953	37.49
683.14	37.64
683.326	37.93
683.513	38.33
683.7	38.79
683.886	38.62
684.073	39.28
684.259	39.26
684.446	39.58
684.632	39.8
684.819	39.55
685.005	39.59
685.192	39.37
685.378	39.65
685.565	39.78
685.751	39.69
685.938	39.78
686.124	39.58
686.31	39.78
686.497	39.85
686.683	39.68
686.87	39.97
687.056	39.79
687.242	40.02
687.429	39.6
687.615	39.09
687.801	39.17
687.987	39.09
688.174	38.83
688.36	38.88
688.546	38.66
688.732	38.61
688.918	38.56
689.105	38.67
689.291	38.71
689.477	39.04
689.663	38.9
689.849	38.73
690.035	38.63
690.221	39.07
690.407	38.98
690.593	38.96
690.779	38.96
690.965	38.98
691.151	39.02
691.337	39.08
691.523	38.96
691.709	39.65
691.895	39.7
692.081	40.03
692.267	39.54
692.453	39.75
692.639	39.93
692.825	40.29
693.011	40.36
693.196	40.59
693.382	40.53
693.568	40.38
693.754	40.23
693.94	40.34
694.125	40.4
694.311	40.39
694.497	40.25
694.682	40.18
694.868	39.92
695.054	39.75
695.239	39.33
695.425	39.38
695.611	39.6
695.796	39.37
695.982	39.25
696.168	38.83
696.353	38.94
696.539	38.84
696.724	38.72
696.91	38.53
697.095	38.27
697.281	38.28
697.466	38.23
697.652	37.88
697.837	38.02
698.023	37.79
698.208	37.87
698.393	37.72
698.579	37.72
698.764	37.78
698.949	37.69
699.135	37.74
699.32	37.6
699.505	37.52
699.691	37.74
699.876	37.44
700.061	37.6
700.246	37.62
700.432	37.69
700.617	37.63
700.802	37.63
700.987	37.87
701.172	37.97
701.358	38.41
701.543	38.56
701.728	38.64
701.913	38.87
702.098	39.06
702.283	39.41
702.468	39.61
702.653	40.11
702.838	40.59
703.023	41.17
703.208	41.71
703.393	41.47
703.578	41.67
703.763	42.23
703.948	42.65
704.133	42.91
704.318	43.14
704.503	43.58
704.688	43.68
704.873	44.28
705.057	44.47
705.242	44.92
705.427	45.81
705.612	45.97
705.797	46.37
705.981	46.58
706.166	46.74
706.351	47.05
706.536	47.48
706.72	47.7
706.905	47.67
707.09	47.67
707.274	47.72
707.459	47.61
707.644	47.94
707.828	47.43
708.013	47.57
708.197	47.51
708.382	47.71
708.567	47.43
708.751	47.16
708.936	46.71
709.12	46.65
709.305	46.41
709.489	46.09
709.673	45.8
709.858	46.11
710.042	45.79
710.227	45.79
710.411	45.58
710.596	45.48
710.78	45.39
710.964	45.34
711.149	45.19
711.333	45.31
711.517	45.18
711.702	45.42
711.886	45.39
712.07	45.35
712.254	45.4
712.438	45.49
712.623	45.16
712.807	45.26
712.991	44.9
713.175	44.82
713.359	44.11
713.544	44.08
713.728	43.58
713.912	43.47
714.096	43.31
714.28	42.99
714.464	42.42
714.648	42.22
714.832	42.05
715.016	41.67
715.2	41.31
715.384	41.15
715.568	40.89
715.752	40.76
715.936	40.31
716.12	39.72
716.304	39.5
716.488	39.41
716.671	39.83
716.855	39.55
717.039	39.94
717.223	39.99
717.407	40.41
717.59	40.58
717.774	40.68
717.958	40.45
718.142	40.7
718.325	40.94
718.509	40.92
718.693	40.23
718.877	40.3
719.06	40.15
719.244	40.09
719.428	39.93
719.611	40.25
719.795	40.09
719.978	40.24
720.162	40.48
720.345	40.37
720.529	40.56
720.713	41.06
720.896	41.31
721.08	41.44
721.263	41.83
721.446	41.82
721.63	41.39
721.813	42.03
721.997	42.13
722.18	42.21
722.364	42.65
722.547	42.36
722.73	42.22
722.914	42.28
723.097	42.38
723.28	41.47
723.464	41.32
723.647	41.35
723.83	40.5
724.013	40.66
724.197	40.57
724.38	40.27
724.563	40.86
724.746	40.76
724.929	40.83
725.112	40.96
725.296	41.53
725.479	41.74
725.662	41.59
725.845	41.6
726.028	41.51
726.211	41.72
726.394	41.65
726.577	41.16
726.76	41.15
726.943	40.85
727.126	40.53
727.309	40.69
727.492	40.73
727.675	40.95
727.858	41.1
728.041	41
728.224	40.8
728.407	40.26
728.589	40.57
728.772	40.85
728.955	40.88
729.138	40.61
729.321	40.4
729.503	40.53
729.686	40.45
729.869	40.62
730.052	40.67
730.234	40.97
730.417	41.16
730.6	40.75
730.782	40.35
730.965	40.27
731.148	40.55
731.33	40.37
731.513	40.1
731.695	40.1
731.878	40.03
732.061	40.09
732.243	40.16
732.426	40.49
732.608	40.65
732.791	40.81
732.973	40.9
733.156	40.88
733.338	40.87
733.52	41.01
733.703	41.24
733.885	41.38
734.068	41.43
734.25	40.9
734.432	41.21
734.615	41.42
734.797	41.67
734.979	41.88
735.162	42
735.344	42.54
735.526	42.71
735.708	42.45
735.891	42.48
736.073	42.36
736.255	42.9
736.437	43.01
736.619	42.83
736.802	43.11
736.984	42.96
737.166	43.4
737.348	43.89
737.53	43.82
737.712	44.19
737.894	43.82
738.076	43.98
738.258	43.65
738.44	43.39
738.622	43.37
738.804	42.97
738.986	43.22
739.168	43.19
739.35	42.63
739.532	42.67
739.714	42.25
739.896	42.88
740.078	42.39
740.259	42.74
740.441	42.66
740.623	42.35
740.805	41.92
740.987	42.02
741.168	41.96
741.35	42.18
741.532	42.29
741.714	43
741.895	42.69
742.077	43.8
742.259	44.17
742.44	44.3
742.622	44.97
742.804	45.23
742.985	45.43
743.167	45.59
743.348	45.02
743.53	44.59
743.711	44.17
743.893	44.64
744.075	43.77
744.256	43.25
744.438	43
744.619	42.89
744.8	43.33
744.982	42.92
745.163	43.31
745.345	44.03
745.526	44.88
745.707	44.86
745.889	44.34
746.07	44.68
746.252	45.51
746.433	46.13
746.614	46.86
746.795	47.19
746.977	47.77
747.158	47.28
747.339	47.15
747.52	47.07
747.702	46.88
747.883	47.3
748.064	47.67
748.245	46.83
748.426	46.01
748.607	46.12
748.788	45.8
748.97	45.68
749.151	45.2
749.332	45.49
749.513	45.45
749.694	45.97
749.875	45.45
750.056	44.57
750.237	45.62
750.418	45.84
750.599	45.12
750.78	44.39
750.96	43.59
751.141	43.5
751.322	42.96
751.503	42.93
751.684	42.36
751.865	43.37
752.046	43.5
752.226	42.7
752.407	42.8
752.588	43.57
752.769	44.29
752.949	44.82
753.13	45.18
753.311	45
753.492	45.02
753.672	45
753.853	43.95
754.034	44.37
754.214	43.81
754.395	43.95
754.575	42.79
754.756	42.66
754.937	42.55
755.117	43.2
755.298	43.85
755.478	43.57
755.659	43.74
755.839	44.19
756.02	44.51
756.2	44.95
756.381	45.42
756.561	45.48
756.741	45.36
756.922	45.02
757.102	43.74
757.283	44.14
757.463	44.41
757.643	44.61
757.823	43.81
758.004	43.17
758.184	43.16
758.364	42
758.545	42.16
758.725	41.79
758.905	40.96
759.085	40.59
759.265	39.21
759.446	37.8
759.626	37.36
759.806	37.19
759.986	36.98
760.166	36.14
760.346	35.74
760.526	35.37
760.706	34.67
760.886	35.53
761.066	36.03
761.246	36.52
761.426	36.71
761.606	35.99
761.786	35.42
761.966	35.16
762.146	35.08
762.326	35.37
762.506	35.56
762.686	36.17
762.866	35.65
763.046	35.52
763.225	35.28
763.405	34.79
763.585	35.17
763.765	35.92
763.945	36.19
764.124	36.52
764.304	36.91
764.484	37.03
764.664	37.17
764.843	37.55
765.023	37.87
765.203	38.15
765.382	39.39
765.562	39.69
765.741	39.81
765.921	40.2
766.101	40.38
766.28	40.49
766.46	40.35
766.639	40.68
766.819	41.46
766.998	41.51
767.178	41.54
767.357	41.57
767.537	41.83
767.716	42.6
767.896	43.14
768.075	43.54
768.254	43.78
768.434	44.39
768.613	44.67
768.792	44.12
768.972	44.81
769.151	45.53
769.33	46.16
769.51	46.49
769.689	46.04
769.868	46.18
770.047	46.15
770.226	46.47
770.406	46.54
770.585	46.22
770.764	46.02
770.943	46.15
771.122	45.89
771.301	45.02
771.48	44.89
771.66	44.36
771.839	43.98
772.018	44.41
772.197	44.48
772.376	44.44
772.555	44.63
772.734	45.7
772.913	45.89
773.092	46.86
773.271	46.94
773.449	47.52
773.628	48.86
773.807	48.59
773.986	48.32
774.165	48.51
774.344	48.52
774.523	48.3
774.701	47.63
774.88	46.73
775.059	45.63
775.238	46.55
775.417	46.1
775.595	44.84
775.774	45.58
775.953	45.77
776.131	45.39
776.31	45.97
776.489	47.3
776.667	47.67
776.846	48.84
777.025	49.3
777.203	48.97
777.382	49.05
777.56	49.06
777.739	48.3
777.917	48.12
778.096	48.2
778.274	47.56
778.453	47.01
778.631	47.1
778.81	45.83
778.988	45.75
779.166	46.53
779.345	46.18
779.523	47.65
779.702	48.61
779.88	49.33
780.058	48.96
780.237	48.78
780.415	48.74
780.593	47.86
780.771	47.5
780.95	47.66
781.128	46.86
781.306	47.22
781.484	45.92
781.662	45.66
781.841	45.33
782.019	44.93
782.197	45.54
782.375	45.25
782.553	46.49
782.731	47.61
782.909	47.46
783.087	47.74
783.265	47.85
783.443	47.8
783.621	47.57
783.799	47.89
783.977	48.82
784.155	48.14
784.333	48.01
784.511	48.05
784.689	47.55
784.867	47.13
785.045	46.83
785.223	46.67
785.4	47.16
785.578	47.83
785.756	47.54
785.934	46.89
786.112	46.24
786.289	46.97
786.467	46.4
786.645	46.55
786.823	45.47
787	45.26
787.178	45.07
787.356	44.25
787.533	43.1
787.711	42.93
787.889	44.01
788.066	43.76
788.244	42.19
788.421	41.79
788.599	42.28
788.776	43.22
788.954	43.42
789.131	43.26
789.309	44.19
789.486	44.36
789.664	44.16
789.841	42.67
790.019	42.89
790.196	43.26
790.373	43.68
790.551	43.31
790.728	43.62
790.906	43.59
791.083	44.25
791.26	44.55
791.437	44.05
791.615	44.47
791.792	44.69
791.969	46.05
792.146	47.65
792.324	47.56
792.501	47.35
792.678	47.65
792.855	47.42
793.032	47.64
793.209	47.96
793.387	48.56
793.564	47.93
793.741	48.65
793.918	47.71
794.095	47.17
794.272	47.34
794.449	46.66
794.626	47.11
794.803	47.91
794.98	46.38
795.157	44.76
795.334	44.37
795.511	44.37
795.688	43.29
795.864	44.33
796.041	44.17
796.218	44.54
796.395	44.67
796.572	44.08
796.749	43.01
796.925	43.42
797.102	42.84
797.279	42.22
797.456	42.92
797.632	42.97
797.809	43.11
797.986	42.25
798.162	41.41
798.339	41.44
798.516	41.27
798.692	41.66
798.869	41.91
799.046	42.38
799.222	43.07
799.399	43.48
799.575	44.07
799.752	43.04
799.928	44.1
800.105	44.47
800.281	44.92
800.458	44.41
800.634	44.64
800.811	44.31
800.987	46.2
801.163	45.51
801.34	45.21
801.516	45.9
801.692	45.56
801.869	44.42
802.045	43.83
802.221	43.98
802.398	44.62
802.574	44.32
802.75	44.82
802.926	43.62
803.103	45.75
803.279	45.21
803.455	43.82
803.631	44.37
803.807	45.42
803.983	47.15
804.16	46.28
804.336	45.64
804.512	45.31
804.688	45.57
804.864	45.37
805.04	44.32
805.216	43.83
805.392	44.76
805.568	44.16
805.744	42.71
805.92	40.67
806.096	42.42
806.272	44.05
806.448	43.69
806.623	43.93
806.799	43.4
806.975	43.67
807.151	43.84
807.327	43.88
807.503	43.84
807.678	44.85
807.854	45.29
808.03	44.76
808.206	43.35
808.381	44.57
808.557	43.88
808.733	43.92
808.908	43.9
809.084	42.95
809.26	43.07
809.435	43.97
809.611	44.83
809.787	45.76
809.962	45.41
810.138	45.75
810.313	44.99
810.489	44.81
810.664	45.12
810.84	45.74
811.015	47.74
811.191	48.57
811.366	48.04
811.542	47.71
811.717	46.12
811.892	45.46
812.068	46.25
812.243	45.63
812.419	46.29
812.594	43.92
812.769	42.68
812.944	41.2
813.12	40.44
813.295	42.36
813.47	41.19
813.645	42.91
813.821	44.17
813.996	42.81
814.171	43.44
814.346	42.46
814.521	43.93
814.697	43.47
814.872	44.01
815.047	44.07
815.222	42.73
815.397	42.32
815.572	41.07
815.747	40.59
815.922	40
816.097	40.08
816.272	40.16
816.447	40.84
816.622	41.73
816.797	40.97
816.972	40.37
817.147	39.64
817.322	40.46
817.496	40.87
817.671	39.51
817.846	38.43
818.021	37.9
818.196	38.44
818.371	38.27
818.545	37.61
818.72	38.41
818.895	37.96
819.069	37.56
819.244	37.46
819.419	36.43
819.594	36.57
819.768	37.34
819.943	37.74
820.117	36.94
820.292	35.56
820.467	35.36
820.641	34.11
820.816	33.15
820.99	32.47
821.165	31.56
821.339	31.47
821.514	31.13
821.688	30.55
821.863	30
822.037	29.83
822.212	29.88
822.386	29.56
822.56	29.55
822.735	29.63
822.909	29.56
823.084	29.63
823.258	29.4
823.432	29.5
823.606	29.5
823.781	29.88
823.955	29.82
824.129	29.85
824.303	29.97
824.478	29.85
824.652	29.81
824.826	30
825	29.88
825.174	30.08
825.348	30.62
825.523	31.21
825.697	30.61
825.871	30.97
826.045	31.31
826.219	31.16
826.393	31.58
826.567	31.49
826.741	31.38
826.915	31.75
827.089	31.76
827.263	31.08
827.437	30.9
827.611	31.47
827.784	31.54
827.958	31.27
828.132	31.73
828.306	31.54
828.48	31.91
828.654	32.35
828.827	32.29
829.001	33.07
829.175	33.56
829.349	34.43
829.522	34.1
829.696	34.1
829.87	35.42
830.044	36.08
830.217	36.72
830.391	37.17
830.565	37.69
830.738	38.59
830.912	38.42
831.085	38.79
831.259	39.15
831.432	38.51
831.606	39.26
831.779	37.85
831.953	36.76
832.126	36.67
832.3	36.59
832.473	35.94
832.647	36.14
832.82	35.28
832.994	35.35
833.167	34.7
833.34	34.53
833.514	33.57
833.687	33.37
833.86	33.38
834.034	33.57
834.207	33.27
834.38	33.76
834.553	33.08
834.727	33.1
834.9	32.29
835.073	31.84
835.246	32.42
835.419	32.66
835.593	32.77
835.766	33.3
835.939	33.58
836.112	34.61
836.285	34.6
836.458	35.34
836.631	36.28
836.804	37.8
836.977	39.79
837.15	39.8
837.323	41.3
837.496	43.11
837.669	44.99
837.842	45.14
838.015	44.12
838.188	43.95
838.361	43.64
838.533	43.67
838.706	43.37
838.879	41.28
839.052	41.96
839.225	40.56
839.398	39.98
839.57	37.7
839.743	36.5
839.916	37.27
840.088	38.3
840.261	38.61
840.434	37.13
840.607	37.41
840.779	38.01
840.952	38.28
841.124	39.59
841.297	40.36
841.47	38.88
841.642	40.71
841.815	39.94
841.987	41.26
842.16	41.15
842.332	41.32
842.505	44.75
842.677	47.41
842.85	47.43
843.022	46.09
843.194	45.65
843.367	49.3
843.539	49.63
843.712	50.56
843.884	51.12
844.056	52.62
844.229	54.8
844.401	50.15
844.573	50.39
844.745	50.14
844.918	53.49
845.09	53.51
845.262	51.52
845.434	50.96
845.606	52.53
845.779	50.19
845.951	50.46
846.123	50.77
846.295	50.68
846.467	46.77
846.639	48.95
846.811	47.39
846.983	44.93
847.155	45.78
847.327	42.64
847.499	37.59
847.671	39.55
847.843	38.77
848.015	39.49
848.187	41.59
848.359	40.92
848.531	39.93
848.703	40.08
848.875	42.72
849.047	41.81
849.218	44.55
849.39	48.33
849.562	46.08
849.734	48.1
849.905	50.27
850.077	50.29
850.249	50.46
850.421	48.15
850.592	51.05
850.764	52.99
850.936	54.31
851.107	55.59
851.279	56.81
851.451	57.61
851.622	55.29
851.794	54.22
851.965	49.37
852.137	48.07
852.308	49.42
852.48	47.57
852.651	47.03
852.823	50.22
852.994	50.05
853.166	49.58
853.337	47.05
853.509	48.68
853.68	45.42
853.851	49.94
854.023	52.64
854.194	53.42
854.365	51.56
854.537	51.1
854.708	49.16
854.879	44.75
855.05	44.14
855.222	45.05
855.393	43.78
855.564	50.27
855.735	47.36
855.906	49.76
856.078	49
856.249	53.86
856.42	48.95
856.591	50.43
856.762	54
856.933	49.6
857.104	48.09
857.275	50.85
857.446	49.31
857.617	50.95
857.788	52.59
857.959	56.11
858.13	52.2
858.301	56.04
858.472	51.97
858.643	50.39
858.814	55.23
858.985	60.2
859.155	54.74
859.326	56.81
859.497	57.05
859.668	55.26
859.839	53.1
860.009	49.56
860.18	47.6
860.351	46.74
860.522	47.14
860.692	45.18
860.863	40.73
861.034	37.98
861.204	32.59
861.375	34.13
861.546	30.2
861.716	28.58
861.887	33.81
862.057	37.78
862.228	41.53
862.398	42.94
862.569	48.51
862.739	49.45
862.91	53.85
863.08	59.91
863.251	60.45
863.421	63.97
863.592	62.68
863.762	57.01
863.932	54.18
864.103	51.9
864.273	49.07
864.443	45.83
864.614	45.33
864.784	44.73
864.954	44.91
865.125	39.65
865.295	39.55
865.465	38.41
865.635	44.62
865.805	44.69
865.976	47.55
866.146	46.61
866.316	49.3
866.486	50.57
866.656	54.12
866.826	51.66
866.996	54.97
867.166	53.94
867.336	56.53
867.506	55.49
867.676	52.88
867.846	48.67
868.016	55.03
868.186	52.69
868.356	53.64
868.526	53.09
868.696	49.73
868.866	47.86
869.036	45.22
869.206	44.7
869.376	46.04
869.545	47.96
869.715	53.74
869.885	49.45
870.055	49.29
870.224	49.93
870.394	46.3
870.564	53.25
870.734	55.75
870.903	57.84
871.073	58.29
871.243	57.05
871.412	56.66
871.582	47.53
871.751	50.47
871.921	50.14
872.091	51.39
872.26	54.33
872.43	45.66
872.599	43.09
872.769	41.85
872.938	40.18
873.108	40.99
873.277	42.88
873.446	46.98
873.616	42.37
873.785	41.93
873.955	37.83
874.124	35.58
874.293	37.17
874.463	36.2
874.632	39.64
874.801	40.61
874.971	40.38
875.14	36.94
875.309	35.69
875.478	39.75
875.647	40.48
875.817	42.8
875.986	49.13
876.155	49.13
876.324	52.74
876.493	52.52
876.662	56.39
876.831	53.54
877	55
877.17	54.32
877.339	50.23
877.508	47.01
877.677	47.04
877.846	44.93
878.015	45.23
878.184	42.65
878.352	38.28
878.521	33.13
878.69	34.41
878.859	34.12
879.028	38.77
879.197	40.53
879.366	43.24
879.534	40.78
879.703	37.18
879.872	38.31
880.041	38.23
880.21	38.04
880.378	37.73
880.547	35.95
880.716	34.54
880.884	32.04
881.053	31.11
881.222	30.06
881.39	29.89
881.559	30.02
881.727	28.91
881.896	27.8
882.065	27.66
882.233	27.49
882.402	28.02
882.57	27.12
882.739	27.37
882.907	27.51
883.076	27.39
883.244	26.95
883.412	26.69
883.581	26.62
883.749	27.25
883.918	27.46
884.086	26.6
884.254	26.72
884.423	27.28
884.591	27.02
884.759	27.42
884.927	28.44
885.096	29.33
885.264	29.91
885.432	30.76
885.6	28.67
885.769	29.5
885.937	30.84
886.105	30.33
886.273	32.21
886.441	32.87
886.609	32.9
886.777	31.28
886.945	32.28
887.113	34.12
887.281	36.12
887.449	40.56
887.617	38.76
887.785	39.29
887.953	37.92
888.121	37.03
888.289	35.18
888.457	36.7
888.625	39.09
888.793	39.51
888.961	36.03
889.129	33.86
889.296	31.87
889.464	31.45
889.632	32.08
889.8	34.86
889.967	35.41
890.135	41.35
