Data from 2938737__Reflection_18-06-17-621.txt Node
Date: Sun Mar 15 18:06:17 EDT 2015
User: robert
Spectrometer: USB4E03002
Autoset integration time: false
Trigger mode: 4
Integration Time (sec): 1.000000E-1
Scans to average: 10
Electric dark correction enabled: false
Nonlinearity correction enabled: false
Boxcar width: 5
Stray light correction enabled: false
XAxis mode: Wavelengths
Stop averaging: false
Number of Pixels in Spectrum: 3648
>>>>>Begin Spectral Data<<<<<
177.575	129.85
177.794	189.82
178.014	217.52
178.233	266.95
178.452	396.88
178.672	370.67
178.891	501.19
179.11	464.74
179.33	592.01
179.549	644.44
179.768	1604.84
179.987	819.05
180.207	395.44
180.426	365.84
180.645	340.81
180.864	271.01
181.084	322.14
181.303	306.94
181.522	381.61
181.741	369.3
181.96	466.07
182.179	475
182.398	516.36
182.618	617.81
182.837	623.05
183.056	543.75
183.275	684.76
183.494	466.91
183.713	372.85
183.932	376.82
184.151	435.34
184.37	550.46
184.589	820.45
184.808	609.61
185.027	521.08
185.246	371.62
185.465	393.07
185.684	371.29
185.903	419.07
186.122	546.15
186.341	578.3
186.56	339.54
186.779	248.56
186.998	229.26
187.216	246.46
187.435	248.1
187.654	299.32
187.873	315.41
188.092	286.33
188.311	296.33
188.53	320.27
188.748	277.13
188.967	265.19
189.186	271.1
189.405	247.28
189.623	269.08
189.842	316.39
190.061	325.96
190.28	299.64
190.498	603.98
190.717	537.92
190.936	511.36
191.154	600.36
191.373	-7610
191.592	-7875
191.81	-1710.34
192.029	-1823.66
192.248	-1309.92
192.466	-1505.08
192.685	1790.27
192.904	615.26
193.122	512.66
193.341	474.81
193.559	439.86
193.778	378.17
193.996	436.48
194.215	354.13
194.433	274.92
194.652	250.22
194.87	197.36
195.089	266.13
195.307	287.56
195.526	453.92
195.744	373.37
195.963	562.2
196.181	1872.6
196.399	987.16
196.618	864.32
196.836	992.07
197.055	1643.01
197.273	1467.27
197.491	1077.12
197.71	662.88
197.928	354.49
198.146	376.97
198.365	302.5
198.583	237.11
198.801	275.29
199.019	331.97
199.238	262.1
199.456	306.42
199.674	332.8
199.892	349.45
200.111	320.71
200.329	367.67
200.547	411.61
200.765	554.49
200.983	410.02
201.202	321.72
201.42	289.46
201.638	752.15
201.856	528.74
202.074	839.26
202.292	678.38
202.51	1263.44
202.728	4645.83
202.946	-2807.14
203.165	-1311.9
203.383	-719.69
203.601	-621.23
203.819	-433.83
204.037	889.83
204.255	596.23
204.473	614.16
204.691	386.96
204.909	273.76
205.127	279.34
205.345	194.08
205.562	183.26
205.78	233.58
205.998	226.6
206.216	222.84
206.434	264.15
206.652	256.49
206.87	236.18
207.088	230.2
207.306	301.01
207.523	267.38
207.741	438.54
207.959	335.98
208.177	259.22
208.395	232.68
208.612	246.68
208.83	274.23
209.048	269.1
209.266	331.15
209.483	375.88
209.701	343.31
209.919	363.24
210.136	263.75
210.354	267.37
210.572	314.18
210.79	260.07
211.007	238.93
211.225	234.49
211.442	258.66
211.66	216.72
211.878	209.3
212.095	197.7
212.313	187.73
212.53	215.56
212.748	203.88
212.966	214.4
213.183	241.17
213.401	220.69
213.618	204.65
213.836	233
214.053	231.86
214.271	258.25
214.488	273.68
214.705	315.68
214.923	262.29
215.14	519.16
215.358	336.7
215.575	381.01
215.793	372.73
216.01	320.14
216.227	249.09
216.445	236.94
216.662	224.1
216.879	231.39
217.097	235.49
217.314	214.35
217.531	185.03
217.749	181.59
217.966	164.22
218.183	163.18
218.4	177.08
218.618	196.14
218.835	180.61
219.052	164.9
219.269	157.77
219.487	139.7
219.704	142.88
219.921	140.93
220.138	157.26
220.355	151.75
220.572	148.48
220.79	135.87
221.007	115.49
221.224	123.85
221.441	117.06
221.658	118.01
221.875	124.86
222.092	131.56
222.309	117.5
222.526	98.69
222.743	97.74
222.96	101.42
223.177	92.17
223.394	91.7
223.611	88.21
223.828	84.29
224.045	79.37
224.262	75.71
224.479	70.98
224.696	73.67
224.913	69.82
225.13	66.99
225.347	62.87
225.564	61.75
225.781	57.92
225.997	54.76
226.214	54.99
226.431	52.61
226.648	49.28
226.865	44.69
227.082	39.98
227.298	38.36
227.515	32.99
227.732	28.97
227.949	25.46
228.165	23.07
228.382	22.09
228.599	20.4
228.816	19.8
229.032	18.13
229.249	17.68
229.466	17.25
229.682	16.52
229.899	16.55
230.116	16.5
230.332	18.01
230.549	19.11
230.765	20.68
230.982	22.22
231.199	21.43
231.415	22.28
231.632	22.8
231.848	23.12
232.065	24.04
232.281	25.88
232.498	26.17
232.714	26.89
232.931	24.99
233.147	23.5
233.364	20.8
233.58	21.93
233.797	24.21
234.013	25.97
234.23	26.29
234.446	24.22
234.662	22.67
234.879	24.43
235.095	23.81
235.312	26.66
235.528	26.51
235.744	27.82
235.961	27.03
236.177	25.04
236.393	24.7
236.61	26.21
236.826	25.57
237.042	27.03
237.258	26.2
237.475	28.71
237.691	25.48
237.907	26.27
238.123	28.04
238.339	28.46
238.556	28.94
238.772	28.03
238.988	26.58
239.204	27.62
239.42	25.84
239.636	24.67
239.853	20.15
240.069	20.66
240.285	17.7
240.501	15.64
240.717	14.95
240.933	14.72
241.149	13.94
241.365	13.46
241.581	12.62
241.797	12.36
242.013	12.38
242.229	13.19
242.445	12.51
242.661	13.1
242.877	13.6
243.093	13
243.309	12.95
243.525	12.59
243.741	13.57
243.957	14.3
244.173	14.76
244.388	13.94
244.604	14.03
244.82	14.21
245.036	14.24
245.252	12.67
245.468	12.84
245.683	11.39
245.899	11.46
246.115	10.18
246.331	10.07
246.547	9.8
246.762	10.33
246.978	9.84
247.194	9.27
247.409	9.3
247.625	9.68
247.841	9.31
248.057	9.6
248.272	9.65
248.488	10.05
248.703	10.14
248.919	9.99
249.135	9.9
249.35	9.93
249.566	10.92
249.782	10.55
249.997	10.85
250.213	11.92
250.428	12.22
250.644	12.56
250.859	12.67
251.075	12.93
251.29	13.53
251.506	13.48
251.721	13.58
251.937	13.46
252.152	13.43
252.368	13.32
252.583	12.99
252.798	14.2
253.014	14.02
253.229	14.64
253.445	14.88
253.66	15.56
253.875	16.02
254.091	17.03
254.306	18.35
254.521	17.98
254.737	17.96
254.952	17.77
255.167	16.71
255.383	17.98
255.598	17.4
255.813	17.23
256.028	16.42
256.244	15.7
256.459	15.28
256.674	13.58
256.889	14.83
257.104	14
257.32	13.87
257.535	13.65
257.75	12.35
257.965	11.48
258.18	10.9
258.395	10.58
258.61	9.84
258.826	9.39
259.041	9.5
259.256	8.98
259.471	8.98
259.686	9.02
259.901	8.57
260.116	8.54
260.331	8.55
260.546	8.57
260.761	8.39
260.976	8.27
261.191	8.22
261.406	7.94
261.621	8.15
261.836	8.52
262.05	8.24
262.265	8.36
262.48	8.01
262.695	8.04
262.91	8.07
263.125	8.39
263.34	9.6
263.555	8.98
263.769	10.07
263.984	10.58
264.199	9.97
264.414	10.73
264.629	10.93
264.843	10.9
265.058	10.72
265.273	10.1
265.488	10.44
265.702	9.53
265.917	9.8
266.132	8.94
266.346	8.46
266.561	9.05
266.776	8.66
266.99	8.43
267.205	8.68
267.42	9.15
267.634	9.79
267.849	9.18
268.063	9.24
268.278	9.8
268.492	10.21
268.707	10.16
268.922	9.48
269.136	9.61
269.351	10.26
269.565	9.94
269.78	9.75
269.994	9.44
270.209	9.93
270.423	9.83
270.637	9.58
270.852	9.16
271.066	8.96
271.281	9.28
271.495	9.28
271.709	9.16
271.924	9.34
272.138	9.12
272.353	9.24
272.567	9.03
272.781	9.24
272.996	9.24
273.21	9.46
273.424	9.67
273.638	9.49
273.853	9.57
274.067	9.22
274.281	9.63
274.495	9.69
274.71	9.68
274.924	9.69
275.138	9.65
275.352	9.82
275.566	10.12
275.781	10.21
275.995	10.21
276.209	9.48
276.423	9.53
276.637	9.44
276.851	9.43
277.065	9.06
277.279	8.95
277.493	9.27
277.707	8.62
277.921	8.35
278.135	7.93
278.349	7.7
278.563	8.08
278.777	8.39
278.991	8.16
279.205	8.31
279.419	8.33
279.633	8.4
279.847	8.37
280.061	8.23
280.275	8.52
280.489	8.95
280.703	8.57
280.917	9.2
281.131	8.53
281.344	8.76
281.558	8.31
281.772	8.26
281.986	7.91
282.2	7.58
282.414	7.71
282.627	7.28
282.841	7.22
283.055	7.57
283.269	7.21
283.482	7.57
283.696	6.95
283.91	6.81
284.123	6.75
284.337	6.92
284.551	6.95
284.764	6.67
284.978	6.63
285.192	6.6
285.405	6.55
285.619	6.26
285.833	6.33
286.046	6.32
286.26	6.69
286.473	6.81
286.687	7.02
286.9	6.9
287.114	7.22
287.327	7.42
287.541	7.57
287.754	7.68
287.968	7.76
288.181	7.29
288.395	7.36
288.608	7.35
288.822	7.08
289.035	6.84
289.248	6.97
289.462	7.2
289.675	7.09
289.889	6.58
290.102	6.42
290.315	6.4
290.529	6.96
290.742	7.26
290.955	7.17
291.169	7.33
291.382	7.22
291.595	7.27
291.808	7.45
292.022	7.25
292.235	7.95
292.448	8.19
292.661	8.1
292.875	7.84
293.088	7.66
293.301	7.71
293.514	7.74
293.727	7.85
293.94	7.65
294.153	7.38
294.367	7.14
294.58	6.47
294.793	6.61
295.006	6.85
295.219	6.52
295.432	6.46
295.645	6.48
295.858	6.33
296.071	6.45
296.284	6.56
296.497	6.57
296.71	6.97
296.923	7.22
297.136	7.24
297.349	7.25
297.562	7.64
297.775	7.69
297.988	7.67
298.201	7.83
298.414	7.81
298.626	7.7
298.839	7.84
299.052	7.55
299.265	7.76
299.478	7.77
299.691	8.03
299.903	7.98
300.116	8.03
300.329	8.26
300.542	8.4
300.755	8.7
300.967	9.05
301.18	9.07
301.393	9.5
301.605	9.05
301.818	8.92
302.031	8.54
302.243	8.44
302.456	8.51
302.669	8.17
302.881	7.95
303.094	7.41
303.307	7.32
303.519	7.37
303.732	7.01
303.944	7.35
304.157	7.96
304.37	8.21
304.582	8.11
304.795	8.61
305.007	8.84
305.22	8.96
305.432	9.29
305.645	9.24
305.857	9.13
306.069	9.53
306.282	9.44
306.494	8.92
306.707	8.6
306.919	8.7
307.132	7.98
307.344	8.06
307.556	8.1
307.769	7.94
307.981	7.99
308.193	7.8
308.406	7.78
308.618	8.01
308.83	8.03
309.043	8.38
309.255	8.31
309.467	8.56
309.679	8.62
309.892	8.77
310.104	9.08
310.316	9.18
310.528	9.19
310.74	9.34
310.953	9.12
311.165	8.86
311.377	9.03
311.589	9.17
311.801	9.27
312.013	8.61
312.225	8.62
312.437	8.75
312.649	8.85
312.862	8.93
313.074	8.47
313.286	8.48
313.498	8.45
313.71	8.22
313.922	8.32
314.134	8.5
314.346	9.18
314.558	9.13
314.77	8.91
314.982	8.66
315.193	8.73
315.405	9.3
315.617	9.57
315.829	10.12
316.041	10.5
316.253	10.49
316.465	10.33
316.677	10.5
316.888	11.11
317.1	11.3
317.312	11.7
317.524	11.71
317.736	11.52
317.947	11.67
318.159	11.19
318.371	10.73
318.583	10.96
318.794	11.4
319.006	11.41
319.218	10.89
319.43	10.97
319.641	10.89
319.853	11.38
320.064	12
320.276	12.03
320.488	12.96
320.699	13.48
320.911	13.59
321.123	13.51
321.334	13.33
321.546	13.17
321.757	13.11
321.969	12.87
322.18	12.6
322.392	11.93
322.603	11.94
322.815	11.47
323.026	11.09
323.238	10.81
323.449	11.04
323.661	11.41
323.872	11.61
324.083	11.43
324.295	11.45
324.506	11.26
324.718	11.54
324.929	11.19
325.14	11.21
325.352	11.04
325.563	11.26
325.774	10.7
325.986	10.58
326.197	10.89
326.408	11.07
326.62	11.61
326.831	11.68
327.042	11.82
327.253	11.93
327.464	11.88
327.676	12.08
327.887	11.51
328.098	11.48
328.309	11.66
328.52	11.27
328.732	10.91
328.943	10.48
329.154	10.96
329.365	10.93
329.576	11.32
329.787	10.96
329.998	10.99
330.209	11.79
330.42	12.01
330.631	12.08
330.842	12.46
331.053	12.84
331.264	12.68
331.475	12.28
331.686	12.18
331.897	11.77
332.108	12.48
332.319	12.25
332.53	12.18
332.741	12.11
332.952	12.16
333.163	12.05
333.374	12.16
333.585	12.25
333.795	12.28
334.006	12.04
334.217	11.9
334.428	11.97
334.639	12.33
334.849	12.15
335.06	12.06
335.271	11.68
335.482	11.77
335.692	11.53
335.903	11.37
336.114	11.44
336.325	11.57
336.535	11.68
336.746	11.52
336.957	11.61
337.167	11.54
337.378	11.72
337.589	11.94
337.799	11.8
338.01	12.17
338.22	12.56
338.431	12.19
338.642	12.38
338.852	12.65
339.063	12.51
339.273	12.41
339.484	12.43
339.694	12.38
339.905	12.49
340.115	12.36
340.326	11.71
340.536	11.57
340.746	12.06
340.957	11.81
341.167	11.6
341.378	11.58
341.588	11.5
341.799	11.44
342.009	11.36
342.219	11.11
342.43	11.03
342.64	11.2
342.85	10.88
343.061	10.37
343.271	10.59
343.481	10.53
343.691	10.43
343.902	10.01
344.112	10
344.322	9.91
344.532	9.8
344.743	9.8
344.953	10.22
345.163	10.34
345.373	10.65
345.583	10.68
345.793	10.78
346.004	10.86
346.214	10.77
346.424	10.75
346.634	10.6
346.844	10.32
347.054	10.37
347.264	10.34
347.474	10.67
347.684	10.61
347.894	10.26
348.104	10.29
348.314	10.35
348.524	10.47
348.734	10.66
348.944	10.37
349.154	10.79
349.364	11.45
349.574	10.99
349.784	10.96
349.994	11.22
350.204	11.1
350.413	10.98
350.623	10.93
350.833	11.38
351.043	11.23
351.253	11.92
351.463	11.85
351.672	11.04
351.882	10.99
352.092	10.89
352.302	10.6
352.511	10.92
352.721	11.16
352.931	11.38
353.141	11.38
353.35	11.51
353.56	10.97
353.77	10.54
353.979	10.68
354.189	11.01
354.399	10.7
354.608	10.57
354.818	10.29
355.027	10
355.237	9.85
355.447	9.52
355.656	9.36
355.866	9.22
356.075	9.51
356.285	9.65
356.494	9.15
356.704	9.25
356.913	9.58
357.123	9.72
357.332	9.61
357.542	9.57
357.751	9.71
357.96	9.58
358.17	9.76
358.379	9.98
358.589	9.59
358.798	9.69
359.007	9.64
359.217	9.25
359.426	9.02
359.635	9.15
359.845	8.82
360.054	8.71
360.263	8.76
360.472	8.9
360.682	8.47
360.891	8.56
361.1	8.63
361.309	8.54
361.519	8.44
361.728	8.55
361.937	8.46
362.146	8.39
362.355	8.31
362.564	8.37
362.774	8.39
362.983	8.45
363.192	8.4
363.401	8.31
363.61	8.42
363.819	8.58
364.028	8.69
364.237	8.58
364.446	8.68
364.655	8.75
364.864	8.58
365.073	8.47
365.282	8.63
365.491	8.55
365.7	8.64
365.909	8.64
366.118	8.77
366.327	8.6
366.536	8.64
366.745	8.91
366.954	9.14
367.162	9.52
367.371	9.53
367.58	9.59
367.789	9.91
367.998	9.86
368.207	9.87
368.415	9.72
368.624	9.72
368.833	10.14
369.042	10.03
369.25	9.9
369.459	9.58
369.668	9.32
369.877	9.13
370.085	9.05
370.294	9.03
370.503	9.12
370.711	9.16
370.92	9.01
371.129	8.5
371.337	8.46
371.546	8.3
371.754	8.14
371.963	8.41
372.171	8.57
372.38	8.59
372.589	8.51
372.797	8.59
373.006	8.71
373.214	8.88
373.423	8.86
373.631	8.79
373.84	8.59
374.048	8.92
374.256	8.75
374.465	8.82
374.673	8.83
374.882	8.92
375.09	8.74
375.298	8.4
375.507	8.17
375.715	8.26
375.923	8.3
376.132	8.71
376.34	8.34
376.548	8.41
376.757	8.03
376.965	7.99
377.173	7.65
377.381	7.54
377.59	7.62
377.798	7.89
378.006	7.75
378.214	7.76
378.423	7.4
378.631	7.51
378.839	7.25
379.047	7.42
379.255	7.27
379.463	7.21
379.671	6.84
379.879	6.71
380.088	6.6
380.296	6.62
380.504	6.6
380.712	6.82
380.92	7.02
381.128	7.17
381.336	7.26
381.544	7.39
381.752	7.65
381.96	7.91
382.168	7.93
382.376	7.81
382.584	7.96
382.791	8.18
382.999	8.07
383.207	7.69
383.415	7.92
383.623	7.74
383.831	7.64
384.039	7.85
384.247	7.81
384.454	7.99
384.662	7.87
384.87	7.85
385.078	7.6
385.285	7.64
385.493	8.1
385.701	7.79
385.909	7.89
386.116	7.81
386.324	7.6
386.532	7.56
386.739	7.38
386.947	7.37
387.155	7.48
387.362	7.67
387.57	7.53
387.778	7.29
387.985	7.18
388.193	7.16
388.4	6.84
388.608	7
388.816	6.84
389.023	6.92
389.231	6.94
389.438	6.48
389.646	6.29
389.853	6.35
390.061	6.27
390.268	6.46
390.475	6.24
390.683	6.42
390.89	6.26
391.098	6.41
391.305	6.17
391.512	6.36
391.72	6.35
391.927	6.22
392.135	6.07
392.342	6.02
392.549	5.93
392.756	5.92
392.964	5.89
393.171	5.9
393.378	5.83
393.586	5.87
393.793	5.6
394	5.72
394.207	5.82
394.414	6.04
394.622	5.92
394.829	5.97
395.036	6.07
395.243	6.1
395.45	6.12
395.657	6.15
395.864	6.14
396.072	6.31
396.279	6.33
396.486	6.23
396.693	6.14
396.9	6.32
397.107	6.22
397.314	6.28
397.521	6.32
397.728	6.3
397.935	6.5
398.142	6.4
398.349	6.13
398.556	6.24
398.763	6.19
398.97	6.03
399.177	5.89
399.383	5.93
399.59	5.81
399.797	5.79
400.004	5.53
400.211	5.34
400.418	5.62
400.625	5.68
400.831	5.71
401.038	5.7
401.245	5.66
401.452	5.6
401.658	5.57
401.865	5.61
402.072	5.53
402.279	5.7
402.485	5.83
402.692	5.69
402.899	5.85
403.105	5.73
403.312	5.67
403.519	5.68
403.725	5.6
403.932	5.36
404.138	5.29
404.345	5.39
404.552	5.19
404.758	5.04
404.965	4.93
405.171	4.77
405.378	4.71
405.584	4.84
405.791	4.93
405.997	5
406.204	5.21
406.41	5.12
406.617	5.04
406.823	5.27
407.029	5.46
407.236	5.8
407.442	5.93
407.649	5.83
407.855	5.71
408.061	5.65
408.268	5.72
408.474	5.76
408.68	5.96
408.887	5.94
409.093	5.77
409.299	5.6
409.505	5.38
409.712	5.31
409.918	5.26
410.124	5.27
410.33	5.29
410.537	5.34
410.743	5.17
410.949	4.9
411.155	4.93
411.361	4.9
411.567	4.7
411.773	4.64
411.98	4.46
412.186	4.64
412.392	4.99
412.598	4.85
412.804	4.72
413.01	4.81
413.216	4.9
413.422	4.96
413.628	5.11
413.834	5.18
414.04	5.38
414.246	5.62
414.452	5.47
414.658	4.94
414.864	5.1
415.07	5.24
415.275	5.27
415.481	5.35
415.687	5.18
415.893	5.16
416.099	5.19
416.305	4.97
416.511	4.78
416.716	4.85
416.922	5.1
417.128	5.17
417.334	5.01
417.539	4.83
417.745	4.81
417.951	4.82
418.157	4.7
418.362	4.65
418.568	4.58
418.774	4.49
418.979	4.27
419.185	4.09
419.391	3.83
419.596	3.78
419.802	3.87
420.008	3.85
420.213	3.91
420.419	4.01
420.624	3.99
420.83	4
421.035	4.02
421.241	4.12
421.446	4.2
421.652	4.21
421.857	4.21
422.063	4.29
422.268	4.22
422.474	4.16
422.679	4.06
422.885	4.08
423.09	4.06
423.295	4.12
423.501	4.13
423.706	4.1
423.911	4.12
424.117	4.14
424.322	4.09
424.527	4.1
424.733	4.05
424.938	4.15
425.143	4.19
425.349	4.22
425.554	4.25
425.759	4.3
425.964	4.28
426.169	4.34
426.375	4.39
426.58	4.41
426.785	4.45
426.99	4.51
427.195	4.39
427.4	4.37
427.605	4.47
427.811	4.41
428.016	4.33
428.221	4.38
428.426	4.51
428.631	4.34
428.836	4.28
429.041	4.35
429.246	4.33
429.451	4.34
429.656	4.44
429.861	4.3
430.066	4.36
430.271	4.38
430.476	4.4
430.681	4.25
430.886	4.25
431.09	4.27
431.295	4.2
431.5	4.24
431.705	4.24
431.91	4.05
432.115	4.05
432.32	4.03
432.524	3.98
432.729	3.96
432.934	4.01
433.139	4.04
433.343	3.99
433.548	3.95
433.753	4.03
433.958	4.16
434.162	4.23
434.367	4.27
434.572	4.17
434.776	4.29
434.981	4.3
435.186	4.32
435.39	4.32
435.595	4.46
435.799	4.47
436.004	4.35
436.209	4.3
436.413	4.2
436.618	4.17
436.822	4.22
437.027	4.22
437.231	4.21
437.436	4.03
437.64	4.08
437.845	3.95
438.049	3.85
438.253	3.91
438.458	3.83
438.662	3.85
438.867	3.92
439.071	3.95
439.275	3.91
439.48	3.85
439.684	3.99
439.888	3.95
440.093	3.93
440.297	3.96
440.501	3.91
440.706	4.01
440.91	4.06
441.114	3.96
441.318	3.94
441.523	3.81
441.727	3.93
441.931	3.93
442.135	3.93
442.339	3.98
442.543	4.05
442.748	4.01
442.952	3.96
443.156	4.01
443.36	4.1
443.564	4.08
443.768	4.28
443.972	4.22
444.176	4.21
444.38	4.18
444.584	4.23
444.788	4.21
444.992	4.3
445.196	4.22
445.4	4.08
445.604	3.96
445.808	3.98
446.012	3.91
446.216	3.85
446.42	3.78
446.624	3.85
446.828	3.84
447.032	3.81
447.235	3.74
447.439	3.75
447.643	3.77
447.847	3.87
448.051	3.93
448.254	4
448.458	4.04
448.662	4.12
448.866	3.95
449.069	3.86
449.273	3.86
449.477	3.89
449.681	3.93
449.884	4.01
450.088	4.02
450.292	3.96
450.495	3.86
450.699	3.86
450.902	3.89
451.106	4.02
451.31	4.11
451.513	4.14
451.717	4.13
451.92	4.18
452.124	4.1
452.327	4.04
452.531	4
452.734	3.97
452.938	4.03
453.141	3.96
453.345	4.01
453.548	4.05
453.752	4.09
453.955	4.13
454.158	4.07
454.362	4.23
454.565	4.21
454.769	4.37
454.972	4.38
455.175	4.27
455.379	4.24
455.582	4.28
455.785	4.13
455.988	4.02
456.192	3.94
456.395	3.88
456.598	3.74
456.801	3.82
457.005	3.73
457.208	3.76
457.411	3.74
457.614	3.7
457.817	3.55
458.021	3.54
458.224	3.64
458.427	3.66
458.63	3.72
458.833	3.71
459.036	3.64
459.239	3.64
459.442	3.72
459.645	3.79
459.848	3.85
460.051	3.93
460.254	4
460.457	3.94
460.66	3.96
460.863	3.92
461.066	3.92
461.269	3.95
461.472	4.01
461.675	3.96
461.878	3.95
462.081	4.03
462.284	3.93
462.486	3.91
462.689	3.97
462.892	4
463.095	4.18
463.298	4.33
463.5	4.39
463.703	4.27
463.906	4.24
464.109	4.24
464.311	4.12
464.514	4.27
464.717	4.4
464.92	4.39
465.122	4.43
465.325	4.23
465.528	4.09
465.73	4.1
465.933	3.98
466.135	4.02
466.338	3.98
466.541	4.01
466.743	3.95
466.946	3.9
467.148	3.88
467.351	3.75
467.553	3.69
467.756	3.72
467.958	3.64
468.161	3.76
468.363	3.63
468.566	3.74
468.768	3.66
468.971	3.67
469.173	3.55
469.375	3.53
469.578	3.55
469.78	3.57
469.983	3.56
470.185	3.71
470.387	3.75
470.59	3.91
470.792	3.81
470.994	3.94
471.196	4.01
471.399	4.06
471.601	4.05
471.803	4.06
472.005	4.15
472.208	4.15
472.41	4.12
472.612	4.17
472.814	4.05
473.016	4.17
473.218	4.23
473.421	4.13
473.623	4.22
473.825	4.34
474.027	4.5
474.229	4.45
474.431	4.46
474.633	4.42
474.835	4.38
475.037	4.4
475.239	4.23
475.441	4.13
475.643	4.15
475.845	4.14
476.047	4.02
476.249	3.8
476.451	3.87
476.653	3.74
476.855	3.69
477.057	3.59
477.258	3.51
477.46	3.64
477.662	3.67
477.864	3.72
478.066	3.68
478.268	3.79
478.469	3.9
478.671	3.83
478.873	4.04
479.075	4.1
479.276	4.12
479.478	4.21
479.68	4.11
479.882	3.99
480.083	3.92
480.285	3.94
480.487	3.9
480.688	3.86
480.89	3.87
481.091	3.74
481.293	3.66
481.495	3.63
481.696	3.61
481.898	3.55
482.099	3.55
482.301	3.52
482.502	3.44
482.704	3.39
482.905	3.35
483.107	3.34
483.308	3.35
483.51	3.34
483.711	3.37
483.913	3.33
484.114	3.36
484.315	3.36
484.517	3.36
484.718	3.36
484.92	3.36
485.121	3.38
485.322	3.39
485.524	3.38
485.725	3.42
485.926	3.35
486.127	3.36
486.329	3.33
486.53	3.33
486.731	3.34
486.932	3.37
487.134	3.37
487.335	3.37
487.536	3.36
487.737	3.34
487.938	3.31
488.139	3.36
488.341	3.4
488.542	3.41
488.743	3.42
488.944	3.43
489.145	3.42
489.346	3.44
489.547	3.49
489.748	3.47
489.949	3.49
490.15	3.52
490.351	3.55
490.552	3.55
490.753	3.53
490.954	3.5
491.155	3.48
491.356	3.5
491.557	3.49
491.758	3.47
491.959	3.55
492.159	3.59
492.36	3.56
492.561	3.53
492.762	3.49
492.963	3.52
493.164	3.55
493.364	3.58
493.565	3.58
493.766	3.63
493.967	3.55
494.167	3.55
494.368	3.54
494.569	3.64
494.769	3.63
494.97	3.71
495.171	3.76
495.371	3.69
495.572	3.77
495.773	3.78
495.973	3.76
496.174	3.82
496.375	3.81
496.575	3.79
496.776	3.77
496.976	3.77
497.177	3.81
497.377	3.85
497.578	3.96
497.778	3.87
497.979	3.94
498.179	4
498.38	4.04
498.58	4.06
498.78	4.07
498.981	4.11
499.181	4.19
499.382	4.23
499.582	4.19
499.782	4.17
499.983	4.26
500.183	4.2
500.383	4.15
500.584	4.13
500.784	4.16
500.984	4.25
501.184	4.22
501.385	4.27
501.585	4.29
501.785	4.35
501.985	4.38
502.185	4.3
502.386	4.27
502.586	4.32
502.786	4.29
502.986	4.21
503.186	4.23
503.386	4.21
503.586	4.18
503.786	4.07
503.987	3.97
504.187	3.99
504.387	4.09
504.587	4.1
504.787	4.17
504.987	4.33
505.187	4.35
505.387	4.36
505.587	4.45
505.786	4.45
505.986	4.51
506.186	4.67
506.386	4.67
506.586	4.69
506.786	4.72
506.986	4.64
507.186	4.65
507.386	4.65
507.585	4.62
507.785	4.52
507.985	4.54
508.185	4.57
508.384	4.49
508.584	4.41
508.784	4.4
508.984	4.49
509.183	4.62
509.383	4.57
509.583	4.59
509.782	4.6
509.982	4.68
510.182	4.69
510.381	4.69
510.581	4.76
510.781	4.96
510.98	4.97
511.18	4.96
511.379	4.92
511.579	4.85
511.778	4.86
511.978	4.85
512.177	4.8
512.377	4.83
512.576	4.8
512.776	4.8
512.975	4.76
513.175	4.82
513.374	4.82
513.573	4.85
513.773	5
513.972	5.11
514.172	5.2
514.371	5.34
514.57	5.38
514.77	5.41
514.969	5.33
515.168	5.33
515.367	5.31
515.567	5.36
515.766	5.34
515.965	5.31
516.164	5.3
516.364	5.25
516.563	5.2
516.762	5.22
516.961	5.24
517.16	5.36
517.359	5.39
517.559	5.52
517.758	5.57
517.957	5.6
518.156	5.59
518.355	5.62
518.554	5.68
518.753	5.68
518.952	5.65
519.151	5.7
519.35	5.74
519.549	5.79
519.748	5.68
519.947	5.68
520.146	5.68
520.345	5.72
520.544	5.77
520.743	5.81
520.942	5.78
521.141	5.98
521.339	6.03
521.538	6.02
521.737	5.97
521.936	6.1
522.135	6.12
522.333	6.14
522.532	6.27
522.731	6.25
522.93	6.34
523.129	6.52
523.327	6.57
523.526	6.59
523.725	6.66
523.923	6.71
524.122	6.73
524.321	6.72
524.519	6.82
524.718	6.74
524.917	6.79
525.115	6.76
525.314	6.79
525.512	6.7
525.711	6.77
525.909	6.83
526.108	6.8
526.306	6.82
526.505	6.85
526.703	6.84
526.902	6.88
527.1	6.93
527.299	6.95
527.497	6.93
527.696	6.95
527.894	6.93
528.092	6.93
528.291	6.96
528.489	6.95
528.688	6.97
528.886	6.96
529.084	6.95
529.283	6.94
529.481	6.95
529.679	6.96
529.877	7.01
530.076	7.03
530.274	7.03
530.472	7.06
530.67	7.11
530.869	7.2
531.067	7.28
531.265	7.38
531.463	7.44
531.661	7.48
531.859	7.59
532.057	7.6
532.255	7.67
532.454	7.73
532.652	7.76
532.85	7.76
533.048	7.75
533.246	7.78
533.444	7.8
533.642	7.88
533.84	7.91
534.038	7.87
534.236	7.95
534.434	7.91
534.632	7.99
534.83	8.01
535.027	8.13
535.225	8.17
535.423	8.22
535.621	8.33
535.819	8.37
536.017	8.39
536.215	8.48
536.412	8.52
536.61	8.64
536.808	8.6
537.006	8.63
537.203	8.65
537.401	8.65
537.599	8.7
537.797	8.64
537.994	8.62
538.192	8.73
538.39	8.76
538.587	8.85
538.785	8.89
538.983	8.94
539.18	9.05
539.378	9.12
539.575	9.25
539.773	9.25
539.97	9.29
540.168	9.34
540.366	9.4
540.563	9.39
540.761	9.4
540.958	9.41
541.155	9.41
541.353	9.39
541.55	9.4
541.748	9.45
541.945	9.48
542.143	9.5
542.34	9.53
542.537	9.58
542.735	9.67
542.932	9.72
543.129	9.75
543.327	9.89
543.524	9.98
543.721	10.04
543.919	10.05
544.116	10.09
544.313	10.2
544.51	10.28
544.708	10.24
544.905	10.32
545.102	10.36
545.299	10.47
545.496	10.52
545.693	10.57
545.891	10.65
546.088	10.71
546.285	10.79
546.482	10.85
546.679	10.87
546.876	11.06
547.073	11.08
547.27	11.09
547.467	11.18
547.664	11.23
547.861	11.31
548.058	11.33
548.255	11.42
548.452	11.56
548.649	11.6
548.846	11.74
549.043	11.69
549.24	11.76
549.437	11.91
549.633	11.8
549.83	11.82
550.027	11.78
550.224	11.89
550.421	11.86
550.618	11.76
550.814	11.7
551.011	11.69
551.208	11.73
551.405	11.76
551.601	11.71
551.798	11.9
551.995	11.94
552.191	12.08
552.388	12.11
552.585	12.22
552.781	12.27
552.978	12.42
553.175	12.39
553.371	12.39
553.568	12.47
553.764	12.48
553.961	12.44
554.157	12.48
554.354	12.49
554.55	12.52
554.747	12.48
554.943	12.57
555.14	12.53
555.336	12.47
555.533	12.5
555.729	12.39
555.926	12.49
556.122	12.51
556.318	12.56
556.515	12.65
556.711	12.76
556.907	12.8
557.104	12.86
557.3	12.92
557.496	13.15
557.693	13.24
557.889	13.36
558.085	13.42
558.281	13.59
558.478	13.54
558.674	13.49
558.87	13.48
559.066	13.75
559.262	13.81
559.459	13.71
559.655	13.74
559.851	13.75
560.047	13.73
560.243	13.71
560.439	13.79
560.635	13.89
560.831	13.95
561.027	13.87
561.223	13.65
561.419	13.62
561.615	13.76
561.811	13.78
562.007	13.65
562.203	13.79
562.399	13.74
562.595	13.66
562.791	13.74
562.987	13.76
563.183	13.84
563.379	13.9
563.575	14.1
563.771	14.15
563.966	14.2
564.162	14.51
564.358	14.49
564.554	14.61
564.75	14.64
564.945	14.66
565.141	14.61
565.337	14.59
565.533	14.62
565.728	14.6
565.924	14.55
566.12	14.48
566.315	14.43
566.511	14.46
566.707	14.54
566.902	14.55
567.098	14.57
567.293	14.64
567.489	14.82
567.684	14.94
567.88	14.83
568.076	15.05
568.271	15.13
568.467	15.16
568.662	15.19
568.858	15.12
569.053	15.22
569.248	15.32
569.444	15.38
569.639	15.33
569.835	15.34
570.03	15.43
570.225	15.32
570.421	15.33
570.616	15.29
570.812	15.41
571.007	15.5
571.202	15.44
571.397	15.46
571.593	15.52
571.788	15.61
571.983	15.53
572.178	15.73
572.374	15.8
572.569	15.83
572.764	16.01
572.959	15.89
573.154	15.88
573.35	15.87
573.545	15.88
573.74	15.89
573.935	15.9
574.13	16.02
574.325	15.86
574.52	15.85
574.715	15.94
574.91	15.94
575.105	16.06
575.3	16.19
575.495	16.25
575.69	16.24
575.885	16.28
576.08	16.52
576.275	16.53
576.47	16.58
576.665	16.75
576.86	16.72
577.055	16.65
577.25	16.54
577.444	16.57
577.639	16.76
577.834	16.8
578.029	16.78
578.224	16.62
578.418	16.66
578.613	16.76
578.808	16.68
579.003	16.82
579.197	16.86
579.392	17.17
579.587	17.18
579.781	17.19
579.976	17.35
580.171	17.42
580.365	17.37
580.56	17.41
580.755	17.36
580.949	17.33
581.144	17.36
581.338	17.37
581.533	17.28
581.727	17.31
581.922	17.35
582.116	17.19
582.311	17.13
582.505	17.3
582.7	17.29
582.894	17.4
583.089	17.56
583.283	17.49
583.478	17.48
583.672	17.34
583.866	17.28
584.061	17.29
584.255	17.38
584.449	17.53
584.644	17.56
584.838	17.68
585.032	17.74
585.226	17.81
585.421	18.08
585.615	18.26
585.809	18.4
586.003	18.52
586.198	18.5
586.392	18.53
586.586	18.54
586.78	18.34
586.974	18.26
587.168	18.32
587.363	18.19
587.557	18.01
587.751	18.01
587.945	17.95
588.139	17.91
588.333	17.93
588.527	17.98
588.721	17.95
588.915	17.97
589.109	17.87
589.303	17.73
589.497	17.73
589.691	17.81
589.885	17.74
590.079	17.88
590.273	17.85
590.466	17.8
590.66	17.8
590.854	17.87
591.048	17.83
591.242	17.94
591.436	17.94
591.629	17.96
591.823	17.81
592.017	17.73
592.211	17.75
592.404	17.79
592.598	17.74
592.792	17.71
592.986	17.61
593.179	17.76
593.373	17.77
593.567	17.78
593.76	17.75
593.954	17.87
594.147	17.94
594.341	18.01
594.535	18
594.728	18
594.922	17.94
595.115	17.85
595.309	17.85
595.502	17.88
595.696	17.91
595.889	17.88
596.083	17.9
596.276	18.04
596.47	17.9
596.663	17.91
596.856	17.86
597.05	17.9
597.243	18.13
597.437	18
597.63	18
597.823	17.92
598.017	18.18
598.21	18.16
598.403	17.92
598.596	17.95
598.79	17.91
598.983	18.15
599.176	18.16
599.369	18.05
599.563	18.16
599.756	18.17
599.949	18.3
600.142	18.19
600.335	18.22
600.528	18.3
600.722	18.33
600.915	18.48
601.108	18.47
601.301	18.64
601.494	18.52
601.687	18.48
601.88	18.49
602.073	18.57
602.266	18.56
602.459	18.56
602.652	18.55
602.845	18.58
603.038	18.45
603.231	18.43
603.424	18.29
603.617	18.35
603.809	18.44
604.002	18.49
604.195	18.36
604.388	18.29
604.581	18.21
604.774	18.28
604.966	18.15
605.159	18.25
605.352	18.2
605.545	18.33
605.737	18.39
605.93	18.46
606.123	18.38
606.316	18.49
606.508	18.56
606.701	18.6
606.894	18.79
607.086	18.89
607.279	18.97
607.471	19.07
607.664	19.06
607.857	19.2
608.049	19.22
608.242	19.49
608.434	19.66
608.627	19.88
608.819	20.11
609.012	20.19
609.204	20.71
609.397	20.93
609.589	21.28
609.782	21.67
609.974	22.05
610.166	22.53
610.359	23.04
610.551	23.47
610.743	23.86
610.936	24.21
611.128	24.53
611.32	24.67
611.513	24.79
611.705	24.85
611.897	24.84
612.09	24.66
612.282	24.42
612.474	24.07
612.666	23.86
612.858	23.65
613.051	23.38
613.243	23.37
613.435	22.94
613.627	22.73
613.819	22.57
614.011	22.57
614.203	22.5
614.395	22.41
614.588	22.22
614.78	21.99
614.972	21.74
615.164	21.56
615.356	21.16
615.548	21.07
615.74	21.07
615.932	20.9
616.124	20.46
616.315	20.36
616.507	20.33
616.699	20.08
616.891	19.96
617.083	19.83
617.275	19.74
617.467	19.71
617.659	19.82
617.85	19.7
618.042	19.74
618.234	19.67
618.426	19.7
618.618	19.6
618.809	19.88
619.001	19.75
619.193	19.77
619.384	19.77
619.576	19.62
619.768	19.5
619.959	19.57
620.151	19.46
620.343	19.69
620.534	19.49
620.726	19.59
620.917	19.58
621.109	19.76
621.301	19.86
621.492	19.91
621.684	20.11
621.875	20.17
622.067	20.35
622.258	20.34
622.45	20.19
622.641	20.23
622.832	20.14
623.024	20.23
623.215	20.22
623.407	19.98
623.598	20.19
623.789	20.32
623.981	20.4
624.172	20.34
624.363	20.41
624.555	20.58
624.746	20.73
624.937	20.55
625.129	20.33
625.32	20.21
625.511	20.37
625.702	20.19
625.893	20.14
626.085	20
626.276	19.95
626.467	19.82
626.658	19.72
626.849	19.62
627.04	19.63
627.231	19.66
627.422	19.77
627.614	19.75
627.805	19.78
627.996	19.53
628.187	19.37
628.378	19.46
628.569	19.57
628.76	19.6
628.951	19.43
629.142	19.42
629.332	19.29
629.523	19.39
629.714	19.52
629.905	19.55
630.096	19.87
630.287	20.37
630.478	20.2
630.669	19.98
630.859	19.9
631.05	20.32
631.241	20.55
631.432	20.74
631.623	20.68
631.813	20.57
632.004	20.4
632.195	20.07
632.385	19.94
632.576	19.89
632.767	19.98
632.957	19.94
633.148	19.75
633.339	19.57
633.529	19.54
633.72	19.44
633.91	19.55
634.101	19.75
634.292	19.76
634.482	19.58
634.673	19.64
634.863	19.75
635.054	19.9
635.244	19.73
635.435	19.92
635.625	19.98
635.815	20.07
636.006	20.11
636.196	19.99
636.387	20.1
636.577	20
636.767	19.87
636.958	19.77
637.148	19.85
637.338	19.83
637.529	19.86
637.719	19.9
637.909	19.9
638.099	19.84
638.29	19.62
638.48	19.73
638.67	19.73
638.86	20.03
639.05	19.97
639.241	19.93
639.431	20.15
639.621	19.99
639.811	19.7
640.001	19.74
640.191	19.64
640.381	19.91
640.571	19.76
640.761	19.97
640.951	19.84
641.141	19.81
641.331	19.84
641.521	19.73
641.711	19.58
641.901	19.93
642.091	19.55
642.281	19.42
642.471	19.38
642.661	19.41
642.851	19.32
643.041	19.47
643.231	19.56
643.42	19.49
643.61	19.46
643.8	19.62
643.99	19.16
644.18	19.53
644.369	19.61
644.559	19.76
644.749	19.69
644.939	19.59
645.128	19.51
645.318	19.61
645.508	19.68
645.697	19.56
645.887	19.66
646.076	19.91
646.266	19.71
646.456	19.8
646.645	19.6
646.835	19.77
647.024	19.87
647.214	19.64
647.403	19.88
647.593	19.64
647.782	19.95
647.972	19.89
648.161	19.94
648.351	20.05
648.54	20.17
648.73	20.34
648.919	20.42
649.108	20.47
649.298	20.46
649.487	20.2
649.677	20.34
649.866	20.24
650.055	20.26
650.244	20.13
650.434	20.04
650.623	20.17
650.812	20.32
651.002	20.2
651.191	20.2
651.38	20.4
651.569	20.41
651.758	20.55
651.947	20.48
652.137	20.56
652.326	20.56
652.515	20.78
652.704	20.51
652.893	20.24
653.082	20.39
653.271	20.49
653.46	20.32
653.649	20.04
653.838	19.99
654.027	20.1
654.216	20.03
654.405	20.09
654.594	20.1
654.783	20.23
654.972	20.43
655.161	20.13
655.35	19.92
655.539	20.09
655.728	20.37
655.916	20.2
656.105	20.3
656.294	20.3
656.483	20.19
656.672	20.12
656.86	20.08
657.049	20
657.238	20.17
657.427	20.13
657.615	20.25
657.804	20.23
657.993	20.14
658.181	19.87
658.37	19.75
658.559	19.9
658.747	19.91
658.936	19.71
659.125	19.66
659.313	19.59
659.502	19.57
659.69	19.35
659.879	19.31
660.067	19.53
660.256	19.56
660.444	19.87
660.633	19.82
660.821	19.83
661.01	19.95
661.198	19.97
661.387	19.9
661.575	19.87
661.763	19.84
661.952	20.01
662.14	20.02
662.328	20.14
662.517	19.97
662.705	19.96
662.893	20.05
663.082	20.18
663.27	20.13
663.458	20.54
663.646	20.77
663.834	21.27
664.023	21.27
664.211	21.23
664.399	21.26
664.587	21.11
664.775	21.05
664.963	20.7
665.152	20.95
665.34	20.92
665.528	20.6
665.716	20.69
665.904	20.65
666.092	20.35
666.28	20.29
666.468	20.35
666.656	20.6
666.844	20.76
667.032	20.86
667.22	20.51
667.408	20.62
667.596	20.95
667.784	20.74
667.971	20.68
668.159	21.05
668.347	20.85
668.535	20.81
668.723	20.69
668.911	20.81
669.098	21.02
669.286	21.27
669.474	21.23
669.662	21.16
669.849	21.31
670.037	21.1
670.225	20.87
670.413	21.14
670.6	21.43
670.788	21.69
670.976	21.73
671.163	21.73
671.351	21.45
671.538	21.58
671.726	21.62
671.913	21.33
672.101	21.15
672.289	21.6
672.476	21.51
672.664	21.41
672.851	21.24
673.039	21.31
673.226	21.43
673.413	21.6
673.601	21.54
673.788	21.58
673.976	22.01
674.163	22.24
674.35	21.96
674.538	22.4
674.725	22.24
674.912	22.08
675.1	21.77
675.287	21.65
675.474	21.59
675.662	21.82
675.849	21.48
676.036	21.51
676.223	21.56
676.411	21.89
676.598	21.61
676.785	21.89
676.972	22.11
677.159	22.07
677.346	21.88
677.533	21.9
677.721	21.57
677.908	22.05
678.095	21.76
678.282	21.73
678.469	21.52
678.656	21.56
678.843	21.48
679.03	21.56
679.217	21.71
679.404	21.9
679.591	21.96
679.778	22.24
679.964	21.91
680.151	21.86
680.338	21.63
680.525	21.46
680.712	21.39
680.899	21.35
681.086	21.04
681.272	20.96
681.459	20.89
681.646	20.63
681.833	20.48
682.02	20.6
682.206	20.96
682.393	21.1
682.58	21.14
682.766	21.28
682.953	21.46
683.14	21.57
683.326	21.52
683.513	21.68
683.7	22.21
683.886	22.29
684.073	22.48
684.259	22.2
684.446	22.53
684.632	22.72
684.819	22.25
685.005	21.83
685.192	21.66
685.378	21.78
685.565	21.51
685.751	21.1
685.938	21.12
686.124	20.61
686.31	20.89
686.497	20.65
686.683	20.66
686.87	20.77
687.056	21.04
687.242	21.34
687.429	21.25
687.615	21.48
687.801	21.42
687.987	21.73
688.174	22
688.36	21.88
688.546	21.73
688.732	21.56
688.918	21.67
689.105	21.45
689.291	21.39
689.477	21.43
689.663	21.81
689.849	22
690.035	21.59
690.221	21.75
690.407	21.7
690.593	21.85
690.779	22.04
690.965	22.27
691.151	22.34
691.337	22.22
691.523	22.35
691.709	21.87
691.895	21.96
692.081	21.71
692.267	21.62
692.453	21.68
692.639	21.58
692.825	21.65
693.011	21.35
693.196	21.47
693.382	21.24
693.568	21.09
693.754	21.3
693.94	21.25
694.125	21.38
694.311	21.53
694.497	21.52
694.682	21.85
694.868	21.9
695.054	22.12
695.239	22.18
695.425	22.27
695.611	22.32
695.796	22.16
695.982	21.93
696.168	22.1
696.353	21.88
696.539	21.87
696.724	22
696.91	22.24
697.095	22.27
697.281	22.1
697.466	22.18
697.652	22.04
697.837	22.04
698.023	22.17
698.208	22.03
698.393	21.89
698.579	21.93
698.764	21.58
698.949	21.03
699.135	21.04
699.32	20.73
699.505	20.79
699.691	20.8
699.876	20.94
700.061	21
700.246	21.05
700.432	21.17
700.617	20.89
700.802	21.1
700.987	21.68
701.172	21.29
701.358	21.83
701.543	21.99
701.728	22.18
701.913	21.85
702.098	21.69
702.283	21.77
702.468	21.82
702.653	21.97
702.838	21.94
703.023	21.43
703.208	21.91
703.393	21.78
703.578	21.68
703.763	21.49
703.948	22.21
704.133	22.11
704.318	22.53
704.503	22.58
704.688	23.13
704.873	23.32
705.057	24.02
705.242	23.99
705.427	24.34
705.612	24.46
705.797	24.86
705.981	24.32
706.166	24.62
706.351	24.69
706.536	24.78
706.72	24.69
706.905	24.85
707.09	24.54
707.274	24.7
707.459	24.62
707.644	24.83
707.828	24.89
708.013	24.95
708.197	25.05
708.382	24.68
708.567	24.72
708.751	24.71
708.936	24.43
709.12	24.76
709.305	24.64
709.489	24.58
709.673	24.67
709.858	24.5
710.042	24.73
710.227	24.43
710.411	24.34
710.596	24.34
710.78	24.44
710.964	24.54
711.149	24.27
711.333	24.34
711.517	24.43
711.702	23.91
711.886	24.31
712.07	24.1
712.254	24.26
712.438	24.4
712.623	24.17
712.807	24.07
712.991	23.99
713.175	23.68
713.359	23.43
713.544	23.24
713.728	23.48
713.912	23.18
714.096	23.07
714.28	22.85
714.464	22.91
714.648	22.7
714.832	22.1
715.016	22.55
715.2	22.63
715.384	22.57
715.568	22.59
715.752	22.23
715.936	22.27
716.12	22.17
716.304	22.18
716.488	22.37
716.671	23.02
716.855	23.63
717.039	22.66
717.223	22.59
717.407	22.59
717.59	22.87
717.774	22.77
717.958	23.12
718.142	23.14
718.325	23.06
718.509	22.49
718.693	22.38
718.877	21.96
719.06	22.86
719.244	23.12
719.428	23.08
719.611	22.92
719.795	23.13
719.978	22.56
720.162	23.31
720.345	23.73
720.529	24.02
720.713	23.96
720.896	24.31
721.08	23.49
721.263	22.94
721.446	23.46
721.63	23.8
721.813	24.02
721.997	24.03
722.18	23.28
722.364	22.92
722.547	22.52
722.73	22.7
722.914	22.54
723.097	23.66
723.28	24.18
723.464	23.77
723.647	23.24
723.83	23.52
724.013	24.14
724.197	24.37
724.38	25.01
724.563	25.25
724.746	25.2
724.929	25.18
725.112	24.88
725.296	24.59
725.479	24.75
725.662	24.33
725.845	24.21
726.028	23.38
726.211	23.45
726.394	22.89
726.577	23.04
726.76	22.65
726.943	22.27
727.126	22.18
727.309	22.52
727.492	22.35
727.675	22.42
727.858	21.92
728.041	21.88
728.224	21.65
728.407	21.75
728.589	21.66
728.772	21.38
728.955	21.41
729.138	21.24
729.321	20.57
729.503	20.65
729.686	20.67
729.869	20.9
730.052	21.36
730.234	21.37
730.417	21.5
730.6	21.52
730.782	22.16
730.965	22.87
731.148	22.93
731.33	23.63
731.513	24.01
731.695	24.11
731.878	24
732.061	24.02
732.243	24.45
732.426	24.21
732.608	24.09
732.791	23.65
732.973	23.22
733.156	23.1
733.338	22.97
733.52	22.92
733.703	22.91
733.885	23.07
734.068	23.22
734.25	22.56
734.432	22.38
734.615	22.34
734.797	22.76
734.979	23.04
735.162	23.46
735.344	23.27
735.526	23.19
735.708	24.26
735.891	24.23
736.073	23.7
736.255	24.46
736.437	24.81
736.619	25.53
736.802	25.65
736.984	24.9
737.166	25.01
737.348	25.06
737.53	25.34
737.712	24.69
737.894	24.55
738.076	24.66
738.258	23.88
738.44	23.81
738.622	23.75
738.804	23.71
738.986	23.9
739.168	23.55
739.35	23.37
739.532	22.47
739.714	22.27
739.896	23.06
740.078	22.89
740.259	23.4
740.441	24.18
740.623	23.51
740.805	23.75
740.987	24.18
741.168	23.98
741.35	24.64
741.532	25.51
741.714	25.56
741.895	25.44
742.077	26.03
742.259	25.58
742.44	25.17
742.622	25.26
742.804	25.34
742.985	25.45
743.167	26.35
743.348	26.81
743.53	26.44
743.711	26.45
743.893	26.35
744.075	26.27
744.256	26.63
744.438	26.28
744.619	26.4
744.8	25.77
744.982	25.16
745.163	24.32
745.345	23.09
745.526	23.56
745.707	23.64
745.889	24.09
746.07	24.41
746.252	25.01
746.433	25.21
746.614	25.33
746.795	25.24
746.977	25.84
747.158	26.21
747.339	26.82
747.52	26.65
747.702	26.25
747.883	25.58
748.064	25.26
748.245	25.24
748.426	24.91
748.607	25.41
748.788	25.99
748.97	25.95
749.151	26.04
749.332	25.37
749.513	25.43
749.694	26.58
749.875	26.8
750.056	26.55
750.237	26.38
750.418	26.88
750.599	26.51
750.78	26.28
750.96	26.23
751.141	26.34
751.322	26.57
751.503	26.51
751.684	26.44
751.865	26.14
752.046	26.67
752.226	26.17
752.407	26.21
752.588	26.35
752.769	26.56
752.949	27.03
753.13	26.85
753.311	27.84
753.492	27.52
753.672	27.27
753.853	27.59
754.034	27.25
754.214	27.52
754.395	26.83
754.575	27.08
754.756	26.8
754.937	26.69
755.117	26.36
755.298	25.03
755.478	24.91
755.659	24.53
755.839	24.06
756.02	24.16
756.2	24.63
756.381	25.52
756.561	25.28
756.741	25.99
756.922	25.94
757.102	26.84
757.283	27.48
757.463	28.06
757.643	28.03
757.823	28.51
758.004	28.44
758.184	28.06
758.364	27.75
758.545	27.42
758.725	26.77
758.905	26.41
759.085	26
759.265	25.83
759.446	25.09
759.626	24.83
759.806	24.61
759.986	24.31
760.166	24.67
760.346	24.55
760.526	24.06
760.706	23.82
760.886	24.07
761.066	23.25
761.246	23.53
761.426	24.16
761.606	24.66
761.786	24.18
761.966	24.55
762.146	24.03
762.326	23.54
762.506	24.19
762.686	23.83
762.866	23.83
763.046	23.86
763.225	23.07
763.405	22.69
763.585	22.15
763.765	22.28
763.945	21.53
764.124	21.65
764.304	22.31
764.484	22.28
764.664	22.64
764.843	22.25
765.023	23.19
765.203	23.91
765.382	24.73
765.562	25.1
765.741	25.13
765.921	26.03
766.101	26.34
766.28	25.64
766.46	25.99
766.639	25.94
766.819	26.46
766.998	25.62
767.178	25.31
767.357	25.07
767.537	24.76
767.716	25.4
767.896	24.58
768.075	24.09
768.254	24.48
768.434	23.74
768.613	23.49
768.792	23.61
768.972	23.54
769.151	24.51
769.33	24.96
769.51	25.35
769.689	25.26
769.868	27.05
770.047	27.14
770.226	28.03
770.406	28.84
770.585	29.23
770.764	30.02
770.943	30.52
771.122	30.48
771.301	29.16
771.48	29.55
771.66	30.21
771.839	28.96
772.018	29.35
772.197	29.66
772.376	29.98
772.555	30.59
772.734	29.34
772.913	29.47
773.092	29.25
773.271	29.77
773.449	29.47
773.628	28.56
773.807	30.02
773.986	30.03
774.165	28.81
774.344	28.87
774.523	28.85
774.701	29.22
774.88	29.08
775.059	29.67
775.238	30.38
775.417	31.17
775.595	32.06
775.774	31.78
775.953	32.18
776.131	31.69
776.31	30.43
776.489	29.6
776.667	30.43
776.846	31.23
777.025	30.08
777.203	28.83
777.382	29.13
777.56	29.53
777.739	28.66
777.917	27.76
778.096	29.01
778.274	30.49
778.453	30.75
778.631	30.01
778.81	29.62
778.988	30
779.166	30.55
779.345	29.92
779.523	29.7
779.702	30.28
779.88	31.32
780.058	30.71
780.237	30.71
780.415	30.93
780.593	31.15
780.771	31.38
780.95	33.21
781.128	32.9
781.306	32.91
781.484	32.94
781.662	31.79
781.841	31.77
782.019	31
782.197	30.31
782.375	30.86
782.553	30.85
782.731	30.06
782.909	29.37
783.087	30.08
783.265	30.03
783.443	31.09
783.621	31.75
783.799	32.38
783.977	32.97
784.155	32.37
784.333	32.36
784.511	31.58
784.689	31.68
784.867	30.62
785.045	30.65
785.223	31.5
785.4	30.97
785.578	32.08
785.756	30.29
785.934	32.12
786.112	32.79
786.289	32.93
786.467	34.11
786.645	35.19
786.823	35.06
787	34.74
787.178	33.71
787.356	32.65
787.533	32.29
787.711	32.83
787.889	32.05
788.066	31.28
788.244	31.3
788.421	31.11
788.599	29.14
788.776	28.24
788.954	28.82
789.131	28.86
789.309	28.64
789.486	28.36
789.664	29.09
789.841	29.14
790.019	29.61
790.196	29.26
790.373	28.87
790.551	30.67
790.728	31.44
790.906	30.39
791.083	31.43
791.26	32.68
791.437	32.08
791.615	31.71
791.792	30.94
791.969	30.19
792.146	29.9
792.324	29.44
792.501	28.99
792.678	29.42
792.855	29.3
793.032	28.69
793.209	27.13
793.387	27.96
793.564	28.22
793.741	29.32
793.918	30.09
794.095	30.55
794.272	31.07
794.449	29.62
794.626	30.04
794.803	31.68
794.98	31.23
795.157	32.12
795.334	31.93
795.511	30.5
795.688	29.48
795.864	29.33
796.041	28.73
796.218	28.45
796.395	30.13
796.572	29.11
796.749	28.66
796.925	28.32
797.102	29.38
797.279	27.93
797.456	29.54
797.632	30.26
797.809	30.3
797.986	30.34
798.162	30.97
798.339	29.24
798.516	29.61
798.692	28.26
798.869	29.32
799.046	27.58
799.222	29.46
799.399	28.5
799.575	29.37
799.752	29.61
799.928	30.74
800.105	28.79
800.281	31.22
800.458	32.35
800.634	32.7
800.811	32.26
800.987	32.26
801.163	31.18
801.34	31.52
801.516	31.39
801.692	31.6
801.869	31.24
802.045	33.37
802.221	32.25
802.398	31.09
802.574	31.97
802.75	31.7
802.926	30.54
803.103	32.73
803.279	30.68
803.455	29.88
803.631	29.63
803.807	29.34
803.983	29.39
804.16	29.18
804.336	29.04
804.512	29.64
804.688	30.08
804.864	32.85
805.04	32.86
805.216	34.99
805.392	34.44
805.568	34.87
805.744	34.66
805.92	33.51
806.096	34.51
806.272	35.71
806.448	34.93
806.623	34.53
806.799	33.15
806.975	29.99
807.151	30.31
807.327	30.57
807.503	30.29
807.678	29.74
807.854	29.59
808.03	27.02
808.206	28.78
808.381	27.45
808.557	28.28
808.733	27.56
808.908	29.19
809.084	29.25
809.26	28.73
809.435	28.82
809.611	29.67
809.787	31.47
809.962	34.04
810.138	30.87
810.313	33.34
810.489	32.99
810.664	34.13
810.84	34.86
811.015	34.26
811.191	36.42
811.366	35.51
811.542	35.61
811.717	35.94
811.892	35.72
812.068	37
812.243	36.11
812.419	37.39
812.594	36.44
812.769	35.9
812.944	35.63
813.12	33.36
813.295	34.73
813.47	34.79
813.645	32.16
813.821	30.35
813.996	27.62
814.171	27.59
814.346	27.2
814.521	28.01
814.697	26.96
814.872	27.99
815.047	28.64
815.222	26.94
815.397	26.69
815.572	29.16
815.747	31.51
815.922	35.01
816.097	36.08
816.272	35.54
816.447	36.02
816.622	37.18
816.797	36.02
816.972	37.36
817.147	37.75
817.322	36.53
817.496	34.17
817.671	31.85
817.846	30.51
818.021	28.77
818.196	26.61
818.371	26.15
818.545	24.92
818.72	26.2
818.895	26.49
819.069	26.7
819.244	26.35
819.419	27.47
819.594	27.81
819.768	26.86
819.943	26.98
820.117	28.21
820.292	26.98
820.467	26.84
820.641	24.88
820.816	22.67
820.99	22.26
821.165	22.37
821.339	21.93
821.514	21.5
821.688	21.22
821.863	20.76
822.037	20.49
822.212	20.43
822.386	20.15
822.56	20.05
822.735	20.3
822.909	20.12
823.084	20.13
823.258	20.28
823.432	20.27
823.606	20.24
823.781	20.51
823.955	20.36
824.129	20.48
824.303	20.64
824.478	21.1
824.652	21.03
824.826	21.71
825	21.74
825.174	22.22
825.348	22.57
825.523	22.87
825.697	23.5
825.871	23.63
826.045	23.85
826.219	23.93
826.393	24.38
826.567	24.8
826.741	24.17
826.915	24.18
827.089	23.72
827.263	24.07
827.437	24.15
827.611	23.23
827.784	23.34
827.958	23.12
828.132	23.32
828.306	22.8
828.48	23.49
828.654	23.93
828.827	24.39
829.001	24.39
829.175	25.04
829.349	24.95
829.522	25.38
829.696	26.29
829.87	27.82
830.044	29.34
830.217	31.21
830.391	31.49
830.565	32.7
830.738	32.97
830.912	32.9
831.085	31.78
831.259	34.14
831.432	35.54
831.606	36.14
831.779	34.97
831.953	32.71
832.126	32.53
832.3	31.84
832.473	31.11
832.647	30.76
832.82	30.55
832.994	30.02
833.167	28.89
833.34	28.11
833.514	27.29
833.687	26.98
833.86	27.51
834.034	26.53
834.207	26.38
834.38	26.5
834.553	25.91
834.727	26.41
834.9	26.17
835.073	25.16
835.246	25.71
835.419	25.64
835.593	25.87
835.766	25.02
835.939	24.8
836.112	24.91
836.285	24.38
836.458	25.61
836.631	26.12
836.804	27.45
836.977	31.59
837.15	33.42
837.323	34.06
837.496	35.34
837.669	39.11
837.842	40.86
838.015	43.54
838.188	45.88
838.361	46.61
838.533	47.26
838.706	49.79
838.879	47.21
839.052	45.33
839.225	47.55
839.398	45.68
839.57	46.19
839.743	47.53
839.916	44.92
840.088	44.96
840.261	46.54
840.434	46.01
840.607	44.15
840.779	44.77
840.952	45.44
841.124	43.22
841.297	45.21
841.47	41.11
841.642	39.67
841.815	41.16
841.987	38.95
842.16	38.97
842.332	39.9
842.505	41.58
842.677	40.73
842.85	43.34
843.022	44.17
843.194	44.18
843.367	44.71
843.539	47.5
843.712	47.01
843.884	47.31
844.056	49.37
844.229	48.75
844.401	48.1
844.573	52.12
844.745	46.94
844.918	46.32
845.09	48.61
845.262	52.69
845.434	52.23
845.606	50.83
845.779	53.59
845.951	48.45
846.123	48.36
846.295	48.32
846.467	46.26
846.639	49.16
846.811	50.78
846.983	48.88
847.155	49.86
847.327	49.47
847.499	52.01
847.671	52.38
847.843	54.19
848.015	57.51
848.187	59.1
848.359	60.12
848.531	59.22
848.703	60.31
848.875	63.87
849.047	63.24
849.218	64.65
849.39	66.05
849.562	64.67
849.734	67.53
849.905	68.49
850.077	68.22
850.249	66.05
850.421	71.33
850.592	69.73
850.764	72.89
850.936	75.24
851.107	70.87
851.279	67.33
851.451	65.64
851.622	63.79
851.794	57.73
851.965	55.85
852.137	59.5
852.308	52.69
852.48	53.32
852.651	49.97
852.823	48.21
852.994	49.33
853.166	50.6
853.337	53.62
853.509	53.75
853.68	54.79
853.851	57.98
854.023	55.53
854.194	60.85
854.365	62.84
854.537	62.14
854.708	61.88
854.879	60.27
855.05	60.43
855.222	63.16
855.393	59.61
855.564	59.54
855.735	61.35
855.906	60.51
856.078	64.21
856.249	60.39
856.42	61.18
856.591	63.66
856.762	62.71
856.933	62.13
857.104	55.17
857.275	57.91
857.446	61.74
857.617	61.93
857.788	65.33
857.959	66.68
858.13	71.11
858.301	71.36
858.472	72.45
858.643	77.51
858.814	84.53
858.985	93.61
859.155	93.24
859.326	94.73
859.497	87.1
859.668	82.55
859.839	76.37
860.009	78.54
860.18	75.54
860.351	71.08
860.522	67.28
860.692	63.04
860.863	62.14
861.034	62.74
861.204	62.5
861.375	69.31
861.546	75.2
861.716	74.32
861.887	70.13
862.057	73.41
862.228	75.45
862.398	79.27
862.569	76.06
862.739	77.01
862.91	79.24
863.08	76.73
863.251	75.57
863.421	74.21
863.592	78.91
863.762	79.5
863.932	75.93
864.103	76.09
864.273	72.69
864.443	76.51
864.614	74.38
864.784	71.25
864.954	71.32
865.125	71.72
865.295	72.08
865.465	73.54
865.635	71.09
865.805	76.44
865.976	73.48
866.146	75.83
866.316	69.21
866.486	69.45
866.656	75.11
866.826	75.39
866.996	68.63
867.166	70.88
867.336	67.97
867.506	72.11
867.676	67.73
867.846	70.95
868.016	73.85
868.186	75.85
868.356	74.08
868.526	71.77
868.696	76.7
868.866	80.86
869.036	76.63
869.206	75.25
869.376	75.8
869.545	77.03
869.715	75.45
869.885	76.01
870.055	78.44
870.224	77.5
870.394	76.39
870.564	73.35
870.734	68.09
870.903	68.64
871.073	69.17
871.243	69.34
871.412	70.69
871.582	68.64
871.751	65.07
871.921	64.97
872.091	66.7
872.26	65.59
872.43	64.26
872.599	70.65
872.769	69.01
872.938	68.48
873.108	67.76
873.277	64.37
873.446	69.77
873.616	71.74
873.785	72.22
873.955	69.12
874.124	72.27
874.293	74.46
874.463	70.2
874.632	78.58
874.801	80.89
874.971	77.57
875.14	81.16
875.309	82.88
875.478	83.75
875.647	82.98
875.817	88.93
875.986	84.8
876.155	83.1
876.324	87.09
876.493	81.97
876.662	79.58
876.831	82.38
877	77.21
877.17	73.03
877.339	69.47
877.508	75.57
877.677	72.74
877.846	75.56
878.015	76.51
878.184	69.88
878.352	67.98
878.521	70.02
878.69	68.29
878.859	66.29
879.028	65.35
879.197	64.58
879.366	59.74
879.534	63.29
879.703	56.82
879.872	51.9
880.041	49.64
880.21	43.43
880.378	38.89
880.547	35.82
880.716	34.1
880.884	32
881.053	30.25
881.222	28.96
881.39	25.85
881.559	26.3
881.727	25.5
881.896	24.35
882.065	24.48
882.233	24.63
882.402	24.2
882.57	23.28
882.739	23.73
882.907	24.15
883.076	24.17
883.244	25.2
883.412	24.94
883.581	25.87
883.749	26.64
883.918	26.65
884.086	26.23
884.254	26.83
884.423	28.35
884.591	28.82
884.759	30.42
884.927	31.34
885.096	31.06
885.264	33.97
885.432	34.35
885.6	35.96
885.769	38.34
885.937	39.42
886.105	41.19
886.273	43.77
886.441	46.69
886.609	46.01
886.777	47.2
886.945	50.38
887.113	47.59
887.281	49.12
887.449	47.85
887.617	51.09
887.785	53.16
887.953	58.91
888.121	61.85
888.289	63.69
888.457	64.51
888.625	61.21
888.793	57.88
888.961	59.74
889.129	61.24
889.296	66.3
889.464	64.83
889.632	68.78
889.8	64
889.967	59.93
890.135	54.65
