Data from 2938788__Reflection_03.txt Node
Date: Fri Mar 13 11:43:09 EDT 2015
User: robert
Spectrometer: USB4E03002
Autoset integration time: false
Trigger mode: 4
Integration Time (sec): 1.000000E-1
Scans to average: 10
Electric dark correction enabled: false
Nonlinearity correction enabled: false
Boxcar width: 5
Stray light correction enabled: false
XAxis mode: Wavelengths
Stop averaging: false
Number of Pixels in Spectrum: 3648
>>>>>Begin Spectral Data<<<<<
177.575	-877.5
177.794	-9435.71
178.014	-1321.74
178.233	-896.7
178.452	-585.39
178.672	-444.69
178.891	-476.4
179.11	-462.34
179.33	-454.04
179.549	-537.77
179.768	-593.55
179.987	-939.71
180.207	-564.83
180.426	-932.35
180.645	-1780.77
180.864	-7092.68
181.084	2115.67
181.303	3064.04
181.522	1590.4
181.741	3506.76
181.96	1471.02
182.179	634.06
182.398	587.87
182.618	507.89
182.837	547.2
183.056	395.71
183.275	384.48
183.494	433.78
183.713	423.67
183.932	412.6
184.151	404.17
184.37	471.32
184.589	579.42
184.808	669.16
185.027	654.02
185.246	666.43
185.465	2379.49
185.684	1230.08
185.903	1405.91
186.122	1560.89
186.341	5384.31
186.56	2368.1
186.779	3286.75
186.998	1601.15
187.216	-3981.25
187.435	-950.19
187.654	-1019.12
187.873	-1368.75
188.092	-3363.77
188.311	19130.77
188.53	-2959.26
188.748	7718.75
188.967	-1190.26
189.186	-1304.65
189.405	-639.16
189.623	-2257.84
189.842	5582.98
190.061	1976.15
190.28	2834.78
190.498	-1518.82
190.717	-1150
190.936	-940.37
191.154	-619.57
191.373	-1818.79
191.592	-1630.23
191.81	-1367.62
192.029	-1129.6
192.248	-1036.55
192.466	-4014.08
192.685	-20407.14
192.904	-1050.78
193.122	-4885.45
193.341	1096.4
193.559	632.67
193.778	751.55
193.996	579.07
194.215	624
194.433	628.93
194.652	580.6
194.87	1110.07
195.089	871.62
195.307	447.46
195.526	495.23
195.744	553.21
195.963	452.69
196.181	406.23
196.399	446.5
196.618	379.77
196.836	440.98
197.055	496.35
197.273	527.18
197.491	614.9
197.71	592.48
197.928	860.88
198.146	981.67
198.365	9271.88
198.583	-5354.72
198.801	-2062.12
199.019	-2129.69
199.238	-5242
199.456	1806.04
199.674	947.24
199.892	767.47
200.111	1212.02
200.329	1125.32
200.547	974.56
200.765	687.13
200.983	617.58
201.202	657.31
201.42	845.16
201.638	915.55
201.856	1535.2
202.074	1933.76
202.292	-4503.23
202.51	18025
202.728	10265.52
202.946	-3653.25
203.165	-3613.75
203.383	5676.92
203.601	2164.44
203.819	5103.64
204.037	983.45
204.255	1069.6
204.473	1178.34
204.691	693.25
204.909	594.71
205.127	588.25
205.345	658.78
205.562	846.13
205.78	1043.32
205.998	1058.72
206.216	620.54
206.434	965.4
206.652	592.61
206.87	617.59
207.088	573.35
207.306	870.39
207.523	735.81
207.741	570.19
207.959	496.24
208.177	696.1
208.395	749.07
208.612	1100.38
208.83	821.08
209.048	953.63
209.266	1216.94
209.483	1101.4
209.701	1170.98
209.919	1802.42
210.136	1421.52
210.354	1206.74
210.572	863.76
210.79	625.1
211.007	599.4
211.225	695.19
211.442	690.63
211.66	487.56
211.878	515.64
212.095	-1217.62
212.313	-3135.11
212.53	-1896
212.748	-1304.39
212.966	-2289.74
213.183	-1514.46
213.401	-2331.25
213.618	4569.09
213.836	-14647.06
214.053	-8319.35
214.271	10280.77
214.488	255.46
214.705	262.85
214.923	222.37
215.14	240.71
215.358	273.19
215.575	314.89
215.793	305.87
216.01	473.99
216.227	447.89
216.445	453.32
216.662	480.54
216.879	649.02
217.097	556.52
217.314	513.78
217.531	337.78
217.749	289.39
217.966	250.24
218.183	213.03
218.4	205.25
218.618	200.69
218.835	187.04
219.052	192.37
219.269	169.32
219.487	162.44
219.704	171.97
219.921	176.55
220.138	180
220.355	181.33
220.572	180.95
220.79	163.97
221.007	161.7
221.224	168.36
221.441	157.66
221.658	155.27
221.875	157.81
222.092	155.71
222.309	144.95
222.526	139.29
222.743	137.16
222.96	133.65
223.177	129.41
223.394	116.27
223.611	105.22
223.828	105.58
224.045	104.62
224.262	99.96
224.479	93.08
224.696	94.03
224.913	89.5
225.13	86.94
225.347	78.77
225.564	76.92
225.781	72.14
225.997	67.93
226.214	58.19
226.431	50.07
226.648	45.98
226.865	41.92
227.082	37.14
227.298	33.04
227.515	28.34
227.732	25.95
227.949	23.46
228.165	22.91
228.382	22.14
228.599	22.67
228.816	22.46
229.032	21
229.249	20.61
229.466	19.82
229.682	20.23
229.899	20.67
230.116	21.46
230.332	21.38
230.549	21.78
230.765	22.21
230.982	22.55
231.199	24.79
231.415	27.07
231.632	28.7
231.848	30.67
232.065	30.8
232.281	31.15
232.498	30.68
232.714	30.8
232.931	31.24
233.147	32.7
233.364	33.73
233.58	32.37
233.797	32.66
234.013	31.59
234.23	31.04
234.446	31.78
234.662	31.42
234.879	32.23
235.095	32.62
235.312	31.9
235.528	31.75
235.744	29.75
235.961	29.65
236.177	29.73
236.393	29.24
236.61	29.98
236.826	29.03
237.042	28.74
237.258	29.88
237.475	29.96
237.691	31.23
237.907	31.27
238.123	33.85
238.339	35.05
238.556	34.99
238.772	35.95
238.988	36.98
239.204	36.39
239.42	35.86
239.636	33.33
239.853	32.08
240.069	29.95
240.285	27.62
240.501	24.74
240.717	22.99
240.933	21.53
241.149	19.92
241.365	17.93
241.581	17.44
241.797	16.8
242.013	15.84
242.229	15.54
242.445	14.98
242.661	15.22
242.877	15.38
243.093	15.01
243.309	14.8
243.525	14.85
243.741	15.04
243.957	15.2
244.173	15.98
244.388	17.34
244.604	17.27
244.82	17.81
245.036	17.27
245.252	16.67
245.468	16.15
245.683	15.27
245.899	14.73
246.115	14.23
246.331	13.52
246.547	12.5
246.762	11.46
246.978	11.44
247.194	11.3
247.409	11
247.625	10.95
247.841	10.69
248.057	10.58
248.272	10.74
248.488	10.68
248.703	10.88
248.919	11.4
249.135	11.88
249.35	12.41
249.566	12.56
249.782	13.31
249.997	13.38
250.213	13.51
250.428	14.38
250.644	14.5
250.859	14.39
251.075	13.94
251.29	14.32
251.506	14.09
251.721	13.13
251.937	13.15
252.152	13.13
252.368	13.85
252.583	14.3
252.798	14.73
253.014	15.1
253.229	15.54
253.445	15.97
253.66	16.02
253.875	16.95
254.091	18.51
254.306	18.55
254.521	19.72
254.737	20.33
254.952	20.31
255.167	19.79
255.383	19.4
255.598	19.5
255.813	19.97
256.028	19.65
256.244	18.31
256.459	18.19
256.674	17.89
256.889	15.81
257.104	14.71
257.32	14.78
257.535	13.55
257.75	13.14
257.965	12.52
258.18	11.76
258.395	10.84
258.61	10.5
258.826	9.2
259.041	9.18
259.256	9.15
259.471	8.43
259.686	8.03
259.901	7.91
260.116	7.82
260.331	7.53
260.546	7.65
260.761	7.95
260.976	8
261.191	8.06
261.406	7.99
261.621	8.37
261.836	8.59
262.05	9.16
262.265	9.54
262.48	9.82
262.695	10.65
262.91	11.17
263.125	10.83
263.34	11.4
263.555	12.85
263.769	13.66
263.984	13.59
264.199	14.82
264.414	14.2
264.629	14.5
264.843	14.64
265.058	14.26
265.273	13.92
265.488	13.94
265.702	13.58
265.917	12.95
266.132	11.92
266.346	11.16
266.561	10.83
266.776	11
266.99	10.92
267.205	10.43
267.42	10.5
267.634	9.56
267.849	9.81
268.063	9.85
268.278	9.7
268.492	10.35
268.707	10.71
268.922	10.19
269.136	10.72
269.351	10.35
269.565	10.51
269.78	10.2
269.994	10.4
270.209	10.05
270.423	9.57
270.637	9.41
270.852	9.16
271.066	9.02
271.281	9.6
271.495	9.18
271.709	9.23
271.924	9.06
272.138	9.4
272.353	9.5
272.567	9.74
272.781	10.2
272.996	10.33
273.21	10.21
273.424	10.33
273.638	9.72
273.853	9.46
274.067	9.5
274.281	9.71
274.495	9.78
274.71	10.27
274.924	10.14
275.138	10.12
275.352	9.92
275.566	10.32
275.781	10.06
275.995	11.23
276.209	11.76
276.423	11.89
276.637	12.14
276.851	12.07
277.065	11.73
277.279	11.64
277.493	11.12
277.707	11.07
277.921	10.8
278.135	10.92
278.349	10.1
278.563	10.01
278.777	10.01
278.991	9.77
279.205	9.82
279.419	9.76
279.633	9.47
279.847	9.93
280.061	10.21
280.275	9.65
280.489	9.98
280.703	9.87
280.917	9.39
281.131	9.38
281.344	9.37
281.558	9.1
281.772	9.29
281.986	9.58
282.2	9.59
282.414	9.76
282.627	10.22
282.841	9.72
283.055	9.66
283.269	9.76
283.482	9.38
283.696	9.04
283.91	9.14
284.123	8.44
284.337	7.99
284.551	7.63
284.764	7.36
284.978	6.98
285.192	7.09
285.405	7.4
285.619	7.43
285.833	7.77
286.046	7.87
286.26	7.88
286.473	8.36
286.687	8.44
286.9	8.7
287.114	8.79
287.327	9.05
287.541	9.45
287.754	9.19
287.968	9.61
288.181	9.45
288.395	9.51
288.608	9.35
288.822	9.36
289.035	9.22
289.248	8.84
289.462	8.61
289.675	8.4
289.889	8.19
290.102	8.12
290.315	7.4
290.529	7.66
290.742	7.69
290.955	7.79
291.169	7.68
291.382	8
291.595	8.32
291.808	8.6
292.022	9.06
292.235	9.12
292.448	9.09
292.661	9.82
292.875	9.64
293.088	9.97
293.301	9.78
293.514	9.68
293.727	9.68
293.94	9.63
294.153	9.37
294.367	9.1
294.58	9.07
294.793	9.35
295.006	9.11
295.219	8.92
295.432	8.62
295.645	8.44
295.858	8.41
296.071	8.13
296.284	8.01
296.497	7.81
296.71	7.46
296.923	7.44
297.136	7.26
297.349	7.18
297.562	7.08
297.775	6.87
297.988	6.98
298.201	7.17
298.414	7.36
298.626	7.3
298.839	7.48
299.052	7.83
299.265	8.11
299.478	8.4
299.691	8.78
299.903	9.47
300.116	10.24
300.329	10.47
300.542	10.52
300.755	10.49
300.967	10.8
301.18	11.11
301.393	11.24
301.605	11.12
301.818	11.17
302.031	10.94
302.243	10.49
302.456	10.13
302.669	10.49
302.881	10.29
303.094	10.75
303.307	10.82
303.519	10.53
303.732	10.73
303.944	10.69
304.157	10.7
304.37	10.65
304.582	11.04
304.795	10.95
305.007	10.97
305.22	11.33
305.432	11.06
305.645	11.23
305.857	11.49
306.069	11.54
306.282	11.67
306.494	11.59
306.707	11.91
306.919	11.8
307.132	11.94
307.344	11.65
307.556	11.5
307.769	11.98
307.981	11.71
308.193	11.43
308.406	11.12
308.618	10.66
308.83	10.73
309.043	10.42
309.255	10.2
309.467	10.01
309.679	9.81
309.892	9.93
310.104	9.53
310.316	9.67
310.528	9.69
310.74	9.82
310.953	9.82
311.165	9.84
311.377	10.32
311.589	10.56
311.801	10.68
312.013	10.77
312.225	10.63
312.437	10.71
312.649	10.69
312.862	10.97
313.074	11.16
313.286	11.7
313.498	12.01
313.71	11.55
313.922	11.44
314.134	11.41
314.346	11.86
314.558	11.96
314.77	12.35
314.982	12.7
315.193	13.16
315.405	13.31
315.617	13.43
315.829	13.56
316.041	13.91
316.253	14.26
316.465	14.41
316.677	14.11
316.888	14.28
317.1	14.38
317.312	14.29
317.524	14.06
317.736	13.9
317.947	14.3
318.159	14.12
318.371	14.16
318.583	14.13
318.794	14.74
319.006	15
319.218	15.02
319.43	14.71
319.641	14.77
319.853	14.77
320.064	15.37
320.276	14.71
320.488	14.97
320.699	14.81
320.911	15.26
321.123	14.64
321.334	14.56
321.546	15.13
321.757	15.67
321.969	15.89
322.18	16.11
322.392	15.65
322.603	15.89
322.815	15.55
323.026	15.56
323.238	15.08
323.449	15.05
323.661	15.09
323.872	14.58
324.083	13.84
324.295	13.15
324.506	12.69
324.718	12.41
324.929	12.53
325.14	12.52
325.352	12.54
325.563	12.92
325.774	13
325.986	12.88
326.197	12.71
326.408	13.41
326.62	13.75
326.831	13.88
327.042	14.38
327.253	14.55
327.464	14.75
327.676	14.66
327.887	14.36
328.098	14.69
328.309	14.76
328.52	15.2
328.732	14.93
328.943	15.24
329.154	15.58
329.365	15.32
329.576	15.22
329.787	15.25
329.998	15.89
330.209	15.74
330.42	15.66
330.631	15.66
330.842	15.5
331.053	15.53
331.264	15.34
331.475	15.02
331.686	15.29
331.897	15.23
332.108	15.01
332.319	14.58
332.53	14.53
332.741	14.45
332.952	14.56
333.163	14.46
333.374	14.59
333.585	14.79
333.795	15.03
334.006	14.62
334.217	14.43
334.428	14.48
334.639	14.78
334.849	14.72
335.06	14.91
335.271	14.81
335.482	14.98
335.692	14.51
335.903	14.02
336.114	13.59
336.325	13.69
336.535	13.56
336.746	13.28
336.957	13.33
337.167	13.64
337.378	13.5
337.589	13.63
337.799	13.21
338.01	13.24
338.22	13.12
338.431	13.29
338.642	13.03
338.852	13.09
339.063	13.28
339.273	12.76
339.484	12.76
339.694	12.84
339.905	13.07
340.115	13.32
340.326	13.7
340.536	14.01
340.746	13.89
340.957	14
341.167	13.93
341.378	13.96
341.588	14.02
341.799	13.83
342.009	13.4
342.219	12.79
342.43	12.93
342.64	12.77
342.85	12.7
343.061	12.77
343.271	12.87
343.481	13.1
343.691	13.07
343.902	12.97
344.112	13.15
344.322	12.98
344.532	13.39
344.743	12.79
344.953	12.49
345.163	12.09
345.373	11.9
345.583	11.85
345.793	12.01
346.004	11.95
346.214	12.2
346.424	12.18
346.634	12.71
346.844	12.47
347.054	13.05
347.264	13.34
347.474	13.7
347.684	13.99
347.894	14.16
348.104	13.96
348.314	13.77
348.524	13.6
348.734	13.38
348.944	13.32
349.154	13.39
349.364	13.16
349.574	13.05
349.784	13.15
349.994	13.07
350.204	12.91
350.413	12.75
350.623	12.67
350.833	12.66
351.043	12.76
351.253	12.52
351.463	12.13
351.672	12.37
351.882	12.4
352.092	12.12
352.302	11.96
352.511	12
352.721	11.99
352.931	12.18
353.141	12.02
353.35	11.91
353.56	11.79
353.77	12.06
353.979	11.78
354.189	11.82
354.399	11.83
354.608	12
354.818	11.72
355.027	11.78
355.237	11.67
355.447	11.94
355.656	11.88
355.866	11.9
356.075	11.98
356.285	11.98
356.494	11.75
356.704	11.81
356.913	11.76
357.123	11.73
357.332	11.52
357.542	11.47
357.751	11
357.96	10.98
358.17	10.98
358.379	10.82
358.589	10.85
358.798	10.8
359.007	10.75
359.217	10.72
359.426	10.6
359.635	10.52
359.845	10.58
360.054	10.52
360.263	10.42
360.472	10.31
360.682	10.14
360.891	10.08
361.1	10
361.309	9.88
361.519	9.84
361.728	9.9
361.937	9.95
362.146	9.88
362.355	10.09
362.564	10.27
362.774	10.42
362.983	10.45
363.192	10.5
363.401	10.42
363.61	10.36
363.819	10.5
364.028	10.52
364.237	10.54
364.446	10.47
364.655	10.43
364.864	10.04
365.073	9.92
365.282	9.96
365.491	9.94
365.7	9.98
365.909	10.1
366.118	9.95
366.327	10.34
366.536	10.24
366.745	10.28
366.954	10.11
367.162	10.32
367.371	10.26
367.58	10.35
367.789	10.1
367.998	10.41
368.207	10.27
368.415	10.29
368.624	10.18
368.833	10.37
369.042	10.5
369.25	10.71
369.459	10.9
369.668	10.8
369.877	10.62
370.085	10.75
370.294	10.68
370.503	10.79
370.711	10.72
370.92	10.36
371.129	10.2
371.337	10.05
371.546	10.02
371.754	9.76
371.963	9.62
372.171	9.82
372.38	10.12
372.589	9.92
372.797	9.96
373.006	9.88
373.214	9.92
373.423	9.98
373.631	10.06
373.84	10.01
374.048	10.08
374.256	10.34
374.465	10.47
374.673	10.29
374.882	10.43
375.09	10.47
375.298	10.42
375.507	10.47
375.715	10.31
375.923	10.21
376.132	10.02
376.34	9.98
376.548	9.87
376.757	9.7
376.965	9.65
377.173	9.64
377.381	9.6
377.59	10.04
377.798	10.05
378.006	10.02
378.214	10.01
378.423	10.09
378.631	10.12
378.839	10.12
379.047	10.23
379.255	10.15
379.463	10.3
379.671	9.99
379.879	9.44
380.088	9.23
380.296	9.22
380.504	9.08
380.712	9.06
380.92	9.07
381.128	9.13
381.336	8.86
381.544	8.66
381.752	8.43
381.96	8.78
382.168	8.76
382.376	9.05
382.584	9.15
382.791	9.41
382.999	9.46
383.207	9.26
383.415	9.31
383.623	9.38
383.831	9.42
384.039	9.33
384.247	9.21
384.454	9.39
384.662	9.3
384.87	9.31
385.078	9.1
385.285	8.92
385.493	9.02
385.701	8.86
385.909	8.82
386.116	8.8
386.324	8.7
386.532	8.73
386.739	8.56
386.947	8.4
387.155	8.52
387.362	8.5
387.57	8.51
387.778	8.46
387.985	8.47
388.193	8.46
388.4	8.55
388.608	8.84
388.816	8.73
389.023	8.88
389.231	8.82
389.438	8.62
389.646	8.73
389.853	8.69
390.061	8.71
390.268	8.74
390.475	8.63
390.683	8.59
390.89	8.31
391.098	8.29
391.305	8.09
391.512	8.16
391.72	8.14
391.927	8.03
392.135	8.23
392.342	8.26
392.549	8.27
392.756	8.19
392.964	8.06
393.171	8.24
393.378	8.18
393.586	8.21
393.793	8.25
394	8.29
394.207	8.47
394.414	8.37
394.622	8.31
394.829	8.2
395.036	8.22
395.243	8.3
395.45	8.16
395.657	8.24
395.864	8.34
396.072	8.24
396.279	8.26
396.486	8.02
396.693	8.08
396.9	7.99
397.107	8.02
397.314	8.3
397.521	8.29
397.728	8.36
397.935	8.11
398.142	8.02
398.349	8.26
398.556	8.23
398.763	8.1
398.97	7.93
399.177	7.96
399.383	8.02
399.59	8
399.797	8.09
400.004	7.92
400.211	8.23
400.418	8.36
400.625	8.18
400.831	8.03
401.038	8.27
401.245	8.3
401.452	8.38
401.658	8.2
401.865	8.33
402.072	8.23
402.279	8.4
402.485	8.18
402.692	8.03
402.899	7.83
403.105	7.88
403.312	7.72
403.519	7.57
403.725	7.58
403.932	7.46
404.138	7.27
404.345	7.34
404.552	7.2
404.758	7.22
404.965	7.06
405.171	7.16
405.378	7.1
405.584	7.24
405.791	7.48
405.997	7.39
406.204	7.71
406.41	7.55
406.617	7.58
406.823	7.69
407.029	7.76
407.236	7.99
407.442	8.09
407.649	8.31
407.855	8.35
408.061	8.4
408.268	8.46
408.474	8.33
408.68	8.4
408.887	8.43
409.093	8.48
409.299	8.74
409.505	8.87
409.712	8.69
409.918	8.33
410.124	8.11
410.33	7.95
410.537	7.8
410.743	7.95
410.949	8.1
411.155	8.09
411.361	8
411.567	7.76
411.773	7.68
411.98	7.87
412.186	8.14
412.392	8.38
412.598	8.43
412.804	8.65
413.01	8.61
413.216	8.45
413.422	8.25
413.628	8.36
413.834	8.25
414.04	8.23
414.246	8.19
414.452	8.02
414.658	7.83
414.864	7.75
415.07	7.65
415.275	7.48
415.481	7.46
415.687	7.38
415.893	7.23
416.099	7.29
416.305	7.16
416.511	7.08
416.716	7.09
416.922	7.06
417.128	7.11
417.334	7.05
417.539	7.16
417.745	7.01
417.951	7.01
418.157	7.02
418.362	6.96
418.568	6.89
418.774	6.79
418.979	6.79
419.185	6.73
419.391	6.68
419.596	6.58
419.802	6.42
420.008	6.49
420.213	7.16
420.419	7.07
420.624	7.08
420.83	7.1
421.035	7.12
421.241	7.05
421.446	7
421.652	6.89
421.857	6.92
422.063	6.95
422.268	6.91
422.474	6.23
422.679	6.27
422.885	6.25
423.09	6.24
423.295	6.19
423.501	6.17
423.706	6.26
423.911	6.35
424.117	6.37
424.322	6.34
424.527	6.32
424.733	6.39
424.938	6.41
425.143	6.34
425.349	6.32
425.554	6.36
425.759	6.44
425.964	6.45
426.169	6.37
426.375	6.44
426.58	6.55
426.785	6.62
426.99	6.7
427.195	6.83
427.4	6.88
427.605	6.92
427.811	7.01
428.016	7.05
428.221	7.2
428.426	7.36
428.631	7.3
428.836	7.28
429.041	7.41
429.246	7.24
429.451	7.1
429.656	7.25
429.861	7.28
430.066	7.17
430.271	7.16
430.476	7.06
430.681	7.02
430.886	7.05
431.09	7.06
431.295	6.93
431.5	6.98
431.705	7
431.91	6.93
432.115	6.98
432.32	7.2
432.524	7.15
432.729	7.2
432.934	7.21
433.139	7.19
433.343	7.17
433.548	7.19
433.753	7.29
433.958	7.35
434.162	7.41
434.367	7.48
434.572	7.31
434.776	7.35
434.981	7.26
435.186	7.29
435.39	7.36
435.595	7.39
435.799	7.34
436.004	7.28
436.209	7.22
436.413	7.24
436.618	7.07
436.822	7.18
437.027	7.17
437.231	7.2
437.436	7.27
437.64	7.3
437.845	7.27
438.049	7.31
438.253	7.27
438.458	7.32
438.662	7.26
438.867	7.31
439.071	7.26
439.275	7.21
439.48	7.22
439.684	7.11
439.888	7.09
440.093	7.07
440.297	7.04
440.501	6.98
440.706	6.96
440.91	6.91
441.114	6.92
441.318	6.95
441.523	7.03
441.727	7
441.931	7.08
442.135	7.17
442.339	7.21
442.543	7.31
442.748	7.47
442.952	7.54
443.156	7.62
443.36	7.59
443.564	7.58
443.768	7.6
443.972	7.6
444.176	7.52
444.38	7.4
444.584	7.39
444.788	7.35
444.992	7.26
445.196	7.18
445.4	7.16
445.604	7.17
445.808	7.23
446.012	7.18
446.216	7.15
446.42	7.19
446.624	7.11
446.828	7.1
447.032	7.04
447.235	7.07
447.439	7.06
447.643	7.1
447.847	7.12
448.051	7.08
448.254	7.05
448.458	7.09
448.662	7.03
448.866	7.11
449.069	7.21
449.273	7.24
449.477	7.27
449.681	7.36
449.884	7.43
450.088	7.57
450.292	7.59
450.495	7.74
450.699	7.76
450.902	7.75
451.106	7.82
451.31	7.76
451.513	7.94
451.717	7.92
451.92	7.85
452.124	7.75
452.327	7.63
452.531	7.54
452.734	7.49
452.938	7.59
453.141	7.72
453.345	7.72
453.548	7.75
453.752	7.62
453.955	7.71
454.158	7.74
454.362	7.72
454.565	7.74
454.769	7.87
454.972	7.88
455.175	7.83
455.379	7.82
455.582	7.86
455.785	7.76
455.988	7.83
456.192	7.76
456.395	7.71
456.598	7.78
456.801	7.84
457.005	7.81
457.208	7.87
457.411	7.91
457.614	7.86
457.817	7.74
458.021	7.74
458.224	7.7
458.427	7.57
458.63	7.56
458.833	7.48
459.036	7.3
459.239	7.29
459.442	7.11
459.645	7.02
459.848	6.97
460.051	7.06
460.254	7.09
460.457	7.07
460.66	7.17
460.863	7.21
461.066	7.31
461.269	7.41
461.472	7.43
461.675	7.53
461.878	7.6
462.081	7.61
462.284	7.57
462.486	7.58
462.689	7.6
462.892	7.58
463.095	7.57
463.298	7.49
463.5	7.6
463.703	7.54
463.906	7.6
464.109	7.6
464.311	7.65
464.514	7.66
464.717	7.6
464.92	7.6
465.122	7.65
465.325	7.8
465.528	7.83
465.73	7.83
465.933	7.83
466.135	7.85
466.338	7.76
466.541	7.69
466.743	7.63
466.946	7.61
467.148	7.68
467.351	7.67
467.553	7.59
467.756	7.61
467.958	7.49
468.161	7.56
468.363	7.52
468.566	7.62
468.768	7.78
468.971	7.83
469.173	7.95
469.375	7.87
469.578	7.86
469.78	7.8
469.983	7.8
470.185	7.87
470.387	7.9
470.59	7.88
470.792	7.81
470.994	7.78
471.196	7.79
471.399	7.76
471.601	7.82
471.803	7.78
472.005	7.78
472.208	7.73
472.41	7.7
472.612	7.63
472.814	7.74
473.016	7.85
473.218	7.89
473.421	7.86
473.623	7.86
473.825	7.85
474.027	7.89
474.229	7.9
474.431	7.85
474.633	7.9
474.835	7.96
475.037	7.88
475.239	7.67
475.441	7.63
475.643	7.68
475.845	7.5
476.047	7.49
476.249	7.46
476.451	7.45
476.653	7.51
476.855	7.39
477.057	7.26
477.258	7.25
477.46	7.3
477.662	7.26
477.864	7.21
478.066	7.38
478.268	7.28
478.469	7.29
478.671	7.22
478.873	7.23
479.075	7.23
479.276	7.21
479.478	7.29
479.68	7.31
479.882	7.34
480.083	7.29
480.285	7.22
480.487	7.28
480.688	7.24
480.89	7.35
481.091	7.26
481.293	7.23
481.495	7.2
481.696	7.14
481.898	7.12
482.099	7
482.301	6.96
482.502	6.95
482.704	6.91
482.905	6.88
483.107	6.77
483.308	6.75
483.51	6.71
483.711	6.69
483.913	6.62
484.114	6.62
484.315	6.64
484.517	6.62
484.718	6.54
484.92	6.54
485.121	6.55
485.322	6.59
485.524	6.58
485.725	6.6
485.926	6.63
486.127	6.66
486.329	6.68
486.53	6.65
486.731	6.7
486.932	6.74
487.134	6.73
487.335	6.69
487.536	6.65
487.737	6.62
487.938	6.63
488.139	6.62
488.341	6.66
488.542	6.62
488.743	6.63
488.944	6.57
489.145	6.61
489.346	6.63
489.547	6.65
489.748	6.69
489.949	6.78
490.15	6.75
490.351	6.76
490.552	6.72
490.753	6.74
490.954	6.74
491.155	6.78
491.356	6.75
491.557	6.74
491.758	6.77
491.959	6.73
492.159	6.68
492.36	6.73
492.561	6.72
492.762	6.72
492.963	6.76
493.164	6.77
493.364	6.77
493.565	6.79
493.766	6.79
493.967	6.73
494.167	6.86
494.368	6.93
494.569	6.96
494.769	7.05
494.97	7.12
495.171	7.18
495.371	7.2
495.572	7.24
495.773	7.25
495.973	7.32
496.174	7.39
496.375	7.36
496.575	7.37
496.776	7.45
496.976	7.4
497.177	7.42
497.377	7.34
497.578	7.39
497.778	7.36
497.979	7.44
498.179	7.44
498.38	7.47
498.58	7.46
498.78	7.48
498.981	7.52
499.181	7.54
499.382	7.58
499.582	7.69
499.782	7.7
499.983	7.83
500.183	7.82
500.383	7.76
500.584	7.72
500.784	7.74
500.984	7.75
501.184	7.64
501.385	7.66
501.585	7.6
501.785	7.51
501.985	7.55
502.185	7.5
502.386	7.51
502.586	7.57
502.786	7.67
502.986	7.77
503.186	7.86
503.386	7.89
503.586	7.97
503.786	7.99
503.987	8.09
504.187	8.05
504.387	8.03
504.587	8.05
504.787	8.08
504.987	8.05
505.187	8
505.387	7.89
505.587	7.88
505.786	7.79
505.986	7.78
506.186	7.7
506.386	7.77
506.586	7.84
506.786	7.79
506.986	7.86
507.186	7.82
507.386	7.8
507.585	7.86
507.785	7.88
507.985	7.89
508.185	7.94
508.384	7.96
508.584	7.91
508.784	7.82
508.984	7.96
509.183	7.92
509.383	7.98
509.583	8.09
509.782	8.08
509.982	8.08
510.182	8.1
510.381	8.07
510.581	8.11
510.781	8.09
510.98	8.15
511.18	8.01
511.379	7.93
511.579	8
511.778	7.93
511.978	7.96
512.177	8.05
512.377	8.09
512.576	8.11
512.776	8.15
512.975	8.22
513.175	8.32
513.374	8.37
513.573	8.49
513.773	8.43
513.972	8.54
514.172	8.54
514.371	8.57
514.57	8.56
514.77	8.66
514.969	8.63
515.168	8.72
515.367	8.62
515.567	8.7
515.766	8.62
515.965	8.62
516.164	8.55
516.364	8.56
516.563	8.46
516.762	8.44
516.961	8.36
517.16	8.45
517.359	8.39
517.559	8.4
517.758	8.39
517.957	8.41
518.156	8.43
518.355	8.41
518.554	8.34
518.753	8.35
518.952	8.33
519.151	8.34
519.35	8.3
519.549	8.29
519.748	8.29
519.947	8.33
520.146	8.38
520.345	8.39
520.544	8.43
520.743	8.53
520.942	8.54
521.141	8.61
521.339	8.64
521.538	8.6
521.737	8.65
521.936	8.66
522.135	8.66
522.333	8.7
522.532	8.82
522.731	8.86
522.93	8.81
523.129	8.9
523.327	8.94
523.526	8.94
523.725	9
523.923	8.99
524.122	9
524.321	8.99
524.519	8.88
524.718	8.77
524.917	8.74
525.115	8.75
525.314	8.7
525.512	8.67
525.711	8.64
525.909	8.68
526.108	8.7
526.306	8.63
526.505	8.63
526.703	8.69
526.902	8.68
527.1	8.65
527.299	8.68
527.497	8.7
527.696	8.68
527.894	8.68
528.092	8.64
528.291	8.6
528.489	8.64
528.688	8.59
528.886	8.57
529.084	8.57
529.283	8.58
529.481	8.54
529.679	8.54
529.877	8.53
530.076	8.53
530.274	8.53
530.472	8.56
530.67	8.59
530.869	8.65
531.067	8.67
531.265	8.76
531.463	8.82
531.661	8.88
531.859	8.92
532.057	9.01
532.255	9.03
532.454	9.01
532.652	8.98
532.85	8.99
533.048	9.04
533.246	9.05
533.444	9.03
533.642	9.04
533.84	9.01
534.038	9
534.236	9
534.434	9.03
534.632	9.06
534.83	9.16
535.027	9.18
535.225	9.19
535.423	9.24
535.621	9.27
535.819	9.26
536.017	9.31
536.215	9.34
536.412	9.33
536.61	9.39
536.808	9.38
537.006	9.34
537.203	9.38
537.401	9.43
537.599	9.39
537.797	9.43
537.994	9.5
538.192	9.58
538.39	9.65
538.587	9.66
538.785	9.62
538.983	9.79
539.18	9.84
539.378	9.9
539.575	9.9
539.773	9.97
539.97	9.95
540.168	10
540.366	9.98
540.563	9.94
540.761	9.96
540.958	9.98
541.155	9.97
541.353	9.95
541.55	9.93
541.748	9.92
541.945	9.88
542.143	9.91
542.34	9.9
542.537	9.9
542.735	9.98
542.932	9.99
543.129	10.07
543.327	10.04
543.524	10.15
543.721	10.17
543.919	10.29
544.116	10.42
544.313	10.39
544.51	10.48
544.708	10.61
544.905	10.64
545.102	10.72
545.299	10.75
545.496	10.85
545.693	10.88
545.891	10.98
546.088	10.99
546.285	11.07
546.482	11.16
546.679	11.18
546.876	11.14
547.073	11.15
547.27	11.16
547.467	11.15
547.664	11.2
547.861	11.21
548.058	11.27
548.255	11.31
548.452	11.3
548.649	11.39
548.846	11.44
549.043	11.54
549.24	11.67
549.437	11.79
549.633	11.96
549.83	12.11
550.027	12.25
550.224	12.18
550.421	12.24
550.618	12.22
550.814	12.24
551.011	12.29
551.208	12.44
551.405	12.4
551.601	12.49
551.798	12.48
551.995	12.42
552.191	12.35
552.388	12.4
552.585	12.37
552.781	12.45
552.978	12.5
553.175	12.54
553.371	12.55
553.568	12.53
553.764	12.47
553.961	12.49
554.157	12.46
554.354	12.65
554.55	12.74
554.747	12.8
554.943	12.83
555.14	12.81
555.336	12.86
555.533	12.76
555.729	12.94
555.926	13.02
556.122	13.14
556.318	13.28
556.515	13.2
556.711	13.24
556.907	13.37
557.104	13.47
557.3	13.6
557.496	13.59
557.693	13.71
557.889	13.75
558.085	13.83
558.281	13.83
558.478	13.99
558.674	14.07
558.87	14.14
559.066	14.13
559.262	14.26
559.459	14.22
559.655	14.36
559.851	14.44
560.047	14.46
560.243	14.55
560.439	14.61
560.635	14.52
560.831	14.53
561.027	14.62
561.223	14.59
561.419	14.49
561.615	14.54
561.811	14.51
562.007	14.45
562.203	14.57
562.399	14.52
562.595	14.54
562.791	14.71
562.987	14.71
563.183	14.69
563.379	14.76
563.575	14.9
563.771	15.04
563.966	15.05
564.162	15.18
564.358	15.12
564.554	15.22
564.75	15.28
564.945	15.25
565.141	15.36
565.337	15.39
565.533	15.48
565.728	15.48
565.924	15.53
566.12	15.52
566.315	15.45
566.511	15.49
566.707	15.43
566.902	15.44
567.098	15.51
567.293	15.54
567.489	15.68
567.684	15.65
567.88	15.51
568.076	15.57
568.271	15.66
568.467	15.81
568.662	15.92
568.858	16.15
569.053	16.2
569.248	16.1
569.444	16.1
569.639	16.03
569.835	16.14
570.03	16.38
570.225	16.31
570.421	16.38
570.616	16.35
570.812	16.27
571.007	16.17
571.202	16.16
571.397	16.33
571.593	16.31
571.788	16.39
571.983	16.44
572.178	16.45
572.374	16.59
572.569	16.66
572.764	16.71
572.959	16.79
573.154	16.85
573.35	16.89
573.545	16.96
573.74	17.05
573.935	17
574.13	16.94
574.325	17.04
574.52	17.09
574.715	17.18
574.91	17.23
575.105	17.38
575.3	17.47
575.495	17.61
575.69	17.6
575.885	17.7
576.08	17.83
576.275	18.02
576.47	18.14
576.665	18.17
576.86	18.11
577.055	18.23
577.25	18.24
577.444	18.24
577.639	18.36
577.834	18.39
578.029	18.53
578.224	18.64
578.418	18.64
578.613	18.7
578.808	18.74
579.003	18.9
579.197	18.97
579.392	18.9
579.587	18.96
579.781	18.96
579.976	19.02
580.171	18.89
580.365	18.98
580.56	19.02
580.755	19.09
580.949	19.05
581.144	19.08
581.338	19.02
581.533	19.24
581.727	19.4
581.922	19.29
582.116	19.43
582.311	19.51
582.505	19.53
582.7	19.66
582.894	19.68
583.089	19.88
583.283	19.86
583.478	19.93
583.672	19.97
583.866	19.9
584.061	20.02
584.255	19.85
584.449	19.89
584.644	19.93
584.838	19.97
585.032	19.79
585.226	19.82
585.421	19.86
585.615	20.02
585.809	19.94
586.003	19.99
586.198	20.01
586.392	20.21
586.586	20.36
586.78	20.41
586.974	20.45
587.168	20.46
587.363	20.39
587.557	20.52
587.751	20.44
587.945	20.42
588.139	20.42
588.333	20.39
588.527	20.37
588.721	20.22
588.915	20.17
589.109	20.08
589.303	20.06
589.497	19.94
589.691	19.78
589.885	19.79
590.079	19.89
590.273	19.87
590.466	19.97
590.66	20.03
590.854	20.21
591.048	20.16
591.242	20.1
591.436	20.37
591.629	20.56
591.823	20.81
592.017	20.87
592.211	20.85
592.404	20.94
592.598	20.94
592.792	20.93
592.986	20.84
593.179	20.8
593.373	20.93
593.567	20.83
593.76	20.78
593.954	20.65
594.147	20.57
594.341	20.53
594.535	20.54
594.728	20.55
594.922	20.46
595.115	20.43
595.309	20.46
595.502	20.36
595.696	20.34
595.889	20.32
596.083	20.23
596.276	20.17
596.47	20.33
596.663	20.3
596.856	20.25
597.05	20.3
597.243	20.31
597.437	20.36
597.63	20.47
597.823	20.52
598.017	20.52
598.21	20.68
598.403	20.78
598.596	20.7
598.79	20.74
598.983	20.91
599.176	20.88
599.369	20.9
599.563	20.93
599.756	21.04
599.949	20.94
600.142	20.98
600.335	21.06
600.528	21.07
600.722	21.11
600.915	21.17
601.108	21.09
601.301	21.22
601.494	21.45
601.687	21.49
601.88	21.38
602.073	21.44
602.266	21.46
602.459	21.33
602.652	21.19
602.845	21.04
603.038	20.95
603.231	20.98
603.424	20.95
603.617	20.76
603.809	20.64
604.002	20.54
604.195	20.61
604.388	20.7
604.581	20.69
604.774	20.78
604.966	20.81
605.159	20.75
605.352	20.73
605.545	20.84
605.737	20.87
605.93	20.93
606.123	21.07
606.316	21.17
606.508	21.09
606.701	21.17
606.894	21.27
607.086	21.4
607.279	21.59
607.471	21.62
607.664	21.54
607.857	21.93
608.049	22.14
608.242	22.31
608.434	22.4
608.627	22.62
608.819	22.78
609.012	23.19
609.204	23.59
609.397	24.03
609.589	24.66
609.782	25.27
609.974	25.81
610.166	26.37
610.359	26.97
610.551	27.55
610.743	28.13
610.936	28.73
611.128	29.06
611.32	29.5
611.513	29.82
611.705	29.83
611.897	29.63
612.09	29.29
612.282	29.16
612.474	28.79
612.666	28.62
612.858	28.52
613.051	28.26
613.243	27.84
613.435	27.35
613.627	27.03
613.819	26.78
614.011	26.95
614.203	26.86
614.395	26.59
614.588	26.42
614.78	26.19
614.972	25.75
615.164	25.54
615.356	25.34
615.548	25.16
615.74	24.98
615.932	24.9
616.124	24.62
616.315	24.46
616.507	24.37
616.699	24.32
616.891	24.08
617.083	24.02
617.275	23.9
617.467	24.08
617.659	24.01
617.85	23.84
618.042	23.76
618.234	23.56
618.426	23.41
618.618	23.31
618.809	23.2
619.001	23.26
619.193	23.14
619.384	23.23
619.576	23.2
619.768	23.24
619.959	23.28
620.151	23.13
620.343	23.2
620.534	23.28
620.726	23.25
620.917	23.2
621.109	23.14
621.301	23.29
621.492	23.21
621.684	23.14
621.875	23.3
622.067	23.24
622.258	23.43
622.45	23.44
622.641	23.3
622.832	23.46
623.024	23.66
623.215	23.59
623.407	23.5
623.598	23.48
623.789	23.45
623.981	23.2
624.172	23.38
624.363	23.17
624.555	23.16
624.746	23.19
624.937	23.04
625.129	22.94
625.32	23.06
625.511	22.98
625.702	22.9
625.893	23.01
626.085	23.05
626.276	22.99
626.467	23.15
626.658	23.08
626.849	23.06
627.04	22.94
627.231	22.96
627.422	22.99
627.614	23.23
627.805	23.19
627.996	23.09
628.187	23.34
628.378	23.2
628.569	23.12
628.76	23.29
628.951	23.31
629.142	23.59
629.332	23.8
629.523	23.77
629.714	23.64
629.905	24.01
630.096	24.03
630.287	23.88
630.478	24.04
630.669	24.13
630.859	23.98
631.05	24.05
631.241	23.92
631.432	23.68
631.623	23.76
631.813	23.83
632.004	23.46
632.195	23.32
632.385	23.28
632.576	23.17
632.767	23.15
632.957	23.16
633.148	23.03
633.339	22.98
633.529	22.88
633.72	22.8
633.91	22.55
634.101	22.69
634.292	22.82
634.482	22.91
634.673	22.89
634.863	22.84
635.054	22.74
635.244	22.85
635.435	22.91
635.625	22.96
635.815	22.68
636.006	22.99
636.196	22.88
636.387	22.87
636.577	22.82
636.767	23.13
636.958	23.04
637.148	23.14
637.338	23.17
637.529	23.28
637.719	23.33
637.909	23.56
638.099	23.55
638.29	23.68
638.48	23.81
638.67	23.75
638.86	23.42
639.05	23.62
639.241	23.76
639.431	23.73
639.621	23.47
639.811	23.65
640.001	23.72
640.191	23.46
640.381	23.46
640.571	23.44
640.761	23.47
640.951	23.83
641.141	23.59
641.331	23.49
641.521	23.41
641.711	23.45
641.901	23.36
642.091	23.37
642.281	23.34
642.471	23.33
642.661	23.37
642.851	23.27
643.041	23.02
643.231	23.17
643.42	23.32
643.61	23.64
643.8	23.81
643.99	23.79
644.18	23.73
644.369	23.92
644.559	23.93
644.749	23.99
644.939	24.04
645.128	24.09
645.318	24.09
645.508	23.96
645.697	23.73
645.887	23.9
646.076	23.86
646.266	23.94
646.456	24.01
646.645	24
646.835	23.84
647.024	23.92
647.214	24.05
647.403	24.1
647.593	24.11
647.782	24.34
647.972	24.12
648.161	24.14
648.351	24.07
648.54	24.03
648.73	24.19
648.919	24.23
649.108	24.28
649.298	24.33
649.487	24.34
649.677	24.35
649.866	24.11
650.055	24.18
650.244	24.24
650.434	24.44
650.623	24.37
650.812	24.15
651.002	24.18
651.191	24.25
651.38	24.23
651.569	24.36
651.758	24.38
651.947	24.42
652.137	24.35
652.326	24.16
652.515	23.78
652.704	23.64
652.893	23.77
653.082	23.75
653.271	23.43
653.46	23.37
653.649	23.34
653.838	23.37
654.027	23.51
654.216	23.69
654.405	23.98
654.594	24.26
654.783	24.48
654.972	24.31
655.161	24.26
655.35	24.45
655.539	24.41
655.728	24.31
655.916	24.3
656.105	24.16
656.294	24.03
656.483	23.86
656.672	23.78
656.86	23.7
657.049	23.71
657.238	23.76
657.427	23.76
657.615	23.6
657.804	23.49
657.993	23.49
658.181	23.51
658.37	23.49
658.559	23.73
658.747	23.68
658.936	23.78
659.125	23.5
659.313	23.47
659.502	23.58
659.69	23.66
659.879	23.68
660.067	23.7
660.256	23.72
660.444	23.56
660.633	23.33
660.821	23.42
661.01	23.4
661.198	23.87
661.387	23.88
661.575	23.81
661.763	23.93
661.952	24.16
662.14	24.07
662.328	24.01
662.517	24.23
662.705	24.37
662.893	24.48
663.082	24.54
663.27	24.52
663.458	24.63
663.646	24.77
663.834	24.84
664.023	24.71
664.211	25.18
664.399	25.45
664.587	25.53
664.775	25.44
664.963	25.57
665.152	25.63
665.34	25.64
665.528	25.72
665.716	25.6
665.904	25.55
666.092	25.9
666.28	25.47
666.468	25.22
666.656	25.32
666.844	25.56
667.032	25.55
667.22	25.44
667.408	25.67
667.596	25.69
667.784	25.77
667.971	25.6
668.159	25.41
668.347	25.65
668.535	25.77
668.723	25.75
668.911	25.57
669.098	25.31
669.286	25.54
669.474	25.21
669.662	25.15
669.849	25.04
670.037	25.47
670.225	25.4
670.413	25.44
670.6	25.54
670.788	25.36
670.976	25.15
671.163	25.13
671.351	24.99
671.538	25.13
671.726	25.2
671.913	25.12
672.101	24.76
672.289	24.87
672.476	24.71
672.664	24.6
672.851	24.83
673.039	25.14
673.226	25.32
673.413	25.18
673.601	25.06
673.788	25.31
673.976	25.38
674.163	25.2
674.35	25.24
674.538	25.36
674.725	25.68
674.912	25.56
675.1	25.66
675.287	25.56
675.474	25.66
675.662	25.91
675.849	25.77
676.036	25.85
676.223	26.03
676.411	25.98
676.598	25.9
676.785	25.49
676.972	25.62
677.159	25.4
677.346	25.46
677.533	25.46
677.721	25.48
677.908	25.24
678.095	25.17
678.282	25.09
678.469	24.84
678.656	24.72
678.843	24.77
679.03	24.8
679.217	25.09
679.404	24.96
679.591	24.78
679.778	24.48
679.964	24.37
680.151	24.35
680.338	24.48
680.525	24.68
680.712	24.61
680.899	24.55
681.086	24.44
681.272	24.28
681.459	24.34
681.646	24.71
681.833	24.98
682.02	25.02
682.206	25.07
682.393	25.04
682.58	24.96
682.766	25.26
682.953	25.49
683.14	25.41
683.326	25.69
683.513	25.92
683.7	25.43
683.886	25.46
684.073	25.46
684.259	25.39
684.446	25.79
684.632	25.86
684.819	25.79
685.005	25.77
685.192	26.04
685.378	25.81
685.565	25.6
685.751	25.96
685.938	25.83
686.124	25.93
686.31	26.34
686.497	25.83
686.683	25.95
686.87	25.81
687.056	25.75
687.242	25.45
687.429	25.67
687.615	25.82
687.801	25.81
687.987	25.81
688.174	26.21
688.36	26.11
688.546	26.49
688.732	26.25
688.918	26.23
689.105	26.27
689.291	26.55
689.477	26.4
689.663	26.27
689.849	26.12
690.035	26.29
690.221	26.1
690.407	25.9
690.593	25.66
690.779	25.75
690.965	25.74
691.151	25.68
691.337	25.69
691.523	25.99
691.709	26.21
691.895	26.5
692.081	26.5
692.267	26.63
692.453	26.92
692.639	27
692.825	27.16
693.011	27.37
693.196	27.4
693.382	27.49
693.568	27.28
693.754	27.14
693.94	26.92
694.125	26.86
694.311	26.33
694.497	26.13
694.682	26.04
694.868	26.08
695.054	26.33
695.239	26.73
695.425	26.55
695.611	26.45
695.796	26.56
695.982	26.46
696.168	26.5
696.353	26.43
696.539	26.31
696.724	26.02
696.91	25.94
697.095	25.77
697.281	25.61
697.466	25.63
697.652	25.46
697.837	25.3
698.023	25.37
698.208	25.17
698.393	25.32
698.579	25.4
698.764	25.53
698.949	25.4
699.135	25.27
699.32	25.13
699.505	24.9
699.691	25.04
699.876	25.17
700.061	25.33
700.246	25.39
700.432	25.47
700.617	25.23
700.802	25.25
700.987	25.4
701.172	25.33
701.358	25.6
701.543	26.13
701.728	26.22
701.913	26.24
702.098	26.37
702.283	26.63
702.468	26.89
702.653	27.28
702.838	27.77
703.023	27.97
703.208	28.72
703.393	28.51
703.578	28.58
703.763	28.76
703.948	29.16
704.133	29.09
704.318	29.12
704.503	29.32
704.688	29.41
704.873	29.58
705.057	29.7
705.242	29.81
705.427	29.89
705.612	30.12
705.797	30.22
705.981	29.98
706.166	30.7
706.351	31.13
706.536	30.92
706.72	30.78
706.905	30.88
707.09	30.71
707.274	30.81
707.459	31.02
707.644	30.91
707.828	30.81
708.013	30.94
708.197	30.15
708.382	30.07
708.567	30.32
708.751	30.71
708.936	30.42
709.12	30.46
709.305	29.81
709.489	29.53
709.673	29.4
709.858	29.27
710.042	29.26
710.227	29.5
710.411	29.08
710.596	29.02
710.78	29.02
710.964	29.48
711.149	29.56
711.333	29.77
711.517	30.14
711.702	30.23
711.886	29.87
712.07	29.56
712.254	29.32
712.438	29.45
712.623	29.44
712.807	28.82
712.991	28.29
713.175	28.1
713.359	28.11
713.544	27.88
713.728	27.87
713.912	28.18
714.096	28.11
714.28	27.98
714.464	27.95
714.648	27.68
714.832	28.41
715.016	28.29
715.2	28.47
715.384	28.11
715.568	28.18
715.752	27.98
715.936	27.88
716.12	28.06
716.304	28.26
716.488	28.32
716.671	28.38
716.855	28.19
717.039	28.23
717.223	27.97
717.407	27.75
717.59	27.82
717.774	27.94
717.958	28.07
718.142	27.98
718.325	27.93
718.509	27.84
718.693	27.78
718.877	27.66
719.06	27.64
719.244	28.11
719.428	28.96
719.611	28.78
719.795	28.58
719.978	28.76
720.162	29.11
720.345	29.19
720.529	29.28
720.713	29.85
720.896	29.69
721.08	29.68
721.263	29.48
721.446	29.37
721.63	29.48
721.813	29.46
721.997	29.39
722.18	29.8
722.364	30.04
722.547	29.79
722.73	29.36
722.914	29.79
723.097	29.67
723.28	30.1
723.464	30.36
723.647	30.7
723.83	30.67
724.013	30.46
724.197	30.48
724.38	30.38
724.563	30.26
724.746	30.11
724.929	29.55
725.112	29.74
725.296	28.81
725.479	28.77
725.662	28.64
725.845	28.55
726.028	28.9
726.211	28.42
726.394	28.54
726.577	29.27
726.76	29.24
726.943	29.33
727.126	28.84
727.309	29.01
727.492	28.9
727.675	29.33
727.858	29.46
728.041	28.95
728.224	28.86
728.407	28.78
728.589	28.72
728.772	28.68
728.955	29.17
729.138	29.53
729.321	29.63
729.503	29.47
729.686	28.6
729.869	28.53
730.052	29.01
730.234	28.87
730.417	29.11
730.6	28.78
730.782	28.85
730.965	28.91
731.148	28.8
731.33	28.8
731.513	28.57
731.695	28.67
731.878	28.82
732.061	28.86
732.243	29.04
732.426	28.84
732.608	29.44
732.791	29.45
732.973	29.27
733.156	29.42
733.338	29.3
733.52	29.34
733.703	29.73
733.885	29.87
734.068	29.59
734.25	29.77
734.432	29.27
734.615	28.8
734.797	28.68
734.979	28.28
735.162	28.8
735.344	28.97
735.526	29.33
735.708	29.58
735.891	29.74
736.073	30.07
736.255	30.24
736.437	30.72
736.619	30.8
736.802	31.23
736.984	31.46
737.166	31.75
737.348	32.49
737.53	32.28
737.712	32.12
737.894	32.09
738.076	32
738.258	31.48
738.44	31.9
738.622	31.89
738.804	31.72
738.986	32.2
739.168	31.88
739.35	31.45
739.532	32.24
739.714	31.55
739.896	31.27
740.078	31.39
740.259	31.76
740.441	31.42
740.623	31.83
740.805	32.38
740.987	31.42
741.168	31.73
741.35	31.7
741.532	31.24
741.714	31.95
741.895	32.58
742.077	33.08
742.259	33.44
742.44	33.68
742.622	32.93
742.804	32.98
742.985	34.41
743.167	34.49
743.348	34.56
743.53	34.89
743.711	34.76
743.893	34.7
744.075	34.01
744.256	33.68
744.438	34.47
744.619	35.27
744.8	35.18
744.982	34.41
745.163	34.26
745.345	34.34
745.526	34.51
745.707	34.44
745.889	34.36
746.07	35.49
746.252	35.87
746.433	34.68
746.614	33.68
746.795	33.51
746.977	34.12
747.158	33.88
747.339	34.31
747.52	33.96
747.702	34.43
747.883	34.37
748.064	33.71
748.245	34.07
748.426	33.99
748.607	35.59
748.788	34.85
748.97	34.55
749.151	34.83
749.332	34.51
749.513	34.33
749.694	33.91
749.875	34.37
750.056	34.22
750.237	33.85
750.418	34.66
750.599	33.57
750.78	34.05
750.96	34.48
751.141	34.44
751.322	34.88
751.503	34.91
751.684	34.86
751.865	34.11
752.046	33.75
752.226	33.25
752.407	32.52
752.588	32.96
752.769	33.1
752.949	32.83
753.13	32.66
753.311	32.06
753.492	32.35
753.672	32.88
753.853	33.3
754.034	33.83
754.214	33.87
754.395	33.94
754.575	34.24
754.756	34.23
754.937	34.26
755.117	34.01
755.298	34.9
755.478	35.47
755.659	35.35
755.839	35.53
756.02	36.2
756.2	35.97
756.381	36.32
756.561	35.59
756.741	35.29
756.922	35.17
757.102	35.7
757.283	35.17
757.463	34.95
757.643	35.69
757.823	34.71
758.004	33.57
758.184	33.99
758.364	34.24
758.545	33.99
758.725	33.63
758.905	33.61
759.085	33.22
759.265	33.11
759.446	32.76
759.626	31.54
759.806	32.38
759.986	33.06
760.166	33.33
760.346	33.01
760.526	33.46
760.706	34.04
760.886	33.85
761.066	33.63
761.246	33.85
761.426	33.6
761.606	33.64
761.786	33.01
761.966	32.48
762.146	31.5
762.326	31.45
762.506	30.89
762.686	30.5
762.866	29.81
763.046	29.62
763.225	29.48
763.405	29.06
763.585	29.02
763.765	29.1
763.945	28.64
764.124	28.55
764.304	28.15
764.484	28.23
764.664	28.6
764.843	29.26
765.023	29.52
765.203	29.16
765.382	30.01
765.562	30.34
765.741	30.63
765.921	31.62
766.101	32.21
766.28	33.01
766.46	33.14
766.639	33.3
766.819	33.46
766.998	33.27
767.178	34.21
767.357	34.19
767.537	34.33
767.716	35.38
767.896	35.3
768.075	35.52
768.254	35.63
768.434	35.96
768.613	36.42
768.792	36.81
768.972	37.68
769.151	37.36
769.33	36.6
769.51	36.34
769.689	35.49
769.868	36.32
770.047	37.01
770.226	36.89
770.406	37.18
770.585	36.91
770.764	36.56
770.943	36.58
771.122	36.45
771.301	37.13
771.48	37.73
771.66	37.71
771.839	36.64
772.018	36.38
772.197	36.31
772.376	36.5
772.555	36.9
772.734	36.75
772.913	37.02
773.092	36.54
773.271	36.79
773.449	37.01
773.628	37.35
773.807	38.67
773.986	38.99
774.165	39.64
774.344	40.03
774.523	39.68
774.701	40.6
774.88	40.92
775.059	42.44
775.238	42.02
775.417	41.58
775.595	42.04
775.774	40.89
775.953	41.04
776.131	40.43
776.31	39.57
776.489	39.69
776.667	39.44
776.846	38.73
777.025	38.54
777.203	38.86
777.382	38.91
777.56	38.18
777.739	38.3
777.917	38.16
778.096	38.88
778.274	38.82
778.453	39.01
778.631	39.37
778.81	39.11
778.988	37.86
779.166	36.75
779.345	36.83
779.523	36.69
779.702	37.42
779.88	37.39
780.058	37.29
780.237	38.92
780.415	38.84
780.593	38.24
780.771	39.33
780.95	40.44
781.128	42.45
781.306	42.75
781.484	42.95
781.662	42.06
781.841	41.36
782.019	40.55
782.197	39.5
782.375	39.63
782.553	39.55
782.731	39.85
782.909	39.83
783.087	39.89
783.265	39.99
783.443	39.75
783.621	40.66
783.799	42.02
783.977	42.52
784.155	42.69
784.333	42.59
784.511	43.05
784.689	42.28
784.867	42.16
785.045	41.06
785.223	40.94
785.4	41.41
785.578	41.31
785.756	41.94
785.934	41.53
786.112	41.83
786.289	41.69
786.467	40.97
786.645	41.4
786.823	41.5
787	41.17
787.178	40.84
787.356	40.83
787.533	39.35
787.711	38.84
787.889	38.87
788.066	38.98
788.244	38.83
788.421	38.67
788.599	37.93
788.776	38.23
788.954	39
789.131	38.47
789.309	38.76
789.486	40.64
789.664	39.74
789.841	40.46
790.019	40.22
790.196	41.2
790.373	41
790.551	41.45
790.728	41.29
790.906	41.11
791.083	41.99
791.26	41.84
791.437	41.73
791.615	41.97
791.792	42.06
791.969	42.55
792.146	42.23
792.324	43.38
792.501	42.66
792.678	43.13
792.855	43.54
793.032	44.09
793.209	44.91
793.387	44.35
793.564	44.83
793.741	44.66
793.918	44.34
794.095	43.93
794.272	43.85
794.449	44.93
794.626	43.92
794.803	43.1
794.98	43.52
795.157	42.83
795.334	43.12
795.511	42.51
795.688	42.51
795.864	42.57
796.041	43.06
796.218	42.87
796.395	42.16
796.572	41.87
796.749	41.99
796.925	40.54
797.102	40.82
797.279	40.76
797.456	40.42
797.632	39.8
797.809	39.49
797.986	38.45
798.162	38.9
798.339	39.13
798.516	40.47
798.692	41.7
798.869	42.34
799.046	41.7
799.222	41.31
799.399	41.75
799.575	43.72
799.752	44.28
799.928	45.73
800.105	45.64
800.281	46.07
800.458	45.41
800.634	44.81
800.811	44.81
800.987	44.64
801.163	44.61
801.34	46.28
801.516	44.21
801.692	44.47
801.869	43.24
802.045	42.85
802.221	43.15
802.398	43.22
802.574	42.95
802.75	43.71
802.926	44.36
803.103	44.55
803.279	42.2
803.455	43.68
803.631	43.61
803.807	44.75
803.983	46
804.16	45.93
804.336	45.18
804.512	45.38
804.688	46.22
804.864	46.41
805.04	47.58
805.216	47.49
805.392	48.4
805.568	49.27
805.744	49.33
805.92	48.67
806.096	48.35
806.272	49.09
806.448	49.77
806.623	48.36
806.799	48.77
806.975	47.18
807.151	48.28
807.327	47.16
807.503	46.63
807.678	47.21
807.854	46.1
808.03	46.65
808.206	47.39
808.381	46.35
808.557	47.03
808.733	46.35
808.908	47.96
809.084	48.18
809.26	47.22
809.435	48.26
809.611	48.11
809.787	48.01
809.962	49.36
810.138	48.85
810.313	50.21
810.489	49.46
810.664	49.51
810.84	47.65
811.015	47.47
811.191	48.47
811.366	46.78
811.542	46.62
811.717	47.32
811.892	46.42
812.068	47.79
812.243	47.4
812.419	46.54
812.594	46.98
812.769	48.49
812.944	49.22
813.12	49.34
813.295	49.32
813.47	48.29
813.645	48
813.821	48
813.996	45.9
814.171	45.65
814.346	48.36
814.521	48.58
814.697	48.2
814.872	47.62
815.047	47.82
815.222	48.38
815.397	47.76
815.572	48.8
815.747	47.63
815.922	46.46
816.097	46.83
816.272	45.02
816.447	45.04
816.622	45.41
816.797	46.54
816.972	45.77
817.147	45.29
817.322	45.72
817.496	44.66
817.671	44.83
817.846	46.59
818.021	43.83
818.196	42.88
818.371	42.66
818.545	41.67
818.72	40.36
818.895	41.18
819.069	40.23
819.244	40.14
819.419	38.56
819.594	37.37
819.768	36.24
819.943	36.53
820.117	35.74
820.292	34.49
820.467	33.72
820.641	32.67
820.816	30.27
820.99	29.51
821.165	28.27
821.339	27.74
821.514	27.35
821.688	26.88
821.863	26.14
822.037	25.69
822.212	25.04
822.386	24.49
822.56	24.23
822.735	24.37
822.909	24.36
823.084	24.34
823.258	24.52
823.432	24.44
823.606	24.22
823.781	24.4
823.955	24.64
824.129	24.91
824.303	25.35
824.478	25.45
824.652	25.99
824.826	26.36
825	26.99
825.174	27.7
825.348	27.9
825.523	28.5
825.697	29.16
825.871	29.45
826.045	30.04
826.219	30.35
826.393	30.52
826.567	30.07
826.741	30.35
826.915	29.97
827.089	29.53
827.263	29.61
827.437	29.97
827.611	29.81
827.784	29.88
827.958	29.9
828.132	29.77
828.306	30.24
828.48	30.68
828.654	30.85
828.827	32.12
829.001	32.73
829.175	33.42
829.349	34.75
829.522	35.56
829.696	36.25
829.87	37.23
830.044	39.19
830.217	39.54
830.391	40.34
830.565	39.62
830.738	40.08
830.912	41.12
831.085	41.44
831.259	40.75
831.432	41.64
831.606	42.1
831.779	40.64
831.953	39.96
832.126	39.42
832.3	39.05
832.473	39.14
832.647	37.34
832.82	36.69
832.994	36.52
833.167	36.56
833.34	35.93
833.514	35.74
833.687	36.01
833.86	34.67
834.034	34.84
834.207	34.41
834.38	34.79
834.553	34.89
834.727	35.1
834.9	35.02
835.073	35.24
835.246	35.01
835.419	35.21
835.593	35.61
835.766	37.27
835.939	38.27
836.112	39.8
836.285	40.32
836.458	42.29
836.631	43.64
836.804	45.45
836.977	46.2
837.15	48.7
837.323	51.37
837.496	52.86
837.669	52.36
837.842	52.83
838.015	52.45
838.188	53.56
838.361	53.6
838.533	52.58
838.706	52.09
838.879	51.26
839.052	51.55
839.225	49.27
839.398	49.1
839.57	49.89
839.743	50.21
839.916	52.93
840.088	52.4
840.261	53.25
840.434	55.07
840.607	56.11
840.779	56.72
840.952	55.93
841.124	56.88
841.297	57.34
841.47	58.96
841.642	59.44
841.815	59.72
841.987	60.94
842.16	61.74
842.332	62.41
842.505	63.71
842.677	64.32
842.85	67.23
843.022	68.05
843.194	72.7
843.367	74.74
843.539	75.34
843.712	73.45
843.884	76.21
844.056	75.51
844.229	75.45
844.401	74.96
844.573	79.03
844.745	82.07
844.918	83.23
845.09	80.01
845.262	78.23
845.434	82.94
845.606	87.01
845.779	88.12
845.951	89.52
846.123	88.59
846.295	92.13
846.467	91.92
846.639	90.63
846.811	89.89
846.983	93.5
847.155	93.3
847.327	91.46
847.499	92.58
847.671	91.09
847.843	90.02
848.015	91.66
848.187	90.57
848.359	85.87
848.531	86.01
848.703	84.42
848.875	84.48
849.047	85.37
849.218	86.31
849.39	84.8
849.562	85.11
849.734	84.46
849.905	84.23
850.077	80.71
850.249	85.98
850.421	83.35
850.592	87.7
850.764	86.65
850.936	87.23
851.107	85.94
851.279	84.98
851.451	84.97
851.622	87.12
851.794	89.92
851.965	96.23
852.137	95.92
852.308	98.27
852.48	97.87
852.651	93.43
852.823	94.75
852.994	97.49
853.166	97.59
853.337	98.92
853.509	95.22
853.68	93.47
853.851	88.82
854.023	89.21
854.194	89.57
854.365	87.41
854.537	89.68
854.708	89.86
854.879	92.03
855.05	95.69
855.222	92.42
855.393	97.31
855.564	97.66
855.735	104.5
855.906	104.65
856.078	102.4
856.249	100.63
856.42	99.76
856.591	102.94
856.762	99.4
856.933	98.92
857.104	101.39
857.275	100.73
857.446	98.21
857.617	94.86
857.788	94.19
857.959	90.73
858.13	96.23
858.301	95.65
858.472	88.46
858.643	85.88
858.814	84.75
858.985	87.68
859.155	93.21
859.326	99.57
859.497	98.34
859.668	97.35
859.839	106.34
860.009	100.53
860.18	104.71
860.351	108.81
860.522	114.13
860.692	107.84
860.863	104.77
861.034	102.6
861.204	100.09
861.375	99.08
861.546	100
861.716	101.22
861.887	101.48
862.057	98.88
862.228	101.21
862.398	97.79
862.569	99.94
862.739	102.73
862.91	103.36
863.08	97.29
863.251	97.39
863.421	98.23
863.592	94.66
863.762	99.3
863.932	99.82
864.103	102.35
864.273	102.76
864.443	101.49
864.614	101.67
864.784	96.29
864.954	101.74
865.125	100.33
865.295	98.63
865.465	99.89
865.635	103.08
865.805	104.18
865.976	100.68
866.146	101.26
866.316	105.99
866.486	104.68
866.656	107.75
866.826	111.16
866.996	117.39
867.166	118.82
867.336	121.48
867.506	121.24
867.676	119.75
867.846	118.52
868.016	117.79
868.186	110.57
868.356	103.57
868.526	100.86
868.696	98.39
868.866	93.55
869.036	96.16
869.206	92.04
869.376	87.86
869.545	89.56
869.715	92.18
869.885	93.93
870.055	98.1
870.224	104.6
870.394	104.46
870.564	101.22
870.734	102.72
870.903	96.5
871.073	102.78
871.243	101.07
871.412	101.98
871.582	102.43
871.751	98.87
871.921	94.2
872.091	93.01
872.26	92.97
872.43	96.04
872.599	93.85
872.769	97.4
872.938	92.13
873.108	93.18
873.277	89.82
873.446	85.51
873.616	93.54
873.785	98.94
873.955	97.27
874.124	99.38
874.293	94.83
874.463	98.46
874.632	96.74
874.801	100.18
874.971	104.13
875.14	109.18
875.309	109.41
875.478	108.08
875.647	103.7
875.817	108
875.986	104.07
876.155	106.24
876.324	97.69
876.493	98.99
876.662	94.53
876.831	97.11
877	96.09
877.17	96.9
877.339	94.02
877.508	95.3
877.677	94.48
877.846	98.01
878.015	96.62
878.184	100.28
878.352	97.79
878.521	99.93
878.69	96.47
878.859	94.21
879.028	91.36
879.197	87.19
879.366	84.96
879.534	78.14
879.703	72.48
879.872	68.12
880.041	65.28
880.21	61.27
880.378	54.76
880.547	50.14
880.716	46.39
880.884	44.69
881.053	41.87
881.222	39.15
881.39	37.27
881.559	34.99
881.727	33.12
881.896	32.04
882.065	31.82
882.233	31.39
882.402	30.61
882.57	31.07
882.739	30.93
882.907	31.38
883.076	31.9
883.244	32
883.412	33.1
883.581	33.72
883.749	33.68
883.918	33.62
884.086	35
884.254	36.3
884.423	36.21
884.591	37.26
884.759	38.37
884.927	39.31
885.096	41.04
885.264	42.09
885.432	45.7
885.6	50.35
885.769	53.75
885.937	55.29
886.105	58.82
886.273	63.15
886.441	65.94
886.609	68.96
886.777	72.65
886.945	75.91
887.113	79.59
887.281	77.74
887.449	79.27
887.617	82.31
887.785	84.94
887.953	84.44
888.121	84.69
888.289	81.78
888.457	83.42
888.625	84.07
888.793	86.63
888.961	88.86
889.129	95.73
889.296	94.42
889.464	91.61
889.632	92.64
889.8	92.6
889.967	93.07
890.135	103.72
