Data from 2938828__Reflection_03.txt Node
Date: Thu Mar 12 13:19:16 EDT 2015
User: robert
Spectrometer: USB4E03002
Autoset integration time: false
Trigger mode: 4
Integration Time (sec): 1.000000E-1
Scans to average: 10
Electric dark correction enabled: false
Nonlinearity correction enabled: false
Boxcar width: 5
Stray light correction enabled: false
XAxis mode: Wavelengths
Stop averaging: false
Number of Pixels in Spectrum: 3648
>>>>>Begin Spectral Data<<<<<
177.575	-722.79
177.794	-1518.67
178.014	-2779.07
178.233	-1143.48
178.452	-1024.16
178.672	-1067.72
178.891	-1452.46
179.11	-2280.49
179.33	3201.67
179.549	-1968.63
179.768	-1791.27
179.987	2060.17
180.207	1317.65
180.426	1795.81
180.645	1451.61
180.864	668.35
181.084	482.22
181.303	539.64
181.522	436.52
181.741	541.79
181.96	449.72
182.179	388.38
182.398	365.42
182.618	439.27
182.837	437.59
183.056	428.47
183.275	739.45
183.494	1644.29
183.713	982.93
183.932	2934.94
184.151	-2079.21
184.37	-2954.17
184.589	-1268.24
184.808	-1336.84
185.027	-6090.24
185.246	3255.42
185.465	2350.86
185.684	1545.61
185.903	1157.71
186.122	1095.71
186.341	647.84
186.56	376.8
186.779	479.25
186.998	429.07
187.216	421.7
187.435	474.83
187.654	481.76
187.873	414.95
188.092	402.62
188.311	412.03
188.53	370.69
188.748	412.24
188.967	529.49
189.186	412.12
189.405	413.18
189.623	517.75
189.842	375.48
190.061	401.01
190.28	405.37
190.498	338
190.717	346.32
190.936	441.07
191.154	498
191.373	560.39
191.592	464.01
191.81	491.14
192.029	390.97
192.248	693.75
192.466	869.62
192.685	1684.68
192.904	-4871.79
193.122	-12035.29
193.341	4633.33
193.559	2400
193.778	17661.54
193.996	-1818.49
194.215	-936.09
194.433	-498.1
194.652	-601.4
194.87	-1016.74
195.089	-902.14
195.307	-753.06
195.526	-571.77
195.744	-567.56
195.963	-565.95
196.181	-669.27
196.399	-789.86
196.618	-1614.12
196.836	-1870.34
197.055	-1361.31
197.273	-721.3
197.491	-1066.96
197.71	-1532.03
197.928	-1234.68
198.146	-2044.23
198.365	-2077.68
198.583	-24500
198.801	5662.86
199.019	2022.22
199.238	931.19
199.456	690.81
199.674	666.55
199.892	619.82
200.111	1021.28
200.329	467.22
200.547	405.15
200.765	385.9
200.983	423.44
201.202	437.5
201.42	795.75
201.638	1508.59
201.856	1788.97
202.074	1081.42
202.292	1149.58
202.51	730.65
202.728	1511.9
202.946	1606.96
203.165	1442.33
203.383	1487.3
203.601	1127.51
203.819	593.21
204.037	529
204.255	483.33
204.473	395.98
204.691	424.84
204.909	457.22
205.127	497.86
205.345	844.55
205.562	894.57
205.78	1131.31
205.998	965.48
206.216	2131.19
206.434	1794.12
206.652	-2150.98
206.87	-1993.16
207.088	-1378.88
207.306	-1385.99
207.523	-2352
207.741	-5586.36
207.959	3882.81
208.177	1466.86
208.395	1163.81
208.612	888.07
208.83	988.51
209.048	544.05
209.266	541.11
209.483	482.81
209.701	363.91
209.919	308.41
210.136	275.26
210.354	271.9
210.572	309.02
210.79	441.16
211.007	373.07
211.225	370.03
211.442	299.65
211.66	304.81
211.878	279.62
212.095	243.31
212.313	242.69
212.53	242.28
212.748	223.93
212.966	238.63
213.183	200.52
213.401	228.98
213.618	188.14
213.836	250.45
214.053	269.01
214.271	334.54
214.488	605.52
214.705	565.74
214.923	520.77
215.14	648.82
215.358	335.9
215.575	379.68
215.793	289.26
216.01	313.28
216.227	271.12
216.445	244.75
216.662	215.53
216.879	194.7
217.097	190.89
217.314	194.57
217.531	216.96
217.749	257.11
217.966	206.28
218.183	198.18
218.4	176.1
218.618	163.61
218.835	144.03
219.052	156.79
219.269	165.26
219.487	161.11
219.704	148.98
219.921	139.04
220.138	134.58
220.355	138.02
220.572	155.76
220.79	146.42
221.007	146.43
221.224	155.32
221.441	144.56
221.658	143.42
221.875	139.39
222.092	131.04
222.309	128.64
222.526	127.3
222.743	126.08
222.96	113.67
223.177	114.91
223.394	110.31
223.611	112.2
223.828	109.01
224.045	98.42
224.262	91.42
224.479	89.39
224.696	84.25
224.913	76.58
225.13	70.7
225.347	67.31
225.564	67.31
225.781	62.44
225.997	54.36
226.214	49.7
226.431	44.52
226.648	40.57
226.865	36.04
227.082	32.73
227.298	30.59
227.515	28.39
227.732	25.75
227.949	22.78
228.165	21.32
228.382	20.21
228.599	18.83
228.816	18.28
229.032	18.17
229.249	17.01
229.466	16.36
229.682	16.12
229.899	15.87
230.116	16.25
230.332	17.4
230.549	17.46
230.765	18.24
230.982	19.09
231.199	20.15
231.415	21.71
231.632	22.92
231.848	23.36
232.065	24.35
232.281	26.48
232.498	26.89
232.714	26.17
232.931	26.22
233.147	26.58
233.364	27.29
233.58	27.79
233.797	25.5
234.013	26.5
234.23	26.56
234.446	26.12
234.662	25.97
234.879	26.59
235.095	27.94
235.312	28.25
235.528	28.4
235.744	28.48
235.961	28.24
236.177	29.99
236.393	30.08
236.61	30.85
236.826	30.29
237.042	29
237.258	28.24
237.475	28.11
237.691	27.6
237.907	27.65
238.123	26.55
238.339	25.25
238.556	25.23
238.772	25.08
238.988	25.3
239.204	26.19
239.42	24.86
239.636	24.12
239.853	22.11
240.069	22.08
240.285	20.16
240.501	19.25
240.717	18.69
240.933	17.05
241.149	15.87
241.365	14.84
241.581	13.66
241.797	13.5
242.013	13.51
242.229	13.41
242.445	13.27
242.661	13.51
242.877	13.66
243.093	13.62
243.309	13.52
243.525	13.35
243.741	13.48
243.957	14.4
244.173	14.75
244.388	14.39
244.604	14.03
244.82	14.05
245.036	13.22
245.252	12.57
245.468	12.16
245.683	12.27
245.899	11.75
246.115	11.32
246.331	10.82
246.547	9.85
246.762	9.62
246.978	9.34
247.194	8.98
247.409	8.79
247.625	8.76
247.841	8.57
248.057	8.27
248.272	8.62
248.488	9.15
248.703	8.71
248.919	9.55
249.135	9.79
249.35	10.34
249.566	10.49
249.782	11.4
249.997	11.93
250.213	12.29
250.428	13.12
250.644	13.33
250.859	12.89
251.075	13.39
251.29	13.6
251.506	13.85
251.721	13.78
251.937	13.85
252.152	13.35
252.368	12.9
252.583	13.36
252.798	13.07
253.014	12.88
253.229	13.1
253.445	13.61
253.66	13.41
253.875	14.02
254.091	14.44
254.306	14.54
254.521	15.36
254.737	16.09
254.952	15.73
255.167	15.45
255.383	15.46
255.598	15.49
255.813	15.83
256.028	15.81
256.244	15.44
256.459	14.5
256.674	14.4
256.889	14.17
257.104	13.64
257.32	13.13
257.535	13.02
257.75	12.57
257.965	11.39
258.18	10.37
258.395	9.48
258.61	8.58
258.826	8.37
259.041	7.8
259.256	7.45
259.471	7.04
259.686	6.67
259.901	6.5
260.116	6.23
260.331	6.28
260.546	6.17
260.761	5.92
260.976	6.15
261.191	6.32
261.406	6.75
261.621	6.98
261.836	7.38
262.05	7.96
262.265	8.5
262.48	9.32
262.695	9.76
262.91	10.71
263.125	11.76
263.34	11.77
263.555	12.22
263.769	11.46
263.984	11.16
264.199	11.34
264.414	11.74
264.629	11.75
264.843	11.42
265.058	11.2
265.273	10.59
265.488	11.03
265.702	10.96
265.917	10.26
266.132	10.97
266.346	11.26
266.561	10.86
266.776	10.58
266.99	10.24
267.205	10.4
267.42	10.3
267.634	10.25
267.849	9.6
268.063	8.98
268.278	9.11
268.492	9.25
268.707	8.93
268.922	8.75
269.136	8.55
269.351	8.47
269.565	8.19
269.78	8.21
269.994	8.35
270.209	8.35
270.423	8.9
270.637	8.96
270.852	8.73
271.066	8.74
271.281	9.19
271.495	9.19
271.709	9.22
271.924	9
272.138	8.68
272.353	8.47
272.567	8.51
272.781	8.39
272.996	7.94
273.21	8.24
273.424	8.17
273.638	8.2
273.853	8.23
274.067	7.79
274.281	8.3
274.495	9.07
274.71	9.37
274.924	9.38
275.138	9.64
275.352	9.34
275.566	9.61
275.781	9.93
275.995	9.26
276.209	9.76
276.423	10.6
276.637	9.92
276.851	9.21
277.065	8.88
277.279	8.62
277.493	8.32
277.707	9.07
277.921	8.71
278.135	8.48
278.349	8.74
278.563	8.31
278.777	7.74
278.991	8.11
279.205	8.6
279.419	8.54
279.633	8.98
279.847	8.96
280.061	8.98
280.275	8.51
280.489	8.22
280.703	7.87
280.917	7.62
281.131	7.67
281.344	7.89
281.558	7.55
281.772	7.28
281.986	6.7
282.2	6.96
282.414	6.9
282.627	6.8
282.841	7.06
283.055	7.15
283.269	7.5
283.482	7.73
283.696	7.05
283.91	6.93
284.123	7.24
284.337	7.66
284.551	7.36
284.764	7.36
284.978	7.28
285.192	6.83
285.405	7.06
285.619	6.77
285.833	6.73
286.046	6.88
286.26	7.11
286.473	7.02
286.687	6.9
286.9	6.69
287.114	6.71
287.327	6.7
287.541	7.1
287.754	6.98
287.968	7.22
288.181	7.07
288.395	7.23
288.608	7.16
288.822	7.35
289.035	7.26
289.248	7.61
289.462	7.48
289.675	7.87
289.889	7.84
290.102	7.88
290.315	7.58
290.529	7.45
290.742	7.38
290.955	7.31
291.169	7.19
291.382	7.54
291.595	7.91
291.808	7.78
292.022	7.69
292.235	7.7
292.448	7.95
292.661	8.5
292.875	8.87
293.088	9.21
293.301	9.66
293.514	9.75
293.727	9.47
293.94	8.83
294.153	8.99
294.367	8.88
294.58	8.82
294.793	8.76
295.006	8.26
295.219	7.98
295.432	7.83
295.645	7.6
295.858	7.27
296.071	7.2
296.284	7.21
296.497	6.94
296.71	6.95
296.923	7.04
297.136	6.93
297.349	7.15
297.562	7.15
297.775	7.16
297.988	7.18
298.201	7.49
298.414	7.87
298.626	8.06
298.839	8.19
299.052	8.57
299.265	8.65
299.478	8.91
299.691	8.95
299.903	9.46
300.116	9.65
300.329	9.38
300.542	9.57
300.755	9.55
300.967	9.72
301.18	10.13
301.393	9.9
301.605	9.89
301.818	9.88
302.031	9.99
302.243	9.71
302.456	9.74
302.669	9.94
302.881	9.73
303.094	9.58
303.307	9.27
303.519	9.35
303.732	9.12
303.944	9.28
304.157	9.35
304.37	9.37
304.582	9.64
304.795	9.8
305.007	10.02
305.22	10.53
305.432	10.47
305.645	10.92
305.857	10.88
306.069	11.54
306.282	11.41
306.494	11.22
306.707	11.07
306.919	10.83
307.132	10.71
307.344	10.89
307.556	10.51
307.769	10.9
307.981	10.58
308.193	10.47
308.406	10.15
308.618	10.33
308.83	10.03
309.043	10.38
309.255	10.12
309.467	10.13
309.679	10.23
309.892	10.15
310.104	9.65
310.316	9.52
310.528	9.37
310.74	9.17
310.953	9.08
311.165	9.23
311.377	9.15
311.589	9.49
311.801	9.26
312.013	9.08
312.225	9.25
312.437	9.7
312.649	10.17
312.862	10.45
313.074	10.72
313.286	10.56
313.498	10.82
313.71	10.77
313.922	10.77
314.134	10.94
314.346	11.19
314.558	10.87
314.77	10.87
314.982	10.8
315.193	10.89
315.405	11.18
315.617	11.6
315.829	11.54
316.041	11.07
316.253	11.14
316.465	11.42
316.677	11.25
316.888	11.8
317.1	11.82
317.312	11.98
317.524	11.75
317.736	11.63
317.947	11.75
318.159	11.64
318.371	12.44
318.583	12.46
318.794	12.63
319.006	12.59
319.218	12.48
319.43	12.6
319.641	12.24
319.853	12.63
320.064	12.86
320.276	12.6
320.488	13.38
320.699	13.49
320.911	13.57
321.123	13.33
321.334	13.79
321.546	13.9
321.757	13.78
321.969	14.06
322.18	14.23
322.392	13.91
322.603	14.39
322.815	13.77
323.026	13.55
323.238	13.46
323.449	13.42
323.661	13.19
323.872	12.85
324.083	13.17
324.295	13.37
324.506	12.81
324.718	12.99
324.929	12.73
325.14	13.18
325.352	13.07
325.563	13.21
325.774	13.46
325.986	13.71
326.197	13.94
326.408	13.98
326.62	13.91
326.831	14.77
327.042	14.27
327.253	14.31
327.464	14.23
327.676	14.5
327.887	14.68
328.098	14.51
328.309	14.31
328.52	14.6
328.732	14.26
328.943	14.51
329.154	14.33
329.365	15.18
329.576	15.56
329.787	15.91
329.998	15.7
330.209	15.61
330.42	15.97
330.631	16.52
330.842	16.45
331.053	16.76
331.264	16.61
331.475	16.57
331.686	16.56
331.897	16.31
332.108	15.89
332.319	16.15
332.53	16.22
332.741	16.01
332.952	15.6
333.163	15.08
333.374	15.08
333.585	15
333.795	15.08
334.006	15.01
334.217	15.25
334.428	15.35
334.639	15.34
334.849	15.48
335.06	15.58
335.271	15.74
335.482	16.05
335.692	15.81
335.903	15.87
336.114	15.21
336.325	15.24
336.535	15
336.746	15.03
336.957	14.58
337.167	14.35
337.378	14.09
337.589	13.98
337.799	13.75
338.01	14.24
338.22	14.28
338.431	14.92
338.642	15
338.852	14.92
339.063	14.9
339.273	15.44
339.484	15.81
339.694	16.1
339.905	16.04
340.115	16.8
340.326	16.33
340.536	16.08
340.746	15.74
340.957	15.58
341.167	15.89
341.378	15.83
341.588	15.58
341.799	15.34
342.009	14.97
342.219	14.66
342.43	14.21
342.64	14.01
342.85	14.22
343.061	14.2
343.271	14
343.481	13.78
343.691	13.66
343.902	13.53
344.112	13.39
344.322	13.43
344.532	13.56
344.743	13.65
344.953	13.89
345.163	13.83
345.373	13.87
345.583	14.02
345.793	13.91
346.004	14.48
346.214	14.64
346.424	14.68
346.634	14.81
346.844	14.75
347.054	14.43
347.264	14.55
347.474	14.64
347.684	14.82
347.894	14.79
348.104	14.91
348.314	14.27
348.524	14.01
348.734	14.27
348.944	14.29
349.154	14.41
349.364	14.62
349.574	14.45
349.784	14.19
349.994	14.06
350.204	14.13
350.413	14.08
350.623	14.21
350.833	14.4
351.043	14.19
351.253	14.12
351.463	14.2
351.672	14.27
351.882	14.27
352.092	14.6
352.302	14.59
352.511	14.58
352.721	14.58
352.931	14.61
353.141	14.78
353.35	14.57
353.56	14.8
353.77	14.71
353.979	14.53
354.189	14.36
354.399	13.88
354.608	13.85
354.818	13.94
355.027	13.96
355.237	13.7
355.447	13.53
355.656	13.84
355.866	13.62
356.075	13.19
356.285	13.17
356.494	13.08
356.704	12.97
356.913	13.06
357.123	12.83
357.332	12.67
357.542	12.93
357.751	12.85
357.96	12.57
358.17	12.48
358.379	12.86
358.589	12.8
358.798	12.88
359.007	13.01
359.217	12.62
359.426	12.47
359.635	12.51
359.845	11.95
360.054	11.88
360.263	11.72
360.472	11.72
360.682	11.65
360.891	11.66
361.1	11.53
361.309	11.55
361.519	11.67
361.728	11.61
361.937	11.75
362.146	11.81
362.355	11.77
362.564	11.92
362.774	12
362.983	12.02
363.192	11.94
363.401	12.12
363.61	12.11
363.819	12.11
364.028	12.4
364.237	12.41
364.446	12.56
364.655	12.47
364.864	12.41
365.073	12.27
365.282	12.03
365.491	11.99
365.7	11.86
365.909	12.07
366.118	11.69
366.327	11.65
366.536	11.15
366.745	11.37
366.954	11.56
367.162	11.66
367.371	11.55
367.58	11.81
367.789	11.81
367.998	11.81
368.207	11.55
368.415	12.08
368.624	11.84
368.833	11.82
369.042	11.41
369.25	11.47
369.459	11.41
369.668	11.54
369.877	11.38
370.085	11.31
370.294	11.22
370.503	11.24
370.711	10.96
370.92	11.09
371.129	11.17
371.337	11.27
371.546	11.03
371.754	10.84
371.963	10.73
372.171	10.64
372.38	10.89
372.589	10.95
372.797	10.8
373.006	10.82
373.214	10.69
373.423	11.07
373.631	10.98
373.84	11.29
374.048	11.14
374.256	11.07
374.465	11.06
374.673	10.82
374.882	10.68
375.09	10.86
375.298	10.73
375.507	10.66
375.715	10.28
375.923	10.23
376.132	10.15
376.34	10.3
376.548	10.35
376.757	10.32
376.965	10.31
377.173	10.26
377.381	10.33
377.59	10.32
377.798	10.46
378.006	10.44
378.214	10.49
378.423	10.35
378.631	10.33
378.839	9.92
379.047	9.77
379.255	9.75
379.463	9.93
379.671	9.6
379.879	9.7
380.088	9.54
380.296	9.62
380.504	9.6
380.712	9.52
380.92	9.35
381.128	9.79
381.336	9.88
381.544	9.8
381.752	9.69
381.96	9.7
382.168	9.5
382.376	9.53
382.584	9.42
382.791	9.13
382.999	9.04
383.207	8.8
383.415	8.47
383.623	8.55
383.831	8.71
384.039	8.43
384.247	8.38
384.454	8.38
384.662	8.3
384.87	8.25
385.078	8.41
385.285	8.22
385.493	8.49
385.701	8.42
385.909	8.26
386.116	8.23
386.324	8.52
386.532	8.58
386.739	8.58
386.947	8.54
387.155	8.65
387.362	8.68
387.57	8.86
387.778	8.7
387.985	8.83
388.193	8.77
388.4	8.58
388.608	8.6
388.816	8.32
389.023	8.58
389.231	8.49
389.438	8.54
389.646	8.65
389.853	8.44
390.061	8.4
390.268	8.31
390.475	8.27
390.683	8.23
390.89	8.13
391.098	8.24
391.305	7.85
391.512	7.7
391.72	7.39
391.927	7.17
392.135	7.19
392.342	7.16
392.549	7.41
392.756	7.42
392.964	7.25
393.171	7.01
393.378	6.99
393.586	6.99
393.793	7.16
394	7.11
394.207	7.12
394.414	7.11
394.622	7.13
394.829	7.15
395.036	7.11
395.243	7.36
395.45	7.53
395.657	7.6
395.864	7.68
396.072	7.56
396.279	7.72
396.486	7.63
396.693	7.59
396.9	7.66
397.107	7.3
397.314	7.26
397.521	7.16
397.728	7.07
397.935	7.06
398.142	6.93
398.349	6.86
398.556	6.79
398.763	6.92
398.97	6.93
399.177	6.74
399.383	6.64
399.59	6.57
399.797	6.61
400.004	6.73
400.211	6.58
400.418	6.61
400.625	6.57
400.831	6.52
401.038	6.34
401.245	6.31
401.452	6.43
401.658	6.83
401.865	6.92
402.072	6.77
402.279	6.63
402.485	6.74
402.692	6.76
402.899	6.88
403.105	6.99
403.312	7.1
403.519	6.94
403.725	6.9
403.932	6.66
404.138	6.53
404.345	6.39
404.552	6.42
404.758	6.34
404.965	6.33
405.171	6.16
405.378	6.05
405.584	5.96
405.791	6.02
405.997	6.01
406.204	6.03
406.41	6.22
406.617	6.36
406.823	6.24
407.029	6.27
407.236	6.11
407.442	6.25
407.649	6.25
407.855	6.11
408.061	6.07
408.268	6.01
408.474	6.04
408.68	5.91
408.887	5.81
409.093	5.84
409.299	5.66
409.505	5.66
409.712	5.53
409.918	5.58
410.124	5.73
410.33	5.65
410.537	5.66
410.743	5.71
410.949	5.52
411.155	5.69
411.361	5.7
411.567	5.88
411.773	5.88
411.98	5.85
412.186	5.73
412.392	5.84
412.598	6.13
412.804	6.34
413.01	6.4
413.216	6.62
413.422	6.55
413.628	6.48
413.834	6.38
414.04	6.48
414.246	6.46
414.452	6.6
414.658	6.49
414.864	6.52
415.07	6.38
415.275	6.2
415.481	6.09
415.687	6.01
415.893	5.93
416.099	5.91
416.305	5.92
416.511	5.99
416.716	5.74
416.922	5.64
417.128	5.43
417.334	5.21
417.539	5.1
417.745	5.09
417.951	4.94
418.157	4.83
418.362	4.77
418.568	4.67
418.774	4.57
418.979	4.51
419.185	4.33
419.391	4.21
419.596	4.31
419.802	4.31
420.008	4.27
420.213	4.27
420.419	4.38
420.624	4.43
420.83	4.37
421.035	4.39
421.241	4.36
421.446	4.46
421.652	4.53
421.857	4.31
422.063	4.31
422.268	4.26
422.474	4.27
422.679	4.23
422.885	4.13
423.09	4.17
423.295	4.13
423.501	4.07
423.706	4.06
423.911	4.05
424.117	4.2
424.322	4.16
424.527	4.2
424.733	4.17
424.938	4.17
425.143	4.17
425.349	4.17
425.554	4.16
425.759	4.3
425.964	4.33
426.169	4.28
426.375	4.28
426.58	4.3
426.785	4.22
426.99	4.25
427.195	4.17
427.4	4.14
427.605	4.22
427.811	4.25
428.016	4.22
428.221	4.11
428.426	4.22
428.631	4.18
428.836	4.13
429.041	4.23
429.246	4.31
429.451	4.46
429.656	4.56
429.861	4.38
430.066	4.29
430.271	4.15
430.476	4.23
430.681	4.15
430.886	4.2
431.09	4.31
431.295	4.29
431.5	4.22
431.705	4.13
431.91	4.05
432.115	4.12
432.32	4.13
432.524	4.21
432.729	4.21
432.934	4.22
433.139	4.24
433.343	4.21
433.548	4.18
433.753	4.21
433.958	4.26
434.162	4.34
434.367	4.4
434.572	4.51
434.776	4.57
434.981	4.58
435.186	4.61
435.39	4.62
435.595	4.75
435.799	4.79
436.004	4.81
436.209	4.83
436.413	4.8
436.618	4.73
436.822	4.63
437.027	4.59
437.231	4.62
437.436	4.61
437.64	4.6
437.845	4.48
438.049	4.53
438.253	4.57
438.458	4.52
438.662	4.43
438.867	4.4
439.071	4.29
439.275	4.35
439.48	4.29
439.684	4.32
439.888	4.22
440.093	4.18
440.297	4.12
440.501	3.99
440.706	3.93
440.91	3.94
441.114	3.99
441.318	4.11
441.523	4.09
441.727	4.15
441.931	4.09
442.135	4.1
442.339	4.12
442.543	4.16
442.748	4.29
442.952	4.35
443.156	4.42
443.36	4.39
443.564	4.35
443.768	4.3
443.972	4.15
444.176	4.28
444.38	4.32
444.584	4.28
444.788	4.22
444.992	4.17
445.196	4.11
445.4	4.02
445.604	3.97
445.808	3.93
446.012	3.93
446.216	3.94
446.42	3.82
446.624	3.79
446.828	3.81
447.032	3.76
447.235	3.71
447.439	3.69
447.643	3.78
447.847	3.83
448.051	3.86
448.254	3.9
448.458	3.94
448.662	3.91
448.866	3.91
449.069	3.82
449.273	3.9
449.477	4.01
449.681	4.03
449.884	3.99
450.088	4.11
450.292	4.13
450.495	4.14
450.699	4.13
450.902	4.23
451.106	4.29
451.31	4.39
451.513	4.32
451.717	4.28
451.92	4.41
452.124	4.37
452.327	4.13
452.531	4.29
452.734	4.2
452.938	4.17
453.141	4.05
453.345	4.06
453.548	4.12
453.752	4.22
453.955	4.18
454.158	4.1
454.362	4.15
454.565	4.32
454.769	4.19
454.972	4.21
455.175	4.3
455.379	4.43
455.582	4.49
455.785	4.39
455.988	4.37
456.192	4.36
456.395	4.39
456.598	4.37
456.801	4.35
457.005	4.36
457.208	4.45
457.411	4.31
457.614	4.29
457.817	4.21
458.021	4.2
458.224	4.16
458.427	4.17
458.63	4.14
458.833	4.07
459.036	3.95
459.239	3.81
459.442	3.72
459.645	3.8
459.848	3.72
460.051	3.68
460.254	3.75
460.457	3.67
460.66	3.66
460.863	3.69
461.066	3.75
461.269	3.77
461.472	3.97
461.675	3.98
461.878	4.07
462.081	4.13
462.284	4.15
462.486	4.08
462.689	4.15
462.892	4.05
463.095	3.94
463.298	3.91
463.5	3.99
463.703	3.95
463.906	4.04
464.109	3.9
464.311	3.92
464.514	4.07
464.717	4.04
464.92	4.11
465.122	4.19
465.325	4.22
465.528	4.18
465.73	4.28
465.933	4.31
466.135	4.17
466.338	4.19
466.541	4.3
466.743	4.21
466.946	4.2
467.148	4.14
467.351	4.2
467.553	4.29
467.756	4.36
467.958	4.32
468.161	4.22
468.363	4.34
468.566	4.37
468.768	4.34
468.971	4.38
469.173	4.39
469.375	4.47
469.578	4.46
469.78	4.5
469.983	4.49
470.185	4.56
470.387	4.59
470.59	4.49
470.792	4.64
470.994	4.71
471.196	4.66
471.399	4.7
471.601	4.66
471.803	4.63
472.005	4.54
472.208	4.57
472.41	4.53
472.612	4.63
472.814	4.71
473.016	4.61
473.218	4.42
473.421	4.43
473.623	4.38
473.825	4.33
474.027	4.44
474.229	4.41
474.431	4.33
474.633	4.28
474.835	4.22
475.037	4.17
475.239	4.17
475.441	4.29
475.643	4.21
475.845	4.21
476.047	4.18
476.249	4.09
476.451	4.11
476.653	4.15
476.855	4.14
477.057	4.15
477.258	4.14
477.46	4.12
477.662	4.1
477.864	4.11
478.066	4.06
478.268	4.22
478.469	4.22
478.671	4.2
478.873	4.21
479.075	4.18
479.276	4.12
479.478	4.1
479.68	4.02
479.882	3.98
480.083	3.96
480.285	3.97
480.487	3.87
480.688	3.81
480.89	3.79
481.091	3.7
481.293	3.66
481.495	3.59
481.696	3.56
481.898	3.49
482.099	3.43
482.301	3.36
482.502	3.37
482.704	3.3
482.905	3.27
483.107	3.23
483.308	3.19
483.51	3.18
483.711	3.16
483.913	3.13
484.114	3.11
484.315	3.1
484.517	3.12
484.718	3.09
484.92	3.12
485.121	3.13
485.322	3.15
485.524	3.21
485.725	3.2
485.926	3.22
486.127	3.22
486.329	3.25
486.53	3.26
486.731	3.25
486.932	3.23
487.134	3.21
487.335	3.23
487.536	3.21
487.737	3.15
487.938	3.15
488.139	3.18
488.341	3.19
488.542	3.2
488.743	3.17
488.944	3.2
489.145	3.26
489.346	3.27
489.547	3.24
489.748	3.3
489.949	3.33
490.15	3.32
490.351	3.31
490.552	3.3
490.753	3.31
490.954	3.34
491.155	3.33
491.356	3.31
491.557	3.3
491.758	3.34
491.959	3.3
492.159	3.33
492.36	3.36
492.561	3.37
492.762	3.38
492.963	3.43
493.164	3.45
493.364	3.58
493.565	3.67
493.766	3.76
493.967	3.79
494.167	3.85
494.368	3.9
494.569	3.98
494.769	4.06
494.97	4.18
495.171	4.14
495.371	4.24
495.572	4.12
495.773	4.06
495.973	4.09
496.174	4.03
496.375	3.99
496.575	4.01
496.776	4.01
496.976	4
497.177	3.95
497.377	4.08
497.578	4.07
497.778	4.07
497.979	4.13
498.179	4.1
498.38	4.22
498.58	4.26
498.78	4.34
498.981	4.41
499.181	4.43
499.382	4.44
499.582	4.39
499.782	4.43
499.983	4.4
500.183	4.41
500.383	4.38
500.584	4.41
500.784	4.52
500.984	4.44
501.184	4.38
501.385	4.47
501.585	4.57
501.785	4.56
501.985	4.61
502.185	4.76
502.386	4.79
502.586	4.88
502.786	4.84
502.986	4.83
503.186	4.85
503.386	4.91
503.586	4.89
503.786	4.83
503.987	4.96
504.187	4.9
504.387	5
504.587	4.98
504.787	5
504.987	5.1
505.187	5.08
505.387	5.17
505.587	5.09
505.786	5.16
505.986	5.26
506.186	5.22
506.386	5.19
506.586	5.11
506.786	5.17
506.986	5.17
507.186	5.11
507.386	5.19
507.585	5.17
507.785	5.3
507.985	5.34
508.185	5.36
508.384	5.43
508.584	5.55
508.784	5.6
508.984	5.61
509.183	5.69
509.383	5.74
509.583	5.75
509.782	5.75
509.982	5.77
510.182	5.79
510.381	5.82
510.581	5.84
510.781	5.88
510.98	5.85
511.18	5.84
511.379	5.93
511.579	6.01
511.778	6.07
511.978	6.11
512.177	6.11
512.377	6.13
512.576	6.21
512.776	6.21
512.975	6.21
513.175	6.31
513.374	6.42
513.573	6.34
513.773	6.27
513.972	6.32
514.172	6.48
514.371	6.69
514.57	6.82
514.77	6.91
514.969	7.12
515.168	7.21
515.367	7.2
515.567	7.32
515.766	7.5
515.965	7.72
516.164	7.81
516.364	7.83
516.563	7.78
516.762	7.69
516.961	7.67
517.16	7.64
517.359	7.64
517.559	7.73
517.758	7.71
517.957	7.72
518.156	7.74
518.355	7.78
518.554	7.86
518.753	7.95
518.952	8.03
519.151	8.1
519.35	8.15
519.549	8.27
519.748	8.41
519.947	8.56
520.146	8.55
520.345	8.56
520.544	8.6
520.743	8.65
520.942	8.65
521.141	8.76
521.339	8.81
521.538	8.83
521.737	8.81
521.936	8.83
522.135	8.86
522.333	9.07
522.532	9.11
522.731	9.18
522.93	9.24
523.129	9.3
523.327	9.37
523.526	9.44
523.725	9.59
523.923	9.69
524.122	9.8
524.321	9.8
524.519	9.78
524.718	9.83
524.917	9.87
525.115	9.84
525.314	9.91
525.512	9.91
525.711	9.97
525.909	9.91
526.108	9.98
526.306	9.98
526.505	10
526.703	10.04
526.902	10.11
527.1	10.15
527.299	10.16
527.497	10.16
527.696	10.16
527.894	10.17
528.092	10.22
528.291	10.25
528.489	10.21
528.688	10.22
528.886	10.23
529.084	10.23
529.283	10.26
529.481	10.31
529.679	10.35
529.877	10.36
530.076	10.39
530.274	10.43
530.472	10.47
530.67	10.54
530.869	10.65
531.067	10.76
531.265	10.87
531.463	10.94
531.661	11.01
531.859	11.13
532.057	11.31
532.255	11.38
532.454	11.4
532.652	11.39
532.85	11.46
533.048	11.51
533.246	11.49
533.444	11.48
533.642	11.51
533.84	11.54
534.038	11.51
534.236	11.53
534.434	11.57
534.632	11.61
534.83	11.68
535.027	11.71
535.225	11.69
535.423	11.8
535.621	11.82
535.819	11.86
536.017	11.92
536.215	11.99
536.412	12.01
536.61	12.04
536.808	12.09
537.006	12.17
537.203	12.29
537.401	12.36
537.599	12.35
537.797	12.42
537.994	12.54
538.192	12.66
538.39	12.76
538.587	12.85
538.785	12.9
538.983	12.94
539.18	12.98
539.378	12.99
539.575	13.01
539.773	13.11
539.97	13.16
540.168	13.13
540.366	13.11
540.563	13.11
540.761	13.06
540.958	13.07
541.155	13.08
541.353	13.07
541.55	13.07
541.748	13.08
541.945	13.07
542.143	13.06
542.34	13.09
542.537	13.09
542.735	13.11
542.932	13.17
543.129	13.24
543.327	13.36
543.524	13.44
543.721	13.54
543.919	13.61
544.116	13.71
544.313	13.82
544.51	14.01
544.708	14.1
544.905	14.2
545.102	14.32
545.299	14.41
545.496	14.46
545.693	14.54
545.891	14.52
546.088	14.6
546.285	14.6
546.482	14.6
546.679	14.48
546.876	14.47
547.073	14.53
547.27	14.57
547.467	14.49
547.664	14.48
547.861	14.42
548.058	14.52
548.255	14.65
548.452	14.7
548.649	14.82
548.846	14.91
549.043	14.94
549.24	14.96
549.437	15.05
549.633	15.19
549.83	15.24
550.027	15.38
550.224	15.37
550.421	15.25
550.618	15.28
550.814	15.19
551.011	15.32
551.208	15.4
551.405	15.46
551.601	15.3
551.798	15.29
551.995	15.38
552.191	15.43
552.388	15.51
552.585	15.6
552.781	15.62
552.978	15.71
553.175	15.66
553.371	15.7
553.568	15.65
553.764	15.74
553.961	15.82
554.157	15.76
554.354	15.78
554.55	15.8
554.747	15.78
554.943	15.73
555.14	15.79
555.336	15.82
555.533	15.8
555.729	15.82
555.926	15.84
556.122	15.89
556.318	15.95
556.515	16.01
556.711	16.07
556.907	16.11
557.104	16.31
557.3	16.32
557.496	16.32
557.693	16.32
557.889	16.39
558.085	16.48
558.281	16.48
558.478	16.37
558.674	16.29
558.87	16.26
559.066	16.29
559.262	16.21
559.459	16.25
559.655	16.36
559.851	16.52
560.047	16.52
560.243	16.59
560.439	16.77
560.635	16.88
560.831	16.94
561.027	16.84
561.223	16.74
561.419	16.89
561.615	16.94
561.811	17.01
562.007	16.88
562.203	16.96
562.399	16.91
562.595	16.82
562.791	16.86
562.987	16.94
563.183	17.05
563.379	17.24
563.575	17.25
563.771	17.23
563.966	17.27
564.162	17.34
564.358	17.35
564.554	17.37
564.75	17.35
564.945	17.36
565.141	17.35
565.337	17.37
565.533	17.32
565.728	17.3
565.924	17.27
566.12	17.21
566.315	17.3
566.511	17.3
566.707	17.3
566.902	17.37
567.098	17.4
567.293	17.35
567.489	17.35
567.684	17.33
567.88	17.35
568.076	17.48
568.271	17.56
568.467	17.48
568.662	17.54
568.858	17.52
569.053	17.44
569.248	17.34
569.444	17.25
569.639	17.31
569.835	17.34
570.03	17.31
570.225	17.27
570.421	17.2
570.616	17.32
570.812	17.29
571.007	17.32
571.202	17.34
571.397	17.56
571.593	17.67
571.788	17.7
571.983	17.83
572.178	17.93
572.374	17.95
572.569	18.03
572.764	18.02
572.959	18.14
573.154	18.15
573.35	18.2
573.545	18.22
573.74	18.25
573.935	18.28
574.13	18.25
574.325	18.23
574.52	18.3
574.715	18.29
574.91	18.26
575.105	18.19
575.3	18.3
575.495	18.43
575.69	18.31
575.885	18.43
576.08	18.53
576.275	18.56
576.47	18.59
576.665	18.56
576.86	18.62
577.055	18.85
577.25	18.89
577.444	19.05
577.639	19.06
577.834	19.18
578.029	19.23
578.224	19.17
578.418	19.26
578.613	19.26
578.808	19.41
579.003	19.4
579.197	19.29
579.392	19.43
579.587	19.26
579.781	19.4
579.976	19.53
580.171	19.46
580.365	19.5
580.56	19.52
580.755	19.71
580.949	19.7
581.144	19.76
581.338	19.76
581.533	19.69
581.727	19.78
581.922	19.54
582.116	19.47
582.311	19.55
582.505	19.54
582.7	19.59
582.894	19.53
583.089	19.48
583.283	19.53
583.478	19.65
583.672	19.78
583.866	19.76
584.061	19.82
584.255	19.86
584.449	19.8
584.644	19.68
584.838	19.8
585.032	19.88
585.226	20.15
585.421	20.19
585.615	20.17
585.809	20.06
586.003	20.12
586.198	20.28
586.392	20.29
586.586	20.42
586.78	20.47
586.974	20.44
587.168	20.28
587.363	20.13
587.557	20.08
587.751	20.08
587.945	20.15
588.139	20.2
588.333	20.06
588.527	20
588.721	20
588.915	20.19
589.109	20.23
589.303	20.3
589.497	20.32
589.691	20.3
589.885	20.17
590.079	20.18
590.273	20.17
590.466	20.28
590.66	20.36
590.854	20.48
591.048	20.51
591.242	20.48
591.436	20.63
591.629	20.62
591.823	20.84
592.017	20.9
592.211	20.9
592.404	20.88
592.598	20.86
592.792	20.79
592.986	20.68
593.179	20.72
593.373	20.59
593.567	20.36
593.76	20.27
593.954	20.11
594.147	20.21
594.341	20.1
594.535	20.23
594.728	20.21
594.922	20.2
595.115	20.03
595.309	19.97
595.502	19.98
595.696	20.04
595.889	20.01
596.083	19.99
596.276	19.91
596.47	19.95
596.663	19.81
596.856	19.83
597.05	19.9
597.243	20.11
597.437	20.1
597.63	20.11
597.823	20.16
598.017	20.26
598.21	20.27
598.403	20.42
598.596	20.46
598.79	20.62
598.983	20.67
599.176	20.74
599.369	20.84
599.563	20.81
599.756	20.98
599.949	21.11
600.142	21.12
600.335	21.32
600.528	21.22
600.722	21.37
600.915	21.52
601.108	21.57
601.301	21.55
601.494	21.46
601.687	21.49
601.88	21.32
602.073	21.05
602.266	21
602.459	20.77
602.652	20.65
602.845	20.57
603.038	20.42
603.231	20.39
603.424	20.37
603.617	20.3
603.809	20.31
604.002	20.37
604.195	20.67
604.388	20.6
604.581	20.75
604.774	20.87
604.966	20.95
605.159	20.93
605.352	20.99
605.545	21.01
605.737	21.02
605.93	21.08
606.123	21.32
606.316	21.14
606.508	21.35
606.701	21.49
606.894	21.65
607.086	21.74
607.279	21.88
607.471	22.15
607.664	22.2
607.857	22.4
608.049	22.57
608.242	22.54
608.434	22.79
608.627	23.03
608.819	23.17
609.012	23.45
609.204	23.73
609.397	24.18
609.589	24.57
609.782	24.94
609.974	25.41
610.166	25.9
610.359	26.51
610.551	26.85
610.743	27.28
610.936	27.74
611.128	28.02
611.32	28.26
611.513	28.28
611.705	28.17
611.897	28.41
612.09	28.27
612.282	28
612.474	27.77
612.666	27.63
612.858	27.5
613.051	27.08
613.243	26.8
613.435	26.6
613.627	26.52
613.819	26.4
614.011	26.1
614.203	26.06
614.395	25.89
614.588	25.72
614.78	25.58
614.972	25.32
615.164	25.35
615.356	25.11
615.548	25
615.74	24.7
615.932	24.34
616.124	24.21
616.315	23.87
616.507	23.86
616.699	23.49
616.891	23.42
617.083	23.39
617.275	23.24
617.467	23.41
617.659	23.18
617.85	23.29
618.042	23.38
618.234	23.13
618.426	23.16
618.618	23.06
618.809	23.11
619.001	23.17
619.193	23.11
619.384	23.25
619.576	23.11
619.768	23.07
619.959	23.12
620.151	23.17
620.343	23.16
620.534	23.23
620.726	23.24
620.917	23.29
621.109	23.22
621.301	23.33
621.492	23.04
621.684	23.06
621.875	23.21
622.067	23.06
622.258	23.13
622.45	23.32
622.641	23.32
622.832	23.46
623.024	23.4
623.215	23.55
623.407	23.36
623.598	23.45
623.789	23.55
623.981	23.51
624.172	23.56
624.363	23.49
624.555	23.45
624.746	23.51
624.937	23.48
625.129	23.6
625.32	23.65
625.511	23.69
625.702	23.41
625.893	23.31
626.085	23.29
626.276	23.36
626.467	23.44
626.658	23.38
626.849	23.29
627.04	23.21
627.231	23.13
627.422	22.93
627.614	22.88
627.805	23.23
627.996	23.28
628.187	23.21
628.378	23.24
628.569	23.16
628.76	23.4
628.951	23.69
629.142	23.76
629.332	23.8
629.523	24.01
629.714	24.05
629.905	24.11
630.096	24.31
630.287	24.52
630.478	24.38
630.669	24.52
630.859	24.43
631.05	24.16
631.241	24.28
631.432	24.25
631.623	24.18
631.813	24.17
632.004	24.09
632.195	23.75
632.385	23.67
632.576	23.57
632.767	23.55
632.957	23.55
633.148	23.68
633.339	23.58
633.529	23.78
633.72	23.66
633.91	23.71
634.101	23.7
634.292	23.82
634.482	23.89
634.673	24.04
634.863	23.88
635.054	23.84
635.244	23.87
635.435	23.86
635.625	23.63
635.815	23.85
636.006	23.94
636.196	23.96
636.387	23.93
636.577	23.98
636.767	23.97
636.958	23.96
637.148	23.92
637.338	23.83
637.529	23.75
637.719	23.75
637.909	23.48
638.099	23.35
638.29	23.44
638.48	23.47
638.67	23.48
638.86	23.68
639.05	23.8
639.241	23.86
639.431	23.68
639.621	23.75
639.811	24.03
640.001	23.98
640.191	23.93
640.381	23.83
640.571	23.88
640.761	23.89
640.951	23.78
641.141	23.75
641.331	23.54
641.521	23.79
641.711	24.05
641.901	23.99
642.091	24.22
642.281	24.24
642.471	24.26
642.661	24.13
642.851	23.84
643.041	23.79
643.231	23.82
643.42	24.36
643.61	24.21
643.8	24.04
643.99	23.91
644.18	23.79
644.369	23.78
644.559	23.66
644.749	23.73
644.939	23.98
645.128	23.95
645.318	23.98
645.508	23.68
645.697	23.77
645.887	23.76
646.076	23.91
646.266	23.8
646.456	24.04
646.645	24.23
646.835	24.15
647.024	24.11
647.214	24.1
647.403	24.25
647.593	24.31
647.782	24.43
647.972	24.3
648.161	24.23
648.351	24.49
648.54	24.24
648.73	24.3
648.919	24.39
649.108	24.35
649.298	24.4
649.487	24.33
649.677	24.38
649.866	24.35
650.055	24.81
650.244	24.82
650.434	24.64
650.623	24.71
650.812	24.61
651.002	24.53
651.191	24.65
651.38	24.67
651.569	24.64
651.758	24.57
651.947	24.54
652.137	24.22
652.326	24.16
652.515	24.44
652.704	24.38
652.893	24.27
653.082	24.64
653.271	24.66
653.46	24.57
653.649	24.59
653.838	24.82
654.027	24.95
654.216	24.89
654.405	24.86
654.594	24.8
654.783	24.88
654.972	25.12
655.161	24.94
655.35	24.87
655.539	25.24
655.728	25.47
655.916	25.31
656.105	25.33
656.294	25.32
656.483	25.31
656.672	25.23
656.86	25.12
657.049	25.02
657.238	25.05
657.427	25.17
657.615	24.94
657.804	24.87
657.993	24.79
658.181	24.59
658.37	24.67
658.559	24.68
658.747	24.64
658.936	24.73
659.125	24.75
659.313	24.59
659.502	24.54
659.69	24.48
659.879	24.17
660.067	24.28
660.256	24.28
660.444	24.18
660.633	24.28
660.821	24.47
661.01	24.41
661.198	24.24
661.387	24.37
661.575	24.31
661.763	24.44
661.952	24.63
662.14	24.67
662.328	24.93
662.517	25.26
662.705	25.29
662.893	25.09
663.082	25.55
663.27	25.84
663.458	25.78
663.646	25.93
663.834	26.14
664.023	26.28
664.211	26.33
664.399	26.14
664.587	26.18
664.775	26.25
664.963	26.5
665.152	26.41
665.34	26.5
665.528	26.73
665.716	26.71
665.904	26.53
666.092	26.55
666.28	26.54
666.468	26.57
666.656	26.34
666.844	26.38
667.032	26.15
667.22	26.01
667.408	25.84
667.596	26.05
667.784	25.97
667.971	25.97
668.159	25.59
668.347	25.62
668.535	25.59
668.723	25.73
668.911	25.58
669.098	25.62
669.286	25.59
669.474	25.72
669.662	25.43
669.849	25.64
670.037	25.68
670.225	26.05
670.413	26.02
670.6	26.11
670.788	26.2
670.976	26.33
671.163	26.75
671.351	26.79
671.538	26.73
671.726	26.91
671.913	26.73
672.101	26.69
672.289	26.52
672.476	26.53
672.664	26.78
672.851	26.85
673.039	26.73
673.226	26.43
673.413	26.5
673.601	26.55
673.788	26.79
673.976	26.86
674.163	26.71
674.35	27
674.538	26.85
674.725	26.78
674.912	26.53
675.1	26.93
675.287	27.12
675.474	26.85
675.662	26.98
675.849	26.68
676.036	26.78
676.223	27
676.411	27.08
676.598	27.19
676.785	27.17
676.972	27.48
677.159	27.13
677.346	26.97
677.533	27.3
677.721	27.07
677.908	27.09
678.095	27.03
678.282	26.77
678.469	26.38
678.656	26.11
678.843	25.91
679.03	25.44
679.217	25.62
679.404	25.63
679.591	25.29
679.778	25.6
679.964	25.77
680.151	25.77
680.338	25.96
680.525	26.05
680.712	26.35
680.899	26.37
681.086	26.75
681.272	26.64
681.459	26.65
681.646	26.98
681.833	26.8
682.02	26.67
682.206	26.65
682.393	26.88
682.58	26.91
682.766	26.92
682.953	27.31
683.14	27.48
683.326	27.83
683.513	28.19
683.7	28.11
683.886	27.89
684.073	28.01
684.259	28.21
684.446	28.15
684.632	28.29
684.819	28.22
685.005	27.87
685.192	27.87
685.378	27.74
685.565	27.38
685.751	27.47
685.938	27.75
686.124	27.71
686.31	27.81
686.497	27.89
686.683	27.81
686.87	27.99
687.056	27.81
687.242	27.55
687.429	27.37
687.615	27.08
687.801	27.04
687.987	27.04
688.174	26.9
688.36	26.72
688.546	26.36
688.732	26.51
688.918	26.19
689.105	26.45
689.291	26.43
689.477	26.63
689.663	26.99
689.849	27.35
690.035	27.26
690.221	27.57
690.407	27.49
690.593	27.83
690.779	27.92
690.965	28.11
691.151	28.29
691.337	28.36
691.523	28.33
691.709	28.37
691.895	28.28
692.081	28.33
692.267	28.09
692.453	28.4
692.639	28.12
692.825	28.11
693.011	28.42
693.196	28.24
693.382	28.55
693.568	28.96
693.754	29.38
693.94	29.52
694.125	29.84
694.311	30.2
694.497	30.13
694.682	30.36
694.868	30.61
695.054	30.38
695.239	30.59
695.425	30.39
695.611	30.12
695.796	29.7
695.982	29.4
696.168	29.28
696.353	29.15
696.539	28.82
696.724	28.72
696.91	28.22
697.095	28.13
697.281	27.96
697.466	27.61
697.652	27.57
697.837	27.52
698.023	27.33
698.208	27.3
698.393	26.94
698.579	27.03
698.764	26.73
698.949	26.77
699.135	26.87
699.32	26.65
699.505	26.98
699.691	26.7
699.876	26.89
700.061	27.01
700.246	26.95
700.432	27.17
700.617	27.38
700.802	27.62
700.987	28.15
701.172	28.29
701.358	28.85
701.543	28.61
701.728	28.8
701.913	28.65
702.098	28.96
702.283	29.04
702.468	29.61
702.653	29.81
702.838	30.34
703.023	30.41
703.208	30.17
703.393	30.06
703.578	30.6
703.763	30.79
703.948	31.08
704.133	31.22
704.318	31.56
704.503	31.12
704.688	31.05
704.873	31.16
705.057	30.98
705.242	31.57
705.427	31.37
705.612	31.36
705.797	31.77
705.981	31.84
706.166	31.92
706.351	31.95
706.536	32.57
706.72	32.55
706.905	32.85
707.09	33.11
707.274	32.92
707.459	33.16
707.644	33.41
707.828	33.31
708.013	33.22
708.197	33.17
708.382	33.12
708.567	32.62
708.751	32.6
708.936	31.98
709.12	31.69
709.305	32.16
709.489	32.62
709.673	32.41
709.858	32.29
710.042	31.75
710.227	31.45
710.411	31.61
710.596	31.67
710.78	31.54
710.964	31.87
711.149	31.75
711.333	31.1
711.517	30.68
711.702	30.47
711.886	30.48
712.07	30.99
712.254	31.16
712.438	31.02
712.623	30.81
712.807	30.68
712.991	30.76
713.175	30.61
713.359	30.57
713.544	30.41
713.728	30.25
713.912	29.88
714.096	29.76
714.28	29.69
714.464	29.64
714.648	29.78
714.832	29.99
715.016	29.57
715.2	29.13
715.384	29.16
715.568	29.33
715.752	29.37
715.936	29.56
716.12	29.44
716.304	29.24
716.488	28.74
716.671	29.08
716.855	28.96
717.039	29.39
717.223	29.89
717.407	29.89
717.59	30.16
717.774	30.07
717.958	30.08
718.142	30.29
718.325	30.79
718.509	31.25
718.693	30.77
718.877	30.75
719.06	30.43
719.244	30.71
719.428	30.82
719.611	30.75
719.795	30.75
719.978	30.83
720.162	30.87
720.345	30.53
720.529	30.68
720.713	30.76
720.896	30.29
721.08	30.16
721.263	29.82
721.446	30.02
721.63	29.92
721.813	30.41
721.997	30.37
722.18	29.6
722.364	29.63
722.547	29.57
722.73	29.77
722.914	30.57
723.097	30.72
723.28	31.11
723.464	31.09
723.647	31.66
723.83	31.69
724.013	31.72
724.197	32.49
724.38	32.75
724.563	32.62
724.746	32.72
724.929	32.93
725.112	33.19
725.296	32.71
725.479	32.86
725.662	32.51
725.845	32.66
726.028	32.69
726.211	32.5
726.394	32.63
726.577	32.68
726.76	32.88
726.943	32.63
727.126	31.95
727.309	31.82
727.492	31.67
727.675	31.1
727.858	30.55
728.041	30.69
728.224	30.76
728.407	30.25
728.589	30.09
728.772	29.64
728.955	29.64
729.138	30.31
729.321	30.45
729.503	30.37
729.686	30.57
729.869	30.76
730.052	30.54
730.234	30.59
730.417	30.69
730.6	30.66
730.782	30.72
730.965	30.83
731.148	30.69
731.33	30.88
731.513	31.06
731.695	31.05
731.878	31.25
732.061	31.07
732.243	31.52
732.426	31.78
732.608	31.97
732.791	32.04
732.973	31.94
733.156	32.19
733.338	32.24
733.52	32.51
733.703	32.72
733.885	33.09
734.068	33.33
734.25	33.18
734.432	33.21
734.615	33.23
734.797	33.68
734.979	34.06
735.162	34.04
735.344	34.03
735.526	33.58
735.708	33.66
735.891	33.58
736.073	33.57
736.255	33.52
736.437	33.62
736.619	34.12
736.802	34.04
736.984	33.78
737.166	33.34
737.348	33.42
737.53	33.35
737.712	32.92
737.894	32.73
738.076	32.7
738.258	32.94
738.44	32.99
738.622	32.71
738.804	32.74
738.986	32.54
739.168	32.58
739.35	32.77
739.532	33.24
739.714	33.85
739.896	33.4
740.078	33.94
740.259	33.52
740.441	33.69
740.623	33.99
740.805	33.65
740.987	34.36
741.168	34.67
741.35	35.2
741.532	35.29
741.714	34.85
741.895	35.58
742.077	35.88
742.259	36.3
742.44	36.37
742.622	36.77
742.804	37.64
742.985	37.94
743.167	38.34
743.348	37.77
743.53	38.06
743.711	38.22
743.893	38.41
744.075	38.61
744.256	38.43
744.438	37.77
744.619	37.31
744.8	36.86
744.982	36.2
745.163	35.76
745.345	36.36
745.526	35.77
745.707	36.77
745.889	36.68
746.07	36.58
746.252	37.11
746.433	37.83
746.614	37.75
746.795	37.8
746.977	38.25
747.158	39.15
747.339	39.16
747.52	39.22
747.702	38.32
747.883	37.88
748.064	37.39
748.245	36.65
748.426	36.45
748.607	36.29
748.788	36.48
748.97	36.08
749.151	35.75
749.332	35.9
749.513	36.65
749.694	36.8
749.875	37.49
750.056	38.03
750.237	38.12
750.418	38
750.599	38.12
750.78	37.63
750.96	37.75
751.141	37.44
751.322	37.57
751.503	36.82
751.684	37.1
751.865	37.11
752.046	36.91
752.226	37.11
752.407	37.62
752.588	37.58
752.769	37.41
752.949	37.23
753.13	37.53
753.311	37.5
753.492	37.51
753.672	37.42
753.853	36.51
754.034	36.42
754.214	37.34
754.395	37.4
754.575	37.45
754.756	38.54
754.937	38.16
755.117	37.49
755.298	36.93
755.478	36.77
755.659	36.94
755.839	37.61
756.02	38.14
756.2	37.34
756.381	36.26
756.561	36.84
756.741	35.73
756.922	36.51
757.102	36.69
757.283	37.17
757.463	37.54
757.643	37.53
757.823	37.71
758.004	36.98
758.184	36.71
758.364	38.26
758.545	38.31
758.725	38.09
758.905	37.7
759.085	38.41
759.265	37.98
759.446	38.22
759.626	38.03
759.806	37.38
759.986	37.43
760.166	37.65
760.346	36.27
760.526	36.03
760.706	36.21
760.886	36.7
761.066	35.76
761.246	35.6
761.426	34.42
761.606	33.52
761.786	33.3
761.966	33.74
762.146	33.32
762.326	33.7
762.506	33.75
762.686	33.94
762.866	33.05
763.046	32.9
763.225	32.85
763.405	33.16
763.585	33.21
763.765	33.25
763.945	32.7
764.124	32.99
764.304	32.66
764.484	32.15
764.664	31.85
764.843	32.46
765.023	33.12
765.203	33.08
765.382	32.77
765.562	33.64
765.741	33.75
765.921	33.98
766.101	34.04
766.28	34.59
766.46	35.29
766.639	35.53
766.819	35.95
766.998	35.9
767.178	36.88
767.357	37.96
767.537	37.82
767.716	38.08
767.896	38.47
768.075	38.63
768.254	38.65
768.434	38.89
768.613	39.25
768.792	39.36
768.972	40.69
769.151	40.1
769.33	39.74
769.51	40.86
769.689	41.43
769.868	41.51
770.047	42.49
770.226	42.41
770.406	42
770.585	42.34
770.764	42.26
770.943	40.94
771.122	41.32
771.301	42.01
771.48	40.9
771.66	41.35
771.839	41.96
772.018	41.7
772.197	42.61
772.376	43.23
772.555	43.47
772.734	43.19
772.913	43.36
773.092	43.39
773.271	43.08
773.449	43.31
773.628	42.79
773.807	43.03
773.986	42.39
774.165	41.48
774.344	41.53
774.523	40.95
774.701	41.05
774.88	40.97
775.059	40.87
775.238	40.89
775.417	40.5
775.595	40.85
775.774	39.35
775.953	39.66
776.131	40.02
776.31	39.01
776.489	39.99
776.667	40.34
776.846	40.73
777.025	40.65
777.203	41.27
777.382	42.05
777.56	41.69
777.739	42.99
777.917	43.92
778.096	44.44
778.274	45.49
778.453	45.42
778.631	44.94
778.81	44.6
778.988	44.75
779.166	44.06
779.345	43.79
779.523	43.89
779.702	43.83
779.88	43.05
780.058	42.88
780.237	42.25
780.415	42.87
780.593	42.82
780.771	43.57
780.95	44.78
781.128	44.99
781.306	44.78
781.484	45.2
781.662	44.71
781.841	44.37
782.019	44.42
782.197	45.48
782.375	44.67
782.553	45.12
782.731	44.92
782.909	44.4
783.087	44.2
783.265	46.02
783.443	45.82
783.621	46.73
783.799	47.31
783.977	47.55
784.155	46.45
784.333	46.33
784.511	46.39
784.689	45.02
784.867	44.14
785.045	44.92
785.223	42.67
785.4	43.43
785.578	42.47
785.756	42.75
785.934	42.49
786.112	43.75
786.289	43.88
786.467	44.16
786.645	44.61
786.823	45.49
787	44.98
787.178	45.74
787.356	44.1
787.533	43.5
787.711	42.09
787.889	41.41
788.066	40.64
788.244	40.54
788.421	40.3
788.599	40.9
788.776	40.29
788.954	40.1
789.131	40.11
789.309	40.32
789.486	40.21
789.664	41.02
789.841	41.55
790.019	41.8
790.196	42.38
790.373	41.97
790.551	41.89
790.728	43.06
790.906	44.11
791.083	43.46
791.26	43.76
791.437	44.33
791.615	43.89
791.792	43.8
791.969	43.87
792.146	44.27
792.324	45.16
792.501	46.5
792.678	46.51
792.855	45.98
793.032	46.84
793.209	47.57
793.387	48.7
793.564	49.78
793.741	51.59
793.918	52.05
794.095	51.35
794.272	50.33
794.449	48.88
794.626	49.03
794.803	48.34
794.98	47.87
795.157	48.06
795.334	48.07
795.511	47.14
795.688	46.31
795.864	45.72
796.041	45.28
796.218	46.43
796.395	47.14
796.572	46.29
796.749	46.19
796.925	46.74
797.102	47.38
797.279	46.65
797.456	46.65
797.632	45.63
797.809	45.79
797.986	46.2
798.162	45.3
798.339	44.28
798.516	44.12
798.692	44.42
798.869	44.32
799.046	43.76
799.222	44.37
799.399	43.62
799.575	44.42
799.752	44.53
799.928	44.54
800.105	45.92
800.281	45.75
800.458	46.14
800.634	47.88
800.811	47.43
800.987	47.36
801.163	48.03
801.34	48.69
801.516	49
801.692	48.68
801.869	47.79
802.045	45.73
802.221	47.76
802.398	47.56
802.574	47.7
802.75	47.34
802.926	46.65
803.103	47.54
803.279	47.37
803.455	47.2
803.631	48.47
803.807	49.65
803.983	51.88
804.16	51.29
804.336	51.19
804.512	50.23
804.688	52.1
804.864	53.75
805.04	52.34
805.216	52.6
805.392	53.08
805.568	52.71
805.744	52
805.92	51.69
806.096	50.93
806.272	53.61
806.448	55.02
806.623	54.85
806.799	53.84
806.975	54.58
807.151	55.44
807.327	55.31
807.503	55.66
807.678	56.19
807.854	54.09
808.03	55.09
808.206	52.76
808.381	51.17
808.557	51.12
808.733	51.1
808.908	50.28
809.084	50.47
809.26	49.26
809.435	47.85
809.611	46.31
809.787	47.59
809.962	47.37
810.138	47.65
810.313	48.42
810.489	48.29
810.664	47.31
810.84	47.02
811.015	48.52
811.191	49.77
811.366	51.25
811.542	54.57
811.717	53.78
811.892	54.1
812.068	54.22
812.243	52.81
812.419	53.86
812.594	54.71
812.769	54.68
812.944	53
813.12	53.29
813.295	52.43
813.47	51.36
813.645	52.11
813.821	51.3
813.996	51.19
814.171	51.96
814.346	51.25
814.521	52.29
814.697	53.63
814.872	54.11
815.047	54.2
815.222	55.25
815.397	54.09
815.572	53.68
815.747	54.03
815.922	54.44
816.097	55.2
816.272	53.42
816.447	52.07
816.622	51.73
816.797	52.85
816.972	53.24
817.147	51.62
817.322	53.39
817.496	53.46
817.671	54.05
817.846	52.96
818.021	51.97
818.196	53.24
818.371	52.93
818.545	52.58
818.72	50.96
818.895	48.86
819.069	48.91
819.244	46.54
819.419	45.29
819.594	42.99
819.768	43.06
819.943	40.18
820.117	38.51
820.292	37.39
820.467	36.85
820.641	35.07
820.816	34.65
820.99	33.41
821.165	32.45
821.339	32.28
821.514	31.59
821.688	30.63
821.863	30.77
822.037	30.26
822.212	30.15
822.386	29.6
822.56	29.49
822.735	29.11
822.909	29.15
823.084	29.18
823.258	28.91
823.432	28.85
823.606	28.91
823.781	28.88
823.955	29.46
824.129	29.25
824.303	29.62
824.478	29.69
824.652	29.85
824.826	30.08
825	30.43
825.174	30.94
825.348	31.84
825.523	32.37
825.697	32.68
825.871	31.81
826.045	32.39
826.219	31.89
826.393	32.4
826.567	32.8
826.741	32.54
826.915	32.43
827.089	32.52
827.263	31.97
827.437	31.33
827.611	31.49
827.784	32
827.958	31.9
828.132	32.61
828.306	32.64
828.48	33.12
828.654	33.6
828.827	34.18
829.001	34.11
829.175	34.73
829.349	37.25
829.522	37.79
829.696	39.22
829.87	41.08
830.044	41.9
830.217	43.32
830.391	43.07
830.565	44.31
830.738	45.24
830.912	46.14
831.085	48.04
831.259	47.54
831.432	47.57
831.606	47.42
831.779	47.52
831.953	45.53
832.126	44.1
832.3	44.9
832.473	44.17
832.647	43.25
832.82	41.76
832.994	40.21
833.167	38.88
833.34	38.83
833.514	37.83
833.687	36.4
833.86	36.68
834.034	36.49
834.207	36.69
834.38	36.41
834.553	36.68
834.727	37.57
834.9	37.89
835.073	37.92
835.246	38.14
835.419	38.89
835.593	39.6
835.766	40.44
835.939	41.95
836.112	41.59
836.285	43.07
836.458	43.83
836.631	44.94
836.804	45.8
836.977	47.17
837.15	48.47
837.323	49.61
837.496	51.6
837.669	52.78
837.842	52.77
838.015	54.76
838.188	54.45
838.361	54.29
838.533	54.44
838.706	56.72
838.879	57.96
839.052	58.27
839.225	58.13
839.398	55.27
839.57	54.81
839.743	54.39
839.916	53.78
840.088	55.68
840.261	55.14
840.434	54.97
840.607	53.49
840.779	53.8
840.952	53.92
841.124	54.08
841.297	55.49
841.47	56.92
841.642	57.87
841.815	58.48
841.987	58.26
842.16	60.27
842.332	59.8
842.505	60.74
842.677	61.32
842.85	61.41
843.022	59.67
843.194	60.96
843.367	59.94
843.539	62.48
843.712	63.29
843.884	60.24
844.056	62
844.229	66.27
844.401	67.39
844.573	67.96
844.745	68.76
844.918	72.06
845.09	71.67
845.262	72.82
845.434	70.9
845.606	68.07
845.779	73.92
845.951	75.15
846.123	71.66
846.295	68.09
846.467	64.97
846.639	68.57
846.811	69.1
846.983	71.22
847.155	70.8
847.327	71.94
847.499	75.37
847.671	73.48
847.843	71.25
848.015	75
848.187	80.62
848.359	87.77
848.531	86.82
848.703	88.93
848.875	90.2
849.047	89.82
849.218	92.64
849.39	95.86
849.562	96.43
849.734	96.43
849.905	92.46
850.077	94.87
850.249	92.65
850.421	93.72
850.592	92.02
850.764	90.4
850.936	95.29
851.107	94.5
851.279	89.08
851.451	89.33
851.622	90.02
851.794	93.38
851.965	87.88
852.137	89.34
852.308	90.2
852.48	93.46
852.651	94.5
852.823	93.3
852.994	88.69
853.166	94.87
853.337	93.88
853.509	96.82
853.68	94.61
853.851	94.56
854.023	93.45
854.194	93.76
854.365	92.18
854.537	95.68
854.708	96.88
854.879	103.82
855.05	101.49
855.222	100.6
855.393	97.93
855.564	103.76
855.735	102.89
855.906	101.24
856.078	101.99
856.249	102.77
856.42	100.68
856.591	96.59
856.762	93.72
856.933	94.17
857.104	95.86
857.275	95.1
857.446	95.09
857.617	102.36
857.788	104.83
857.959	100.81
858.13	101.81
858.301	103.22
858.472	104.59
858.643	106.97
858.814	108.18
858.985	106.64
859.155	108.05
859.326	108.27
859.497	104.79
859.668	99.86
859.839	101.24
860.009	99.54
860.18	94.73
860.351	96.56
860.522	91.26
860.692	93.48
860.863	99.14
861.034	105.07
861.204	106.14
861.375	105.99
861.546	106.15
861.716	103.68
861.887	107.72
862.057	108.7
862.228	107.48
862.398	109.16
862.569	104.81
862.739	102.19
862.91	98.48
863.08	97.75
863.251	97.97
863.421	103.2
863.592	111.1
863.762	110.54
863.932	109.74
864.103	109.72
864.273	105.52
864.443	105.03
864.614	102.7
864.784	106.36
864.954	100.78
865.125	100.19
865.295	100.68
865.465	93.95
865.635	90.37
865.805	95.62
865.976	95.94
866.146	96.86
866.316	95.03
866.486	94.47
866.656	96.22
866.826	99.16
866.996	98.22
867.166	94.77
867.336	95.97
867.506	100.85
867.676	94.6
867.846	98.59
868.016	100.91
868.186	110.52
868.356	111.2
868.526	105.22
868.696	101.42
868.866	102.35
869.036	105.75
869.206	109.16
869.376	106.11
869.545	110.64
869.715	113.17
869.885	113.92
870.055	105.68
870.224	112.53
870.394	116.4
870.564	118.19
870.734	117.2
870.903	115.03
871.073	113.87
871.243	105.86
871.412	107.39
871.582	103.09
871.751	105.86
871.921	103.42
872.091	98.83
872.26	97.85
872.43	94.6
872.599	91.22
872.769	88.33
872.938	85.71
873.108	93.2
873.277	88.35
873.446	87.83
873.616	83.32
873.785	86.8
873.955	82.87
874.124	79.57
874.293	78.59
874.463	82.43
874.632	85.89
874.801	86.95
874.971	82.63
875.14	84.97
875.309	87.03
875.478	86.83
875.647	87.32
875.817	88.14
875.986	86.68
876.155	88.04
876.324	89.97
876.493	94.17
876.662	94.11
876.831	93.79
877	93.48
877.17	87.86
877.339	89.4
877.508	86.65
877.677	90.87
877.846	94.31
878.015	96.5
878.184	90.48
878.352	86.08
878.521	84.35
878.69	82.79
878.859	78.16
879.028	78.96
879.197	76.84
879.366	74.9
879.534	73.54
879.703	67.48
879.872	61.04
880.041	57.14
880.21	52.57
880.378	49.32
880.547	49.23
880.716	46.78
880.884	44.14
881.053	41.17
881.222	39.2
881.39	37.56
881.559	37.76
881.727	37.2
881.896	37.08
882.065	36.83
882.233	37.2
882.402	36.02
882.57	35.74
882.739	35.26
882.907	35.8
883.076	36.36
883.244	36.33
883.412	36.04
883.581	36.36
883.749	36.32
883.918	37.04
884.086	37.48
884.254	39.22
884.423	41.47
884.591	42.09
884.759	42.9
884.927	44.81
885.096	45.6
885.264	48.52
885.432	52.47
885.6	55.13
885.769	55.54
885.937	55.91
886.105	55.8
886.273	57.7
886.441	60.11
886.609	63.05
886.777	63.2
886.945	66.6
887.113	65.26
887.281	62.28
887.449	67.42
887.617	73.18
887.785	75.44
887.953	81.55
888.121	81.57
888.289	86.57
888.457	88.99
888.625	88.8
888.793	92.3
888.961	94.19
889.129	98.86
889.296	92.27
889.464	93.15
889.632	94.76
889.8	91.41
889.967	92.11
890.135	90.23
