Data from 2938754__Reflection_01.txt Node
Date: Sat Mar 14 14:21:44 EDT 2015
User: robert
Spectrometer: USB4E03002
Autoset integration time: false
Trigger mode: 4
Integration Time (sec): 1.000000E-1
Scans to average: 10
Electric dark correction enabled: false
Nonlinearity correction enabled: false
Boxcar width: 5
Stray light correction enabled: false
XAxis mode: Wavelengths
Stop averaging: false
Number of Pixels in Spectrum: 3648
>>>>>Begin Spectral Data<<<<<
177.575	137.26
177.794	189.6
178.014	157.46
178.233	190.94
178.452	238.83
178.672	249.65
178.891	518.13
179.11	656.56
179.33	1100
179.549	311.24
179.768	325.33
179.987	243.51
180.207	389.56
180.426	3073.08
180.645	1522.45
180.864	1280
181.084	468.45
181.303	300
181.522	811.54
181.741	982.54
181.96	-381.56
182.179	-341.88
182.398	-198.65
182.618	-209.15
182.837	580.95
183.056	252.88
183.275	475.47
183.494	820
183.713	214.75
183.932	113.79
184.151	159.8
184.37	76.69
184.589	69.53
184.808	81.2
185.027	60.36
185.246	45.56
185.465	6.51
185.684	37.88
185.903	26.51
186.122	130
186.341	-133.33
186.56	-6.61
186.779	-73.79
186.998	-47.24
187.216	-1843.75
187.435	-289.69
187.654	-1512.5
187.873	484.62
188.092	-125.12
188.311	351.3
188.53	190.54
188.748	313.92
188.967	300
189.186	268.93
189.405	188.76
189.623	158.87
189.842	181.29
190.061	1830.43
190.28	-3323.53
190.498	285.07
190.717	729.21
190.936	-20466.67
191.154	281.72
191.373	236.13
191.592	265.98
191.81	257.07
192.029	210.08
192.248	164.8
192.466	149.9
192.685	113.55
192.904	78.44
193.122	72.94
193.341	74.72
193.559	75.66
193.778	64.95
193.996	60.09
194.215	56.47
194.433	72.11
194.652	96.13
194.87	130.2
195.089	127.64
195.307	148.11
195.526	134.42
195.744	121.02
195.963	97.67
196.181	96.05
196.399	87.88
196.618	118.49
196.836	93.73
197.055	84.28
197.273	94.44
197.491	117.01
197.71	106.49
197.928	126.27
198.146	121.35
198.365	186.54
198.583	268.69
198.801	387.68
199.019	209.88
199.238	1500
199.456	485.26
199.674	488.73
199.892	200
200.111	478.45
200.329	-396.58
200.547	-806.45
200.765	-157.39
200.983	-421.51
201.202	-360.38
201.42	-500.93
201.638	-7975
201.856	2610.71
202.074	434.43
202.292	580.17
202.51	654.84
202.728	415.27
202.946	221.83
203.165	224.89
203.383	231.2
203.601	199.74
203.819	163.01
204.037	155.04
204.255	171.27
204.473	136.61
204.691	132.42
204.909	182.77
205.127	177.16
205.345	281.68
205.562	169.23
205.78	144.99
205.998	229.55
206.216	268.91
206.434	361.54
206.652	389.04
206.87	1660
207.088	351.96
207.306	105.44
207.523	109.86
207.741	136.48
207.959	116.25
208.177	178.48
208.395	166.55
208.612	170.35
208.83	167.44
209.048	151.64
209.266	181.1
209.483	149.74
209.701	140.51
209.919	173.56
210.136	120.04
210.354	113.88
210.572	90.26
210.79	57.05
211.007	56.76
211.225	61.89
211.442	60.34
211.66	31.72
211.878	41.43
212.095	132.84
212.313	95.59
212.53	162.41
212.748	204.98
212.966	329.94
213.183	436.42
213.401	797.89
213.618	247.71
213.836	171.81
214.053	205.23
214.271	215.38
214.488	44.23
214.705	73.3
214.923	59.28
215.14	61.47
215.358	61.03
215.575	55.59
215.793	48.24
216.01	48.64
216.227	61.04
216.445	44.67
216.662	38.36
216.879	54.72
217.097	49.86
217.314	43.44
217.531	48.54
217.749	50.13
217.966	54.56
218.183	47.27
218.4	57.64
218.618	50.84
218.835	46.95
219.052	52.83
219.269	41.11
219.487	56.49
219.704	47.57
219.921	58.13
220.138	60.27
220.355	45.2
220.572	37.75
220.79	25.48
221.007	14.38
221.224	23.96
221.441	27.05
221.658	20.7
221.875	2.39
222.092	7.13
222.309	-3.92
222.526	-11.81
222.743	2.47
222.96	14.42
223.177	21.45
223.394	25.64
223.611	23.94
223.828	21.36
224.045	27.78
224.262	32.45
224.479	28.05
224.696	25.51
224.913	23.66
225.13	23.61
225.347	21.08
225.564	19.01
225.781	20.09
225.997	17.99
226.214	18.87
226.431	13.12
226.648	11.41
226.865	11.6
227.082	14.17
227.298	10.17
227.515	9.22
227.732	7
227.949	7.72
228.165	6.41
228.382	7.47
228.599	6.58
228.816	6.15
229.032	5.62
229.249	4.05
229.466	3
229.682	3.7
229.899	3.18
230.116	3.78
230.332	3.25
230.549	4.25
230.765	0.99
230.982	0.17
231.199	1.72
231.415	3.18
231.632	6.04
231.848	5.68
232.065	5.77
232.281	6.54
232.498	6.56
232.714	7.39
232.931	5.55
233.147	8.19
233.364	8.98
233.58	6.41
233.797	5.31
234.013	3.54
234.23	3.31
234.446	4.82
234.662	4.88
234.879	3.17
235.095	3.02
235.312	5.09
235.528	5.31
235.744	4.41
235.961	6.17
236.177	5.92
236.393	7.32
236.61	6.84
236.826	5.53
237.042	4.53
237.258	8.1
237.475	9.01
237.691	7.79
237.907	6.04
238.123	6.3
238.339	4.33
238.556	2.74
238.772	1.73
238.988	2.62
239.204	2.86
239.42	2.89
239.636	1.25
239.853	0.24
240.069	-0.14
240.285	0.47
240.501	0.75
240.717	1.18
240.933	1.36
241.149	2.1
241.365	2.35
241.581	2.66
241.797	2.68
242.013	2.34
242.229	1.64
242.445	2.23
242.661	2.33
242.877	2.62
243.093	3.15
243.309	3.96
243.525	3.68
243.741	3.74
243.957	3.25
244.173	2.93
244.388	3.05
244.604	4.27
244.82	3.84
245.036	4.84
245.252	4.1
245.468	3.92
245.683	3.21
245.899	3.24
246.115	2.85
246.331	3.23
246.547	3.76
246.762	3.97
246.978	3.92
247.194	4.36
247.409	4.09
247.625	4.28
247.841	4.44
248.057	4.57
248.272	4.47
248.488	5.31
248.703	5.07
248.919	4.8
249.135	4.49
249.35	4.28
249.566	2.71
249.782	2.07
249.997	1.93
250.213	1.8
250.428	2.52
250.644	3.03
250.859	1.62
251.075	2.14
251.29	1.36
251.506	1.6
251.721	2.11
251.937	3.82
252.152	4.26
252.368	4.17
252.583	4.03
252.798	2.98
253.014	1.79
253.229	1.85
253.445	1.28
253.66	2.45
253.875	2.65
254.091	2.05
254.306	1.51
254.521	1.88
254.737	2.08
254.952	2.51
255.167	3.33
255.383	4.77
255.598	4.75
255.813	5.17
256.028	4.63
256.244	5.58
256.459	6.22
256.674	5.77
256.889	4.71
257.104	4.06
257.32	3.12
257.535	3.42
257.75	2.73
257.965	3.05
258.18	2.68
258.395	3
258.61	2.79
258.826	2.84
259.041	2.91
259.256	3.05
259.471	3.11
259.686	3.45
259.901	3.17
260.116	3.46
260.331	3.38
260.546	3.59
260.761	3.63
260.976	3.36
261.191	2.86
261.406	3.19
261.621	3.02
261.836	2.86
262.05	2.52
262.265	2.42
262.48	2.05
262.695	1.83
262.91	1.98
263.125	1.74
263.34	1.79
263.555	2.47
263.769	1.68
263.984	2.01
264.199	2.11
264.414	2
264.629	2.88
264.843	3.59
265.058	4.12
265.273	3.24
265.488	3.61
265.702	3.64
265.917	3.14
266.132	2.92
266.346	2.66
266.561	3.07
266.776	2.8
266.99	2.16
267.205	2.09
267.42	1.93
267.634	2.15
267.849	1.72
268.063	2.3
268.278	2.53
268.492	2.76
268.707	2.95
268.922	2.7
269.136	3.02
269.351	3.2
269.565	2.89
269.78	2.24
269.994	2.3
270.209	2.08
270.423	1.47
270.637	1.56
270.852	1.37
271.066	1.56
271.281	1.74
271.495	1.87
271.709	1.75
271.924	1.5
272.138	1.5
272.353	1.53
272.567	1.55
272.781	1.42
272.996	1.43
273.21	1.63
273.424	1.44
273.638	1.83
273.853	1.38
274.067	1.73
274.281	1.89
274.495	2.09
274.71	1.84
274.924	1.9
275.138	1.85
275.352	2
275.566	2.06
275.781	2.28
275.995	1.78
276.209	2.74
276.423	2.72
276.637	2.34
276.851	2.3
277.065	3
277.279	3.09
277.493	3.61
277.707	3.99
277.921	3.96
278.135	3.56
278.349	2.94
278.563	2.75
278.777	2.91
278.991	3.21
279.205	3.45
279.419	2.82
279.633	2.56
279.847	2.56
280.061	1.71
280.275	1.75
280.489	1.93
280.703	2.83
280.917	2.35
281.131	2.18
281.344	2.48
281.558	2.14
281.772	2.4
281.986	2.66
282.2	2.31
282.414	2.56
282.627	2.5
282.841	2.74
283.055	2.3
283.269	2.47
283.482	2.38
283.696	2.37
283.91	2.43
284.123	2.29
284.337	2.29
284.551	2.3
284.764	2.35
284.978	2.19
285.192	2.31
285.405	2.32
285.619	2.13
285.833	2.09
286.046	1.62
286.26	1.99
286.473	2.02
286.687	1.7
286.9	1.73
287.114	1.58
287.327	1.51
287.541	1.09
287.754	1.13
287.968	0.99
288.181	0.82
288.395	1.25
288.608	0.91
288.822	0.74
289.035	0.85
289.248	0.94
289.462	1.12
289.675	0.94
289.889	1.11
290.102	1.04
290.315	1.02
290.529	1.09
290.742	1.02
290.955	1.05
291.169	1.25
291.382	1.59
291.595	1.59
291.808	1.51
292.022	2.14
292.235	2.13
292.448	2.4
292.661	2.68
292.875	2.79
293.088	2.58
293.301	2.63
293.514	2.75
293.727	2.55
293.94	2.72
294.153	3.02
294.367	2.95
294.58	2.59
294.793	2.32
295.006	2.2
295.219	2.17
295.432	2.39
295.645	2.25
295.858	2.23
296.071	2.04
296.284	2.12
296.497	1.87
296.71	1.55
296.923	1.91
297.136	1.83
297.349	1.88
297.562	1.99
297.775	1.99
297.988	2.1
298.201	1.99
298.414	2.06
298.626	1.72
298.839	1.77
299.052	1.97
299.265	1.84
299.478	2.17
299.691	2.01
299.903	2.13
300.116	1.8
300.329	1.88
300.542	2.07
300.755	2.06
300.967	2.32
301.18	2.09
301.393	2.16
301.605	2.09
301.818	1.82
302.031	2.11
302.243	1.95
302.456	2.18
302.669	2.12
302.881	2.4
303.094	2.53
303.307	2.43
303.519	2.42
303.732	2.36
303.944	2.26
304.157	2.7
304.37	2.59
304.582	2.22
304.795	2.12
305.007	2.41
305.22	2.18
305.432	2.03
305.645	2.51
305.857	2.83
306.069	2.89
306.282	3.28
306.494	2.86
306.707	3.21
306.919	3.4
307.132	3.75
307.344	3.5
307.556	3.19
307.769	3.48
307.981	3.42
308.193	3.17
308.406	3.27
308.618	3.26
308.83	3.42
309.043	3.3
309.255	3.27
309.467	3.05
309.679	3.23
309.892	3.3
310.104	2.93
310.316	2.98
310.528	3.23
310.74	3.13
310.953	2.67
311.165	2.88
311.377	2.73
311.589	2.63
311.801	2.63
312.013	2.62
312.225	2.56
312.437	2.94
312.649	2.84
312.862	2.85
313.074	2.77
313.286	3.74
313.498	3.84
313.71	3.99
313.922	4.49
314.134	4.51
314.346	4.65
314.558	4.74
314.77	4.9
314.982	4.84
315.193	4.62
315.405	5.24
315.617	4.25
315.829	3.78
316.041	3.67
316.253	3.81
316.465	4.26
316.677	3.49
316.888	3.61
317.1	3.21
317.312	2.97
317.524	3.09
317.736	2.94
317.947	3.31
318.159	3.48
318.371	3.66
318.583	3.27
318.794	3.36
319.006	3.68
319.218	3.54
319.43	3.77
319.641	4
319.853	4.16
320.064	4.63
320.276	4.63
320.488	4.55
320.699	5.14
320.911	5.18
321.123	4.97
321.334	5.45
321.546	5.72
321.757	5.92
321.969	6.15
322.18	5.69
322.392	5.44
322.603	5.62
322.815	6.06
323.026	5.65
323.238	6.34
323.449	6.56
323.661	6.86
323.872	7.15
324.083	7.06
324.295	7.16
324.506	7.62
324.718	7.29
324.929	7.61
325.14	7.43
325.352	7.67
325.563	7.62
325.774	7.61
325.986	7.38
326.197	7.52
326.408	7.76
326.62	8.02
326.831	8.37
327.042	8.5
327.253	8.83
327.464	9.31
327.676	9.2
327.887	9.26
328.098	9.48
328.309	9.91
328.52	9.98
328.732	10.24
328.943	9.97
329.154	10.24
329.365	11.08
329.576	11.01
329.787	11.26
329.998	12.05
330.209	12.05
330.42	12.37
330.631	12.57
330.842	12.92
331.053	13.24
331.264	13.69
331.475	13.37
331.686	13.03
331.897	13.05
332.108	12.92
332.319	12.49
332.53	12.79
332.741	12.83
332.952	13.11
333.163	12.87
333.374	13.09
333.585	13.29
333.795	13.89
334.006	13.65
334.217	13.8
334.428	13.9
334.639	14.39
334.849	14.04
335.06	14
335.271	13.94
335.482	14.06
335.692	14.15
335.903	14.51
336.114	14.19
336.325	14.59
336.535	14.82
336.746	15.31
336.957	15.34
337.167	16.07
337.378	16.17
337.589	16.35
337.799	16.4
338.01	16.57
338.22	16.24
338.431	16.34
338.642	16.61
338.852	16.44
339.063	16.11
339.273	16.18
339.484	16.29
339.694	16.46
339.905	16.26
340.115	16.43
340.326	15.97
340.536	16.15
340.746	16.33
340.957	15.85
341.167	15.7
341.378	15.64
341.588	15.75
341.799	15.38
342.009	14.96
342.219	14.7
342.43	14.73
342.64	15.09
342.85	14.91
343.061	14.9
343.271	15.12
343.481	15.56
343.691	15.23
343.902	15
344.112	14.82
344.322	15.18
344.532	15.31
344.743	15.45
344.953	15.51
345.163	15.73
345.373	15.45
345.583	15.34
345.793	15.33
346.004	15.63
346.214	15.48
346.424	15.91
346.634	15.72
346.844	15.73
347.054	15.46
347.264	14.94
347.474	14.76
347.684	14.99
347.894	15.1
348.104	14.76
348.314	14.64
348.524	14.68
348.734	14.19
348.944	14.34
349.154	14.44
349.364	14.49
349.574	14.45
349.784	14.3
349.994	14.34
350.204	14.3
350.413	14.25
350.623	14.16
350.833	14.21
351.043	14.58
351.253	14.14
351.463	14.06
351.672	13.85
351.882	13.85
352.092	13.71
352.302	13.63
352.511	13.82
352.721	13.76
352.931	13.85
353.141	13.65
353.35	13.36
353.56	13.67
353.77	13.56
353.979	13.66
354.189	13.68
354.399	13.59
354.608	13.48
354.818	13.23
355.027	13.45
355.237	13.56
355.447	14
355.656	14.14
355.866	13.85
356.075	13.86
356.285	13.77
356.494	13.74
356.704	14.07
356.913	13.82
357.123	13.82
357.332	13.54
357.542	13.39
357.751	13.19
357.96	13.03
358.17	13.21
358.379	13.29
358.589	13.09
358.798	13.3
359.007	13.45
359.217	13.88
359.426	14.03
359.635	14.21
359.845	14.27
360.054	13.96
360.263	13.82
360.472	13.95
360.682	14
360.891	14.34
361.1	14.56
361.309	14.27
361.519	14.01
361.728	13.67
361.937	13.67
362.146	13.68
362.355	13.8
362.564	13.77
362.774	13.65
362.983	13.63
363.192	13.55
363.401	13.21
363.61	13.26
363.819	13.26
364.028	13.47
364.237	13.2
364.446	13.35
364.655	13.45
364.864	13.6
365.073	13.73
365.282	13.51
365.491	13.35
365.7	13.32
365.909	13.3
366.118	13.6
366.327	13.25
366.536	13.41
366.745	13.24
366.954	13.15
367.162	13.15
367.371	13.19
367.58	13.32
367.789	13.34
367.998	13.46
368.207	13.49
368.415	13.32
368.624	13.63
368.833	13.71
369.042	13.44
369.25	13.36
369.459	13.35
369.668	13.13
369.877	13.31
370.085	13.46
370.294	13.42
370.503	12.93
370.711	12.73
370.92	12.95
371.129	13.02
371.337	13.22
371.546	13.1
371.754	13.07
371.963	12.94
372.171	12.77
372.38	12.73
372.589	12.55
372.797	12.55
373.006	12.8
373.214	12.39
373.423	12.4
373.631	12.39
373.84	12.52
374.048	12.36
374.256	12.55
374.465	12.58
374.673	12.34
374.882	12.36
375.09	12.55
375.298	12.3
375.507	12.72
375.715	12.64
375.923	12.29
376.132	12.38
376.34	12.47
376.548	12.49
376.757	12.42
376.965	12.57
377.173	12.65
377.381	12.55
377.59	12.73
377.798	12.65
378.006	12.44
378.214	12.65
378.423	12.33
378.631	12.3
378.839	12.12
379.047	12.09
379.255	12.03
379.463	12.09
379.671	12.6
379.879	12.6
380.088	12.47
380.296	12.66
380.504	12.66
380.712	13.16
380.92	13.27
381.128	13.48
381.336	13.5
381.544	13.57
381.752	13.68
381.96	13.39
382.168	13.26
382.376	13.67
382.584	13.43
382.791	13.68
382.999	13.73
383.207	13.74
383.415	13.46
383.623	13.43
383.831	13.21
384.039	12.9
384.247	12.8
384.454	12.73
384.662	12.18
384.87	12.36
385.078	12.1
385.285	11.89
385.493	11.99
385.701	12.19
385.909	12.15
386.116	12.16
386.324	12.22
386.532	12.37
386.739	12.69
386.947	12.98
387.155	13.07
387.362	13.07
387.57	12.93
387.778	12.87
387.985	12.71
388.193	12.82
388.4	13.03
388.608	13.05
388.816	12.94
389.023	13.09
389.231	13.14
389.438	13
389.646	13.12
389.853	13.44
390.061	13.37
390.268	13.46
390.475	13.64
390.683	13.52
390.89	13.47
391.098	13.39
391.305	13.05
391.512	12.9
391.72	13.06
391.927	13.09
392.135	12.93
392.342	12.97
392.549	13.04
392.756	12.89
392.964	13.21
393.171	13.35
393.378	13.59
393.586	13.7
393.793	13.72
394	13.73
394.207	13.64
394.414	13.7
394.622	13.71
394.829	13.61
395.036	13.41
395.243	13.07
395.45	12.98
395.657	12.76
395.864	12.53
396.072	12.49
396.279	12.43
396.486	12.72
396.693	12.47
396.9	12.3
397.107	12.57
397.314	12.55
397.521	12.71
397.728	12.79
397.935	12.91
398.142	12.97
398.349	12.99
398.556	12.87
398.763	12.74
398.97	12.88
399.177	13.06
399.383	12.98
399.59	13.08
399.797	12.89
400.004	12.98
400.211	13.04
400.418	13.17
400.625	13.11
400.831	13.25
401.038	13.12
401.245	13.25
401.452	13.25
401.658	13.19
401.865	13.29
402.072	13.45
402.279	13.43
402.485	13.4
402.692	13.3
402.899	13.38
403.105	13.26
403.312	13.53
403.519	13.49
403.725	13.52
403.932	13.47
404.138	13.53
404.345	13.33
404.552	13.32
404.758	13.38
404.965	13.41
405.171	13.33
405.378	13.29
405.584	13.09
405.791	12.94
405.997	13.04
406.204	12.98
406.41	12.77
406.617	13.05
406.823	12.9
407.029	12.83
407.236	12.83
407.442	12.78
407.649	12.95
407.855	12.97
408.061	13.06
408.268	12.89
408.474	13
408.68	13.16
408.887	13.08
409.093	13.34
409.299	13.15
409.505	13.08
409.712	13.35
409.918	13.3
410.124	13.27
410.33	13.4
410.537	13.38
410.743	13.37
410.949	13.4
411.155	13.42
411.361	13.21
411.567	13.3
411.773	13.44
411.98	13.3
412.186	13.24
412.392	13.36
412.598	13.39
412.804	13.6
413.01	13.67
413.216	13.54
413.422	13.49
413.628	13.6
413.834	13.61
414.04	13.57
414.246	13.49
414.452	13.53
414.658	13.41
414.864	13.28
415.07	13.21
415.275	13.26
415.481	13.37
415.687	13.46
415.893	13.47
416.099	13.57
416.305	13.65
416.511	13.71
416.716	13.72
416.922	13.74
417.128	13.7
417.334	13.67
417.539	13.64
417.745	13.56
417.951	13.53
418.157	13.43
418.362	13.42
418.568	13.4
418.774	13.36
418.979	13.34
419.185	13.36
419.391	13.37
419.596	13.4
419.802	13.41
420.008	13.51
420.213	13.56
420.419	13.62
420.624	13.63
420.83	13.61
421.035	13.71
421.241	13.72
421.446	13.78
421.652	13.86
421.857	13.84
422.063	13.78
422.268	13.76
422.474	13.65
422.679	13.63
422.885	13.64
423.09	13.69
423.295	13.68
423.501	13.65
423.706	13.66
423.911	13.48
424.117	13.44
424.322	13.45
424.527	13.44
424.733	13.61
424.938	13.61
425.143	13.65
425.349	13.53
425.554	13.53
425.759	13.61
425.964	13.58
426.169	13.71
426.375	13.74
426.58	13.76
426.785	13.66
426.99	13.58
427.195	13.62
427.4	13.56
427.605	13.74
427.811	13.67
428.016	13.63
428.221	13.57
428.426	13.6
428.631	13.61
428.836	13.6
429.041	13.77
429.246	13.78
429.451	13.84
429.656	13.82
429.861	13.78
430.066	13.74
430.271	13.87
430.476	13.87
430.681	13.91
430.886	13.97
431.09	13.96
431.295	13.92
431.5	13.94
431.705	13.82
431.91	13.8
432.115	13.85
432.32	13.8
432.524	13.75
432.729	13.74
432.934	13.64
433.139	13.67
433.343	13.72
433.548	13.75
433.753	13.65
433.958	13.7
434.162	13.82
434.367	13.74
434.572	13.88
434.776	14.01
434.981	14.09
435.186	14.12
435.39	14.13
435.595	14.17
435.799	14.16
436.004	14.26
436.209	14.35
436.413	14.3
436.618	14.38
436.822	14.3
437.027	14.13
437.231	14.08
437.436	14.12
437.64	14.08
437.845	14.11
438.049	14.08
438.253	14.08
438.458	14
438.662	13.93
438.867	13.86
439.071	13.91
439.275	14
439.48	14.05
439.684	14.01
439.888	13.96
440.093	14.01
440.297	14.08
440.501	14.09
440.706	14.15
440.91	14.14
441.114	14.22
441.318	14.18
441.523	14.13
441.727	14.07
441.931	14.07
442.135	14.07
442.339	14.01
442.543	13.95
442.748	13.86
442.952	13.82
443.156	13.88
443.36	13.86
443.564	13.92
443.768	13.98
443.972	14.07
444.176	14.07
444.38	14.18
444.584	14.12
444.788	14.2
444.992	14.22
445.196	14.32
445.4	14.38
445.604	14.37
445.808	14.43
446.012	14.45
446.216	14.38
446.42	14.41
446.624	14.39
446.828	14.4
447.032	14.39
447.235	14.41
447.439	14.34
447.643	14.2
447.847	14.24
448.051	14.22
448.254	14.19
448.458	14.25
448.662	14.28
448.866	14.29
449.069	14.27
449.273	14.14
449.477	14.25
449.681	14.24
449.884	14.36
450.088	14.31
450.292	14.33
450.495	14.28
450.699	14.29
450.902	14.21
451.106	14.27
451.31	14.35
451.513	14.47
451.717	14.33
451.92	14.32
452.124	14.36
452.327	14.42
452.531	14.45
452.734	14.55
452.938	14.5
453.141	14.46
453.345	14.45
453.548	14.55
453.752	14.51
453.955	14.59
454.158	14.59
454.362	14.49
454.565	14.38
454.769	14.21
454.972	14.12
455.175	14.17
455.379	14.31
455.582	14.35
455.785	14.2
455.988	14.26
456.192	14.14
456.395	14.12
456.598	14.11
456.801	14.12
457.005	14.08
457.208	14.03
457.411	13.9
457.614	13.8
457.817	13.69
458.021	13.74
458.224	13.82
458.427	13.95
458.63	14.06
458.833	14.11
459.036	14.17
459.239	14.29
459.442	14.31
459.645	14.35
459.848	14.38
460.051	14.44
460.254	14.36
460.457	14.29
460.66	14.26
460.863	14.25
461.066	14.25
461.269	14.12
461.472	14.14
461.675	14.24
461.878	14.27
462.081	14.36
462.284	14.38
462.486	14.44
462.689	14.53
462.892	14.56
463.095	14.54
463.298	14.54
463.5	14.86
463.703	14.76
463.906	14.65
464.109	14.61
464.311	14.66
464.514	14.53
464.717	14.72
464.92	14.69
465.122	14.68
465.325	14.77
465.528	14.81
465.73	14.62
465.933	14.64
466.135	14.72
466.338	14.81
466.541	14.75
466.743	14.9
466.946	14.84
467.148	14.8
467.351	14.83
467.553	14.73
467.756	14.76
467.958	14.79
468.161	14.72
468.363	14.65
468.566	14.53
468.768	14.45
468.971	14.34
469.173	14.19
469.375	14.15
469.578	13.98
469.78	14.05
469.983	14
470.185	14.02
470.387	14.08
470.59	14.1
470.792	14.21
470.994	14.17
471.196	14.18
471.399	14.26
471.601	14.37
471.803	14.44
472.005	14.29
472.208	14.34
472.41	14.46
472.612	14.48
472.814	14.45
473.016	14.52
473.218	14.64
473.421	14.64
473.623	14.65
473.825	14.72
474.027	14.78
474.229	14.78
474.431	14.77
474.633	14.64
474.835	14.7
475.037	14.72
475.239	14.62
475.441	14.55
475.643	14.58
475.845	14.52
476.047	14.4
476.249	14.44
476.451	14.5
476.653	14.49
476.855	14.51
477.057	14.51
477.258	14.47
477.46	14.51
477.662	14.48
477.864	14.47
478.066	14.48
478.268	14.42
478.469	14.44
478.671	14.41
478.873	14.32
479.075	14.27
479.276	14.19
479.478	14.27
479.68	14.22
479.882	14.19
480.083	14.28
480.285	14.27
480.487	14.36
480.688	14.32
480.89	14.39
481.091	14.47
481.293	14.52
481.495	14.55
481.696	14.51
481.898	14.52
482.099	14.58
482.301	14.53
482.502	14.59
482.704	14.57
482.905	14.58
483.107	14.58
483.308	14.53
483.51	14.54
483.711	14.49
483.913	14.48
484.114	14.47
484.315	14.44
484.517	14.44
484.718	14.44
484.92	14.44
485.121	14.41
485.322	14.4
485.524	14.41
485.725	14.41
485.926	14.48
486.127	14.51
486.329	14.54
486.53	14.57
486.731	14.55
486.932	14.51
487.134	14.49
487.335	14.5
487.536	14.46
487.737	14.44
487.938	14.39
488.139	14.35
488.341	14.33
488.542	14.31
488.743	14.31
488.944	14.34
489.145	14.36
489.346	14.38
489.547	14.37
489.748	14.47
489.949	14.51
490.15	14.6
490.351	14.63
490.552	14.72
490.753	14.79
490.954	14.81
491.155	14.84
491.356	14.86
491.557	14.88
491.758	14.9
491.959	14.8
492.159	14.85
492.36	14.8
492.561	14.82
492.762	14.76
492.963	14.7
493.164	14.72
493.364	14.71
493.565	14.68
493.766	14.66
493.967	14.69
494.167	14.85
494.368	14.83
494.569	14.92
494.769	14.93
494.97	14.93
495.171	14.96
495.371	14.89
495.572	14.86
495.773	14.83
495.973	14.79
496.174	14.8
496.375	14.78
496.575	14.7
496.776	14.7
496.976	14.72
497.177	14.71
497.377	14.66
497.578	14.71
497.778	14.68
497.979	14.65
498.179	14.66
498.38	14.69
498.58	14.72
498.78	14.82
498.981	14.77
499.181	14.72
499.382	14.8
499.582	14.92
499.782	14.89
499.983	15.01
500.183	15.12
500.383	15.14
500.584	15.15
500.784	15.08
500.984	15.09
501.184	15.16
501.385	15.32
501.585	15.33
501.785	15.35
501.985	15.44
502.185	15.5
502.386	15.62
502.586	15.67
502.786	15.65
502.986	15.7
503.186	15.73
503.386	15.67
503.586	15.61
503.786	15.61
503.987	15.55
504.187	15.47
504.387	15.38
504.587	15.3
504.787	15.29
504.987	15.27
505.187	15.27
505.387	15.29
505.587	15.33
505.786	15.36
505.986	15.4
506.186	15.51
506.386	15.58
506.586	15.62
506.786	15.71
506.986	15.72
507.186	15.81
507.386	15.82
507.585	15.85
507.785	15.91
507.985	15.85
508.185	15.88
508.384	15.83
508.584	15.76
508.784	15.75
508.984	15.67
509.183	15.66
509.383	15.67
509.583	15.69
509.782	15.69
509.982	15.68
510.182	15.71
510.381	15.67
510.581	15.67
510.781	15.79
510.98	15.79
511.18	15.87
511.379	16.01
511.579	16.04
511.778	16.08
511.978	16.16
512.177	16.23
512.377	16.28
512.576	16.3
512.776	16.32
512.975	16.27
513.175	16.36
513.374	16.34
513.573	16.21
513.773	16.19
513.972	16.18
514.172	16.16
514.371	16.23
514.57	16.21
514.77	16.28
514.969	16.39
515.168	16.48
515.367	16.53
515.567	16.64
515.766	16.73
515.965	16.84
516.164	16.93
516.364	16.95
516.563	16.87
516.762	16.99
516.961	16.91
517.16	16.89
517.359	16.87
517.559	16.81
517.758	16.79
517.957	16.82
518.156	16.8
518.355	16.78
518.554	16.71
518.753	16.76
518.952	16.68
519.151	16.73
519.35	16.81
519.549	16.87
519.748	16.9
519.947	16.94
520.146	16.96
520.345	16.92
520.544	16.92
520.743	17.05
520.942	17.06
521.141	17.09
521.339	17.19
521.538	17.26
521.737	17.38
521.936	17.41
522.135	17.4
522.333	17.44
522.532	17.45
522.731	17.46
522.93	17.49
523.129	17.54
523.327	17.65
523.526	17.58
523.725	17.54
523.923	17.5
524.122	17.61
524.321	17.72
524.519	17.74
524.718	17.81
524.917	17.93
525.115	17.95
525.314	17.9
525.512	17.86
525.711	17.87
525.909	17.81
526.108	17.79
526.306	17.78
526.505	17.74
526.703	17.76
526.902	17.8
527.1	17.77
527.299	17.77
527.497	17.8
527.696	17.79
527.894	17.81
528.092	17.81
528.291	17.84
528.489	17.82
528.688	17.84
528.886	17.84
529.084	17.83
529.283	17.84
529.481	17.83
529.679	17.84
529.877	17.88
530.076	17.92
530.274	17.98
530.472	18.01
530.67	18.03
530.869	18.08
531.067	18.14
531.265	18.26
531.463	18.34
531.661	18.41
531.859	18.42
532.057	18.47
532.255	18.49
532.454	18.5
532.652	18.49
532.85	18.52
533.048	18.52
533.246	18.5
533.444	18.46
533.642	18.41
533.84	18.42
534.038	18.47
534.236	18.46
534.434	18.51
534.632	18.59
534.83	18.68
535.027	18.7
535.225	18.75
535.423	18.8
535.621	18.83
535.819	18.87
536.017	18.9
536.215	18.94
536.412	19.01
536.61	19.01
536.808	18.96
537.006	18.95
537.203	19.02
537.401	19.06
537.599	19.09
537.797	19.05
537.994	19.07
538.192	19.16
538.39	19.18
538.587	19.23
538.785	19.26
538.983	19.32
539.18	19.4
539.378	19.42
539.575	19.37
539.773	19.45
539.97	19.59
540.168	19.65
540.366	19.66
540.563	19.75
540.761	19.75
540.958	19.75
541.155	19.8
541.353	19.79
541.55	19.8
541.748	19.88
541.945	19.85
542.143	19.84
542.34	19.87
542.537	19.93
542.735	19.93
542.932	19.98
543.129	20.05
543.327	20.12
543.524	20.19
543.721	20.3
543.919	20.42
544.116	20.57
544.313	20.74
544.51	20.87
544.708	20.93
544.905	21.04
545.102	21.15
545.299	21.28
545.496	21.3
545.693	21.4
545.891	21.4
546.088	21.33
546.285	21.33
546.482	21.24
546.679	21.16
546.876	21.11
547.073	21.09
547.27	20.93
547.467	20.85
547.664	20.89
547.861	20.82
548.058	20.86
548.255	20.82
548.452	20.74
548.649	20.75
548.846	20.69
549.043	20.66
549.24	20.56
549.437	20.73
549.633	20.56
549.83	20.55
550.027	20.46
550.224	20.45
550.421	20.55
550.618	20.51
550.814	20.45
551.011	20.59
551.208	20.66
551.405	20.73
551.601	20.64
551.798	20.78
551.995	20.8
552.191	20.97
552.388	20.86
552.585	20.75
552.781	20.83
552.978	20.87
553.175	20.93
553.371	20.85
553.568	20.81
553.764	20.88
553.961	20.89
554.157	20.83
554.354	20.71
554.55	20.94
554.747	20.96
554.943	21.02
555.14	21.01
555.336	20.96
555.533	21.05
555.729	21.03
555.926	20.95
556.122	21.01
556.318	20.98
556.515	20.87
556.711	20.72
556.907	20.81
557.104	20.78
557.3	20.75
557.496	20.55
557.693	20.43
557.889	20.54
558.085	20.63
558.281	20.58
558.478	20.56
558.674	20.68
558.87	20.67
559.066	20.67
559.262	20.63
559.459	20.69
559.655	20.82
559.851	20.84
560.047	20.91
560.243	21
560.439	21.02
560.635	21.09
560.831	21.22
561.027	21.33
561.223	21.29
561.419	21.39
561.615	21.38
561.811	21.31
562.007	21.35
562.203	21.27
562.399	21.21
562.595	21.13
562.791	21.16
562.987	21.11
563.183	21.04
563.379	21.02
563.575	21.02
563.771	21.16
563.966	21.29
564.162	21.39
564.358	21.43
564.554	21.45
564.75	21.45
564.945	21.35
565.141	21.28
565.337	21.19
565.533	21.18
565.728	21.12
565.924	21.1
566.12	21.07
566.315	21.08
566.511	20.97
566.707	20.95
566.902	20.93
567.098	21.09
567.293	21.08
567.489	21.16
567.684	21.33
567.88	21.33
568.076	21.36
568.271	21.51
568.467	21.54
568.662	21.74
568.858	21.68
569.053	21.87
569.248	21.85
569.444	21.89
569.639	21.89
569.835	21.86
570.03	22
570.225	21.93
570.421	21.78
570.616	21.76
570.812	21.72
571.007	21.68
571.202	21.68
571.397	21.62
571.593	21.68
571.788	21.7
571.983	21.69
572.178	21.66
572.374	21.83
572.569	21.86
572.764	21.79
572.959	21.75
573.154	21.85
573.35	21.8
573.545	21.83
573.74	21.82
573.935	21.81
574.13	21.73
574.325	21.68
574.52	21.54
574.715	21.69
574.91	21.75
575.105	21.9
575.3	22.06
575.495	22.23
575.69	22.27
575.885	22.31
576.08	22.43
576.275	22.62
576.47	22.76
576.665	22.82
576.86	22.87
577.055	22.89
577.25	22.81
577.444	22.75
577.639	22.56
577.834	22.6
578.029	22.74
578.224	22.7
578.418	22.63
578.613	22.58
578.808	22.68
579.003	22.63
579.197	22.69
579.392	22.69
579.587	22.78
579.781	22.9
579.976	23.01
580.171	23.04
580.365	23.06
580.56	23.11
580.755	23.01
580.949	22.93
581.144	22.89
581.338	22.92
581.533	23.05
581.727	22.95
581.922	22.98
582.116	22.94
582.311	22.9
582.505	22.96
582.7	23.05
582.894	23.2
583.089	23.24
583.283	23.37
583.478	23.5
583.672	23.48
583.866	23.58
584.061	23.79
584.255	23.73
584.449	23.7
584.644	23.68
584.838	23.63
585.032	23.75
585.226	23.79
585.421	23.72
585.615	23.75
585.809	23.73
586.003	23.71
586.198	23.49
586.392	23.44
586.586	23.5
586.78	23.46
586.974	23.49
587.168	23.51
587.363	23.59
587.557	23.64
587.751	23.51
587.945	23.38
588.139	23.44
588.333	23.6
588.527	23.73
588.721	23.68
588.915	23.78
589.109	23.73
589.303	23.6
589.497	23.55
589.691	23.59
589.885	23.76
590.079	23.9
590.273	23.89
590.466	23.78
590.66	23.81
590.854	23.89
591.048	23.93
591.242	24.08
591.436	24.26
591.629	24.5
591.823	24.58
592.017	24.53
592.211	24.6
592.404	24.66
592.598	24.75
592.792	24.87
592.986	24.85
593.179	24.74
593.373	24.73
593.567	24.58
593.76	24.44
593.954	24.37
594.147	24.36
594.341	24.28
594.535	24.14
594.728	24.15
594.922	23.97
595.115	23.91
595.309	24.1
595.502	24.06
595.696	24.21
595.889	24.23
596.083	24.16
596.276	24.05
596.47	24.07
596.663	24.2
596.856	24.12
597.05	24.26
597.243	24.24
597.437	24.26
597.63	24.33
597.823	24.31
598.017	24.36
598.21	24.42
598.403	24.5
598.596	24.55
598.79	24.42
598.983	24.46
599.176	24.28
599.369	24.37
599.563	24.26
599.756	24.24
599.949	24.15
600.142	24.14
600.335	24.06
600.528	24.08
600.722	24.12
600.915	24.12
601.108	24.09
601.301	24.4
601.494	24.3
601.687	24.34
601.88	24.31
602.073	24.32
602.266	24.29
602.459	24.39
602.652	24.46
602.845	24.56
603.038	24.65
603.231	24.63
603.424	24.45
603.617	24.53
603.809	24.56
604.002	24.46
604.195	24.47
604.388	24.42
604.581	24.4
604.774	24.27
604.966	24.11
605.159	24.12
605.352	24.21
605.545	24.25
605.737	24.28
605.93	24.26
606.123	24.44
606.316	24.52
606.508	24.66
606.701	24.72
606.894	24.9
607.086	25.22
607.279	25.4
607.471	25.5
607.664	25.69
607.857	25.88
608.049	26.02
608.242	26.35
608.434	26.66
608.627	27.11
608.819	27.58
609.012	28.14
609.204	28.8
609.397	29.47
609.589	30.25
609.782	31.09
609.974	31.75
610.166	32.71
610.359	33.25
610.551	33.88
610.743	34.46
610.936	34.97
611.128	35.45
611.32	35.49
611.513	35.45
611.705	35.38
611.897	35.24
612.09	35.16
612.282	34.84
612.474	34.54
612.666	34.47
612.858	34.05
613.051	33.67
613.243	33.16
613.435	32.87
613.627	32.54
613.819	32.23
614.011	32.05
614.203	31.71
614.395	31.22
614.588	31.09
614.78	30.39
614.972	30.09
615.164	29.85
615.356	29.71
615.548	29.28
615.74	29.03
615.932	28.65
616.124	28.33
616.315	28.22
616.507	28.19
616.699	27.86
616.891	27.86
617.083	27.66
617.275	27.3
617.467	26.98
617.659	27.08
617.85	27.06
618.042	27.3
618.234	27.04
618.426	26.96
618.618	26.86
618.809	26.86
619.001	27.05
619.193	27.03
619.384	27.14
619.576	27.3
619.768	27.3
619.959	27.22
620.151	27.11
620.343	27.14
620.534	27.36
620.726	27.18
620.917	27.22
621.109	27.02
621.301	27.01
621.492	26.97
621.684	26.84
621.875	27
622.067	27.11
622.258	27
622.45	27.03
622.641	26.81
622.832	27.02
623.024	27.05
623.215	27.18
623.407	27.1
623.598	27.4
623.789	27.51
623.981	27.54
624.172	27.5
624.363	27.58
624.555	27.7
624.746	27.61
624.937	27.52
625.129	27.73
625.32	27.72
625.511	27.82
625.702	27.66
625.893	27.67
626.085	27.43
626.276	27.52
626.467	27.57
626.658	27.56
626.849	27.59
627.04	27.54
627.231	27.39
627.422	27.16
627.614	27.27
627.805	27.26
627.996	27.12
628.187	27.3
628.378	27.21
628.569	27.15
628.76	27.1
628.951	27.09
629.142	27.47
629.332	27.67
629.523	27.92
629.714	27.94
629.905	28.12
630.096	28.4
630.287	28.3
630.478	28.53
630.669	28.61
630.859	28.73
631.05	28.92
631.241	28.71
631.432	28.4
631.623	28.12
631.813	27.82
632.004	27.7
632.195	27.42
632.385	27.42
632.576	27.21
632.767	27.15
632.957	27.17
633.148	27.03
633.339	26.8
633.529	26.64
633.72	26.89
633.91	26.8
634.101	26.58
634.292	26.61
634.482	26.67
634.673	26.54
634.863	26.41
635.054	26.29
635.244	26.44
635.435	26.46
635.625	26.54
635.815	26.34
636.006	26.56
636.196	26.87
636.387	26.86
636.577	26.87
636.767	27.11
636.958	27.15
637.148	27.01
637.338	26.76
637.529	26.94
637.719	27.16
637.909	27.17
638.099	27.12
638.29	26.92
638.48	27.14
638.67	26.97
638.86	26.9
639.05	26.84
639.241	26.79
639.431	26.89
639.621	26.9
639.811	26.78
640.001	26.95
640.191	27.04
640.381	27.05
640.571	26.85
640.761	26.86
640.951	26.79
641.141	26.85
641.331	26.96
641.521	26.84
641.711	26.81
641.901	26.78
642.091	26.74
642.281	26.74
642.471	26.74
642.661	26.72
642.851	26.8
643.041	26.77
643.231	26.92
643.42	26.95
643.61	27.33
643.8	27.42
643.99	27.57
644.18	27.58
644.369	27.48
644.559	27.51
644.749	27.59
644.939	27.62
645.128	27.71
645.318	27.59
645.508	27.71
645.697	27.36
645.887	27.25
646.076	27.06
646.266	27.17
646.456	27.53
646.645	27.63
646.835	27.67
647.024	27.37
647.214	27.45
647.403	27.55
647.593	27.55
647.782	27.69
647.972	27.6
648.161	27.82
648.351	27.83
648.54	27.59
648.73	27.6
648.919	27.39
649.108	27.83
649.298	27.78
649.487	28.1
649.677	27.78
649.866	27.78
650.055	27.98
650.244	27.84
650.434	27.86
650.623	27.92
650.812	27.96
651.002	28.15
651.191	28.14
651.38	28.3
651.569	28.02
651.758	28.05
651.947	27.97
652.137	27.95
652.326	28.06
652.515	28.07
652.704	28.1
652.893	27.87
653.082	27.6
653.271	27.32
653.46	27.16
653.649	27.3
653.838	27.48
654.027	27.61
654.216	27.51
654.405	27.57
654.594	27.45
654.783	27.37
654.972	27.38
655.161	27.51
655.35	27.55
655.539	27.25
655.728	27.19
655.916	27.04
656.105	27.1
656.294	27.2
656.483	27.12
656.672	27.1
656.86	27.12
657.049	27.16
657.238	27.4
657.427	27.4
657.615	27.57
657.804	27.49
657.993	27.88
658.181	27.79
658.37	27.72
658.559	27.65
658.747	27.65
658.936	27.46
659.125	27.42
659.313	27.3
659.502	27.5
659.69	27.56
659.879	27.61
660.067	27.35
660.256	27.55
660.444	27.58
660.633	27.63
660.821	27.59
661.01	27.75
661.198	27.94
661.387	27.93
661.575	27.77
661.763	27.7
661.952	27.51
662.14	27.85
662.328	27.75
662.517	27.71
662.705	27.6
662.893	27.73
663.082	27.78
663.27	27.49
663.458	27.55
663.646	27.53
663.834	27.69
664.023	27.94
664.211	27.56
664.399	27.5
664.587	27.59
664.775	27.9
664.963	27.91
665.152	28.03
665.34	28.15
665.528	28.24
665.716	28.38
665.904	28.43
666.092	28.47
666.28	28.64
666.468	28.53
666.656	28.37
666.844	28.18
667.032	28.1
667.22	27.93
667.408	28.01
667.596	27.96
667.784	27.7
667.971	27.66
668.159	27.55
668.347	27.51
668.535	27.57
668.723	27.71
668.911	27.69
669.098	27.76
669.286	28.02
669.474	27.77
669.662	28.03
669.849	28.36
670.037	28.39
670.225	28.27
670.413	28.31
670.6	28.25
670.788	28.04
670.976	28.13
671.163	28.23
671.351	28.02
671.538	28.29
671.726	28.13
671.913	27.98
672.101	27.76
672.289	27.95
672.476	27.87
672.664	28.14
672.851	28.04
673.039	28.05
673.226	27.88
673.413	28.03
673.601	28.03
673.788	27.92
673.976	27.95
674.163	28.43
674.35	28.53
674.538	28.34
674.725	27.91
674.912	28.14
675.1	28.14
675.287	28.21
675.474	28.26
675.662	28.4
675.849	28.19
676.036	28.51
676.223	28.19
676.411	27.95
676.598	28.11
676.785	28.46
676.972	28.58
677.159	28.6
677.346	28.66
677.533	28.62
677.721	28.31
677.908	28.83
678.095	28.85
678.282	29.12
678.469	29.18
678.656	29.25
678.843	29.13
679.03	28.86
679.217	28.73
679.404	28.73
679.591	28.72
679.778	29.08
679.964	28.91
680.151	28.46
680.338	28.2
680.525	28.46
680.712	28.58
680.899	28.76
681.086	29.03
681.272	29.13
681.459	29.17
681.646	28.73
681.833	28.5
682.02	28.33
682.206	28.44
682.393	28.51
682.58	28.04
682.766	27.69
682.953	27.52
683.14	27.61
683.326	27.67
683.513	27.43
683.7	27.55
683.886	27.68
684.073	27.49
684.259	27.77
684.446	27.91
684.632	28.24
684.819	28.37
685.005	28.59
685.192	28.45
685.378	28.52
685.565	28.81
685.751	29.15
685.938	29.09
686.124	29.3
686.31	29.27
686.497	29.01
686.683	28.89
686.87	28.81
687.056	28.35
687.242	28.34
687.429	27.98
687.615	27.78
687.801	27.59
687.987	27.71
688.174	28
688.36	27.85
688.546	27.88
688.732	28.17
688.918	28.51
689.105	28.92
689.291	29.1
689.477	29.13
689.663	29.17
689.849	29.35
690.035	29.31
690.221	29.22
690.407	29.1
690.593	28.86
690.779	28.64
690.965	28.39
691.151	28.15
691.337	28.01
691.523	28.42
691.709	28.57
691.895	28.82
692.081	28.63
692.267	28.74
692.453	29.09
692.639	29.51
692.825	29.36
693.011	29.47
693.196	29.38
693.382	29.21
693.568	29.07
693.754	29.18
693.94	28.66
694.125	29.1
694.311	28.89
694.497	28.75
694.682	28.72
694.868	28.92
695.054	28.99
695.239	29.3
695.425	29.24
695.611	29.26
695.796	28.96
695.982	28.94
696.168	28.48
696.353	28.28
696.539	28.23
696.724	28.32
696.91	28.41
697.095	28.16
697.281	27.87
697.466	28.07
697.652	27.93
697.837	28.08
698.023	28.04
698.208	27.99
698.393	28.12
698.579	28.06
698.764	27.81
698.949	27.65
699.135	27.71
699.32	27.74
699.505	27.57
699.691	27.85
699.876	27.75
700.061	27.7
700.246	27.88
700.432	27.86
700.617	28.07
700.802	28.06
700.987	28.1
701.172	28.21
701.358	28.27
701.543	28.3
701.728	27.97
701.913	27.93
702.098	28.09
702.283	28.41
702.468	28.27
702.653	28.16
702.838	28.63
703.023	28.5
703.208	28.66
703.393	29.01
703.578	29.48
703.763	29.35
703.948	29.8
704.133	30.22
704.318	30.21
704.503	30.36
704.688	30.5
704.873	30.69
705.057	31.08
705.242	31.19
705.427	31.18
705.612	30.95
705.797	31.67
705.981	31.66
706.166	31.98
706.351	32.53
706.536	33.06
706.72	33.18
706.905	33.53
707.09	33.4
707.274	33.32
707.459	33.41
707.644	33.64
707.828	33.3
708.013	33.41
708.197	32.83
708.382	32.2
708.567	31.98
708.751	31.61
708.936	31.09
709.12	31.27
709.305	31.2
709.489	31.23
709.673	30.96
709.858	30.93
710.042	30.76
710.227	31.2
710.411	31.29
710.596	31.26
710.78	31.68
710.964	31.5
711.149	31.16
711.333	31.02
711.517	30.9
711.702	30.98
711.886	31.25
712.07	31.02
712.254	30.53
712.438	30.13
712.623	29.91
712.807	29.67
712.991	29.49
713.175	29.44
713.359	29.16
713.544	29.09
713.728	28.79
713.912	28.25
714.096	28.13
714.28	28.03
714.464	28.05
714.648	28.04
714.832	27.85
715.016	27.84
715.2	27.83
715.384	28.05
715.568	27.98
715.752	27.88
715.936	28.18
716.12	28.19
716.304	27.91
716.488	28.09
716.671	28.18
716.855	28.34
717.039	28.19
717.223	28.16
717.407	28.1
717.59	27.55
717.774	27.88
717.958	27.69
718.142	27.92
718.325	28.13
718.509	27.94
718.693	27.77
718.877	27.46
719.06	27.45
719.244	27.5
719.428	27.7
719.611	28.44
719.795	28.73
719.978	28.57
720.162	28.42
720.345	28.75
720.529	28.55
720.713	28.38
720.896	28.47
721.08	28.75
721.263	28.82
721.446	28.7
721.63	28.28
721.813	27.86
721.997	28.44
722.18	27.98
722.364	27.79
722.547	27.86
722.73	28.15
722.914	27.77
723.097	28.3
723.28	28.52
723.464	28.26
723.647	28.91
723.83	29.08
724.013	28.66
724.197	28.9
724.38	28.59
724.563	28.86
724.746	28.72
724.929	29.39
725.112	28.83
725.296	28.51
725.479	28.97
725.662	28.24
725.845	27.94
726.028	28.41
726.211	28.38
726.394	28.76
726.577	28.73
726.76	28.91
726.943	28.67
727.126	28.58
727.309	28.5
727.492	28.32
727.675	28.43
727.858	28.74
728.041	28.07
728.224	28.06
728.407	27.73
728.589	27.54
728.772	27.35
728.955	27.48
729.138	27.89
729.321	27.83
729.503	27.93
729.686	28.06
729.869	27.64
730.052	27.99
730.234	28.35
730.417	28.63
730.6	28.48
730.782	28.52
730.965	28.16
731.148	27.79
731.33	28.14
731.513	27.84
731.695	27.97
731.878	28.35
732.061	28.12
732.243	28.18
732.426	28.14
732.608	28.4
732.791	28.1
732.973	28.19
733.156	28.26
733.338	28.25
733.52	28.63
733.703	28.32
733.885	28.45
734.068	28.58
734.25	28.42
734.432	28.57
734.615	28.75
734.797	29
734.979	29.07
735.162	29.27
735.344	28.93
735.526	29.15
735.708	29.22
735.891	28.86
736.073	28.52
736.255	28.27
736.437	27.98
736.619	27.67
736.802	27.79
736.984	27.57
737.166	27.02
737.348	27.31
737.53	27.15
737.712	27.47
737.894	26.85
738.076	27.1
738.258	27.27
738.44	27.3
738.622	27.26
738.804	27.7
738.986	28.36
739.168	28.7
739.35	28.53
739.532	27.87
739.714	27.93
739.896	28.76
740.078	29.27
740.259	28.94
740.441	29.61
740.623	30.04
740.805	29.61
740.987	29.4
741.168	29.54
741.35	30.12
741.532	30.55
741.714	29.86
741.895	29.64
742.077	29.43
742.259	29.97
742.44	29.53
742.622	29.35
742.804	29.46
742.985	29.11
743.167	29.32
743.348	28.54
743.53	27.96
743.711	29.05
743.893	29.15
744.075	29.16
744.256	29.19
744.438	28.85
744.619	28.83
744.8	28.66
744.982	28.96
745.163	28.65
745.345	28.91
745.526	29.79
745.707	29.51
745.889	29.63
746.07	29.23
746.252	29.03
746.433	29.34
746.614	29.25
746.795	29.33
746.977	29.32
747.158	29.18
747.339	29.25
747.52	29.3
747.702	28.41
747.883	28.56
748.064	28.52
748.245	28.64
748.426	28.65
748.607	28.66
748.788	28.78
748.97	28.7
749.151	28.42
749.332	29.15
749.513	29.5
749.694	29.91
749.875	29.82
750.056	30.03
750.237	30.24
750.418	30.76
750.599	31.12
750.78	31.13
750.96	31.38
751.141	30.79
751.322	29.64
751.503	28.97
751.684	29.71
751.865	29.99
752.046	30.01
752.226	30.05
752.407	30.15
752.588	29.96
752.769	30.23
752.949	29.74
753.13	31.51
753.311	32.14
753.492	31.77
753.672	31.48
753.853	30.6
754.034	30.55
754.214	30.22
754.395	30.01
754.575	30.07
754.756	29.42
754.937	29.81
755.117	28.82
755.298	28.05
755.478	28.01
755.659	28.25
755.839	29.1
756.02	29.4
756.2	29.33
756.381	28.63
756.561	28.17
756.741	28.63
756.922	28.39
757.102	28.16
757.283	28.69
757.463	29.21
757.643	28.64
757.823	28.59
758.004	27.87
758.184	27.57
758.364	28.44
758.545	28.06
758.725	27.36
758.905	27.31
759.085	27.03
759.265	27.06
759.446	26.28
759.626	26.55
759.806	25.93
759.986	26.12
760.166	25.89
760.346	25.14
760.526	25.66
760.706	26.2
760.886	26.28
761.066	27.2
761.246	27.51
761.426	28.2
761.606	27.51
761.786	27.37
761.966	27.08
762.146	27.33
762.326	26.89
762.506	26.75
762.686	26.51
762.866	25.78
763.046	25.92
763.225	25.62
763.405	25.46
763.585	25.96
763.765	26.05
763.945	26.11
764.124	26.26
764.304	26.74
764.484	26.73
764.664	26.85
764.843	27.58
765.023	27.08
765.203	27.08
765.382	27.3
765.562	27.01
765.741	27.32
765.921	27.42
766.101	27.88
766.28	27.48
766.46	27.33
766.639	27.83
766.819	27.44
766.998	27.56
767.178	28.11
767.357	27.54
767.537	27.27
767.716	27.21
767.896	27.3
768.075	26.31
768.254	26.9
768.434	27.38
768.613	27.42
768.792	27.74
768.972	28.63
769.151	28.71
769.33	29.54
769.51	29.95
769.689	30.57
769.868	30.52
770.047	31.37
770.226	31.35
770.406	31.46
770.585	30.63
770.764	30.73
770.943	30.07
771.122	29.2
771.301	28.68
771.48	29.08
771.66	29.02
771.839	29.36
772.018	28.91
772.197	28.76
772.376	28.45
772.555	28.88
772.734	29.32
772.913	29.16
773.092	29.05
773.271	28.85
773.449	28.51
773.628	28.08
773.807	27.84
773.986	27.37
774.165	27.27
774.344	27.37
774.523	27.43
774.701	26.48
774.88	26.52
775.059	26.86
775.238	27.34
775.417	27.96
775.595	27.45
775.774	27.45
775.953	28.26
776.131	28.52
776.31	29.05
776.489	29
776.667	29.98
776.846	31.22
777.025	30.58
777.203	29.5
777.382	28.94
777.56	29.43
777.739	29.38
777.917	29.23
778.096	29.54
778.274	28.6
778.453	29.23
778.631	28.18
778.81	27.18
778.988	27.91
779.166	29.26
779.345	29.18
779.523	29.16
779.702	28.7
779.88	28.56
780.058	28.02
780.237	29.4
780.415	29.23
780.593	29.66
780.771	29.43
780.95	29.68
781.128	29.58
781.306	29.85
781.484	29.55
781.662	30.22
781.841	30.64
782.019	30.26
782.197	29.4
782.375	28.31
782.553	28.8
782.731	29.14
782.909	28.56
783.087	29.1
783.265	28.64
783.443	28.05
783.621	27.99
783.799	26.95
783.977	27.66
784.155	27.01
784.333	28.7
784.511	28.18
784.689	27.25
784.867	27.86
785.045	26.63
785.223	25.62
785.4	26.76
785.578	27.42
785.756	28.27
785.934	28.25
786.112	28.21
786.289	26.78
786.467	26.2
786.645	27.18
786.823	26.35
787	26.34
787.178	26.9
787.356	26.29
787.533	25.31
787.711	25.55
787.889	24.58
788.066	25.44
788.244	25.4
788.421	25.1
788.599	24.33
788.776	24.58
788.954	25.18
789.131	25.61
789.309	26.01
789.486	26.56
789.664	25.83
789.841	26.57
790.019	26.23
790.196	26.41
790.373	28.07
790.551	29.04
790.728	29.74
790.906	29.79
791.083	29.35
791.26	29.38
791.437	28.4
791.615	28.93
791.792	28.63
791.969	28.74
792.146	28.13
792.324	27.48
792.501	25.82
792.678	25.73
792.855	25.31
793.032	26.07
793.209	25.8
793.387	26.61
793.564	26.84
793.741	27.52
793.918	27.52
794.095	27.5
794.272	27.64
794.449	28.44
794.626	27.15
794.803	27.73
794.98	27.76
795.157	28.19
795.334	28.06
795.511	27.58
795.688	26.02
795.864	25.88
796.041	26.78
796.218	26.55
796.395	27.04
796.572	26.88
796.749	25.97
796.925	25.71
797.102	25.74
797.279	26.82
797.456	26.77
797.632	27.33
797.809	28.05
797.986	27.35
798.162	27.4
798.339	26.08
798.516	26.7
798.692	27.68
798.869	27.41
799.046	26.68
799.222	25.36
799.399	25.76
799.575	26.2
799.752	26.02
799.928	26.77
800.105	26.16
800.281	28.27
800.458	29.45
800.634	27.83
800.811	29.37
800.987	29.47
801.163	28.91
801.34	30.08
801.516	29.89
801.692	28.5
801.869	27.94
802.045	28.58
802.221	27.56
802.398	27.12
802.574	29.11
802.75	28.18
802.926	27.81
803.103	28.93
803.279	27.73
803.455	28.02
803.631	29.5
803.807	31.03
803.983	31.03
804.16	30.86
804.336	30.28
804.512	29.36
804.688	28.99
804.864	29.58
805.04	28.84
805.216	27.38
805.392	26.09
805.568	25.93
805.744	24.25
805.92	25.09
806.096	24.8
806.272	23.53
806.448	22.2
806.623	22.48
806.799	23.3
806.975	24.39
807.151	25
807.327	24.99
807.503	24.74
807.678	24.86
807.854	24.54
808.03	24.62
808.206	25.68
808.381	26.79
808.557	25.43
808.733	24.71
808.908	25.01
809.084	25.46
809.26	26.4
809.435	26.21
809.611	26.26
809.787	26.33
809.962	26.42
810.138	26.57
810.313	26.25
810.489	28.65
810.664	28.1
810.84	27.27
811.015	26.38
811.191	27.84
811.366	26.68
811.542	27.9
811.717	27.79
811.892	29.46
812.068	30.63
812.243	30.89
812.419	29.67
812.594	30.33
812.769	30.08
812.944	30.81
813.12	28.68
813.295	30.15
813.47	30.15
813.645	28.89
813.821	26.87
813.996	26.29
814.171	26.18
814.346	24.9
814.521	25.44
814.697	25.09
814.872	24.21
815.047	25.55
815.222	26.24
815.397	25.78
815.572	26.91
815.747	26.67
815.922	25.55
816.097	25.78
816.272	25.92
816.447	26.64
816.622	26.64
816.797	27.74
816.972	25.76
817.147	24.23
817.322	23.84
817.496	24
817.671	25.7
817.846	25.66
818.021	25.36
818.196	25.68
818.371	25.11
818.545	25.2
818.72	25.68
818.895	27.21
819.069	27.2
819.244	27.1
819.419	25.49
819.594	25.6
819.768	25.13
819.943	24.22
820.117	24.58
820.292	23.85
820.467	23.85
820.641	23.37
820.816	23.16
820.99	22.64
821.165	22.47
821.339	22.52
821.514	21.86
821.688	21.83
821.863	21.78
822.037	21.73
822.212	21.46
822.386	21.05
822.56	20.84
822.735	20.79
822.909	20.91
823.084	20.68
823.258	20.68
823.432	20.55
823.606	20.36
823.781	20.43
823.955	20.08
824.129	20.12
824.303	19.95
824.478	19.77
824.652	19.69
824.826	19.63
825	19.46
825.174	19.48
825.348	19.66
825.523	19.83
825.697	19.55
825.871	20.04
826.045	20.21
826.219	21.6
826.393	21.36
826.567	21.49
826.741	21.64
826.915	21.42
827.089	20.88
827.263	20.77
827.437	20.84
827.611	20.72
827.784	21.16
827.958	21.25
828.132	20.54
828.306	21.11
828.48	21.17
828.654	20.17
828.827	20.72
829.001	21.49
829.175	21.56
829.349	21.83
829.522	22.47
829.696	21.87
829.87	21.59
830.044	22.05
830.217	21.3
830.391	20.22
830.565	20.87
830.738	21.24
830.912	20.09
831.085	21.25
831.259	20.28
831.432	20.15
831.606	18.98
831.779	18.35
831.953	19.24
832.126	20.76
832.3	20.96
832.473	21.77
832.647	21.86
832.82	21.74
832.994	21.32
833.167	22.13
833.34	22.61
833.514	22.79
833.687	22.91
833.86	22.35
834.034	22.24
834.207	22.45
834.38	22.74
834.553	22.59
834.727	22.35
834.9	22.46
835.073	21.54
835.246	20.87
835.419	21.66
835.593	21.92
835.766	21.33
835.939	20.93
836.112	20.43
836.285	20
836.458	20.47
836.631	20.94
836.804	20.71
836.977	20.57
837.15	21.42
837.323	20.26
837.496	20.98
837.669	22.25
837.842	21.26
838.015	22.67
838.188	20.89
838.361	19.57
838.533	21.13
838.706	20.04
838.879	22.55
839.052	21.29
839.225	19.68
839.398	17.28
839.57	17.92
839.743	19.25
839.916	21.38
840.088	24.28
840.261	24.75
840.434	26.15
840.607	27.92
840.779	26.3
840.952	27.71
841.124	30.37
841.297	30.12
841.47	30.79
841.642	31.2
841.815	29.35
841.987	26.47
842.16	26.87
842.332	23.34
842.505	23.21
842.677	26.6
842.85	24.16
843.022	21.66
843.194	25.34
843.367	25.13
843.539	26.25
843.712	25.42
843.884	27.93
844.056	27.15
844.229	28.3
844.401	24.63
844.573	20.96
844.745	26.3
844.918	21.72
845.09	20.03
845.262	16.66
845.434	18.18
845.606	17.2
845.779	17.7
845.951	18.56
846.123	19.64
846.295	22.02
846.467	23.4
846.639	19.13
846.811	28.02
846.983	30.93
847.155	34.27
847.327	31.15
847.499	33.6
847.671	35.89
847.843	36.24
848.015	36.97
848.187	39.56
848.359	41.78
848.531	42.87
848.703	44.28
848.875	42.02
849.047	40.87
849.218	41.66
849.39	42.04
849.562	41.02
849.734	38.9
849.905	39.45
850.077	38.75
850.249	37
850.421	35.55
850.592	33.82
850.764	34.72
850.936	33.65
851.107	33.77
851.279	32.66
851.451	32.05
851.622	32.41
851.794	33.67
851.965	34.6
852.137	34.28
852.308	33.91
852.48	31.65
852.651	31.11
852.823	31.36
852.994	28.55
853.166	29.93
853.337	26.8
853.509	25.73
853.68	26.37
853.851	25.09
854.023	23.09
854.194	26.2
854.365	26.84
854.537	25.41
854.708	27.82
854.879	31.76
855.05	32.44
855.222	36.43
855.393	39.25
855.564	38.31
855.735	36.54
855.906	38.87
856.078	39.29
856.249	41.82
856.42	45.84
856.591	42.27
856.762	40.05
856.933	38.37
857.104	34.62
857.275	32.51
857.446	29.69
857.617	33.45
857.788	33.62
857.959	33.77
858.13	31.02
858.301	29.91
858.472	35.1
858.643	33.47
858.814	37.26
858.985	41.77
859.155	41.23
859.326	42.42
859.497	36.76
859.668	37.97
859.839	35.51
860.009	34.28
860.18	33.74
860.351	24.78
860.522	32.51
860.692	28.44
860.863	24.85
861.034	28.7
861.204	31.43
861.375	31.21
861.546	27.16
861.716	23.42
861.887	22.42
862.057	24.31
862.228	30.51
862.398	27.02
862.569	32.36
862.739	30.43
862.91	29.78
863.08	27.6
863.251	31.5
863.421	31.63
863.592	37.88
863.762	42.19
863.932	38.11
864.103	40.66
864.273	38.88
864.443	33.15
864.614	35.5
864.784	32
864.954	32.71
865.125	35.21
865.295	33.76
865.465	30.25
865.635	26.8
865.805	29.28
865.976	24.95
866.146	26.92
866.316	32.82
866.486	33.65
866.656	32.02
866.826	31.04
866.996	26.36
867.166	27.01
867.336	32.02
867.506	30.37
867.676	29.82
867.846	33.11
868.016	29.08
868.186	25.48
868.356	26.89
868.526	26.39
868.696	27.82
868.866	31.46
869.036	34.06
869.206	24.54
869.376	24.81
869.545	26.17
869.715	26.28
869.885	31.8
870.055	34.76
870.224	36.87
870.394	35.86
870.564	28.23
870.734	24.76
870.903	24.27
871.073	24.86
871.243	27.8
871.412	30.88
871.582	24.2
871.751	16.75
871.921	18.89
872.091	15.96
872.26	23.89
872.43	32.76
872.599	34.04
872.769	33.81
872.938	43.31
873.108	45.12
873.277	41.23
873.446	44.01
873.616	46.95
873.785	44.76
873.955	46.99
874.124	45.29
874.293	44.96
874.463	45.11
874.632	50.84
874.801	48.06
874.971	45.01
875.14	46.21
875.309	47.69
875.478	46.15
875.647	46.38
875.817	41.88
875.986	40.55
876.155	39.2
876.324	39.66
876.493	31.67
876.662	31.04
876.831	35.93
877	33.46
877.17	30.84
877.339	27.6
877.508	23.54
877.677	24.83
877.846	26.84
878.015	24.41
878.184	22.71
878.352	26.2
878.521	25.2
878.69	17
878.859	17.24
879.028	12.95
879.197	13.73
879.366	16.01
879.534	19.5
879.703	21.25
879.872	22.15
880.041	19.73
880.21	17.66
880.378	17.51
880.547	19.75
880.716	19.18
880.884	20.26
881.053	20.82
881.222	20.87
881.39	19.38
881.559	18.05
881.727	18.19
881.896	19.23
882.065	19.31
882.233	19.35
882.402	18.72
882.57	18.98
882.739	17.83
882.907	17.59
883.076	17.58
883.244	17.71
883.412	18.22
883.581	18.18
883.749	17.14
883.918	16.86
884.086	16.23
884.254	15.86
884.423	16.41
884.591	17.72
884.759	18.6
884.927	19.27
885.096	20.04
885.264	21.51
885.432	19.15
885.6	19.96
885.769	21.57
885.937	23.85
886.105	25.8
886.273	24.37
886.441	25.61
886.609	23.53
886.777	22.73
886.945	22.49
887.113	20.23
887.281	24.97
887.449	25.45
887.617	24.81
887.785	22.26
887.953	22.57
888.121	24.99
888.289	24.94
888.457	24.94
888.625	26.39
888.793	28.49
888.961	30.91
889.129	33.1
889.296	34.34
889.464	37.03
889.632	41.16
889.8	42.4
889.967	41.02
890.135	43.03
