Data from 2938776__Reflection_01.txt Node
Date: Fri Mar 13 13:55:06 EDT 2015
User: robert
Spectrometer: USB4E03002
Autoset integration time: false
Trigger mode: 4
Integration Time (sec): 1.000000E-1
Scans to average: 10
Electric dark correction enabled: false
Nonlinearity correction enabled: false
Boxcar width: 5
Stray light correction enabled: false
XAxis mode: Wavelengths
Stop averaging: false
Number of Pixels in Spectrum: 3648
>>>>>Begin Spectral Data<<<<<
177.575	-94.44
177.794	-235.62
178.014	-918.52
178.233	665.67
178.452	1143.24
178.672	279.55
178.891	262.2
179.11	1486.96
179.33	-595.52
179.549	-228.57
179.768	-1193.33
179.987	758.21
180.207	1996.3
180.426	729.23
180.645	-937.14
180.864	-532.26
181.084	-104.33
181.303	-113.08
181.522	-480.85
181.741	1033.33
181.96	131.43
182.179	124.4
182.398	68.79
182.618	58.15
182.837	64.94
183.056	60.92
183.275	54.34
183.494	25.73
183.713	-27.46
183.932	16.1
184.151	-15.6
184.37	-75.86
184.589	-150.56
184.808	-301.11
185.027	-33.33
185.246	-6.28
185.465	-20.63
185.684	-28.53
185.903	7.6
186.122	51.91
186.341	37.77
186.56	44.39
186.779	85.64
186.998	93.74
187.216	123.11
187.435	233.05
187.654	76.58
187.873	74.47
188.092	105.48
188.311	129.48
188.53	136.06
188.748	517.19
188.967	-979.17
189.186	160.87
189.405	135.25
189.623	101.81
189.842	95.65
190.061	157.45
190.28	188.27
190.498	131.64
190.717	125.1
190.936	130.27
191.154	104.93
191.373	123.08
191.592	106.37
191.81	99.08
192.029	87.05
192.248	84.34
192.466	62.68
192.685	68.37
192.904	70.08
193.122	48.97
193.341	73.12
193.559	72.5
193.778	68.82
193.996	87.56
194.215	488
194.433	134.58
194.652	93.92
194.87	311.7
195.089	5460
195.307	538.46
195.526	-224.3
195.744	614.89
195.963	243.72
196.181	177.27
196.399	144
196.618	141.92
196.836	191.3
197.055	269.48
197.273	327.47
197.491	844.12
197.71	801.85
197.928	187.71
198.146	242.37
198.365	224
198.583	324.24
198.801	-26.2
199.019	-14.48
199.238	-22.83
199.456	-23.41
199.674	-17.88
199.892	16.26
200.111	48.72
200.329	23.49
200.547	38.02
200.765	4.27
200.983	9.88
201.202	14.02
201.42	-166.67
201.638	-165.22
201.856	-11.34
202.074	-202.44
202.292	40.53
202.51	-14.73
202.728	-0.85
202.946	39.6
203.165	103.17
203.383	-200
203.601	91.55
203.819	-43.56
204.037	19.79
204.255	62.67
204.473	71.15
204.691	120.99
204.909	58.79
205.127	43.1
205.345	20.71
205.562	-23.41
205.78	26.8
205.998	-6.46
206.216	8.03
206.434	12.98
206.652	42.36
206.87	49.89
207.088	39.17
207.306	57.4
207.523	53.21
207.741	52.83
207.959	72.35
208.177	65.72
208.395	79.63
208.612	83.96
208.83	58.87
209.048	8.23
209.266	-330
209.483	426.47
209.701	60
209.919	257.81
210.136	2660
210.354	-97.22
210.572	99.45
210.79	42.99
211.007	80
211.225	286.44
211.442	116.67
211.66	70.9
211.878	48.74
212.095	27.57
212.313	4.81
212.53	-1.14
212.748	-8.92
212.966	0.69
213.183	-25.12
213.401	-50.5
213.618	-36.99
213.836	-75.61
214.053	-74.51
214.271	-54.09
214.488	-39.55
214.705	-36.55
214.923	-30.62
215.14	-11.52
215.358	1.6
215.575	5.14
215.793	16.33
216.01	33.9
216.227	50.79
216.445	31.1
216.662	29.47
216.879	35.71
217.097	33.68
217.314	39.09
217.531	41.56
217.749	33.3
217.966	34.88
218.183	29.13
218.4	-17.99
218.618	-1.8
218.835	18.74
219.052	11.73
219.269	11.04
219.487	-0.35
219.704	8.74
219.921	2.78
220.138	2.7
220.355	7.63
220.572	11.33
220.79	21.54
221.007	6.79
221.224	5.86
221.441	11.6
221.658	22.43
221.875	26.62
222.092	21.35
222.309	23.33
222.526	25.11
222.743	20.72
222.96	14.91
223.177	20.36
223.394	24.05
223.611	18.33
223.828	21.17
224.045	18.18
224.262	22.05
224.479	21.59
224.696	16.14
224.913	18.68
225.13	21.45
225.347	26.4
225.564	26.78
225.781	23.88
225.997	21.26
226.214	17.74
226.431	13.51
226.648	9.28
226.865	10.42
227.082	8.86
227.298	9.31
227.515	6.97
227.732	3.32
227.949	1.28
228.165	2.7
228.382	3.44
228.599	2.5
228.816	2.21
229.032	1.81
229.249	1.65
229.466	1.99
229.682	0.97
229.899	0.48
230.116	1.85
230.332	1.79
230.549	0.77
230.765	-0.07
230.982	0.73
231.199	1.1
231.415	2.1
231.632	1.51
231.848	2.74
232.065	0.15
232.281	-0.59
232.498	-1.55
232.714	0.54
232.931	2.38
233.147	3.65
233.364	3.3
233.58	2.17
233.797	2.04
234.013	1.48
234.23	-0.8
234.446	1.12
234.662	2.94
234.879	3.5
235.095	2.9
235.312	3.36
235.528	2.04
235.744	0.39
235.961	4.11
236.177	3.28
236.393	4.72
236.61	4.12
236.826	3.92
237.042	4.01
237.258	2.39
237.475	1.71
237.691	-0.39
237.907	0.51
238.123	3.66
238.339	1.95
238.556	1.47
238.772	1.11
238.988	2.48
239.204	4.27
239.42	4.67
239.636	5.95
239.853	5.67
240.069	6.33
240.285	6
240.501	5.94
240.717	5.62
240.933	5.57
241.149	5.02
241.365	4.76
241.581	3.99
241.797	3.77
242.013	3.27
242.229	3.65
242.445	3.33
242.661	3.35
242.877	3.25
243.093	3.02
243.309	3.1
243.525	2.85
243.741	3.06
243.957	3.51
244.173	3.38
244.388	3.58
244.604	3.4
244.82	3.57
245.036	3.23
245.252	2.42
245.468	2.89
245.683	3.35
245.899	3.09
246.115	2.63
246.331	2.55
246.547	2.69
246.762	2.97
246.978	2.74
247.194	2.77
247.409	3.27
247.625	3.55
247.841	3.13
248.057	2.72
248.272	2.91
248.488	3.49
248.703	3.52
248.919	3.34
249.135	3.14
249.35	3.6
249.566	3.31
249.782	2.75
249.997	3.09
250.213	4.35
250.428	5.1
250.644	5.39
250.859	4.78
251.075	4.86
251.29	4.67
251.506	5.06
251.721	4.61
251.937	4.48
252.152	4.75
252.368	4.82
252.583	4.74
252.798	4.85
253.014	5.17
253.229	5.31
253.445	4.8
253.66	5.65
253.875	5.02
254.091	5.33
254.306	6.42
254.521	6.28
254.737	6.05
254.952	5.17
255.167	4.23
255.383	3.52
255.598	2.85
255.813	3.69
256.028	2.71
256.244	2.9
256.459	2.88
256.674	1.99
256.889	1.38
257.104	1.17
257.32	1.63
257.535	1.83
257.75	2.37
257.965	2.37
258.18	2.02
258.395	2.21
258.61	2.5
258.826	2.22
259.041	2.2
259.256	2.3
259.471	2.1
259.686	1.86
259.901	1.81
260.116	1.72
260.331	2.08
260.546	2
260.761	1.89
260.976	1.56
261.191	1.68
261.406	1.63
261.621	1.44
261.836	1.29
262.05	0.78
262.265	0.64
262.48	0.28
262.695	-0.12
262.91	0
263.125	-0.19
263.34	-0.21
263.555	-0.33
263.769	-0.24
263.984	-0.31
264.199	-0.62
264.414	0.12
264.629	0.56
264.843	0.88
265.058	0.55
265.273	0.92
265.488	0.98
265.702	1.31
265.917	1.66
266.132	1.76
266.346	2
266.561	2.72
266.776	2.69
266.99	2.66
267.205	2.41
267.42	2.63
267.634	2.44
267.849	2.33
268.063	2.84
268.278	2.67
268.492	2.4
268.707	2.41
268.922	2
269.136	2.83
269.351	2.57
269.565	2.64
269.78	3.02
269.994	2.89
270.209	2.9
270.423	2.4
270.637	2.42
270.852	2.62
271.066	2.57
271.281	2.79
271.495	2.28
271.709	2.4
271.924	2.46
272.138	2.13
272.353	2.18
272.567	2.29
272.781	2.25
272.996	2.28
273.21	2.68
273.424	3.08
273.638	2.93
273.853	2.82
274.067	2.82
274.281	3.01
274.495	2.78
274.71	2.85
274.924	3.17
275.138	3.45
275.352	3.17
275.566	2.67
275.781	1.96
275.995	2.24
276.209	2.46
276.423	2.11
276.637	1.75
276.851	2.28
277.065	2.31
277.279	2.14
277.493	2.08
277.707	2.25
277.921	2.19
278.135	2.7
278.349	2.69
278.563	2.77
278.777	3.33
278.991	3.44
279.205	3.44
279.419	3.37
279.633	3.52
279.847	2.88
280.061	2.77
280.275	2.67
280.489	2.5
280.703	2.12
280.917	1.93
281.131	1.81
281.344	1.46
281.558	1.05
281.772	1.11
281.986	0.81
282.2	1.05
282.414	0.93
282.627	0.97
282.841	0.87
283.055	1.2
283.269	0.91
283.482	0.6
283.696	1
283.91	1.04
284.123	0.95
284.337	1.23
284.551	1.37
284.764	1.43
284.978	1.38
285.192	1.6
285.405	1.45
285.619	1.55
285.833	1.44
286.046	1.23
286.26	1.29
286.473	1.5
286.687	1.13
286.9	1.1
287.114	0.96
287.327	0.85
287.541	0.57
287.754	0.52
287.968	0.61
288.181	1.01
288.395	1.51
288.608	1.73
288.822	1.6
289.035	1.9
289.248	1.75
289.462	1.96
289.675	2.28
289.889	2.44
290.102	2.29
290.315	2.13
290.529	2.31
290.742	2.12
290.955	1.66
291.169	1.69
291.382	1.69
291.595	1.79
291.808	2.03
292.022	1.57
292.235	1.37
292.448	1.81
292.661	2.14
292.875	1.73
293.088	1.8
293.301	2.14
293.514	2.23
293.727	2.72
293.94	2.56
294.153	2.49
294.367	2.57
294.58	2.55
294.793	2.07
295.006	2.07
295.219	1.96
295.432	1.57
295.645	1.78
295.858	1.36
296.071	0.97
296.284	1.27
296.497	1.17
296.71	1.56
296.923	1.88
297.136	2.08
297.349	1.98
297.562	2.18
297.775	2.47
297.988	2.52
298.201	2.81
298.414	2.81
298.626	2.66
298.839	2.5
299.052	2.43
299.265	2.11
299.478	2.12
299.691	2.18
299.903	2.11
300.116	1.94
300.329	1.81
300.542	1.91
300.755	1.79
300.967	1.88
301.18	2.16
301.393	2.39
301.605	2.59
301.818	2.7
302.031	2.6
302.243	2.59
302.456	2.54
302.669	2.48
302.881	2.35
303.094	2.33
303.307	2.34
303.519	2
303.732	1.5
303.944	1.21
304.157	1.13
304.37	1.26
304.582	1.13
304.795	1.21
305.007	1.7
305.22	1.68
305.432	1.92
305.645	1.66
305.857	2
306.069	2.29
306.282	2.51
306.494	2.2
306.707	2.1
306.919	2.03
307.132	2.09
307.344	1.78
307.556	2.2
307.769	2.46
307.981	2.92
308.193	2.85
308.406	2.93
308.618	3.01
308.83	3.19
309.043	3.1
309.255	3.21
309.467	3.18
309.679	2.77
309.892	2.39
310.104	2.22
310.316	1.84
310.528	1.65
310.74	1.68
310.953	1.53
311.165	1.48
311.377	1.52
311.589	1.61
311.801	1.47
312.013	1.65
312.225	1.92
312.437	1.89
312.649	2.12
312.862	2.56
313.074	2.18
313.286	2.42
313.498	2.53
313.71	2.83
313.922	2.89
314.134	2.97
314.346	2.73
314.558	2.68
314.77	2.81
314.982	2.52
315.193	2.46
315.405	2.72
315.617	2.55
315.829	2.94
316.041	2.87
316.253	2.37
316.465	2.92
316.677	3.43
316.888	3.46
317.1	3.5
317.312	3.98
317.524	3.8
317.736	4.02
317.947	4.08
318.159	4.33
318.371	4
318.583	4.64
318.794	4.55
319.006	4.6
319.218	4.6
319.43	4.52
319.641	4.79
319.853	5.49
320.064	5.32
320.276	5.34
320.488	5.13
320.699	5.62
320.911	5.94
321.123	5.67
321.334	5.29
321.546	5.2
321.757	5.24
321.969	4.85
322.18	4.7
322.392	5.32
322.603	5.41
322.815	5.5
323.026	5.85
323.238	5.64
323.449	5.6
323.661	5.76
323.872	6.26
324.083	6.48
324.295	7.01
324.506	7.13
324.718	6.73
324.929	6.93
325.14	7.07
325.352	7
325.563	7.16
325.774	7.5
325.986	7.99
326.197	7.84
326.408	8.4
326.62	8.47
326.831	8.43
327.042	8.88
327.253	8.99
327.464	9.2
327.676	9.44
327.887	9.93
328.098	10.48
328.309	10.36
328.52	11.21
328.732	11.55
328.943	12.04
329.154	12.23
329.365	12.4
329.576	12.76
329.787	13.17
329.998	13.22
330.209	13.34
330.42	13.77
330.631	14.59
330.842	14.22
331.053	14.36
331.264	14.59
331.475	14.73
331.686	15.1
331.897	15.56
332.108	15.66
332.319	16.67
332.53	17.02
332.741	17.3
332.952	17.26
333.163	17.36
333.374	17.02
333.585	17.18
333.795	17.65
334.006	17.8
334.217	18.13
334.428	18.37
334.639	18.38
334.849	18.52
335.06	18.13
335.271	18.53
335.482	18.96
335.692	19.57
335.903	19.35
336.114	19.84
336.325	19.86
336.535	19.73
336.746	20.17
336.957	19.87
337.167	19.65
337.378	19.9
337.589	19.67
337.799	19.66
338.01	19.78
338.22	20.1
338.431	19.72
338.642	19.52
338.852	19.66
339.063	19.51
339.273	19.64
339.484	20.31
339.694	20.11
339.905	20.35
340.115	20.55
340.326	20.22
340.536	20
340.746	20.17
340.957	20.74
341.167	20.5
341.378	20.24
341.588	20.15
341.799	19.92
342.009	20.06
342.219	20.13
342.43	19.95
342.64	20.19
342.85	20.33
343.061	20.31
343.271	19.97
343.481	19.99
343.691	20.16
343.902	20.32
344.112	19.91
344.322	19.6
344.532	19.45
344.743	19.65
344.953	19.76
345.163	19.85
345.373	19.83
345.583	19.96
345.793	20.09
346.004	19.87
346.214	19.73
346.424	20.1
346.634	20.58
346.844	20.3
347.054	20.01
347.264	19.97
347.474	19.92
347.684	19.98
347.894	20.08
348.104	20.11
348.314	20.28
348.524	20.19
348.734	19.95
348.944	19.95
349.154	20.42
349.364	20.72
349.574	20.49
349.784	20.4
349.994	20.66
350.204	20.85
350.413	20.69
350.623	20.75
350.833	20.58
351.043	20.69
351.253	20.57
351.463	20.58
351.672	20.26
351.882	20.61
352.092	20.46
352.302	20.08
352.511	20.04
352.721	19.91
352.931	19.62
353.141	19.71
353.35	19.55
353.56	19.44
353.77	19.2
353.979	19.34
354.189	19.08
354.399	19.16
354.608	19.22
354.818	18.94
355.027	19.04
355.237	19.1
355.447	19.24
355.656	19.1
355.866	19.14
356.075	19.2
356.285	19.09
356.494	19.07
356.704	19.03
356.913	19
357.123	18.86
357.332	18.93
357.542	18.93
357.751	18.96
357.96	19.12
358.17	19.08
358.379	18.76
358.589	18.96
358.798	18.91
359.007	18.92
359.217	19.08
359.426	19.21
359.635	19.38
359.845	19.4
360.054	19.26
360.263	19.21
360.472	18.95
360.682	19.17
360.891	19.09
361.1	19.11
361.309	19.11
361.519	18.92
361.728	18.81
361.937	18.58
362.146	18.52
362.355	18.66
362.564	18.59
362.774	18.76
362.983	18.73
363.192	18.58
363.401	18.45
363.61	18.43
363.819	18.46
364.028	18.29
364.237	18.28
364.446	18
364.655	17.91
364.864	18.12
365.073	18.14
365.282	18.21
365.491	18.09
365.7	18.21
365.909	18.21
366.118	18.2
366.327	18.37
366.536	18.31
366.745	18.64
366.954	18.29
367.162	18.15
367.371	18.12
367.58	18.26
367.789	18.16
367.998	17.95
368.207	17.8
368.415	17.55
368.624	17.46
368.833	17.62
369.042	17.87
369.25	18.12
369.459	18.2
369.668	18.16
369.877	18.1
370.085	18.54
370.294	18.9
370.503	19.2
370.711	19.43
370.92	19.61
371.129	19.49
371.337	18.74
371.546	18.74
371.754	18.65
371.963	18.72
372.171	18.63
372.38	18.47
372.589	18.2
372.797	17.86
373.006	17.58
373.214	17.21
373.423	17.03
373.631	17.34
373.84	17.36
374.048	17.32
374.256	17.19
374.465	17.18
374.673	17.09
374.882	17.11
375.09	17.35
375.298	17.94
375.507	18.1
375.715	18.17
375.923	18.19
376.132	18.05
376.34	17.98
376.548	18.1
376.757	18.02
376.965	17.96
377.173	17.7
377.381	17.52
377.59	17.14
377.798	17.25
378.006	17.37
378.214	17.5
378.423	17.39
378.631	17.28
378.839	17.1
379.047	16.8
379.255	16.7
379.463	16.77
379.671	16.8
379.879	17.06
380.088	16.92
380.296	16.94
380.504	16.79
380.712	16.93
380.92	16.96
381.128	16.94
381.336	17
381.544	17.16
381.752	17.4
381.96	17.46
382.168	17.42
382.376	17.62
382.584	17.66
382.791	17.58
382.999	17.7
383.207	17.76
383.415	17.86
383.623	17.84
383.831	17.81
384.039	17.54
384.247	17.39
384.454	17.26
384.662	17.15
384.87	16.9
385.078	16.94
385.285	16.83
385.493	16.75
385.701	16.59
385.909	16.58
386.116	16.58
386.324	16.73
386.532	16.93
386.739	16.75
386.947	16.61
387.155	16.81
387.362	16.93
387.57	16.99
387.778	17.17
387.985	17.5
388.193	17.61
388.4	17.57
388.608	17.62
388.816	17.37
389.023	17.47
389.231	17.68
389.438	17.47
389.646	17.26
389.853	17.11
390.061	17
390.268	16.74
390.475	16.69
390.683	16.7
390.89	16.63
391.098	16.69
391.305	16.57
391.512	16.35
391.72	16.35
391.927	16.44
392.135	16.48
392.342	16.51
392.549	16.48
392.756	16.42
392.964	16.43
393.171	16.28
393.378	16.24
393.586	16.39
393.793	16.47
394	16.56
394.207	16.56
394.414	16.55
394.622	16.52
394.829	16.51
395.036	16.6
395.243	16.44
395.45	16.58
395.657	16.67
395.864	16.3
396.072	16.23
396.279	16.36
396.486	16.24
396.693	16.4
396.9	16.37
397.107	16.45
397.314	16.38
397.521	16.37
397.728	16.27
397.935	16.28
398.142	16.59
398.349	16.56
398.556	16.35
398.763	16.3
398.97	16.11
399.177	16.12
399.383	16.18
399.59	16.25
399.797	16.45
400.004	16.57
400.211	16.43
400.418	16.2
400.625	16.37
400.831	16.23
401.038	16.35
401.245	16.61
401.452	16.72
401.658	16.48
401.865	16.32
402.072	16.39
402.279	16.24
402.485	16.2
402.692	16.44
402.899	16.54
403.105	16.73
403.312	16.59
403.519	16.24
403.725	16.28
403.932	16.34
404.138	16.47
404.345	16.32
404.552	16.37
404.758	16.4
404.965	16.12
405.171	16.02
405.378	15.87
405.584	15.91
405.791	16.04
405.997	15.88
406.204	15.89
406.41	15.87
406.617	16.01
406.823	16.15
407.029	16.26
407.236	16.47
407.442	16.53
407.649	16.65
407.855	16.69
408.061	16.74
408.268	16.62
408.474	16.7
408.68	16.64
408.887	16.71
409.093	16.64
409.299	16.47
409.505	16.44
409.712	16.34
409.918	16.35
410.124	16.36
410.33	16.44
410.537	16.52
410.743	16.54
410.949	16.52
411.155	16.33
411.361	16.26
411.567	16.3
411.773	16.43
411.98	16.47
412.186	16.34
412.392	16.35
412.598	16.29
412.804	16.2
413.01	15.97
413.216	15.99
413.422	15.89
413.628	15.99
413.834	16.07
414.04	15.95
414.246	15.9
414.452	15.97
414.658	16.08
414.864	15.99
415.07	16.08
415.275	16.11
415.481	16.18
415.687	16.33
415.893	16.25
416.099	16.13
416.305	16.08
416.511	16.09
416.716	16.05
416.922	16
417.128	15.9
417.334	15.83
417.539	15.83
417.745	15.89
417.951	15.7
418.157	15.71
418.362	15.73
418.568	15.72
418.774	15.7
418.979	15.77
419.185	15.75
419.391	15.7
419.596	15.86
419.802	15.94
420.008	15.82
420.213	15.32
420.419	15.26
420.624	15.21
420.83	15.26
421.035	15.3
421.241	15.17
421.446	15.19
421.652	15.34
421.857	15.31
422.063	15.25
422.268	15.31
422.474	15.83
422.679	15.87
422.885	15.9
423.09	15.82
423.295	15.74
423.501	15.8
423.706	15.77
423.911	15.7
424.117	15.68
424.322	15.71
424.527	15.66
424.733	15.7
424.938	15.69
425.143	15.75
425.349	15.83
425.554	15.89
425.759	15.91
425.964	15.88
426.169	15.9
426.375	15.79
426.58	15.78
426.785	15.84
426.99	15.81
427.195	15.89
427.4	15.85
427.605	15.88
427.811	15.85
428.016	15.85
428.221	15.88
428.426	15.83
428.631	15.83
428.836	15.8
429.041	15.64
429.246	15.58
429.451	15.61
429.656	15.65
429.861	15.69
430.066	15.72
430.271	15.79
430.476	15.85
430.681	15.89
430.886	15.92
431.09	15.93
431.295	16.25
431.5	16.33
431.705	16.26
431.91	16.15
432.115	16.06
432.32	16.11
432.524	16.18
432.729	16.25
432.934	16.32
433.139	16.35
433.343	16.41
433.548	16.3
433.753	16.43
433.958	16.51
434.162	16.61
434.367	16.59
434.572	16.59
434.776	16.54
434.981	16.57
435.186	16.61
435.39	16.7
435.595	16.66
435.799	16.58
436.004	16.46
436.209	16.43
436.413	16.51
436.618	16.52
436.822	16.46
437.027	16.42
437.231	16.27
437.436	16.22
437.64	16.11
437.845	16.13
438.049	16.19
438.253	16.13
438.458	16.05
438.662	15.94
438.867	16.02
439.071	16.03
439.275	16.13
439.48	16.19
439.684	16.24
439.888	16.36
440.093	16.31
440.297	16.26
440.501	16.26
440.706	16.34
440.91	16.38
441.114	16.33
441.318	16.35
441.523	16.33
441.727	16.28
441.931	16.21
442.135	16.23
442.339	16.33
442.543	16.32
442.748	16.33
442.952	16.3
443.156	16.38
443.36	16.47
443.564	16.38
443.768	16.38
443.972	16.36
444.176	16.33
444.38	16.25
444.584	16.18
444.788	16.29
444.992	16.29
445.196	16.24
445.4	16.23
445.604	16.19
445.808	16.26
446.012	16.19
446.216	16.28
446.42	16.35
446.624	16.28
446.828	16.37
447.032	16.32
447.235	16.31
447.439	16.35
447.643	16.31
447.847	16.32
448.051	16.35
448.254	16.41
448.458	16.28
448.662	16.25
448.866	16.3
449.069	16.27
449.273	16.28
449.477	16.31
449.681	16.32
449.884	16.26
450.088	16.24
450.292	16.31
450.495	16.3
450.699	16.42
450.902	16.43
451.106	16.39
451.31	16.48
451.513	16.53
451.717	16.55
451.92	16.45
452.124	16.41
452.327	16.35
452.531	16.35
452.734	16.34
452.938	16.33
453.141	16.34
453.345	16.47
453.548	16.39
453.752	16.28
453.955	16.21
454.158	16.32
454.362	16.4
454.565	16.5
454.769	16.43
454.972	16.38
455.175	16.4
455.379	16.42
455.582	16.39
455.785	16.37
455.988	16.35
456.192	16.42
456.395	16.29
456.598	16.32
456.801	16.22
457.005	16.33
457.208	16.24
457.411	16.3
457.614	16.2
457.817	16.07
458.021	16.05
458.224	16.18
458.427	16.11
458.63	16.12
458.833	16.09
459.036	16.06
459.239	16.02
459.442	16.06
459.645	16
459.848	15.92
460.051	15.93
460.254	15.94
460.457	15.87
460.66	15.87
460.863	15.9
461.066	15.91
461.269	16
461.472	15.94
461.675	16.05
461.878	15.99
462.081	16.13
462.284	16.34
462.486	16.31
462.689	16.43
462.892	16.48
463.095	16.57
463.298	16.66
463.5	16.61
463.703	16.59
463.906	16.64
464.109	16.71
464.311	16.73
464.514	16.6
464.717	16.6
464.92	16.61
465.122	16.59
465.325	16.61
465.528	16.58
465.73	16.52
465.933	16.53
466.135	16.39
466.338	16.38
466.541	16.34
466.743	16.31
466.946	16.37
467.148	16.34
467.351	16.38
467.553	16.38
467.756	16.32
467.958	16.36
468.161	16.34
468.363	16.4
468.566	16.34
468.768	16.33
468.971	16.31
469.173	16.3
469.375	16.3
469.578	16.26
469.78	16.2
469.983	16.2
470.185	16.16
470.387	16.25
470.59	16.24
470.792	16.25
470.994	16.27
471.196	16.26
471.399	16.21
471.601	16.2
471.803	16.22
472.005	16.2
472.208	16.22
472.41	16.23
472.612	16.21
472.814	16.12
473.016	16.18
473.218	16.22
473.421	16.24
473.623	16.37
473.825	16.28
474.027	16.31
474.229	16.38
474.431	16.29
474.633	16.33
474.835	16.29
475.037	16.45
475.239	16.5
475.441	16.45
475.643	16.52
475.845	16.36
476.047	16.36
476.249	16.26
476.451	16.27
476.653	16.36
476.855	16.34
477.057	16.38
477.258	16.38
477.46	16.38
477.662	16.45
477.864	16.4
478.066	16.5
478.268	16.59
478.469	16.68
478.671	16.64
478.873	16.66
479.075	16.59
479.276	16.55
479.478	16.44
479.68	16.37
479.882	16.36
480.083	16.37
480.285	16.32
480.487	16.32
480.688	16.26
480.89	16.25
481.091	16.2
481.293	16.26
481.495	16.26
481.696	16.29
481.898	16.34
482.099	16.24
482.301	16.19
482.502	16.18
482.704	16.15
482.905	16.14
483.107	16.11
483.308	16.08
483.51	16.04
483.711	16.02
483.913	15.94
484.114	15.87
484.315	15.88
484.517	15.87
484.718	15.84
484.92	15.82
485.121	15.77
485.322	15.82
485.524	15.8
485.725	15.79
485.926	15.79
486.127	15.84
486.329	15.91
486.53	15.95
486.731	15.99
486.932	15.98
487.134	15.99
487.335	16.07
487.536	16.03
487.737	16.02
487.938	16.06
488.139	16.09
488.341	16.1
488.542	16.1
488.743	16.12
488.944	16.11
489.145	16.15
489.346	16.17
489.547	16.16
489.748	16.18
489.949	16.23
490.15	16.23
490.351	16.24
490.552	16.27
490.753	16.27
490.954	16.17
491.155	16.15
491.356	16.1
491.557	16.1
491.758	16.09
491.959	16.11
492.159	16.13
492.36	16.12
492.561	16.14
492.762	16.12
492.963	16.12
493.164	16.23
493.364	16.25
493.565	16.33
493.766	16.34
493.967	16.41
494.167	16.4
494.368	16.44
494.569	16.54
494.769	16.56
494.97	16.61
495.171	16.68
495.371	16.65
495.572	16.76
495.773	16.78
495.973	16.82
496.174	16.79
496.375	16.79
496.575	16.87
496.776	16.86
496.976	16.86
497.177	16.82
497.377	16.83
497.578	16.88
497.778	16.88
497.979	16.85
498.179	16.89
498.38	16.92
498.58	16.92
498.78	16.79
498.981	16.76
499.181	16.74
499.382	16.8
499.582	16.78
499.782	16.82
499.983	16.77
500.183	16.83
500.383	16.76
500.584	16.71
500.784	16.72
500.984	16.79
501.184	16.86
501.385	16.92
501.585	16.98
501.785	17.01
501.985	17
502.185	17.07
502.386	17.17
502.586	17.2
502.786	17.26
502.986	17.34
503.186	17.41
503.386	17.39
503.586	17.36
503.786	17.37
503.987	17.37
504.187	17.34
504.387	17.28
504.587	17.18
504.787	17.28
504.987	17.35
505.187	17.39
505.387	17.37
505.587	17.39
505.786	17.5
505.986	17.43
506.186	17.47
506.386	17.59
506.586	17.66
506.786	17.74
506.986	17.83
507.186	17.79
507.386	17.78
507.585	17.76
507.785	17.74
507.985	17.74
508.185	17.79
508.384	17.76
508.584	17.65
508.784	17.6
508.984	17.61
509.183	17.53
509.383	17.65
509.583	17.71
509.782	17.77
509.982	17.83
510.182	17.9
510.381	17.99
510.581	18.01
510.781	18.01
510.98	18.13
511.18	18.19
511.379	18.25
511.579	18.25
511.778	18.22
511.978	18.26
512.177	18.25
512.377	18.23
512.576	18.23
512.776	18.41
512.975	18.57
513.175	18.61
513.374	18.56
513.573	18.56
513.773	18.58
513.972	18.65
514.172	18.67
514.371	18.89
514.57	18.87
514.77	18.86
514.969	18.73
515.168	18.75
515.367	18.71
515.567	18.81
515.766	18.79
515.965	18.74
516.164	18.8
516.364	18.84
516.563	18.75
516.762	18.85
516.961	18.84
517.16	18.85
517.359	18.92
517.559	19
517.758	18.93
517.957	18.96
518.156	19.04
518.355	19.04
518.554	19.11
518.753	19.17
518.952	19.18
519.151	19.21
519.35	19.26
519.549	19.28
519.748	19.29
519.947	19.34
520.146	19.45
520.345	19.45
520.544	19.46
520.743	19.48
520.942	19.53
521.141	19.58
521.339	19.59
521.538	19.71
521.737	19.75
521.936	19.83
522.135	19.96
522.333	19.99
522.532	20
522.731	20.11
522.93	20.14
523.129	20.07
523.327	20.12
523.526	20.15
523.725	20.08
523.923	20.16
524.122	20.15
524.321	20.19
524.519	20.18
524.718	20.24
524.917	20.22
525.115	20.22
525.314	20.27
525.512	20.2
525.711	20.25
525.909	20.29
526.108	20.28
526.306	20.24
526.505	20.26
526.703	20.32
526.902	20.34
527.1	20.28
527.299	20.28
527.497	20.27
527.696	20.28
527.894	20.24
528.092	20.25
528.291	20.21
528.489	20.25
528.688	20.23
528.886	20.17
529.084	20.13
529.283	20.15
529.481	20.13
529.679	20.14
529.877	20.16
530.076	20.17
530.274	20.2
530.472	20.21
530.67	20.25
530.869	20.34
531.067	20.45
531.265	20.53
531.463	20.58
531.661	20.68
531.859	20.75
532.057	20.74
532.255	20.84
532.454	20.86
532.652	20.91
532.85	20.85
533.048	20.8
533.246	20.8
533.444	20.79
533.642	20.82
533.84	20.8
534.038	20.79
534.236	20.87
534.434	20.89
534.632	20.94
534.83	20.99
535.027	21.08
535.225	21.09
535.423	21.17
535.621	21.22
535.819	21.28
536.017	21.37
536.215	21.39
536.412	21.45
536.61	21.45
536.808	21.48
537.006	21.5
537.203	21.48
537.401	21.54
537.599	21.57
537.797	21.64
537.994	21.63
538.192	21.75
538.39	21.83
538.587	21.88
538.785	22
538.983	22.08
539.18	22.17
539.378	22.27
539.575	22.41
539.773	22.4
539.97	22.4
540.168	22.49
540.366	22.46
540.563	22.5
540.761	22.53
540.958	22.53
541.155	22.52
541.353	22.49
541.55	22.51
541.748	22.48
541.945	22.56
542.143	22.64
542.34	22.66
542.537	22.7
542.735	22.74
542.932	22.76
543.129	22.78
543.327	22.87
543.524	22.95
543.721	23.09
543.919	23.3
544.116	23.46
544.313	23.61
544.51	23.82
544.708	24.03
544.905	24.26
545.102	24.45
545.299	24.65
545.496	24.8
545.693	24.97
545.891	24.98
546.088	24.99
546.285	24.89
546.482	24.79
546.679	24.69
546.876	24.53
547.073	24.4
547.27	24.31
547.467	24.18
547.664	24.08
547.861	23.96
548.058	23.97
548.255	23.86
548.452	23.87
548.649	23.9
548.846	23.92
549.043	23.86
549.24	23.84
549.437	23.82
549.633	23.88
549.83	23.84
550.027	23.8
550.224	23.79
550.421	23.72
550.618	23.68
550.814	23.68
551.011	23.72
551.208	23.83
551.405	23.78
551.601	23.84
551.798	23.85
551.995	23.91
552.191	23.92
552.388	23.83
552.585	23.88
552.781	23.92
552.978	23.83
553.175	23.77
553.371	23.7
553.568	23.74
553.764	23.74
553.961	23.78
554.157	23.69
554.354	23.77
554.55	23.98
554.747	24.09
554.943	24.11
555.14	24.08
555.336	24.08
555.533	24.21
555.729	24.3
555.926	24.29
556.122	24.28
556.318	24.39
556.515	24.37
556.711	24.23
556.907	24.15
557.104	24.2
557.3	24.36
557.496	24.29
557.693	24.18
557.889	24.03
558.085	23.97
558.281	23.94
558.478	23.89
558.674	23.89
558.87	23.88
559.066	23.88
559.262	23.85
559.459	23.78
559.655	23.8
559.851	23.8
560.047	23.94
560.243	24.01
560.439	24.05
560.635	24.08
560.831	24.13
561.027	24.3
561.223	24.36
561.419	24.36
561.615	24.4
561.811	24.35
562.007	24.29
562.203	24.4
562.399	24.48
562.595	24.44
562.791	24.54
562.987	24.49
563.183	24.41
563.379	24.45
563.575	24.35
563.771	24.38
563.966	24.57
564.162	24.74
564.358	24.53
564.554	24.35
564.75	24.36
564.945	24.17
565.141	24.18
565.337	24.08
565.533	24.04
565.728	24.09
565.924	24.18
566.12	24.19
566.315	24.25
566.511	24.4
566.707	24.4
566.902	24.48
567.098	24.48
567.293	24.41
567.489	24.54
567.684	24.55
567.88	24.55
568.076	24.41
568.271	24.49
568.467	24.35
568.662	24.27
568.858	24.2
569.053	24.14
569.248	24.26
569.444	24.47
569.639	24.41
569.835	24.37
570.03	24.45
570.225	24.47
570.421	24.4
570.616	24.33
570.812	24.33
571.007	24.57
571.202	24.53
571.397	24.42
571.593	24.26
571.788	24.3
571.983	24.31
572.178	24.33
572.374	24.41
572.569	24.3
572.764	24.41
572.959	24.47
573.154	24.36
573.35	24.47
573.545	24.6
573.74	24.68
573.935	24.63
574.13	24.62
574.325	24.56
574.52	24.6
574.715	24.74
574.91	24.74
575.105	24.75
575.3	24.89
575.495	24.85
575.69	24.91
575.885	25.04
576.08	25.18
576.275	25.41
576.47	25.55
576.665	25.63
576.86	25.61
577.055	25.71
577.25	25.79
577.444	25.92
577.639	26.01
577.834	26.07
578.029	26.01
578.224	26.09
578.418	26.07
578.613	26.1
578.808	25.97
579.003	26.13
579.197	26.1
579.392	26.19
579.587	26.17
579.781	26.14
579.976	26.08
580.171	26.15
580.365	26.09
580.56	26.06
580.755	26.03
580.949	26.24
581.144	26.22
581.338	26.36
581.533	26.29
581.727	26.21
581.922	26.38
582.116	26.36
582.311	26.37
582.505	26.41
582.7	26.39
582.894	26.45
583.089	26.4
583.283	26.42
583.478	26.32
583.672	26.25
583.866	26.28
584.061	26.26
584.255	26.5
584.449	26.62
584.644	26.56
584.838	26.74
585.032	26.83
585.226	26.9
585.421	26.91
585.615	27
585.809	27.29
586.003	27.44
586.198	27.57
586.392	27.55
586.586	27.46
586.78	27.69
586.974	27.61
587.168	27.54
587.363	27.44
587.557	27.39
587.751	27.34
587.945	27.23
588.139	27.08
588.333	26.95
588.527	26.87
588.721	26.84
588.915	26.69
589.109	26.67
589.303	26.72
589.497	26.78
589.691	26.82
589.885	26.83
590.079	26.82
590.273	26.84
590.466	26.8
590.66	26.86
590.854	26.93
591.048	27
591.242	27.02
591.436	27.07
591.629	27.16
591.823	27.13
592.017	27.19
592.211	27.38
592.404	27.42
592.598	27.34
592.792	27.25
592.986	27.36
593.179	27.36
593.373	27.43
593.567	27.25
593.76	27.13
593.954	27.1
594.147	27.17
594.341	26.93
594.535	27.04
594.728	27.03
594.922	27.15
595.115	26.93
595.309	26.89
595.502	26.68
595.696	26.66
595.889	26.61
596.083	26.57
596.276	26.4
596.47	26.51
596.663	26.33
596.856	26.38
597.05	26.35
597.243	26.5
597.437	26.52
597.63	26.71
597.823	26.92
598.017	26.96
598.21	27.02
598.403	27.15
598.596	27.07
598.79	27.19
598.983	27.38
599.176	27.38
599.369	27.33
599.563	27.38
599.756	27.35
599.949	27.27
600.142	27.22
600.335	27.37
600.528	27.49
600.722	27.53
600.915	27.51
601.108	27.4
601.301	27.42
601.494	27.34
601.687	27.18
601.88	27.06
602.073	27.15
602.266	27.24
602.459	27.14
602.652	26.87
602.845	26.79
603.038	26.77
603.231	26.7
603.424	26.55
603.617	26.53
603.809	26.56
604.002	26.52
604.195	26.39
604.388	26.39
604.581	26.25
604.774	26.41
604.966	26.37
605.159	26.47
605.352	26.45
605.545	26.6
605.737	26.68
605.93	26.72
606.123	26.84
606.316	26.89
606.508	26.92
606.701	27.23
606.894	27.4
607.086	27.74
607.279	27.7
607.471	27.98
607.664	28.13
607.857	28.38
608.049	28.74
608.242	29.15
608.434	29.61
608.627	30.19
608.819	30.71
609.012	31.37
609.204	32.26
609.397	33.25
609.589	34.11
609.782	35.24
609.974	36.37
610.166	37.47
610.359	38.6
610.551	39.52
610.743	40.43
610.936	41.26
611.128	41.99
611.32	42.29
611.513	42.59
611.705	42.75
611.897	42.59
612.09	42.19
612.282	41.79
612.474	41.23
612.666	40.75
612.858	40.04
613.051	39.5
613.243	38.72
613.435	38.13
613.627	37.56
613.819	37.06
614.011	36.57
614.203	36.27
614.395	35.74
614.588	35.3
614.78	34.95
614.972	34.78
615.164	34.24
615.356	33.93
615.548	33.5
615.74	32.93
615.932	33.06
616.124	32.68
616.315	32.2
616.507	31.9
616.699	31.39
616.891	31.04
617.083	30.57
617.275	30.5
617.467	30.35
617.659	30.26
617.85	30.24
618.042	29.66
618.234	29.75
618.426	29.86
618.618	29.75
618.809	29.83
619.001	29.84
619.193	29.96
619.384	29.83
619.576	29.66
619.768	29.72
619.959	29.51
620.151	29.51
620.343	29.39
620.534	29.25
620.726	29.22
620.917	29.19
621.109	29.42
621.301	29.48
621.492	29.55
621.684	29.6
621.875	29.51
622.067	29.74
622.258	29.98
622.45	29.9
622.641	29.99
622.832	30.33
623.024	30.42
623.215	30.29
623.407	30.18
623.598	30.32
623.789	30.33
623.981	30.49
624.172	30.52
624.363	30.35
624.555	30.36
624.746	30.38
624.937	30.14
625.129	30.08
625.32	30.05
625.511	29.94
625.702	29.82
625.893	29.76
626.085	29.51
626.276	29.41
626.467	29.41
626.658	29.37
626.849	29.24
627.04	29.29
627.231	29.34
627.422	29.36
627.614	29.42
627.805	29.46
627.996	29.46
628.187	29.68
628.378	29.87
628.569	29.98
628.76	30.18
628.951	30.41
629.142	30.58
629.332	30.66
629.523	30.67
629.714	30.85
629.905	30.88
630.096	31.08
630.287	30.95
630.478	30.87
630.669	30.78
630.859	30.71
631.05	30.56
631.241	30.51
631.432	30.47
631.623	30.35
631.813	30.35
632.004	30.19
632.195	30.1
632.385	30.3
632.576	30.2
632.767	30.18
632.957	29.91
633.148	29.74
633.339	29.53
633.529	29.61
633.72	29.55
633.91	29.28
634.101	29.3
634.292	29.02
634.482	28.75
634.673	28.49
634.863	28.43
635.054	28.63
635.244	28.71
635.435	28.76
635.625	28.51
635.815	28.38
636.006	28.44
636.196	28.45
636.387	28.47
636.577	28.26
636.767	28.53
636.958	28.27
637.148	28.1
637.338	28.17
637.529	28.22
637.719	28.33
637.909	28.42
638.099	28.36
638.29	28.33
638.48	28.47
638.67	28.84
638.86	28.83
639.05	29.08
639.241	29.11
639.431	29.08
639.621	28.93
639.811	28.83
640.001	28.91
640.191	28.98
640.381	29.03
640.571	28.97
640.761	28.67
640.951	28.48
641.141	28.68
641.331	28.87
641.521	28.75
641.711	29.02
641.901	29.18
642.091	29.22
642.281	29.22
642.471	29.25
642.661	29.49
642.851	29.55
643.041	29.79
643.231	29.85
643.42	29.87
643.61	29.75
643.8	29.64
643.99	29.54
644.18	29.6
644.369	29.79
644.559	29.72
644.749	29.66
644.939	29.9
645.128	29.89
645.318	29.71
645.508	29.52
645.697	29.76
645.887	29.55
646.076	29.67
646.266	29.63
646.456	29.4
646.645	29.56
646.835	29.54
647.024	29.69
647.214	29.78
647.403	29.88
647.593	29.81
647.782	29.67
647.972	30.15
648.161	30.09
648.351	29.96
648.54	30.31
648.73	30.28
648.919	30.27
649.108	29.9
649.298	29.98
649.487	30.03
649.677	30.18
649.866	30.27
650.055	29.87
650.244	29.78
650.434	30.09
650.623	29.83
650.812	29.79
651.002	29.32
651.191	29.59
651.38	29.52
651.569	29.34
651.758	29.29
651.947	29.37
652.137	29.39
652.326	29.38
652.515	29.19
652.704	29.2
652.893	29.28
653.082	29.62
653.271	29.55
653.46	29.29
653.649	29.11
653.838	29.17
654.027	29.13
654.216	29.08
654.405	29.1
654.594	28.89
654.783	28.84
654.972	28.61
655.161	28.89
655.35	28.71
655.539	28.83
655.728	29.06
655.916	29
656.105	28.71
656.294	28.78
656.483	28.89
656.672	28.75
656.86	28.69
657.049	28.53
657.238	28.23
657.427	28.21
657.615	28.01
657.804	28.03
657.993	27.7
658.181	27.61
658.37	27.57
658.559	27.44
658.747	27.59
658.936	27.54
659.125	27.7
659.313	27.85
659.502	27.94
659.69	28.07
659.879	27.97
660.067	28.26
660.256	28.63
660.444	28.69
660.633	28.63
660.821	28.82
661.01	28.93
661.198	28.94
661.387	29.22
661.575	29.37
661.763	29.41
661.952	29.57
662.14	29.72
662.328	29.66
662.517	29.79
662.705	29.98
662.893	29.93
663.082	30.14
663.27	30.05
663.458	29.75
663.646	29.63
663.834	29.72
664.023	29.71
664.211	29.65
664.399	29.63
664.587	29.62
664.775	29.61
664.963	29.51
665.152	29.31
665.34	29.46
665.528	29.42
665.716	29.66
665.904	29.79
666.092	29.58
666.28	29.76
666.468	29.86
666.656	29.87
666.844	29.97
667.032	30.2
667.22	30.58
667.408	30.85
667.596	30.93
667.784	30.51
667.971	30.24
668.159	30.37
668.347	30.17
668.535	30.19
668.723	29.85
668.911	29.91
669.098	29.7
669.286	29.48
669.474	29.35
669.662	29.28
669.849	29.66
670.037	29.96
670.225	30.14
670.413	30.33
670.6	30.49
670.788	30.91
670.976	30.67
671.163	31.05
671.351	30.93
671.538	30.92
671.726	30.97
671.913	30.83
672.101	30.8
672.289	30.83
672.476	30.66
672.664	30.49
672.851	30.15
673.039	30.29
673.226	30.17
673.413	30.16
673.601	30.12
673.788	30.04
673.976	30.08
674.163	30.06
674.35	30.18
674.538	30.2
674.725	30.22
674.912	30.62
675.1	30.61
675.287	30.45
675.474	30.52
675.662	30.59
675.849	30.6
676.036	30.7
676.223	30.63
676.411	30.31
676.598	30.47
676.785	30.22
676.972	30.02
677.159	30.07
677.346	30.02
677.533	30.1
677.721	29.88
677.908	29.97
678.095	29.81
678.282	29.91
678.469	29.54
678.656	29.48
678.843	29.76
679.03	29.75
679.217	29.7
679.404	29.67
679.591	29.59
679.778	29.73
679.964	29.46
680.151	29.56
680.338	29.42
680.525	29.59
680.712	29.4
680.899	29.39
681.086	29.48
681.272	29.43
681.459	29.68
681.646	29.57
681.833	29.52
682.02	29.74
682.206	29.52
682.393	29.78
682.58	29.82
682.766	29.7
682.953	29.69
683.14	29.71
683.326	29.54
683.513	29.65
683.7	30.04
683.886	30.09
684.073	30.27
684.259	30.59
684.446	30.57
684.632	30.7
684.819	31.04
685.005	30.91
685.192	30.69
685.378	30.92
685.565	30.94
685.751	30.87
685.938	30.9
686.124	30.88
686.31	30.42
686.497	30.57
686.683	30.83
686.87	30.68
687.056	30.83
687.242	30.73
687.429	30.92
687.615	30.53
687.801	30.56
687.987	30.73
688.174	30.86
688.36	31.14
688.546	31.01
688.732	30.99
688.918	31.21
689.105	31.07
689.291	31.26
689.477	31.21
689.663	31.34
689.849	31.22
690.035	31.14
690.221	31.15
690.407	31.2
690.593	31.3
690.779	31.13
690.965	30.8
691.151	30.86
691.337	30.83
691.523	30.69
691.709	30.84
691.895	30.93
692.081	30.62
692.267	30.07
692.453	30.22
692.639	29.74
692.825	29.73
693.011	29.96
693.196	30.23
693.382	30.33
693.568	30.46
693.754	30.4
693.94	30.54
694.125	30.78
694.311	31.27
694.497	30.9
694.682	31.09
694.868	31.19
695.054	31.21
695.239	30.86
695.425	30.78
695.611	30.88
695.796	30.58
695.982	30.45
696.168	30.24
696.353	30.19
696.539	30.18
696.724	30.06
696.91	29.72
697.095	29.56
697.281	29.62
697.466	29.6
697.652	29.36
697.837	29.65
698.023	29.36
698.208	29.11
698.393	28.79
698.579	28.67
698.764	28.57
698.949	28.49
699.135	28.55
699.32	28.66
699.505	28.65
699.691	28.73
699.876	28.35
700.061	28.35
700.246	28.4
700.432	28.72
700.617	28.82
700.802	29
700.987	29.49
701.172	29.05
701.358	28.97
701.543	29.13
701.728	29.29
701.913	29.57
702.098	29.84
702.283	30.19
702.468	30.17
702.653	30.52
702.838	30.67
703.023	30.9
703.208	31.54
703.393	31.6
703.578	31.79
703.763	32.2
703.948	32.86
704.133	33.06
704.318	33.46
704.503	33.82
704.688	34.36
704.873	34.66
705.057	34.59
705.242	35.23
705.427	35.9
705.612	35.67
705.797	35.78
705.981	35.59
706.166	35.69
706.351	35.76
706.536	35.9
706.72	35.65
706.905	35.66
707.09	35.44
707.274	35.3
707.459	34.85
707.644	35.1
707.828	35.12
708.013	35.17
708.197	35.24
708.382	35.3
708.567	35.34
708.751	35.18
708.936	35.06
709.12	35.63
709.305	35.38
709.489	35.34
709.673	35.19
709.858	35.06
710.042	34.72
710.227	34.76
710.411	34.7
710.596	34.27
710.78	34.38
710.964	34.47
711.149	34.09
711.333	34.28
711.517	34.02
711.702	34.53
711.886	34.5
712.07	34.59
712.254	34.23
712.438	34.15
712.623	34.16
712.807	33.8
712.991	33.66
713.175	33.61
713.359	33.41
713.544	33.6
713.728	32.91
713.912	32.64
714.096	32.51
714.28	32.53
714.464	32.19
714.648	31.97
714.832	31.94
715.016	31.32
715.2	30.87
715.384	30.69
715.568	30.38
715.752	30.4
715.936	30.37
716.12	30.13
716.304	30.04
716.488	30.19
716.671	30.37
716.855	30.46
717.039	30.96
717.223	31.17
717.407	31.22
717.59	31.48
717.774	31.35
717.958	30.93
718.142	31.04
718.325	31.05
718.509	31.1
718.693	30.81
718.877	30.72
719.06	30.66
719.244	30.59
719.428	30.42
719.611	30.01
719.795	30.3
719.978	30.12
720.162	30.12
720.345	30.18
720.529	30.06
720.713	30.54
720.896	30.33
721.08	30.03
721.263	30.47
721.446	30.77
721.63	31.03
721.813	30.96
721.997	31.62
722.18	31.87
722.364	32.01
722.547	31.96
722.73	31.51
722.914	32.01
723.097	32.48
723.28	32.21
723.464	31.76
723.647	32.02
723.83	31.52
724.013	31.43
724.197	31.08
724.38	31.13
724.563	31.37
724.746	31.75
724.929	31.43
725.112	31.58
725.296	31.39
725.479	31.17
725.662	30.73
725.845	31.19
726.028	31.26
726.211	31.52
726.394	30.93
726.577	31.03
726.76	30.49
726.943	30.92
727.126	30.19
727.309	30.56
727.492	31.02
727.675	31.01
727.858	30.63
728.041	29.99
728.224	29.78
728.407	30.01
728.589	30.09
728.772	30.44
728.955	30.2
729.138	30.39
729.321	29.98
729.503	30.19
729.686	30.75
729.869	31.32
730.052	31.92
730.234	32.29
730.417	32.27
730.6	31.83
730.782	31.67
730.965	31.33
731.148	31.17
731.33	31.49
731.513	31
731.695	30.64
731.878	30.71
732.061	30.59
732.243	30.54
732.426	30.67
732.608	30.91
732.791	31.32
732.973	31.63
733.156	32.06
733.338	31.81
733.52	32.16
733.703	32.09
733.885	31.99
734.068	31.94
734.25	31.69
734.432	31.84
734.615	31.66
734.797	31.44
734.979	31.57
735.162	31.25
735.344	31.76
735.526	31.57
735.708	31.66
735.891	31.29
736.073	31.56
736.255	31.48
736.437	31.74
736.619	31.91
736.802	31.99
736.984	32.02
737.166	32.67
737.348	32.68
737.53	32.63
737.712	32.62
737.894	32.75
738.076	32.63
738.258	32.81
738.44	32.48
738.622	32.45
738.804	32.31
738.986	31.96
739.168	31.53
739.35	30.77
739.532	30.97
739.714	31.07
739.896	31.67
740.078	31.98
740.259	31.89
740.441	32.52
740.623	32.85
740.805	32.78
740.987	33.15
741.168	33.48
741.35	33.68
741.532	34.05
741.714	34.69
741.895	34.59
742.077	34.89
742.259	34.98
742.44	34.48
742.622	34.67
742.804	34.87
742.985	34.69
743.167	34.07
743.348	34.63
743.53	34.46
743.711	34.15
743.893	33.75
744.075	33.13
744.256	33.32
744.438	32.79
744.619	32.32
744.8	32.57
744.982	32.88
745.163	34.21
745.345	34.05
745.526	34.11
745.707	33.36
745.889	34.13
746.07	34.73
746.252	35.01
746.433	35.59
746.614	35.58
746.795	35.86
746.977	35.75
747.158	34.49
747.339	35.01
747.52	35.25
747.702	35.56
747.883	35
748.064	34.86
748.245	34.6
748.426	34.02
748.607	34.22
748.788	33.86
748.97	33.66
749.151	34.18
749.332	34.32
749.513	34.36
749.694	34.42
749.875	34.12
750.056	33.55
750.237	34.18
750.418	34.36
750.599	34.23
750.78	34.06
750.96	34.23
751.141	34.09
751.322	33.3
751.503	32.97
751.684	33.21
751.865	34.47
752.046	34.41
752.226	33.62
752.407	34.14
752.588	33.49
752.769	34.11
752.949	33.82
753.13	34.19
753.311	33.68
753.492	34.1
753.672	34
753.853	32.73
754.034	33.4
754.214	33.38
754.395	33.49
754.575	33.56
754.756	33.22
754.937	33.33
755.117	33.45
755.298	34.73
755.478	34.16
755.659	33.73
755.839	34.29
756.02	34.45
756.2	34.44
756.381	33.92
756.561	34.06
756.741	33.99
756.922	33.99
757.102	33.16
757.283	32.49
757.463	32.53
757.643	33.3
757.823	32.55
758.004	31.6
758.184	31.39
758.364	30.92
758.545	31.78
758.725	31.2
758.905	31.39
759.085	30.71
759.265	30.65
759.446	30.32
759.626	29.94
759.806	30.06
759.986	30.41
760.166	30.59
760.346	30.3
760.526	29.31
760.706	29.41
760.886	28.72
761.066	29.81
761.246	29.59
761.426	29.25
761.606	28.66
761.786	28
761.966	28.14
762.146	28.07
762.326	28.21
762.506	28.57
762.686	27.92
762.866	28.51
763.046	27.61
763.225	27.75
763.405	27.52
763.585	27.57
763.765	27.79
763.945	27.5
764.124	27.86
764.304	27.98
764.484	28.22
764.664	28.7
764.843	28.7
765.023	29.48
765.203	29.47
765.382	30.23
765.562	30.71
765.741	31.02
765.921	30.74
766.101	30.74
766.28	31.05
766.46	30.71
766.639	31.09
766.819	31.12
766.998	31.01
767.178	31.41
767.357	31.92
767.537	32.11
767.716	32.74
767.896	33.98
768.075	33.81
768.254	34.03
768.434	33.74
768.613	33.87
768.792	34.18
768.972	34.48
769.151	33.75
769.33	33.35
769.51	33.77
769.689	34.2
769.868	34.64
770.047	34.58
770.226	34.78
770.406	34.54
770.585	33.97
770.764	33.17
770.943	33.14
771.122	33.59
771.301	33.97
771.48	33.09
771.66	32.48
771.839	31.6
772.018	32.71
772.197	32.88
772.376	34.36
772.555	35.5
772.734	36.36
772.913	36.08
773.092	37.3
773.271	36.44
773.449	37.35
773.628	37.39
773.807	37.83
773.986	37.19
774.165	36.81
774.344	36.47
774.523	35.77
774.701	35.62
774.88	35.78
775.059	34.81
775.238	35.64
775.417	35.43
775.595	35.45
775.774	34.99
775.953	34.39
776.131	34.15
776.31	34.5
776.489	34.4
776.667	34.61
776.846	35.55
777.025	35.62
777.203	35.37
777.382	35.51
777.56	35.71
777.739	36.52
777.917	36.63
778.096	36.63
778.274	35.99
778.453	36.26
778.631	35.61
778.81	34.74
778.988	34.49
779.166	34.37
779.345	33.86
779.523	33.47
779.702	32.94
779.88	33.06
780.058	33.6
780.237	34.24
780.415	34.11
780.593	34.36
780.771	34.53
780.95	35.13
781.128	35.23
781.306	35.83
781.484	36.21
781.662	36.86
781.841	37.1
782.019	36.03
782.197	35.58
782.375	36.27
782.553	36.65
782.731	36.62
782.909	36.56
783.087	36.72
783.265	36.13
783.443	36.44
783.621	35.77
783.799	36.13
783.977	37.03
784.155	37.23
784.333	36.5
784.511	35.86
784.689	35.86
784.867	35.03
785.045	34.55
785.223	34.44
785.4	32.85
785.578	33.7
785.756	34.06
785.934	33.8
786.112	32.64
786.289	33.22
786.467	33.39
786.645	33.4
786.823	33.11
787	32.72
787.178	32.35
787.356	32.86
787.533	31.87
787.711	30.98
787.889	31.27
788.066	31.53
788.244	30.89
788.421	31.16
788.599	30.99
788.776	31.61
788.954	32.9
789.131	32.44
789.309	32.85
789.486	32.73
789.664	32.73
789.841	33.17
790.019	33.13
790.196	33.74
790.373	34.32
790.551	34.92
790.728	35.37
790.906	34.26
791.083	35.55
791.26	35.28
791.437	34.85
791.615	35.12
791.792	34.77
791.969	34.88
792.146	35.75
792.324	35.06
792.501	34.55
792.678	34.07
792.855	34.83
793.032	35.12
793.209	34.47
793.387	35.72
793.564	35.41
793.741	35.33
793.918	35.76
794.095	34.75
794.272	34.37
794.449	34.19
794.626	34.22
794.803	34.32
794.98	33.98
795.157	33.99
795.334	33.48
795.511	34.32
795.688	34.76
795.864	35.57
796.041	35.95
796.218	36.12
796.395	36.3
796.572	35.99
796.749	35.06
796.925	34.23
797.102	34.89
797.279	33.4
797.456	33.17
797.632	32.28
797.809	32.01
797.986	31.51
798.162	31.31
798.339	31.83
798.516	32.18
798.692	32.59
798.869	33.03
799.046	33.24
799.222	34.84
799.399	33.71
799.575	34.51
799.752	34.39
799.928	34.58
800.105	34.87
800.281	34.58
800.458	34.65
800.634	34.91
800.811	34.36
800.987	34.9
801.163	34.15
801.34	35.37
801.516	34.02
801.692	33.32
801.869	33.44
802.045	33.35
802.221	32.88
802.398	32.25
802.574	31.97
802.75	33.24
802.926	31.02
803.103	32.14
803.279	33.19
803.455	33.24
803.631	34.97
803.807	34.11
803.983	35.13
804.16	36.16
804.336	35.38
804.512	35.92
804.688	35.09
804.864	36.12
805.04	37.07
805.216	34.94
805.392	36.44
805.568	34.95
805.744	35.6
805.92	33.99
806.096	33.48
806.272	36.29
806.448	36.08
806.623	36.62
806.799	36.73
806.975	34.77
807.151	35.63
807.327	35.53
807.503	35.56
807.678	36.24
807.854	36.24
808.03	36.55
808.206	35.12
808.381	35.6
808.557	34.63
808.733	35.16
808.908	35.63
809.084	34.59
809.26	34.61
809.435	35.04
809.611	35.68
809.787	35.82
809.962	33.97
810.138	34.59
810.313	34.48
810.489	35.22
810.664	34.47
810.84	35.06
811.015	36.64
811.191	36.24
811.366	36.26
811.542	34.47
811.717	34.85
811.892	35.94
812.068	35.3
812.243	34.94
812.419	33.87
812.594	33.9
812.769	33.77
812.944	32.75
813.12	32.96
813.295	32.87
813.47	31.28
813.645	30.71
813.821	31.39
813.996	31.88
814.171	31.87
814.346	31.69
814.521	32.36
814.697	31.49
814.872	31.96
815.047	30.5
815.222	29.3
815.397	30.19
815.572	30.79
815.747	29.98
815.922	29.4
816.097	29.76
816.272	31.25
816.447	31.17
816.622	31.92
816.797	30.35
816.972	30.93
817.147	31.56
817.322	32.28
817.496	30.81
817.671	31.21
817.846	30.97
818.021	30.26
818.196	30.18
818.371	29.64
818.545	29.53
818.72	30.71
818.895	30.43
819.069	30.55
819.244	31.27
819.419	31.87
819.594	30.94
819.768	30.89
819.943	31.1
820.117	30.27
820.292	28.84
820.467	28.19
820.641	27.59
820.816	26.88
820.99	26.05
821.165	24.86
821.339	24.4
821.514	24.3
821.688	24.17
821.863	23.58
822.037	23.29
822.212	23.41
822.386	23.31
822.56	22.86
822.735	22.85
822.909	22.7
823.084	22.73
823.258	22.83
823.432	22.92
823.606	22.8
823.781	22.96
823.955	23.11
824.129	23.09
824.303	23.06
824.478	23.39
824.652	23.55
824.826	24.41
825	24.22
825.174	24.47
825.348	24.71
825.523	24.51
825.697	24.58
825.871	24.8
826.045	25.23
826.219	24.83
826.393	24.69
826.567	25.14
826.741	24.47
826.915	25.23
827.089	25.34
827.263	25.23
827.437	25.53
827.611	25.55
827.784	25.09
827.958	24.56
828.132	25.32
828.306	25.38
828.48	25.2
828.654	25.08
828.827	24.73
829.001	24.66
829.175	24
829.349	24.31
829.522	24.8
829.696	25.56
829.87	26.19
830.044	25.66
830.217	26.2
830.391	26.52
830.565	26.4
830.738	27.31
830.912	26.03
831.085	25.95
831.259	26.71
831.432	24.87
831.606	26.07
831.779	25.72
831.953	26.39
832.126	26.53
832.3	25.69
832.473	26
832.647	25.67
832.82	26.17
832.994	26.44
833.167	25.85
833.34	26.32
833.514	25.49
833.687	25.66
833.86	24.65
834.034	24.57
834.207	23.79
834.38	23.91
834.553	24.38
834.727	24.91
834.9	25.14
835.073	24.79
835.246	25.48
835.419	25.38
835.593	25.08
835.766	25.93
835.939	26.35
836.112	28.33
836.285	28.55
836.458	27.71
836.631	27.3
836.804	27.98
836.977	29.27
837.15	29.47
837.323	29.57
837.496	31.39
837.669	32.25
837.842	32.3
838.015	30.92
838.188	32.28
838.361	32.74
838.533	34.58
838.706	35.24
838.879	34.05
839.052	33.21
839.225	32.45
839.398	32.19
839.57	32.15
839.743	32.69
839.916	33.45
840.088	33.15
840.261	32.22
840.434	30.02
840.607	28.34
840.779	29.15
840.952	30.11
841.124	30.18
841.297	29.68
841.47	27.2
841.642	26.08
841.815	25.85
841.987	27.23
842.16	26.86
842.332	26.82
842.505	28.81
842.677	28.73
842.85	29.41
843.022	29.69
843.194	30.64
843.367	35
843.539	35.45
843.712	33.77
843.884	34.11
844.056	37.48
844.229	40.58
844.401	38
844.573	38.68
844.745	37.27
844.918	39.28
845.09	38.7
845.262	34.94
845.434	35.54
845.606	38.69
845.779	34.81
845.951	34.25
846.123	33.28
846.295	34.36
846.467	31.06
846.639	30.91
846.811	30.22
846.983	30.09
847.155	32.52
847.327	33.21
847.499	28.99
847.671	33.97
847.843	33.2
848.015	33.81
848.187	34.88
848.359	36.81
848.531	33.92
848.703	34.2
848.875	33.05
849.047	33.79
849.218	33.98
849.39	38.67
849.562	33.22
849.734	33.01
849.905	30.97
850.077	33.38
850.249	34.88
850.421	35.23
850.592	35.81
850.764	37.84
850.936	37.59
851.107	34.36
851.279	36.55
851.451	37
851.622	34.67
851.794	36.77
851.965	30.9
852.137	24.22
852.308	27.96
852.48	28.93
852.651	32.04
852.823	29.55
852.994	33.97
853.166	31.96
853.337	34.09
853.509	39.64
853.68	38.92
853.851	41.04
854.023	47.66
854.194	44.03
854.365	44.9
854.537	39.72
854.708	41.54
854.879	37.21
855.05	36.69
855.222	37.62
855.393	34.76
855.564	36.58
855.735	35.08
855.906	34.59
856.078	40.08
856.249	38.17
856.42	38.49
856.591	39.36
856.762	41.91
856.933	37.86
857.104	34.69
857.275	37.01
857.446	39.46
857.617	38.82
857.788	37.67
857.959	35.48
858.13	35.66
858.301	40.23
858.472	36.81
858.643	36.73
858.814	39.81
858.985	40.98
859.155	34.78
859.326	31.11
859.497	30.78
859.668	28.33
859.839	30.46
860.009	29.83
860.18	28.9
860.351	31.91
860.522	31.47
860.692	29.44
860.863	29.39
861.034	29.89
861.204	32.67
861.375	36.05
861.546	38.09
861.716	32.75
861.887	35.68
862.057	31.76
862.228	34.98
862.398	35.87
862.569	40.88
862.739	37.42
862.91	42.2
863.08	41.11
863.251	39.9
863.421	37.45
863.592	40.42
863.762	40.18
863.932	39.07
864.103	33.01
864.273	28.69
864.443	21.11
864.614	24.37
864.784	23.71
864.954	21.67
865.125	22.83
865.295	28.74
865.465	28.42
865.635	29.16
865.805	30.69
865.976	30.01
866.146	37.65
866.316	45.46
866.486	45.66
866.656	45.93
866.826	42.2
866.996	42.7
867.166	41.72
867.336	39.64
867.506	36.81
867.676	38.16
867.846	38.44
868.016	39.14
868.186	38.31
868.356	37.62
868.526	36.19
868.696	37.03
868.866	31.23
869.036	27.89
869.206	30.69
869.376	35.76
869.545	34.96
869.715	40.97
869.885	37.69
870.055	34.24
870.224	35.18
870.394	34.18
870.564	40.86
870.734	45.51
870.903	49.7
871.073	48.49
871.243	45.23
871.412	49.88
871.582	46.49
871.751	44.89
871.921	44.14
872.091	45.45
872.26	44.67
872.43	42.6
872.599	42.87
872.769	40.65
872.938	40.91
873.108	42.23
873.277	39.09
873.446	38.92
873.616	38.66
873.785	38.02
873.955	33.63
874.124	31.59
874.293	31.4
874.463	32.11
874.632	33.03
874.801	33.14
874.971	29.1
875.14	29.48
875.309	27.74
875.478	29.76
875.647	30.26
875.817	34.71
875.986	38.8
876.155	34.54
876.324	30.83
876.493	30.49
876.662	28.24
876.831	26.31
877	22.77
877.17	18.31
877.339	14.31
877.508	15.88
877.677	18.58
877.846	17.01
878.015	17.1
878.184	17.45
878.352	14.62
878.521	17
878.69	21.77
878.859	21.48
879.028	30.07
879.197	31.34
879.366	31.7
879.534	26.94
879.703	25.08
879.872	26.85
880.041	26.87
880.21	27.39
880.378	27.47
880.547	26.34
880.716	25.5
880.884	23.55
881.053	21.65
881.222	21.11
881.39	20.76
881.559	21.31
881.727	20.77
881.896	20.19
882.065	19.55
882.233	19.83
882.402	20.09
882.57	20.45
882.739	20.08
882.907	20.96
883.076	20.93
883.244	21.45
883.412	20.99
883.581	21.71
883.749	22.03
883.918	22.49
884.086	21.78
884.254	21.35
884.423	21.25
884.591	21.32
884.759	20.82
884.927	21.24
885.096	21.27
885.264	22.98
885.432	21.3
885.6	21.28
885.769	20.38
885.937	20.45
886.105	20
886.273	20.5
886.441	20.87
886.609	23.54
886.777	23.86
886.945	24.69
887.113	26.78
887.281	29.68
887.449	31.06
887.617	32.82
887.785	30.93
887.953	31.19
888.121	30.92
888.289	32.14
888.457	31.76
888.625	32.44
888.793	30.71
888.961	23.64
889.129	23.15
889.296	21.78
889.464	20.42
889.632	25.02
889.8	27.54
889.967	28.24
890.135	28.42
