Data from 2938712__Reflection_03.txt Node
Date: Tue Mar 17 19:22:01 EDT 2015
User: robert
Spectrometer: USB4E03002
Autoset integration time: false
Trigger mode: 4
Integration Time (sec): 1.000000E-1
Scans to average: 10
Electric dark correction enabled: false
Nonlinearity correction enabled: false
Boxcar width: 5
Stray light correction enabled: false
XAxis mode: Wavelengths
Stop averaging: false
Number of Pixels in Spectrum: 3648
>>>>>Begin Spectral Data<<<<<
177.575	31.88
177.794	29.23
178.014	53.03
178.233	57.57
178.452	86.61
178.672	89.86
178.891	83.39
179.11	124.94
179.33	203.94
179.549	411.97
179.768	-14466.67
179.987	-189.83
180.207	-476.47
180.426	2726.32
180.645	795.83
180.864	273.08
181.084	317.78
181.303	6942.86
181.522	586.84
181.741	186.12
181.96	149.14
182.179	152.32
182.398	160.83
182.618	93.54
182.837	72.73
183.056	60.87
183.275	69.5
183.494	65.42
183.713	73.02
183.932	78.6
184.151	82.69
184.37	89.24
184.589	79.71
184.808	66.12
185.027	93.42
185.246	106.52
185.465	103.89
185.684	92.7
185.903	145.23
186.122	100.71
186.341	64.51
186.56	58.47
186.779	40.33
186.998	73.89
187.216	100.72
187.435	103.62
187.654	103.38
187.873	85.36
188.092	97.28
188.311	81.75
188.53	95.09
188.748	91.96
188.967	91.5
189.186	121.28
189.405	103.48
189.623	96.86
189.842	55.09
190.061	59.05
190.28	83.92
190.498	91.28
190.717	86.69
190.936	75.97
191.154	70.94
191.373	62.44
191.592	54.24
191.81	63.18
192.029	63.37
192.248	101.76
192.466	85.71
192.685	86.71
192.904	73.24
193.122	77.87
193.341	76.21
193.559	105.87
193.778	104.28
193.996	99.45
194.215	102.06
194.433	115.53
194.652	102.57
194.87	112.88
195.089	105.23
195.307	109.6
195.526	129.34
195.744	161.41
195.963	138.25
196.181	164.78
196.399	161.8
196.618	157.1
196.836	151.38
197.055	139.15
197.273	168.95
197.491	294.27
197.71	454.79
197.928	123.27
198.146	105.23
198.365	90.08
198.583	93.59
198.801	205.19
199.019	248.15
199.238	244.31
199.456	183.98
199.674	190.73
199.892	134.95
200.111	143.12
200.329	158.15
200.547	145.81
200.765	147.76
200.983	121.99
201.202	105.59
201.42	100.57
201.638	105.59
201.856	104.31
202.074	125.29
202.292	150.8
202.51	157.03
202.728	144.34
202.946	136.21
203.165	133.55
203.383	156.34
203.601	131.99
203.819	142.24
204.037	123.5
204.255	124.8
204.473	98.29
204.691	83.08
204.909	76.77
205.127	81.19
205.345	67.57
205.562	61.76
205.78	52.07
205.998	57.89
206.216	43.65
206.434	38.78
206.652	47.55
206.87	20.74
207.088	22.57
207.306	27.37
207.523	21.69
207.741	27.77
207.959	24.45
208.177	11.97
208.395	24.75
208.612	35.74
208.83	38.86
209.048	25.79
209.266	32.74
209.483	18.26
209.701	26.71
209.919	46.76
210.136	30.88
210.354	44.58
210.572	47.54
210.79	42.98
211.007	17.19
211.225	24.54
211.442	49.93
211.66	84.99
211.878	90.22
212.095	72.29
212.313	46.37
212.53	48.72
212.748	47.49
212.966	55.57
213.183	47.81
213.401	60.17
213.618	60.46
213.836	48.69
214.053	36.36
214.271	32.83
214.488	28.33
214.705	39.91
214.923	43.94
215.14	36.89
215.358	32.74
215.575	38.97
215.793	26.99
216.01	7.36
216.227	17.26
216.445	11.92
216.662	12.61
216.879	15.75
217.097	6.84
217.314	1.02
217.531	15.3
217.749	25.26
217.966	23.84
218.183	35.28
218.4	44.42
218.618	33.58
218.835	42.22
219.052	36.61
219.269	49.27
219.487	50.82
219.704	52.88
219.921	49.92
220.138	45.34
220.355	47.1
220.572	42.53
220.79	42.08
221.007	52.91
221.224	52.12
221.441	52.59
221.658	44.32
221.875	40.16
222.092	34.86
222.309	36.9
222.526	35.68
222.743	33.13
222.96	27.37
223.177	21.14
223.394	16.2
223.611	14.4
223.828	15.24
224.045	10.01
224.262	3.59
224.479	10.54
224.696	4.58
224.913	4.6
225.13	5.84
225.347	6.51
225.564	6.28
225.781	3.35
225.997	3.61
226.214	3.5
226.431	5.92
226.648	10.49
226.865	7.46
227.082	7.42
227.298	9.66
227.515	8.07
227.732	8.36
227.949	8.44
228.165	7.69
228.382	7.45
228.599	7.37
228.816	6.9
229.032	5.32
229.249	5.66
229.466	5.82
229.682	4.86
229.899	4.49
230.116	4.22
230.332	4.35
230.549	4.79
230.765	4.66
230.982	5.55
231.199	5.74
231.415	7.33
231.632	7.06
231.848	6.8
232.065	6.56
232.281	8.59
232.498	9.23
232.714	8.68
232.931	7.47
233.147	7.92
233.364	7.29
233.58	7.73
233.797	6.65
234.013	5.98
234.23	6.76
234.446	6
234.662	4.52
234.879	4.22
235.095	6.07
235.312	7.2
235.528	9.1
235.744	9.02
235.961	9.5
236.177	11.81
236.393	12.74
236.61	11.42
236.826	11.94
237.042	11.49
237.258	11.73
237.475	11.83
237.691	11.41
237.907	9
238.123	9.49
238.339	7.79
238.556	7.62
238.772	7.07
238.988	8.97
239.204	8.44
239.42	9.63
239.636	7.97
239.853	7.49
240.069	7.52
240.285	8.28
240.501	6.77
240.717	6.76
240.933	5.8
241.149	6
241.365	4.91
241.581	4.8
241.797	4.45
242.013	4.65
242.229	4.22
242.445	4.12
242.661	3.35
242.877	3
243.093	3.24
243.309	3.18
243.525	3.3
243.741	4.06
243.957	3.86
244.173	4.17
244.388	4.18
244.604	4.22
244.82	3.91
245.036	4.42
245.252	5.15
245.468	5.28
245.683	4.81
245.899	4.77
246.115	4.61
246.331	5.29
246.547	5.03
246.762	5.17
246.978	5.49
247.194	5.54
247.409	5.6
247.625	5.64
247.841	5.54
248.057	5.8
248.272	5.66
248.488	5.51
248.703	5.15
248.919	5.45
249.135	5.31
249.35	5.06
249.566	5.65
249.782	5.36
249.997	5.45
250.213	4.95
250.428	5.15
250.644	5.44
250.859	4.97
251.075	5.49
251.29	5.31
251.506	5.6
251.721	5.48
251.937	4.74
252.152	4.94
252.368	4.82
252.583	4.91
252.798	4.74
253.014	4.39
253.229	4.88
253.445	4.68
253.66	4.65
253.875	4.7
254.091	4.29
254.306	5.24
254.521	5.07
254.737	4.82
254.952	5.22
255.167	4.83
255.383	4.77
255.598	4.46
255.813	4.35
256.028	4.1
256.244	3.39
256.459	3.37
256.674	2.19
256.889	1.98
257.104	2.41
257.32	2.4
257.535	2.1
257.75	2.74
257.965	3.46
258.18	3.61
258.395	3.12
258.61	3.72
258.826	3.94
259.041	3.98
259.256	4.16
259.471	3.85
259.686	3.92
259.901	3.96
260.116	4.1
260.331	3.86
260.546	3.65
260.761	3.62
260.976	3.09
261.191	2.74
261.406	3.09
261.621	2.83
261.836	3.12
262.05	3.18
262.265	3.36
262.48	2.25
262.695	2.03
262.91	2.17
263.125	2.91
263.34	3.41
263.555	4.17
263.769	3.28
263.984	3.54
264.199	3.8
264.414	3.01
264.629	3.3
264.843	3.55
265.058	3.37
265.273	3.59
265.488	3.72
265.702	3.73
265.917	3.39
266.132	3.55
266.346	3.37
266.561	3.19
266.776	3.21
266.99	3.33
267.205	3.89
267.42	3.95
267.634	3.8
267.849	3.82
268.063	3.83
268.278	3.79
268.492	3.66
268.707	3.79
268.922	3.71
269.136	4.13
269.351	3.97
269.565	3.91
269.78	3.84
269.994	3.48
270.209	3.2
270.423	2.94
270.637	2.71
270.852	2.86
271.066	2.82
271.281	2.57
271.495	2.67
271.709	2.5
271.924	2.6
272.138	2.87
272.353	3.16
272.567	3.52
272.781	3.79
272.996	4.28
273.21	4.42
273.424	4.36
273.638	4.54
273.853	4.23
274.067	4.44
274.281	4
274.495	3.99
274.71	3.61
274.924	3.1
275.138	2.94
275.352	2.46
275.566	2.43
275.781	2.84
275.995	2.72
276.209	3.02
276.423	2.96
276.637	3.41
276.851	3.29
277.065	3.86
277.279	3.82
277.493	3.83
277.707	3.96
277.921	4.02
278.135	4.22
278.349	4.09
278.563	4.14
278.777	3.8
278.991	3.45
279.205	3.08
279.419	2.71
279.633	2.62
279.847	3.09
280.061	2.85
280.275	2.69
280.489	2.53
280.703	2.75
280.917	2.42
281.131	2.88
281.344	2.94
281.558	3.07
281.772	3.48
281.986	3.67
282.2	3.07
282.414	2.89
282.627	2.89
282.841	3
283.055	2.8
283.269	2.99
283.482	2.88
283.696	3.12
283.91	3.51
284.123	3.02
284.337	2.88
284.551	3.18
284.764	3.67
284.978	3.7
285.192	3.21
285.405	3.44
285.619	3.42
285.833	3.44
286.046	3.58
286.26	3.41
286.473	3.42
286.687	3.7
286.9	3.45
287.114	3.8
287.327	3.84
287.541	3.85
287.754	3.6
287.968	3.57
288.181	3.23
288.395	2.97
288.608	2.97
288.822	3.28
289.035	3.12
289.248	3.35
289.462	2.76
289.675	2.79
289.889	3.34
290.102	3.68
290.315	3.71
290.529	3.84
290.742	3.89
290.955	4.04
291.169	3.69
291.382	4.05
291.595	3.93
291.808	4.03
292.022	4.01
292.235	3.32
292.448	3.43
292.661	3.24
292.875	3.13
293.088	3.3
293.301	3.01
293.514	3.21
293.727	3.15
293.94	3.59
294.153	3.5
294.367	3.53
294.58	3.69
294.793	3.52
295.006	3.83
295.219	3.95
295.432	3.73
295.645	4.01
295.858	4.04
296.071	3.73
296.284	3.64
296.497	3.76
296.71	3.78
296.923	4.12
297.136	4.14
297.349	4.31
297.562	4.58
297.775	4.58
297.988	4.49
298.201	4.55
298.414	4.58
298.626	4.57
298.839	4.8
299.052	5.06
299.265	5.06
299.478	5.23
299.691	5.47
299.903	5.29
300.116	5.46
300.329	5.52
300.542	5.97
300.755	6.38
300.967	6.1
301.18	6.08
301.393	5.8
301.605	5.7
301.818	5.58
302.031	5.06
302.243	5.41
302.456	5.76
302.669	6.14
302.881	5.73
303.094	5.59
303.307	6.11
303.519	5.92
303.732	6.23
303.944	6.36
304.157	6.52
304.37	6.89
304.582	6.69
304.795	6.21
305.007	5.25
305.22	5.41
305.432	5.21
305.645	5.25
305.857	5.81
306.069	5.44
306.282	5.05
306.494	4.95
306.707	4.56
306.919	4.45
307.132	4.79
307.344	5.72
307.556	5.88
307.769	6.15
307.981	6.4
308.193	6.2
308.406	6.36
308.618	6.82
308.83	6.94
309.043	7.21
309.255	7.4
309.467	7.3
309.679	7.33
309.892	7.47
310.104	7.49
310.316	7.39
310.528	7.14
310.74	7.2
310.953	6.96
311.165	6.91
311.377	6.82
311.589	7.09
311.801	7.36
312.013	7.08
312.225	7.1
312.437	7.18
312.649	7.29
312.862	7.44
313.074	7.62
313.286	7.49
313.498	7.63
313.71	7.82
313.922	7.49
314.134	6.85
314.346	7.08
314.558	6.75
314.77	6.78
314.982	6.28
315.193	6.22
315.405	6.26
315.617	6.64
315.829	6.19
316.041	6.05
316.253	6.21
316.465	6.75
316.677	6.58
316.888	6.57
317.1	6.12
317.312	6.67
317.524	6.67
317.736	6.83
317.947	7.03
318.159	8.01
318.371	7.73
318.583	7.84
318.794	7.54
319.006	7.82
319.218	7.8
319.43	8.39
319.641	8.36
319.853	8.48
320.064	8.29
320.276	8.14
320.488	7.76
320.699	7.96
320.911	7.67
321.123	7.91
321.334	8.09
321.546	8.73
321.757	8.83
321.969	8.91
322.18	9.1
322.392	8.88
322.603	8.99
322.815	8.76
323.026	8.87
323.238	8.86
323.449	8.52
323.661	8.15
323.872	7.7
324.083	7.41
324.295	7.01
324.506	6.95
324.718	6.98
324.929	7.02
325.14	7.07
325.352	6.96
325.563	7.34
325.774	7.82
325.986	7.95
326.197	8.27
326.408	8.36
326.62	8.61
326.831	8.92
327.042	9.36
327.253	9.88
327.464	10.44
327.676	10.87
327.887	10.79
328.098	10.63
328.309	11.09
328.52	11.25
328.732	11.57
328.943	11.69
329.154	11.9
329.365	12.37
329.576	12.19
329.787	12.03
329.998	12.25
330.209	12.67
330.42	12.97
330.631	13.2
330.842	13.46
331.053	13.45
331.264	13.56
331.475	13.67
331.686	13.23
331.897	13.27
332.108	13.26
332.319	13.31
332.53	12.99
332.741	13.3
332.952	12.98
333.163	12.95
333.374	13.16
333.585	13.23
333.795	12.95
334.006	12.97
334.217	12.97
334.428	12.88
334.639	13.08
334.849	13.41
335.06	13.23
335.271	13.78
335.482	13.85
335.692	14.03
335.903	14.48
336.114	14.71
336.325	14.74
336.535	14.57
336.746	14.68
336.957	14.75
337.167	14.8
337.378	14.9
337.589	14.88
337.799	14.59
338.01	14.61
338.22	14.65
338.431	14.84
338.642	14.73
338.852	14.92
339.063	15.15
339.273	14.83
339.484	15.04
339.694	15.14
339.905	14.76
340.115	15.34
340.326	15.03
340.536	15.08
340.746	14.88
340.957	15.21
341.167	15.37
341.378	15.07
341.588	15.23
341.799	15.08
342.009	14.84
342.219	15.04
342.43	14.72
342.64	14.73
342.85	14.67
343.061	14.68
343.271	14.56
343.481	14.7
343.691	14.82
343.902	14.92
344.112	15.14
344.322	15.35
344.532	15.3
344.743	15.64
344.953	15.84
345.163	15.67
345.373	15.62
345.583	15.61
345.793	15.29
346.004	15.33
346.214	15.18
346.424	14.79
346.634	14.66
346.844	14.75
347.054	14.26
347.264	14.09
347.474	13.86
347.684	13.84
347.894	13.95
348.104	13.99
348.314	14
348.524	14.06
348.734	14.04
348.944	14.23
349.154	14.25
349.364	14.47
349.574	14.6
349.784	14.6
349.994	14.76
350.204	14.85
350.413	15.05
350.623	15.21
350.833	15.1
351.043	15.25
351.253	15.3
351.463	15.1
351.672	14.82
351.882	14.88
352.092	14.75
352.302	14.47
352.511	14.34
352.721	14.23
352.931	13.88
353.141	14.3
353.35	14.13
353.56	14.11
353.77	14.23
353.979	14.35
354.189	14.21
354.399	14.5
354.608	14.6
354.818	14.69
355.027	14.7
355.237	14.96
355.447	14.68
355.656	14.81
355.866	14.92
356.075	14.89
356.285	14.7
356.494	14.87
356.704	14.74
356.913	14.68
357.123	14.46
357.332	14.45
357.542	14.36
357.751	14.3
357.96	14.21
358.17	13.9
358.379	13.81
358.589	13.96
358.798	13.75
359.007	13.79
359.217	13.87
359.426	14.04
359.635	14.03
359.845	14.14
360.054	14.23
360.263	14.31
360.472	14.66
360.682	14.74
360.891	14.77
361.1	14.75
361.309	14.89
361.519	15.01
361.728	14.92
361.937	14.71
362.146	14.64
362.355	14.74
362.564	14.7
362.774	14.56
362.983	14.42
363.192	14.36
363.401	14.42
363.61	14.16
363.819	13.86
364.028	13.7
364.237	13.82
364.446	14.13
364.655	13.98
364.864	13.96
365.073	13.94
365.282	13.9
365.491	13.82
365.7	13.95
365.909	13.93
366.118	13.88
366.327	13.9
366.536	14.13
366.745	13.68
366.954	13.55
367.162	13.28
367.371	13.27
367.58	13.42
367.789	13.22
367.998	12.74
368.207	12.7
368.415	12.82
368.624	12.92
368.833	12.66
369.042	12.47
369.25	12.52
369.459	12.78
369.668	12.56
369.877	12.29
370.085	12.58
370.294	12.84
370.503	12.73
370.711	12.67
370.92	12.43
371.129	12.52
371.337	12.5
371.546	12.51
371.754	12.34
371.963	12.38
372.171	12.48
372.38	12.36
372.589	12.32
372.797	12.18
373.006	12.01
373.214	12.2
373.423	11.93
373.631	11.81
373.84	11.34
374.048	11.3
374.256	11.16
374.465	11.05
374.673	11.2
374.882	11.04
375.09	11.18
375.298	11.27
375.507	11.3
375.715	11.13
375.923	11.16
376.132	11.51
376.34	11.65
376.548	11.42
376.757	11.2
376.965	11.09
377.173	11.24
377.381	11.42
377.59	11.44
377.798	11.33
378.006	11.56
378.214	11.44
378.423	11.24
378.631	11.07
378.839	11.15
379.047	11.33
379.255	11.37
379.463	11.29
379.671	11.12
379.879	10.94
380.088	10.79
380.296	11.01
380.504	11.28
380.712	11.39
380.92	11.27
381.128	11.31
381.336	11.57
381.544	11.31
381.752	11.15
381.96	10.94
382.168	10.92
382.376	11.21
382.584	10.81
382.791	10.94
382.999	10.93
383.207	11.1
383.415	11.15
383.623	10.98
383.831	11.13
384.039	11.19
384.247	11.5
384.454	11.65
384.662	11.27
384.87	11.22
385.078	10.89
385.285	10.89
385.493	10.85
385.701	10.6
385.909	10.4
386.116	10.33
386.324	10.56
386.532	10.14
386.739	10.04
386.947	10.12
387.155	10.13
387.362	10.32
387.57	10.13
387.778	10.15
387.985	10.13
388.193	10.22
388.4	10.15
388.608	9.91
388.816	9.93
389.023	9.93
389.231	9.95
389.438	10.01
389.646	9.9
389.853	9.99
390.061	9.97
390.268	10.15
390.475	10
390.683	9.95
390.89	9.82
391.098	10.05
391.305	9.95
391.512	10.02
391.72	9.91
391.927	9.79
392.135	9.59
392.342	9.34
392.549	9.21
392.756	9.18
392.964	9.07
393.171	9.13
393.378	8.97
393.586	8.9
393.793	8.87
394	8.96
394.207	9.07
394.414	9.28
394.622	9.27
394.829	9.34
395.036	9.42
395.243	9.53
395.45	9.49
395.657	9.51
395.864	9.75
396.072	9.78
396.279	9.73
396.486	9.74
396.693	9.64
396.9	9.63
397.107	9.53
397.314	9.6
397.521	9.65
397.728	9.35
397.935	9.31
398.142	8.94
398.349	8.71
398.556	8.69
398.763	8.67
398.97	8.72
399.177	8.72
399.383	8.83
399.59	8.5
399.797	8.62
400.004	8.92
400.211	8.95
400.418	9.09
400.625	9.31
400.831	9.43
401.038	9.31
401.245	9.26
401.452	9.41
401.658	9.15
401.865	9.24
402.072	8.97
402.279	9.03
402.485	9.04
402.692	9.1
402.899	9
403.105	8.87
403.312	8.83
403.519	8.83
403.725	8.77
403.932	9.2
404.138	9.32
404.345	9.47
404.552	9.49
404.758	9.52
404.965	9.46
405.171	9.51
405.378	9.65
405.584	9.75
405.791	9.64
405.997	9.64
406.204	9.44
406.41	9.43
406.617	9.32
406.823	9.12
407.029	9.06
407.236	9.13
407.442	8.89
407.649	8.71
407.855	8.6
408.061	8.66
408.268	8.57
408.474	8.4
408.68	8.47
408.887	8.41
409.093	8.35
409.299	8.5
409.505	8.44
409.712	8.59
409.918	8.64
410.124	8.75
410.33	8.76
410.537	8.73
410.743	8.8
410.949	8.69
411.155	8.6
411.361	8.64
411.567	8.36
411.773	8.19
411.98	8.17
412.186	8.17
412.392	8.07
412.598	8.15
412.804	8.54
413.01	8.52
413.216	8.33
413.422	8.61
413.628	8.71
413.834	8.73
414.04	8.86
414.246	8.68
414.452	8.63
414.658	8.73
414.864	8.63
415.07	8.38
415.275	8.54
415.481	8.75
415.687	8.6
415.893	8.43
416.099	8.52
416.305	8.62
416.511	8.75
416.716	8.75
416.922	8.7
417.128	8.72
417.334	8.75
417.539	8.72
417.745	8.76
417.951	8.83
418.157	8.91
418.362	8.94
418.568	9.01
418.774	9.09
418.979	9.09
419.185	9.1
419.391	9.11
419.596	9.1
419.802	9.07
420.008	9.1
420.213	9.09
420.419	9.14
420.624	9.13
420.83	9.04
421.035	9.05
421.241	9.07
421.446	9.04
421.652	9.06
421.857	9.05
422.063	9.02
422.268	8.98
422.474	8.95
422.679	8.96
422.885	8.89
423.09	8.88
423.295	8.8
423.501	8.86
423.706	8.86
423.911	8.81
424.117	8.85
424.322	8.92
424.527	8.87
424.733	8.83
424.938	8.73
425.143	8.73
425.349	8.76
425.554	8.74
425.759	8.69
425.964	8.66
426.169	8.71
426.375	8.64
426.58	8.6
426.785	8.58
426.99	8.58
427.195	8.54
427.4	8.58
427.605	8.44
427.811	8.49
428.016	8.32
428.221	8.35
428.426	8.17
428.631	8.15
428.836	8.12
429.041	8.09
429.246	8.05
429.451	8.19
429.656	8.17
429.861	8.2
430.066	8.16
430.271	8.4
430.476	8.33
430.681	8.39
430.886	8.35
431.09	8.3
431.295	8.4
431.5	8.34
431.705	8.33
431.91	8.34
432.115	8.29
432.32	8.28
432.524	8.06
432.729	8.1
432.934	8.2
433.139	8.27
433.343	8.24
433.548	8.22
433.753	8.3
433.958	8.31
434.162	8.45
434.367	8.56
434.572	8.57
434.776	8.69
434.981	8.72
435.186	8.75
435.39	8.76
435.595	8.92
435.799	8.91
436.004	9.03
436.209	8.91
436.413	8.72
436.618	8.66
436.822	8.62
437.027	8.47
437.231	8.44
437.436	8.36
437.64	8.34
437.845	8.19
438.049	8.21
438.253	8.12
438.458	8.28
438.662	8.33
438.867	8.34
439.071	8.47
439.275	8.64
439.48	8.62
439.684	8.59
439.888	8.66
440.093	8.73
440.297	8.69
440.501	8.68
440.706	8.61
440.91	8.66
441.114	8.68
441.318	8.68
441.523	8.62
441.727	8.63
441.931	8.67
442.135	8.63
442.339	8.57
442.543	8.57
442.748	8.51
442.952	8.54
443.156	8.46
443.36	8.41
443.564	8.33
443.768	8.28
443.972	8.24
444.176	8.25
444.38	8.3
444.584	8.25
444.788	8.31
444.992	8.39
445.196	8.38
445.4	8.41
445.604	8.43
445.808	8.48
446.012	8.49
446.216	8.53
446.42	8.56
446.624	8.49
446.828	8.53
447.032	8.46
447.235	8.45
447.439	8.51
447.643	8.46
447.847	8.46
448.051	8.37
448.254	8.36
448.458	8.31
448.662	8.28
448.866	8.16
449.069	8.19
449.273	8.13
449.477	8.1
449.681	7.89
449.884	7.92
450.088	7.87
450.292	7.93
450.495	7.93
450.699	7.86
450.902	7.77
451.106	7.9
451.31	7.77
451.513	7.89
451.717	7.83
451.92	7.88
452.124	7.86
452.327	7.91
452.531	7.86
452.734	7.87
452.938	7.87
453.141	7.83
453.345	7.76
453.548	7.83
453.752	7.83
453.955	7.95
454.158	7.94
454.362	7.86
454.565	7.72
454.769	7.77
454.972	7.71
455.175	7.7
455.379	7.62
455.582	7.61
455.785	7.53
455.988	7.46
456.192	7.32
456.395	7.22
456.598	7.19
456.801	7.29
457.005	7.26
457.208	7.33
457.411	7.31
457.614	7.45
457.817	7.53
458.021	7.51
458.224	7.56
458.427	7.56
458.63	7.6
458.833	7.68
459.036	7.67
459.239	7.69
459.442	7.72
459.645	7.84
459.848	7.84
460.051	7.9
460.254	7.93
460.457	7.91
460.66	7.95
460.863	8.06
461.066	8
461.269	8.08
461.472	8.09
461.675	8.1
461.878	8.1
462.081	8.04
462.284	7.97
462.486	7.98
462.689	8.07
462.892	8.05
463.095	7.97
463.298	8.02
463.5	7.8
463.703	7.64
463.906	7.59
464.109	7.43
464.311	7.44
464.514	7.42
464.717	7.52
464.92	7.39
465.122	7.38
465.325	7.47
465.528	7.64
465.73	7.81
465.933	8.03
466.135	7.97
466.338	8.15
466.541	8.3
466.743	8.26
466.946	8.17
467.148	8.24
467.351	8.28
467.553	8.23
467.756	8.08
467.958	8.01
468.161	7.96
468.363	8.07
468.566	8.01
468.768	8.02
468.971	8.09
469.173	8.21
469.375	8.21
469.578	8.2
469.78	8.22
469.983	8.24
470.185	8.31
470.387	8.29
470.59	8.3
470.792	8.21
470.994	8.14
471.196	8.16
471.399	8.26
471.601	8.28
471.803	8.29
472.005	8.33
472.208	8.39
472.41	8.37
472.612	8.35
472.814	8.31
473.016	8.47
473.218	8.38
473.421	8.38
473.623	8.2
473.825	8.23
474.027	8.27
474.229	8.23
474.431	8.24
474.633	8.3
474.835	8.17
475.037	8.24
475.239	8.13
475.441	8.18
475.643	8.19
475.845	8.2
476.047	8.22
476.249	8.2
476.451	8.18
476.653	8.1
476.855	8.04
477.057	8.16
477.258	8.16
477.46	8.27
477.662	8.37
477.864	8.41
478.066	8.5
478.268	8.45
478.469	8.46
478.671	8.5
478.873	8.54
479.075	8.53
479.276	8.48
479.478	8.44
479.68	8.36
479.882	8.33
480.083	8.25
480.285	8.24
480.487	8.25
480.688	8.23
480.89	8.19
481.091	8.22
481.293	8.31
481.495	8.35
481.696	8.4
481.898	8.44
482.099	8.43
482.301	8.42
482.502	8.44
482.704	8.46
482.905	8.53
483.107	8.53
483.308	8.55
483.51	8.53
483.711	8.55
483.913	8.56
484.114	8.56
484.315	8.61
484.517	8.66
484.718	8.67
484.92	8.72
485.121	8.72
485.322	8.76
485.524	8.78
485.725	8.83
485.926	8.86
486.127	8.83
486.329	8.84
486.53	8.79
486.731	8.73
486.932	8.71
487.134	8.68
487.335	8.68
487.536	8.69
487.737	8.7
487.938	8.68
488.139	8.7
488.341	8.74
488.542	8.75
488.743	8.8
488.944	8.88
489.145	8.89
489.346	8.92
489.547	8.91
489.748	8.93
489.949	8.92
490.15	8.87
490.351	8.83
490.552	8.85
490.753	8.89
490.954	8.83
491.155	8.8
491.356	8.84
491.557	8.85
491.758	8.88
491.959	8.87
492.159	8.88
492.36	9.01
492.561	9.08
492.762	9.05
492.963	8.99
493.164	9.08
493.364	9.11
493.565	9.09
493.766	9.04
493.967	8.99
494.167	8.98
494.368	8.89
494.569	8.83
494.769	8.77
494.97	8.79
495.171	8.81
495.371	8.82
495.572	8.78
495.773	8.8
495.973	8.81
496.174	8.88
496.375	9.01
496.575	9.1
496.776	9.15
496.976	9.13
497.177	9.15
497.377	9.21
497.578	9.24
497.778	9.22
497.979	9.27
498.179	9.34
498.38	9.33
498.58	9.35
498.78	9.36
498.981	9.29
499.181	9.47
499.382	9.54
499.582	9.52
499.782	9.54
499.983	9.62
500.183	9.58
500.383	9.62
500.584	9.61
500.784	9.53
500.984	9.62
501.184	9.6
501.385	9.5
501.585	9.47
501.785	9.43
501.985	9.43
502.185	9.42
502.386	9.51
502.586	9.52
502.786	9.6
502.986	9.58
503.186	9.57
503.386	9.59
503.586	9.64
503.786	9.62
503.987	9.79
504.187	9.86
504.387	10
504.587	10.01
504.787	10.05
504.987	10.12
505.187	10.27
505.387	10.38
505.587	10.44
505.786	10.52
505.986	10.77
506.186	10.76
506.386	10.83
506.586	10.79
506.786	10.9
506.986	10.99
507.186	11.13
507.386	11.16
507.585	11.21
507.785	11.26
507.985	11.27
508.185	11.22
508.384	11.24
508.584	11.31
508.784	11.45
508.984	11.58
509.183	11.67
509.383	11.62
509.583	11.71
509.782	11.78
509.982	11.93
510.182	12.06
510.381	12.19
510.581	12.35
510.781	12.36
510.98	12.42
511.18	12.47
511.379	12.45
511.579	12.52
511.778	12.6
511.978	12.63
512.177	12.71
512.377	12.78
512.576	12.71
512.776	12.74
512.975	12.87
513.175	12.97
513.374	13.03
513.573	13.18
513.773	13.26
513.972	13.34
514.172	13.39
514.371	13.5
514.57	13.53
514.77	13.67
514.969	13.75
515.168	13.87
515.367	13.89
515.567	13.93
515.766	14.03
515.965	14.15
516.164	14.19
516.364	14.29
516.563	14.34
516.762	14.45
516.961	14.56
517.16	14.73
517.359	14.75
517.559	14.82
517.758	14.92
517.957	14.96
518.156	15.05
518.355	15.19
518.554	15.27
518.753	15.35
518.952	15.42
519.151	15.53
519.35	15.52
519.549	15.64
519.748	15.83
519.947	15.97
520.146	16.13
520.345	16.27
520.544	16.3
520.743	16.4
520.942	16.5
521.141	16.68
521.339	16.76
521.538	16.99
521.737	17.1
521.936	17.2
522.135	17.21
522.333	17.39
522.532	17.45
522.731	17.67
522.93	17.82
523.129	17.99
523.327	18.15
523.526	18.31
523.725	18.4
523.923	18.53
524.122	18.62
524.321	18.78
524.519	18.83
524.718	18.92
524.917	19.01
525.115	19.13
525.314	19.24
525.512	19.31
525.711	19.49
525.909	19.59
526.108	19.73
526.306	19.88
526.505	20.02
526.703	20.2
526.902	20.41
527.1	20.51
527.299	20.64
527.497	20.79
527.696	20.92
527.894	20.96
528.092	21.07
528.291	21.19
528.489	21.3
528.688	21.44
528.886	21.56
529.084	21.62
529.283	21.81
529.481	21.99
529.679	22.11
529.877	22.26
530.076	22.49
530.274	22.66
530.472	22.79
530.67	22.97
530.869	23.09
531.067	23.2
531.265	23.45
531.463	23.63
531.661	23.77
531.859	23.91
532.057	24.05
532.255	24.16
532.454	24.33
532.652	24.51
532.85	24.61
533.048	24.76
533.246	24.92
533.444	25.02
533.642	25.08
533.84	25.13
534.038	25.28
534.236	25.47
534.434	25.6
534.632	25.73
534.83	25.89
535.027	26.06
535.225	26.24
535.423	26.39
535.621	26.59
535.819	26.73
536.017	26.92
536.215	27.04
536.412	27.16
536.61	27.34
536.808	27.54
537.006	27.65
537.203	27.88
537.401	28.04
537.599	28.21
537.797	28.37
537.994	28.57
538.192	28.74
538.39	28.93
538.587	29.14
538.785	29.29
538.983	29.38
539.18	29.51
539.378	29.61
539.575	29.83
539.773	30.02
539.97	30.19
540.168	30.32
540.366	30.48
540.563	30.62
540.761	30.75
540.958	30.93
541.155	31.09
541.353	31.29
541.55	31.45
541.748	31.6
541.945	31.72
542.143	31.86
542.34	32.02
542.537	32.22
542.735	32.39
542.932	32.56
543.129	32.7
543.327	32.89
543.524	33.05
543.721	33.31
543.919	33.48
544.116	33.73
544.313	33.89
544.51	34.15
544.708	34.37
544.905	34.57
545.102	34.72
545.299	35
545.496	35.22
545.693	35.42
545.891	35.51
546.088	35.6
546.285	35.6
546.482	35.74
546.679	35.77
546.876	35.79
547.073	35.86
547.27	35.86
547.467	35.8
547.664	35.73
547.861	35.7
548.058	35.7
548.255	35.69
548.452	35.77
548.649	35.77
548.846	35.84
549.043	35.88
549.24	35.9
549.437	36.02
549.633	36.03
549.83	36.14
550.027	36.27
550.224	36.25
550.421	36.27
550.618	36.39
550.814	36.31
551.011	36.28
551.208	36.34
551.405	36.31
551.601	36.38
551.798	36.47
551.995	36.4
552.191	36.37
552.388	36.43
552.585	36.6
552.781	36.57
552.978	36.64
553.175	36.72
553.371	36.68
553.568	36.83
553.764	36.89
553.961	36.95
554.157	37.06
554.354	37.08
554.55	37.16
554.747	37.14
554.943	37.12
555.14	37.31
555.336	37.28
555.533	37.28
555.729	37.2
555.926	37.15
556.122	37.12
556.318	37.14
556.515	37.21
556.711	37.37
556.907	37.49
557.104	37.56
557.3	37.55
557.496	37.62
557.693	37.76
557.889	38.07
558.085	38.24
558.281	38.3
558.478	38.3
558.674	38.3
558.87	38.23
559.066	38.17
559.262	38.12
559.459	38.26
559.655	38.24
559.851	38.4
560.047	38.23
560.243	38.18
560.439	38.33
560.635	38.42
560.831	38.49
561.027	38.56
561.223	38.59
561.419	38.77
561.615	38.81
561.811	38.9
562.007	38.72
562.203	38.88
562.399	38.96
562.595	38.98
562.791	39.05
562.987	39.08
563.183	39.17
563.379	39.36
563.575	39.34
563.771	39.31
563.966	39.28
564.162	39.5
564.358	39.45
564.554	39.56
564.75	39.6
564.945	39.57
565.141	39.65
565.337	39.57
565.533	39.7
565.728	39.76
565.924	39.72
566.12	39.95
566.315	39.88
566.511	39.92
566.707	39.91
566.902	39.88
567.098	39.91
567.293	39.87
567.489	39.99
567.684	39.89
567.88	39.97
568.076	40.18
568.271	40.1
568.467	40.33
568.662	40.28
568.858	40.35
569.053	40.43
569.248	40.57
569.444	40.67
569.639	40.61
569.835	40.69
570.03	40.64
570.225	40.54
570.421	40.65
570.616	40.64
570.812	40.77
571.007	40.73
571.202	40.84
571.397	40.81
571.593	40.89
571.788	40.98
571.983	41
572.178	41.05
572.374	41.05
572.569	41.13
572.764	41.15
572.959	41.16
573.154	41.2
573.35	41.13
573.545	41.23
573.74	41.17
573.935	41.14
574.13	41.1
574.325	41.21
574.52	41.29
574.715	41.21
574.91	41.3
575.105	41.42
575.3	41.46
575.495	41.65
575.69	41.72
575.885	41.79
576.08	41.82
576.275	41.91
576.47	42
576.665	42.24
576.86	42.39
577.055	42.44
577.25	42.36
577.444	42.45
577.639	42.41
577.834	42.45
578.029	42.5
578.224	42.63
578.418	42.83
578.613	42.87
578.808	42.68
579.003	42.6
579.197	42.57
579.392	42.65
579.587	42.64
579.781	42.64
579.976	42.63
580.171	42.66
580.365	42.65
580.56	42.56
580.755	42.55
580.949	42.71
581.144	42.74
581.338	42.75
581.533	42.84
581.727	42.94
581.922	43.04
582.116	43.06
582.311	43.28
582.505	43.39
582.7	43.38
582.894	43.46
583.089	43.5
583.283	43.62
583.478	43.61
583.672	43.76
583.866	43.87
584.061	43.9
584.255	43.96
584.449	44.03
584.644	43.97
584.838	44.08
585.032	44.01
585.226	44.11
585.421	44.21
585.615	44.43
585.809	44.38
586.003	44.28
586.198	44.25
586.392	44.46
586.586	44.39
586.78	44.59
586.974	44.42
587.168	44.56
587.363	44.48
587.557	44.45
587.751	44.29
587.945	44.27
588.139	44.39
588.333	44.3
588.527	44.02
588.721	43.8
588.915	43.59
589.109	43.72
589.303	43.7
589.497	43.68
589.691	43.64
589.885	43.66
590.079	43.6
590.273	43.56
590.466	43.76
590.66	43.95
590.854	44.2
591.048	44.5
591.242	44.44
591.436	44.53
591.629	44.6
591.823	44.72
592.017	44.71
592.211	44.83
592.404	44.86
592.598	44.64
592.792	44.63
592.986	44.59
593.179	44.59
593.373	44.78
593.567	44.8
593.76	44.89
593.954	44.86
594.147	44.98
594.341	44.96
594.535	44.93
594.728	45.08
594.922	44.97
595.115	44.9
595.309	44.73
595.502	44.71
595.696	44.57
595.889	44.52
596.083	44.5
596.276	44.51
596.47	44.56
596.663	44.56
596.856	44.6
597.05	44.71
597.243	44.7
597.437	44.7
597.63	44.7
597.823	44.81
598.017	44.81
598.21	44.79
598.403	44.86
598.596	44.85
598.79	44.95
598.983	44.91
599.176	44.86
599.369	45.05
599.563	45.26
599.756	45.34
599.949	45.35
600.142	45.49
600.335	45.55
600.528	45.65
600.722	45.61
600.915	45.51
601.108	45.57
601.301	45.66
601.494	45.59
601.687	45.56
601.88	45.41
602.073	45.4
602.266	45.34
602.459	45.41
602.652	45.25
602.845	45.18
603.038	45.18
603.231	45.19
603.424	45.03
603.617	44.9
603.809	44.79
604.002	44.87
604.195	44.86
604.388	44.84
604.581	44.82
604.774	44.81
604.966	44.94
605.159	44.95
605.352	45.07
605.545	45.3
605.737	45.43
605.93	45.59
606.123	45.58
606.316	45.58
606.508	45.66
606.701	45.78
606.894	45.95
607.086	45.88
607.279	46.09
607.471	46.03
607.664	45.97
607.857	46.18
608.049	46.49
608.242	46.98
608.434	47.51
608.627	48.03
608.819	48.56
609.012	49.24
609.204	50.09
609.397	50.95
609.589	51.85
609.782	52.91
609.974	53.95
610.166	54.86
610.359	55.54
610.551	56.35
610.743	57.04
610.936	57.67
611.128	58.11
611.32	58.58
611.513	58.65
611.705	58.6
611.897	58.36
612.09	58.15
612.282	57.8
612.474	57.38
612.666	56.86
612.858	56.28
613.051	55.91
613.243	55.54
613.435	54.94
613.627	54.55
613.819	54.05
614.011	53.77
614.203	53.43
614.395	52.97
614.588	52.78
614.78	52.31
614.972	52.05
615.164	51.49
615.356	50.84
615.548	50.39
615.74	50.04
615.932	49.85
616.124	49.62
616.315	49.04
616.507	48.78
616.699	48.57
616.891	48.64
617.083	48.5
617.275	48.31
617.467	48.41
617.659	48.36
617.85	47.98
618.042	47.91
618.234	47.69
618.426	47.61
618.618	47.62
618.809	47.48
619.001	47.27
619.193	47.15
619.384	47.05
619.576	47.03
619.768	46.89
619.959	46.75
620.151	46.66
620.343	46.61
620.534	46.56
620.726	46.58
620.917	46.62
621.109	46.51
621.301	46.54
621.492	46.67
621.684	46.61
621.875	46.76
622.067	47.03
622.258	47.29
622.45	47.37
622.641	47.56
622.832	47.4
623.024	47.3
623.215	47.37
623.407	47.3
623.598	47.22
623.789	47.26
623.981	47.35
624.172	47.53
624.363	47.42
624.555	47.45
624.746	47.28
624.937	47.33
625.129	47.47
625.32	47.53
625.511	47.44
625.702	47.52
625.893	47.48
626.085	47.35
626.276	47.28
626.467	47.27
626.658	47.36
626.849	47.31
627.04	47.36
627.231	47.32
627.422	47.27
627.614	47.41
627.805	47.56
627.996	47.69
628.187	47.86
628.378	47.99
628.569	48.09
628.76	48.14
628.951	48.47
629.142	48.55
629.332	48.61
629.523	48.83
629.714	48.91
629.905	48.79
630.096	48.94
630.287	48.95
630.478	48.92
630.669	48.84
630.859	48.91
631.05	48.8
631.241	48.72
631.432	48.68
631.623	48.45
631.813	48.52
632.004	48.39
632.195	47.99
632.385	47.82
632.576	47.54
632.767	47.44
632.957	47.17
633.148	47.13
633.339	46.9
633.529	46.67
633.72	46.65
633.91	46.23
634.101	46.13
634.292	46.12
634.482	46.13
634.673	46.29
634.863	46.4
635.054	46.46
635.244	46.37
635.435	46.47
635.625	46.68
635.815	46.51
636.006	46.79
636.196	46.76
636.387	46.63
636.577	46.51
636.767	46.38
636.958	46.25
637.148	46.25
637.338	46.28
637.529	46.26
637.719	46.31
637.909	46.55
638.099	46.41
638.29	46.53
638.48	46.68
638.67	46.84
638.86	46.81
639.05	46.79
639.241	46.56
639.431	46.49
639.621	46.56
639.811	46.52
640.001	46.48
640.191	46.59
640.381	46.55
640.571	46.58
640.761	46.43
640.951	46.36
641.141	46.27
641.331	46.41
641.521	46.28
641.711	46.48
641.901	46.43
642.091	46.4
642.281	46.2
642.471	46.24
642.661	46.36
642.851	46.35
643.041	46.74
643.231	46.91
643.42	47.07
643.61	47.47
643.8	47.16
643.99	46.94
644.18	46.9
644.369	47.19
644.559	47.15
644.749	46.89
644.939	46.97
645.128	46.88
645.318	46.78
645.508	46.73
645.697	46.42
645.887	46.24
646.076	46.56
646.266	46.67
646.456	46.74
646.645	47.07
646.835	47.19
647.024	47.03
647.214	47.04
647.403	47.06
647.593	47.02
647.782	47.26
647.972	47.68
648.161	47.54
648.351	47.7
648.54	47.62
648.73	47.27
648.919	47.22
649.108	47.17
649.298	47.13
649.487	47.12
649.677	47.15
649.866	47.11
650.055	47.01
650.244	47.09
650.434	47
650.623	47.05
650.812	47.21
651.002	47.31
651.191	47.46
651.38	47.37
651.569	47.56
651.758	47.48
651.947	47.37
652.137	47.37
652.326	47.19
652.515	47.05
652.704	46.81
652.893	46.81
653.082	46.91
653.271	46.79
653.46	46.97
653.649	46.91
653.838	46.94
654.027	46.73
654.216	46.43
654.405	46.29
654.594	46.37
654.783	46.5
654.972	46.3
655.161	46.28
655.35	46.62
655.539	46.6
655.728	46.5
655.916	46.5
656.105	46.87
656.294	46.92
656.483	47.26
656.672	47.12
656.86	47.07
657.049	47.21
657.238	46.96
657.427	46.91
657.615	46.89
657.804	46.93
657.993	47.14
658.181	47
658.37	47.3
658.559	47.25
658.747	47.35
658.936	47.38
659.125	46.99
659.313	47.37
659.502	47.29
659.69	47
659.879	46.96
660.067	46.82
660.256	46.75
660.444	46.55
660.633	46.58
660.821	46.51
661.01	46.52
661.198	46.84
661.387	46.79
661.575	46.88
661.763	47.25
661.952	47.1
662.14	47.14
662.328	47.31
662.517	47.3
662.705	47.34
662.893	47.19
663.082	47.29
663.27	47.38
663.458	47.14
663.646	47.1
663.834	46.98
664.023	47.29
664.211	47.25
664.399	47.26
664.587	47.5
664.775	47.31
664.963	47.47
665.152	47.41
665.34	47.47
665.528	47.44
665.716	47.34
665.904	47.36
666.092	47.24
666.28	47.13
666.468	47.05
666.656	46.89
666.844	46.94
667.032	47.08
667.22	46.95
667.408	46.87
667.596	46.91
667.784	46.99
667.971	47.02
668.159	46.97
668.347	47.06
668.535	47
668.723	47.14
668.911	47.14
669.098	46.84
669.286	46.82
669.474	46.78
669.662	46.93
669.849	47.05
670.037	46.84
670.225	46.88
670.413	46.97
670.6	46.88
670.788	46.89
670.976	46.78
671.163	46.99
671.351	47.07
671.538	47.27
671.726	47.17
671.913	47.1
672.101	47.13
672.289	47.16
672.476	46.97
672.664	47.06
672.851	47.07
673.039	47.2
673.226	46.96
673.413	46.73
673.601	46.62
673.788	46.81
673.976	46.46
674.163	46.61
674.35	46.61
674.538	46.66
674.725	46.66
674.912	46.67
675.1	46.59
675.287	46.7
675.474	47.12
675.662	47.12
675.849	46.68
676.036	47
676.223	47.11
676.411	47.13
676.598	47.12
676.785	47.3
676.972	46.98
677.159	47.09
677.346	47.18
677.533	47.12
677.721	46.99
677.908	47.06
678.095	47.07
678.282	47.16
678.469	47.06
678.656	47.04
678.843	46.85
679.03	46.93
679.217	47.01
679.404	47.37
679.591	47.29
679.778	47.43
679.964	47.49
680.151	47.45
680.338	47.13
680.525	47.33
680.712	47.38
680.899	47.51
681.086	47.64
681.272	47.51
681.459	47.38
681.646	47.4
681.833	47.19
682.02	47.34
682.206	47.12
682.393	47.26
682.58	47.04
682.766	47.25
682.953	47.05
683.14	46.98
683.326	47.33
683.513	47.1
683.7	47.01
683.886	47.15
684.073	46.91
684.259	47.05
684.446	47.3
684.632	47.68
684.819	47.35
685.005	47.74
685.192	47.79
685.378	47.37
685.565	47.53
685.751	47.87
685.938	47.7
686.124	47.55
686.31	47.73
686.497	47.33
686.683	47.31
686.87	47.57
687.056	47.5
687.242	47.23
687.429	47.65
687.615	47.72
687.801	47.45
687.987	47.8
688.174	47.99
688.36	48
688.546	48.25
688.732	48.05
688.918	47.87
689.105	48.02
689.291	48.3
689.477	47.85
689.663	47.55
689.849	47.51
690.035	47.41
690.221	47.6
690.407	47.53
690.593	47.43
690.779	47.03
690.965	47.16
691.151	47.02
691.337	47.2
691.523	47.14
691.709	47.67
691.895	47.64
692.081	47.58
692.267	47.23
692.453	47.38
692.639	47.25
692.825	47.64
693.011	47.65
693.196	47.73
693.382	47.47
693.568	47.68
693.754	47.39
693.94	47.74
694.125	48.02
694.311	47.97
694.497	47.78
694.682	47.79
694.868	47.53
695.054	47.58
695.239	47.57
695.425	47.37
695.611	47.32
695.796	46.93
695.982	46.68
696.168	46.61
696.353	46.84
696.539	47.02
696.724	47.18
696.91	47.23
697.095	47.17
697.281	47.22
697.466	47.33
697.652	47.39
697.837	47.68
698.023	47.71
698.208	47.53
698.393	47.55
698.579	47.48
698.764	47.45
698.949	47.66
699.135	47.69
699.32	47.6
699.505	47.71
699.691	47.74
699.876	47.74
700.061	47.89
700.246	48.12
700.432	48.21
700.617	48.11
700.802	48.27
700.987	48.1
701.172	47.83
701.358	47.76
701.543	47.86
701.728	48.25
701.913	47.8
702.098	47.93
702.283	47.74
702.468	47.7
702.653	47.55
702.838	47.38
703.023	47.62
703.208	47.7
703.393	47.52
703.578	47.48
703.763	46.8
703.948	47.12
704.133	46.6
704.318	47.13
704.503	46.93
704.688	47.37
704.873	47.89
705.057	47.87
705.242	48.33
705.427	48.85
705.612	49.17
705.797	50
705.981	50.6
706.166	51.09
706.351	51.03
706.536	51.72
706.72	52.16
706.905	52.08
707.09	52.14
707.274	52.09
707.459	51.99
707.644	51.96
707.828	51.79
708.013	51.45
708.197	51.17
708.382	50.71
708.567	50.21
708.751	49.86
708.936	49.57
709.12	49.59
709.305	49.81
709.489	49.51
709.673	49.2
709.858	48.99
710.042	48.86
710.227	49.23
710.411	49.65
710.596	49.91
710.78	49.91
710.964	50.01
711.149	49.73
711.333	49.48
711.517	49.76
711.702	49.65
711.886	49.27
712.07	49.4
712.254	48.9
712.438	48.7
712.623	48.47
712.807	48.4
712.991	48.71
713.175	48.84
713.359	48.68
713.544	48.43
713.728	48.53
713.912	48.77
714.096	48.85
714.28	49
714.464	48.61
714.648	48.38
714.832	47.99
715.016	47.68
715.2	47.77
715.384	47.52
715.568	47.44
715.752	47.25
715.936	47.37
716.12	47.2
716.304	47.39
716.488	47.54
716.671	47.91
716.855	48.14
717.039	47.92
717.223	47.61
717.407	47.63
717.59	48.05
717.774	48.12
717.958	47.89
718.142	47.17
718.325	46.99
718.509	46.83
718.693	46.44
718.877	46.18
719.06	45.99
719.244	45.95
719.428	45.8
719.611	45.55
719.795	45.76
719.978	45.79
720.162	46.24
720.345	45.96
720.529	46.03
720.713	46
720.896	46.57
721.08	46.87
721.263	47.04
721.446	47.26
721.63	47.08
721.813	46.81
721.997	46.92
722.18	46.55
722.364	46.55
722.547	46.51
722.73	46.35
722.914	45.97
723.097	46.31
723.28	46.11
723.464	46.18
723.647	46.45
723.83	46.5
724.013	46.55
724.197	47.05
724.38	46.94
724.563	47
724.746	47.07
724.929	47.77
725.112	47.11
725.296	47.56
725.479	47.65
725.662	47.58
725.845	47.65
726.028	47.72
726.211	47.84
726.394	47.91
726.577	47.88
726.76	47.73
726.943	46.98
727.126	46.91
727.309	46.69
727.492	46.83
727.675	46.61
727.858	46.57
728.041	46.24
728.224	46.28
728.407	46.5
728.589	46.71
728.772	47.07
728.955	47.02
729.138	47.42
729.321	47.3
729.503	47.03
729.686	47.07
729.869	47.12
730.052	47.21
730.234	47.2
730.417	47.06
730.6	46.68
730.782	47
730.965	47.35
731.148	47.36
731.33	47.08
731.513	47.06
731.695	47.38
731.878	47.26
732.061	47.38
732.243	47.16
732.426	47.45
732.608	47.73
732.791	47.8
732.973	47.75
733.156	48.02
733.338	48.28
733.52	48.36
733.703	47.94
733.885	48.19
734.068	48.03
734.25	48.19
734.432	47.94
734.615	47.68
734.797	47.57
734.979	47.13
735.162	46.77
735.344	46.8
735.526	46.76
735.708	46.68
735.891	46.87
736.073	46.52
736.255	46.46
736.437	46.49
736.619	46.66
736.802	46.19
736.984	46.37
737.166	45.76
737.348	45.76
737.53	45.65
737.712	45.84
737.894	45.7
738.076	46.01
738.258	46.08
738.44	45.72
738.622	45.8
738.804	46.21
738.986	46.08
739.168	46.67
739.35	46.5
739.532	46.63
739.714	46.66
739.896	46.74
740.078	46.63
740.259	47
740.441	47.48
740.623	47.41
740.805	46.41
740.987	46.47
741.168	45.65
741.35	45.38
741.532	45.55
741.714	44.98
741.895	44.37
742.077	44.66
742.259	44.46
742.44	44.56
742.622	44.86
742.804	45
742.985	44.97
743.167	45.58
743.348	46.01
743.53	45.71
743.711	46.57
743.893	46.52
744.075	46.43
744.256	46.31
744.438	46.03
744.619	45.45
744.8	45.87
744.982	45.96
745.163	46.19
745.345	45.94
745.526	46.12
745.707	45.52
745.889	45.43
746.07	45.18
746.252	44.9
746.433	44.96
746.614	45.23
746.795	45.84
746.977	45.69
747.158	45.67
747.339	46.56
747.52	47.32
747.702	46.94
747.883	47.46
748.064	47.59
748.245	47.49
748.426	47.33
748.607	47.13
748.788	46.82
748.97	47.19
749.151	47.21
749.332	46.76
749.513	45.98
749.694	46.58
749.875	46.75
750.056	46.73
750.237	47.17
750.418	47.5
750.599	47.6
750.78	47.77
750.96	48.18
751.141	48.03
751.322	47.29
751.503	47.76
751.684	47.46
751.865	46.94
752.046	47.58
752.226	46.68
752.407	46.17
752.588	46.32
752.769	46.07
752.949	45.15
753.13	44.96
753.311	45.79
753.492	45.5
753.672	45.35
753.853	45.72
754.034	44.86
754.214	45.31
754.395	45.07
754.575	45.64
754.756	45.85
754.937	46.11
755.117	46.17
755.298	45.95
755.478	45.68
755.659	46.22
755.839	45.8
756.02	45.32
756.2	44.91
756.381	45.54
756.561	44.3
756.741	44.11
756.922	44.69
757.102	45.14
757.283	45.35
757.463	45.89
757.643	45.82
757.823	46.35
758.004	46.6
758.184	47.05
758.364	47.02
758.545	48.25
758.725	48.24
758.905	47.4
759.085	47.6
759.265	46.67
759.446	45.76
759.626	45.83
759.806	45.91
759.986	46.34
760.166	46.17
760.346	46.51
760.526	45.88
760.706	46.01
760.886	46.16
761.066	45.93
761.246	46.46
761.426	47.04
761.606	46.81
761.786	46.13
761.966	46.32
762.146	46.46
762.326	46.13
762.506	46.32
762.686	45.84
762.866	46.31
763.046	45.89
763.225	46.02
763.405	45.95
763.585	46
763.765	46.7
763.945	46.52
764.124	46.44
764.304	46.6
764.484	46.32
764.664	46.76
764.843	46.69
765.023	46.53
765.203	46.38
765.382	46.37
765.562	46.17
765.741	45.95
765.921	46.55
766.101	46.91
766.28	46.55
766.46	46.77
766.639	46.66
766.819	46.52
766.998	47.37
767.178	47.35
767.357	47.26
767.537	47.41
767.716	47.11
767.896	45.78
768.075	45.86
768.254	45.74
768.434	46.35
768.613	47.03
768.792	46.83
768.972	46.72
769.151	47
769.33	47.33
769.51	47.49
769.689	47.62
769.868	49.01
770.047	48.49
770.226	48.98
770.406	48.37
770.585	47.57
770.764	47.94
770.943	47.17
771.122	47.01
771.301	46.72
771.48	46.39
771.66	46.58
771.839	45.78
772.018	45.91
772.197	45.75
772.376	45.04
772.555	44.44
772.734	44.01
772.913	44.58
773.092	45.22
773.271	44.7
773.449	44.26
773.628	43.94
773.807	43.97
773.986	43.85
774.165	43.89
774.344	44.09
774.523	44.47
774.701	45.23
774.88	45.33
775.059	44.67
775.238	45.65
775.417	46.62
775.595	45.43
775.774	45.73
775.953	45.93
776.131	45.94
776.31	45.69
776.489	44.82
776.667	44.29
776.846	44.18
777.025	43.99
777.203	42.67
777.382	43.16
777.56	43.92
777.739	43.67
777.917	43.41
778.096	42.76
778.274	43.5
778.453	44.36
778.631	44.59
778.81	44.17
778.988	44.21
779.166	45.03
779.345	44.29
779.523	44.87
779.702	44.42
779.88	44.05
780.058	44.85
780.237	44.73
780.415	45.74
780.593	45.18
780.771	45.13
780.95	46.03
781.128	46.03
781.306	46.21
781.484	45.49
781.662	45.9
781.841	46.43
782.019	45.59
782.197	45.91
782.375	45.31
782.553	45.44
782.731	46.14
782.909	45.46
783.087	45.48
783.265	44.73
783.443	44.49
783.621	44.93
783.799	45.49
783.977	46.58
784.155	46.36
784.333	46.4
784.511	46.77
784.689	46.46
784.867	46.13
785.045	46.97
785.223	47.25
785.4	47.46
785.578	46.89
785.756	45.93
785.934	46.25
786.112	44.86
786.289	44.29
786.467	43.51
786.645	43.82
786.823	43.42
787	43.28
787.178	43.12
787.356	44.13
787.533	43.74
787.711	43.58
787.889	42.32
788.066	43.47
788.244	42.84
788.421	42.82
788.599	41.9
788.776	42.75
788.954	42.64
789.131	43.05
789.309	42.48
789.486	42.33
789.664	43.06
789.841	43.42
790.019	43.33
790.196	43.93
790.373	43.95
790.551	45.06
790.728	44.36
790.906	44.51
791.083	43.48
791.26	43.99
791.437	44.63
791.615	44.59
791.792	44.12
791.969	44.04
792.146	43.84
792.324	44.01
792.501	43.43
792.678	43.8
792.855	42.31
793.032	43.51
793.209	43.66
793.387	42.9
793.564	43.74
793.741	45.22
793.918	44.53
794.095	44.94
794.272	44.46
794.449	44.89
794.626	45.19
794.803	46.95
794.98	47.41
795.157	46.43
795.334	46.65
795.511	45.65
795.688	44.23
795.864	44.88
796.041	44.73
796.218	45.25
796.395	44.52
796.572	45.51
796.749	44.49
796.925	44
797.102	44.16
797.279	44.48
797.456	44.49
797.632	44.84
797.809	43.88
797.986	44.54
798.162	44.81
798.339	45.45
798.516	43.68
798.692	43.68
798.869	43.83
799.046	43.56
799.222	43.43
799.399	43.11
799.575	43.93
799.752	45.07
799.928	45.74
800.105	44.89
800.281	43.51
800.458	44.26
800.634	44.25
800.811	43.18
800.987	44.1
801.163	44.21
801.34	44.01
801.516	44.1
801.692	43.5
801.869	42.28
802.045	42.41
802.221	44.12
802.398	44.02
802.574	43.21
802.75	44.03
802.926	43.3
803.103	44.05
803.279	45.07
803.455	44.35
803.631	45.7
803.807	45.6
803.983	46.68
804.16	46.24
804.336	46.08
804.512	47.44
804.688	48.12
804.864	48.23
805.04	48.36
805.216	48.49
805.392	48.34
805.568	47.18
805.744	45.87
805.92	45.4
806.096	45.67
806.272	45.26
806.448	46.49
806.623	45.91
806.799	46.18
806.975	44.49
807.151	44.02
807.327	43.49
807.503	43.57
807.678	45.97
807.854	46.08
808.03	45.46
808.206	45.51
808.381	44.16
808.557	44.5
808.733	43.33
808.908	43.7
809.084	43.41
809.26	44.82
809.435	44.36
809.611	43.65
809.787	44.01
809.962	44.02
810.138	42.8
810.313	42.66
810.489	42.14
810.664	43.51
810.84	43.79
811.015	45.14
811.191	44.16
811.366	44.96
811.542	44.46
811.717	44.76
811.892	45.22
812.068	46.82
812.243	45.89
812.419	46.22
812.594	45.07
812.769	45.21
812.944	45.69
813.12	45.28
813.295	45.64
813.47	45.51
813.645	44.87
813.821	44.92
813.996	44.34
814.171	45.36
814.346	45.35
814.521	45.09
814.697	45.51
814.872	42.08
815.047	43.02
815.222	42.71
815.397	41.12
815.572	39.35
815.747	38.66
815.922	38.03
816.097	36.12
816.272	36.5
816.447	37.47
816.622	35.87
816.797	37.71
816.972	37.75
817.147	37.79
817.322	38.73
817.496	38.93
817.671	39.02
817.846	39.35
818.021	40.56
818.196	38.97
818.371	38.55
818.545	39.62
818.72	39.62
818.895	40.04
819.069	39.93
819.244	40.24
819.419	42.32
819.594	42.88
819.768	43.11
819.943	44.35
820.117	44.92
820.292	45.11
820.467	44.91
820.641	44.59
820.816	44.56
820.99	44.61
821.165	45.25
821.339	44.88
821.514	44.8
821.688	44.78
821.863	44.5
822.037	44.37
822.212	44.6
822.386	44.5
822.56	44.42
822.735	44.23
822.909	44.25
823.084	44.1
823.258	44.21
823.432	44.43
823.606	44.6
823.781	44.69
823.955	44.92
824.129	44.73
824.303	45.19
824.478	45.31
824.652	45.73
824.826	45.91
825	45.74
825.174	45.49
825.348	44.76
825.523	44.37
825.697	43.89
825.871	43.52
826.045	43.39
826.219	43.24
826.393	43.11
826.567	42.65
826.741	42.68
826.915	43
827.089	42.93
827.263	43.06
827.437	43.45
827.611	44.04
827.784	44.17
827.958	44.88
828.132	44.45
828.306	44.82
828.48	44.6
828.654	44.03
828.827	43.72
829.001	43.36
829.175	43.5
829.349	42.64
829.522	41.96
829.696	41.44
829.87	40.23
830.044	40.58
830.217	40.69
830.391	41.83
830.565	41.68
830.738	41.19
830.912	40.79
831.085	40.57
831.259	41.83
831.432	41.9
831.606	43.02
831.779	42
831.953	41.79
832.126	40.9
832.3	39.73
832.473	40.25
832.647	41.08
832.82	42.06
832.994	42.1
833.167	42.27
833.34	42.53
833.514	41.63
833.687	42.77
833.86	42.99
834.034	43.11
834.207	43.24
834.38	43.11
834.553	43.15
834.727	42.48
834.9	42.58
835.073	42
835.246	42.14
835.419	42.2
835.593	41.04
835.766	40.58
835.939	40.38
836.112	39.55
836.285	39.65
836.458	38.96
836.631	39.7
836.804	39.9
836.977	39.17
837.15	38.52
837.323	39.79
837.496	40.36
837.669	40.07
837.842	40.59
838.015	41.88
838.188	41.43
838.361	42.67
838.533	43.04
838.706	42.45
838.879	43.82
839.052	42.54
839.225	41.59
839.398	41.48
839.57	42.01
839.743	44
839.916	43.8
840.088	44.15
840.261	43.76
840.434	43.54
840.607	43.16
840.779	42.79
840.952	44.06
841.124	43.49
841.297	43.92
841.47	45.05
841.642	42.78
841.815	44.82
841.987	45.22
842.16	43.91
842.332	43.69
842.505	43.82
842.677	43.97
842.85	41.63
843.022	43.92
843.194	43.64
843.367	40.4
843.539	40.59
843.712	38.8
843.884	39.75
844.056	42.05
844.229	44.02
844.401	45.46
844.573	46.54
844.745	48.17
844.918	45.54
845.09	47.37
845.262	49.33
845.434	50.14
845.606	48.73
845.779	47.51
845.951	47.86
846.123	45.19
846.295	45.59
846.467	46.28
846.639	49.23
846.811	50.2
846.983	49.6
847.155	49.5
847.327	48.76
847.499	51.41
847.671	51.03
847.843	49.29
848.015	51.05
848.187	48.04
848.359	49.04
848.531	45.31
848.703	42.56
848.875	40.22
849.047	37.28
849.218	36.65
849.39	35.59
849.562	36.03
849.734	38.47
849.905	38.23
850.077	37.71
850.249	32.67
850.421	31.98
850.592	37.42
850.764	38.75
850.936	41.7
851.107	41.42
851.279	41.88
851.451	39.91
851.622	34.12
851.794	32.02
851.965	33.67
852.137	37.03
852.308	38.6
852.48	37.07
852.651	36.18
852.823	37.13
852.994	34.9
853.166	35.62
853.337	38.57
853.509	41.28
853.68	42.43
853.851	41.36
854.023	39.35
854.194	38.79
854.365	41.36
854.537	41.67
854.708	39.13
854.879	47.73
855.05	48.2
855.222	49.92
855.393	48.92
855.564	48.01
855.735	49.38
855.906	47.25
856.078	48.23
856.249	44.88
856.42	47.32
856.591	50.39
856.762	43.82
856.933	40.56
857.104	35.59
857.275	36.94
857.446	36.15
857.617	37.58
857.788	41.4
857.959	44.01
858.13	45.64
858.301	45.37
858.472	42.94
858.643	44.04
858.814	46.38
858.985	47
859.155	48.86
859.326	50.44
859.497	47.94
859.668	44.48
859.839	41.31
860.009	38.11
860.18	38.3
860.351	39.89
860.522	39.63
860.692	39.11
860.863	41.02
861.034	38.57
861.204	36.33
861.375	39
861.546	41.17
861.716	39.19
861.887	44.3
862.057	42.42
862.228	40.88
862.398	38.89
862.569	38.05
862.739	35.37
862.91	33.32
863.08	36.3
863.251	34.28
863.421	35.56
863.592	39.66
863.762	37.32
863.932	40
864.103	43.5
864.273	46.73
864.443	47.69
864.614	48.44
864.784	51.34
864.954	53.2
865.125	55.82
865.295	53.56
865.465	50.87
865.635	48.08
865.805	45.12
865.976	40.73
866.146	46.71
866.316	46.37
866.486	44.83
866.656	43.41
866.826	38.8
866.996	35.02
867.166	36.26
867.336	37.61
867.506	44.82
867.676	43.54
867.846	47.23
868.016	40.13
868.186	41.43
868.356	46.22
868.526	46.78
868.696	46.29
868.866	49.36
869.036	47.57
869.206	45.91
869.376	44.72
869.545	47.68
869.715	43.53
869.885	44.75
870.055	44.36
870.224	41.35
870.394	41.82
870.564	43.56
870.734	41.4
870.903	41.49
871.073	46.99
871.243	45.64
871.412	43.55
871.582	46.17
871.751	44.51
871.921	45.61
872.091	47.67
872.26	47.92
872.43	45.8
872.599	45.23
872.769	45.1
872.938	42.84
873.108	42.34
873.277	42.87
873.446	42.46
873.616	41.77
873.785	37.91
873.955	34.92
874.124	33.07
874.293	34.42
874.463	36.94
874.632	41.85
874.801	38.27
874.971	40.92
875.14	42.16
875.309	38.4
875.478	40.87
875.647	43.54
875.817	46.06
875.986	50.94
876.155	51.69
876.324	49.93
876.493	48
876.662	56.29
876.831	55.94
877	57.23
877.17	61.32
877.339	59.9
877.508	59.27
877.677	60.63
877.846	59.89
878.015	54.58
878.184	51.95
878.352	49.09
878.521	45.35
878.69	41.45
878.859	39.65
879.028	37.9
879.197	38.63
879.366	37.72
879.534	36.19
879.703	33.34
879.872	38.21
880.041	39
880.21	40.69
880.378	39.83
880.547	40.82
880.716	39.52
880.884	40.27
881.053	40.28
881.222	40.45
881.39	41.13
881.559	40.76
881.727	40.04
881.896	40.43
882.065	39.67
882.233	40.61
882.402	40.56
882.57	41.51
882.739	41.31
882.907	41.69
883.076	41.23
883.244	41.15
883.412	42.18
883.581	42.12
883.749	41.86
883.918	41.58
884.086	40.36
884.254	40.03
884.423	39.05
884.591	38.97
884.759	38.12
884.927	38.1
885.096	36.77
885.264	35.17
885.432	36.71
885.6	35.92
885.769	37.18
885.937	39.18
886.105	38.76
886.273	39.46
886.441	39.79
886.609	39.78
886.777	42.22
886.945	45.6
887.113	46.03
887.281	42.76
887.449	45.15
887.617	44.77
887.785	43.13
887.953	44.01
888.121	43.24
888.289	41.23
888.457	39.58
888.625	39.78
888.793	36.23
888.961	36.94
889.129	38.93
889.296	37.82
889.464	37.1
889.632	36.44
889.8	37.64
889.967	39.91
890.135	43.34
