Data from 2938751__Reflection_02.txt Node
Date: Sat Mar 14 14:35:03 EDT 2015
User: robert
Spectrometer: USB4E03002
Autoset integration time: false
Trigger mode: 4
Integration Time (sec): 1.000000E-1
Scans to average: 10
Electric dark correction enabled: false
Nonlinearity correction enabled: false
Boxcar width: 5
Stray light correction enabled: false
XAxis mode: Wavelengths
Stop averaging: false
Number of Pixels in Spectrum: 3648
>>>>>Begin Spectral Data<<<<<
177.575	158.78
177.794	267.86
178.014	385.4
178.233	373.53
178.452	270.59
178.672	234.26
178.891	342.76
179.11	199.66
179.33	291.93
179.549	-5862.5
179.768	-139.63
179.987	-41.87
180.207	6.58
180.426	11.19
180.645	6.99
180.864	37.03
181.084	42.22
181.303	41.86
181.522	62.63
181.741	72.87
181.96	113.1
182.179	-206.06
182.398	-1.14
182.618	-31.37
182.837	-12.4
183.056	35.6
183.275	90.26
183.494	97.68
183.713	75.7
183.932	55.53
184.151	54.3
184.37	142.14
184.589	61.45
184.808	84.53
185.027	45.55
185.246	21.51
185.465	-0.46
185.684	80.78
185.903	112.12
186.122	116.62
186.341	121.64
186.56	228.77
186.779	345.57
186.998	1804.17
187.216	-283.33
187.435	-523.53
187.654	658.82
187.873	203.68
188.092	154.02
188.311	148.08
188.53	68.75
188.748	87.73
188.967	33.04
189.186	16.36
189.405	37.5
189.623	-566.67
189.842	-47.56
190.061	56.38
190.28	210.81
190.498	3625
190.717	-2116.67
190.936	-561.7
191.154	487.72
191.373	-1433.33
191.592	148.98
191.81	343.18
192.029	327.27
192.248	-359.04
192.466	921.21
192.685	0
192.904	469.09
193.122	101.52
193.341	107.55
193.559	95.65
193.778	114.79
193.996	31.97
194.215	61.25
194.433	613.33
194.652	176.47
194.87	76
195.089	81.5
195.307	89.05
195.526	47.52
195.744	41.94
195.963	27.37
196.181	31.89
196.399	43.15
196.618	48.2
196.836	37.6
197.055	25
197.273	26.95
197.491	252.38
197.71	-962.5
197.928	4160
198.146	116.34
198.365	35.14
198.583	19.48
198.801	-88.4
199.019	-17.15
199.238	20.72
199.456	27.27
199.674	30.4
199.892	30.23
200.111	33.47
200.329	72.18
200.547	73.75
200.765	121.61
200.983	107.66
201.202	105.64
201.42	111.59
201.638	72.2
201.856	4.11
202.074	-32.06
202.292	38.51
202.51	-5.88
202.728	-147.62
202.946	-258.33
203.165	-37.1
203.383	-6.52
203.601	1.88
203.819	-20.18
204.037	28.86
204.255	82.44
204.473	63.14
204.691	40.25
204.909	53.47
205.127	60
205.345	56.22
205.562	48.32
205.78	39.32
205.998	40.96
206.216	48.59
206.434	40.77
206.652	12.26
206.87	37.16
207.088	93.13
207.306	190.48
207.523	-196
207.741	-6850
207.959	44.74
208.177	-245.45
208.395	-161.11
208.612	-45.38
208.83	13.46
209.048	-19.09
209.266	145.83
209.483	533.33
209.701	-111.54
209.919	141.86
210.136	980
210.354	19.15
210.572	-112.12
210.79	161.9
211.007	-192.73
211.225	-317.14
211.442	-127.78
211.66	-61.09
211.878	-92.69
212.095	44.43
212.313	49.95
212.53	34.21
212.748	42.38
212.966	34.11
213.183	9.79
213.401	27.88
213.618	37.64
213.836	66.02
214.053	73.41
214.271	72.68
214.488	-71.43
214.705	-35.16
214.923	61.38
215.14	1.04
215.358	-564.29
215.575	1516.67
215.793	146.88
216.01	1116.67
216.227	-233.33
216.445	-34.38
216.662	-361.76
216.879	-40.16
217.097	-85.51
217.314	-122.86
217.531	-8.76
217.749	-14.94
217.966	9.47
218.183	8.09
218.4	23.27
218.618	43.44
218.835	39.34
219.052	47.87
219.269	33.99
219.487	17.37
219.704	25.44
219.921	22.87
220.138	0.3
220.355	10.74
220.572	0
220.79	-1.46
221.007	-18.36
221.224	-56.47
221.441	-40.95
221.658	-8.42
221.875	-7.82
222.092	-1.78
222.309	-3.41
222.526	-24.4
222.743	-40.29
222.96	-51.71
223.177	-39.82
223.394	-48.53
223.611	-44.72
223.828	-41.31
224.045	-40.06
224.262	-27.14
224.479	-35.09
224.696	-28.52
224.913	-2.03
225.13	-0.26
225.347	-0.17
225.564	-2.23
225.781	4.1
225.997	5.67
226.214	-1.36
226.431	-1.21
226.648	2.19
226.865	0.76
227.082	-0.19
227.298	-1.68
227.515	-1.02
227.732	2.35
227.949	0.7
228.165	-0.67
228.382	0.01
228.599	1.64
228.816	1.39
229.032	0.39
229.249	0.33
229.466	-0.44
229.682	-0.01
229.899	1.05
230.116	0.07
230.332	0.56
230.549	1.15
230.765	-0.16
230.982	1.22
231.199	2.66
231.415	2.78
231.632	2.54
231.848	1.61
232.065	2.3
232.281	-1.7
232.498	-2.43
232.714	0.03
232.931	-1.01
233.147	-2.2
233.364	-4.3
233.58	-7.56
233.797	-6.07
234.013	-3.6
234.23	-1.43
234.446	-2.73
234.662	-0.99
234.879	-1.61
235.095	-3.8
235.312	-2.09
235.528	-0.59
235.744	-0.66
235.961	-0.26
236.177	-0.91
236.393	0.14
236.61	0.23
236.826	-0.06
237.042	-0.27
237.258	1.72
237.475	2.15
237.691	1.19
237.907	3
238.123	6.05
238.339	5.64
238.556	5.68
238.772	3.55
238.988	4.74
239.204	3.16
239.42	5.78
239.636	6.25
239.853	6.17
240.069	5.14
240.285	2.5
240.501	1.1
240.717	1.27
240.933	0.29
241.149	0.18
241.365	-0.13
241.581	0.65
241.797	-0.31
242.013	-0.25
242.229	0.03
242.445	0.06
242.661	0.62
242.877	0.13
243.093	1.19
243.309	1.52
243.525	1.28
243.741	1.26
243.957	1.32
244.173	1.08
244.388	-0.04
244.604	0.44
244.82	1.42
245.036	1.63
245.252	1.72
245.468	0.35
245.683	1.21
245.899	2.05
246.115	1.72
246.331	2.22
246.547	2.58
246.762	2.93
246.978	2.64
247.194	2.3
247.409	1.83
247.625	2.02
247.841	1.93
248.057	1.29
248.272	1.43
248.488	1.4
248.703	1.1
248.919	0.76
249.135	0.85
249.35	0.39
249.566	0.62
249.782	0.65
249.997	0.58
250.213	1.64
250.428	3.86
250.644	2.29
250.859	1.99
251.075	1.16
251.29	0.88
251.506	-0.19
251.721	0.48
251.937	-1.32
252.152	-0.13
252.368	-0.68
252.583	-0.47
252.798	-2.71
253.014	-2.07
253.229	-1.65
253.445	-0.94
253.66	-0.42
253.875	0.14
254.091	-0.2
254.306	0.53
254.521	-0.16
254.737	0.57
254.952	-0.41
255.167	1.17
255.383	1.21
255.598	0.77
255.813	1.09
256.028	1.42
256.244	0.5
256.459	0.88
256.674	1.71
256.889	0.54
257.104	0.95
257.32	1.47
257.535	0.36
257.75	0.22
257.965	0.84
258.18	0.78
258.395	0.62
258.61	1.21
258.826	0.73
259.041	1.19
259.256	1.54
259.471	1.28
259.686	0.98
259.901	1.48
260.116	1.68
260.331	1.39
260.546	0.89
260.761	0.69
260.976	0.58
261.191	0.52
261.406	-0.12
261.621	-0.29
261.836	-0.76
262.05	-0.75
262.265	-1.37
262.48	-1.99
262.695	-2.38
262.91	-2.19
263.125	-2.04
263.34	-1.59
263.555	-0.45
263.769	0.26
263.984	1.7
264.199	2.44
264.414	2.62
264.629	2.81
264.843	3.18
265.058	3.59
265.273	3.86
265.488	3.59
265.702	3.16
265.917	2.56
266.132	3.43
266.346	2.4
266.561	2.32
266.776	1.77
266.99	1.84
267.205	1.59
267.42	0.93
267.634	0.61
267.849	1.32
268.063	1.51
268.278	1.58
268.492	0.98
268.707	0.75
268.922	1.16
269.136	1.75
269.351	1.88
269.565	1.59
269.78	2.5
269.994	2.14
270.209	1.35
270.423	1.16
270.637	0.82
270.852	0.44
271.066	0.98
271.281	0.89
271.495	0.59
271.709	0.22
271.924	0.02
272.138	-0.31
272.353	0.03
272.567	-0.24
272.781	-0.94
272.996	-0.74
273.21	-0.1
273.424	-0.7
273.638	-0.7
273.853	-0.73
274.067	-0.61
274.281	-0.25
274.495	-0.08
274.71	0.18
274.924	0.74
275.138	0.89
275.352	0.44
275.566	0.13
275.781	0.31
275.995	-0.43
276.209	0.07
276.423	-0.27
276.637	-0.35
276.851	-0.19
277.065	-0.69
277.279	-0.77
277.493	0.04
277.707	0.4
277.921	0.76
278.135	0.62
278.349	1.11
278.563	0.59
278.777	0.46
278.991	0.63
279.205	0.09
279.419	0.68
279.633	0.75
279.847	0.84
280.061	0.81
280.275	-0.06
280.489	0.04
280.703	0.23
280.917	0.53
281.131	0.02
281.344	-0.35
281.558	-0.42
281.772	-0.59
281.986	-0.6
282.2	-0.84
282.414	-1.25
282.627	-0.96
282.841	-0.94
283.055	-1.5
283.269	-1.51
283.482	-0.67
283.696	-0.26
283.91	-0.28
284.123	-0.25
284.337	-0
284.551	-0.1
284.764	0.08
284.978	-0.3
285.192	-0.43
285.405	0.05
285.619	-0.61
285.833	-0.33
286.046	-0.6
286.26	-0.15
286.473	0.12
286.687	0.02
286.9	-0.17
287.114	-0.23
287.327	0.11
287.541	0.24
287.754	-0.01
287.968	0.56
288.181	0.31
288.395	0.35
288.608	-0.03
288.822	-0.45
289.035	-0.23
289.248	0.13
289.462	0.27
289.675	-0.24
289.889	0.33
290.102	0.01
290.315	-0.05
290.529	-0.07
290.742	-0.15
290.955	0.23
291.169	0.58
291.382	0.32
291.595	0.28
291.808	0.27
292.022	0.51
292.235	-0.2
292.448	0.18
292.661	-0.1
292.875	-0.4
293.088	-0.5
293.301	-0.98
293.514	-0.9
293.727	-0.84
293.94	-0.88
294.153	-0.87
294.367	-0.22
294.58	0.5
294.793	0.44
295.006	0.69
295.219	0.96
295.432	1.42
295.645	1.41
295.858	1.21
296.071	0.96
296.284	0.97
296.497	1.08
296.71	0.8
296.923	0.42
297.136	0.34
297.349	0.31
297.562	0.33
297.775	0.33
297.988	0.53
298.201	0.46
298.414	0.6
298.626	0.88
298.839	0.8
299.052	0.61
299.265	0.49
299.478	0.47
299.691	0.7
299.903	0.27
300.116	0.49
300.329	0.57
300.542	0.6
300.755	0.72
300.967	0.39
301.18	0.39
301.393	0.15
301.605	0.43
301.818	0.39
302.031	0.34
302.243	0.88
302.456	0.48
302.669	0.45
302.881	0.7
303.094	0.04
303.307	0.2
303.519	0.17
303.732	1
303.944	0.77
304.157	0.91
304.37	0.97
304.582	0.46
304.795	0.67
305.007	0.63
305.22	0.23
305.432	0.83
305.645	1.01
305.857	1.22
306.069	0.89
306.282	0.92
306.494	0.88
306.707	0.49
306.919	1.22
307.132	1.06
307.344	0.84
307.556	1.32
307.769	1.32
307.981	1.12
308.193	1.41
308.406	1.43
308.618	1.43
308.83	1.67
309.043	1.89
309.255	1.84
309.467	1.64
309.679	1.47
309.892	1.25
310.104	1.12
310.316	1.09
310.528	0.79
310.74	0.78
310.953	0.6
311.165	0.88
311.377	1.17
311.589	0.87
311.801	1.29
312.013	1.68
312.225	1.89
312.437	2.15
312.649	2.05
312.862	2.1
313.074	2.01
313.286	2.63
313.498	2.63
313.71	2.19
313.922	2.54
314.134	2.16
314.346	2.04
314.558	1.43
314.77	1.63
314.982	1.96
315.193	2.41
315.405	2.85
315.617	3.05
315.829	2.56
316.041	2.61
316.253	2.4
316.465	2.42
316.677	2.56
316.888	3.17
317.1	2.55
317.312	2.22
317.524	1.7
317.736	2
317.947	1.23
318.159	1.47
318.371	1.89
318.583	2.03
318.794	2.05
319.006	1.8
319.218	1.61
319.43	1.98
319.641	1.87
319.853	2.22
320.064	1.36
320.276	1.44
320.488	1.59
320.699	1.78
320.911	1.72
321.123	2.07
321.334	2.58
321.546	2.72
321.757	2.72
321.969	2.99
322.18	2.89
322.392	3.3
322.603	4.42
322.815	4.3
323.026	3.77
323.238	3.79
323.449	3.81
323.661	3.68
323.872	3.73
324.083	3.76
324.295	4.1
324.506	4.23
324.718	4.87
324.929	4.62
325.14	4.73
325.352	5.17
325.563	5.23
325.774	5.43
325.986	5.96
326.197	6.62
326.408	6.83
326.62	6.86
326.831	7.17
327.042	7.14
327.253	7.39
327.464	8.07
327.676	8.48
327.887	9
328.098	9.29
328.309	9.07
328.52	9.12
328.732	9.35
328.943	9.68
329.154	9.77
329.365	9.77
329.576	9.49
329.787	9.75
329.998	9.47
330.209	9.98
330.42	9.55
330.631	10.12
330.842	10.17
331.053	10.08
331.264	10.46
331.475	10.67
331.686	11.11
331.897	11.87
332.108	11.18
332.319	11.51
332.53	10.95
332.741	11.68
332.952	11.69
333.163	11.68
333.374	11.96
333.585	12.19
333.795	12.62
334.006	12.54
334.217	12.22
334.428	12.97
334.639	13.43
334.849	13.9
335.06	13.95
335.271	14.31
335.482	14.52
335.692	14.99
335.903	15.16
336.114	15.12
336.325	14.99
336.535	15.38
336.746	15.53
336.957	15.82
337.167	15.96
337.378	16.4
337.589	16.35
337.799	16.83
338.01	17.03
338.22	17.25
338.431	17.27
338.642	17.49
338.852	17.09
339.063	17.06
339.273	16.6
339.484	16.69
339.694	16.69
339.905	16.52
340.115	16.02
340.326	15.71
340.536	15.34
340.746	15.15
340.957	14.89
341.167	15.25
341.378	15.27
341.588	15.33
341.799	15.02
342.009	14.63
342.219	14.61
342.43	14.5
342.64	14.74
342.85	14.59
343.061	14.82
343.271	14.96
343.481	15.09
343.691	15.03
343.902	14.82
344.112	15.33
344.322	15.43
344.532	15.56
344.743	15.41
344.953	15.32
345.163	15.61
345.373	16.01
345.583	16.05
345.793	15.64
346.004	15.6
346.214	15.65
346.424	15.88
346.634	16.2
346.844	16.21
347.054	16.33
347.264	16.3
347.474	16.25
347.684	15.64
347.894	15.76
348.104	15.77
348.314	15.58
348.524	15.94
348.734	15.39
348.944	14.95
349.154	14.72
349.364	15
349.574	14.92
349.784	14.78
349.994	14.97
350.204	14.99
350.413	15.34
350.623	15.95
350.833	15.73
351.043	15.54
351.253	15.93
351.463	16.06
351.672	16.25
351.882	16.17
352.092	16.25
352.302	15.79
352.511	15.56
352.721	15.17
352.931	14.63
353.141	15.01
353.35	15.49
353.56	15.07
353.77	14.97
353.979	14.78
354.189	14.57
354.399	14.44
354.608	14.82
354.818	14.83
355.027	15.01
355.237	14.96
355.447	14.79
355.656	14.52
355.866	14.68
356.075	14.7
356.285	14.58
356.494	15.09
356.704	14.98
356.913	15.13
357.123	15.05
357.332	14.87
357.542	14.91
357.751	14.92
357.96	15.04
358.17	15.25
358.379	15.16
358.589	15.28
358.798	14.8
359.007	14.62
359.217	14.58
359.426	14.65
359.635	14.94
359.845	15.01
360.054	14.82
360.263	14.7
360.472	14.39
360.682	14.29
360.891	14.3
361.1	14.41
361.309	14.7
361.519	14.53
361.728	14.61
361.937	14.49
362.146	14.34
362.355	14.32
362.564	14.32
362.774	14.29
362.983	14.58
363.192	14.49
363.401	14.45
363.61	14.32
363.819	14.32
364.028	14.13
364.237	14.16
364.446	14.34
364.655	14.26
364.864	14.23
365.073	14.6
365.282	14.44
365.491	14.5
365.7	14.59
365.909	14.68
366.118	14.88
366.327	15.16
366.536	15.12
366.745	15.16
366.954	15.25
367.162	15.16
367.371	15.02
367.58	15.12
367.789	14.93
367.998	15.02
368.207	14.93
368.415	14.98
368.624	14.57
368.833	14.46
369.042	14.46
369.25	14.45
369.459	14.46
369.668	14.2
369.877	14.1
370.085	14.06
370.294	13.81
370.503	13.83
370.711	13.55
370.92	14.04
371.129	13.91
371.337	13.82
371.546	13.78
371.754	13.74
371.963	13.48
372.171	13.53
372.38	13.62
372.589	14.02
372.797	13.83
373.006	13.85
373.214	13.5
373.423	13.8
373.631	13.47
373.84	13.5
374.048	13.52
374.256	14.02
374.465	13.86
374.673	13.73
374.882	13.46
375.09	13.53
375.298	13.59
375.507	13.94
375.715	13.77
375.923	14.02
376.132	14.15
376.34	14.16
376.548	13.8
376.757	13.86
376.965	13.91
377.173	13.92
377.381	14.11
377.59	14.12
377.798	13.99
378.006	14.25
378.214	14.33
378.423	14.09
378.631	14.11
378.839	14.22
379.047	14.08
379.255	14.01
379.463	14.14
379.671	13.97
379.879	13.69
380.088	13.53
380.296	13.25
380.504	13
380.712	13.04
380.92	13.02
381.128	13.12
381.336	13.2
381.544	13.51
381.752	13.33
381.96	13.43
382.168	13.68
382.376	13.74
382.584	13.54
382.791	13.72
382.999	13.66
383.207	13.45
383.415	13.3
383.623	13.27
383.831	13.19
384.039	13.18
384.247	13.08
384.454	13.04
384.662	12.9
384.87	13.03
385.078	12.81
385.285	12.9
385.493	12.94
385.701	12.83
385.909	12.89
386.116	12.63
386.324	12.67
386.532	12.63
386.739	12.66
386.947	12.67
387.155	12.81
387.362	12.97
387.57	12.87
387.778	12.69
387.985	12.99
388.193	13.04
388.4	13.09
388.608	12.89
388.816	12.87
389.023	12.63
389.231	12.65
389.438	12.65
389.646	12.64
389.853	12.68
390.061	12.97
390.268	12.9
390.475	12.9
390.683	13
390.89	12.89
391.098	12.93
391.305	13
391.512	12.78
391.72	12.61
391.927	12.74
392.135	12.87
392.342	12.69
392.549	12.77
392.756	12.73
392.964	12.79
393.171	13.06
393.378	13.12
393.586	13.21
393.793	13.24
394	13.41
394.207	13.14
394.414	13.11
394.622	13.19
394.829	13.09
395.036	13.08
395.243	12.9
395.45	12.69
395.657	12.82
395.864	12.86
396.072	13.12
396.279	12.91
396.486	13.03
396.693	12.8
396.9	12.91
397.107	12.9
397.314	12.93
397.521	12.85
397.728	12.99
397.935	12.74
398.142	12.63
398.349	12.65
398.556	12.7
398.763	12.51
398.97	12.61
399.177	12.77
399.383	12.74
399.59	12.84
399.797	12.88
400.004	12.86
400.211	12.86
400.418	13.12
400.625	13.08
400.831	13.05
401.038	13.49
401.245	13.44
401.452	12.97
401.658	12.97
401.865	12.99
402.072	13.07
402.279	13.18
402.485	13.3
402.692	13.24
402.899	13.47
403.105	13.59
403.312	13.34
403.519	13.48
403.725	13.71
403.932	13.77
404.138	13.68
404.345	13.84
404.552	13.77
404.758	13.75
404.965	13.58
405.171	13.29
405.378	13.26
405.584	13.29
405.791	13.28
405.997	13.21
406.204	13.21
406.41	13.15
406.617	13
406.823	12.97
407.029	12.93
407.236	12.8
407.442	12.99
407.649	13.06
407.855	12.96
408.061	13.02
408.268	13.03
408.474	12.83
408.68	12.95
408.887	13.09
409.093	13.18
409.299	13.14
409.505	13.2
409.712	13.08
409.918	12.73
410.124	12.96
410.33	12.77
410.537	12.9
410.743	13.01
410.949	13.01
411.155	12.83
411.361	12.76
411.567	12.76
411.773	12.79
411.98	12.72
412.186	12.94
412.392	12.95
412.598	13.17
412.804	13.07
413.01	13.29
413.216	13.2
413.422	13.36
413.628	13.41
413.834	13.49
414.04	13.32
414.246	13.38
414.452	13.3
414.658	13.12
414.864	13
415.07	13.24
415.275	13.19
415.481	13.21
415.687	13.09
415.893	13.11
416.099	12.98
416.305	13.32
416.511	13.35
416.716	13.46
416.922	13.45
417.128	13.36
417.334	13.17
417.539	13.07
417.745	13.05
417.951	13.05
418.157	13.03
418.362	13.08
418.568	13.01
418.774	13.02
418.979	12.91
419.185	12.95
419.391	13.01
419.596	13.09
419.802	13.09
420.008	13.05
420.213	13.75
420.419	13.71
420.624	13.71
420.83	13.65
421.035	13.59
421.241	13.61
421.446	13.56
421.652	13.59
421.857	13.55
422.063	13.53
422.268	13.55
422.474	12.98
422.679	12.98
422.885	12.98
423.09	12.98
423.295	13
423.501	13.17
423.706	13.22
423.911	13.17
424.117	13.2
424.322	13.28
424.527	13.28
424.733	13.29
424.938	13.32
425.143	13.36
425.349	13.4
425.554	13.45
425.759	13.29
425.964	13.34
426.169	13.35
426.375	13.29
426.58	13.22
426.785	13.24
426.99	13.2
427.195	13.16
427.4	13.16
427.605	13.08
427.811	13.08
428.016	13.1
428.221	12.98
428.426	13.04
428.631	13.07
428.836	13.06
429.041	13.06
429.246	13.15
429.451	13.29
429.656	13.39
429.861	13.45
430.066	13.39
430.271	13.45
430.476	13.57
430.681	13.65
430.886	13.74
431.09	13.72
431.295	13.81
431.5	13.8
431.705	13.76
431.91	13.58
432.115	13.64
432.32	13.71
432.524	13.65
432.729	13.6
432.934	13.61
433.139	13.67
433.343	13.89
433.548	14.12
433.753	14.36
433.958	14.57
434.162	14.95
434.367	15.24
434.572	15.55
434.776	15.92
434.981	16.29
435.186	16.69
435.39	16.92
435.595	17.06
435.799	16.95
436.004	16.72
436.209	16.54
436.413	16.27
436.618	16
436.822	15.63
437.027	15.32
437.231	15.01
437.436	14.7
437.64	14.45
437.845	14.21
438.049	14.02
438.253	14.01
438.458	14.01
438.662	13.95
438.867	13.8
439.071	13.78
439.275	13.75
439.48	13.76
439.684	13.66
439.888	13.63
440.093	13.58
440.297	13.57
440.501	13.49
440.706	13.46
440.91	13.48
441.114	13.55
441.318	13.56
441.523	13.58
441.727	13.62
441.931	13.56
442.135	13.59
442.339	13.67
442.543	13.64
442.748	13.76
442.952	13.82
443.156	13.74
443.36	13.71
443.564	13.71
443.768	13.67
443.972	13.58
444.176	13.59
444.38	13.53
444.584	13.48
444.788	13.46
444.992	13.32
445.196	13.17
445.4	13.25
445.604	13.28
445.808	13.24
446.012	13.25
446.216	13.27
446.42	13.25
446.624	13.27
446.828	13.22
447.032	13.25
447.235	13.28
447.439	13.37
447.643	13.36
447.847	13.4
448.051	13.45
448.254	13.51
448.458	13.55
448.662	13.56
448.866	13.57
449.069	13.59
449.273	13.62
449.477	13.66
449.681	13.67
449.884	13.62
450.088	13.62
450.292	13.66
450.495	13.62
450.699	13.55
450.902	13.67
451.106	13.69
451.31	13.78
451.513	13.67
451.717	13.7
451.92	13.64
452.124	13.67
452.327	13.61
452.531	13.52
452.734	13.46
452.938	13.47
453.141	13.39
453.345	13.35
453.548	13.24
453.752	13.4
453.955	13.33
454.158	13.3
454.362	13.43
454.565	13.4
454.769	13.57
454.972	13.65
455.175	13.69
455.379	13.72
455.582	13.74
455.785	13.76
455.988	13.57
456.192	13.62
456.395	13.69
456.598	13.54
456.801	13.69
457.005	13.55
457.208	13.49
457.411	13.42
457.614	13.46
457.817	13.46
458.021	13.45
458.224	13.59
458.427	13.6
458.63	13.58
458.833	13.59
459.036	13.51
459.239	13.48
459.442	13.45
459.645	13.44
459.848	13.39
460.051	13.36
460.254	13.36
460.457	13.32
460.66	13.32
460.863	13.41
461.066	13.47
461.269	13.49
461.472	13.58
461.675	13.63
461.878	13.62
462.081	13.63
462.284	13.74
462.486	13.8
462.689	13.77
462.892	13.81
463.095	13.76
463.298	13.72
463.5	13.71
463.703	13.67
463.906	13.75
464.109	13.82
464.311	13.83
464.514	13.8
464.717	13.81
464.92	13.88
465.122	13.82
465.325	13.79
465.528	13.76
465.73	13.81
465.933	13.76
466.135	13.73
466.338	13.8
466.541	13.72
466.743	13.7
466.946	13.72
467.148	13.75
467.351	13.78
467.553	13.81
467.756	13.79
467.958	13.76
468.161	13.81
468.363	13.85
468.566	13.8
468.768	13.89
468.971	13.97
469.173	13.95
469.375	13.84
469.578	13.77
469.78	13.67
469.983	13.83
470.185	13.91
470.387	13.99
470.59	13.87
470.792	13.95
470.994	13.96
471.196	13.87
471.399	13.88
471.601	14
471.803	14.09
472.005	14.23
472.208	14.07
472.41	13.97
472.612	13.87
472.814	13.82
473.016	13.86
473.218	13.87
473.421	13.91
473.623	13.82
473.825	13.79
474.027	13.78
474.229	13.72
474.431	13.69
474.633	13.76
474.835	13.73
475.037	13.69
475.239	13.6
475.441	13.57
475.643	13.46
475.845	13.51
476.047	13.56
476.249	13.53
476.451	13.61
476.653	13.78
476.855	13.79
477.057	13.83
477.258	13.93
477.46	13.96
477.662	14.01
477.864	14.05
478.066	14.1
478.268	14.09
478.469	13.99
478.671	13.94
478.873	13.89
479.075	13.92
479.276	13.93
479.478	13.97
479.68	14.01
479.882	14.08
480.083	14.07
480.285	14.06
480.487	14.01
480.688	14.09
480.89	14.05
481.091	14.02
481.293	13.99
481.495	14.04
481.696	13.98
481.898	13.86
482.099	13.8
482.301	13.76
482.502	13.73
482.704	13.69
482.905	13.65
483.107	13.62
483.308	13.58
483.51	13.56
483.711	13.51
483.913	13.5
484.114	13.51
484.315	13.51
484.517	13.54
484.718	13.56
484.92	13.61
485.121	13.66
485.322	13.7
485.524	13.77
485.725	13.8
485.926	13.86
486.127	13.9
486.329	13.93
486.53	13.94
486.731	13.94
486.932	13.95
487.134	13.92
487.335	13.93
487.536	13.92
487.737	13.92
487.938	13.93
488.139	13.94
488.341	13.98
488.542	13.98
488.743	14.01
488.944	14.05
489.145	14.04
489.346	14.07
489.547	14.09
489.748	14.1
489.949	14.03
490.15	14.07
490.351	14.1
490.552	14.05
490.753	14.04
490.954	14.04
491.155	14.02
491.356	14.03
491.557	14.02
491.758	14.01
491.959	14
492.159	14.07
492.36	14.04
492.561	14.03
492.762	14.1
492.963	14.15
493.164	14.16
493.364	14.17
493.565	14.24
493.766	14.3
493.967	14.3
494.167	14.32
494.368	14.35
494.569	14.46
494.769	14.48
494.97	14.44
495.171	14.4
495.371	14.4
495.572	14.42
495.773	14.41
495.973	14.4
496.174	14.46
496.375	14.58
496.575	14.55
496.776	14.55
496.976	14.56
497.177	14.56
497.377	14.58
497.578	14.62
497.778	14.63
497.979	14.65
498.179	14.59
498.38	14.58
498.58	14.43
498.78	14.47
498.981	14.44
499.181	14.4
499.382	14.36
499.582	14.42
499.782	14.39
499.983	14.41
500.183	14.47
500.383	14.53
500.584	14.52
500.784	14.63
500.984	14.68
501.184	14.7
501.385	14.7
501.585	14.7
501.785	14.66
501.985	14.68
502.185	14.72
502.386	14.59
502.586	14.56
502.786	14.51
502.986	14.6
503.186	14.49
503.386	14.43
503.586	14.45
503.786	14.45
503.987	14.47
504.187	14.51
504.387	14.49
504.587	14.65
504.787	14.77
504.987	14.82
505.187	14.75
505.387	14.87
505.587	14.87
505.786	14.96
505.986	15.04
506.186	15.06
506.386	15.04
506.586	15.06
506.786	15.05
506.986	15.04
507.186	15.12
507.386	15.19
507.585	15.06
507.785	15.14
507.985	15.11
508.185	15.09
508.384	15.06
508.584	15.07
508.784	15.09
508.984	14.99
509.183	14.97
509.383	14.99
509.583	14.98
509.782	15.06
509.982	15.05
510.182	15.06
510.381	15.12
510.581	15.22
510.781	15.14
510.98	15.14
511.18	15.19
511.379	15.23
511.579	15.19
511.778	15.21
511.978	15.2
512.177	15.29
512.377	15.36
512.576	15.38
512.776	15.43
512.975	15.62
513.175	15.58
513.374	15.63
513.573	15.64
513.773	15.66
513.972	15.75
514.172	15.85
514.371	15.84
514.57	15.86
514.77	15.94
514.969	15.89
515.168	15.85
515.367	16.01
515.567	15.99
515.766	15.98
515.965	16.06
516.164	15.97
516.364	16
516.563	15.92
516.762	15.91
516.961	15.89
517.16	15.88
517.359	15.87
517.559	15.87
517.758	15.89
517.957	15.9
518.156	15.79
518.355	15.82
518.554	15.84
518.753	15.91
518.952	15.95
519.151	15.95
519.35	16.02
519.549	16.04
519.748	16.05
519.947	16.17
520.146	16.26
520.345	16.31
520.544	16.32
520.743	16.34
520.942	16.36
521.141	16.32
521.339	16.37
521.538	16.43
521.737	16.46
521.936	16.46
522.135	16.45
522.333	16.48
522.532	16.59
522.731	16.69
522.93	16.77
523.129	16.8
523.327	16.91
523.526	16.9
523.725	16.87
523.923	16.94
524.122	17
524.321	17.01
524.519	17.03
524.718	17.04
524.917	17.05
525.115	16.99
525.314	17.07
525.512	17.04
525.711	17.13
525.909	17.15
526.108	17.16
526.306	17.14
526.505	17.17
526.703	17.17
526.902	17.21
527.1	17.17
527.299	17.17
527.497	17.09
527.696	17.12
527.894	17.11
528.092	17.12
528.291	17.12
528.489	17.16
528.688	17.15
528.886	17.16
529.084	17.2
529.283	17.27
529.481	17.29
529.679	17.39
529.877	17.43
530.076	17.42
530.274	17.46
530.472	17.52
530.67	17.54
530.869	17.6
531.067	17.65
531.265	17.69
531.463	17.69
531.661	17.8
531.859	17.81
532.057	17.84
532.255	17.95
532.454	18.01
532.652	18.04
532.85	18.09
533.048	18.14
533.246	18.17
533.444	18.2
533.642	18.26
533.84	18.29
534.038	18.32
534.236	18.38
534.434	18.45
534.632	18.5
534.83	18.6
535.027	18.7
535.225	18.77
535.423	18.9
535.621	19.01
535.819	19.13
536.017	19.2
536.215	19.39
536.412	19.48
536.61	19.56
536.808	19.75
537.006	19.88
537.203	20.02
537.401	20.27
537.599	20.49
537.797	20.69
537.994	20.93
538.192	21.31
538.39	21.64
538.587	22.03
538.785	22.41
538.983	22.82
539.18	23.2
539.378	23.54
539.575	23.79
539.773	24.01
539.97	24.35
540.168	24.6
540.366	24.84
540.563	24.99
540.761	25.15
540.958	25.31
541.155	25.37
541.353	25.5
541.55	25.68
541.748	25.83
541.945	26.01
542.143	26.13
542.34	26.32
542.537	26.45
542.735	26.7
542.932	26.96
543.129	27.36
543.327	27.93
543.524	28.57
543.721	29.36
543.919	30.31
544.116	31.35
544.313	32.59
544.51	33.74
544.708	34.95
544.905	36.11
545.102	37.3
545.299	38.15
545.496	38.84
545.693	39.24
545.891	39.17
546.088	38.92
546.285	38.43
546.482	37.72
546.679	37.12
546.876	36.37
547.073	35.57
547.27	34.68
547.467	33.88
547.664	33.08
547.861	32.33
548.058	31.85
548.255	31.46
548.452	31.12
548.649	30.76
548.846	30.44
549.043	30.05
549.24	29.73
549.437	29.44
549.633	29.11
549.83	28.85
550.027	28.58
550.224	28.21
550.421	27.93
550.618	27.58
550.814	27.27
551.011	26.97
551.208	26.67
551.405	26.28
551.601	25.92
551.798	25.69
551.995	25.34
552.191	25.09
552.388	24.82
552.585	24.5
552.781	24.35
552.978	24.14
553.175	23.95
553.371	23.79
553.568	23.7
553.764	23.61
553.961	23.51
554.157	23.37
554.354	23.29
554.55	23.22
554.747	23.27
554.943	23.13
555.14	23.07
555.336	22.94
555.533	23.03
555.729	23.02
555.926	23
556.122	22.97
556.318	23.05
556.515	23.09
556.711	23.17
556.907	23.13
557.104	23.2
557.3	23.18
557.496	23.1
557.693	22.98
557.889	23.06
558.085	22.92
558.281	22.9
558.478	22.81
558.674	22.82
558.87	22.83
559.066	22.78
559.262	22.79
559.459	22.81
559.655	22.95
559.851	22.9
560.047	22.72
560.243	22.93
560.439	23.06
560.635	23.11
560.831	23.01
561.027	22.81
561.223	22.9
561.419	22.87
561.615	22.94
561.811	22.93
562.007	23.08
562.203	23.26
562.399	23.16
562.595	23.01
562.791	23.03
562.987	23.05
563.183	23.07
563.379	22.91
563.575	22.97
563.771	22.86
563.966	22.72
564.162	22.67
564.358	22.54
564.554	22.59
564.75	22.55
564.945	22.51
565.141	22.46
565.337	22.52
565.533	22.55
565.728	22.49
565.924	22.6
566.12	22.63
566.315	22.6
566.511	22.76
566.707	22.68
566.902	22.74
567.098	22.71
567.293	22.74
567.489	22.73
567.684	22.84
567.88	22.77
568.076	22.68
568.271	22.71
568.467	22.74
568.662	22.67
568.858	22.82
569.053	22.77
569.248	22.86
569.444	22.84
569.639	22.8
569.835	22.75
570.03	22.85
570.225	22.79
570.421	22.78
570.616	22.74
570.812	22.76
571.007	22.67
571.202	22.68
571.397	22.67
571.593	22.69
571.788	22.73
571.983	22.77
572.178	22.76
572.374	22.79
572.569	22.84
572.764	22.95
572.959	22.94
573.154	23.02
573.35	23.04
573.545	23.01
573.74	23.09
573.935	23.2
574.13	23.25
574.325	23.34
574.52	23.59
574.715	23.78
574.91	24.03
575.105	24.32
575.3	24.62
575.495	24.91
575.69	25.32
575.885	25.8
576.08	26.26
576.275	26.77
576.47	27.3
576.665	27.65
576.86	28.02
577.055	28.25
577.25	28.48
577.444	28.85
577.639	29.32
577.834	29.62
578.029	29.91
578.224	30.17
578.418	30.24
578.613	30.33
578.808	30.46
579.003	30.56
579.197	30.56
579.392	30.66
579.587	30.56
579.781	30.32
579.976	30.24
580.171	30.02
580.365	29.92
580.56	29.83
580.755	29.82
580.949	29.8
581.144	29.71
581.338	29.73
581.533	29.76
581.727	29.88
581.922	29.97
582.116	30.11
582.311	30.2
582.505	30.11
582.7	30.28
582.894	30.33
583.089	30.46
583.283	30.48
583.478	30.67
583.672	30.71
583.866	30.72
584.061	30.99
584.255	30.9
584.449	30.98
584.644	31.18
584.838	31.34
585.032	31.49
585.226	31.7
585.421	32.19
585.615	32.54
585.809	32.96
586.003	33.31
586.198	33.41
586.392	33.74
586.586	33.94
586.78	34.12
586.974	34.08
587.168	33.9
587.363	33.69
587.557	33.42
587.751	32.82
587.945	32.39
588.139	32.05
588.333	31.62
588.527	31.07
588.721	30.76
588.915	30.33
589.109	30.1
589.303	29.92
589.497	29.79
589.691	29.55
589.885	29.63
590.079	29.6
590.273	29.65
590.466	29.95
590.66	30.21
590.854	30.49
591.048	30.77
591.242	31.01
591.436	31.4
591.629	31.71
591.823	31.98
592.017	32.29
592.211	32.61
592.404	32.65
592.598	32.62
592.792	32.74
592.986	32.56
593.179	32.39
593.373	32.15
593.567	31.92
593.76	31.55
593.954	31.29
594.147	30.89
594.341	30.46
594.535	30.2
594.728	29.94
594.922	29.47
595.115	29.15
595.309	29.01
595.502	28.67
595.696	28.45
595.889	28.29
596.083	28.18
596.276	28.08
596.47	27.96
596.663	27.89
596.856	27.83
597.05	28
597.243	28.02
597.437	28.11
597.63	28.52
597.823	28.78
598.017	29.21
598.21	29.52
598.403	29.87
598.596	30.16
598.79	30.53
598.983	30.65
599.176	30.82
599.369	31.09
599.563	31.13
599.756	31.17
599.949	31.19
600.142	31.05
600.335	31.01
600.528	30.86
600.722	30.82
600.915	30.56
601.108	30.5
601.301	30.18
601.494	29.86
601.687	29.7
601.88	29.26
602.073	28.88
602.266	28.57
602.459	28.26
602.652	27.93
602.845	27.65
603.038	27.33
603.231	27.14
603.424	27.02
603.617	26.95
603.809	26.81
604.002	26.84
604.195	26.87
604.388	26.87
604.581	26.88
604.774	27.06
604.966	27.16
605.159	27.4
605.352	27.58
605.545	27.88
605.737	28.18
605.93	28.54
606.123	28.93
606.316	29.34
606.508	29.8
606.701	30.24
606.894	30.73
607.086	31.48
607.279	32.35
607.471	33.16
607.664	34.02
607.857	35.25
608.049	36.47
608.242	38.15
608.434	40.29
608.627	43.09
608.819	46.5
609.012	50.3
609.204	54.46
609.397	58.9
609.589	63.99
609.782	69.5
609.974	74.91
610.166	80.6
610.359	85.98
610.551	90.98
610.743	95.49
610.936	99.32
611.128	102.34
611.32	104.24
611.513	105.38
611.705	105.46
611.897	104.63
612.09	103.12
612.282	100.89
612.474	98.53
612.666	95.84
612.858	92.58
613.051	89.42
613.243	86.5
613.435	83.75
613.627	80.86
613.819	78.13
614.011	75.56
614.203	72.86
614.395	70.43
614.588	67.96
614.78	65.13
614.972	62.82
615.164	60.53
615.356	58.16
615.548	55.85
615.74	53.83
615.932	52
616.124	50.04
616.315	48.76
616.507	47.35
616.699	45.61
616.891	44.58
617.083	43.36
617.275	42.15
617.467	41.16
617.659	40.38
617.85	39.69
618.042	38.92
618.234	38.51
618.426	37.74
618.618	37.29
618.809	37.24
619.001	36.84
619.193	36.64
619.384	36.43
619.576	36.27
619.768	36.29
619.959	36.16
620.151	36.16
620.343	36.07
620.534	36.18
620.726	36.05
620.917	35.85
621.109	35.95
621.301	35.98
621.492	36.17
621.684	36.44
621.875	36.56
622.067	37
622.258	37.16
622.45	37.26
622.641	37.51
622.832	37.68
623.024	37.87
623.215	38.13
623.407	38.24
623.598	38.37
623.789	38.34
623.981	38.39
624.172	38.22
624.363	38.12
624.555	38.15
624.746	38.22
624.937	37.95
625.129	38.03
625.32	37.7
625.511	37.54
625.702	37.43
625.893	37.28
626.085	37.15
626.276	37.08
626.467	37.11
626.658	37.12
626.849	36.75
627.04	36.82
627.231	36.73
627.422	36.79
627.614	36.83
627.805	36.8
627.996	37.15
628.187	37.37
628.378	37.85
628.569	38.39
628.76	39.07
628.951	39.92
629.142	40.75
629.332	41.63
629.523	42.37
629.714	43.08
629.905	43.95
630.096	44.44
630.287	45.02
630.478	45.03
630.669	44.94
630.859	44.66
631.05	44.04
631.241	43.36
631.432	42.48
631.623	41.74
631.813	40.56
632.004	39.5
632.195	38.4
632.385	37.38
632.576	36.52
632.767	35.54
632.957	34.69
633.148	34.02
633.339	33.5
633.529	33.01
633.72	32.36
633.91	32.2
634.101	31.84
634.292	31.54
634.482	31.17
634.673	30.94
634.863	30.75
635.054	30.53
635.244	30.43
635.435	30.24
635.625	30.18
635.815	30.26
636.006	30.31
636.196	30.22
636.387	30.2
636.577	30.15
636.767	30.02
636.958	30.08
637.148	30.19
637.338	30.27
637.529	30.36
637.719	30.33
637.909	30.3
638.099	30.19
638.29	30.13
638.48	29.95
638.67	29.93
638.86	29.99
639.05	29.85
639.241	29.96
639.431	30.09
639.621	30
639.811	30.01
640.001	30.08
640.191	30.18
640.381	30.25
640.571	30.41
640.761	30.65
640.951	30.75
641.141	31.01
641.331	30.91
641.521	30.8
641.711	31.12
641.901	31.03
642.091	31.28
642.281	31.37
642.471	31.58
642.661	31.71
642.851	31.63
643.041	31.66
643.231	31.52
643.42	31.62
643.61	31.53
643.8	31.44
643.99	31.56
644.18	31.31
644.369	31.17
644.559	31
644.749	30.9
644.939	30.73
645.128	30.79
645.318	31.06
645.508	30.81
645.697	30.88
645.887	30.72
646.076	30.64
646.266	30.8
646.456	31.16
646.645	31.15
646.835	31.01
647.024	31.19
647.214	31.2
647.403	31.37
647.593	31.76
647.782	31.82
647.972	32.19
648.161	32.38
648.351	32.56
648.54	32.56
648.73	32.85
648.919	33.38
649.108	33.63
649.298	33.88
649.487	33.93
649.677	34.25
649.866	34.45
650.055	34.41
650.244	34.58
650.434	34.5
650.623	34.4
650.812	34.6
651.002	34.54
651.191	34.4
651.38	34.16
651.569	33.98
651.758	33.63
651.947	33.77
652.137	33.77
652.326	33.57
652.515	33.6
652.704	33.75
652.893	33.54
653.082	33.36
653.271	33.35
653.46	33.17
653.649	33.27
653.838	33.21
654.027	32.77
654.216	32.84
654.405	32.67
654.594	32.68
654.783	32.43
654.972	32.2
655.161	32.23
655.35	32.31
655.539	32.37
655.728	32.13
655.916	32.18
656.105	32.28
656.294	31.95
656.483	32.03
656.672	31.57
656.86	31.42
657.049	31.27
657.238	30.91
657.427	30.68
657.615	30.79
657.804	30.65
657.993	30.19
658.181	30.07
658.37	29.96
658.559	29.77
658.747	29.97
658.936	29.91
659.125	29.74
659.313	29.92
659.502	29.93
659.69	29.8
659.879	29.79
660.067	30.11
660.256	30.27
660.444	30.39
660.633	30.93
660.821	31.18
661.01	31.53
661.198	32.02
661.387	32.24
661.575	32.68
661.763	33.26
661.952	33.79
662.14	34.07
662.328	34.32
662.517	34.31
662.705	34.15
662.893	34.03
663.082	33.86
663.27	33.98
663.458	33.93
663.646	33.5
663.834	33.38
664.023	33.12
664.211	33.02
664.399	32.93
664.587	33.2
664.775	32.79
664.963	32.68
665.152	32.8
665.34	32.62
665.528	32.56
665.716	32.62
665.904	32.32
666.092	32.14
666.28	32.02
666.468	31.97
666.656	31.76
666.844	31.83
667.032	31.73
667.22	31.55
667.408	31.77
667.596	31.87
667.784	32.09
667.971	31.97
668.159	32.17
668.347	32.21
668.535	32.15
668.723	32.41
668.911	32.41
669.098	32.49
669.286	32.83
669.474	32.52
669.662	32.18
669.849	32.08
670.037	32.33
670.225	32.18
670.413	32.17
670.6	32.27
670.788	32.16
670.976	32.13
671.163	32.04
671.351	31.62
671.538	31.83
671.726	32.12
671.913	32.22
672.101	32.12
672.289	32.18
672.476	32.1
672.664	32.16
672.851	32.28
673.039	32.53
673.226	32.91
673.413	33.23
673.601	33.32
673.788	33.2
673.976	33.15
674.163	33.28
674.35	33.39
674.538	33.68
674.725	33.72
674.912	33.7
675.1	33.68
675.287	33.47
675.474	33.34
675.662	33.11
675.849	33.22
676.036	33.42
676.223	33.4
676.411	33.33
676.598	33.23
676.785	33.21
676.972	33.1
677.159	33.17
677.346	33.07
677.533	32.84
677.721	32.86
677.908	32.75
678.095	32.57
678.282	32.29
678.469	32.3
678.656	31.89
678.843	31.5
679.03	31.48
679.217	31.29
679.404	31.23
679.591	31.15
679.778	31.07
679.964	31.12
680.151	31.01
680.338	31.09
680.525	31.08
680.712	31.3
680.899	31.41
681.086	31.15
681.272	31.34
681.459	31.38
681.646	31.78
681.833	31.83
682.02	32.08
682.206	32.01
682.393	32.06
682.58	32.18
682.766	32.24
682.953	32.39
683.14	32.82
683.326	32.91
683.513	33.04
683.7	33.05
683.886	33.29
684.073	32.8
684.259	33.11
684.446	33.15
684.632	33.07
684.819	33.3
685.005	33.72
685.192	33.99
685.378	34.19
685.565	34.55
685.751	34.78
685.938	34.89
686.124	35.82
686.31	36.05
686.497	36.19
686.683	36.43
686.87	36.54
687.056	36.26
687.242	36.4
687.429	36.31
687.615	36.37
687.801	36.09
687.987	36.03
688.174	35.86
688.36	35.61
688.546	35.71
688.732	35.6
688.918	35.27
689.105	35.17
689.291	34.76
689.477	34.59
689.663	34.44
689.849	34.55
690.035	34.62
690.221	34.13
690.407	34.07
690.593	34.05
690.779	34.06
690.965	34.62
691.151	34.7
691.337	34.74
691.523	34.93
691.709	35.33
691.895	35.41
692.081	35.48
692.267	35.89
692.453	36.67
692.639	36.9
692.825	37.13
693.011	36.76
693.196	37.3
693.382	37.52
693.568	37.62
693.754	37.13
693.94	36.88
694.125	36.72
694.311	36.83
694.497	36.23
694.682	35.6
694.868	35.68
695.054	35.56
695.239	35.11
695.425	35
695.611	34.61
695.796	34.63
695.982	34.56
696.168	34.48
696.353	34.01
696.539	33.46
696.724	33.79
696.91	33.56
697.095	33.49
697.281	33
697.466	32.76
697.652	32.65
697.837	32.67
698.023	32.78
698.208	32.75
698.393	32.63
698.579	32.69
698.764	32.35
698.949	32.19
699.135	32.21
699.32	32.44
699.505	32.5
699.691	32.67
699.876	32.5
700.061	32.46
700.246	32.46
700.432	32.46
700.617	32.72
700.802	33.19
700.987	33.48
701.172	33.83
701.358	34.02
701.543	34.45
701.728	34.64
701.913	34.9
702.098	35.18
702.283	35.35
702.468	35.91
702.653	36.33
702.838	36.46
703.023	36.79
703.208	36.83
703.393	37.18
703.578	37.03
703.763	37.55
703.948	38.12
704.133	39.4
704.318	40.34
704.503	41.13
704.688	41.94
704.873	43.19
705.057	44.33
705.242	45.28
705.427	46.53
705.612	47.96
705.797	49.5
705.981	50.64
706.166	50.74
706.351	51.18
706.536	51.96
706.72	52.93
706.905	53.45
707.09	53.46
707.274	54.11
707.459	54.14
707.644	54.39
707.828	54.06
708.013	54
708.197	53.99
708.382	54.08
708.567	53.57
708.751	52.48
708.936	51.76
709.12	51.65
709.305	50.67
709.489	49.89
709.673	49.07
709.858	48.24
710.042	47.69
710.227	47.3
710.411	46.78
710.596	46.51
710.78	47.03
710.964	46.88
711.149	46.77
711.333	47.1
711.517	47.65
711.702	47.81
711.886	47.95
712.07	47.75
712.254	47.7
712.438	47.31
712.623	47.15
712.807	46.29
712.991	45.26
713.175	44.26
713.359	43.45
713.544	42.31
713.728	41.58
713.912	40.53
714.096	39.97
714.28	39.12
714.464	38.4
714.648	37.77
714.832	36.78
715.016	36.47
715.2	36.06
715.384	36.08
715.568	35.88
715.752	35.36
715.936	35.11
716.12	34.67
716.304	34.43
716.488	34.63
716.671	34.51
716.855	34.85
717.039	34.88
717.223	34.74
717.407	34.12
717.59	34.04
717.774	34.53
717.958	34.89
718.142	34.87
718.325	34.88
718.509	34.13
718.693	34.14
718.877	33.97
719.06	34.1
719.244	34.54
719.428	34.54
719.611	34.66
719.795	34.41
719.978	34.51
720.162	34.87
720.345	35.05
720.529	35.52
720.713	35.67
720.896	36.35
721.08	36.68
721.263	36.5
721.446	36.53
721.63	36.68
721.813	36.79
721.997	36.87
722.18	37.31
722.364	37.72
722.547	37.81
722.73	37.5
722.914	37.14
723.097	37.13
723.28	37.47
723.464	37.67
723.647	37.71
723.83	38.02
724.013	37.8
724.197	37.11
724.38	36.52
724.563	36.98
724.746	37.26
724.929	37.27
725.112	37.17
725.296	37.05
725.479	36.76
725.662	36.46
725.845	35.57
726.028	35.55
726.211	35.7
726.394	36
726.577	35.77
726.76	35.51
726.943	35.43
727.126	35.36
727.309	35.2
727.492	35.4
727.675	35.46
727.858	35.86
728.041	36.2
728.224	36.25
728.407	35.72
728.589	35.91
728.772	36.15
728.955	36.39
729.138	36.32
729.321	36.45
729.503	36.84
729.686	36.55
729.869	36.4
730.052	36.14
730.234	35.71
730.417	35.86
730.6	35.29
730.782	35.09
730.965	34.77
731.148	34.92
731.33	34.71
731.513	34.4
731.695	34.54
731.878	34.6
732.061	34.7
732.243	35.25
732.426	35.68
732.608	35.99
732.791	36.15
732.973	36.33
733.156	36.44
733.338	36.78
733.52	36.98
733.703	37.36
733.885	37.21
734.068	37.39
734.25	37.32
734.432	37.43
734.615	37.97
734.797	38.35
734.979	38.14
735.162	37.91
735.344	37.89
735.526	37.58
735.708	37.59
735.891	37.95
736.073	37.3
736.255	37.68
736.437	37.15
736.619	36.4
736.802	36.1
736.984	36.56
737.166	36.93
737.348	37.26
737.53	37.56
737.712	37.3
737.894	37.06
738.076	38.02
738.258	38.14
738.44	38.5
738.622	38.84
738.804	38.77
738.986	38.71
739.168	38.57
739.35	38.22
739.532	37.98
739.714	38.08
739.896	38.64
740.078	38.37
740.259	38.57
740.441	38.51
740.623	38.79
740.805	39.05
740.987	39.24
741.168	39.46
741.35	39.71
741.532	40.39
741.714	40.95
741.895	40.53
742.077	40.43
742.259	39.96
742.44	40.33
742.622	40.03
742.804	40.22
742.985	40.08
743.167	39.91
743.348	39.44
743.53	39.16
743.711	38.48
743.893	38.99
744.075	38.75
744.256	38.68
744.438	38.96
744.619	39.1
744.8	39.08
744.982	39.15
745.163	39.76
745.345	40.2
745.526	40.62
745.707	40.58
745.889	40.69
746.07	41.08
746.252	41.31
746.433	40.58
746.614	40.23
746.795	40.09
746.977	40.31
747.158	40.08
747.339	39.92
747.52	39.43
747.702	40.23
747.883	39.89
748.064	39.49
748.245	39.61
748.426	39.62
748.607	40.21
748.788	40.59
748.97	39.93
749.151	40.4
749.332	41.02
749.513	40.79
749.694	40.67
749.875	40.82
750.056	41.12
750.237	40.71
750.418	41.41
750.599	41.54
750.78	41.43
750.96	41.32
751.141	40.06
751.322	39.25
751.503	39.19
751.684	38.97
751.865	38.64
752.046	38.66
752.226	38.67
752.407	38.03
752.588	37.55
752.769	37.12
752.949	37.71
753.13	39.03
753.311	39.44
753.492	39.67
753.672	39.65
753.853	39.22
754.034	39.48
754.214	39.94
754.395	40.03
754.575	40.22
754.756	39.95
754.937	39.66
755.117	38.81
755.298	38.8
755.478	38.92
755.659	38.47
755.839	39.3
756.02	39.01
756.2	38.35
756.381	38.85
756.561	38.22
756.741	38.8
756.922	39.13
757.102	39.12
757.283	39.11
757.463	39.38
757.643	39.58
757.823	39
758.004	38.73
758.184	38.57
758.364	37.67
758.545	38.22
758.725	37
758.905	36.59
759.085	35.85
759.265	34.49
759.446	33.44
759.626	32.69
759.806	32.06
759.986	32.1
760.166	31.91
760.346	31.73
760.526	30.93
760.706	31.66
760.886	31.29
761.066	31.55
761.246	32.42
761.426	32.47
761.606	33.22
761.786	33.77
761.966	33.43
762.146	33.27
762.326	33.62
762.506	33.33
762.686	33.06
762.866	33.25
763.046	33.37
763.225	32.74
763.405	33.02
763.585	32.67
763.765	32.82
763.945	32.62
764.124	32.77
764.304	32.59
764.484	32.73
764.664	32.95
764.843	33.33
765.023	33.13
765.203	33.97
765.382	33.98
765.562	34.56
765.741	34.5
765.921	35.24
766.101	35.61
766.28	35.6
766.46	36.72
766.639	37.29
766.819	36.76
766.998	37.24
767.178	37.23
767.357	37.83
767.537	37.56
767.716	38.42
767.896	38.58
768.075	39.29
768.254	40.11
768.434	39.9
768.613	39.67
768.792	40.99
768.972	41.25
769.151	41.31
769.33	40.83
769.51	41.38
769.689	40.76
769.868	41.74
770.047	41.37
770.226	42.15
770.406	42.04
770.585	42.33
770.764	41.42
770.943	42.32
771.122	43.44
771.301	43.67
771.48	43.74
771.66	44.12
771.839	43.6
772.018	44.89
772.197	43.91
772.376	44.03
772.555	43.12
772.734	44.52
772.913	43.71
773.092	43.1
773.271	42.92
773.449	42.63
773.628	42.5
773.807	42.37
773.986	41.08
774.165	41.45
774.344	42.49
774.523	43.35
774.701	42.49
774.88	42.95
775.059	42.59
775.238	43.13
775.417	44.05
775.595	44.76
775.774	44.67
775.953	44.56
776.131	44.73
776.31	44.09
776.489	44.17
776.667	43.52
776.846	43.66
777.025	43.84
777.203	43.36
777.382	43.25
777.56	42.16
777.739	42.34
777.917	42.41
778.096	41.78
778.274	41.09
778.453	41.39
778.631	42.35
778.81	41.6
778.988	41.84
779.166	42.4
779.345	42.28
779.523	41.52
779.702	40.84
779.88	41.35
780.058	41.71
780.237	42.26
780.415	42.45
780.593	41.29
780.771	41.99
780.95	42.92
781.128	43.46
781.306	43.37
781.484	44.82
781.662	46.43
781.841	45.5
782.019	45.44
782.197	45.75
782.375	45.91
782.553	46.86
782.731	46.72
782.909	45.28
783.087	44.26
783.265	43.78
783.443	42.87
783.621	41.97
783.799	40.78
783.977	41.04
784.155	41.49
784.333	41.26
784.511	40.85
784.689	41.02
784.867	41.03
785.045	40.61
785.223	40.75
785.4	41.25
785.578	40.59
785.756	41.84
785.934	41.71
786.112	41.47
786.289	40.76
786.467	41.21
786.645	40.57
786.823	40.21
787	40.59
787.178	40.3
787.356	39.88
787.533	40.08
787.711	40.55
787.889	40.4
788.066	39.95
788.244	38.97
788.421	39.08
788.599	39.06
788.776	39.32
788.954	38.83
789.131	39.03
789.309	39.41
789.486	40.04
789.664	39.73
789.841	39.93
790.019	39.82
790.196	40.63
790.373	39.91
790.551	40.28
790.728	39.96
790.906	40.37
791.083	40.35
791.26	40.26
791.437	39.7
791.615	39.71
791.792	39.72
791.969	40.29
792.146	39.68
792.324	41.6
792.501	41.53
792.678	41.18
792.855	40.82
793.032	41.42
793.209	40.96
793.387	40.83
793.564	40.56
793.741	39.82
793.918	38.95
794.095	39.53
794.272	39.03
794.449	39.85
794.626	40.2
794.803	40.67
794.98	40.51
795.157	40.82
795.334	41.19
795.511	42.03
795.688	42.59
795.864	43.72
796.041	44.77
796.218	43.53
796.395	43
796.572	43.27
796.749	43.12
796.925	43.19
797.102	43.37
797.279	42.4
797.456	41.98
797.632	41.79
797.809	40
797.986	39.9
798.162	40.36
798.339	40.17
798.516	40.9
798.692	40.82
798.869	40.54
799.046	40.69
799.222	40.77
799.399	40.26
799.575	40.32
799.752	40.76
799.928	40.24
800.105	39.53
800.281	38.98
800.458	38.31
800.634	38.61
800.811	39.33
800.987	38.43
801.163	37.94
801.34	38.92
801.516	40.18
801.692	41
801.869	40.62
802.045	41.35
802.221	42.34
802.398	41.99
802.574	41.43
802.75	40.33
802.926	40.59
803.103	44.2
803.279	43.29
803.455	42.17
803.631	40.99
803.807	41.53
803.983	41.68
804.16	42.04
804.336	42.42
804.512	43
804.688	42.87
804.864	43.16
805.04	40.12
805.216	41.12
805.392	40.28
805.568	41.07
805.744	40.73
805.92	40.32
806.096	39.23
806.272	38.69
806.448	37.74
806.623	38.34
806.799	37.76
806.975	37.48
807.151	36.99
807.327	36.29
807.503	38.23
807.678	38.75
807.854	39.27
808.03	39.64
808.206	40.54
808.381	41.77
808.557	41.6
808.733	41.37
808.908	43.02
809.084	42.66
809.26	43.88
809.435	42.76
809.611	41.01
809.787	40.81
809.962	39.31
810.138	39.25
810.313	39.62
810.489	38.38
810.664	40.17
810.84	38.9
811.015	38.83
811.191	39.53
811.366	39.68
811.542	41.7
811.717	40.66
811.892	41.24
812.068	40.62
812.243	40.12
812.419	41.59
812.594	40.83
812.769	40.47
812.944	41
813.12	38.75
813.295	37.49
813.47	36.98
813.645	37.78
813.821	37.54
813.996	38.1
814.171	38.64
814.346	38.49
814.521	36.52
814.697	35.93
814.872	35.71
815.047	36.87
815.222	37.34
815.397	36.29
815.572	37.49
815.747	36.74
815.922	37.19
816.097	36.43
816.272	36.59
816.447	37.68
816.622	38.22
816.797	37.52
816.972	37.8
817.147	37.56
817.322	39.01
817.496	37.97
817.671	38.49
817.846	38.32
818.021	37.12
818.196	36.16
818.371	34.93
818.545	35.11
818.72	36.03
818.895	36.92
819.069	37.62
819.244	35.81
819.419	36.37
819.594	35.77
819.768	35.36
819.943	34.66
820.117	34.85
820.292	34.65
820.467	34.17
820.641	33.24
820.816	32.34
820.99	31.16
821.165	31.1
821.339	30.21
821.514	30.32
821.688	29.89
821.863	30.23
822.037	29.94
822.212	29.85
822.386	29.53
822.56	29.37
822.735	29.24
822.909	29.33
823.084	29.07
823.258	29.12
823.432	28.96
823.606	28.94
823.781	28.94
823.955	28.86
824.129	28.93
824.303	29.15
824.478	29.38
824.652	29.75
824.826	30.15
825	31.08
825.174	31.17
825.348	31.46
825.523	31.71
825.697	31.62
825.871	31.97
826.045	31.9
826.219	31.79
826.393	31.68
826.567	31.38
826.741	30.74
826.915	30.01
827.089	30.2
827.263	29.83
827.437	30.11
827.611	30.44
827.784	30.14
827.958	29.82
828.132	29.36
828.306	29.22
828.48	29.2
828.654	29.73
828.827	29.75
829.001	29.48
829.175	29.93
829.349	29.82
829.522	28.9
829.696	29.55
829.87	30.88
830.044	31.93
830.217	32.38
830.391	32.69
830.565	31.61
830.738	32.88
830.912	33.49
831.085	32.85
831.259	33.27
831.432	32.22
831.606	31.99
831.779	32.09
831.953	31.15
832.126	30.53
832.3	30.07
832.473	30.6
832.647	30.26
832.82	30.34
832.994	30.76
833.167	29.65
833.34	30.81
833.514	30.49
833.687	30.08
833.86	31.1
834.034	31.53
834.207	31.46
834.38	31.6
834.553	31.7
834.727	31.8
834.9	32.58
835.073	32.55
835.246	32.89
835.419	33.33
835.593	33.11
835.766	32.97
835.939	32.12
836.112	32.65
836.285	32.91
836.458	32.68
836.631	33.04
836.804	32.22
836.977	32.53
837.15	32.81
837.323	34.03
837.496	34.83
837.669	35.33
837.842	37.3
838.015	36.76
838.188	36.5
838.361	36.65
838.533	36.34
838.706	34.97
838.879	36.12
839.052	36.42
839.225	34.91
839.398	34
839.57	34.06
839.743	35.47
839.916	37.78
840.088	37.36
840.261	38.39
840.434	37.99
840.607	38.93
840.779	38.73
840.952	37.01
841.124	36.98
841.297	39.3
841.47	38.74
841.642	37.46
841.815	36.18
841.987	35.65
842.16	33.83
842.332	34.69
842.505	34.09
842.677	34.14
842.85	33.04
843.022	31.56
843.194	30.34
843.367	30.72
843.539	31.36
843.712	28.2
843.884	28.28
844.056	27.92
844.229	26.63
844.401	29.9
844.573	30.65
844.745	31.69
844.918	34.41
845.09	35.02
845.262	34.62
845.434	32.38
845.606	32.99
845.779	37.2
845.951	41.99
846.123	44.64
846.295	44.2
846.467	44.25
846.639	44.69
846.811	38.18
846.983	35.29
847.155	35.17
847.327	36.71
847.499	41.62
847.671	38.43
847.843	35.25
848.015	32.39
848.187	30.66
848.359	31.21
848.531	32.27
848.703	36.34
848.875	36.86
849.047	37.73
849.218	40.55
849.39	36.53
849.562	38.46
849.734	37.09
849.905	36.41
850.077	35.23
850.249	34.97
850.421	34.37
850.592	34.09
850.764	33.62
850.936	32.22
851.107	28.38
851.279	30.21
851.451	32.17
851.622	32.14
851.794	30.49
851.965	33.79
852.137	31.21
852.308	30.22
852.48	32.84
852.651	32.26
852.823	34.43
852.994	35.51
853.166	32.35
853.337	27.07
853.509	27.47
853.68	29.8
853.851	27.13
854.023	28.6
854.194	32.22
854.365	29.22
854.537	31.62
854.708	33.04
854.879	33.51
855.05	36.87
855.222	38.47
855.393	37.47
855.564	35.7
855.735	36.64
855.906	39.71
856.078	40.64
856.249	38.52
856.42	36.07
856.591	31.69
856.762	29
856.933	25.75
857.104	29.37
857.275	33.68
857.446	33.2
857.617	32.17
857.788	32.36
857.959	32.99
858.13	37.68
858.301	43.34
858.472	43.64
858.643	44.7
858.814	45.35
858.985	43.48
859.155	41.43
859.326	47.04
859.497	46.66
859.668	41.31
859.839	36.62
860.009	37.27
860.18	33.75
860.351	34.95
860.522	36.33
860.692	44.74
860.863	42.22
861.034	43.44
861.204	39.14
861.375	38.54
861.546	39.45
861.716	42.8
861.887	39.81
862.057	39.45
862.228	36.05
862.398	32.71
862.569	25.66
862.739	25.39
862.91	20.73
863.08	24.6
863.251	26.54
863.421	30.6
863.592	31.55
863.762	33.38
863.932	31.3
864.103	32.49
864.273	36.47
864.443	35.86
864.614	33.03
864.784	33.81
864.954	28.74
865.125	29.42
865.295	23.43
865.465	17.38
865.635	21.41
865.805	24.98
865.976	29.1
866.146	25.07
866.316	23.83
866.486	26.77
866.656	28.72
866.826	32.24
866.996	26.63
867.166	32.15
867.336	36.97
867.506	36.34
867.676	36.72
867.846	34.53
868.016	33.66
868.186	34.56
868.356	30.72
868.526	28.55
868.696	27.03
868.866	29.77
869.036	29.48
869.206	26.05
869.376	26.19
869.545	19.05
869.715	21.61
869.885	23.01
870.055	21.38
870.224	21.28
870.394	19.71
870.564	17.77
870.734	21.28
870.903	19.94
871.073	22.71
871.243	21.3
871.412	27.07
871.582	19.15
871.751	20.47
871.921	23.62
872.091	31.87
872.26	35.92
872.43	36.62
872.599	39.86
872.769	37.14
872.938	37.2
873.108	35.15
873.277	32.29
873.446	41.31
873.616	39.2
873.785	40.93
873.955	32.81
874.124	31.82
874.293	35.61
874.463	30.97
874.632	30.86
874.801	26.87
874.971	33.24
875.14	37.45
875.309	30.23
875.478	37.2
875.647	34.1
875.817	36.05
875.986	39.69
876.155	39.29
876.324	42.47
876.493	41.63
876.662	41.19
876.831	36.78
877	34.88
877.17	33.54
877.339	29.65
877.508	28.75
877.677	30.36
877.846	29.86
878.015	26.41
878.184	23.13
878.352	22.49
878.521	22.15
878.69	21.39
878.859	23.83
879.028	29.04
879.197	26.23
879.366	26.95
879.534	27.53
879.703	26.16
879.872	27.07
880.041	26.39
880.21	27.52
880.378	26.67
880.547	27.94
880.716	25.84
880.884	25.6
881.053	25.48
881.222	25.33
881.39	25.01
881.559	24.78
881.727	24.46
881.896	24.79
882.065	25.49
882.233	25.59
882.402	25.33
882.57	26.08
882.739	25.45
882.907	26.03
883.076	25.64
883.244	25.14
883.412	25.52
883.581	25.61
883.749	25.49
883.918	24.9
884.086	24.56
884.254	23.98
884.423	23.56
884.591	23.39
884.759	22.24
884.927	22.14
885.096	23.31
885.264	23
885.432	22.31
885.6	20.89
885.769	18.75
885.937	19.97
886.105	19.22
886.273	16.82
886.441	14.01
886.609	17.19
886.777	14.99
886.945	11.39
887.113	7.83
887.281	8.71
887.449	13.38
887.617	15.89
887.785	13.01
887.953	13.59
888.121	14.24
888.289	15.89
888.457	11.64
888.625	16.43
888.793	22.23
888.961	18.85
889.129	20.87
889.296	18.27
889.464	18.68
889.632	20.22
889.8	19.19
889.967	20.49
890.135	23.81
