Data from 2938751__Reflection_01.txt Node
Date: Sat Mar 14 14:34:44 EDT 2015
User: robert
Spectrometer: USB4E03002
Autoset integration time: false
Trigger mode: 4
Integration Time (sec): 1.000000E-1
Scans to average: 10
Electric dark correction enabled: false
Nonlinearity correction enabled: false
Boxcar width: 5
Stray light correction enabled: false
XAxis mode: Wavelengths
Stop averaging: false
Number of Pixels in Spectrum: 3648
>>>>>Begin Spectral Data<<<<<
177.575	132.82
177.794	150
178.014	193.43
178.233	230.15
178.452	118.72
178.672	91.67
178.891	172.37
179.11	79.79
179.33	110.31
179.549	-2037.5
179.768	21.66
179.987	83.73
180.207	109.21
180.426	130.69
180.645	196.07
180.864	87.57
181.084	80.6
181.303	77.91
181.522	62.29
181.741	117.82
181.96	237.55
182.179	-1415.15
182.398	-223.3
182.618	-405.88
182.837	-243.8
183.056	-54.4
183.275	-51
183.494	2.11
183.713	-24.48
183.932	-43.58
184.151	-14.99
184.37	-15.71
184.589	64.66
184.808	59.47
185.027	14.38
185.246	7.17
185.465	-13.36
185.684	-48.63
185.903	15.15
186.122	11.08
186.341	-30.6
186.56	35.38
186.779	189.24
186.998	1004.17
187.216	-17.86
187.435	-321.57
187.654	378.43
187.873	180.98
188.092	249.43
188.311	248.08
188.53	190.63
188.748	195.91
188.967	259.13
189.186	-80.91
189.405	-43.75
189.623	-111.11
189.842	81.71
190.061	-128.72
190.28	261.26
190.498	4050
190.717	-2450
190.936	-393.62
191.154	250.88
191.373	-33.33
191.592	54.08
191.81	386.36
192.029	281.82
192.248	-187.95
192.466	809.09
192.685	0
192.904	370.91
193.122	118.78
193.341	117.92
193.559	154.04
193.778	188.73
193.996	190.16
194.215	361.25
194.433	3026.67
194.652	-1288.24
194.87	-504
195.089	-126.43
195.307	-32.34
195.526	0.71
195.744	-8.42
195.963	0.62
196.181	-27.55
196.399	-20.33
196.618	7
196.836	30.64
197.055	115.44
197.273	-6.38
197.491	225.4
197.71	-1475
197.928	4500
198.146	39.22
198.365	-32.43
198.583	45.45
198.801	19.89
199.019	41.86
199.238	32.32
199.456	36.83
199.674	37
199.892	42.28
200.111	23.49
200.329	15.82
200.547	16.96
200.765	-9.75
200.983	41.44
201.202	63.08
201.42	-3.62
201.638	14.08
201.856	-97.26
202.074	-137.4
202.292	-124.71
202.51	-156.3
202.728	-142.86
202.946	-222.22
203.165	-33.23
203.383	-79.35
203.601	-165.73
203.819	-342.2
204.037	-128.36
204.255	-9.71
204.473	13.71
204.691	16.4
204.909	24.21
205.127	24.83
205.345	48.02
205.562	37.28
205.78	39.45
205.998	29.59
206.216	40.49
206.434	4.88
206.652	-14.19
206.87	-136.49
207.088	-162.6
207.306	-478.57
207.523	1172
207.741	20950
207.959	-451.32
208.177	-1795.45
208.395	-1150
208.612	202.52
208.83	76.44
209.048	136.36
209.266	283.33
209.483	-1153.33
209.701	342.31
209.919	9.3
210.136	380
210.354	153.19
210.572	192.42
210.79	-100
211.007	-552.73
211.225	-382.86
211.442	-91.27
211.66	-36.65
211.878	40.18
212.095	10.14
212.313	-3.3
212.53	-8.6
212.748	5.56
212.966	4.4
213.183	-2.53
213.401	5.32
213.618	-9.3
213.836	2.78
214.053	15.27
214.271	-2.29
214.488	-348.57
214.705	-390.11
214.923	-255.17
215.14	-496.87
215.358	4028.57
215.575	-3725
215.793	-314.84
216.01	-7033.33
216.227	-877.19
216.445	-356.88
216.662	-1441.18
216.879	-124.02
217.097	-178.26
217.314	-350.48
217.531	-180.29
217.749	-135.71
217.966	-157.4
218.183	-84.19
218.4	4.84
218.618	12.67
218.835	20.61
219.052	40.57
219.269	-0.22
219.487	31.11
219.704	29.57
219.921	17.38
220.138	13.6
220.355	17.63
220.572	-11.56
220.79	-32.57
221.007	-44.91
221.224	-70.66
221.441	-36.72
221.658	-7.92
221.875	-18.25
222.092	-32.64
222.309	-21.25
222.526	-30.94
222.743	-34.29
222.96	-29.82
223.177	-28.08
223.394	-34.69
223.611	-36.29
223.828	-43.54
224.045	-44.33
224.262	-22.5
224.479	-15.43
224.696	-5
224.913	8.4
225.13	8.71
225.347	9.64
225.564	6.59
225.781	5.97
225.997	6.32
226.214	2.97
226.431	3.99
226.648	2.43
226.865	2.78
227.082	2.36
227.298	1.84
227.515	0.33
227.732	2.89
227.949	1.13
228.165	1.33
228.382	2.86
228.599	3.97
228.816	3.42
229.032	3.15
229.249	2.73
229.466	0.69
229.682	-0.62
229.899	0.69
230.116	-0.58
230.332	-0.23
230.549	-0.42
230.765	-2.81
230.982	-4.49
231.199	-1.78
231.415	-2.78
231.632	-3.16
231.848	-1.66
232.065	-1.77
232.281	-2.27
232.498	-3.99
232.714	-2.26
232.931	-1.8
233.147	-2.9
233.364	-2.89
233.58	-7.26
233.797	-4.41
234.013	-2.04
234.23	-2.56
234.446	-0.25
234.662	0.39
234.879	2.34
235.095	0.85
235.312	2.67
235.528	5.4
235.744	6.59
235.961	6.86
236.177	4.46
236.393	1.26
236.61	2.74
236.826	2.46
237.042	0.48
237.258	1.55
237.475	2.26
237.691	0.75
237.907	1.05
238.123	0.84
238.339	1.37
238.556	4.52
238.772	5.52
238.988	5.04
239.204	3.72
239.42	6.53
239.636	5.83
239.853	4.47
240.069	3.62
240.285	1.96
240.501	1.46
240.717	2.2
240.933	1.41
241.149	2.12
241.365	2.32
241.581	1.53
241.797	1.14
242.013	1.26
242.229	1.78
242.445	2.26
242.661	3.02
242.877	2.99
243.093	3.2
243.309	3.4
243.525	3.4
243.741	3.33
243.957	4.01
244.173	3.25
244.388	2.84
244.604	3.59
244.82	3.09
245.036	3.28
245.252	2.81
245.468	1.41
245.683	0.81
245.899	0.67
246.115	0.2
246.331	0.52
246.547	0.93
246.762	1.12
246.978	0.87
247.194	1.23
247.409	0.73
247.625	0.94
247.841	1.28
248.057	1.18
248.272	1.05
248.488	1.38
248.703	1.53
248.919	1.53
249.135	1.25
249.35	0.59
249.566	-0.03
249.782	-0.87
249.997	-1.56
250.213	-2.13
250.428	-1.54
250.644	-1.93
250.859	-3.24
251.075	-3.97
251.29	-4.48
251.506	-3.35
251.721	-2.5
251.937	-3.08
252.152	-1.74
252.368	-1.98
252.583	-0.96
252.798	-1.59
253.014	-1.24
253.229	-0.86
253.445	-0.4
253.66	0.08
253.875	-1.16
254.091	-0.7
254.306	0.7
254.521	0.08
254.737	0.26
254.952	-1.05
255.167	-0.69
255.383	-0.99
255.598	-0.5
255.813	-0.38
256.028	-0.93
256.244	-1.54
256.459	-1.85
256.674	-2.44
256.889	-3.26
257.104	-2.94
257.32	-2.51
257.535	-2.73
257.75	-2.96
257.965	-2.35
258.18	-2.34
258.395	-1.98
258.61	-1.63
258.826	-1.52
259.041	-1.32
259.256	-0.74
259.471	-0.64
259.686	-0.44
259.901	-0.22
260.116	-0
260.331	0.12
260.546	0.09
260.761	0.04
260.976	0.26
261.191	-0.41
261.406	-0.61
261.621	-0.39
261.836	-0.46
262.05	-0.79
262.265	-0.48
262.48	-1.14
262.695	-2.1
262.91	-2.12
263.125	-2.29
263.34	-2.33
263.555	-1.11
263.769	-0.42
263.984	-0.79
264.199	-0.37
264.414	-0.25
264.629	-0.36
264.843	0.43
265.058	0.61
265.273	0.41
265.488	0.39
265.702	0.22
265.917	0.88
266.132	1.39
266.346	1.57
266.561	1.22
266.776	0.9
266.99	0.03
267.205	0.26
267.42	0.38
267.634	0.34
267.849	0.53
268.063	1.03
268.278	0.85
268.492	-0.01
268.707	-0.46
268.922	-0.33
269.136	-0.34
269.351	0.25
269.565	0.38
269.78	0.71
269.994	0.08
270.209	-0.08
270.423	-0.51
270.637	-0.83
270.852	-1.26
271.066	-0.76
271.281	-0.5
271.495	-0.1
271.709	-0.43
271.924	-1.03
272.138	-1.07
272.353	-0.46
272.567	-0.58
272.781	-0.69
272.996	-0.53
273.21	-0.01
273.424	-0.36
273.638	-0.39
273.853	-0.52
274.067	-0.36
274.281	0.28
274.495	0.16
274.71	0.36
274.924	0.27
275.138	-0.36
275.352	-0.74
275.566	-0.3
275.781	-0.2
275.995	-0.51
276.209	-0.52
276.423	-0.44
276.637	-0.71
276.851	-0.63
277.065	-1.16
277.279	-0.53
277.493	-0.02
277.707	0.48
277.921	0.51
278.135	0.58
278.349	0.73
278.563	0.27
278.777	0.1
278.991	0.06
279.205	-0.16
279.419	0.62
279.633	0.58
279.847	1.02
280.061	0.74
280.275	0.28
280.489	-0.24
280.703	0.01
280.917	0.33
281.131	-0.49
281.344	-0.51
281.558	-0.57
281.772	-0.9
281.986	-1.01
282.2	-1.03
282.414	-1.56
282.627	-1.61
282.841	-1.23
283.055	-1.3
283.269	-0.91
283.482	-0.49
283.696	0.14
283.91	-0.15
284.123	-0.34
284.337	0.05
284.551	0.1
284.764	0.58
284.978	0.64
285.192	0.22
285.405	0.03
285.619	-0.7
285.833	-0.54
286.046	-1.09
286.26	-0.71
286.473	-0.33
286.687	-0.77
286.9	-1.14
287.114	-1.11
287.327	-1.31
287.541	-1.09
287.754	-0.79
287.968	-0.42
288.181	-0.28
288.395	-0.01
288.608	-0.45
288.822	-0.59
289.035	-0.48
289.248	-0.01
289.462	0.03
289.675	0.12
289.889	0.68
290.102	0.08
290.315	0.08
290.529	0.27
290.742	-0.16
290.955	0.41
291.169	0.48
291.382	0.85
291.595	0.58
291.808	0.35
292.022	-0.17
292.235	-1.03
292.448	-0.75
292.661	-0.84
292.875	-0.85
293.088	-0.83
293.301	-1.52
293.514	-1.8
293.727	-1.8
293.94	-1.79
294.153	-1.89
294.367	-1.04
294.58	-0.28
294.793	-0.23
295.006	-0.16
295.219	-0.3
295.432	0.37
295.645	0.6
295.858	0.55
296.071	0.32
296.284	0.41
296.497	0.64
296.71	0.82
296.923	0.92
297.136	0.89
297.349	1.09
297.562	0.84
297.775	0.6
297.988	0.78
298.201	0.81
298.414	0.45
298.626	0.81
298.839	0.75
299.052	0.19
299.265	-0.46
299.478	-0.24
299.691	-0.18
299.903	-0.51
300.116	-0.53
300.329	-0.67
300.542	-0.6
300.755	-0.46
300.967	-0.84
301.18	-0.82
301.393	-0.54
301.605	-0.11
301.818	-0.38
302.031	-0.54
302.243	0.29
302.456	0.21
302.669	0.08
302.881	0.55
303.094	0.42
303.307	0.36
303.519	0.4
303.732	0.51
303.944	0.45
304.157	0.88
304.37	0.82
304.582	0.22
304.795	0.26
305.007	0.55
305.22	-0.07
305.432	0.46
305.645	0.48
305.857	0.77
306.069	0.4
306.282	0.21
306.494	-0.07
306.707	-0.36
306.919	0.28
307.132	0.16
307.344	0.02
307.556	0.94
307.769	0.48
307.981	0.58
308.193	0.58
308.406	0.92
308.618	1.24
308.83	1.28
309.043	1.56
309.255	1.5
309.467	1.57
309.679	1.52
309.892	0.97
310.104	1.02
310.316	0.92
310.528	0.63
310.74	0.84
310.953	0.7
311.165	0.84
311.377	0.99
311.589	0.62
311.801	0.89
312.013	1.25
312.225	1.7
312.437	2.06
312.649	2.07
312.862	2.25
313.074	1.99
313.286	2.19
313.498	2.58
313.71	2.37
313.922	2.76
314.134	2.27
314.346	2.02
314.558	1.17
314.77	1.3
314.982	1.51
315.193	1.77
315.405	2.01
315.617	1.86
315.829	1.12
316.041	1.2
316.253	1
316.465	1.34
316.677	1.52
316.888	1.67
317.1	1.45
317.312	1.47
317.524	1.18
317.736	1.43
317.947	1.01
318.159	1.59
318.371	1.6
318.583	1.79
318.794	1.67
319.006	1.26
319.218	1.47
319.43	1.65
319.641	1.24
319.853	1.12
320.064	1.15
320.276	1.27
320.488	1.4
320.699	1.98
320.911	2.52
321.123	3.1
321.334	3.57
321.546	3.94
321.757	4.21
321.969	4.79
322.18	4.76
322.392	4.83
322.603	5.99
322.815	6.15
323.026	5.89
323.238	5.31
323.449	5.35
323.661	5.38
323.872	5.48
324.083	5.6
324.295	5.6
324.506	6.16
324.718	6.4
324.929	6.43
325.14	6.12
325.352	6.39
325.563	6.83
325.774	7.13
325.986	7.71
326.197	8.19
326.408	8.2
326.62	8.61
326.831	8.81
327.042	9.2
327.253	9.3
327.464	9.79
327.676	10.26
327.887	10.55
328.098	10.64
328.309	10.63
328.52	11.02
328.732	11.16
328.943	11.78
329.154	11.89
329.365	11.9
329.576	11.96
329.787	12.51
329.998	13.04
330.209	13.94
330.42	13.97
330.631	14.54
330.842	14.76
331.053	15.38
331.264	15.15
331.475	15.69
331.686	15.93
331.897	16.59
332.108	16.5
332.319	16.13
332.53	15.95
332.741	17.16
332.952	17.16
333.163	17.32
333.374	17.62
333.585	18.16
333.795	18.19
334.006	18.41
334.217	18.19
334.428	18.86
334.639	19.3
334.849	19.86
335.06	19.71
335.271	20.03
335.482	20.28
335.692	20.37
335.903	20.53
336.114	21.17
336.325	21.16
336.535	22.14
336.746	22.45
336.957	22.61
337.167	22.63
337.378	23.12
337.589	23.63
337.799	23.88
338.01	23.9
338.22	24.11
338.431	23.81
338.642	24.07
338.852	23.37
339.063	23.07
339.273	23.08
339.484	23.33
339.694	23
339.905	22.67
340.115	22.44
340.326	23.01
340.536	23.04
340.746	22.93
340.957	22.77
341.167	23.11
341.378	23.15
341.588	23.18
341.799	22.67
342.009	22.47
342.219	22.35
342.43	22.42
342.64	22.22
342.85	22.06
343.061	22.48
343.271	22.9
343.481	22.8
343.691	22.82
343.902	23.01
344.112	23.39
344.322	23.38
344.532	23.38
344.743	23.48
344.953	23.16
345.163	22.97
345.373	23.24
345.583	23.32
345.793	23.31
346.004	23.18
346.214	23.04
346.424	23.07
346.634	23.29
346.844	23.46
347.054	22.93
347.264	23.3
347.474	23.77
347.684	22.78
347.894	22.65
348.104	22.89
348.314	22.7
348.524	22.88
348.734	22.63
348.944	22.5
349.154	22.26
349.364	22.68
349.574	22.55
349.784	22.54
349.994	23.03
350.204	22.73
350.413	22.63
350.623	22.95
350.833	22.62
351.043	22.89
351.253	22.74
351.463	22.74
351.672	22.75
351.882	22.52
352.092	22.38
352.302	22.13
352.511	22.1
352.721	21.77
352.931	21.69
353.141	22.05
353.35	22.23
353.56	22.28
353.77	22.37
353.979	22.28
354.189	22.32
354.399	22.25
354.608	22.38
354.818	22.39
355.027	22.35
355.237	22.05
355.447	21.96
355.656	21.86
355.866	21.85
356.075	21.59
356.285	21.62
356.494	21.84
356.704	21.76
356.913	22.01
357.123	21.86
357.332	22.21
357.542	22.33
357.751	22.36
357.96	22.14
358.17	22.33
358.379	22.75
358.589	22.77
358.798	22.46
359.007	22.57
359.217	22.26
359.426	22.27
359.635	22.04
359.845	21.91
360.054	21.71
360.263	21.61
360.472	21.46
360.682	21.09
360.891	21.34
361.1	21.47
361.309	21.3
361.519	21.43
361.728	21.46
361.937	21.35
362.146	21.51
362.355	21.57
362.564	21.53
362.774	21.56
362.983	21.92
363.192	21.48
363.401	21.34
363.61	21.34
363.819	21.19
364.028	21.13
364.237	21.2
364.446	21.3
364.655	21.18
364.864	21.29
365.073	21.29
365.282	20.77
365.491	21.01
365.7	21.15
365.909	21.38
366.118	21.53
366.327	21.64
366.536	21.6
366.745	21.62
366.954	21.58
367.162	21.27
367.371	21.27
367.58	21.64
367.789	21.29
367.998	21.11
368.207	21.12
368.415	21.06
368.624	20.87
368.833	20.91
369.042	20.67
369.25	20.81
369.459	21.06
369.668	20.89
369.877	20.69
370.085	20.79
370.294	20.77
370.503	20.69
370.711	20.56
370.92	20.66
371.129	20.57
371.337	20.56
371.546	20.52
371.754	20.42
371.963	20.44
372.171	20.52
372.38	20.59
372.589	20.79
372.797	20.42
373.006	20.33
373.214	20.23
373.423	20.39
373.631	20.22
373.84	19.99
374.048	19.85
374.256	20.06
374.465	20.1
374.673	20.14
374.882	20.16
375.09	20.32
375.298	20.5
375.507	20.69
375.715	20.78
375.923	20.87
376.132	21.22
376.34	21.44
376.548	21
376.757	20.89
376.965	20.89
377.173	20.85
377.381	20.87
377.59	20.75
377.798	20.73
378.006	20.81
378.214	21.02
378.423	20.97
378.631	20.89
378.839	21.07
379.047	21.03
379.255	20.95
379.463	20.72
379.671	20.53
379.879	20.48
380.088	20.32
380.296	20.05
380.504	20.03
380.712	19.88
380.92	19.82
381.128	19.93
381.336	19.91
381.544	20.01
381.752	20.08
381.96	20.35
382.168	20.56
382.376	20.59
382.584	20.48
382.791	20.26
382.999	20.07
383.207	19.78
383.415	19.67
383.623	19.72
383.831	19.78
384.039	19.74
384.247	19.62
384.454	19.44
384.662	19.42
384.87	19.29
385.078	19.11
385.285	19.2
385.493	19.52
385.701	19.42
385.909	19.38
386.116	19.18
386.324	19.19
386.532	19.15
386.739	19.31
386.947	19.3
387.155	19.64
387.362	19.72
387.57	19.73
387.778	19.68
387.985	19.78
388.193	19.72
388.4	19.59
388.608	19.56
388.816	19.57
389.023	19.28
389.231	19.18
389.438	19.05
389.646	19.23
389.853	19.12
390.061	19.07
390.268	19.15
390.475	19.27
390.683	19.48
390.89	19.4
391.098	19.5
391.305	19.59
391.512	19.56
391.72	19.51
391.927	19.55
392.135	19.74
392.342	19.61
392.549	19.74
392.756	19.86
392.964	19.8
393.171	19.8
393.378	19.79
393.586	19.93
393.793	20.08
394	20.2
394.207	20
394.414	20.07
394.622	20.33
394.829	20.19
395.036	20.14
395.243	20.19
395.45	20.31
395.657	20.46
395.864	20.28
396.072	20.38
396.279	20.26
396.486	20.5
396.693	20.17
396.9	20.08
397.107	20.07
397.314	20.01
397.521	19.88
397.728	19.99
397.935	19.96
398.142	20.18
398.349	20.36
398.556	20.33
398.763	20.18
398.97	20.35
399.177	20.38
399.383	20.31
399.59	20.36
399.797	20.49
400.004	20.42
400.211	20.32
400.418	20.44
400.625	20.16
400.831	20.13
401.038	20.31
401.245	20.29
401.452	20.21
401.658	20.23
401.865	20.04
402.072	20.03
402.279	20
402.485	20.05
402.692	19.86
402.899	20.11
403.105	20.28
403.312	20.09
403.519	20.19
403.725	20.16
403.932	20.21
404.138	20.33
404.345	20.42
404.552	20.42
404.758	20.4
404.965	20.31
405.171	20.08
405.378	20.04
405.584	20.14
405.791	20.01
405.997	20.06
406.204	19.99
406.41	19.97
406.617	19.82
406.823	19.63
407.029	19.33
407.236	19.27
407.442	19.35
407.649	19.41
407.855	19.37
408.061	19.45
408.268	19.54
408.474	19.53
408.68	19.64
408.887	19.63
409.093	19.97
409.299	20.11
409.505	20.08
409.712	19.89
409.918	19.62
410.124	19.7
410.33	19.52
410.537	19.48
410.743	19.52
410.949	19.38
411.155	19.49
411.361	19.33
411.567	19.34
411.773	19.52
411.98	19.47
412.186	19.66
412.392	19.54
412.598	19.73
412.804	19.8
413.01	19.86
413.216	19.9
413.422	19.84
413.628	20.07
413.834	20.3
414.04	20.14
414.246	20.4
414.452	20.32
414.658	20.37
414.864	20.33
415.07	20.34
415.275	20.42
415.481	20.44
415.687	20.3
415.893	20.27
416.099	20.06
416.305	20.17
416.511	20.26
416.716	20.33
416.922	20.27
417.128	20.2
417.334	20.11
417.539	20.06
417.745	20.1
417.951	20.2
418.157	20.16
418.362	20.17
418.568	20.25
418.774	20.19
418.979	20.27
419.185	20.34
419.391	20.41
419.596	20.56
419.802	20.56
420.008	20.53
420.213	20.62
420.419	20.65
420.624	20.63
420.83	20.58
421.035	20.6
421.241	20.49
421.446	20.47
421.652	20.43
421.857	20.36
422.063	20.25
422.268	20.23
422.474	20.11
422.679	20.08
422.885	20.2
423.09	20.16
423.295	20.17
423.501	20.29
423.706	20.31
423.911	20.32
424.117	20.34
424.322	20.42
424.527	20.45
424.733	20.53
424.938	20.59
425.143	20.53
425.349	20.53
425.554	20.55
425.759	20.41
425.964	20.39
426.169	20.42
426.375	20.34
426.58	20.33
426.785	20.26
426.99	20.19
427.195	20.06
427.4	20.15
427.605	20.19
427.811	20.18
428.016	20.12
428.221	20.11
428.426	20.09
428.631	20.1
428.836	20.24
429.041	20.4
429.246	20.54
429.451	20.65
429.656	20.63
429.861	20.66
430.066	20.62
430.271	20.82
430.476	20.88
430.681	20.92
430.886	20.99
431.09	20.94
431.295	20.91
431.5	20.85
431.705	20.78
431.91	20.82
432.115	20.84
432.32	20.81
432.524	20.8
432.729	20.8
432.934	20.79
433.139	20.79
433.343	20.75
433.548	20.8
433.753	20.78
433.958	20.89
434.162	20.9
434.367	20.88
434.572	20.96
434.776	20.94
434.981	20.97
435.186	20.97
435.39	20.98
435.595	21.04
435.799	20.91
436.004	20.95
436.209	20.91
436.413	20.81
436.618	20.78
436.822	20.65
437.027	20.77
437.231	20.8
437.436	20.84
437.64	20.79
437.845	20.69
438.049	20.7
438.253	20.73
438.458	20.7
438.662	20.76
438.867	20.8
439.071	20.91
439.275	20.88
439.48	20.79
439.684	20.8
439.888	20.84
440.093	20.91
440.297	21
440.501	20.94
440.706	20.93
440.91	20.86
441.114	20.9
441.318	20.84
441.523	20.8
441.727	20.87
441.931	20.85
442.135	20.86
442.339	20.83
442.543	20.67
442.748	20.76
442.952	20.77
443.156	20.87
443.36	20.85
443.564	20.92
443.768	20.91
443.972	20.91
444.176	20.92
444.38	20.95
444.584	21.01
444.788	21.12
444.992	21.08
445.196	21.1
445.4	21.05
445.604	21.05
445.808	21
446.012	21.02
446.216	20.99
446.42	20.97
446.624	20.95
446.828	20.91
447.032	20.91
447.235	20.88
447.439	20.87
447.643	20.99
447.847	21
448.051	20.96
448.254	21.05
448.458	21.13
448.662	21.15
448.866	21.2
449.069	21.2
449.273	21.22
449.477	21.21
449.681	21.34
449.884	21.13
450.088	21.13
450.292	21.28
450.495	21.17
450.699	21.03
450.902	21.12
451.106	21.1
451.31	21.21
451.513	21.17
451.717	21.24
451.92	21.1
452.124	21.17
452.327	21.17
452.531	21.11
452.734	21.07
452.938	21.17
453.141	21.05
453.345	20.97
453.548	20.9
453.752	20.93
453.955	20.96
454.158	20.93
454.362	20.97
454.565	20.93
454.769	20.9
454.972	20.94
455.175	20.87
455.379	20.88
455.582	20.9
455.785	20.8
455.988	20.8
456.192	20.63
456.395	20.67
456.598	20.57
456.801	20.65
457.005	20.67
457.208	20.73
457.411	20.77
457.614	20.8
457.817	20.85
458.021	20.8
458.224	20.76
458.427	20.83
458.63	20.85
458.833	20.86
459.036	20.8
459.239	20.86
459.442	20.8
459.645	20.77
459.848	20.78
460.051	20.78
460.254	20.83
460.457	20.9
460.66	20.82
460.863	20.88
461.066	20.88
461.269	20.91
461.472	20.87
461.675	20.85
461.878	20.79
462.081	20.73
462.284	20.78
462.486	20.85
462.689	20.69
462.892	20.89
463.095	20.76
463.298	20.78
463.5	20.72
463.703	20.66
463.906	20.7
464.109	20.82
464.311	20.83
464.514	20.73
464.717	20.71
464.92	20.83
465.122	20.71
465.325	20.82
465.528	20.87
465.73	21.06
465.933	21.18
466.135	21.07
466.338	21.07
466.541	21.04
466.743	21.02
466.946	21.01
467.148	21.1
467.351	21.17
467.553	21.04
467.756	21.05
467.958	20.97
468.161	20.88
468.363	20.97
468.566	20.94
468.768	21
468.971	21.12
469.173	21.21
469.375	21.17
469.578	21.06
469.78	21.17
469.983	21.24
470.185	21.19
470.387	21.26
470.59	21.2
470.792	21.26
470.994	21.35
471.196	21.13
471.399	21.09
471.601	21.19
471.803	21.28
472.005	21.21
472.208	21.02
472.41	21.04
472.612	21
472.814	20.97
473.016	20.99
473.218	21
473.421	21.09
473.623	20.95
473.825	20.8
474.027	20.77
474.229	20.82
474.431	20.87
474.633	20.95
474.835	20.82
475.037	20.98
475.239	21.03
475.441	21.03
475.643	21.01
475.845	21.08
476.047	21.14
476.249	21.2
476.451	21.23
476.653	21.28
476.855	21.25
477.057	21.41
477.258	21.26
477.46	21.26
477.662	21.19
477.864	21.22
478.066	21.31
478.268	21.32
478.469	21.22
478.671	21.2
478.873	21.19
479.075	21.25
479.276	21.22
479.478	21.3
479.68	21.25
479.882	21.38
480.083	21.33
480.285	21.24
480.487	21.15
480.688	21.22
480.89	21.24
481.091	21.31
481.293	21.21
481.495	21.24
481.696	21.3
481.898	21.29
482.099	21.2
482.301	21.24
482.502	21.22
482.704	21.18
482.905	21.16
483.107	21.12
483.308	21.09
483.51	21.09
483.711	21.03
483.913	21
484.114	20.99
484.315	20.98
484.517	20.99
484.718	20.99
484.92	21.03
485.121	21.01
485.322	21
485.524	20.98
485.725	20.95
485.926	21.01
486.127	21
486.329	21
486.53	20.99
486.731	20.96
486.932	20.98
487.134	21.01
487.335	21.06
487.536	21.08
487.737	21.1
487.938	21.14
488.139	21.09
488.341	21.1
488.542	21.11
488.743	21.14
488.944	21.13
489.145	21.13
489.346	21.09
489.547	21.08
489.748	21.09
489.949	21.08
490.15	21.07
490.351	21.13
490.552	21.1
490.753	21.07
490.954	21.06
491.155	21.05
491.356	21.05
491.557	21.04
491.758	21.01
491.959	20.99
492.159	21
492.36	20.95
492.561	20.92
492.762	20.99
492.963	20.98
493.164	20.99
493.364	21.02
493.565	21.07
493.766	21.15
493.967	21.08
494.167	21.05
494.368	21.07
494.569	21.23
494.769	21.26
494.97	21.27
495.171	21.36
495.371	21.41
495.572	21.39
495.773	21.37
495.973	21.28
496.174	21.36
496.375	21.48
496.575	21.5
496.776	21.48
496.976	21.45
497.177	21.46
497.377	21.44
497.578	21.45
497.778	21.5
497.979	21.53
498.179	21.59
498.38	21.54
498.58	21.46
498.78	21.45
498.981	21.49
499.181	21.52
499.382	21.45
499.582	21.41
499.782	21.44
499.983	21.42
500.183	21.44
500.383	21.5
500.584	21.63
500.784	21.63
500.984	21.67
501.184	21.59
501.385	21.55
501.585	21.63
501.785	21.7
501.985	21.76
502.185	21.77
502.386	21.74
502.586	21.71
502.786	21.69
502.986	21.87
503.186	21.78
503.386	21.78
503.586	21.88
503.786	21.81
503.987	21.73
504.187	21.63
504.387	21.7
504.587	21.75
504.787	21.78
504.987	21.74
505.187	21.63
505.387	21.78
505.587	21.75
505.786	21.68
505.986	21.72
506.186	21.78
506.386	21.85
506.586	21.79
506.786	21.85
506.986	21.84
507.186	21.97
507.386	22.03
507.585	21.92
507.785	21.98
507.985	22.07
508.185	22.04
508.384	22.13
508.584	22.13
508.784	22.13
508.984	22.11
509.183	22.16
509.383	22.1
509.583	22.14
509.782	22.23
509.982	22.29
510.182	22.26
510.381	22.42
510.581	22.38
510.781	22.34
510.98	22.41
511.18	22.44
511.379	22.43
511.579	22.48
511.778	22.44
511.978	22.33
512.177	22.36
512.377	22.48
512.576	22.42
512.776	22.51
512.975	22.6
513.175	22.59
513.374	22.68
513.573	22.79
513.773	22.8
513.972	22.89
514.172	23.06
514.371	23.11
514.57	23.08
514.77	23.15
514.969	23.16
515.168	23.2
515.367	23.24
515.567	23.16
515.766	23.07
515.965	23.16
516.164	23.17
516.364	23.14
516.563	23.12
516.762	23.17
516.961	23.24
517.16	23.3
517.359	23.31
517.559	23.39
517.758	23.37
517.957	23.39
518.156	23.33
518.355	23.39
518.554	23.48
518.753	23.5
518.952	23.51
519.151	23.49
519.35	23.5
519.549	23.44
519.748	23.43
519.947	23.53
520.146	23.56
520.345	23.63
520.544	23.62
520.743	23.63
520.942	23.56
521.141	23.55
521.339	23.51
521.538	23.52
521.737	23.57
521.936	23.56
522.135	23.61
522.333	23.69
522.532	23.67
522.731	23.66
522.93	23.67
523.129	23.82
523.327	23.96
523.526	24.03
523.725	24.13
523.923	24.22
524.122	24.31
524.321	24.28
524.519	24.31
524.718	24.39
524.917	24.39
525.115	24.4
525.314	24.46
525.512	24.43
525.711	24.46
525.909	24.38
526.108	24.43
526.306	24.45
526.505	24.59
526.703	24.61
526.902	24.65
527.1	24.7
527.299	24.79
527.497	24.75
527.696	24.78
527.894	24.81
528.092	24.85
528.291	24.85
528.489	24.88
528.688	24.85
528.886	24.86
529.084	24.89
529.283	24.93
529.481	24.92
529.679	24.99
529.877	25.01
530.076	24.97
530.274	25.01
530.472	25.04
530.67	25.09
530.869	25.13
531.067	25.17
531.265	25.17
531.463	25.2
531.661	25.24
531.859	25.26
532.057	25.31
532.255	25.48
532.454	25.52
532.652	25.58
532.85	25.63
533.048	25.69
533.246	25.72
533.444	25.77
533.642	25.81
533.84	25.85
534.038	25.87
534.236	25.88
534.434	25.86
534.632	25.89
534.83	25.93
535.027	25.96
535.225	25.96
535.423	26.05
535.621	26.07
535.819	26.14
536.017	26.16
536.215	26.18
536.412	26.25
536.61	26.28
536.808	26.32
537.006	26.37
537.203	26.41
537.401	26.45
537.599	26.44
537.797	26.49
537.994	26.53
538.192	26.67
538.39	26.81
538.587	26.88
538.785	27
538.983	27.13
539.18	27.2
539.378	27.21
539.575	27.31
539.773	27.39
539.97	27.48
540.168	27.58
540.366	27.58
540.563	27.63
540.761	27.65
540.958	27.67
541.155	27.7
541.353	27.72
541.55	27.82
541.748	27.83
541.945	27.85
542.143	27.88
542.34	27.91
542.537	27.98
542.735	28
542.932	28.01
543.129	28.08
543.327	28.12
543.524	28.18
543.721	28.25
543.919	28.36
544.116	28.57
544.313	28.76
544.51	28.89
544.708	29.04
544.905	29.21
545.102	29.48
545.299	29.6
545.496	29.72
545.693	29.84
545.891	29.89
546.088	29.8
546.285	29.82
546.482	29.69
546.679	29.63
546.876	29.58
547.073	29.51
547.27	29.44
547.467	29.33
547.664	29.22
547.861	29.16
548.058	29.15
548.255	29.2
548.452	29.04
548.649	29.04
548.846	28.99
549.043	28.87
549.24	28.85
549.437	28.71
549.633	28.67
549.83	28.71
550.027	28.69
550.224	28.51
550.421	28.52
550.618	28.54
550.814	28.53
551.011	28.5
551.208	28.54
551.405	28.47
551.601	28.57
551.798	28.57
551.995	28.46
552.191	28.52
552.388	28.57
552.585	28.56
552.781	28.48
552.978	28.49
553.175	28.41
553.371	28.35
553.568	28.43
553.764	28.31
553.961	28.37
554.157	28.41
554.354	28.35
554.55	28.35
554.747	28.41
554.943	28.4
555.14	28.33
555.336	28.4
555.533	28.47
555.729	28.37
555.926	28.52
556.122	28.49
556.318	28.57
556.515	28.7
556.711	28.72
556.907	28.75
557.104	28.88
557.3	28.94
557.496	28.93
557.693	28.98
557.889	28.95
558.085	28.83
558.281	28.81
558.478	28.88
558.674	28.82
558.87	28.74
559.066	28.76
559.262	28.76
559.459	28.82
559.655	28.88
559.851	28.83
560.047	28.81
560.243	28.78
560.439	28.78
560.635	28.74
560.831	28.68
561.027	28.71
561.223	28.76
561.419	28.67
561.615	28.69
561.811	28.82
562.007	28.83
562.203	28.93
562.399	29.03
562.595	29.11
562.791	29.04
562.987	28.96
563.183	28.98
563.379	28.9
563.575	28.92
563.771	28.94
563.966	28.76
564.162	28.79
564.358	28.71
564.554	28.74
564.75	28.77
564.945	28.8
565.141	28.99
565.337	28.99
565.533	28.99
565.728	29.03
565.924	29.03
566.12	29.11
566.315	29.08
566.511	29.19
566.707	29.2
566.902	29.09
567.098	29.19
567.293	29.16
567.489	29.16
567.684	29.17
567.88	29.16
568.076	29.21
568.271	29.21
568.467	29.26
568.662	29.27
568.858	29.32
569.053	29.4
569.248	29.39
569.444	29.39
569.639	29.43
569.835	29.35
570.03	29.44
570.225	29.38
570.421	29.37
570.616	29.46
570.812	29.56
571.007	29.46
571.202	29.47
571.397	29.45
571.593	29.47
571.788	29.47
571.983	29.52
572.178	29.42
572.374	29.34
572.569	29.34
572.764	29.19
572.959	29.12
573.154	29.21
573.35	29.27
573.545	29.22
573.74	29.18
573.935	29.34
574.13	29.41
574.325	29.48
574.52	29.62
574.715	29.62
574.91	29.75
575.105	29.83
575.3	29.87
575.495	29.94
575.69	30.01
575.885	30.15
576.08	30.13
576.275	30.25
576.47	30.38
576.665	30.43
576.86	30.51
577.055	30.58
577.25	30.66
577.444	30.6
577.639	30.7
577.834	30.78
578.029	30.75
578.224	30.74
578.418	30.73
578.613	30.91
578.808	31
579.003	30.93
579.197	31.02
579.392	30.83
579.587	30.93
579.781	30.72
579.976	30.7
580.171	30.66
580.365	30.59
580.56	30.56
580.755	30.37
580.949	30.4
581.144	30.63
581.338	30.52
581.533	30.67
581.727	30.65
581.922	30.65
582.116	30.73
582.311	30.87
582.505	31.01
582.7	31.14
582.894	31.05
583.089	31.05
583.283	30.93
583.478	31.04
583.672	31.1
583.866	31.23
584.061	31.32
584.255	31.33
584.449	31.31
584.644	31.43
584.838	31.36
585.032	31.56
585.226	31.53
585.421	31.66
585.615	31.72
585.809	31.78
586.003	31.83
586.198	31.89
586.392	32.01
586.586	32.02
586.78	31.9
586.974	32.02
587.168	31.81
587.363	31.82
587.557	31.74
587.751	31.62
587.945	31.53
588.139	31.57
588.333	31.51
588.527	31.36
588.721	31.34
588.915	31.37
589.109	31.31
589.303	31.43
589.497	31.4
589.691	31.34
589.885	31.37
590.079	31.38
590.273	31.25
590.466	31.51
590.66	31.55
590.854	31.56
591.048	31.59
591.242	31.64
591.436	31.67
591.629	31.8
591.823	31.96
592.017	32.06
592.211	32.13
592.404	32.21
592.598	31.98
592.792	32
592.986	31.98
593.179	31.89
593.373	31.86
593.567	31.98
593.76	32.02
593.954	32
594.147	31.87
594.341	31.82
594.535	31.82
594.728	31.74
594.922	31.69
595.115	31.69
595.309	31.69
595.502	31.71
595.696	31.62
595.889	31.58
596.083	31.55
596.276	31.53
596.47	31.54
596.663	31.5
596.856	31.59
597.05	31.61
597.243	31.6
597.437	31.67
597.63	31.68
597.823	31.75
598.017	31.64
598.21	31.74
598.403	31.84
598.596	31.76
598.79	31.83
598.983	31.94
599.176	32.08
599.369	32.11
599.563	32.1
599.756	32.24
599.949	32.27
600.142	32.24
600.335	32.35
600.528	32.25
600.722	32.45
600.915	32.47
601.108	32.41
601.301	32.29
601.494	32.31
601.687	32.32
601.88	32.14
602.073	32.02
602.266	32.11
602.459	31.86
602.652	31.94
602.845	31.79
603.038	31.71
603.231	31.52
603.424	31.52
603.617	31.53
603.809	31.44
604.002	31.56
604.195	31.54
604.388	31.55
604.581	31.61
604.774	31.61
604.966	31.54
605.159	31.56
605.352	31.63
605.545	31.72
605.737	31.75
605.93	31.9
606.123	31.91
606.316	32.04
606.508	32.07
606.701	32.19
606.894	32.26
607.086	32.61
607.279	32.87
607.471	33.18
607.664	33.21
607.857	33.59
608.049	33.75
608.242	34.14
608.434	34.56
608.627	35.33
608.819	36.11
609.012	36.99
609.204	37.81
609.397	38.69
609.589	39.79
609.782	41.05
609.974	42.14
610.166	43.47
610.359	44.46
610.551	45.6
610.743	46.5
610.936	47.22
611.128	47.82
611.32	48.34
611.513	48.69
611.705	48.66
611.897	48.48
612.09	48.21
612.282	47.71
612.474	47.31
612.666	46.67
612.858	45.85
613.051	45.07
613.243	44.3
613.435	43.66
613.627	43.02
613.819	42.27
614.011	42
614.203	41.23
614.395	40.64
614.588	40.28
614.78	39.72
614.972	39.14
615.164	38.89
615.356	38.59
615.548	38.01
615.74	37.62
615.932	37.39
616.124	36.78
616.315	36.54
616.507	36.44
616.699	35.93
616.891	35.86
617.083	35.66
617.275	35.39
617.467	35.2
617.659	35.02
617.85	34.88
618.042	34.66
618.234	34.61
618.426	34.53
618.618	34.3
618.809	34.31
619.001	34.03
619.193	34.1
619.384	34.06
619.576	34
619.768	34.01
619.959	33.92
620.151	34.04
620.343	33.94
620.534	34.02
620.726	34.17
620.917	34.02
621.109	34.08
621.301	34.02
621.492	34.14
621.684	34.21
621.875	34.26
622.067	34.53
622.258	34.6
622.45	34.6
622.641	34.59
622.832	34.43
623.024	34.76
623.215	34.8
623.407	34.79
623.598	34.77
623.789	34.84
623.981	34.97
624.172	34.8
624.363	34.93
624.555	35.08
624.746	35.22
624.937	35.23
625.129	35.2
625.32	35.14
625.511	35.38
625.702	35.31
625.893	35.21
626.085	35.22
626.276	35.23
626.467	35.23
626.658	35.18
626.849	35.16
627.04	35.16
627.231	34.99
627.422	35.03
627.614	34.99
627.805	34.81
627.996	34.95
628.187	35.18
628.378	35.38
628.569	35.32
628.76	35.6
628.951	35.76
629.142	35.92
629.332	36.27
629.523	36.66
629.714	36.67
629.905	37.05
630.096	37.14
630.287	37.09
630.478	37.02
630.669	37.12
630.859	36.89
631.05	36.69
631.241	36.56
631.432	36.3
631.623	35.88
631.813	35.67
632.004	35.58
632.195	35.38
632.385	35.12
632.576	34.84
632.767	34.56
632.957	34.41
633.148	34.3
633.339	34.15
633.529	34.07
633.72	33.99
633.91	34.04
634.101	33.9
634.292	33.74
634.482	33.52
634.673	33.69
634.863	33.71
635.054	33.69
635.244	33.73
635.435	33.82
635.625	33.6
635.815	33.66
636.006	33.67
636.196	33.6
636.387	33.88
636.577	34.03
636.767	34.07
636.958	34.12
637.148	34.23
637.338	34.3
637.529	34.23
637.719	34.4
637.909	34.41
638.099	34.38
638.29	34.33
638.48	34.04
638.67	34.01
638.86	33.96
639.05	33.94
639.241	33.9
639.431	34.01
639.621	34.15
639.811	34.33
640.001	34.25
640.191	34.25
640.381	34.62
640.571	34.74
640.761	34.83
640.951	34.8
641.141	34.62
641.331	34.62
641.521	34.43
641.711	34.43
641.901	34.4
642.091	34.42
642.281	34.5
642.471	34.25
642.661	34.28
642.851	34.33
643.041	34.22
643.231	34.45
643.42	34.71
643.61	34.64
643.8	34.69
643.99	34.73
644.18	34.7
644.369	34.71
644.559	34.61
644.749	34.42
644.939	34.48
645.128	34.61
645.318	34.55
645.508	34.01
645.697	34.29
645.887	34.29
646.076	34.15
646.266	34.43
646.456	34.51
646.645	34.71
646.835	34.92
647.024	34.79
647.214	34.75
647.403	35.03
647.593	35.43
647.782	35.03
647.972	35.11
648.161	35.25
648.351	35.03
648.54	35.11
648.73	35.15
648.919	35.33
649.108	35.36
649.298	35.54
649.487	35.24
649.677	35.29
649.866	35.62
650.055	35.47
650.244	35.57
650.434	35.63
650.623	35.47
650.812	35.58
651.002	35.56
651.191	35.54
651.38	35.58
651.569	35.7
651.758	35.59
651.947	35.66
652.137	35.79
652.326	35.7
652.515	35.66
652.704	35.89
652.893	35.64
653.082	35.45
653.271	35.51
653.46	35.18
653.649	35.18
653.838	35.29
654.027	35.02
654.216	34.95
654.405	34.83
654.594	34.99
654.783	34.76
654.972	34.72
655.161	34.78
655.35	34.86
655.539	34.78
655.728	34.69
655.916	34.8
656.105	34.81
656.294	34.82
656.483	35.11
656.672	35.08
656.86	35.34
657.049	35.42
657.238	35.6
657.427	35.36
657.615	35.63
657.804	35.69
657.993	35.37
658.181	35.47
658.37	35.46
658.559	35.32
658.747	35.41
658.936	35.35
659.125	35.28
659.313	35
659.502	35.18
659.69	35.1
659.879	35.11
660.067	35.34
660.256	35.37
660.444	35.31
660.633	35.56
660.821	35.38
661.01	35.4
661.198	35.38
661.387	35.64
661.575	35.81
661.763	35.9
661.952	35.99
662.14	36.19
662.328	36.32
662.517	36.43
662.705	36.18
662.893	36.36
663.082	36.18
663.27	36.61
663.458	36.39
663.646	35.88
663.834	35.94
664.023	35.9
664.211	35.54
664.399	35.32
664.587	35.31
664.775	35.22
664.963	35.08
665.152	35.15
665.34	34.93
665.528	35.05
665.716	35.55
665.904	35.59
666.092	35.32
666.28	35.43
666.468	35.51
666.656	35.35
666.844	35.29
667.032	35.54
667.22	35.54
667.408	35.43
667.596	35.59
667.784	35.46
667.971	35.24
668.159	35.27
668.347	35.42
668.535	35.51
668.723	35.73
668.911	35.85
669.098	35.65
669.286	35.6
669.474	35.77
669.662	35.41
669.849	35.42
670.037	35.7
670.225	35.94
670.413	35.84
670.6	35.85
670.788	35.82
670.976	35.93
671.163	36.07
671.351	35.89
671.538	36.02
671.726	36.37
671.913	36.42
672.101	36.37
672.289	36.4
672.476	36.28
672.664	36.11
672.851	36.13
673.039	36.09
673.226	36.3
673.413	36.55
673.601	36.57
673.788	36.52
673.976	36.5
674.163	36.38
674.35	36.26
674.538	36.66
674.725	36.96
674.912	37.05
675.1	36.87
675.287	36.48
675.474	36.58
675.662	36.38
675.849	36.39
676.036	36.38
676.223	36.53
676.411	36.81
676.598	36.56
676.785	36.54
676.972	36.46
677.159	36.61
677.346	36.67
677.533	36.61
677.721	36.43
677.908	36.62
678.095	36.71
678.282	36.58
678.469	36.39
678.656	36.29
678.843	36
679.03	35.89
679.217	35.88
679.404	36.05
679.591	36.07
679.778	36.2
679.964	36.25
680.151	36.22
680.338	36.14
680.525	36.33
680.712	36.52
680.899	36.66
681.086	36.86
681.272	37.07
681.459	37.18
681.646	37.2
681.833	37.25
682.02	36.94
682.206	36.97
682.393	36.98
682.58	36.95
682.766	36.93
682.953	36.95
683.14	36.91
683.326	36.89
683.513	36.66
683.7	36.58
683.886	36.37
684.073	36.46
684.259	36.44
684.446	36.43
684.632	36.42
684.819	36.58
685.005	36.76
685.192	36.95
685.378	36.95
685.565	37.13
685.751	37.28
685.938	37.76
686.124	38.29
686.31	38.51
686.497	38.86
686.683	38.97
686.87	38.89
687.056	38.6
687.242	38.59
687.429	38.57
687.615	38.81
687.801	38.76
687.987	38.74
688.174	38.36
688.36	37.97
688.546	38.08
688.732	38.1
688.918	38.12
689.105	38.46
689.291	38.31
689.477	38.3
689.663	38.13
689.849	38.68
690.035	38.99
690.221	38.85
690.407	39.22
690.593	39.14
690.779	39.04
690.965	38.83
691.151	38.64
691.337	38.46
691.523	38.56
691.709	38.8
691.895	38.55
692.081	38.14
692.267	38.61
692.453	38.49
692.639	38.48
692.825	38.63
693.011	38.8
693.196	39.04
693.382	39.24
693.568	39.3
693.754	39.27
693.94	39.04
694.125	39.11
694.311	39.11
694.497	39.22
694.682	39.33
694.868	39.43
695.054	39.51
695.239	39.25
695.425	39.18
695.611	39.2
695.796	39
695.982	38.99
696.168	38.98
696.353	38.6
696.539	38.39
696.724	38.37
696.91	38.24
697.095	38.09
697.281	38.08
697.466	38.12
697.652	37.91
697.837	37.64
698.023	37.76
698.208	37.8
698.393	37.96
698.579	38.14
698.764	37.83
698.949	37.55
699.135	37.77
699.32	37.59
699.505	37.55
699.691	37.64
699.876	37.69
700.061	37.68
700.246	37.65
700.432	37.5
700.617	37.59
700.802	37.78
700.987	37.91
701.172	37.88
701.358	38.2
701.543	38.4
701.728	38.35
701.913	38.59
702.098	38.49
702.283	38.33
702.468	38.58
702.653	38.3
702.838	38.38
703.023	38.76
703.208	38.71
703.393	39.02
703.578	39.03
703.763	39.59
703.948	39.85
704.133	40.45
704.318	41.15
704.503	41.42
704.688	41.84
704.873	42.49
705.057	42.96
705.242	43.18
705.427	43.47
705.612	43.89
705.797	43.92
705.981	44.09
706.166	44.17
706.351	43.85
706.536	44.21
706.72	44.17
706.905	44.32
707.09	44.41
707.274	44.53
707.459	44.78
707.644	44.53
707.828	44.58
708.013	44.65
708.197	44.2
708.382	44.44
708.567	44.27
708.751	44.23
708.936	43.74
709.12	43.45
709.305	43
709.489	42.51
709.673	42.45
709.858	42.37
710.042	42.29
710.227	42.12
710.411	42.02
710.596	41.71
710.78	41.56
710.964	41.82
711.149	41.82
711.333	42.37
711.517	42.41
711.702	42.54
711.886	42.81
712.07	42.84
712.254	43.16
712.438	42.92
712.623	43.37
712.807	43.75
712.991	43.33
713.175	43.17
713.359	42.98
713.544	42.9
713.728	42.49
713.912	41.93
714.096	41.62
714.28	41.17
714.464	40.77
714.648	40.42
714.832	39.86
715.016	39.88
715.2	40.08
715.384	39.76
715.568	39.71
715.752	39.69
715.936	39.17
716.12	39.18
716.304	39.28
716.488	39.92
716.671	39.64
716.855	39.53
717.039	39.37
717.223	39.19
717.407	38.85
717.59	38.57
717.774	38.78
717.958	39.08
718.142	39.27
718.325	39.29
718.509	38.86
718.693	38.54
718.877	38.68
719.06	38.52
719.244	38.11
719.428	38.37
719.611	38.38
719.795	38.53
719.978	38.82
720.162	38.48
720.345	38.35
720.529	38.51
720.713	38.79
720.896	38.75
721.08	38.87
721.263	39.3
721.446	39.36
721.63	40.09
721.813	39.83
721.997	39.92
722.18	40.42
722.364	41.12
722.547	40.79
722.73	40.72
722.914	41.46
723.097	41.4
723.28	41.72
723.464	41.84
723.647	41.62
723.83	41.95
724.013	42.04
724.197	41.66
724.38	40.63
724.563	41.28
724.746	41.51
724.929	40.99
725.112	41.22
725.296	40.74
725.479	40.51
725.662	40.08
725.845	39.73
726.028	39.64
726.211	39.67
726.394	40.13
726.577	39.88
726.76	39.34
726.943	39.4
727.126	39.71
727.309	39.52
727.492	39.48
727.675	39.39
727.858	39.58
728.041	39.34
728.224	39.64
728.407	39.9
728.589	39.89
728.772	40.09
728.955	40.27
729.138	40.01
729.321	40.19
729.503	40.75
729.686	40.74
729.869	40.61
730.052	40.9
730.234	40.33
730.417	40.06
730.6	40.48
730.782	40.71
730.965	40.64
731.148	40.91
731.33	41.02
731.513	40.59
731.695	40.66
731.878	40.91
732.061	40.47
732.243	40.69
732.426	40.9
732.608	40.99
732.791	41.35
732.973	41.02
733.156	40.5
733.338	40.44
733.52	40.8
733.703	40.9
733.885	40.94
734.068	41.41
734.25	41.34
734.432	41.73
734.615	41.4
734.797	41.41
734.979	41.24
735.162	41.67
735.344	42.1
735.526	41.43
735.708	41.75
735.891	41.69
736.073	41.54
736.255	41.77
736.437	41.32
736.619	40.87
736.802	40.35
736.984	40.95
737.166	40.88
737.348	40.59
737.53	41.03
737.712	40.53
737.894	40.49
738.076	40.46
738.258	40.53
738.44	40.71
738.622	41
738.804	41.14
738.986	40.92
739.168	41.17
739.35	40.96
739.532	41.26
739.714	41.65
739.896	41.81
740.078	41.85
740.259	41.75
740.441	41.82
740.623	41.81
740.805	41.81
740.987	42.38
741.168	42.34
741.35	42.18
741.532	42.26
741.714	42.21
741.895	41.8
742.077	42.26
742.259	42.56
742.44	42.17
742.622	41.83
742.804	41.57
742.985	41.09
743.167	40.61
743.348	41.21
743.53	41.09
743.711	41.41
743.893	42.34
744.075	41.65
744.256	41.43
744.438	41.62
744.619	42.09
744.8	42.92
744.982	43.59
745.163	43.8
745.345	43.42
745.526	44.01
745.707	43.81
745.889	43.04
746.07	43.08
746.252	43.37
746.433	43.59
746.614	43.68
746.795	43.35
746.977	42.7
747.158	43.3
747.339	43.08
747.52	42.13
747.702	42.45
747.883	42.43
748.064	42.14
748.245	41.95
748.426	41.55
748.607	41.27
748.788	41.49
748.97	41.67
749.151	41.52
749.332	42.07
749.513	42.32
749.694	42.51
749.875	42.99
750.056	43.58
750.237	43.65
750.418	44.27
750.599	44.22
750.78	43.29
750.96	43.37
751.141	43.14
751.322	43.07
751.503	42.83
751.684	42.39
751.865	41.62
752.046	41.9
752.226	41.57
752.407	41.29
752.588	41.8
752.769	42.8
752.949	43.1
753.13	44.01
753.311	44.7
753.492	45.05
753.672	45.01
753.853	45.14
754.034	44.76
754.214	45.28
754.395	44.94
754.575	44.37
754.756	44.28
754.937	44.01
755.117	43.14
755.298	42.54
755.478	43.02
755.659	42.45
755.839	42.87
756.02	42.9
756.2	41.75
756.381	41.27
756.561	41.28
756.741	40.49
756.922	40.08
757.102	39.44
757.283	39.71
757.463	39.04
757.643	39.6
757.823	38.93
758.004	38.11
758.184	38.5
758.364	39.41
758.545	39.71
758.725	39.56
758.905	39.81
759.085	39.5
759.265	38.82
759.446	38.33
759.626	38.06
759.806	38.2
759.986	39.06
760.166	38.96
760.346	38.34
760.526	38.18
760.706	38.37
760.886	37.97
761.066	38.89
761.246	38.42
761.426	38.35
761.606	38.89
761.786	38.94
761.966	38.82
762.146	39.05
762.326	39.06
762.506	38.62
762.686	39.23
762.866	39.61
763.046	39.22
763.225	39.34
763.405	39.94
763.585	39.74
763.765	39.83
763.945	39.66
764.124	39.79
764.304	39.76
764.484	40.32
764.664	39.9
764.843	39.57
765.023	39.75
765.203	40
765.382	39.23
765.562	39.28
765.741	39.43
765.921	39.59
766.101	39.27
766.28	39.67
766.46	39.45
766.639	39.9
766.819	40.28
766.998	40.73
767.178	40.43
767.357	40.93
767.537	40.12
767.716	40.57
767.896	41.11
768.075	41.72
768.254	41.91
768.434	42.65
768.613	42.28
768.792	42.23
768.972	42.29
769.151	42.66
769.33	42.73
769.51	43.36
769.689	43.06
769.868	42.55
770.047	42.38
770.226	42.01
770.406	41.83
770.585	41.74
770.764	41.39
770.943	41.36
771.122	41.6
771.301	41.61
771.48	42.31
771.66	41.67
771.839	42.06
772.018	42.11
772.197	41.38
772.376	40.96
772.555	41.34
772.734	42.38
772.913	42.06
773.092	42.11
773.271	42.33
773.449	41.48
773.628	41.95
773.807	41.96
773.986	41.94
774.165	43.14
774.344	43.49
774.523	43.75
774.701	43.22
774.88	42.78
775.059	42.41
775.238	42.9
775.417	44.33
775.595	44.85
775.774	44.48
775.953	44.8
776.131	45.51
776.31	45.12
776.489	44.56
776.667	44.6
776.846	45.53
777.025	46.33
777.203	45.27
777.382	45
777.56	44.41
777.739	44.56
777.917	43.92
778.096	42.74
778.274	42.68
778.453	43.18
778.631	43.68
778.81	42.3
778.988	42.39
779.166	42.9
779.345	42.54
779.523	42.3
779.702	41.95
779.88	42.47
780.058	43.49
780.237	43.54
780.415	43.31
780.593	42.66
780.771	43.35
780.95	43.4
781.128	43.88
781.306	43.77
781.484	44.11
781.662	45.4
781.841	44.86
782.019	43.7
782.197	43.83
782.375	44.34
782.553	44.33
782.731	44.91
782.909	43.64
783.087	42.77
783.265	41.83
783.443	42.09
783.621	41.86
783.799	41.79
783.977	42.15
784.155	43
784.333	42.64
784.511	42.82
784.689	42.52
784.867	43.61
785.045	43.34
785.223	43
785.4	43.6
785.578	42.78
785.756	43.03
785.934	43.18
786.112	42.43
786.289	41.96
786.467	41.68
786.645	41.3
786.823	40.89
787	41.13
787.178	41.17
787.356	39.66
787.533	40.72
787.711	40.55
787.889	41.2
788.066	40.9
788.244	40.69
788.421	40.5
788.599	41.39
788.776	42.16
788.954	42.33
789.131	43.36
789.309	43.66
789.486	43.62
789.664	42.99
789.841	43.6
790.019	43.51
790.196	44.13
790.373	43.8
790.551	44.18
790.728	42.14
790.906	42.33
791.083	42.52
791.26	43.3
791.437	42.71
791.615	42.98
791.792	41.67
791.969	41.81
792.146	39.61
792.324	42.01
792.501	39.24
792.678	39.93
792.855	39.46
793.032	39.26
793.209	38.9
793.387	38.37
793.564	39.1
793.741	39.77
793.918	39.49
794.095	41.51
794.272	40.39
794.449	42.55
794.626	42.82
794.803	42.64
794.98	43.15
795.157	41.78
795.334	42.7
795.511	42.51
795.688	41.37
795.864	41.72
796.041	43.28
796.218	42.7
796.395	41.89
796.572	42.04
796.749	42.38
796.925	41.6
797.102	42.94
797.279	42.09
797.456	42.11
797.632	42.78
797.809	41.83
797.986	39.64
798.162	39.25
798.339	40.47
798.516	40.95
798.692	41.56
798.869	41.73
799.046	41.34
799.222	41.06
799.399	41.31
799.575	41.15
799.752	42.58
799.928	43.55
800.105	43.47
800.281	42.52
800.458	41.29
800.634	41.5
800.811	41.93
800.987	42.45
801.163	42.28
801.34	43.21
801.516	42.96
801.692	42.88
801.869	42.97
802.045	42.81
802.221	42.46
802.398	42.99
802.574	41.84
802.75	41.9
802.926	41.8
803.103	42.9
803.279	41.41
803.455	41.68
803.631	41.21
803.807	40.86
803.983	42.7
804.16	42.54
804.336	42.93
804.512	43.62
804.688	43.1
804.864	43.08
805.04	42.2
805.216	42.51
805.392	41.36
805.568	42.24
805.744	41.01
805.92	39.43
806.096	39.53
806.272	39.39
806.448	39.82
806.623	40.04
806.799	39.34
806.975	39.58
807.151	39.52
807.327	39.71
807.503	39.24
807.678	40.34
807.854	40.91
808.03	41.98
808.206	41.77
808.381	41.51
808.557	40.28
808.733	39.95
808.908	39.82
809.084	40.13
809.26	40.49
809.435	39.95
809.611	38.86
809.787	38.99
809.962	38.37
810.138	38.05
810.313	38.11
810.489	38.59
810.664	39.47
810.84	39.58
811.015	37.79
811.191	37.43
811.366	38.47
811.542	39.06
811.717	38.89
811.892	39.33
812.068	39.07
812.243	38.95
812.419	38.35
812.594	38.48
812.769	38.01
812.944	39.54
813.12	40.17
813.295	38.12
813.47	38.23
813.645	38.6
813.821	38.51
813.996	40.41
814.171	40.85
814.346	42.54
814.521	42.64
814.697	43.48
814.872	43.39
815.047	44.14
815.222	45.51
815.397	44.64
815.572	44.61
815.747	42.39
815.922	41.51
816.097	41.42
816.272	40.5
816.447	40.7
816.622	40.93
816.797	41.01
816.972	39.96
817.147	38.68
817.322	39.66
817.496	40.03
817.671	41.14
817.846	41.18
818.021	39.8
818.196	39.63
818.371	37.74
818.545	36.43
818.72	36.85
818.895	38.1
819.069	40.12
819.244	39.74
819.419	39.4
819.594	39.56
819.768	39.69
819.943	39.13
820.117	38.63
820.292	39.29
820.467	39.8
820.641	38.7
820.816	38.32
820.99	37.27
821.165	37.1
821.339	36.85
821.514	37.01
821.688	36.43
821.863	36.76
822.037	36.91
822.212	36.86
822.386	36.65
822.56	36.79
822.735	36.7
822.909	36.85
823.084	36.76
823.258	36.54
823.432	36.32
823.606	36.63
823.781	36.56
823.955	36.66
824.129	36.24
824.303	36.26
824.478	36.44
824.652	36.31
824.826	36.18
825	36.73
825.174	37.16
825.348	37.46
825.523	37.15
825.697	37.17
825.871	37.21
826.045	37.74
826.219	37.98
826.393	37.81
826.567	37.95
826.741	38.33
826.915	37.6
827.089	37.76
827.263	37.39
827.437	38.19
827.611	38.16
827.784	37.76
827.958	37.5
828.132	37.08
828.306	36.75
828.48	36.32
828.654	36.56
828.827	36.29
829.001	36.43
829.175	35.92
829.349	35.04
829.522	34.74
829.696	34.99
829.87	35.22
830.044	35.76
830.217	35.69
830.391	35.95
830.565	34.79
830.738	37.3
830.912	36.5
831.085	36.63
831.259	37.13
831.432	36.27
831.606	36.16
831.779	36.97
831.953	37.01
832.126	36.2
832.3	36.68
832.473	36.3
832.647	35.41
832.82	34.98
832.994	35.48
833.167	35.19
833.34	37.19
833.514	36.76
833.687	36.63
833.86	36.64
834.034	37.81
834.207	37.07
834.38	37.55
834.553	37.85
834.727	38.09
834.9	39.07
835.073	39.03
835.246	38.31
835.419	37.93
835.593	37.56
835.766	37.19
835.939	35.15
836.112	36.59
836.285	36.74
836.458	35.52
836.631	36.14
836.804	35.47
836.977	33.86
837.15	32.28
837.323	32.44
837.496	33.54
837.669	32.97
837.842	36.38
838.015	35.6
838.188	34.96
838.361	35.92
838.533	34.18
838.706	33.98
838.879	36.49
839.052	39.05
839.225	40.99
839.398	39.49
839.57	40.73
839.743	40.7
839.916	41.52
840.088	40.77
840.261	40.28
840.434	41.27
840.607	40.64
840.779	39.68
840.952	39
841.124	39.31
841.297	39.72
841.47	40.64
841.642	37.75
841.815	37.2
841.987	36.14
842.16	36.38
842.332	37.72
842.505	37.73
842.677	38.14
842.85	36.03
843.022	33.07
843.194	33.3
843.367	33.08
843.539	35.56
843.712	33.26
843.884	34.67
844.056	32.51
844.229	29.38
844.401	30.86
844.573	28.85
844.745	30.7
844.918	35.88
845.09	35.25
845.262	32.3
845.434	35.04
845.606	32.69
845.779	35.28
845.951	37.65
846.123	38.62
846.295	38.1
846.467	40.13
846.639	39.32
846.811	36.78
846.983	37.25
847.155	36.61
847.327	36.8
847.499	41.91
847.671	39.91
847.843	40.51
848.015	40.72
848.187	41.98
848.359	41.4
848.531	43.68
848.703	38.17
848.875	41.34
849.047	43.6
849.218	39.14
849.39	35.53
849.562	34.57
849.734	32.93
849.905	28.8
850.077	23.95
850.249	23.06
850.421	20.85
850.592	22.49
850.764	15.32
850.936	13.18
851.107	14.59
851.279	18.44
851.451	23.12
851.622	24.05
851.794	30.04
851.965	32.24
852.137	36.49
852.308	33.45
852.48	39.65
852.651	41.09
852.823	43.24
852.994	43.55
853.166	42.46
853.337	36.33
853.509	35.13
853.68	34.79
853.851	31.48
854.023	30.65
854.194	36.11
854.365	31.94
854.537	32.3
854.708	31.45
854.879	33.74
855.05	35.94
855.222	41.13
855.393	39.78
855.564	33.07
855.735	39.13
855.906	36.53
856.078	36.54
856.249	37.31
856.42	37.24
856.591	37.31
856.762	35.93
856.933	32.89
857.104	32.76
857.275	32.77
857.446	38.49
857.617	36.36
857.788	37.98
857.959	36.42
858.13	32.67
858.301	35.08
858.472	33.82
858.643	31.52
858.814	31.12
858.985	30.77
859.155	31.76
859.326	31.79
859.497	29.52
859.668	26.62
859.839	25.92
860.009	24.43
860.18	20.96
860.351	24.12
860.522	23.58
860.692	24.09
860.863	20.94
861.034	24.69
861.204	29.11
861.375	28.6
861.546	29.44
861.716	28.94
861.887	34.37
862.057	35.29
862.228	29.91
862.398	27.74
862.569	25.33
862.739	25.81
862.91	19.66
863.08	16.65
863.251	21.4
863.421	21.92
863.592	23.21
863.762	18.89
863.932	20.55
864.103	24.87
864.273	25.13
864.443	25.54
864.614	23.17
864.784	27.06
864.954	24.98
865.125	21.06
865.295	22.33
865.465	19.51
865.635	25.95
865.805	28.55
865.976	31.37
866.146	32.41
866.316	32.4
866.486	34.07
866.656	30.45
866.826	32.41
866.996	33.19
867.166	35.37
867.336	34.29
867.506	32.36
867.676	33.19
867.846	28.16
868.016	28.48
868.186	33.98
868.356	35.64
868.526	37.47
868.696	32.13
868.866	32.42
869.036	32.43
869.206	34.57
869.376	36.17
869.545	31.9
869.715	32.29
869.885	33.59
870.055	25.09
870.224	17.52
870.394	15.71
870.564	19.69
870.734	18.24
870.903	15.02
871.073	18.29
871.243	15.33
871.412	14.72
871.582	15.68
871.751	16.13
871.921	19.18
872.091	26.25
872.26	28.24
872.43	29.01
872.599	33.94
872.769	32.8
872.938	33.28
873.108	34.29
873.277	33.96
873.446	36.48
873.616	35.48
873.785	34.02
873.955	29.04
874.124	29.18
874.293	30.04
874.463	27.43
874.632	26.79
874.801	25.29
874.971	30.64
875.14	30.45
875.309	29.15
875.478	35.53
875.647	37.26
875.817	38.64
875.986	37.42
876.155	40.24
876.324	41.93
876.493	44.14
876.662	42.91
876.831	32.63
877	34.44
877.17	34.67
877.339	32.9
877.508	35.43
877.677	36.93
877.846	37.88
878.015	31.48
878.184	28.67
878.352	28
878.521	28.97
878.69	33.16
878.859	34.66
879.028	35.88
879.197	31.95
879.366	31.76
879.534	31.88
879.703	29.3
879.872	31.2
880.041	31.56
880.21	30.94
880.378	29.72
880.547	29.97
880.716	27.72
880.884	27.25
881.053	26.94
881.222	27.13
881.39	26.69
881.559	27.44
881.727	28.29
881.896	27.92
882.065	28.87
882.233	28.55
882.402	28.78
882.57	29.53
882.739	29.34
882.907	30.09
883.076	30.05
883.244	30.37
883.412	30.62
883.581	30.78
883.749	31.19
883.918	30.31
884.086	30.77
884.254	30.36
884.423	30.51
884.591	30.56
884.759	30.37
884.927	30.02
885.096	29.27
885.264	29.85
885.432	27.48
885.6	25.87
885.769	25.72
885.937	26.96
886.105	26.59
886.273	23.7
886.441	23
886.609	23.13
886.777	23.45
886.945	22.77
887.113	19.82
887.281	19.21
887.449	23.79
887.617	26.9
887.785	24.08
887.953	24.73
888.121	25.82
888.289	28.98
888.457	29.04
888.625	27.88
888.793	28.49
888.961	27.29
889.129	33.25
889.296	28.35
889.464	25.97
889.632	25.46
889.8	23.75
889.967	25.08
890.135	20.3
