Data from 2938746__Reflection_03.txt Node
Date: Sun Mar 15 11:39:46 EDT 2015
User: robert
Spectrometer: USB4E03002
Autoset integration time: false
Trigger mode: 4
Integration Time (sec): 1.000000E-1
Scans to average: 10
Electric dark correction enabled: false
Nonlinearity correction enabled: false
Boxcar width: 5
Stray light correction enabled: false
XAxis mode: Wavelengths
Stop averaging: false
Number of Pixels in Spectrum: 3648
>>>>>Begin Spectral Data<<<<<
177.575	33.2
177.794	55.03
178.014	30.96
178.233	37.77
178.452	28.99
178.672	17.57
178.891	69.92
179.11	-65.12
179.33	5.42
179.549	33.33
179.768	-28.67
179.987	-116.88
180.207	-15.05
180.426	-296.15
180.645	-264.18
180.864	-3242.86
181.084	241.96
181.303	-780.95
181.522	176.68
181.741	167.76
181.96	286.99
182.179	84.15
182.398	74.22
182.618	63.2
182.837	80.58
183.056	66.29
183.275	68.39
183.494	82.64
183.713	77.78
183.932	61
184.151	58.3
184.37	54.98
184.589	53
184.808	61.9
185.027	31.21
185.246	32.09
185.465	39.18
185.684	41.49
185.903	22.94
186.122	36.39
186.341	30.77
186.56	13.36
186.779	-2.26
186.998	6.78
187.216	-25.53
187.435	19.75
187.654	-61.9
187.873	-292
188.092	-67.28
188.311	-27.27
188.53	-141.03
188.748	-40.98
188.967	8.19
189.186	36.54
189.405	57.36
189.623	93.19
189.842	-1.38
190.061	52.41
190.28	42.09
190.498	20.13
190.717	76.5
190.936	138.89
191.154	31.84
191.373	9.35
191.592	36.34
191.81	21.6
192.029	19.74
192.248	57.92
192.466	41.63
192.685	52.5
192.904	51.07
193.122	26.77
193.341	30.45
193.559	36.81
193.778	31.25
193.996	16.18
194.215	62.88
194.433	-411.11
194.652	194.32
194.87	196.92
195.089	194.19
195.307	350.94
195.526	234.18
195.744	501.3
195.963	-348.42
196.181	-1165.12
196.399	-950
196.618	-496
196.836	-346.55
197.055	-145.24
197.273	-231.55
197.491	-302.82
197.71	-1069.64
197.928	-479.59
198.146	-288.98
198.365	-351.38
198.583	-482.76
198.801	800
199.019	81.48
199.238	100.97
199.456	47.85
199.674	13.07
199.892	2.98
200.111	-40.41
200.329	-111.7
200.547	-18.57
200.765	-4.11
200.983	-7.85
201.202	14.78
201.42	15.67
201.638	26.94
201.856	35.87
202.074	53.71
202.292	47.57
202.51	60.87
202.728	74.55
202.946	118.87
203.165	139.86
203.383	143.19
203.601	126.46
203.819	113.97
204.037	110.02
204.255	100
204.473	69.74
204.691	85.05
204.909	75.96
205.127	88.01
205.345	62.29
205.562	61.84
205.78	55.87
205.998	77.52
206.216	115.03
206.434	114.02
206.652	131.27
206.87	300
207.088	855.88
207.306	177.63
207.523	143.67
207.741	191.67
207.959	195.87
208.177	105.18
208.395	79.33
208.612	51.04
208.83	25.16
209.048	30.79
209.266	19.93
209.483	5.66
209.701	-52.86
209.919	-45.67
210.136	-54.17
210.354	-40.32
210.572	-62.9
210.79	-50
211.007	-26.56
211.225	-0.14
211.442	-13.62
211.66	3.9
211.878	15
212.095	27.03
212.313	31.25
212.53	29.4
212.748	21.35
212.966	12.37
213.183	7.57
213.401	4.66
213.618	11.2
213.836	15.75
214.053	0.4
214.271	-2.35
214.488	-21.61
214.705	-25.25
214.923	-6.25
215.14	2.62
215.358	16.87
215.575	23.14
215.793	23.95
216.01	24.5
216.227	21.23
216.445	43.3
216.662	37.46
216.879	43.57
217.097	46.38
217.314	25.47
217.531	39.95
217.749	46.82
217.966	45.77
218.183	38.94
218.4	20.94
218.618	33.02
218.835	-0.76
219.052	20.29
219.269	15.38
219.487	18.59
219.704	21.72
219.921	0.84
220.138	-3.3
220.355	3.45
220.572	12.91
220.79	18.8
221.007	15.59
221.224	18.9
221.441	15.16
221.658	19.97
221.875	17.4
222.092	19.47
222.309	21.04
222.526	23.7
222.743	23.42
222.96	21.65
223.177	20.26
223.394	22.98
223.611	22.87
223.828	22.38
224.045	17.12
224.262	17.71
224.479	11.62
224.696	7.31
224.913	8.12
225.13	2.65
225.347	6.34
225.564	1.74
225.781	2.05
225.997	5.28
226.214	7.93
226.431	11.04
226.648	11.99
226.865	14.2
227.082	14.13
227.298	11.9
227.515	11.48
227.732	10.48
227.949	11.63
228.165	10.44
228.382	10.35
228.599	9.77
228.816	8.75
229.032	8.32
229.249	8.72
229.466	9.37
229.682	8.83
229.899	9.46
230.116	9.1
230.332	8.74
230.549	8.45
230.765	8.6
230.982	9.45
231.199	9.58
231.415	8.47
231.632	8.55
231.848	8.28
232.065	8.6
232.281	6.15
232.498	7.17
232.714	7.47
232.931	7.12
233.147	6.37
233.364	3.81
233.58	2.31
233.797	5.67
234.013	5.61
234.23	4.53
234.446	4.23
234.662	5.46
234.879	5.53
235.095	6.45
235.312	8.02
235.528	7.67
235.744	9.79
235.961	10.25
236.177	7.16
236.393	5.68
236.61	7.43
236.826	9.14
237.042	11.4
237.258	10.76
237.475	10.46
237.691	10.05
237.907	11.1
238.123	8.76
238.339	10.1
238.556	11.44
238.772	10.81
238.988	10.35
239.204	9.55
239.42	7.92
239.636	7.32
239.853	6.72
240.069	6.55
240.285	6.53
240.501	6.96
240.717	6.39
240.933	5.1
241.149	5.46
241.365	5.33
241.581	5.19
241.797	5.82
242.013	6.28
242.229	6.36
242.445	6.15
242.661	6.22
242.877	6.39
243.093	6.97
243.309	7.75
243.525	8.34
243.741	8.38
243.957	8.87
244.173	8.48
244.388	8.76
244.604	8.4
244.82	8.09
245.036	7.15
245.252	6.7
245.468	5.86
245.683	5.78
245.899	5.26
246.115	5.64
246.331	5.75
246.547	5.83
246.762	5.61
246.978	5.87
247.194	6.57
247.409	6.92
247.625	7.15
247.841	7.4
248.057	7.45
248.272	7.87
248.488	7.6
248.703	7.39
248.919	7.21
249.135	7.52
249.35	7.59
249.566	7.08
249.782	7.41
249.997	6.92
250.213	6.27
250.428	6.75
250.644	5.29
250.859	5.52
251.075	5.53
251.29	6.2
251.506	6.34
251.721	6.09
251.937	6.18
252.152	5.44
252.368	5.27
252.583	5.65
252.798	4.83
253.014	5.24
253.229	5.44
253.445	6.07
253.66	5.99
253.875	6.05
254.091	6.14
254.306	6.16
254.521	7.26
254.737	7.97
254.952	8.52
255.167	9.03
255.383	8.59
255.598	8.21
255.813	7.4
256.028	7.23
256.244	6.63
256.459	6.3
256.674	5.86
256.889	3.81
257.104	4.33
257.32	4.4
257.535	3.76
257.75	4.53
257.965	4.65
258.18	4.44
258.395	4.44
258.61	4.25
258.826	4.58
259.041	4.33
259.256	4.77
259.471	4.84
259.686	4.83
259.901	5.03
260.116	4.94
260.331	5.01
260.546	5.32
260.761	5.6
260.976	5.68
261.191	5.6
261.406	6.32
261.621	6.48
261.836	6.28
262.05	6.45
262.265	7.11
262.48	7.04
262.695	7.09
262.91	6.89
263.125	6.45
263.34	6.91
263.555	7.4
263.769	6.75
263.984	7.42
264.199	8.08
264.414	7.65
264.629	7.28
264.843	7.71
265.058	7.87
265.273	7.54
265.488	7.45
265.702	7.49
265.917	6.89
266.132	7.1
266.346	6.55
266.561	6.21
266.776	6.23
266.99	6.48
267.205	6.28
267.42	5.87
267.634	6.27
267.849	6.06
268.063	5.34
268.278	5.78
268.492	5.61
268.707	5.6
268.922	5.24
269.136	4.95
269.351	4.36
269.565	4.62
269.78	4.44
269.994	4.71
270.209	4.56
270.423	4.97
270.637	4.83
270.852	4.97
271.066	4.87
271.281	5.44
271.495	5.2
271.709	5.22
271.924	5.42
272.138	5.69
272.353	5.29
272.567	5.6
272.781	5.83
272.996	5.71
273.21	5.36
273.424	5.47
273.638	5.03
273.853	5.23
274.067	5.3
274.281	5.3
274.495	5.1
274.71	5.38
274.924	5.8
275.138	5.51
275.352	5.9
275.566	6.41
275.781	6.16
275.995	6.26
276.209	6.39
276.423	6.33
276.637	5.81
276.851	5.64
277.065	5.12
277.279	4.38
277.493	4.44
277.707	3.8
277.921	3.52
278.135	3.97
278.349	3.95
278.563	4.23
278.777	4.57
278.991	4.53
279.205	4.71
279.419	5.56
279.633	5.85
279.847	5.05
280.061	5.51
280.275	5.11
280.489	4.96
280.703	5.06
280.917	4.68
281.131	4.44
281.344	4.76
281.558	4.87
281.772	4.68
281.986	4.91
282.2	5.99
282.414	5.97
282.627	5.93
282.841	5.97
283.055	6.29
283.269	6.41
283.482	6.08
283.696	6.1
283.91	6.37
284.123	6.07
284.337	5.66
284.551	5.58
284.764	5.41
284.978	5.46
285.192	5.17
285.405	4.86
285.619	4.89
285.833	5.07
286.046	4.93
286.26	4.67
286.473	4.85
286.687	4.76
286.9	4.5
287.114	4.36
287.327	4.29
287.541	4.53
287.754	4.41
287.968	4.45
288.181	4.36
288.395	3.78
288.608	4.03
288.822	3.87
289.035	4.27
289.248	4.07
289.462	4.07
289.675	4.22
289.889	4.24
290.102	4.1
290.315	4.33
290.529	4.68
290.742	5.05
290.955	4.88
291.169	4.96
291.382	5
291.595	5.03
291.808	5.04
292.022	5.69
292.235	5.76
292.448	5.88
292.661	5.58
292.875	5.58
293.088	5.81
293.301	6.06
293.514	5.94
293.727	5.93
293.94	6.35
294.153	6.49
294.367	5.95
294.58	6.23
294.793	6.39
295.006	6.25
295.219	6.13
295.432	6.31
295.645	6.42
295.858	6.61
296.071	6.69
296.284	6.45
296.497	6.4
296.71	6.53
296.923	6.09
297.136	6.43
297.349	6.49
297.562	6.35
297.775	6.04
297.988	5.96
298.201	6.09
298.414	5.99
298.626	6.05
298.839	6.23
299.052	6.23
299.265	6.49
299.478	6.08
299.691	6.46
299.903	6.67
300.116	6.87
300.329	7.15
300.542	6.68
300.755	6.55
300.967	6.69
301.18	6.44
301.393	6.35
301.605	6.5
301.818	7.02
302.031	6.99
302.243	7.23
302.456	7.5
302.669	7.15
302.881	7.64
303.094	7.76
303.307	7.7
303.519	8.17
303.732	8.1
303.944	8.21
304.157	7.88
304.37	7.79
304.582	7.8
304.795	7.78
305.007	7.5
305.22	7.26
305.432	7.87
305.645	7.73
305.857	7.93
306.069	8.34
306.282	8.05
306.494	7.4
306.707	7.49
306.919	7.63
307.132	7.5
307.344	7.84
307.556	7.87
307.769	7.76
307.981	7.84
308.193	7.45
308.406	7.44
308.618	7.6
308.83	8.12
309.043	8.29
309.255	7.89
309.467	7.83
309.679	7.97
309.892	7.98
310.104	7.53
310.316	7.46
310.528	7.79
310.74	7.58
310.953	7.7
311.165	7.99
311.377	7.74
311.589	8.01
311.801	8.03
312.013	8.07
312.225	8.16
312.437	8.27
312.649	8.39
312.862	7.91
313.074	8.01
313.286	7.91
313.498	7.58
313.71	7.48
313.922	7.49
314.134	7.65
314.346	7.84
314.558	7.72
314.77	7.78
314.982	7.48
315.193	8.17
315.405	7.86
315.617	7.63
315.829	7.87
316.041	8.28
316.253	8.31
316.465	8.27
316.677	8.07
316.888	8.03
317.1	7.99
317.312	8.78
317.524	8.51
317.736	8.8
317.947	9.09
318.159	8.98
318.371	9
318.583	8.94
318.794	9.2
319.006	9.16
319.218	9.7
319.43	9.81
319.641	9.21
319.853	9.66
320.064	9.98
320.276	10.07
320.488	9.96
320.699	10.15
320.911	10.46
321.123	10.12
321.334	9.81
321.546	9.51
321.757	9.65
321.969	9.83
322.18	9.35
322.392	9.57
322.603	9.58
322.815	10.35
323.026	10.08
323.238	9.41
323.449	9.33
323.661	9.59
323.872	9.63
324.083	9.49
324.295	10.04
324.506	10.08
324.718	10.02
324.929	10.18
325.14	9.72
325.352	9.96
325.563	10.62
325.774	10.69
325.986	10.52
326.197	10.39
326.408	10.94
326.62	10.74
326.831	10.78
327.042	10.92
327.253	11.23
327.464	11.32
327.676	11.42
327.887	11.41
328.098	11.69
328.309	12.42
328.52	12.74
328.732	12.47
328.943	12.49
329.154	12.43
329.365	12.09
329.576	11.98
329.787	11.94
329.998	11.77
330.209	11.3
330.42	11.49
330.631	10.75
330.842	10.55
331.053	10.6
331.264	10.9
331.475	10.85
331.686	11.11
331.897	11.1
332.108	11.16
332.319	11.17
332.53	11.77
332.741	11.65
332.952	12.21
333.163	12.44
333.374	12.42
333.585	12.63
333.795	12.89
334.006	12.73
334.217	12.4
334.428	11.98
334.639	12.12
334.849	12.06
335.06	12.17
335.271	11.93
335.482	12.18
335.692	12.16
335.903	11.87
336.114	12.18
336.325	12.11
336.535	12.32
336.746	12.46
336.957	11.95
337.167	11.75
337.378	11.45
337.589	12.02
337.799	11.71
338.01	11.73
338.22	11.67
338.431	11.27
338.642	11.27
338.852	11.7
339.063	12.17
339.273	12.48
339.484	12.44
339.694	12.89
339.905	12.14
340.115	12.33
340.326	12.49
340.536	12.57
340.746	12.61
340.957	13.07
341.167	12.42
341.378	12.3
341.588	12.33
341.799	12.37
342.009	11.88
342.219	12.16
342.43	11.81
342.64	11.67
342.85	11.51
343.061	12.04
343.271	11.58
343.481	11.84
343.691	11.67
343.902	11.46
344.112	11.46
344.322	11.86
344.532	11.57
344.743	11.88
344.953	11.96
345.163	11.76
345.373	11.19
345.583	11.3
345.793	10.94
346.004	10.93
346.214	11.15
346.424	10.93
346.634	10.53
346.844	10.5
347.054	10.23
347.264	10.07
347.474	10.15
347.684	10.22
347.894	9.95
348.104	10.25
348.314	10.59
348.524	10.97
348.734	11.03
348.944	11.19
349.154	11.31
349.364	11.49
349.574	11.25
349.784	11.57
349.994	11.55
350.204	11.64
350.413	11.54
350.623	11.23
350.833	10.9
351.043	10.81
351.253	10.34
351.463	10.53
351.672	10.39
351.882	10.72
352.092	10.31
352.302	10.3
352.511	10.55
352.721	10.49
352.931	10.34
353.141	10.02
353.35	10.31
353.56	10.8
353.77	10.75
353.979	10.56
354.189	10.6
354.399	10.34
354.608	10.56
354.818	10.24
355.027	10.52
355.237	10.55
355.447	10.7
355.656	10.36
355.866	10.41
356.075	10.2
356.285	10.29
356.494	9.98
356.704	10.38
356.913	10.04
357.123	10.15
357.332	10
357.542	10.18
357.751	10.18
357.96	10.22
358.17	10.34
358.379	10.25
358.589	10.28
358.798	10.51
359.007	10.35
359.217	10.62
359.426	10.48
359.635	10.51
359.845	10.6
360.054	10.49
360.263	10.74
360.472	10.37
360.682	10.51
360.891	10.49
361.1	10.44
361.309	10.49
361.519	10.27
361.728	10.46
361.937	10.43
362.146	10.41
362.355	10.37
362.564	10.29
362.774	10.42
362.983	10.33
363.192	10.25
363.401	10.24
363.61	10.09
363.819	10.24
364.028	10.34
364.237	10.2
364.446	9.86
364.655	9.84
364.864	9.81
365.073	9.84
365.282	9.78
365.491	9.85
365.7	9.61
365.909	9.72
366.118	9.66
366.327	9.4
366.536	9.55
366.745	9.41
366.954	9.52
367.162	9.52
367.371	9.24
367.58	9.37
367.789	9.2
367.998	9.1
368.207	9.21
368.415	9.29
368.624	9.24
368.833	9.14
369.042	9.5
369.25	9.68
369.459	9.72
369.668	10.02
369.877	10.11
370.085	10.45
370.294	10.51
370.503	10.15
370.711	10.19
370.92	10.04
371.129	10.1
371.337	10.05
371.546	9.97
371.754	9.9
371.963	9.83
372.171	9.53
372.38	9.26
372.589	9.42
372.797	9.66
373.006	9.63
373.214	9.59
373.423	9.49
373.631	9.26
373.84	9.23
374.048	9.38
374.256	9.26
374.465	9.26
374.673	9.4
374.882	9.57
375.09	9.46
375.298	9.22
375.507	9.44
375.715	9.58
375.923	9.64
376.132	9.61
376.34	9.39
376.548	9.36
376.757	9.56
376.965	9.61
377.173	9.55
377.381	9.62
377.59	9.74
377.798	9.63
378.006	9.53
378.214	9.73
378.423	9.55
378.631	9.61
378.839	9.71
379.047	9.77
379.255	9.72
379.463	9.59
379.671	9.54
379.879	9.26
380.088	9.17
380.296	9.06
380.504	8.8
380.712	8.74
380.92	8.61
381.128	8.45
381.336	8.2
381.544	8
381.752	7.8
381.96	7.83
382.168	8.07
382.376	8.23
382.584	8.34
382.791	8.7
382.999	8.87
383.207	8.78
383.415	8.85
383.623	8.86
383.831	8.84
384.039	8.84
384.247	8.93
384.454	8.83
384.662	8.77
384.87	8.84
385.078	8.52
385.285	8.68
385.493	8.89
385.701	8.62
385.909	8.52
386.116	8.58
386.324	8.85
386.532	8.72
386.739	8.76
386.947	8.97
387.155	8.83
387.362	8.91
387.57	8.7
387.778	8.51
387.985	8.82
388.193	8.97
388.4	9.1
388.608	9.11
388.816	9.31
389.023	9.24
389.231	9.08
389.438	9.13
389.646	9.09
389.853	9.05
390.061	9.28
390.268	9.23
390.475	9.02
390.683	8.86
390.89	8.85
391.098	8.62
391.305	8.6
391.512	8.63
391.72	8.66
391.927	8.6
392.135	8.56
392.342	8.37
392.549	8.3
392.756	8.38
392.964	8.42
393.171	8.32
393.378	8.13
393.586	8.05
393.793	8.02
394	8.02
394.207	7.93
394.414	7.97
394.622	7.91
394.829	7.88
395.036	7.65
395.243	7.52
395.45	7.36
395.657	7.47
395.864	7.6
396.072	7.6
396.279	7.51
396.486	7.65
396.693	7.76
396.9	7.86
397.107	7.95
397.314	8.44
397.521	8.32
397.728	8.45
397.935	8.31
398.142	8.28
398.349	8.34
398.556	8.19
398.763	8.16
398.97	7.97
399.177	7.8
399.383	7.69
399.59	7.36
399.797	7.44
400.004	7.24
400.211	7.18
400.418	7.33
400.625	7
400.831	7.04
401.038	7.08
401.245	6.99
401.452	7.13
401.658	7.36
401.865	7.61
402.072	7.64
402.279	7.73
402.485	8.2
402.692	8
402.899	8.1
403.105	8.17
403.312	8.07
403.519	8.2
403.725	8.32
403.932	8.27
404.138	8.17
404.345	8.22
404.552	8.2
404.758	8.01
404.965	8.23
405.171	8.04
405.378	8
405.584	8.18
405.791	8.18
405.997	8.06
406.204	8.02
406.41	8
406.617	8.02
406.823	8.23
407.029	8.15
407.236	8.08
407.442	8.33
407.649	8.45
407.855	8.24
408.061	8.3
408.268	8.15
408.474	8.23
408.68	8.38
408.887	8.28
409.093	8.05
409.299	8.03
409.505	7.76
409.712	7.86
409.918	7.7
410.124	7.92
410.33	7.87
410.537	8.02
410.743	7.85
410.949	7.75
411.155	7.88
411.361	7.96
411.567	8.15
411.773	8.19
411.98	7.93
412.186	7.92
412.392	7.75
412.598	7.67
412.804	7.68
413.01	7.75
413.216	7.62
413.422	7.57
413.628	7.43
413.834	7.37
414.04	7.35
414.246	7.53
414.452	7.67
414.658	7.67
414.864	7.9
415.07	7.84
415.275	7.92
415.481	7.88
415.687	7.73
415.893	7.8
416.099	7.85
416.305	7.94
416.511	7.89
416.716	7.74
416.922	7.77
417.128	7.59
417.334	7.64
417.539	7.58
417.745	7.55
417.951	7.62
418.157	7.65
418.362	7.55
418.568	7.62
418.774	7.74
418.979	7.8
419.185	7.77
419.391	7.74
419.596	7.69
419.802	7.66
420.008	7.79
420.213	7.82
420.419	7.75
420.624	7.67
420.83	7.61
421.035	7.47
421.241	7.45
421.446	7.38
421.652	7.34
421.857	7.35
422.063	7.33
422.268	7.29
422.474	7.24
422.679	7.23
422.885	7.38
423.09	7.32
423.295	7.29
423.501	7.32
423.706	7.41
423.911	7.47
424.117	7.42
424.322	7.49
424.527	7.46
424.733	7.5
424.938	7.55
425.143	7.4
425.349	7.41
425.554	7.44
425.759	7.35
425.964	7.36
426.169	7.38
426.375	7.42
426.58	7.38
426.785	7.38
426.99	7.23
427.195	7.14
427.4	7.25
427.605	7.23
427.811	7.34
428.016	7.36
428.221	7.22
428.426	7.24
428.631	7.17
428.836	7.13
429.041	7.16
429.246	7.42
429.451	7.72
429.656	7.59
429.861	7.65
430.066	7.63
430.271	7.64
430.476	7.7
430.681	7.53
430.886	7.68
431.09	7.74
431.295	7.69
431.5	7.61
431.705	7.47
431.91	7.54
432.115	7.58
432.32	7.53
432.524	7.53
432.729	7.53
432.934	7.5
433.139	7.46
433.343	7.48
433.548	7.39
433.753	7.24
433.958	7.2
434.162	7.15
434.367	7.13
434.572	7.15
434.776	7.2
434.981	7.25
435.186	7.37
435.39	7.24
435.595	7.24
435.799	7.26
436.004	7.41
436.209	7.41
436.413	7.44
436.618	7.37
436.822	7.37
437.027	7.43
437.231	7.33
437.436	7.35
437.64	7.42
437.845	7.31
438.049	7.35
438.253	7.29
438.458	7.23
438.662	7.34
438.867	7.35
439.071	7.29
439.275	7.15
439.48	7.14
439.684	7.16
439.888	7.03
440.093	7.12
440.297	7.19
440.501	7.14
440.706	7.18
440.91	7.07
441.114	7.07
441.318	7.05
441.523	7.13
441.727	7.23
441.931	7.16
442.135	7.23
442.339	7.19
442.543	7.17
442.748	7.3
442.952	7.26
443.156	7.37
443.36	7.4
443.564	7.45
443.768	7.39
443.972	7.27
444.176	7.37
444.38	7.46
444.584	7.37
444.788	7.34
444.992	7.41
445.196	7.43
445.4	7.36
445.604	7.34
445.808	7.34
446.012	7.36
446.216	7.42
446.42	7.32
446.624	7.31
446.828	7.49
447.032	7.5
447.235	7.37
447.439	7.47
447.643	7.43
447.847	7.43
448.051	7.44
448.254	7.39
448.458	7.34
448.662	7.39
448.866	7.31
449.069	7.17
449.273	7.18
449.477	7.22
449.681	7.11
449.884	7.12
450.088	7.06
450.292	6.93
450.495	6.96
450.699	6.91
450.902	6.87
451.106	6.9
451.31	6.86
451.513	6.77
451.717	6.72
451.92	6.69
452.124	6.75
452.327	6.79
452.531	6.93
452.734	6.91
452.938	6.99
453.141	6.94
453.345	6.86
453.548	7.03
453.752	7.08
453.955	7.17
454.158	7.16
454.362	7.14
454.565	7.15
454.769	7.07
454.972	7.15
455.175	7.17
455.379	7.21
455.582	7.24
455.785	7.09
455.988	7.22
456.192	7.26
456.395	7.2
456.598	7.1
456.801	7.1
457.005	7.04
457.208	7.06
457.411	7
457.614	7.08
457.817	7.08
458.021	7.07
458.224	6.99
458.427	6.98
458.63	7.02
458.833	7.18
459.036	7.24
459.239	7.25
459.442	7.31
459.645	7.37
459.848	7.28
460.051	7.26
460.254	7.29
460.457	7.26
460.66	7.15
460.863	7.14
461.066	7.03
461.269	6.88
461.472	7.03
461.675	6.95
461.878	6.93
462.081	6.93
462.284	7.03
462.486	7.02
462.689	7
462.892	7.13
463.095	7.19
463.298	7.16
463.5	7.21
463.703	7.07
463.906	6.99
464.109	7.03
464.311	6.94
464.514	6.94
464.717	6.9
464.92	6.96
465.122	6.98
465.325	6.93
465.528	7.04
465.73	7.15
465.933	7.07
466.135	7.08
466.338	7.08
466.541	7.2
466.743	7.11
466.946	7.07
467.148	6.94
467.351	6.93
467.553	7.01
467.756	6.96
467.958	7
468.161	7.11
468.363	7.25
468.566	7.05
468.768	7.12
468.971	7.11
469.173	7.2
469.375	7.27
469.578	7.05
469.78	7.11
469.983	7.11
470.185	6.92
470.387	6.92
470.59	6.81
470.792	7.14
470.994	7.13
471.196	7.21
471.399	7.14
471.601	7.12
471.803	7.4
472.005	7.38
472.208	7.36
472.41	7.56
472.612	7.55
472.814	7.6
473.016	7.46
473.218	7.53
473.421	7.52
473.623	7.59
473.825	7.63
474.027	7.51
474.229	7.54
474.431	7.56
474.633	7.52
474.835	7.54
475.037	7.51
475.239	7.63
475.441	7.6
475.643	7.58
475.845	7.6
476.047	7.75
476.249	7.85
476.451	7.75
476.653	7.8
476.855	7.69
477.057	7.64
477.258	7.71
477.46	7.61
477.662	7.54
477.864	7.6
478.066	7.52
478.268	7.41
478.469	7.39
478.671	7.34
478.873	7.25
479.075	7.3
479.276	7.26
479.478	7.13
479.68	7.16
479.882	7.1
480.083	7.04
480.285	7.18
480.487	7.08
480.688	7.03
480.89	7.13
481.091	7.2
481.293	7.17
481.495	7.21
481.696	7.27
481.898	7.24
482.099	7.3
482.301	7.27
482.502	7.22
482.704	7.24
482.905	7.23
483.107	7.15
483.308	7.13
483.51	7.13
483.711	7.07
483.913	7.05
484.114	7.06
484.315	7.05
484.517	7.04
484.718	7.04
484.92	7.08
485.121	7.07
485.322	7.09
485.524	7.1
485.725	7.09
485.926	7.14
486.127	7.19
486.329	7.15
486.53	7.15
486.731	7.2
486.932	7.18
487.134	7.16
487.335	7.13
487.536	7.16
487.737	7.16
487.938	7.14
488.139	7.12
488.341	7.11
488.542	7.13
488.743	7.13
488.944	7.1
489.145	7.08
489.346	7.09
489.547	7.12
489.748	7.08
489.949	7.09
490.15	7.11
490.351	7.13
490.552	7.15
490.753	7.15
490.954	7.18
491.155	7.19
491.356	7.22
491.557	7.19
491.758	7.21
491.959	7.24
492.159	7.21
492.36	7.28
492.561	7.33
492.762	7.28
492.963	7.26
493.164	7.28
493.364	7.28
493.565	7.23
493.766	7.25
493.967	7.29
494.167	7.28
494.368	7.36
494.569	7.24
494.769	7.18
494.97	7.19
495.171	7.23
495.371	7.13
495.572	7.17
495.773	7.23
495.973	7.16
496.174	7.07
496.375	7.07
496.575	7.04
496.776	7.06
496.976	7.07
497.177	7.09
497.377	7.12
497.578	7.09
497.778	7.01
497.979	7
498.179	7.03
498.38	7.11
498.58	7.13
498.78	7.09
498.981	7.12
499.181	7.14
499.382	7.17
499.582	7.18
499.782	7.25
499.983	7.33
500.183	7.36
500.383	7.39
500.584	7.4
500.784	7.41
500.984	7.42
501.184	7.45
501.385	7.41
501.585	7.31
501.785	7.3
501.985	7.4
502.185	7.32
502.386	7.32
502.586	7.38
502.786	7.31
502.986	7.27
503.186	7.25
503.386	7.21
503.586	7.32
503.786	7.41
503.987	7.35
504.187	7.29
504.387	7.26
504.587	7.34
504.787	7.38
504.987	7.39
505.187	7.42
505.387	7.5
505.587	7.62
505.786	7.56
505.986	7.59
506.186	7.63
506.386	7.83
506.586	8.01
506.786	7.9
506.986	7.84
507.186	7.85
507.386	7.87
507.585	7.85
507.785	7.81
507.985	7.83
508.185	7.82
508.384	7.77
508.584	7.63
508.784	7.56
508.984	7.54
509.183	7.54
509.383	7.59
509.583	7.57
509.782	7.64
509.982	7.62
510.182	7.6
510.381	7.63
510.581	7.75
510.781	7.74
510.98	7.79
511.18	7.87
511.379	7.87
511.579	7.82
511.778	7.86
511.978	7.79
512.177	7.88
512.377	7.91
512.576	7.95
512.776	7.93
512.975	8
513.175	7.98
513.374	8.02
513.573	8.02
513.773	8.04
513.972	8.07
514.172	8.08
514.371	8.07
514.57	8.16
514.77	8.23
514.969	8.19
515.168	8.15
515.367	8.11
515.567	8.17
515.766	8.33
515.965	8.51
516.164	8.5
516.364	8.56
516.563	8.57
516.762	8.52
516.961	8.47
517.16	8.45
517.359	8.43
517.559	8.57
517.758	8.49
517.957	8.44
518.156	8.38
518.355	8.45
518.554	8.48
518.753	8.44
518.952	8.47
519.151	8.39
519.35	8.5
519.549	8.54
519.748	8.48
519.947	8.5
520.146	8.53
520.345	8.52
520.544	8.53
520.743	8.55
520.942	8.6
521.141	8.7
521.339	8.77
521.538	8.82
521.737	8.87
521.936	8.86
522.135	8.93
522.333	8.99
522.532	9.01
522.731	8.96
522.93	8.97
523.129	9.01
523.327	8.86
523.526	8.97
523.725	8.89
523.923	8.87
524.122	8.97
524.321	8.92
524.519	8.89
524.718	8.94
524.917	8.93
525.115	8.99
525.314	9.06
525.512	9.18
525.711	9.09
525.909	9.16
526.108	9.21
526.306	9.18
526.505	9.27
526.703	9.34
526.902	9.34
527.1	9.39
527.299	9.4
527.497	9.4
527.696	9.36
527.894	9.47
528.092	9.47
528.291	9.48
528.489	9.52
528.688	9.53
528.886	9.53
529.084	9.56
529.283	9.56
529.481	9.59
529.679	9.57
529.877	9.62
530.076	9.57
530.274	9.61
530.472	9.63
530.67	9.65
530.869	9.66
531.067	9.7
531.265	9.73
531.463	9.84
531.661	9.77
531.859	9.85
532.057	9.86
532.255	9.97
532.454	9.99
532.652	9.98
532.85	10.01
533.048	10.05
533.246	10.01
533.444	10.03
533.642	10.01
533.84	10.11
534.038	10.13
534.236	10.13
534.434	10.15
534.632	10.19
534.83	10.25
535.027	10.28
535.225	10.33
535.423	10.35
535.621	10.35
535.819	10.38
536.017	10.41
536.215	10.43
536.412	10.48
536.61	10.41
536.808	10.42
537.006	10.46
537.203	10.46
537.401	10.45
537.599	10.54
537.797	10.62
537.994	10.67
538.192	10.68
538.39	10.64
538.587	10.72
538.785	10.87
538.983	10.92
539.18	10.98
539.378	11.03
539.575	11.06
539.773	11.06
539.97	11.12
540.168	11.17
540.366	11.22
540.563	11.33
540.761	11.36
540.958	11.34
541.155	11.38
541.353	11.37
541.55	11.46
541.748	11.52
541.945	11.56
542.143	11.56
542.34	11.61
542.537	11.62
542.735	11.66
542.932	11.72
543.129	11.81
543.327	11.92
543.524	12.02
543.721	12.03
543.919	12.1
544.116	12.17
544.313	12.28
544.51	12.36
544.708	12.43
544.905	12.45
545.102	12.51
545.299	12.52
545.496	12.52
545.693	12.54
545.891	12.59
546.088	12.59
546.285	12.6
546.482	12.62
546.679	12.56
546.876	12.68
547.073	12.6
547.27	12.59
547.467	12.62
547.664	12.56
547.861	12.58
548.058	12.5
548.255	12.44
548.452	12.52
548.649	12.54
548.846	12.59
549.043	12.54
549.24	12.69
549.437	12.77
549.633	12.77
549.83	12.89
550.027	12.89
550.224	13.04
550.421	13.1
550.618	12.99
550.814	12.91
551.011	12.96
551.208	12.98
551.405	12.97
551.601	12.97
551.798	12.98
551.995	12.89
552.191	12.89
552.388	12.9
552.585	12.97
552.781	13.14
552.978	13.2
553.175	13.19
553.371	13.09
553.568	13.19
553.764	13.21
553.961	13.25
554.157	13.22
554.354	13.23
554.55	13.22
554.747	13.1
554.943	13
555.14	13.07
555.336	13.1
555.533	13.17
555.729	13.18
555.926	13.21
556.122	13.18
556.318	13.42
556.515	13.6
556.711	13.54
556.907	13.68
557.104	13.72
557.3	13.75
557.496	13.72
557.693	13.82
557.889	13.95
558.085	13.97
558.281	14.21
558.478	14.16
558.674	14.19
558.87	14.41
559.066	14.48
559.262	14.63
559.459	14.58
559.655	14.73
559.851	14.79
560.047	14.78
560.243	14.87
560.439	14.7
560.635	14.84
560.831	14.84
561.027	14.86
561.223	14.84
561.419	14.84
561.615	14.87
561.811	14.89
562.007	14.81
562.203	14.7
562.399	14.59
562.595	14.64
562.791	14.53
562.987	14.39
563.183	14.29
563.379	14.31
563.575	14.21
563.771	14.35
563.966	14.31
564.162	14.39
564.358	14.48
564.554	14.53
564.75	14.56
564.945	14.5
565.141	14.56
565.337	14.77
565.533	14.8
565.728	14.8
565.924	14.62
566.12	14.69
566.315	14.69
566.511	14.81
566.707	14.92
566.902	14.97
567.098	15.15
567.293	15.25
567.489	15.15
567.684	15.26
567.88	15.4
568.076	15.64
568.271	15.61
568.467	15.69
568.662	15.56
568.858	15.47
569.053	15.54
569.248	15.55
569.444	15.53
569.639	15.48
569.835	15.57
570.03	15.54
570.225	15.46
570.421	15.57
570.616	15.56
570.812	15.61
571.007	15.76
571.202	15.73
571.397	15.65
571.593	15.73
571.788	15.73
571.983	15.64
572.178	15.63
572.374	15.68
572.569	15.72
572.764	15.81
572.959	15.92
573.154	16.01
573.35	16.06
573.545	16.08
573.74	16.16
573.935	16.3
574.13	16.34
574.325	16.52
574.52	16.62
574.715	16.74
574.91	16.79
575.105	16.77
575.3	16.74
575.495	16.9
575.69	17.06
575.885	17.08
576.08	17
576.275	17.07
576.47	17.12
576.665	17.25
576.86	17.32
577.055	17.29
577.25	17.44
577.444	17.45
577.639	17.51
577.834	17.53
578.029	17.47
578.224	17.69
578.418	17.74
578.613	17.89
578.808	17.93
579.003	17.76
579.197	17.84
579.392	17.72
579.587	17.8
579.781	17.68
579.976	17.73
580.171	17.75
580.365	17.9
580.56	18.05
580.755	17.79
580.949	17.77
581.144	17.88
581.338	17.87
581.533	17.95
581.727	17.81
581.922	17.96
582.116	18.12
582.311	18.24
582.505	18.19
582.7	18.13
582.894	18.33
583.089	18.41
583.283	18.57
583.478	18.73
583.672	18.84
583.866	19.05
584.061	19.05
584.255	18.95
584.449	19.01
584.644	19.05
584.838	19.15
585.032	19.13
585.226	19.16
585.421	19.12
585.615	19.17
585.809	19.22
586.003	19.35
586.198	19.43
586.392	19.43
586.586	19.46
586.78	19.49
586.974	19.46
587.168	19.54
587.363	19.29
587.557	19.26
587.751	19.28
587.945	19.16
588.139	19.14
588.333	18.94
588.527	18.94
588.721	18.88
588.915	18.81
589.109	18.86
589.303	18.85
589.497	18.97
589.691	18.97
589.885	18.79
590.079	18.94
590.273	18.89
590.466	19.06
590.66	19.09
590.854	19.05
591.048	19.18
591.242	19.19
591.436	19.32
591.629	19.54
591.823	19.67
592.017	19.71
592.211	19.68
592.404	19.65
592.598	19.61
592.792	19.59
592.986	19.77
593.179	19.67
593.373	19.61
593.567	19.56
593.76	19.42
593.954	19.36
594.147	19.41
594.341	19.38
594.535	19.38
594.728	19.36
594.922	19.37
595.115	19.37
595.309	19.39
595.502	19.39
595.696	19.24
595.889	19.23
596.083	19.13
596.276	19.12
596.47	19.05
596.663	19
596.856	19
597.05	18.99
597.243	19.01
597.437	19.03
597.63	18.99
597.823	19
598.017	18.97
598.21	19.06
598.403	19.13
598.596	19.06
598.79	19.18
598.983	19.24
599.176	19.34
599.369	19.35
599.563	19.37
599.756	19.37
599.949	19.27
600.142	19.43
600.335	19.42
600.528	19.39
600.722	19.64
600.915	19.51
601.108	19.53
601.301	19.55
601.494	19.37
601.687	19.37
601.88	19.38
602.073	19.48
602.266	19.34
602.459	19.39
602.652	19.38
602.845	19.38
603.038	19.5
603.231	19.44
603.424	19.48
603.617	19.41
603.809	19.45
604.002	19.46
604.195	19.58
604.388	19.66
604.581	19.62
604.774	19.57
604.966	19.57
605.159	19.42
605.352	19.39
605.545	19.35
605.737	19.56
605.93	19.55
606.123	19.51
606.316	19.56
606.508	19.62
606.701	19.82
606.894	20
607.086	20.17
607.279	20.38
607.471	20.48
607.664	20.57
607.857	20.7
608.049	20.98
608.242	21.48
608.434	21.99
608.627	22.55
608.819	23.03
609.012	23.82
609.204	24.55
609.397	25.58
609.589	26.61
609.782	27.67
609.974	28.76
610.166	29.92
610.359	30.9
610.551	31.86
610.743	32.55
610.936	33.22
611.128	33.67
611.32	34.2
611.513	34.36
611.705	34.34
611.897	34.25
612.09	33.9
612.282	33.43
612.474	32.93
612.666	32.25
612.858	31.73
613.051	31.44
613.243	30.91
613.435	30.3
613.627	29.71
613.819	29.28
614.011	28.88
614.203	28.7
614.395	28.21
614.588	27.9
614.78	27.56
614.972	27.1
615.164	26.5
615.356	26.05
615.548	25.5
615.74	24.99
615.932	24.71
616.124	24.23
616.315	23.7
616.507	23.39
616.699	23.12
616.891	22.74
617.083	22.43
617.275	22.17
617.467	22.02
617.659	21.91
617.85	21.99
618.042	21.97
618.234	21.95
618.426	21.7
618.618	21.67
618.809	21.51
619.001	21.36
619.193	21.56
619.384	21.56
619.576	21.65
619.768	21.6
619.959	21.87
620.151	21.81
620.343	22.04
620.534	22.14
620.726	22.5
620.917	22.47
621.109	22.62
621.301	22.52
621.492	22.52
621.684	22.65
621.875	22.6
622.067	22.43
622.258	22.5
622.45	22.41
622.641	22.46
622.832	22.15
623.024	22.25
623.215	22.31
623.407	22.51
623.598	22.44
623.789	22.25
623.981	22.43
624.172	22.47
624.363	22.54
624.555	22.42
624.746	22.35
624.937	22.19
625.129	22
625.32	21.89
625.511	21.81
625.702	21.84
625.893	21.85
626.085	21.87
626.276	21.63
626.467	21.27
626.658	21.26
626.849	21.46
627.04	21.49
627.231	21.64
627.422	21.59
627.614	21.56
627.805	21.61
627.996	21.71
628.187	21.67
628.378	21.77
628.569	22.13
628.76	22.37
628.951	22.3
629.142	22.45
629.332	22.45
629.523	22.59
629.714	22.59
629.905	22.71
630.096	22.82
630.287	23.03
630.478	23.12
630.669	23.01
630.859	22.91
631.05	23.16
631.241	23.16
631.432	23.13
631.623	23.03
631.813	23.02
632.004	23
632.195	22.85
632.385	22.6
632.576	22.44
632.767	22.41
632.957	22.31
633.148	22.01
633.339	21.69
633.529	21.8
633.72	21.85
633.91	21.77
634.101	21.69
634.292	21.5
634.482	21.52
634.673	21.38
634.863	21.4
635.054	21.25
635.244	21.19
635.435	21.42
635.625	21.31
635.815	21.26
636.006	21.06
636.196	20.86
636.387	20.82
636.577	20.56
636.767	20.71
636.958	20.6
637.148	20.67
637.338	20.59
637.529	20.43
637.719	20.39
637.909	20.24
638.099	20.55
638.29	20.54
638.48	20.46
638.67	20.61
638.86	20.67
639.05	20.73
639.241	20.75
639.431	20.95
639.621	21.11
639.811	21.19
640.001	21.37
640.191	21.25
640.381	21.37
640.571	21.48
640.761	21.56
640.951	21.64
641.141	21.48
641.331	21.32
641.521	21.41
641.711	21.58
641.901	21.23
642.091	21.35
642.281	21.51
642.471	21.52
642.661	21.78
642.851	21.76
643.041	21.56
643.231	21.52
643.42	21.75
643.61	21.72
643.8	21.64
643.99	22.15
644.18	21.72
644.369	21.58
644.559	21.51
644.749	21.32
644.939	21.32
645.128	21.4
645.318	21.78
645.508	21.51
645.697	21.24
645.887	20.87
646.076	20.74
646.266	20.92
646.456	20.83
646.645	20.89
646.835	21.15
647.024	21.11
647.214	20.89
647.403	20.53
647.593	20.86
647.782	21
647.972	21.35
648.161	21.22
648.351	21.45
648.54	21.77
648.73	22.02
648.919	21.94
649.108	21.91
649.298	22.37
649.487	22.7
649.677	22.85
649.866	22.88
650.055	22.75
650.244	22.81
650.434	22.61
650.623	22.5
650.812	22.31
651.002	22.47
651.191	22.52
651.38	22.33
651.569	22.16
651.758	21.76
651.947	21.73
652.137	21.5
652.326	21.67
652.515	21.66
652.704	21.77
652.893	21.84
653.082	21.68
653.271	21.88
653.46	21.8
653.649	21.86
653.838	21.8
654.027	21.52
654.216	21.77
654.405	21.64
654.594	21.75
654.783	21.44
654.972	21.14
655.161	20.93
655.35	20.97
655.539	21.03
655.728	20.97
655.916	20.88
656.105	21.1
656.294	21.1
656.483	21.18
656.672	21.19
656.86	21.41
657.049	21.55
657.238	21.67
657.427	21.51
657.615	21.45
657.804	21.57
657.993	21.87
658.181	21.63
658.37	21.67
658.559	21.47
658.747	21.32
658.936	21.33
659.125	21.1
659.313	21.14
659.502	21.21
659.69	21.38
659.879	21.18
660.067	21.19
660.256	21.39
660.444	21.59
660.633	21.64
660.821	21.92
661.01	22.03
661.198	22.5
661.387	22.49
661.575	22.65
661.763	22.48
661.952	22.92
662.14	23.17
662.328	23.35
662.517	23.04
662.705	22.97
662.893	22.77
663.082	22.64
663.27	22.41
663.458	22.52
663.646	22.52
663.834	22.51
664.023	22.53
664.211	22.02
664.399	21.9
664.587	22.12
664.775	22.11
664.963	22.36
665.152	22.58
665.34	22.65
665.528	22.46
665.716	22.34
665.904	22.41
666.092	22.02
666.28	22.28
666.468	22.35
666.656	22.51
666.844	23.02
667.032	22.91
667.22	22.52
667.408	22.59
667.596	22.82
667.784	22.67
667.971	22.78
668.159	22.73
668.347	22.73
668.535	22.65
668.723	22.31
668.911	21.79
669.098	21.78
669.286	21.75
669.474	21.55
669.662	21.42
669.849	21.69
670.037	21.7
670.225	21.83
670.413	21.7
670.6	21.69
670.788	22.02
670.976	22.39
671.163	22.19
671.351	22.54
671.538	22.93
671.726	23.2
671.913	22.82
672.101	22.82
672.289	22.92
672.476	22.99
672.664	23.1
672.851	22.79
673.039	22.7
673.226	22.95
673.413	22.69
673.601	22.51
673.788	22.27
673.976	22.44
674.163	22.42
674.35	22.41
674.538	22.35
674.725	22.52
674.912	22.8
675.1	22.78
675.287	22.92
675.474	23.04
675.662	23.17
675.849	23.08
676.036	23.2
676.223	23.25
676.411	23.32
676.598	23.55
676.785	23.56
676.972	23.65
677.159	23.69
677.346	23.23
677.533	23.24
677.721	22.92
677.908	23.07
678.095	22.98
678.282	22.88
678.469	22.66
678.656	22.39
678.843	22.1
679.03	21.76
679.217	21.59
679.404	22.01
679.591	22.06
679.778	22.27
679.964	22.28
680.151	22.32
680.338	22.02
680.525	22.13
680.712	22.52
680.899	22.7
681.086	22.88
681.272	23.04
681.459	23
681.646	22.81
681.833	22.69
682.02	22.71
682.206	22.63
682.393	23.12
682.58	23.24
682.766	23.14
682.953	23.08
683.14	23.16
683.326	23.33
683.513	23.04
683.7	23.19
683.886	23.39
684.073	23.25
684.259	23.76
684.446	23.56
684.632	23.66
684.819	23.7
685.005	23.76
685.192	23.84
685.378	23.91
685.565	24.15
685.751	24.37
685.938	24.06
686.124	24.31
686.31	24.16
686.497	24.52
686.683	24.37
686.87	24.21
687.056	24.26
687.242	24.1
687.429	24.04
687.615	24.04
687.801	23.98
687.987	24.4
688.174	24.22
688.36	23.87
688.546	23.4
688.732	23.42
688.918	23.54
689.105	23.49
689.291	23.41
689.477	23.29
689.663	23.55
689.849	23.41
690.035	22.94
690.221	23.12
690.407	23.56
690.593	23.74
690.779	23.65
690.965	23.66
691.151	23.85
691.337	23.84
691.523	23.86
691.709	23.89
691.895	23.96
692.081	24.37
692.267	24.5
692.453	24.31
692.639	24.33
692.825	24.31
693.011	24.41
693.196	24.24
693.382	24.43
693.568	24.39
693.754	24.04
693.94	24.15
694.125	24.01
694.311	23.86
694.497	23.56
694.682	23.66
694.868	23.68
695.054	23.51
695.239	23.59
695.425	23.76
695.611	23.79
695.796	23.48
695.982	23.34
696.168	23.22
696.353	22.98
696.539	23.09
696.724	23.09
696.91	22.92
697.095	22.92
697.281	22.88
697.466	22.46
697.652	22.51
697.837	22.72
698.023	22.58
698.208	22.76
698.393	22.93
698.579	22.94
698.764	22.62
698.949	22.94
699.135	22.69
699.32	22.44
699.505	22.68
699.691	22.61
699.876	22.78
700.061	22.84
700.246	22.97
700.432	22.81
700.617	22.72
700.802	22.96
700.987	22.96
701.172	22.8
701.358	23.21
701.543	23.28
701.728	23.4
701.913	23.12
702.098	23.57
702.283	23.26
702.468	23.57
702.653	23.78
702.838	23.96
703.023	24.08
703.208	24.65
703.393	24.63
703.578	25.08
703.763	25.13
703.948	25.62
704.133	25.85
704.318	26.17
704.503	26.46
704.688	26.57
704.873	26.77
705.057	27.19
705.242	27.77
705.427	27.88
705.612	27.6
705.797	27.92
705.981	28.07
706.166	27.74
706.351	27.85
706.536	27.98
706.72	28.14
706.905	28.71
707.09	28.33
707.274	27.99
707.459	28.18
707.644	28.25
707.828	28.81
708.013	28.88
708.197	29.36
708.382	29.48
708.567	29.21
708.751	29.7
708.936	29.13
709.12	29.37
709.305	29.31
709.489	29.02
709.673	29.13
709.858	28.41
710.042	28.12
710.227	27.83
710.411	27.51
710.596	27.29
710.78	26.74
710.964	26.42
711.149	26.12
711.333	26.29
711.517	26.72
711.702	26.53
711.886	26.61
712.07	26.35
712.254	26.13
712.438	26.23
712.623	26.29
712.807	26.39
712.991	26.78
713.175	26.6
713.359	26.3
713.544	26.08
713.728	25.71
713.912	25.74
714.096	25.6
714.28	25.77
714.464	25.39
714.648	25.21
714.832	24.77
715.016	24.26
715.2	24.53
715.384	24.65
715.568	24.12
715.752	24.24
715.936	23.98
716.12	24.18
716.304	24.09
716.488	24.17
716.671	24.11
716.855	24.11
717.039	24.38
717.223	23.94
717.407	23.76
717.59	24.02
717.774	23.77
717.958	23.68
718.142	23.77
718.325	23.15
718.509	23.23
718.693	23.63
718.877	23.63
719.06	23.48
719.244	23.61
719.428	23.95
719.611	23.85
719.795	24.33
719.978	24.55
720.162	24.1
720.345	24.62
720.529	24.45
720.713	24.33
720.896	24.55
721.08	25.29
721.263	25.15
721.446	24.84
721.63	25.12
721.813	24.83
721.997	24.76
722.18	25.33
722.364	25.2
722.547	25.4
722.73	24.95
722.914	24.83
723.097	24.33
723.28	24.8
723.464	24.55
723.647	24.42
723.83	24.41
724.013	24.29
724.197	24.31
724.38	24.13
724.563	23.78
724.746	23.84
724.929	23.74
725.112	23.7
725.296	23.06
725.479	23.15
725.662	23.31
725.845	23.03
726.028	23.36
726.211	22.91
726.394	22.97
726.577	23.23
726.76	23.22
726.943	23.21
727.126	23.32
727.309	23.5
727.492	23.54
727.675	23.39
727.858	24.12
728.041	23.67
728.224	23.7
728.407	23.47
728.589	23.81
728.772	24.18
728.955	23.96
729.138	23.71
729.321	24.16
729.503	24.35
729.686	24.02
729.869	23.92
730.052	24.05
730.234	23.67
730.417	24.46
730.6	23.76
730.782	23.93
730.965	24.28
731.148	24.52
731.33	24.2
731.513	24.05
731.695	24.53
731.878	24.37
732.061	24.84
732.243	25.64
732.426	25.24
732.608	25.23
732.791	24.88
732.973	24.54
733.156	24.75
733.338	24.31
733.52	24.62
733.703	24.63
733.885	24.6
734.068	24.67
734.25	24.13
734.432	24.15
734.615	24.83
734.797	25.03
734.979	25.34
735.162	24.95
735.344	25.13
735.526	24.97
735.708	25.22
735.891	25.92
736.073	25.34
736.255	25.9
736.437	25.82
736.619	25.17
736.802	24.98
736.984	24.89
737.166	25.09
737.348	25.79
737.53	25.87
737.712	25.64
737.894	24.84
738.076	25.04
738.258	24.71
738.44	24.55
738.622	25.15
738.804	25.22
738.986	25.63
739.168	25.54
739.35	25.47
739.532	25.98
739.714	26.32
739.896	26.49
740.078	26.04
740.259	25.95
740.441	26.39
740.623	26.39
740.805	26.74
740.987	26.87
741.168	26.98
741.35	26.58
741.532	26.66
741.714	26.21
741.895	26.53
742.077	27.51
742.259	28.32
742.44	28.24
742.622	28.23
742.804	27.7
742.985	27.8
743.167	27.53
743.348	27.13
743.53	26.92
743.711	26.74
743.893	26.84
744.075	26.35
744.256	26.06
744.438	25.72
744.619	26.66
744.8	27.01
744.982	26.52
745.163	26.64
745.345	27.49
745.526	27.25
745.707	27.51
745.889	26.61
746.07	26.39
746.252	26.26
746.433	27.06
746.614	26.02
746.795	25.4
746.977	25.36
747.158	25.7
747.339	25.76
747.52	25.5
747.702	25.7
747.883	25.88
748.064	25.92
748.245	25.31
748.426	24.96
748.607	24.94
748.788	25.69
748.97	26.02
749.151	25.64
749.332	25.7
749.513	25.86
749.694	25.8
749.875	26.02
750.056	26.07
750.237	27.2
750.418	26.54
750.599	26.92
750.78	27.19
750.96	27.62
751.141	27.35
751.322	26.89
751.503	26.8
751.684	26.48
751.865	27.94
752.046	28.34
752.226	28.18
752.407	28.4
752.588	28.6
752.769	28.49
752.949	28.39
753.13	29.24
753.311	29.83
753.492	29.53
753.672	29.17
753.853	28.05
754.034	28.09
754.214	27.4
754.395	27.38
754.575	27.62
754.756	27.41
754.937	27.36
755.117	27.08
755.298	27.24
755.478	27.82
755.659	28.32
755.839	28.24
756.02	27.04
756.2	27.7
756.381	28
756.561	27.21
756.741	27.19
756.922	26.56
757.102	26.89
757.283	26.49
757.463	26.42
757.643	26.65
757.823	25.81
758.004	26.46
758.184	25.62
758.364	25.61
758.545	25.1
758.725	25.03
758.905	24.99
759.085	24.12
759.265	23.61
759.446	22.9
759.626	22.68
759.806	23.2
759.986	22.84
760.166	23.1
760.346	22.52
760.526	21.98
760.706	21.15
760.886	20.9
761.066	21.06
761.246	21.08
761.426	21.73
761.606	21.55
761.786	21.56
761.966	21.37
762.146	21.6
762.326	22.46
762.506	22.87
762.686	23.48
762.866	23.48
763.046	23.42
763.225	23.58
763.405	23.51
763.585	23.74
763.765	23.85
763.945	23.8
764.124	23.3
764.304	22.88
764.484	22.71
764.664	22.3
764.843	22.66
765.023	23.22
765.203	23.48
765.382	23.12
765.562	23.42
765.741	23.35
765.921	24.32
766.101	25.12
766.28	25.79
766.46	26.65
766.639	27.18
766.819	26.79
766.998	26.37
767.178	26.2
767.357	26.68
767.537	26.83
767.716	27.3
767.896	27.92
768.075	27.37
768.254	27.1
768.434	26.97
768.613	26.74
768.792	26.94
768.972	27.48
769.151	27.45
769.33	27.78
769.51	27.72
769.689	27
769.868	26.14
770.047	26.2
770.226	26.04
770.406	26.31
770.585	26.39
770.764	26.95
770.943	26.88
771.122	27.11
771.301	27.04
771.48	26.61
771.66	26.27
771.839	26.1
772.018	27.29
772.197	28.24
772.376	28.6
772.555	28.94
772.734	28.98
772.913	29.67
773.092	29.4
773.271	29.27
773.449	29.69
773.628	31.01
773.807	31.13
773.986	30.71
774.165	29.86
774.344	29.41
774.523	30.26
774.701	30.6
774.88	28.87
775.059	29.23
775.238	29.94
775.417	29.93
775.595	30.27
775.774	30.61
775.953	30.21
776.131	30.71
776.31	31.18
776.489	31.29
776.667	30.94
776.846	32.17
777.025	31.68
777.203	31.34
777.382	31.58
777.56	31.25
777.739	30.81
777.917	31
778.096	30.42
778.274	30.39
778.453	30.14
778.631	30.28
778.81	30
778.988	30.22
779.166	30.04
779.345	28.66
779.523	27.87
779.702	28.86
779.88	29.86
780.058	30.53
780.237	30.28
780.415	30.33
780.593	30.38
780.771	30.78
780.95	30.37
781.128	30.53
781.306	31.23
781.484	32.02
781.662	31.12
781.841	30.11
782.019	29.92
782.197	30.15
782.375	29.06
782.553	28.6
782.731	28.35
782.909	30.57
783.087	30.43
783.265	30.25
783.443	30.15
783.621	30.39
783.799	30.25
783.977	29.98
784.155	29.28
784.333	30.18
784.511	29.68
784.689	28.6
784.867	26.88
785.045	26.11
785.223	25.75
785.4	25.9
785.578	25.62
785.756	26.07
785.934	27.52
786.112	28.52
786.289	28.14
786.467	29.19
786.645	29.14
786.823	29.69
787	29.61
787.178	30.76
787.356	30.84
787.533	30.7
787.711	30.63
787.889	29.21
788.066	29.06
788.244	28.62
788.421	28.07
788.599	28.72
788.776	28.71
788.954	28.4
789.131	28.36
789.309	27.91
789.486	27.27
789.664	26.85
789.841	26.55
790.019	26.34
790.196	27.01
790.373	27.51
790.551	27.53
790.728	27.75
790.906	29.3
791.083	29.9
791.26	30.69
791.437	30.8
791.615	31.09
791.792	31.33
791.969	30.84
792.146	30.27
792.324	30.47
792.501	29.92
792.678	28.38
792.855	28.57
793.032	27.16
793.209	25.88
793.387	27.94
793.564	28.03
793.741	28.89
793.918	29.61
794.095	30.13
794.272	28.81
794.449	30.2
794.626	32.51
794.803	32.49
794.98	32.09
795.157	30.87
795.334	29.98
795.511	29.62
795.688	30.19
795.864	30.05
796.041	28.91
796.218	28.96
796.395	28.03
796.572	26.47
796.749	26.54
796.925	26.52
797.102	27.19
797.279	27.14
797.456	26.59
797.632	25.38
797.809	24.43
797.986	25.06
798.162	27.23
798.339	27.52
798.516	26.8
798.692	25.51
798.869	25.62
799.046	25.47
799.222	25.67
799.399	25.98
799.575	26.12
799.752	26.89
799.928	27.27
800.105	26.67
800.281	26.25
800.458	26.93
800.634	27.78
800.811	28.38
800.987	30.4
801.163	29.84
801.34	30.39
801.516	29.59
801.692	29.33
801.869	28.95
802.045	28.33
802.221	28.66
802.398	29.24
802.574	28.66
802.75	29.23
802.926	29.33
803.103	29.61
803.279	29.69
803.455	30.69
803.631	31.01
803.807	31.17
803.983	30.49
804.16	30.7
804.336	30.37
804.512	31.14
804.688	30.75
804.864	29
805.04	29.45
805.216	29.66
805.392	29.52
805.568	29.2
805.744	29.49
805.92	31.4
806.096	32.12
806.272	32.35
806.448	32.02
806.623	31.98
806.799	32.61
806.975	31.76
807.151	31.73
807.327	31.91
807.503	32.08
807.678	31.45
807.854	31.19
808.03	30.43
808.206	31.26
808.381	32.13
808.557	33.28
808.733	34.36
808.908	34.54
809.084	35.44
809.26	35.49
809.435	35.46
809.611	35.79
809.787	34.67
809.962	34.46
810.138	33.6
810.313	33.08
810.489	32.61
810.664	31.95
810.84	31.36
811.015	31.08
811.191	31.09
811.366	31.58
811.542	31.86
811.717	32.42
811.892	31.57
812.068	32.8
812.243	31.55
812.419	30.67
812.594	30.02
812.769	30.71
812.944	29.2
813.12	28.24
813.295	28.57
813.47	28.65
813.645	29.35
813.821	30.37
813.996	28.29
814.171	29.35
814.346	28.2
814.521	29.41
814.697	29.88
814.872	31.7
815.047	32.7
815.222	31.54
815.397	30.47
815.572	29.79
815.747	28.13
815.922	28.02
816.097	28.98
816.272	29.77
816.447	26.48
816.622	25.86
816.797	26.42
816.972	24.85
817.147	24.74
817.322	24.72
817.496	23.24
817.671	23.39
817.846	23.35
818.021	23.11
818.196	23.62
818.371	26.14
818.545	27.07
818.72	24.25
818.895	25.57
819.069	25.05
819.244	24.28
819.419	24.43
819.594	24.96
819.768	24.96
819.943	23.15
820.117	22.32
820.292	21.39
820.467	21.45
820.641	21.73
820.816	21.46
820.99	21.55
821.165	21.28
821.339	21.51
821.514	22.05
821.688	22.01
821.863	21.99
822.037	21.97
822.212	21.53
822.386	21.26
822.56	21.18
822.735	21.3
822.909	21.27
823.084	21.78
823.258	21.72
823.432	21.2
823.606	21.23
823.781	21.17
823.955	21.31
824.129	21.76
824.303	22.14
824.478	22.48
824.652	22.48
824.826	22.87
825	22.53
825.174	22.23
825.348	23.2
825.523	23.31
825.697	23.6
825.871	23.71
826.045	23.93
826.219	23.85
826.393	23.7
826.567	23.3
826.741	22.94
826.915	23.25
827.089	23.34
827.263	22.8
827.437	23.22
827.611	23.7
827.784	23.54
827.958	23.72
828.132	23.15
828.306	22.95
828.48	23.54
828.654	23.7
828.827	23.84
829.001	24.37
829.175	24.01
829.349	22.97
829.522	22.86
829.696	23.62
829.87	23.19
830.044	23.68
830.217	23.84
830.391	23.74
830.565	22.65
830.738	23.23
830.912	25.01
831.085	26.5
831.259	27.37
831.432	27.07
831.606	26.23
831.779	26.36
831.953	25.49
832.126	26.42
832.3	27.38
832.473	28.15
832.647	26.72
832.82	25.04
832.994	24.64
833.167	24.26
833.34	24.5
833.514	24.49
833.687	24.82
833.86	25.59
834.034	25.55
834.207	23.94
834.38	24.05
834.553	24.48
834.727	24.46
834.9	24.69
835.073	24.49
835.246	24.12
835.419	24.51
835.593	24.13
835.766	23.65
835.939	23.97
836.112	24.76
836.285	25.64
836.458	25.62
836.631	24.58
836.804	23.9
836.977	25.46
837.15	25.94
837.323	26.65
837.496	27.25
837.669	29.44
837.842	29.08
838.015	31.23
838.188	30.15
838.361	28.66
838.533	30.59
838.706	31.11
838.879	30.9
839.052	32.15
839.225	32.95
839.398	31.16
839.57	30.45
839.743	30.5
839.916	27.35
840.088	28.29
840.261	30.46
840.434	31.54
840.607	30.53
840.779	30.27
840.952	30.58
841.124	30.25
841.297	32.7
841.47	32.67
841.642	33.05
841.815	36.41
841.987	38.16
842.16	39.41
842.332	39.37
842.505	41.02
842.677	39.49
842.85	39.17
843.022	36.65
843.194	35.84
843.367	34.42
843.539	33.61
843.712	33.42
843.884	27.81
844.056	27.5
844.229	29.82
844.401	26.31
844.573	29
844.745	27.3
844.918	30.11
845.09	30.52
845.262	29.48
845.434	31.23
845.606	30.74
845.779	35.19
845.951	36.84
846.123	33.21
846.295	37.94
846.467	37.22
846.639	36.01
846.811	35.36
846.983	30.97
847.155	29.72
847.327	28.68
847.499	26.8
847.671	27.21
847.843	25
848.015	27.29
848.187	28.68
848.359	24.82
848.531	29.07
848.703	25.71
848.875	32.33
849.047	35.61
849.218	38.38
849.39	38.41
849.562	39.29
849.734	38.04
849.905	35.97
850.077	32.78
850.249	34.4
850.421	31.59
850.592	33.39
850.764	31.27
850.936	30.35
851.107	25.79
851.279	29.59
851.451	32.95
851.622	31.13
851.794	28.05
851.965	30.45
852.137	35.19
852.308	36.23
852.48	37.03
852.651	38.48
852.823	41.29
852.994	42.78
853.166	40.7
853.337	39.28
853.509	40.93
853.68	44.55
853.851	46.51
854.023	46.3
854.194	45.19
854.365	45.49
854.537	42.67
854.708	38.79
854.879	37.31
855.05	35.02
855.222	31.93
855.393	29.05
855.564	25.79
855.735	22.39
855.906	17.37
856.078	18.35
856.249	18.84
856.42	18.66
856.591	19.67
856.762	22.09
856.933	24.08
857.104	25.52
857.275	24.99
857.446	26.14
857.617	26.49
857.788	27.81
857.959	26.96
858.13	27.86
858.301	31.54
858.472	30.7
858.643	31.53
858.814	30.94
858.985	29.36
859.155	36.2
859.326	40.32
859.497	40.56
859.668	42.35
859.839	44.1
860.009	47.43
860.18	45.11
860.351	45.44
860.522	45.14
860.692	44.18
860.863	44.16
861.034	41.34
861.204	36.12
861.375	34.21
861.546	35.23
861.716	37.94
861.887	32.53
862.057	30.12
862.228	28.85
862.398	26.45
862.569	28.81
862.739	25.55
862.91	27.07
863.08	30.83
863.251	32.71
863.421	34.53
863.592	31.47
863.762	33.19
863.932	39.59
864.103	41.32
864.273	37.14
864.443	34.7
864.614	38.07
864.784	36.65
864.954	34.35
865.125	35.69
865.295	32.7
865.465	31.21
865.635	29.19
865.805	22.29
865.976	20.66
866.146	24.23
866.316	23.69
866.486	21.91
866.656	19.56
866.826	18.57
866.996	12.7
867.166	10.97
867.336	17.06
867.506	23.14
867.676	29.17
867.846	32.4
868.016	35.51
868.186	34.1
868.356	34.51
868.526	39.43
868.696	40.96
868.866	40.86
869.036	46.3
869.206	42.36
869.376	33.17
869.545	34.27
869.715	27.93
869.885	24.29
870.055	30.12
870.224	30.8
870.394	23.57
870.564	21.79
870.734	24.95
870.903	18.3
871.073	18.59
871.243	25
871.412	23.11
871.582	23.15
871.751	28.63
871.921	28.54
872.091	29.55
872.26	31.33
872.43	31.52
872.599	33.08
872.769	36.51
872.938	34.68
873.108	30.59
873.277	27.2
873.446	27.4
873.616	22.18
873.785	18.09
873.955	15.94
874.124	18.31
874.293	20.87
874.463	15.51
874.632	19.93
874.801	22.45
874.971	24.94
875.14	30.87
875.309	36.41
875.478	36.12
875.647	42.09
875.817	43.04
875.986	42.18
876.155	43.05
876.324	44.27
876.493	36.32
876.662	35.73
876.831	38.13
877	33.64
877.17	31.22
877.339	33.19
877.508	25.41
877.677	26.92
877.846	22.99
878.015	16.75
878.184	16.22
878.352	18.31
878.521	17.06
878.69	12.43
878.859	10.72
879.028	14.93
879.197	15.29
879.366	17.48
879.534	17.84
879.703	20.73
879.872	26.44
880.041	27.61
880.21	28.19
880.378	28.07
880.547	27.08
880.716	28.25
880.884	26.24
881.053	26.67
881.222	25.61
881.39	24.33
881.559	22.77
881.727	21.64
881.896	21.85
882.065	21.81
882.233	21.55
882.402	22.57
882.57	22.79
882.739	22.09
882.907	21.66
883.076	22.12
883.244	22.52
883.412	23.83
883.581	23.72
883.749	24.26
883.918	25.43
884.086	26.06
884.254	26.38
884.423	25.97
884.591	27.55
884.759	28.41
884.927	29.45
885.096	30.38
885.264	29.56
885.432	30.08
885.6	29
885.769	26.7
885.937	27.55
886.105	27.1
886.273	28.09
886.441	24.91
886.609	24.92
886.777	24.82
886.945	24.91
887.113	25.84
887.281	26.11
887.449	29.69
887.617	32.01
887.785	29.24
887.953	31.24
888.121	34.62
888.289	38.14
888.457	35.67
888.625	34.22
888.793	33.39
888.961	34.52
889.129	35.18
889.296	33.8
889.464	31.75
889.632	35.27
889.8	33.27
889.967	27.76
890.135	29.6
