Data from 2938807__Reflection_02.txt Node
Date: Thu Mar 12 22:03:20 EDT 2015
User: robert
Spectrometer: USB4E03002
Autoset integration time: false
Trigger mode: 4
Integration Time (sec): 1.000000E-1
Scans to average: 10
Electric dark correction enabled: false
Nonlinearity correction enabled: false
Boxcar width: 5
Stray light correction enabled: false
XAxis mode: Wavelengths
Stop averaging: false
Number of Pixels in Spectrum: 3648
>>>>>Begin Spectral Data<<<<<
177.575	46.03
177.794	44.16
178.014	56.06
178.233	79.89
178.452	87.15
178.672	80.92
178.891	171.36
179.11	359.56
179.33	331.91
179.549	786.46
179.768	11871.43
179.987	-1147.83
180.207	-832.26
180.426	-124.4
180.645	-105.76
180.864	-201.65
181.084	-584.35
181.303	-646.15
181.522	-1219.61
181.741	-380.15
181.96	-328.57
182.179	494.29
182.398	-1223.81
182.618	1505.88
182.837	281.71
183.056	214.81
183.275	344.78
183.494	357.14
183.713	153.85
183.932	146.25
184.151	30.07
184.37	83.18
184.589	-15.17
184.808	-26.14
185.027	-36.31
185.246	-142.86
185.465	930
185.684	-3400
185.903	353.13
186.122	97.5
186.341	36.36
186.56	56.28
186.779	35.08
186.998	-13.39
187.216	-15.28
187.435	-95.17
187.654	-186.49
187.873	-204.84
188.092	-60.21
188.311	-73.53
188.53	-110
188.748	441.25
188.967	113.08
189.186	94.74
189.405	54.81
189.623	82.24
189.842	98.15
190.061	-671.43
190.28	420.93
190.498	9.62
190.717	230.19
190.936	-67.62
191.154	21.48
191.373	15.2
191.592	20
191.81	14.63
192.029	-5.16
192.248	-19.28
192.466	18.86
192.685	3.98
192.904	36.05
193.122	27.67
193.341	73.45
193.559	109.63
193.778	78.88
193.996	86.76
194.215	96.59
194.433	142
194.652	230.77
194.87	425.81
195.089	-161.81
195.307	-23.44
195.526	-70.77
195.744	-42.14
195.963	34.76
196.181	136
196.399	67.84
196.618	92.16
196.836	134.37
197.055	231.19
197.273	228.97
197.491	627.4
197.71	128.93
197.928	149.77
198.146	150.95
198.365	294.06
198.583	350
198.801	219.67
199.019	325
199.238	-2960
199.456	131.87
199.674	130.3
199.892	7.51
200.111	20.45
200.329	79.01
200.547	107.55
200.765	88.48
200.983	46.86
201.202	11.27
201.42	56.58
201.638	68.25
201.856	68.17
202.074	26.34
202.292	176
202.51	204.29
202.728	118.89
202.946	133.33
203.165	178.06
203.383	327.19
203.601	214.16
203.819	311.46
204.037	166.02
204.255	84.52
204.473	115.18
204.691	91.9
204.909	82.98
205.127	99.1
205.345	72.66
205.562	48.44
205.78	56.65
205.998	66.38
206.216	46.27
206.434	60.38
206.652	60.2
206.87	63.38
207.088	61.25
207.306	51.86
207.523	37.24
207.741	42.8
207.959	55.52
208.177	42.95
208.395	45.25
208.612	26.8
208.83	47.39
209.048	67.86
209.266	110.83
209.483	68.58
209.701	127.27
209.919	180.56
210.136	-227.03
210.354	-155.56
210.572	113.77
210.79	37.35
211.007	89.49
211.225	103.85
211.442	-39.22
211.66	-106.52
211.878	-125.71
212.095	19.23
212.313	102.44
212.53	53.89
212.748	21.46
212.966	69.25
213.183	64.29
213.401	84.62
213.618	81.19
213.836	63.96
214.053	92.64
214.271	100.75
214.488	81.33
214.705	80.94
214.923	56.93
215.14	33.45
215.358	3.54
215.575	11.5
215.793	-17.65
216.01	-20.1
216.227	-120.51
216.445	-141.34
216.662	-98.33
216.879	-40.69
217.097	-30.1
217.314	-27.71
217.531	6.27
217.749	18.71
217.966	19.81
218.183	15.98
218.4	2.92
218.618	12.67
218.835	23.72
219.052	44.72
219.269	36.87
219.487	34.18
219.704	33.95
219.921	24.23
220.138	14.32
220.355	12.37
220.572	18.15
220.79	24.96
221.007	26.74
221.224	26.52
221.441	16.47
221.658	18.68
221.875	17.01
222.092	17.66
222.309	18.96
222.526	24.24
222.743	18.46
222.96	16.98
223.177	14.87
223.394	11.43
223.611	15.17
223.828	11.34
224.045	9.21
224.262	4.45
224.479	5.27
224.696	6.35
224.913	7.61
225.13	7.03
225.347	7.32
225.564	6
225.781	2.78
225.997	3.24
226.214	5.29
226.431	5.71
226.648	6.11
226.865	4.11
227.082	2.93
227.298	1.34
227.515	1.42
227.732	1.31
227.949	1.35
228.165	3.24
228.382	2.39
228.599	0.54
228.816	0.83
229.032	0.5
229.249	1.13
229.466	1.52
229.682	1.18
229.899	0.98
230.116	0.61
230.332	-0.11
230.549	-1.33
230.765	-0.67
230.982	0.95
231.199	-0.22
231.415	0.43
231.632	-0.62
231.848	-1.24
232.065	0.83
232.281	1.45
232.498	2.94
232.714	4
232.931	6.2
233.147	5.44
233.364	3.67
233.58	4.44
233.797	4.79
234.013	6.12
234.23	4.87
234.446	3.05
234.662	3.33
234.879	2.66
235.095	2.08
235.312	0.88
235.528	0.78
235.744	1.17
235.961	1.07
236.177	1.3
236.393	-1.07
236.61	-0.87
236.826	-0.27
237.042	-0.04
237.258	-1.66
237.475	-1.82
237.691	-0.72
237.907	-1
238.123	-1.8
238.339	-3.26
238.556	-4.63
238.772	-4
238.988	-3.92
239.204	-3.87
239.42	-4.09
239.636	-2.42
239.853	-1.2
240.069	-1.11
240.285	0.01
240.501	1.33
240.717	2.04
240.933	1.81
241.149	3.18
241.365	3.17
241.581	3.91
241.797	4.31
242.013	3.94
242.229	3.75
242.445	3.31
242.661	3.8
242.877	4.07
243.093	4.1
243.309	4.15
243.525	3.72
243.741	4.52
243.957	3.83
244.173	3.26
244.388	3.46
244.604	3.1
244.82	3.81
245.036	2.88
245.252	2.13
245.468	2.65
245.683	2.81
245.899	2.78
246.115	2.49
246.331	2.83
246.547	2.96
246.762	3
246.978	2.69
247.194	2.72
247.409	2.84
247.625	2.93
247.841	2.6
248.057	2.96
248.272	3.04
248.488	3.15
248.703	3.19
248.919	3.26
249.135	3.3
249.35	4.1
249.566	3.8
249.782	3.71
249.997	3.75
250.213	3.76
250.428	3.44
250.644	3.38
250.859	3.21
251.075	3.06
251.29	2.91
251.506	2.78
251.721	2.68
251.937	2.66
252.152	2.94
252.368	2.86
252.583	3.49
252.798	4.2
253.014	4.43
253.229	4.5
253.445	4.26
253.66	4.24
253.875	4.81
254.091	4.08
254.306	4.17
254.521	4.3
254.737	5.02
254.952	3.93
255.167	1.62
255.383	0.19
255.598	0.93
255.813	0.72
256.028	0.46
256.244	0.33
256.459	1.39
256.674	1.38
256.889	1.08
257.104	0.81
257.32	1.1
257.535	1.67
257.75	2.36
257.965	1.53
258.18	2.01
258.395	2.11
258.61	1.46
258.826	1.27
259.041	1.19
259.256	1.08
259.471	1.26
259.686	1.46
259.901	1.36
260.116	1.45
260.331	1.43
260.546	1.45
260.761	1.39
260.976	1.62
261.191	1.49
261.406	1.74
261.621	1.98
261.836	1.62
262.05	1.74
262.265	1.68
262.48	1.48
262.695	1.78
262.91	1.37
263.125	1.71
263.34	1.64
263.555	2.38
263.769	2.12
263.984	1.63
264.199	2.33
264.414	1.73
264.629	2.61
264.843	2.01
265.058	1.71
265.273	1.81
265.488	2.44
265.702	2.41
265.917	2.22
266.132	2.22
266.346	2.66
266.561	2.1
266.776	2.37
266.99	2.3
267.205	2.77
267.42	2.81
267.634	3.11
267.849	2.59
268.063	2.49
268.278	2.09
268.492	2.44
268.707	2.4
268.922	2.7
269.136	2.82
269.351	2.55
269.565	2.73
269.78	2.99
269.994	3.03
270.209	2.97
270.423	3.23
270.637	3.39
270.852	3.19
271.066	3.07
271.281	2.83
271.495	2.62
271.709	2.2
271.924	2.09
272.138	1.95
272.353	1.56
272.567	1.23
272.781	0.88
272.996	0.92
273.21	0.69
273.424	0.84
273.638	0.92
273.853	0.96
274.067	1.22
274.281	1.33
274.495	1.67
274.71	1.88
274.924	2.21
275.138	2.77
275.352	2.61
275.566	2.55
275.781	2.04
275.995	1.76
276.209	1.89
276.423	2.11
276.637	1.81
276.851	1.51
277.065	1.55
277.279	1.71
277.493	1.71
277.707	2.06
277.921	2.22
278.135	2.32
278.349	2.63
278.563	2.87
278.777	2.64
278.991	2.71
279.205	2.7
279.419	2.84
279.633	2.77
279.847	2.07
280.061	1.63
280.275	1.55
280.489	1.57
280.703	1.63
280.917	1.87
281.131	1.86
281.344	2.42
281.558	2.41
281.772	2.3
281.986	2.07
282.2	2.7
282.414	3.04
282.627	3.09
282.841	3.01
283.055	2.91
283.269	2.61
283.482	2.58
283.696	2.1
283.91	2.31
284.123	2.21
284.337	2.05
284.551	1.64
284.764	1.54
284.978	1.5
285.192	1.64
285.405	1.72
285.619	1.56
285.833	1.77
286.046	1.85
286.26	1.47
286.473	1.33
286.687	1.58
286.9	1.75
287.114	1.78
287.327	1.81
287.541	1.93
287.754	1.95
287.968	1.69
288.181	1.34
288.395	1.43
288.608	1.6
288.822	2.04
289.035	2.35
289.248	2.34
289.462	2.32
289.675	2.43
289.889	2.5
290.102	2.08
290.315	2.38
290.529	2.59
290.742	2.28
290.955	2.48
291.169	2.35
291.382	2.17
291.595	1.99
291.808	2.11
292.022	1.95
292.235	1.62
292.448	2.14
292.661	2.39
292.875	2.57
293.088	2.99
293.301	2.57
293.514	2.66
293.727	2.6
293.94	3.13
294.153	2.87
294.367	3.17
294.58	3.11
294.793	3.01
295.006	2.69
295.219	2.71
295.432	2.51
295.645	2.68
295.858	2.51
296.071	2.3
296.284	1.92
296.497	2.01
296.71	1.89
296.923	1.93
297.136	1.9
297.349	1.98
297.562	1.8
297.775	1.72
297.988	1.5
298.201	1.52
298.414	1.77
298.626	1.63
298.839	1.56
299.052	1.36
299.265	1.45
299.478	1.65
299.691	1.66
299.903	1.5
300.116	1.61
300.329	1.91
300.542	1.95
300.755	2.04
300.967	2.45
301.18	2.59
301.393	2.85
301.605	3
301.818	2.73
302.031	2.84
302.243	3.25
302.456	3.31
302.669	3.35
302.881	3.62
303.094	3.41
303.307	3.25
303.519	3.39
303.732	2.88
303.944	2.96
304.157	3.01
304.37	2.71
304.582	2.8
304.795	2.59
305.007	2.59
305.22	2.22
305.432	2.08
305.645	2.24
305.857	1.88
306.069	2.62
306.282	2.35
306.494	2.42
306.707	2.67
306.919	2.45
307.132	2.37
307.344	2.67
307.556	3.1
307.769	3.38
307.981	3.06
308.193	3.02
308.406	3.04
308.618	3.11
308.83	2.76
309.043	2.65
309.255	2.82
309.467	3.2
309.679	3.05
309.892	2.82
310.104	2.86
310.316	3.25
310.528	3.45
310.74	3.19
310.953	3.44
311.165	3.61
311.377	3.94
311.589	3.67
311.801	3.34
312.013	3.28
312.225	3.24
312.437	2.92
312.649	2.78
312.862	2.65
313.074	2.65
313.286	2.55
313.498	2.86
313.71	2.35
313.922	2.3
314.134	2.7
314.346	2.53
314.558	3.04
314.77	3.18
314.982	3.19
315.193	3.64
315.405	3.8
315.617	3.88
315.829	3.6
316.041	3.98
316.253	4.31
316.465	4.43
316.677	4.79
316.888	4.62
317.1	4.95
317.312	5.12
317.524	4.76
317.736	4.54
317.947	4.26
318.159	4.68
318.371	4.74
318.583	4.24
318.794	4.1
319.006	3.75
319.218	3.32
319.43	3.51
319.641	3.41
319.853	3.95
320.064	4.53
320.276	4.38
320.488	3.95
320.699	3.78
320.911	4.34
321.123	4.33
321.334	4.32
321.546	4.66
321.757	4.18
321.969	4.19
322.18	3.57
322.392	3.48
322.603	3.66
322.815	3.97
323.026	4.08
323.238	4.12
323.449	4.19
323.661	4.61
323.872	4.6
324.083	4.89
324.295	4.89
324.506	5.19
324.718	5.13
324.929	5.33
325.14	5.71
325.352	6.14
325.563	6.05
325.774	5.87
325.986	5.98
326.197	5.98
326.408	6.26
326.62	6.33
326.831	6.56
327.042	6.76
327.253	6.85
327.464	6.67
327.676	6.56
327.887	6.93
328.098	7.58
328.309	7.35
328.52	7.62
328.732	7.56
328.943	7.57
329.154	7.96
329.365	8.1
329.576	8.04
329.787	8.63
329.998	8.38
330.209	8.42
330.42	8.08
330.631	8.44
330.842	8.35
331.053	8.69
331.264	9.21
331.475	8.84
331.686	8.96
331.897	9.21
332.108	8.82
332.319	9.22
332.53	9.2
332.741	9.64
332.952	9.52
333.163	10.07
333.374	9.56
333.585	9.22
333.795	9.03
334.006	8.74
334.217	8.66
334.428	9.24
334.639	9.11
334.849	9.38
335.06	9.19
335.271	9.39
335.482	8.8
335.692	9.24
335.903	9.35
336.114	9.59
336.325	9.98
336.535	10.03
336.746	9.61
336.957	9.72
337.167	9.63
337.378	9.82
337.589	9.81
337.799	10.01
338.01	10.09
338.22	10.38
338.431	10.35
338.642	10.14
338.852	10.16
339.063	10.19
339.273	9.99
339.484	9.98
339.694	9.79
339.905	9.93
340.115	10.16
340.326	10
340.536	9.77
340.746	9.81
340.957	9.71
341.167	9.7
341.378	9.5
341.588	9.62
341.799	9.25
342.009	9.32
342.219	9.18
342.43	8.89
342.64	8.71
342.85	8.71
343.061	8.75
343.271	8.66
343.481	8.8
343.691	8.75
343.902	9.14
344.112	9.58
344.322	9.43
344.532	9.7
344.743	9.75
344.953	9.96
345.163	9.92
345.373	9.8
345.583	9.95
345.793	9.98
346.004	10.3
346.214	10.04
346.424	9.67
346.634	10.02
346.844	9.52
347.054	9.33
347.264	9.12
347.474	9.2
347.684	9.4
347.894	9.37
348.104	9.38
348.314	9.04
348.524	9.03
348.734	9.34
348.944	9.25
349.154	9.83
349.364	10.15
349.574	10.25
349.784	10.3
349.994	10.22
350.204	10.25
350.413	9.92
350.623	10.21
350.833	10.21
351.043	10.25
351.253	9.8
351.463	9.64
351.672	9.46
351.882	9.48
352.092	9.14
352.302	9.12
352.511	9.12
352.721	9.49
352.931	9.12
353.141	9
353.35	8.91
353.56	9.06
353.77	8.97
353.979	9.05
354.189	8.96
354.399	8.97
354.608	8.95
354.818	8.67
355.027	8.39
355.237	8.6
355.447	8.48
355.656	8.56
355.866	8.44
356.075	8.3
356.285	8.19
356.494	8.14
356.704	8.47
356.913	8.32
357.123	8.79
357.332	8.87
357.542	8.71
357.751	8.55
357.96	8.43
358.17	8.57
358.379	8.56
358.589	8.7
358.798	8.96
359.007	8.91
359.217	8.91
359.426	8.83
359.635	8.9
359.845	8.94
360.054	9.04
360.263	9.16
360.472	9
360.682	9.08
360.891	9.02
361.1	8.7
361.309	8.57
361.519	8.66
361.728	8.54
361.937	8.41
362.146	8.32
362.355	8.52
362.564	8.27
362.774	8.35
362.983	8.26
363.192	8.19
363.401	8.29
363.61	8.42
363.819	8.47
364.028	8.48
364.237	8.6
364.446	8.77
364.655	8.53
364.864	8.63
365.073	8.72
365.282	8.61
365.491	8.64
365.7	8.7
365.909	8.69
366.118	8.56
366.327	8.66
366.536	8.58
366.745	8.41
366.954	8.39
367.162	8.28
367.371	7.98
367.58	8.01
367.789	8.05
367.998	7.93
368.207	7.64
368.415	7.66
368.624	7.62
368.833	7.44
369.042	7.32
369.25	7.47
369.459	7.78
369.668	7.91
369.877	8.18
370.085	8.11
370.294	8.05
370.503	8.34
370.711	8.01
370.92	7.91
371.129	8.08
371.337	8.31
371.546	8.23
371.754	8.2
371.963	8.3
372.171	8.08
372.38	8.25
372.589	8.48
372.797	8.32
373.006	8.79
373.214	9.11
373.423	8.9
373.631	8.85
373.84	9.03
374.048	8.76
374.256	8.63
374.465	8.78
374.673	8.62
374.882	8.55
375.09	8.68
375.298	8.6
375.507	8.15
375.715	8.29
375.923	8.45
376.132	8.23
376.34	8.18
376.548	8.29
376.757	8.27
376.965	8.29
377.173	8.08
377.381	8.1
377.59	8.1
377.798	8.14
378.006	8.17
378.214	8.08
378.423	8.23
378.631	8.43
378.839	8.38
379.047	8.47
379.255	8.36
379.463	8.51
379.671	8.54
379.879	8.3
380.088	8.5
380.296	8.53
380.504	8.59
380.712	8.51
380.92	8.29
381.128	8.31
381.336	7.97
381.544	8.17
381.752	8.17
381.96	7.71
382.168	7.92
382.376	7.59
382.584	7.39
382.791	7.32
382.999	7.31
383.207	7.66
383.415	7.74
383.623	7.86
383.831	7.54
384.039	7.3
384.247	7.58
384.454	7.45
384.662	7.66
384.87	7.82
385.078	7.84
385.285	7.86
385.493	7.65
385.701	7.65
385.909	7.65
386.116	7.74
386.324	7.99
386.532	7.97
386.739	8.18
386.947	8.12
387.155	8.2
387.362	8.06
387.57	7.83
387.778	7.95
387.985	7.9
388.193	8.24
388.4	8.28
388.608	8.4
388.816	8.33
389.023	8.2
389.231	8.13
389.438	7.95
389.646	7.99
389.853	8.09
390.061	7.92
390.268	7.84
390.475	7.54
390.683	7.73
390.89	7.54
391.098	7.6
391.305	7.56
391.512	7.64
391.72	7.69
391.927	7.63
392.135	7.75
392.342	7.79
392.549	7.96
392.756	8
392.964	7.74
393.171	7.83
393.378	7.86
393.586	7.82
393.793	7.76
394	7.82
394.207	7.84
394.414	7.73
394.622	7.62
394.829	7.44
395.036	7.47
395.243	7.57
395.45	7.62
395.657	7.5
395.864	7.37
396.072	7.31
396.279	7.31
396.486	7.38
396.693	7.41
396.9	7.65
397.107	7.71
397.314	7.66
397.521	7.7
397.728	7.39
397.935	7.4
398.142	7.58
398.349	7.6
398.556	7.64
398.763	7.72
398.97	7.67
399.177	7.53
399.383	7.65
399.59	7.53
399.797	7.64
400.004	8.02
400.211	7.88
400.418	7.9
400.625	7.95
400.831	7.89
401.038	7.87
401.245	7.83
401.452	7.86
401.658	7.64
401.865	7.76
402.072	7.52
402.279	7.65
402.485	7.8
402.692	7.8
402.899	7.81
403.105	7.82
403.312	7.77
403.519	7.75
403.725	7.63
403.932	7.79
404.138	7.8
404.345	7.85
404.552	7.54
404.758	7.55
404.965	7.5
405.171	7.46
405.378	7.43
405.584	7.36
405.791	7.42
405.997	7.41
406.204	7.34
406.41	7.32
406.617	7.35
406.823	7.5
407.029	7.49
407.236	7.69
407.442	7.8
407.649	7.85
407.855	7.92
408.061	7.85
408.268	8.07
408.474	8.04
408.68	8.01
408.887	8.09
409.093	7.89
409.299	7.93
409.505	7.78
409.712	7.85
409.918	7.83
410.124	7.79
410.33	7.83
410.537	7.76
410.743	7.66
410.949	7.68
411.155	7.6
411.361	7.64
411.567	7.49
411.773	7.47
411.98	7.37
412.186	7.37
412.392	7.37
412.598	7.47
412.804	7.39
413.01	7.47
413.216	7.5
413.422	7.61
413.628	7.64
413.834	7.71
414.04	7.81
414.246	7.8
414.452	7.6
414.658	7.61
414.864	7.47
415.07	7.63
415.275	7.58
415.481	7.49
415.687	7.34
415.893	7.35
416.099	7.43
416.305	7.31
416.511	7.28
416.716	7.47
416.922	7.44
417.128	7.48
417.334	7.45
417.539	7.47
417.745	7.57
417.951	7.53
418.157	7.51
418.362	7.49
418.568	7.48
418.774	7.39
418.979	7.33
419.185	7.41
419.391	7.44
419.596	7.36
419.802	7.45
420.008	7.37
420.213	7.88
420.419	7.81
420.624	7.79
420.83	7.83
421.035	7.9
421.241	7.87
421.446	7.78
421.652	7.77
421.857	7.76
422.063	7.65
422.268	7.68
422.474	7.28
422.679	7.32
422.885	7.33
423.09	7.3
423.295	7.3
423.501	7.36
423.706	7.37
423.911	7.33
424.117	7.33
424.322	7.4
424.527	7.36
424.733	7.29
424.938	7.26
425.143	7.19
425.349	7.14
425.554	7.09
425.759	7.08
425.964	7.09
426.169	7.15
426.375	7.21
426.58	7.05
426.785	7.11
426.99	7.11
427.195	7.18
427.4	7.3
427.605	7.32
427.811	7.3
428.016	7.23
428.221	7.16
428.426	7.05
428.631	6.98
428.836	7.13
429.041	7.08
429.246	7.17
429.451	7.2
429.656	7.2
429.861	7.16
430.066	7.07
430.271	7.06
430.476	7.13
430.681	7.14
430.886	7.19
431.09	7.25
431.295	7.2
431.5	7.09
431.705	7.05
431.91	6.99
432.115	7.04
432.32	7.11
432.524	7.08
432.729	7.09
432.934	7.16
433.139	7.16
433.343	7.07
433.548	7.11
433.753	7.25
433.958	7.2
434.162	7.25
434.367	7.35
434.572	7.36
434.776	7.38
434.981	7.4
435.186	7.38
435.39	7.38
435.595	7.41
435.799	7.36
436.004	7.29
436.209	7.41
436.413	7.38
436.618	7.31
436.822	7.35
437.027	7.37
437.231	7.38
437.436	7.31
437.64	7.35
437.845	7.44
438.049	7.45
438.253	7.4
438.458	7.36
438.662	7.27
438.867	7.22
439.071	7.23
439.275	7.28
439.48	7.22
439.684	7.21
439.888	7.09
440.093	6.98
440.297	6.98
440.501	7.01
440.706	6.97
440.91	7.03
441.114	7.07
441.318	7.1
441.523	7.08
441.727	7.12
441.931	7.14
442.135	7.29
442.339	7.35
442.543	7.35
442.748	7.4
442.952	7.35
443.156	7.38
443.36	7.35
443.564	7.26
443.768	7.28
443.972	7.24
444.176	7.26
444.38	7.21
444.584	7.27
444.788	7.21
444.992	7.18
445.196	7.29
445.4	7.23
445.604	7.19
445.808	7.18
446.012	7.13
446.216	7.13
446.42	7.18
446.624	7.21
446.828	7.07
447.032	7.18
447.235	7.16
447.439	7.13
447.643	7.13
447.847	7.18
448.051	7.22
448.254	7.24
448.458	7.29
448.662	7.26
448.866	7.15
449.069	7.24
449.273	7.16
449.477	7.16
449.681	7.16
449.884	7.31
450.088	7.29
450.292	7.3
450.495	7.26
450.699	7.16
450.902	7.13
451.106	7.21
451.31	7.27
451.513	7.35
451.717	7.33
451.92	7.32
452.124	7.17
452.327	7.25
452.531	7.28
452.734	7.39
452.938	7.34
453.141	7.33
453.345	7.33
453.548	7.27
453.752	7.24
453.955	7.16
454.158	7.19
454.362	7.17
454.565	7.12
454.769	7.09
454.972	7.02
455.175	7.19
455.379	7.26
455.582	7.14
455.785	7.16
455.988	7.09
456.192	7.2
456.395	7.12
456.598	7.13
456.801	7.08
457.005	7.14
457.208	7.15
457.411	7.14
457.614	7.13
457.817	7.25
458.021	7.2
458.224	7.22
458.427	7.23
458.63	7.27
458.833	7.25
459.036	7.29
459.239	7.26
459.442	7.27
459.645	7.22
459.848	7.2
460.051	7.12
460.254	7.16
460.457	7.2
460.66	7.17
460.863	7.15
461.066	7.19
461.269	7.18
461.472	7.14
461.675	7.05
461.878	7.06
462.081	7.02
462.284	7.08
462.486	6.99
462.689	6.94
462.892	6.99
463.095	7
463.298	7.01
463.5	7.03
463.703	7.07
463.906	7.14
464.109	7.16
464.311	7.25
464.514	7.26
464.717	7.4
464.92	7.39
465.122	7.35
465.325	7.26
465.528	7.26
465.73	7.19
465.933	7.16
466.135	7.17
466.338	7.17
466.541	7.13
466.743	7.17
466.946	7.08
467.148	7.11
467.351	7.09
467.553	7.29
467.756	7.29
467.958	7.41
468.161	7.43
468.363	7.46
468.566	7.42
468.768	7.36
468.971	7.27
469.173	7.32
469.375	7.3
469.578	7.39
469.78	7.24
469.983	7.23
470.185	7.18
470.387	7.2
470.59	7.13
470.792	7.19
470.994	7.26
471.196	7.35
471.399	7.28
471.601	7.38
471.803	7.23
472.005	7.18
472.208	7.27
472.41	7.27
472.612	7.21
472.814	7.24
473.016	7.17
473.218	7.14
473.421	7.02
473.623	7.11
473.825	7.05
474.027	7.15
474.229	7.19
474.431	7.08
474.633	7.08
474.835	7.17
475.037	7.21
475.239	7.25
475.441	7.35
475.643	7.43
475.845	7.37
476.047	7.32
476.249	7.33
476.451	7.37
476.653	7.35
476.855	7.46
477.057	7.35
477.258	7.32
477.46	7.28
477.662	7.27
477.864	7.25
478.066	7.31
478.268	7.32
478.469	7.27
478.671	7.28
478.873	7.27
479.075	7.25
479.276	7.3
479.478	7.32
479.68	7.33
479.882	7.29
480.083	7.25
480.285	7.25
480.487	7.35
480.688	7.35
480.89	7.33
481.091	7.33
481.293	7.29
481.495	7.27
481.696	7.3
481.898	7.29
482.099	7.31
482.301	7.34
482.502	7.31
482.704	7.21
482.905	7.18
483.107	7.12
483.308	7.13
483.51	7.09
483.711	7.1
483.913	7.06
484.114	7.07
484.315	7.02
484.517	6.96
484.718	6.93
484.92	6.97
485.121	6.98
485.322	7.01
485.524	7
485.725	7.01
485.926	6.98
486.127	7
486.329	6.97
486.53	7
486.731	7.05
486.932	7.09
487.134	7.07
487.335	7.05
487.536	7
487.737	7.02
487.938	7.01
488.139	7.01
488.341	6.98
488.542	6.98
488.743	6.96
488.944	6.95
489.145	6.89
489.346	6.88
489.547	6.9
489.748	6.9
489.949	6.85
490.15	6.87
490.351	6.92
490.552	6.94
490.753	6.95
490.954	6.96
491.155	6.97
491.356	7.03
491.557	7.04
491.758	7.03
491.959	7.09
492.159	7.12
492.36	7.1
492.561	7.08
492.762	7.08
492.963	7.09
493.164	7.14
493.364	7.18
493.565	7.12
493.766	7.12
493.967	7.2
494.167	7.21
494.368	7.27
494.569	7.41
494.769	7.48
494.97	7.5
495.171	7.51
495.371	7.42
495.572	7.35
495.773	7.45
495.973	7.41
496.174	7.36
496.375	7.4
496.575	7.41
496.776	7.26
496.976	7.18
497.177	7.24
497.377	7.25
497.578	7.34
497.778	7.46
497.979	7.39
498.179	7.47
498.38	7.46
498.58	7.42
498.78	7.41
498.981	7.45
499.181	7.56
499.382	7.51
499.582	7.6
499.782	7.56
499.983	7.52
500.183	7.56
500.383	7.52
500.584	7.58
500.784	7.6
500.984	7.65
501.184	7.74
501.385	7.67
501.585	7.74
501.785	7.76
501.985	7.76
502.185	7.8
502.386	7.77
502.586	7.83
502.786	7.82
502.986	7.92
503.186	7.87
503.386	7.84
503.586	7.86
503.786	7.77
503.987	7.71
504.187	7.76
504.387	7.6
504.587	7.59
504.787	7.56
504.987	7.6
505.187	7.68
505.387	7.77
505.587	7.8
505.786	7.85
505.986	7.9
506.186	7.87
506.386	7.83
506.586	7.9
506.786	7.9
506.986	7.9
507.186	7.89
507.386	7.85
507.585	7.7
507.785	7.66
507.985	7.68
508.185	7.75
508.384	7.8
508.584	7.8
508.784	7.84
508.984	7.92
509.183	7.96
509.383	7.95
509.583	7.88
509.782	7.95
509.982	7.98
510.182	7.93
510.381	7.84
510.581	7.85
510.781	7.89
510.98	7.91
511.18	7.9
511.379	7.86
511.579	7.87
511.778	7.88
511.978	7.89
512.177	7.98
512.377	8.13
512.576	8.21
512.776	8.23
512.975	8.27
513.175	8.28
513.374	8.35
513.573	8.45
513.773	8.41
513.972	8.48
514.172	8.51
514.371	8.43
514.57	8.28
514.77	8.27
514.969	8.34
515.168	8.39
515.367	8.43
515.567	8.42
515.766	8.48
515.965	8.56
516.164	8.55
516.364	8.49
516.563	8.54
516.762	8.58
516.961	8.62
517.16	8.62
517.359	8.58
517.559	8.62
517.758	8.62
517.957	8.59
518.156	8.58
518.355	8.62
518.554	8.63
518.753	8.57
518.952	8.58
519.151	8.59
519.35	8.52
519.549	8.57
519.748	8.53
519.947	8.54
520.146	8.56
520.345	8.55
520.544	8.54
520.743	8.62
520.942	8.75
521.141	8.78
521.339	8.76
521.538	8.82
521.737	8.82
521.936	8.88
522.135	8.87
522.333	8.88
522.532	8.97
522.731	9.01
522.93	9.04
523.129	9
523.327	9.04
523.526	9.16
523.725	9.14
523.923	9.14
524.122	9.1
524.321	9.15
524.519	9.12
524.718	9.1
524.917	9.11
525.115	9.09
525.314	9.12
525.512	9.09
525.711	9.03
525.909	9.08
526.108	9.13
526.306	9.18
526.505	9.16
526.703	9.22
526.902	9.26
527.1	9.23
527.299	9.25
527.497	9.28
527.696	9.28
527.894	9.32
528.092	9.3
528.291	9.31
528.489	9.31
528.688	9.3
528.886	9.29
529.084	9.28
529.283	9.33
529.481	9.37
529.679	9.39
529.877	9.43
530.076	9.44
530.274	9.5
530.472	9.53
530.67	9.58
530.869	9.64
531.067	9.64
531.265	9.68
531.463	9.7
531.661	9.7
531.859	9.74
532.057	9.77
532.255	9.78
532.454	9.81
532.652	9.85
532.85	9.83
533.048	9.86
533.246	9.93
533.444	9.92
533.642	9.9
533.84	9.92
534.038	9.87
534.236	9.91
534.434	9.96
534.632	10
534.83	9.95
535.027	10.07
535.225	10.11
535.423	10.15
535.621	10.24
535.819	10.31
536.017	10.3
536.215	10.38
536.412	10.36
536.61	10.35
536.808	10.29
537.006	10.33
537.203	10.26
537.401	10.28
537.599	10.27
537.797	10.29
537.994	10.34
538.192	10.38
538.39	10.42
538.587	10.45
538.785	10.51
538.983	10.64
539.18	10.69
539.378	10.72
539.575	10.71
539.773	10.76
539.97	10.77
540.168	10.78
540.366	10.8
540.563	10.83
540.761	10.89
540.958	10.89
541.155	10.89
541.353	10.9
541.55	10.91
541.748	10.95
541.945	10.96
542.143	10.95
542.34	10.97
542.537	10.98
542.735	10.97
542.932	11
543.129	11.05
543.327	11.13
543.524	11.21
543.721	11.31
543.919	11.38
544.116	11.47
544.313	11.59
544.51	11.72
544.708	11.84
544.905	11.94
545.102	12.04
545.299	12.04
545.496	12.04
545.693	11.97
545.891	11.95
546.088	11.9
546.285	11.86
546.482	11.83
546.679	11.76
546.876	11.75
547.073	11.74
547.27	11.62
547.467	11.67
547.664	11.7
547.861	11.76
548.058	11.74
548.255	11.8
548.452	11.79
548.649	11.84
548.846	11.66
549.043	11.61
549.24	11.54
549.437	11.59
549.633	11.55
549.83	11.45
550.027	11.51
550.224	11.61
550.421	11.62
550.618	11.7
550.814	11.63
551.011	11.75
551.208	11.7
551.405	11.69
551.601	11.68
551.798	11.7
551.995	11.71
552.191	11.6
552.388	11.41
552.585	11.36
552.781	11.25
552.978	11.26
553.175	11.37
553.371	11.47
553.568	11.49
553.764	11.44
553.961	11.39
554.157	11.42
554.354	11.41
554.55	11.48
554.747	11.49
554.943	11.48
555.14	11.38
555.336	11.29
555.533	11.29
555.729	11.33
555.926	11.36
556.122	11.45
556.318	11.43
556.515	11.33
556.711	11.39
556.907	11.48
557.104	11.5
557.3	11.63
557.496	11.74
557.693	11.83
557.889	11.79
558.085	11.82
558.281	11.73
558.478	11.71
558.674	11.86
558.87	11.92
559.066	11.92
559.262	11.91
559.459	11.93
559.655	12.01
559.851	12.02
560.047	11.98
560.243	11.98
560.439	12.08
560.635	12.16
560.831	12.09
561.027	12.07
561.223	12.02
561.419	12.07
561.615	12
561.811	11.89
562.007	11.83
562.203	11.95
562.399	11.92
562.595	11.83
562.791	11.7
562.987	11.84
563.183	11.87
563.379	12.02
563.575	12.14
563.771	12.14
563.966	12.1
564.162	12.1
564.358	12.08
564.554	12.07
564.75	12.08
564.945	12.11
565.141	12
565.337	12.02
565.533	11.99
565.728	11.86
565.924	12
566.12	12.04
566.315	12.03
566.511	11.98
566.707	11.98
566.902	11.95
567.098	11.96
567.293	11.99
567.489	11.92
567.684	11.89
567.88	12.02
568.076	11.97
568.271	12.03
568.467	12.03
568.662	12.08
568.858	12.13
569.053	12.2
569.248	12.28
569.444	12.33
569.639	12.29
569.835	12.23
570.03	12.13
570.225	12.01
570.421	11.88
570.616	11.93
570.812	11.89
571.007	11.93
571.202	11.88
571.397	11.83
571.593	11.83
571.788	11.8
571.983	11.91
572.178	12
572.374	12.06
572.569	12.12
572.764	12.04
572.959	12.13
573.154	12.06
573.35	12.05
573.545	12.18
573.74	12.2
573.935	12.27
574.13	12.17
574.325	12.15
574.52	12.22
574.715	12.4
574.91	12.53
575.105	12.52
575.3	12.57
575.495	12.66
575.69	12.58
575.885	12.52
576.08	12.65
576.275	12.69
576.47	12.77
576.665	12.8
576.86	12.66
577.055	12.45
577.25	12.51
577.444	12.56
577.639	12.61
577.834	12.7
578.029	12.84
578.224	12.93
578.418	12.93
578.613	12.81
578.808	12.71
579.003	12.68
579.197	12.76
579.392	12.79
579.587	12.95
579.781	12.93
579.976	12.84
580.171	12.9
580.365	12.81
580.56	12.81
580.755	12.75
580.949	12.89
581.144	13.01
581.338	13.16
581.533	13.08
581.727	13.07
581.922	12.96
582.116	12.92
582.311	12.86
582.505	12.74
582.7	12.91
582.894	12.97
583.089	12.98
583.283	12.91
583.478	12.92
583.672	12.91
583.866	12.83
584.061	12.9
584.255	12.95
584.449	12.95
584.644	13.11
584.838	13.22
585.032	13.29
585.226	13.22
585.421	13.3
585.615	13.33
585.809	13.48
586.003	13.39
586.198	13.34
586.392	13.31
586.586	13.34
586.78	13.34
586.974	13.25
587.168	13.3
587.363	13.39
587.557	13.39
587.751	13.33
587.945	13.36
588.139	13.32
588.333	13.42
588.527	13.54
588.721	13.57
588.915	13.46
589.109	13.49
589.303	13.46
589.497	13.34
589.691	13.29
589.885	13.2
590.079	13.11
590.273	13.18
590.466	13.1
590.66	13.03
590.854	12.91
591.048	12.99
591.242	12.93
591.436	12.95
591.629	13.08
591.823	13.13
592.017	13.25
592.211	13.21
592.404	13.1
592.598	13.24
592.792	13.29
592.986	13.45
593.179	13.43
593.373	13.3
593.567	13.27
593.76	13.15
593.954	13.15
594.147	13.15
594.341	13.2
594.535	13.36
594.728	13.32
594.922	13.27
595.115	13.21
595.309	13.22
595.502	13.26
595.696	13.37
595.889	13.41
596.083	13.34
596.276	13.33
596.47	13.38
596.663	13.31
596.856	13.23
597.05	13.31
597.243	13.25
597.437	13.27
597.63	13.33
597.823	13.13
598.017	13.09
598.21	13.13
598.403	13.13
598.596	13.08
598.79	13.16
598.983	13.25
599.176	13.22
599.369	13.33
599.563	13.32
599.756	13.35
599.949	13.53
600.142	13.48
600.335	13.39
600.528	13.53
600.722	13.47
600.915	13.54
601.108	13.59
601.301	13.81
601.494	13.74
601.687	13.83
601.88	13.77
602.073	13.84
602.266	14.04
602.459	14.17
602.652	14.1
602.845	14.17
603.038	14.07
603.231	14.04
603.424	13.82
603.617	13.9
603.809	13.84
604.002	13.82
604.195	13.81
604.388	13.84
604.581	13.82
604.774	13.8
604.966	13.8
605.159	13.76
605.352	13.76
605.545	13.82
605.737	13.79
605.93	13.72
606.123	13.79
606.316	13.83
606.508	13.75
606.701	13.79
606.894	13.72
607.086	13.74
607.279	13.98
607.471	14
607.664	14.08
607.857	14.06
608.049	14.34
608.242	14.42
608.434	14.44
608.627	14.55
608.819	14.67
609.012	15.1
609.204	15.36
609.397	15.6
609.589	15.91
609.782	16.12
609.974	16.48
610.166	16.61
610.359	17.06
610.551	17.44
610.743	17.84
610.936	18.14
611.128	18.23
611.32	18.38
611.513	18.41
611.705	18.52
611.897	18.53
612.09	18.46
612.282	18.58
612.474	18.3
612.666	18.1
612.858	18.01
613.051	17.82
613.243	17.57
613.435	17.32
613.627	17.11
613.819	16.87
614.011	16.83
614.203	16.79
614.395	16.53
614.588	16.29
614.78	16.15
614.972	16.08
615.164	16.07
615.356	15.99
615.548	15.97
615.74	15.84
615.932	15.86
616.124	15.7
616.315	15.5
616.507	15.35
616.699	15.45
616.891	15.52
617.083	15.21
617.275	14.87
617.467	14.92
617.659	14.69
617.85	14.8
618.042	14.76
618.234	14.84
618.426	14.79
618.618	14.82
618.809	14.52
619.001	14.32
619.193	14.43
619.384	14.55
619.576	14.46
619.768	14.61
619.959	14.48
620.151	14.49
620.343	14.38
620.534	14.58
620.726	14.54
620.917	14.79
621.109	14.99
621.301	14.93
621.492	14.92
621.684	14.97
621.875	14.89
622.067	15
622.258	14.9
622.45	14.8
622.641	14.78
622.832	14.84
623.024	14.7
623.215	14.58
623.407	14.79
623.598	14.82
623.789	14.85
623.981	14.94
624.172	14.84
624.363	14.81
624.555	14.98
624.746	15.16
624.937	15.33
625.129	15.39
625.32	15.3
625.511	15.03
625.702	15.06
625.893	15.1
626.085	15.22
626.276	15.26
626.467	15.46
626.658	15.35
626.849	15.03
627.04	15.06
627.231	15.06
627.422	15.13
627.614	15.13
627.805	15.13
627.996	15.12
628.187	14.98
628.378	15.08
628.569	14.81
628.76	14.83
628.951	15.04
629.142	14.98
629.332	14.98
629.523	15.01
629.714	15.05
629.905	15.04
630.096	15.01
630.287	15.04
630.478	14.9
630.669	14.98
630.859	15.1
631.05	15.04
631.241	14.98
631.432	14.89
631.623	14.79
631.813	14.75
632.004	14.81
632.195	14.62
632.385	14.65
632.576	14.63
632.767	14.65
632.957	14.64
633.148	14.54
633.339	14.54
633.529	14.68
633.72	14.68
633.91	14.84
634.101	14.68
634.292	14.82
634.482	14.83
634.673	14.8
634.863	14.76
635.054	14.55
635.244	14.56
635.435	14.44
635.625	14.53
635.815	14.51
636.006	14.48
636.196	14.66
636.387	14.53
636.577	14.57
636.767	14.57
636.958	14.5
637.148	14.54
637.338	14.65
637.529	14.77
637.719	14.55
637.909	14.79
638.099	14.59
638.29	14.41
638.48	14.53
638.67	14.36
638.86	14.28
639.05	14.51
639.241	14.56
639.431	14.51
639.621	14.44
639.811	14.62
640.001	14.35
640.191	14.46
640.381	14.6
640.571	14.62
640.761	14.62
640.951	14.71
641.141	14.61
641.331	14.55
641.521	14.42
641.711	14.39
641.901	14.24
642.091	14.56
642.281	14.41
642.471	14.4
642.661	14.46
642.851	14.68
643.041	14.73
643.231	14.6
643.42	14.74
643.61	14.73
643.8	14.72
643.99	14.71
644.18	14.66
644.369	14.88
644.559	14.68
644.749	14.6
644.939	14.45
645.128	14.64
645.318	14.72
645.508	14.68
645.697	14.76
645.887	15
646.076	15.07
646.266	15.07
646.456	14.85
646.645	15.02
646.835	15.05
647.024	14.99
647.214	14.65
647.403	14.54
647.593	14.67
647.782	14.57
647.972	14.56
648.161	14.79
648.351	14.58
648.54	14.52
648.73	14.51
648.919	14.55
649.108	14.46
649.298	14.56
649.487	14.86
649.677	15.11
649.866	15.28
650.055	15.23
650.244	15.04
650.434	15.2
650.623	15.5
650.812	15.46
651.002	15.41
651.191	15.72
651.38	16.04
651.569	16
651.758	15.65
651.947	15.7
652.137	15.54
652.326	15.49
652.515	15.43
652.704	15.24
652.893	15.3
653.082	15.39
653.271	15.14
653.46	14.96
653.649	14.77
653.838	14.74
654.027	14.88
654.216	14.94
654.405	14.85
654.594	14.95
654.783	14.97
654.972	15.12
655.161	15.27
655.35	15.64
655.539	15.55
655.728	15.6
655.916	15.67
656.105	15.44
656.294	15.26
656.483	15.36
656.672	15.34
656.86	15.54
657.049	15.58
657.238	15.33
657.427	15.07
657.615	14.99
657.804	15.16
657.993	15.28
658.181	15.29
658.37	15.4
658.559	15.41
658.747	15.36
658.936	15.47
659.125	15.53
659.313	15.66
659.502	15.67
659.69	15.85
659.879	15.61
660.067	15.65
660.256	15.77
660.444	15.88
660.633	16.06
660.821	16.12
661.01	15.97
661.198	15.61
661.387	15.21
661.575	15.23
661.763	15.15
661.952	15.43
662.14	15.39
662.328	15.12
662.517	15.01
662.705	14.75
662.893	14.67
663.082	14.59
663.27	15.07
663.458	15.42
663.646	15.59
663.834	15.8
664.023	15.53
664.211	15.51
664.399	15.65
664.587	15.82
664.775	16.01
664.963	16.13
665.152	16.06
665.34	16.09
665.528	16.04
665.716	15.84
665.904	15.8
666.092	15.9
666.28	15.74
666.468	15.74
666.656	15.74
666.844	15.65
667.032	15.33
667.22	15.23
667.408	15.02
667.596	15.04
667.784	15.13
667.971	14.95
668.159	15.04
668.347	15.25
668.535	15.43
668.723	15.29
668.911	15.33
669.098	15.49
669.286	15.66
669.474	15.58
669.662	15.79
669.849	15.65
670.037	15.88
670.225	15.71
670.413	15.6
670.6	15.42
670.788	15.58
670.976	15.48
671.163	15.39
671.351	15.42
671.538	15.44
671.726	15.01
671.913	15.04
672.101	14.77
672.289	14.94
672.476	15.03
672.664	15.22
672.851	14.76
673.039	14.88
673.226	15.03
673.413	15.19
673.601	14.92
673.788	15.17
673.976	15.32
674.163	15.48
674.35	15.45
674.538	15.46
674.725	15.3
674.912	15.7
675.1	15.54
675.287	15.77
675.474	15.56
675.662	15.8
675.849	15.9
676.036	15.97
676.223	15.94
676.411	15.99
676.598	15.88
676.785	16.14
676.972	15.98
677.159	15.77
677.346	15.53
677.533	15.53
677.721	15.31
677.908	15.29
678.095	15.32
678.282	15.27
678.469	15.34
678.656	15.33
678.843	15.35
679.03	15.48
679.217	15.79
679.404	15.71
679.591	15.78
679.778	16.06
679.964	16.18
680.151	16.07
680.338	16.13
680.525	16.25
680.712	16.49
680.899	16.39
681.086	16.53
681.272	16.42
681.459	16.7
681.646	16.82
681.833	16.79
682.02	16.43
682.206	16.56
682.393	16.48
682.58	16.24
682.766	16.01
682.953	15.98
683.14	15.78
683.326	16.11
683.513	15.92
683.7	15.64
683.886	15.73
684.073	16.17
684.259	15.97
684.446	16.09
684.632	16.03
684.819	16.35
685.005	16.18
685.192	16.22
685.378	16.1
685.565	16.11
685.751	16.47
685.938	16.39
686.124	16.3
686.31	16.45
686.497	16.27
686.683	16.46
686.87	16.27
687.056	16.38
687.242	16.43
687.429	16.52
687.615	16.9
687.801	16.9
687.987	17
688.174	17
688.36	17.02
688.546	17.11
688.732	17.1
688.918	16.71
689.105	16.72
689.291	16.81
689.477	16.76
689.663	16.58
689.849	16.45
690.035	16.45
690.221	16.49
690.407	16.35
690.593	16.56
690.779	16.56
690.965	16.8
691.151	16.85
691.337	16.68
691.523	16.49
691.709	16.53
691.895	16.58
692.081	16.59
692.267	16.72
692.453	16.82
692.639	16.7
692.825	16.94
693.011	17.13
693.196	16.91
693.382	16.79
693.568	16.89
693.754	17.05
693.94	17.28
694.125	16.85
694.311	16.6
694.497	16.64
694.682	16.71
694.868	16.26
695.054	15.99
695.239	16.41
695.425	16.36
695.611	16.58
695.796	16.3
695.982	15.89
696.168	16.26
696.353	16.39
696.539	16.13
696.724	15.9
696.91	16.27
697.095	16.44
697.281	16.24
697.466	16.31
697.652	16.13
697.837	16.27
698.023	16.15
698.208	16.14
698.393	16.15
698.579	16.23
698.764	16.52
698.949	16.49
699.135	16.52
699.32	16.52
699.505	16.64
699.691	16.7
699.876	16.41
700.061	16.75
700.246	16.75
700.432	16.5
700.617	16.54
700.802	16.35
700.987	16.19
701.172	16.56
701.358	16.57
701.543	16.48
701.728	16.51
701.913	16.62
702.098	16.41
702.283	16.41
702.468	16.57
702.653	16.53
702.838	16.23
703.023	16.38
703.208	15.88
703.393	16.08
703.578	16.25
703.763	16.07
703.948	15.93
704.133	16.08
704.318	15.48
704.503	15.63
704.688	15.85
704.873	16.02
705.057	15.82
705.242	15.7
705.427	15.67
705.612	15.73
705.797	16.05
705.981	16.45
706.166	16.6
706.351	17.36
706.536	17.65
706.72	17.66
706.905	18.17
707.09	18.39
707.274	18.72
707.459	18.66
707.644	18.8
707.828	18.91
708.013	19.09
708.197	19.07
708.382	18.93
708.567	18.77
708.751	18.76
708.936	18.24
709.12	18.25
709.305	18.04
709.489	17.93
709.673	17.47
709.858	17.4
710.042	17.17
710.227	16.95
710.411	17.13
710.596	17.22
710.78	17.18
710.964	17.57
711.149	17.39
711.333	17.49
711.517	17.63
711.702	18.05
711.886	17.97
712.07	17.89
712.254	17.73
712.438	17.67
712.623	17.74
712.807	17.69
712.991	17.61
713.175	17.43
713.359	17.08
713.544	16.94
713.728	16.84
713.912	16.85
714.096	17.01
714.28	17.12
714.464	17.19
714.648	16.68
714.832	16.7
715.016	16.54
715.2	16.91
715.384	17.25
715.568	17.51
715.752	17.37
715.936	17.45
716.12	17.15
716.304	17.25
716.488	17.17
716.671	17.21
716.855	17.33
717.039	17.19
717.223	16.92
717.407	17
717.59	16.65
717.774	16.62
717.958	16.64
718.142	17.17
718.325	17.03
718.509	17.09
718.693	17.4
718.877	17.36
719.06	17.49
719.244	17.78
719.428	17.37
719.611	18.08
719.795	18.23
719.978	17.71
720.162	17.76
720.345	18.11
720.529	18.15
720.713	18.34
720.896	18.15
721.08	18.36
721.263	17.99
721.446	18.2
721.63	17.66
721.813	17.66
721.997	18.15
722.18	17.79
722.364	17.26
722.547	16.88
722.73	16.53
722.914	16.71
723.097	16.55
723.28	16.71
723.464	16.94
723.647	17.13
723.83	17.37
724.013	17.12
724.197	17.18
724.38	17.53
724.563	17.64
724.746	18.03
724.929	17.75
725.112	17.84
725.296	17.85
725.479	17.36
725.662	16.86
725.845	16.86
726.028	16.6
726.211	16.36
726.394	16.62
726.577	16.8
726.76	16.78
726.943	16.48
727.126	16.64
727.309	16.68
727.492	16.87
727.675	17.02
727.858	16.6
728.041	16.77
728.224	16.96
728.407	16.77
728.589	17.02
728.772	16.35
728.955	16.61
729.138	16.54
729.321	16.62
729.503	16.75
729.686	17.02
729.869	17.08
730.052	16.66
730.234	16.4
730.417	16.47
730.6	15.82
730.782	16.13
730.965	16.21
731.148	15.79
731.33	16.14
731.513	16.12
731.695	15.97
731.878	16.29
732.061	16.91
732.243	17.04
732.426	17.02
732.608	17.21
732.791	17.37
732.973	17.06
733.156	17.51
733.338	16.67
733.52	16.53
733.703	16.6
733.885	16.33
734.068	15.99
734.25	15.86
734.432	15.72
734.615	16.07
734.797	15.84
734.979	16.61
735.162	16.39
735.344	17.05
735.526	17.12
735.708	17.24
735.891	17.6
736.073	18.08
736.255	17.87
736.437	18.02
736.619	17.82
736.802	17.78
736.984	17.47
737.166	17.03
737.348	17.05
737.53	16.99
737.712	16.59
737.894	16.51
738.076	16.31
738.258	16.76
738.44	16.35
738.622	15.96
738.804	16.47
738.986	16.6
739.168	17.38
739.35	17.3
739.532	17.53
739.714	17.75
739.896	17.2
740.078	17.48
740.259	17.4
740.441	17.75
740.623	18.27
740.805	18.24
740.987	17.94
741.168	17.68
741.35	17.31
741.532	16.72
741.714	16.38
741.895	16.42
742.077	15.83
742.259	16.06
742.44	16.41
742.622	16.29
742.804	15.95
742.985	16.03
743.167	16.39
743.348	16.35
743.53	16.42
743.711	16.58
743.893	17.57
744.075	17.69
744.256	16.76
744.438	15.92
744.619	15.31
744.8	15.04
744.982	14.78
745.163	14.68
745.345	15.4
745.526	15.68
745.707	15.95
745.889	15.31
746.07	15.89
746.252	16.72
746.433	17.41
746.614	18.5
746.795	18.85
746.977	18.89
747.158	18.23
747.339	17.18
747.52	17.47
747.702	17.73
747.883	17.98
748.064	18.36
748.245	18.01
748.426	17.59
748.607	16.79
748.788	16.99
748.97	17.23
749.151	17.57
749.332	18.36
749.513	19.09
749.694	18.77
749.875	18.65
750.056	16.86
750.237	17.26
750.418	17.59
750.599	17.95
750.78	17.78
750.96	17.83
751.141	17.65
751.322	17.14
751.503	16.39
751.684	16.29
751.865	16.02
752.046	16.75
752.226	16.83
752.407	16.51
752.588	16.77
752.769	17.01
752.949	17.12
753.13	16.98
753.311	16.77
753.492	16.73
753.672	16.7
753.853	16.27
754.034	16.11
754.214	16.18
754.395	16.25
754.575	15.56
754.756	15.33
754.937	15
755.117	15.3
755.298	15.87
755.478	15.9
755.659	15.9
755.839	16.42
756.02	17.3
756.2	17.24
756.381	17.67
756.561	18.47
756.741	18.47
756.922	18.51
757.102	18.34
757.283	18.46
757.463	18.47
757.643	18.95
757.823	18.76
758.004	18.03
758.184	17.43
758.364	17.01
758.545	16.3
758.725	15.9
758.905	16.23
759.085	16.33
759.265	16.3
759.446	16.15
759.626	16.1
759.806	16.09
759.986	16.03
760.166	15.93
760.346	15.98
760.526	15.28
760.706	15.53
760.886	14.9
761.066	15.07
761.246	14.48
761.426	14.65
761.606	14.07
761.786	14.39
761.966	14.23
762.146	14.84
762.326	15.39
762.506	15.95
762.686	16.24
762.866	16.68
763.046	16.36
763.225	16.76
763.405	16.56
763.585	16.64
763.765	16.88
763.945	17.27
764.124	16.98
764.304	16.91
764.484	16.93
764.664	16.43
764.843	16.28
765.023	16.59
765.203	16.94
765.382	17.15
765.562	17.39
765.741	17.21
765.921	17.86
766.101	18.09
766.28	18.16
766.46	18.51
766.639	18.8
766.819	19.03
766.998	18.58
767.178	18.1
767.357	18.12
767.537	17.99
767.716	17.39
767.896	16.19
768.075	16.03
768.254	15.2
768.434	15.95
768.613	15.37
768.792	15.02
768.972	15.2
769.151	15.25
769.33	15.1
769.51	15.12
769.689	15.52
769.868	16.15
770.047	16.56
770.226	17.5
770.406	16.47
770.585	17.24
770.764	17.07
770.943	17.39
771.122	16.92
771.301	16.39
771.48	16.09
771.66	16.3
771.839	15.81
772.018	15.08
772.197	14.5
772.376	14.39
772.555	14.75
772.734	15.03
772.913	14.68
773.092	15.62
773.271	16.22
773.449	15.83
773.628	16.15
773.807	16.29
773.986	16.83
774.165	16.8
774.344	16.88
774.523	16.32
774.701	16.55
774.88	16.17
775.059	16.06
775.238	15.86
775.417	16.67
775.595	15.81
775.774	15.92
775.953	15.65
776.131	15.8
776.31	15.44
776.489	15.08
776.667	15.82
776.846	17.12
777.025	16.34
777.203	16
777.382	16.39
777.56	17.1
777.739	17.1
777.917	17.97
778.096	18.45
778.274	17.95
778.453	18.78
778.631	18.49
778.81	17.36
778.988	17.58
779.166	18.89
779.345	19.14
779.523	18.56
779.702	18.43
779.88	18.53
780.058	17.92
780.237	18.78
780.415	18.95
780.593	18.23
780.771	18.73
780.95	18.45
781.128	17.37
781.306	16.22
781.484	15.93
781.662	15.7
781.841	14.42
782.019	14.64
782.197	13.87
782.375	13.6
782.553	14.14
782.731	14.54
782.909	14.47
783.087	14.65
783.265	14.88
783.443	16.01
783.621	17.38
783.799	17.28
783.977	17.23
784.155	17.97
784.333	18.69
784.511	18.11
784.689	18.31
784.867	18.34
785.045	17.99
785.223	19.06
785.4	18.83
785.578	17.67
785.756	18.21
785.934	17.43
786.112	17.62
786.289	16.14
786.467	16.46
786.645	16
786.823	16.27
787	17.45
787.178	16.68
787.356	16.12
787.533	16.51
787.711	16.62
787.889	16.91
788.066	16.2
788.244	16.57
788.421	16.62
788.599	16.27
788.776	16.58
788.954	15.72
789.131	15.92
789.309	15.42
789.486	15.33
789.664	14.46
789.841	14.59
790.019	15.14
790.196	15.92
790.373	16.05
790.551	16.62
790.728	16
790.906	16.03
791.083	16.27
791.26	17.31
791.437	17.49
791.615	17.86
791.792	17.43
791.969	17.82
792.146	17.93
792.324	17.61
792.501	17.27
792.678	16.87
792.855	17.55
793.032	15.6
793.209	16.46
793.387	15.68
793.564	16.31
793.741	16.36
793.918	15.24
794.095	14.81
794.272	14.7
794.449	15.03
794.626	15.85
794.803	15.02
794.98	15.43
795.157	13.94
795.334	14.44
795.511	14
795.688	14.74
795.864	15.12
796.041	15.23
796.218	15.4
796.395	15.14
796.572	15.23
796.749	15.46
796.925	15.9
797.102	16.54
797.279	16.73
797.456	17.98
797.632	17.75
797.809	17.72
797.986	17.35
798.162	17.47
798.339	18
798.516	18.43
798.692	18.6
798.869	19.39
799.046	19.38
799.222	19.07
799.399	18.16
799.575	19.54
799.752	20.03
799.928	20.86
800.105	20.46
800.281	19.6
800.458	19.39
800.634	19.8
800.811	20.92
800.987	19.32
801.163	18.57
801.34	18.39
801.516	17.98
801.692	17.84
801.869	17.43
802.045	18.05
802.221	18.46
802.398	18.24
802.574	17.67
802.75	16.01
802.926	17.92
803.103	19.05
803.279	19.1
803.455	18.64
803.631	18.04
803.807	17.03
803.983	16.23
804.16	17.4
804.336	18.17
804.512	17.86
804.688	18.27
804.864	18.49
805.04	18.71
805.216	18.43
805.392	17.83
805.568	19.41
805.744	20.08
805.92	20.64
806.096	19.41
806.272	18.93
806.448	19.11
806.623	18.6
806.799	17.56
806.975	16.75
807.151	17.29
807.327	16.49
807.503	15.1
807.678	13.98
807.854	14.96
808.03	14.13
808.206	12.8
808.381	13.35
808.557	12.44
808.733	12.12
808.908	11.2
809.084	11.16
809.26	12.38
809.435	12.94
809.611	14.66
809.787	15.11
809.962	15.57
810.138	16.3
810.313	16.42
810.489	17.81
810.664	18.1
810.84	19.64
811.015	20.04
811.191	19.26
811.366	19.36
811.542	17.83
811.717	15.76
811.892	15.99
812.068	16.02
812.243	15.43
812.419	16.1
812.594	17.07
812.769	17.13
812.944	16.41
813.12	16.39
813.295	15.66
813.47	15.96
813.645	17.18
813.821	15.88
813.996	17.33
814.171	17.02
814.346	16.2
814.521	16.15
814.697	15.91
814.872	15.58
815.047	15.58
815.222	18.87
815.397	20.61
815.572	20.7
815.747	21.24
815.922	19.14
816.097	19.37
816.272	18.8
816.447	17.36
816.622	18.37
816.797	19
816.972	18.8
817.147	16.24
817.322	14.13
817.496	12.95
817.671	13.31
817.846	13.97
818.021	14.78
818.196	16.47
818.371	18.06
818.545	17.13
818.72	15.83
818.895	16.41
819.069	16.57
819.244	16.85
819.419	17.29
819.594	16.42
819.768	16.64
819.943	16.07
820.117	14.55
820.292	14.13
820.467	14.09
820.641	15.07
820.816	14.5
820.99	14.67
821.165	14.97
821.339	14.44
821.514	15.1
821.688	14.91
821.863	14.92
822.037	15.19
822.212	15.11
822.386	15.05
822.56	14.88
822.735	14.86
822.909	14.84
823.084	14.73
823.258	14.95
823.432	14.65
823.606	14.83
823.781	14.66
823.955	14.58
824.129	14.61
824.303	14.74
824.478	14.9
824.652	15.4
824.826	15.67
825	15.77
825.174	15.72
825.348	15.91
825.523	15.97
825.697	16.99
825.871	16.86
826.045	17.01
826.219	16.47
826.393	15.77
826.567	15.63
826.741	15.57
826.915	15.5
827.089	15.67
827.263	15.86
827.437	15.29
827.611	15.13
827.784	15.1
827.958	15.16
828.132	15.68
828.306	15.83
828.48	15.59
828.654	15.04
828.827	15.85
829.001	15.9
829.175	15.78
829.349	16.17
829.522	16.18
829.696	17.14
829.87	16.93
830.044	18.07
830.217	19.26
830.391	19.41
830.565	18.37
830.738	17.77
830.912	16.58
831.085	16.46
831.259	17.04
831.432	13.49
831.606	13.81
831.779	14.19
831.953	13.18
832.126	12.89
832.3	13.38
832.473	15.35
832.647	14.71
832.82	15.14
832.994	14.63
833.167	14.67
833.34	15.93
833.514	14.26
833.687	13.58
833.86	12.81
834.034	13.63
834.207	13.91
834.38	13.48
834.553	13.45
834.727	13.66
834.9	14.47
835.073	14.05
835.246	14.67
835.419	15.57
835.593	15.49
835.766	15.88
835.939	14.8
836.112	14.52
836.285	15.01
836.458	16.01
836.631	15.88
836.804	15.67
836.977	16.28
837.15	15.19
837.323	14.67
837.496	14.74
837.669	14.89
837.842	14.92
838.015	15.97
838.188	15.45
838.361	13.67
838.533	14.46
838.706	13.57
838.879	13.47
839.052	13.27
839.225	13.6
839.398	15.33
839.57	16.71
839.743	18.1
839.916	18.24
840.088	17.51
840.261	18.9
840.434	19.32
840.607	20.23
840.779	20.89
840.952	22.33
841.124	20.95
841.297	20.95
841.47	18.97
841.642	18.22
841.815	17.42
841.987	18.75
842.16	18.92
842.332	18.49
842.505	18.4
842.677	18.27
842.85	16.66
843.022	19.03
843.194	19.6
843.367	18.82
843.539	16.93
843.712	17.87
843.884	15.08
844.056	10.76
844.229	13.89
844.401	13.92
844.573	12.88
844.745	12.61
844.918	12.73
845.09	8.89
845.262	13.09
845.434	14
845.606	13.08
845.779	18.65
845.951	18.97
846.123	15.95
846.295	15.6
846.467	13.19
846.639	14.8
846.811	11.28
846.983	17.27
847.155	12.07
847.327	11.4
847.499	12.64
847.671	9.14
847.843	10.62
848.015	8.53
848.187	5.69
848.359	10.81
848.531	8.92
848.703	10.4
848.875	5.14
849.047	8.11
849.218	12.29
849.39	10.51
849.562	12.49
849.734	12.79
849.905	15.03
850.077	18.16
850.249	18.69
850.421	20.45
850.592	22.73
850.764	21.88
850.936	20.45
851.107	15.83
851.279	15.34
851.451	15.07
851.622	17.36
851.794	16.61
851.965	16.36
852.137	14.63
852.308	17.22
852.48	16.28
852.651	19.09
852.823	22.98
852.994	25.57
853.166	24.88
853.337	23.59
853.509	23.13
853.68	22.71
853.851	20.83
854.023	18.97
854.194	13.53
854.365	16.8
854.537	18.1
854.708	17.4
854.879	19.1
855.05	23.38
855.222	25.08
855.393	23.45
855.564	23.07
855.735	22.06
855.906	20.39
856.078	24.01
856.249	23.07
856.42	22.05
856.591	19.19
856.762	16.87
856.933	12.35
857.104	11.23
857.275	10.76
857.446	12.9
857.617	13.77
857.788	17.74
857.959	18.79
858.13	19.32
858.301	18.4
858.472	24.08
858.643	21.14
858.814	18.08
858.985	18.18
859.155	14.55
859.326	10.74
859.497	14.37
859.668	9.83
859.839	8.91
860.009	7.92
860.18	10.79
860.351	9.4
860.522	15.08
860.692	19.54
860.863	19.03
861.034	24.44
861.204	32.81
861.375	27.6
861.546	30.14
861.716	31.43
861.887	30.62
862.057	32.48
862.228	30.11
862.398	26.92
862.569	26.4
862.739	27.87
862.91	27.02
863.08	19.78
863.251	23.03
863.421	22.89
863.592	21.1
863.762	23.23
863.932	20.85
864.103	18.91
864.273	21.84
864.443	23.09
864.614	17.9
864.784	15.87
864.954	19.35
865.125	19.05
865.295	16.68
865.465	18.38
865.635	16.29
865.805	17.11
865.976	15.81
866.146	18.92
866.316	17.41
866.486	17.86
866.656	19.64
866.826	19.54
866.996	18.2
867.166	22.68
867.336	17.38
867.506	18.66
867.676	16.87
867.846	21.6
868.016	12.69
868.186	7.22
868.356	7.98
868.526	5.76
868.696	2.47
868.866	8.25
869.036	6.64
869.206	11.73
869.376	11.23
869.545	9.35
869.715	11.65
869.885	15.51
870.055	20.28
870.224	20.95
870.394	21.5
870.564	26.63
870.734	25.43
870.903	26.74
871.073	23.82
871.243	28.79
871.412	28.07
871.582	26.14
871.751	25.18
871.921	26.77
872.091	27.84
872.26	27.93
872.43	22.87
872.599	23.79
872.769	21.59
872.938	20.06
873.108	12.54
873.277	13.51
873.446	10.76
873.616	9.6
873.785	8.46
873.955	9.27
874.124	4.37
874.293	5.95
874.463	-3.22
874.632	3.24
874.801	9.74
874.971	12.52
875.14	9.22
875.309	5.21
875.478	11.9
875.647	9.6
875.817	12.4
875.986	15.77
876.155	11.77
876.324	20.17
876.493	13.28
876.662	9.49
876.831	10.1
877	9.87
877.17	12.37
877.339	10.68
877.508	12.49
877.677	7.15
877.846	7.2
878.015	9.02
878.184	4.56
878.352	6.61
878.521	10.99
878.69	14.43
878.859	17.92
879.028	15.76
879.197	16.43
879.366	15.98
879.534	15.99
879.703	17.1
879.872	15.63
880.041	17.11
880.21	16.42
880.378	14.66
880.547	13.24
880.716	12.32
880.884	12.9
881.053	12.31
881.222	13.85
881.39	13.19
881.559	13.03
881.727	13.68
881.896	13.8
882.065	14.39
882.233	14.25
882.402	13.89
882.57	13.5
882.739	13.8
882.907	14.28
883.076	13.27
883.244	13.6
883.412	13.15
883.581	12.64
883.749	12.22
883.918	11.37
884.086	11.57
884.254	12.14
884.423	12.44
884.591	12.33
884.759	11.57
884.927	11.44
885.096	11.5
885.264	11.76
885.432	12.21
885.6	11.55
885.769	12.82
885.937	11.85
886.105	12.42
886.273	12.28
886.441	11.54
886.609	13.25
886.777	14.55
886.945	15.99
887.113	17.19
887.281	17.29
887.449	21.11
887.617	24.58
887.785	25.9
887.953	26.19
888.121	26.09
888.289	27.51
888.457	25.47
888.625	21.93
888.793	22.66
888.961	23.37
889.129	26.27
889.296	21.78
889.464	17.55
889.632	18.8
889.8	15.8
889.967	18.18
890.135	18.37
