Data from 2938812__Reflection_06.txt Node
Date: Thu Mar 12 16:52:09 EDT 2015
User: robert
Spectrometer: USB4E03002
Autoset integration time: false
Trigger mode: 4
Integration Time (sec): 1.000000E-1
Scans to average: 10
Electric dark correction enabled: false
Nonlinearity correction enabled: false
Boxcar width: 5
Stray light correction enabled: false
XAxis mode: Wavelengths
Stop averaging: false
Number of Pixels in Spectrum: 3648
>>>>>Begin Spectral Data<<<<<
177.575	-45.64
177.794	-253.09
178.014	678.57
178.233	-957.14
178.452	-2725
178.672	-119.23
178.891	165.71
179.11	75.93
179.33	-100
179.549	-393.48
179.768	-63.03
179.987	111.56
180.207	123.46
180.426	-106.67
180.645	-15.66
180.864	81.4
181.084	88
181.303	15.68
181.522	21.43
181.741	69.6
181.96	405.13
182.179	251.85
182.398	259.65
182.618	0.65
182.837	-20.41
183.056	73.82
183.275	116.28
183.494	530.77
183.713	-20900
183.932	179.49
184.151	93.46
184.37	64.74
184.589	65.99
184.808	83.2
185.027	89.6
185.246	70.22
185.465	65.98
185.684	-18.03
185.903	-117.07
186.122	-167.86
186.341	822.03
186.56	8700
186.779	233.51
186.998	114.96
187.216	106.18
187.435	67.66
187.654	51.38
187.873	34.27
188.092	-23.21
188.311	-102.09
188.53	-115.42
188.748	-143.81
188.967	-111.55
189.186	-358.02
189.405	-1664.86
189.623	1238.89
189.842	152.67
190.061	155.69
190.28	141.1
190.498	128.05
190.717	123.05
190.936	92.65
191.154	76.95
191.373	65.67
191.592	86.01
191.81	67.57
192.029	64.82
192.248	150.65
192.466	155.94
192.685	187.8
192.904	195.34
193.122	151
193.341	155.94
193.559	133.02
193.778	130.44
193.996	157.84
194.215	157.49
194.433	137.61
194.652	116.91
194.87	130.76
195.089	118.5
195.307	94.41
195.526	127.97
195.744	129.49
195.963	211.76
196.181	245.53
196.399	101.55
196.618	151.79
196.836	182.19
197.055	131.61
197.273	105.34
197.491	96.36
197.71	185.06
197.928	106.87
198.146	61.19
198.365	54.03
198.583	38.3
198.801	143.61
199.019	99.1
199.238	175.27
199.456	247.78
199.674	238.97
199.892	989.47
200.111	302.38
200.329	181.28
200.547	151.74
200.765	161.02
200.983	114.61
201.202	155.06
201.42	1048.28
201.638	29100
201.856	769.23
202.074	-2373.33
202.292	614.06
202.51	292.09
202.728	277.95
202.946	299.24
203.165	178.21
203.383	182.86
203.601	157.28
203.819	92.56
204.037	97.14
204.255	62.09
204.473	55.44
204.691	57.29
204.909	50.3
205.127	51.23
205.345	88.35
205.562	82.81
205.78	36.54
205.998	92.19
206.216	270.19
206.434	196.93
206.652	-1360.87
206.87	-553.49
207.088	0.69
207.306	-54.97
207.523	-174.19
207.741	-274
207.959	217.31
208.177	133.73
208.395	92.34
208.612	70.99
208.83	64.52
209.048	52.12
209.266	49.96
209.483	44.86
209.701	49.59
209.919	35.89
210.136	31.17
210.354	17.33
210.572	0.59
210.79	14.23
211.007	1.19
211.225	-15.5
211.442	7.3
211.66	19.75
211.878	39.75
212.095	39.82
212.313	38.03
212.53	31.2
212.748	38.19
212.966	47.42
213.183	41.24
213.401	45.28
213.618	53.82
213.836	38.77
214.053	44.41
214.271	37.39
214.488	28.63
214.705	32.3
214.923	30.31
215.14	44.7
215.358	34.75
215.575	33.5
215.793	41.34
216.01	19.68
216.227	12.27
216.445	-2.63
216.662	-33.38
216.879	-27.97
217.097	-29.05
217.314	-13.11
217.531	-11.1
217.749	-1.72
217.966	-3.89
218.183	-5.39
218.4	14.34
218.618	20.36
218.835	17.94
219.052	32.38
219.269	32.51
219.487	33.96
219.704	38.54
219.921	32.85
220.138	19.61
220.355	23.46
220.572	17.03
220.79	15.87
221.007	20.18
221.224	23.93
221.441	24.26
221.658	22.06
221.875	16.25
222.092	18.43
222.309	22.51
222.526	21.89
222.743	26.17
222.96	27.55
223.177	20.95
223.394	24.92
223.611	21.77
223.828	16.97
224.045	11.08
224.262	12.03
224.479	8.02
224.696	7.41
224.913	8.14
225.13	-1.71
225.347	-6.69
225.564	-4.39
225.781	-11.5
225.997	-10.63
226.214	-5.13
226.431	-2.47
226.648	-0.04
226.865	0.8
227.082	0.07
227.298	-2.62
227.515	-0.28
227.732	1.68
227.949	3
228.165	5.35
228.382	6.59
228.599	6.7
228.816	6.43
229.032	5.63
229.249	5.48
229.466	5.47
229.682	6.44
229.899	6.71
230.116	5.97
230.332	5.29
230.549	3.66
230.765	2.3
230.982	1.97
231.199	2.22
231.415	2.67
231.632	3.19
231.848	3.25
232.065	2.86
232.281	2.45
232.498	4.22
232.714	4.91
232.931	5.79
233.147	6.77
233.364	6.61
233.58	7.52
233.797	7.38
234.013	7.32
234.23	7.88
234.446	7.56
234.662	8.24
234.879	7.56
235.095	6.21
235.312	5.59
235.528	6.43
235.744	7.43
235.961	6.66
236.177	6.67
236.393	6.39
236.61	6.86
236.826	8.64
237.042	6.47
237.258	7.12
237.475	9.23
237.691	9.66
237.907	8.07
238.123	6.56
238.339	7.61
238.556	7.16
238.772	6.22
238.988	6.29
239.204	5.61
239.42	6.14
239.636	6.56
239.853	5.69
240.069	4.64
240.285	4.93
240.501	4.7
240.717	3.93
240.933	4.32
241.149	4.67
241.365	4.52
241.581	4.82
241.797	4.9
242.013	4.45
242.229	4.64
242.445	5.58
242.661	5.38
242.877	5.04
243.093	5.13
243.309	4.87
243.525	4.9
243.741	4.64
243.957	4.37
244.173	4.21
244.388	4.21
244.604	3.29
244.82	2.22
245.036	3.42
245.252	4.5
245.468	3.8
245.683	4.07
245.899	4.14
246.115	4.01
246.331	3.9
246.547	3.76
246.762	4.26
246.978	4.62
247.194	4.64
247.409	4.4
247.625	4.03
247.841	4.59
248.057	4.46
248.272	4.59
248.488	4.87
248.703	5.36
248.919	5.32
249.135	5.07
249.35	4.74
249.566	4.85
249.782	4.67
249.997	5.27
250.213	4.54
250.428	4.88
250.644	4.8
250.859	4.74
251.075	4.06
251.29	4.79
251.506	4.57
251.721	4.79
251.937	4.77
252.152	4.99
252.368	4.26
252.583	4.69
252.798	4.49
253.014	3.98
253.229	4.26
253.445	4.34
253.66	4.43
253.875	3.81
254.091	3.5
254.306	2.85
254.521	2.14
254.737	2.77
254.952	2.29
255.167	1.74
255.383	3.45
255.598	2.97
255.813	3.67
256.028	3.08
256.244	4.09
256.459	4.04
256.674	5.16
256.889	4.91
257.104	4.55
257.32	5.01
257.535	5.34
257.75	4.39
257.965	4.3
258.18	4
258.395	4.11
258.61	3.65
258.826	3.64
259.041	3.65
259.256	3.64
259.471	3.78
259.686	3.69
259.901	3.64
260.116	3.74
260.331	3.48
260.546	3.34
260.761	3.47
260.976	3.53
261.191	3.81
261.406	3.68
261.621	3.7
261.836	3.65
262.05	3.72
262.265	3.82
262.48	3.5
262.695	4.11
262.91	4.57
263.125	4.83
263.34	5.16
263.555	4.46
263.769	4.37
263.984	4.54
264.199	4.47
264.414	3.75
264.629	4.07
264.843	4.29
265.058	3.66
265.273	3.36
265.488	3.65
265.702	3.68
265.917	3.61
266.132	3.26
266.346	3.25
266.561	3.12
266.776	3.71
266.99	3.58
267.205	3.94
267.42	4.29
267.634	4.53
267.849	3.84
268.063	3.72
268.278	4.62
268.492	4.65
268.707	4.33
268.922	4.17
269.136	4.18
269.351	3.7
269.565	3.36
269.78	3.36
269.994	3.43
270.209	3.62
270.423	3.62
270.637	2.86
270.852	3.08
271.066	3.59
271.281	3.67
271.495	3.36
271.709	3.62
271.924	3.31
272.138	3.28
272.353	3.13
272.567	3.07
272.781	3.44
272.996	3.62
273.21	3.47
273.424	3.49
273.638	3.55
273.853	3.74
274.067	3.73
274.281	4.2
274.495	4.02
274.71	3.74
274.924	3.76
275.138	3.55
275.352	3.75
275.566	4.05
275.781	3.87
275.995	4.09
276.209	3.74
276.423	3.83
276.637	3.73
276.851	3.89
277.065	3.74
277.279	3.64
277.493	3.43
277.707	3.55
277.921	3.34
278.135	3.38
278.349	3.57
278.563	4.31
278.777	4.35
278.991	3.63
279.205	3.71
279.419	3.92
279.633	4.21
279.847	3.62
280.061	3.72
280.275	4.21
280.489	3.93
280.703	3.6
280.917	2.98
281.131	2.83
281.344	3.55
281.558	3.15
281.772	3.25
281.986	2.94
282.2	3.25
282.414	3
282.627	2.62
282.841	2.97
283.055	3
283.269	3.02
283.482	3.17
283.696	3.03
283.91	3.35
284.123	3.54
284.337	3.6
284.551	3.72
284.764	4.08
284.978	4.34
285.192	4.04
285.405	3.93
285.619	3.84
285.833	3.77
286.046	3.78
286.26	3.85
286.473	3.86
286.687	3.95
286.9	4.11
287.114	3.6
287.327	3.26
287.541	3.38
287.754	3.61
287.968	4.09
288.181	3.8
288.395	3.88
288.608	3.47
288.822	3.56
289.035	3.6
289.248	3.25
289.462	3.65
289.675	3.58
289.889	3.39
290.102	3.12
290.315	2.83
290.529	3.28
290.742	3.04
290.955	3.61
291.169	3.65
291.382	3.88
291.595	3.96
291.808	3.82
292.022	4
292.235	4.35
292.448	4.73
292.661	4.99
292.875	5.27
293.088	5.78
293.301	5.43
293.514	5.21
293.727	5.06
293.94	5.74
294.153	5.77
294.367	5.75
294.58	5.85
294.793	5.96
295.006	5.82
295.219	5.37
295.432	5.31
295.645	5.32
295.858	5.58
296.071	5.35
296.284	5.07
296.497	5.19
296.71	5.46
296.923	5.56
297.136	5.56
297.349	5.65
297.562	5.85
297.775	6.03
297.988	6.21
298.201	6.2
298.414	6.42
298.626	6.43
298.839	6.51
299.052	6.38
299.265	6.41
299.478	6.61
299.691	6.67
299.903	6.74
300.116	6.5
300.329	6.46
300.542	6.29
300.755	6.39
300.967	6.36
301.18	6.56
301.393	6.35
301.605	6.22
301.818	5.98
302.031	5.95
302.243	5.81
302.456	6.21
302.669	6.2
302.881	6.02
303.094	6.05
303.307	6.24
303.519	6.35
303.732	6.86
303.944	6.88
304.157	7.2
304.37	7.17
304.582	7.16
304.795	6.74
305.007	6.89
305.22	7.66
305.432	7.78
305.645	7.72
305.857	7.67
306.069	7.38
306.282	7.36
306.494	7.01
306.707	7.17
306.919	7.38
307.132	7.82
307.344	7.96
307.556	7.43
307.769	7.4
307.981	7.33
308.193	7.23
308.406	7.88
308.618	8.15
308.83	8.45
309.043	8.62
309.255	8.79
309.467	8.64
309.679	8.57
309.892	8.94
310.104	9.08
310.316	9.17
310.528	9.39
310.74	9.3
310.953	9.27
311.165	9.4
311.377	9.4
311.589	9.19
311.801	9.28
312.013	9.36
312.225	9.25
312.437	9.21
312.649	9.39
312.862	9.25
313.074	8.7
313.286	8.51
313.498	8.49
313.71	8.83
313.922	8.99
314.134	8.54
314.346	8.66
314.558	8.81
314.77	8.4
314.982	8.3
315.193	8.35
315.405	8.76
315.617	9.12
315.829	8.85
316.041	8.48
316.253	8.16
316.465	8.86
316.677	8.82
316.888	8.54
317.1	8.84
317.312	8.84
317.524	8.79
317.736	9.49
317.947	9.51
318.159	9.51
318.371	9.65
318.583	10.08
318.794	10.42
319.006	10.59
319.218	10.6
319.43	10.97
319.641	11.29
319.853	11.45
320.064	10.54
320.276	10.44
320.488	10.54
320.699	10.69
320.911	10.58
321.123	10.18
321.334	9.66
321.546	10.26
321.757	9.99
321.969	9.84
322.18	9.71
322.392	9.73
322.603	9.75
322.815	9.7
323.026	9.85
323.238	9.74
323.449	9.8
323.661	10.21
323.872	9.82
324.083	9.92
324.295	9.97
324.506	9.97
324.718	10.01
324.929	9.97
325.14	10.09
325.352	9.8
325.563	10.28
325.774	10.22
325.986	10.31
326.197	10.64
326.408	10.51
326.62	10.73
326.831	10.7
327.042	11.12
327.253	11.17
327.464	11.24
327.676	11.22
327.887	11.12
328.098	11.04
328.309	11.16
328.52	11.36
328.732	11.88
328.943	11.93
329.154	11.96
329.365	11.98
329.576	12.01
329.787	12.06
329.998	12.69
330.209	12.46
330.42	12.78
330.631	12.55
330.842	11.91
331.053	11.74
331.264	11.73
331.475	11.89
331.686	12.09
331.897	12.04
332.108	12.16
332.319	12.03
332.53	12.13
332.741	12.02
332.952	12.56
333.163	13.29
333.374	13.37
333.585	13.37
333.795	13.18
334.006	13.21
334.217	13.61
334.428	13.39
334.639	13.26
334.849	13.9
335.06	14.08
335.271	14.19
335.482	13.92
335.692	13.66
335.903	13.74
336.114	13.79
336.325	13.4
336.535	13.25
336.746	13.41
336.957	13.41
337.167	12.77
337.378	12.76
337.589	12.04
337.799	12.12
338.01	12.18
338.22	11.89
338.431	11.65
338.642	11.49
338.852	11.34
339.063	11.33
339.273	11.58
339.484	11.56
339.694	11.19
339.905	11.51
340.115	11.25
340.326	11.45
340.536	11.46
340.746	12.09
340.957	12.24
341.167	12.12
341.378	12.15
341.588	12.29
341.799	12.82
342.009	13.08
342.219	12.92
342.43	13.19
342.64	13.12
342.85	13.24
343.061	12.72
343.271	12.78
343.481	13.12
343.691	13.06
343.902	12.36
344.112	12.28
344.322	12.27
344.532	12.46
344.743	12.16
344.953	12.41
345.163	12.52
345.373	12.95
345.583	13.12
345.793	13.35
346.004	13.33
346.214	13.84
346.424	13.75
346.634	13.92
346.844	13.63
347.054	13.98
347.264	13.75
347.474	13.48
347.684	13.15
347.894	12.92
348.104	12.79
348.314	12.91
348.524	12.55
348.734	12.53
348.944	12.13
349.154	12.44
349.364	12.28
349.574	12.21
349.784	12.55
349.994	12.96
350.204	12.87
350.413	12.7
350.623	12.47
350.833	12.52
351.043	12.19
351.253	12.45
351.463	12.4
351.672	12.43
351.882	12.5
352.092	12.33
352.302	12.1
352.511	12.3
352.721	12.1
352.931	12.36
353.141	12.19
353.35	12.11
353.56	12.12
353.77	12.29
353.979	12.1
354.189	12.12
354.399	11.94
354.608	12.07
354.818	11.91
355.027	12.02
355.237	11.9
355.447	12.25
355.656	12.44
355.866	12.33
356.075	12.15
356.285	12.37
356.494	12.2
356.704	12.19
356.913	12.2
357.123	12.44
357.332	12.42
357.542	12.5
357.751	12.42
357.96	12.51
358.17	12.61
358.379	12.58
358.589	12.46
358.798	12.6
359.007	12.91
359.217	12.91
359.426	12.77
359.635	12.8
359.845	12.44
360.054	12.54
360.263	12.41
360.472	12.39
360.682	12.71
360.891	12.69
361.1	12.6
361.309	12.39
361.519	12.12
361.728	11.96
361.937	11.85
362.146	12.06
362.355	11.84
362.564	11.9
362.774	11.83
362.983	11.56
363.192	11.41
363.401	11.55
363.61	11.59
363.819	11.77
364.028	11.9
364.237	12.05
364.446	12.21
364.655	12.38
364.864	12.34
365.073	12.1
365.282	12.06
365.491	12.06
365.7	11.88
365.909	11.88
366.118	11.85
366.327	11.89
366.536	11.72
366.745	11.68
366.954	11.64
367.162	11.59
367.371	11.71
367.58	11.59
367.789	11.47
367.998	11.43
368.207	11.51
368.415	11.54
368.624	11.33
368.833	11.4
369.042	10.95
369.25	10.94
369.459	10.84
369.668	10.68
369.877	10.58
370.085	10.55
370.294	10.43
370.503	10.23
370.711	10.18
370.92	10.49
371.129	10.29
371.337	10.51
371.546	10.27
371.754	10.43
371.963	10.58
372.171	10.58
372.38	10.5
372.589	10.35
372.797	10.55
373.006	10.53
373.214	10.21
373.423	10.18
373.631	10.07
373.84	10.01
374.048	9.85
374.256	9.83
374.465	9.81
374.673	9.81
374.882	9.73
375.09	9.51
375.298	9.58
375.507	9.6
375.715	9.85
375.923	9.86
376.132	9.71
376.34	9.52
376.548	9.23
376.757	9.2
376.965	9.32
377.173	9.47
377.381	9.29
377.59	9.21
377.798	9.28
378.006	9.02
378.214	8.99
378.423	9.28
378.631	9.4
378.839	9.7
379.047	10.09
379.255	10.14
379.463	10.25
379.671	10.44
379.879	10.3
380.088	10.16
380.296	10.23
380.504	9.99
380.712	9.82
380.92	9.59
381.128	9.16
381.336	8.93
381.544	8.87
381.752	8.61
381.96	8.39
382.168	8.35
382.376	8.43
382.584	8.35
382.791	8.48
382.999	8.32
383.207	8.68
383.415	8.96
383.623	8.71
383.831	8.53
384.039	8.62
384.247	8.65
384.454	8.67
384.662	8.44
384.87	8.46
385.078	8.36
385.285	8.41
385.493	8.21
385.701	7.94
385.909	7.68
386.116	7.88
386.324	7.8
386.532	7.69
386.739	7.58
386.947	7.73
387.155	8.01
387.362	8.18
387.57	8.2
387.778	8.28
387.985	8.38
388.193	8.58
388.4	8.47
388.608	8.53
388.816	8.56
389.023	8.52
389.231	8.41
389.438	8.15
389.646	7.69
389.853	7.74
390.061	7.67
390.268	7.66
390.475	7.64
390.683	7.53
390.89	7.44
391.098	7.38
391.305	7.39
391.512	7.31
391.72	7.16
391.927	7.46
392.135	7.27
392.342	7.11
392.549	7.01
392.756	7.09
392.964	7.01
393.171	7.09
393.378	7.11
393.586	7.11
393.793	7.24
394	7.32
394.207	7.44
394.414	7.52
394.622	7.55
394.829	8.02
395.036	7.79
395.243	7.99
395.45	7.89
395.657	7.76
395.864	7.61
396.072	7.6
396.279	7.38
396.486	7.3
396.693	7.2
396.9	7.17
397.107	6.81
397.314	7.06
397.521	6.85
397.728	6.73
397.935	7.06
398.142	7.24
398.349	7.19
398.556	7.44
398.763	7.45
398.97	7.48
399.177	7.56
399.383	7.56
399.59	7.28
399.797	7.37
400.004	7.47
400.211	7.08
400.418	7
400.625	7.04
400.831	7.18
401.038	6.99
401.245	7.08
401.452	7.02
401.658	7.01
401.865	7.3
402.072	7.21
402.279	7.21
402.485	7.31
402.692	7.36
402.899	7.32
403.105	7.19
403.312	7.35
403.519	7.2
403.725	7.2
403.932	7.11
404.138	6.98
404.345	7.08
404.552	7.08
404.758	7.08
404.965	7.13
405.171	6.98
405.378	6.81
405.584	6.61
405.791	6.68
405.997	6.73
406.204	6.58
406.41	6.62
406.617	6.62
406.823	6.61
407.029	6.8
407.236	6.6
407.442	6.52
407.649	6.69
407.855	6.79
408.061	7.03
408.268	6.86
408.474	7.02
408.68	6.91
408.887	6.86
409.093	6.92
409.299	6.89
409.505	6.9
409.712	7.07
409.918	6.99
410.124	6.73
410.33	6.58
410.537	6.77
410.743	6.89
410.949	7.01
411.155	6.98
411.361	6.93
411.567	6.87
411.773	6.88
411.98	6.79
412.186	6.74
412.392	7.02
412.598	7.02
412.804	6.93
413.01	6.74
413.216	6.79
413.422	6.72
413.628	6.83
413.834	6.63
414.04	6.73
414.246	6.8
414.452	6.71
414.658	6.68
414.864	6.52
415.07	6.48
415.275	6.41
415.481	6.1
415.687	6.08
415.893	5.98
416.099	6.1
416.305	6.12
416.511	6.19
416.716	6.11
416.922	6.17
417.128	6.27
417.334	6.32
417.539	6.41
417.745	6.58
417.951	6.54
418.157	6.56
418.362	6.59
418.568	6.51
418.774	6.53
418.979	6.53
419.185	6.49
419.391	6.46
419.596	6.44
419.802	6.5
420.008	6.42
420.213	5.69
420.419	5.61
420.624	5.52
420.83	5.56
421.035	5.5
421.241	5.6
421.446	5.63
421.652	5.66
421.857	5.63
422.063	5.62
422.268	5.68
422.474	6.41
422.679	6.39
422.885	6.66
423.09	6.68
423.295	6.62
423.501	6.58
423.706	6.49
423.911	6.42
424.117	6.46
424.322	6.38
424.527	6.3
424.733	6.2
424.938	6.33
425.143	6.12
425.349	6.08
425.554	6.11
425.759	6.12
425.964	6.17
426.169	6.19
426.375	6.11
426.58	6.07
426.785	6.07
426.99	6.26
427.195	6.27
427.4	6.25
427.605	6.17
427.811	6.13
428.016	6.21
428.221	6.24
428.426	6.28
428.631	6.3
428.836	6.34
429.041	6.58
429.246	6.46
429.451	6.28
429.656	6.24
429.861	6.28
430.066	6.37
430.271	6.36
430.476	6.3
430.681	6.13
430.886	6.18
431.09	6.27
431.295	6.03
431.5	6.02
431.705	6
431.91	6.01
432.115	6.02
432.32	6
432.524	5.93
432.729	6.03
432.934	6.25
433.139	6.16
433.343	6.12
433.548	6.18
433.753	6.2
433.958	6.32
434.162	6.35
434.367	6.43
434.572	6.47
434.776	6.62
434.981	6.55
435.186	6.42
435.39	6.49
435.595	6.5
435.799	6.52
436.004	6.44
436.209	6.46
436.413	6.49
436.618	6.5
436.822	6.5
437.027	6.33
437.231	6.31
437.436	6.29
437.64	6.29
437.845	6.3
438.049	6.3
438.253	6.37
438.458	6.25
438.662	6.23
438.867	6.07
439.071	5.95
439.275	5.98
439.48	5.98
439.684	5.97
439.888	6.03
440.093	5.99
440.297	5.96
440.501	5.98
440.706	5.97
440.91	5.92
441.114	6.01
441.318	6.05
441.523	6.02
441.727	5.98
441.931	6.08
442.135	6.05
442.339	6.02
442.543	6.03
442.748	6.07
442.952	6.21
443.156	6.27
443.36	6.26
443.564	6.31
443.768	6.33
443.972	6.37
444.176	6.3
444.38	6.27
444.584	6.25
444.788	6.18
444.992	6.11
445.196	5.93
445.4	5.92
445.604	5.99
445.808	5.96
446.012	5.89
446.216	5.85
446.42	5.86
446.624	5.88
446.828	5.88
447.032	5.91
447.235	5.92
447.439	5.95
447.643	5.88
447.847	5.76
448.051	5.85
448.254	5.98
448.458	5.95
448.662	6
448.866	5.94
449.069	5.9
449.273	5.95
449.477	5.86
449.681	5.96
449.884	5.99
450.088	5.99
450.292	5.86
450.495	5.75
450.699	5.79
450.902	5.72
451.106	5.66
451.31	5.75
451.513	5.75
451.717	5.75
451.92	5.7
452.124	5.67
452.327	5.65
452.531	5.65
452.734	5.64
452.938	5.63
453.141	5.66
453.345	5.63
453.548	5.53
453.752	5.51
453.955	5.56
454.158	5.62
454.362	5.73
454.565	5.77
454.769	5.81
454.972	5.87
455.175	5.87
455.379	5.9
455.582	5.91
455.785	5.95
455.988	5.88
456.192	5.9
456.395	5.91
456.598	5.72
456.801	5.65
457.005	5.6
457.208	5.62
457.411	5.57
457.614	5.46
457.817	5.44
458.021	5.47
458.224	5.41
458.427	5.34
458.63	5.28
458.833	5.44
459.036	5.56
459.239	5.54
459.442	5.48
459.645	5.47
459.848	5.44
460.051	5.56
460.254	5.64
460.457	5.71
460.66	5.8
460.863	5.85
461.066	5.73
461.269	5.67
461.472	5.71
461.675	5.64
461.878	5.78
462.081	5.85
462.284	5.75
462.486	5.71
462.689	5.69
462.892	5.63
463.095	5.51
463.298	5.62
463.5	5.75
463.703	5.71
463.906	5.88
464.109	5.82
464.311	5.85
464.514	5.95
464.717	5.98
464.92	5.97
465.122	6.02
465.325	6.1
465.528	6.05
465.73	5.93
465.933	5.98
466.135	5.95
466.338	5.87
466.541	5.84
466.743	5.78
466.946	5.81
467.148	5.95
467.351	5.9
467.553	5.95
467.756	6.05
467.958	6.01
468.161	5.95
468.363	5.96
468.566	5.97
468.768	6.01
468.971	6.1
469.173	6.01
469.375	5.89
469.578	5.85
469.78	5.9
469.983	5.89
470.185	5.96
470.387	5.97
470.59	5.92
470.792	5.89
470.994	5.84
471.196	5.85
471.399	5.94
471.601	6.03
471.803	6.11
472.005	6.1
472.208	6.03
472.41	6.13
472.612	6.23
472.814	6.28
473.016	6.35
473.218	6.42
473.421	6.28
473.623	6.24
473.825	6.15
474.027	6.12
474.229	6.07
474.431	6.1
474.633	6.04
474.835	5.98
475.037	6.12
475.239	6.28
475.441	6.19
475.643	6.3
475.845	6.31
476.047	6.38
476.249	6.41
476.451	6.41
476.653	6.35
476.855	6.25
477.057	6.19
477.258	6.07
477.46	5.94
477.662	6.04
477.864	5.96
478.066	5.98
478.268	5.92
478.469	5.88
478.671	5.86
478.873	5.88
479.075	5.85
479.276	6
479.478	6
479.68	5.89
479.882	5.84
480.083	5.88
480.285	5.82
480.487	5.87
480.688	5.84
480.89	5.88
481.091	5.94
481.293	5.97
481.495	5.9
481.696	5.79
481.898	5.82
482.099	5.8
482.301	5.79
482.502	5.73
482.704	5.69
482.905	5.69
483.107	5.66
483.308	5.67
483.51	5.68
483.711	5.67
483.913	5.68
484.114	5.67
484.315	5.66
484.517	5.67
484.718	5.7
484.92	5.71
485.121	5.69
485.322	5.71
485.524	5.7
485.725	5.66
485.926	5.67
486.127	5.67
486.329	5.71
486.53	5.7
486.731	5.68
486.932	5.67
487.134	5.7
487.335	5.7
487.536	5.71
487.737	5.69
487.938	5.72
488.139	5.72
488.341	5.75
488.542	5.75
488.743	5.79
488.944	5.84
489.145	5.86
489.346	5.86
489.547	5.92
489.748	5.93
489.949	5.96
490.15	5.94
490.351	5.95
490.552	5.95
490.753	5.97
490.954	5.94
491.155	5.86
491.356	5.89
491.557	5.88
491.758	5.92
491.959	5.91
492.159	5.96
492.36	6.02
492.561	6.08
492.762	6.15
492.963	6.21
493.164	6.27
493.364	6.35
493.565	6.34
493.766	6.42
493.967	6.43
494.167	6.45
494.368	6.33
494.569	6.3
494.769	6.27
494.97	6.19
495.171	6.1
495.371	6.05
495.572	6.07
495.773	6.09
495.973	6.07
496.174	6.04
496.375	6.02
496.575	6.08
496.776	6.09
496.976	6.1
497.177	6.18
497.377	6.18
497.578	6.22
497.778	6.27
497.979	6.28
498.179	6.27
498.38	6.34
498.58	6.38
498.78	6.38
498.981	6.36
499.181	6.34
499.382	6.34
499.582	6.38
499.782	6.37
499.983	6.46
500.183	6.47
500.383	6.51
500.584	6.49
500.784	6.61
500.984	6.73
501.184	6.79
501.385	6.83
501.585	6.86
501.785	6.93
501.985	6.98
502.185	6.94
502.386	7.06
502.586	7.12
502.786	7.03
502.986	6.97
503.186	6.96
503.386	6.94
503.586	6.98
503.786	7.02
503.987	7.04
504.187	7.06
504.387	7.05
504.587	7.02
504.787	7.04
504.987	7.22
505.187	7.26
505.387	7.29
505.587	7.31
505.786	7.35
505.986	7.31
506.186	7.44
506.386	7.54
506.586	7.55
506.786	7.65
506.986	7.66
507.186	7.66
507.386	7.7
507.585	7.71
507.785	7.84
507.985	7.86
508.185	7.88
508.384	7.86
508.584	7.87
508.784	8.05
508.984	8.08
509.183	8.12
509.383	8.21
509.583	8.25
509.782	8.4
509.982	8.37
510.182	8.47
510.381	8.56
510.581	8.58
510.781	8.63
510.98	8.61
511.18	8.63
511.379	8.69
511.579	8.7
511.778	8.77
511.978	8.64
512.177	8.75
512.377	8.74
512.576	8.86
512.776	8.98
512.975	9.05
513.175	9.05
513.374	9.19
513.573	9.24
513.773	9.28
513.972	9.32
514.172	9.51
514.371	9.59
514.57	9.73
514.77	9.78
514.969	9.82
515.168	9.9
515.367	10.03
515.567	10.07
515.766	10.18
515.965	10.25
516.164	10.4
516.364	10.53
516.563	10.62
516.762	10.7
516.961	10.75
517.16	10.78
517.359	10.79
517.559	10.9
517.758	10.91
517.957	11
518.156	11.08
518.355	11.07
518.554	11.03
518.753	11.05
518.952	11.07
519.151	11.11
519.35	11.18
519.549	11.29
519.748	11.37
519.947	11.52
520.146	11.61
520.345	11.71
520.544	11.85
520.743	12.02
520.942	12.18
521.141	12.24
521.339	12.34
521.538	12.43
521.737	12.54
521.936	12.55
522.135	12.55
522.333	12.63
522.532	12.72
522.731	12.81
522.93	12.92
523.129	12.93
523.327	13
523.526	13.09
523.725	13.2
523.923	13.35
524.122	13.42
524.321	13.55
524.519	13.61
524.718	13.69
524.917	13.81
525.115	13.8
525.314	13.88
525.512	14.05
525.711	14.15
525.909	14.29
526.108	14.32
526.306	14.42
526.505	14.51
526.703	14.64
526.902	14.72
527.1	14.77
527.299	14.85
527.497	14.98
527.696	14.99
527.894	15.05
528.092	15.08
528.291	15.14
528.489	15.25
528.688	15.31
528.886	15.34
529.084	15.39
529.283	15.47
529.481	15.57
529.679	15.59
529.877	15.66
530.076	15.75
530.274	15.82
530.472	15.89
530.67	15.97
530.869	16.02
531.067	16.11
531.265	16.26
531.463	16.38
531.661	16.46
531.859	16.64
532.057	16.76
532.255	16.83
532.454	16.95
532.652	17.01
532.85	17.01
533.048	17.07
533.246	17.14
533.444	17.19
533.642	17.22
533.84	17.28
534.038	17.29
534.236	17.42
534.434	17.53
534.632	17.62
534.83	17.76
535.027	17.86
535.225	17.97
535.423	18.04
535.621	18.14
535.819	18.19
536.017	18.26
536.215	18.35
536.412	18.29
536.61	18.41
536.808	18.45
537.006	18.49
537.203	18.57
537.401	18.69
537.599	18.88
537.797	18.91
537.994	18.97
538.192	19.09
538.39	19.12
538.587	19.31
538.785	19.24
538.983	19.24
539.18	19.33
539.378	19.41
539.575	19.4
539.773	19.34
539.97	19.43
540.168	19.5
540.366	19.52
540.563	19.54
540.761	19.58
540.958	19.63
541.155	19.73
541.353	19.77
541.55	19.81
541.748	19.87
541.945	19.98
542.143	19.99
542.34	20.1
542.537	20.14
542.735	20.22
542.932	20.25
543.129	20.33
543.327	20.34
543.524	20.42
543.721	20.46
543.919	20.49
544.116	20.5
544.313	20.57
544.51	20.57
544.708	20.61
544.905	20.65
545.102	20.71
545.299	20.72
545.496	20.75
545.693	20.75
545.891	20.77
546.088	20.79
546.285	20.79
546.482	20.8
546.679	20.89
546.876	20.87
547.073	21.03
547.27	21.1
547.467	21.24
547.664	21.33
547.861	21.31
548.058	21.44
548.255	21.5
548.452	21.47
548.649	21.51
548.846	21.44
549.043	21.55
549.24	21.43
549.437	21.35
549.633	21.31
549.83	21.26
550.027	21.46
550.224	21.37
550.421	21.44
550.618	21.48
550.814	21.58
551.011	21.62
551.208	21.64
551.405	21.7
551.601	21.75
551.798	21.85
551.995	21.93
552.191	21.86
552.388	21.76
552.585	21.74
552.781	21.78
552.978	21.72
553.175	21.76
553.371	21.8
553.568	21.82
553.764	21.77
553.961	21.67
554.157	21.63
554.354	21.54
554.55	21.69
554.747	21.73
554.943	21.81
555.14	21.82
555.336	21.85
555.533	21.81
555.729	21.78
555.926	21.92
556.122	22
556.318	22.03
556.515	22.08
556.711	22.14
556.907	22.08
557.104	22.09
557.3	22.06
557.496	22.01
557.693	21.95
557.889	21.98
558.085	21.98
558.281	21.92
558.478	21.88
558.674	21.93
558.87	21.78
559.066	21.84
559.262	21.74
559.459	21.75
559.655	21.74
559.851	21.87
560.047	21.86
560.243	21.94
560.439	21.97
560.635	21.98
560.831	22.03
561.027	22.15
561.223	22.31
561.419	22.36
561.615	22.42
561.811	22.46
562.007	22.4
562.203	22.52
562.399	22.38
562.595	22.35
562.791	22.41
562.987	22.36
563.183	22.45
563.379	22.36
563.575	22.34
563.771	22.32
563.966	22.29
564.162	22.32
564.358	22.22
564.554	22.25
564.75	22.36
564.945	22.34
565.141	22.45
565.337	22.42
565.533	22.39
565.728	22.52
565.924	22.69
566.12	22.69
566.315	22.73
566.511	22.69
566.707	22.71
566.902	22.65
567.098	22.68
567.293	22.68
567.489	22.66
567.684	22.66
567.88	22.72
568.076	22.75
568.271	22.79
568.467	22.77
568.662	22.89
568.858	22.94
569.053	23.01
569.248	23
569.444	22.89
569.639	22.95
569.835	22.95
570.03	22.77
570.225	22.58
570.421	22.65
570.616	22.78
570.812	22.78
571.007	22.79
571.202	22.83
571.397	22.85
571.593	22.93
571.788	22.9
571.983	23.01
572.178	23.03
572.374	23.14
572.569	23.17
572.764	23.13
572.959	23.1
573.154	22.99
573.35	22.92
573.545	22.94
573.74	22.99
573.935	23.06
574.13	23.09
574.325	23.18
574.52	23.19
574.715	23.14
574.91	23.26
575.105	23.38
575.3	23.5
575.495	23.51
575.69	23.54
575.885	23.48
576.08	23.39
576.275	23.5
576.47	23.53
576.665	23.52
576.86	23.55
577.055	23.33
577.25	23.31
577.444	23.34
577.639	23.33
577.834	23.43
578.029	23.49
578.224	23.39
578.418	23.16
578.613	23.29
578.808	23.15
579.003	23.29
579.197	23.38
579.392	23.33
579.587	23.25
579.781	23.3
579.976	23.22
580.171	23.29
580.365	23.5
580.56	23.64
580.755	23.4
580.949	23.59
581.144	23.37
581.338	23.39
581.533	23.34
581.727	23.4
581.922	23.4
582.116	23.47
582.311	23.32
582.505	23.22
582.7	23.19
582.894	23.12
583.089	23.22
583.283	23.27
583.478	23.24
583.672	23.31
583.866	23.22
584.061	23.23
584.255	23.11
584.449	23.39
584.644	23.4
584.838	23.38
585.032	23.68
585.226	23.57
585.421	23.52
585.615	23.62
585.809	23.7
586.003	23.71
586.198	23.8
586.392	23.97
586.586	23.67
586.78	23.79
586.974	23.87
587.168	23.73
587.363	23.73
587.557	23.82
587.751	23.79
587.945	23.79
588.139	23.83
588.333	23.78
588.527	23.68
588.721	23.85
588.915	23.81
589.109	23.67
589.303	23.63
589.497	23.61
589.691	23.67
589.885	23.65
590.079	23.56
590.273	23.52
590.466	23.62
590.66	23.7
590.854	23.63
591.048	23.69
591.242	23.71
591.436	23.83
591.629	23.91
591.823	23.85
592.017	23.81
592.211	23.8
592.404	23.89
592.598	23.72
592.792	23.53
592.986	23.48
593.179	23.29
593.373	23.34
593.567	23.28
593.76	23.18
593.954	23.13
594.147	23.19
594.341	23.34
594.535	23.35
594.728	23.48
594.922	23.63
595.115	23.69
595.309	23.83
595.502	23.79
595.696	23.8
595.889	23.89
596.083	23.92
596.276	23.98
596.47	23.9
596.663	23.89
596.856	23.92
597.05	23.89
597.243	23.79
597.437	23.82
597.63	23.87
597.823	23.83
598.017	23.81
598.21	23.72
598.403	23.65
598.596	23.9
598.79	23.89
598.983	23.77
599.176	23.78
599.369	23.89
599.563	23.92
599.756	23.86
599.949	23.98
600.142	24.15
600.335	24.24
600.528	24.2
600.722	23.91
600.915	23.93
601.108	24.04
601.301	23.96
601.494	24.1
601.687	24.07
601.88	24.19
602.073	24.14
602.266	23.98
602.459	24.02
602.652	24.03
602.845	23.98
603.038	24.05
603.231	23.98
603.424	24.1
603.617	23.95
603.809	23.91
604.002	23.84
604.195	23.87
604.388	23.88
604.581	23.98
604.774	24.04
604.966	24.05
605.159	23.98
605.352	24
605.545	23.99
605.737	24.14
605.93	24.15
606.123	24.23
606.316	24.12
606.508	24
606.701	23.99
606.894	23.9
607.086	24.03
607.279	24.01
607.471	24.09
607.664	24.04
607.857	24.15
608.049	24.09
608.242	24.02
608.434	24.24
608.627	24.4
608.819	24.27
609.012	24.34
609.204	24.48
609.397	24.7
609.589	24.77
609.782	25.05
609.974	25.14
610.166	25.37
610.359	25.55
610.551	25.61
610.743	25.85
610.936	26.05
611.128	26.24
611.32	26.2
611.513	26.38
611.705	26.43
611.897	26.26
612.09	26.1
612.282	26.1
612.474	26.09
612.666	26
612.858	25.93
613.051	26.02
613.243	25.88
613.435	25.82
613.627	25.57
613.819	25.46
614.011	25.56
614.203	25.6
614.395	25.44
614.588	25.5
614.78	25.61
614.972	25.51
615.164	25.29
615.356	25.27
615.548	25.2
615.74	25.16
615.932	25.1
616.124	24.74
616.315	24.38
616.507	24.54
616.699	24.53
616.891	24.52
617.083	24.38
617.275	24.46
617.467	24.59
617.659	24.74
617.85	24.78
618.042	24.97
618.234	24.96
618.426	25.21
618.618	24.96
618.809	24.84
619.001	24.89
619.193	24.96
619.384	25.06
619.576	25.03
619.768	24.94
619.959	24.79
620.151	24.52
620.343	24.71
620.534	24.75
620.726	24.81
620.917	24.85
621.109	24.77
621.301	24.74
621.492	24.55
621.684	24.45
621.875	24.29
622.067	24.33
622.258	24.53
622.45	24.56
622.641	24.53
622.832	24.51
623.024	24.57
623.215	24.38
623.407	24.36
623.598	24.31
623.789	24.39
623.981	24.66
624.172	24.69
624.363	24.5
624.555	24.18
624.746	24.36
624.937	24.41
625.129	24.24
625.32	24.47
625.511	24.52
625.702	24.6
625.893	24.46
626.085	24.33
626.276	24.33
626.467	24.46
626.658	24.79
626.849	24.56
627.04	24.43
627.231	24.46
627.422	24.44
627.614	24.44
627.805	24.51
627.996	24.61
628.187	24.62
628.378	24.56
628.569	24.5
628.76	24.57
628.951	24.58
629.142	24.78
629.332	24.92
629.523	24.78
629.714	24.82
629.905	24.81
630.096	24.78
630.287	24.83
630.478	24.89
630.669	24.74
630.859	24.65
631.05	24.74
631.241	24.56
631.432	24.5
631.623	24.51
631.813	24.51
632.004	24.49
632.195	24.61
632.385	24.62
632.576	24.51
632.767	24.77
632.957	24.79
633.148	24.68
633.339	24.79
633.529	24.8
633.72	24.88
633.91	24.97
634.101	24.93
634.292	24.85
634.482	24.88
634.673	25.01
634.863	24.97
635.054	24.82
635.244	24.88
635.435	24.85
635.625	24.86
635.815	24.74
636.006	24.55
636.196	24.46
636.387	24.56
636.577	24.54
636.767	24.39
636.958	24.49
637.148	24.46
637.338	24.65
637.529	24.82
637.719	24.79
637.909	24.87
638.099	24.98
638.29	25.23
638.48	25.14
638.67	25.19
638.86	25.33
639.05	25.27
639.241	25.34
639.431	25.14
639.621	25.16
639.811	25.19
640.001	25.08
640.191	25.16
640.381	25.16
640.571	25.22
640.761	25.31
640.951	25.36
641.141	25.27
641.331	25.21
641.521	25.47
641.711	25.68
641.901	25.62
642.091	25.76
642.281	25.52
642.471	25.42
642.661	25.4
642.851	25.1
643.041	25.2
643.231	25.17
643.42	25.04
643.61	24.89
643.8	24.31
643.99	24.47
644.18	24.33
644.369	24.57
644.559	24.61
644.749	24.67
644.939	24.89
645.128	24.59
645.318	24.57
645.508	24.74
645.697	24.68
645.887	24.95
646.076	24.7
646.266	24.77
646.456	24.67
646.645	24.67
646.835	24.46
647.024	24.2
647.214	24.43
647.403	24.63
647.593	24.74
647.782	24.89
647.972	24.9
648.161	25.02
648.351	25.09
648.54	25.12
648.73	25.08
648.919	25.33
649.108	25.45
649.298	25.24
649.487	25.06
649.677	25.08
649.866	24.87
650.055	25.05
650.244	25.13
650.434	25.19
650.623	25.05
650.812	25.02
651.002	24.9
651.191	24.91
651.38	25.15
651.569	25.31
651.758	25.34
651.947	25.43
652.137	25.24
652.326	25.31
652.515	25.25
652.704	25.52
652.893	25.63
653.082	25.78
653.271	26.04
653.46	26.14
653.649	26.07
653.838	25.91
654.027	26.05
654.216	26.08
654.405	25.95
654.594	25.82
654.783	25.68
654.972	25.57
655.161	25.53
655.35	25.14
655.539	24.94
655.728	25
655.916	25.11
656.105	24.99
656.294	24.82
656.483	24.71
656.672	24.89
656.86	24.83
657.049	24.9
657.238	24.86
657.427	25.1
657.615	25.11
657.804	24.94
657.993	24.97
658.181	25.04
658.37	25.12
658.559	25.36
658.747	25.44
658.936	25.6
659.125	26.16
659.313	26.08
659.502	25.99
659.69	25.84
659.879	26.07
660.067	25.96
660.256	26.03
660.444	26.02
660.633	26.01
660.821	25.86
661.01	25.72
661.198	25.11
661.387	25.31
661.575	25.21
661.763	25.65
661.952	25.39
662.14	25.58
662.328	25.37
662.517	25.57
662.705	25.41
662.893	25.53
663.082	25.55
663.27	25.69
663.458	25.48
663.646	25.99
663.834	25.89
664.023	26.3
664.211	26.46
664.399	26.72
664.587	26.74
664.775	26.52
664.963	26.71
665.152	26.85
665.34	26.81
665.528	26.86
665.716	26.43
665.904	26.45
666.092	26.36
666.28	26.17
666.468	26.11
666.656	26.1
666.844	26.32
667.032	26.15
667.22	26.26
667.408	26.2
667.596	26.41
667.784	26.46
667.971	26.47
668.159	26.31
668.347	26.55
668.535	26.34
668.723	26.47
668.911	26.53
669.098	26.43
669.286	26.29
669.474	26.23
669.662	26.22
669.849	26.38
670.037	26.28
670.225	26.32
670.413	26.22
670.6	26.46
670.788	26.17
670.976	26.02
671.163	25.9
671.351	25.77
671.538	25.85
671.726	25.68
671.913	25.69
672.101	25.75
672.289	25.69
672.476	25.32
672.664	25.26
672.851	25.61
673.039	25.75
673.226	26.03
673.413	25.97
673.601	25.86
673.788	26.11
673.976	25.83
674.163	25.97
674.35	26.15
674.538	26.37
674.725	26.42
674.912	25.94
675.1	26.21
675.287	26.28
675.474	26.23
675.662	26.37
675.849	26.6
676.036	26.66
676.223	26.62
676.411	26.52
676.598	26.51
676.785	26.58
676.972	26.88
677.159	26.36
677.346	26.01
677.533	26.38
677.721	26.61
677.908	26.14
678.095	26.58
678.282	26.43
678.469	26.22
678.656	26.42
678.843	26.17
679.03	26.22
679.217	26.4
679.404	26.51
679.591	26.28
679.778	26.16
679.964	26.21
680.151	25.99
680.338	26.16
680.525	26.3
680.712	26.22
680.899	26.5
681.086	26.19
681.272	26.2
681.459	26.62
681.646	26.43
681.833	26.4
682.02	26.41
682.206	26.53
682.393	26.45
682.58	26.72
682.766	26.82
682.953	26.88
683.14	27.16
683.326	27.46
683.513	27.15
683.7	27.25
683.886	27.16
684.073	27.14
684.259	26.89
684.446	26.93
684.632	26.69
684.819	26.54
685.005	26.36
685.192	26.25
685.378	25.64
685.565	25.61
685.751	25.76
685.938	25.64
686.124	25.86
686.31	26.11
686.497	26.15
686.683	26.32
686.87	26.31
687.056	26.56
687.242	26.61
687.429	27.21
687.615	26.82
687.801	26.89
687.987	27.26
688.174	27.1
688.36	27.03
688.546	27.11
688.732	26.8
688.918	26.73
689.105	26.54
689.291	26.6
689.477	26.54
689.663	26.73
689.849	26.72
690.035	26.47
690.221	26.47
690.407	26.54
690.593	26.25
690.779	26.23
690.965	26.27
691.151	26.29
691.337	26.36
691.523	26.4
691.709	26.86
691.895	26.91
692.081	26.81
692.267	26.67
692.453	26.3
692.639	26.23
692.825	26.44
693.011	26.49
693.196	26.69
693.382	26.53
693.568	26.6
693.754	26.01
693.94	25.81
694.125	25.82
694.311	25.96
694.497	26.61
694.682	26.89
694.868	26.93
695.054	26.82
695.239	26.58
695.425	26.83
695.611	26.54
695.796	26.8
695.982	26.7
696.168	26.77
696.353	27.07
696.539	26.51
696.724	26.22
696.91	26.36
697.095	26.7
697.281	26.67
697.466	26.79
697.652	26.82
697.837	27.09
698.023	27.12
698.208	27.16
698.393	27.14
698.579	27.34
698.764	27.51
698.949	27.29
699.135	27.17
699.32	27.26
699.505	26.99
699.691	27.3
699.876	27.4
700.061	27.68
700.246	27.64
700.432	27.5
700.617	27.73
700.802	27.89
700.987	28.11
701.172	28.03
701.358	28.11
701.543	28.21
701.728	28.03
701.913	28.15
702.098	28.23
702.283	28.27
702.468	27.98
702.653	27.79
702.838	27.36
703.023	27.35
703.208	27.69
703.393	27.28
703.578	27.25
703.763	27.09
703.948	26.81
704.133	26.97
704.318	27.16
704.503	27.59
704.688	27.51
704.873	27.96
705.057	28.46
705.242	28.6
705.427	28.88
705.612	28.74
705.797	28.93
705.981	28.68
706.166	29
706.351	29.47
706.536	29.54
706.72	29.44
706.905	29.38
707.09	29.19
707.274	28.92
707.459	28.94
707.644	29.39
707.828	29.36
708.013	29.45
708.197	28.89
708.382	28.65
708.567	28.17
708.751	28.01
708.936	28.45
709.12	28.24
709.305	28.77
709.489	28.7
709.673	28.63
709.858	28.96
710.042	28.92
710.227	28.61
710.411	28.25
710.596	28.87
710.78	28.93
710.964	28.39
711.149	28.56
711.333	28.15
711.517	28.19
711.702	28.12
711.886	27.83
712.07	28.1
712.254	28.54
712.438	28.43
712.623	28.32
712.807	28.42
712.991	28.49
713.175	28.74
713.359	28.69
713.544	29.07
713.728	29.01
713.912	29.08
714.096	28.95
714.28	28.67
714.464	28.85
714.648	28.84
714.832	29.11
715.016	29.21
715.2	28.87
715.384	28.65
715.568	28.31
715.752	28.46
715.936	27.93
716.12	27.84
716.304	27.86
716.488	27.56
716.671	27.03
716.855	27.16
717.039	27.11
717.223	27.36
717.407	27.3
717.59	27.57
717.774	27.63
717.958	27.84
718.142	27.62
718.325	27.51
718.509	28.03
718.693	28.47
718.877	28.09
719.06	27.8
719.244	27.52
719.428	27.39
719.611	27.11
719.795	26.73
719.978	26.61
720.162	27.08
720.345	27.88
720.529	27.42
720.713	27.14
720.896	27.29
721.08	27.77
721.263	27.74
721.446	28.41
721.63	28.39
721.813	28.36
721.997	28.53
722.18	28.5
722.364	27.91
722.547	28.16
722.73	28.75
722.914	28.62
723.097	28.94
723.28	28.82
723.464	28.67
723.647	28.74
723.83	28.74
724.013	28.94
724.197	29.62
724.38	29.59
724.563	29.21
724.746	28.95
724.929	28.45
725.112	27.84
725.296	28.2
725.479	27.94
725.662	28.05
725.845	28.6
726.028	28.77
726.211	28.15
726.394	28.06
726.577	28.51
726.76	28.32
726.943	28.49
727.126	28.85
727.309	28.53
727.492	28.63
727.675	28.59
727.858	28.2
728.041	28.54
728.224	28.34
728.407	28.38
728.589	28.51
728.772	28.85
728.955	29.1
729.138	28.43
729.321	28.68
729.503	28.53
729.686	28.64
729.869	28.51
730.052	28.24
730.234	27.89
730.417	27.74
730.6	27.47
730.782	27.3
730.965	27.47
731.148	27.93
731.33	27.81
731.513	27.59
731.695	27.26
731.878	27.67
732.061	27.3
732.243	27.9
732.426	28.04
732.608	28.44
732.791	28.66
732.973	29.04
733.156	28.82
733.338	28.81
733.52	29.28
733.703	29.63
733.885	29.7
734.068	30.29
734.25	30.1
734.432	30.72
734.615	30.32
734.797	30.09
734.979	29.4
735.162	29.57
735.344	29.53
735.526	29.53
735.708	29.11
735.891	29.05
736.073	28.69
736.255	28.6
736.437	27.75
736.619	27.53
736.802	27.51
736.984	27.32
737.166	27.41
737.348	27.35
737.53	26.78
737.712	26.62
737.894	26.24
738.076	26.21
738.258	25.83
738.44	26.11
738.622	26.36
738.804	26.43
738.986	27.14
739.168	27.12
739.35	26.99
739.532	27.57
739.714	28.06
739.896	28.57
740.078	28.75
740.259	29.51
740.441	29.83
740.623	29.83
740.805	29.62
740.987	29.17
741.168	29.46
741.35	30.42
741.532	30.32
741.714	29.8
741.895	29.23
742.077	29.35
742.259	28.9
742.44	29
742.622	29.51
742.804	29.94
742.985	29.82
743.167	29.44
743.348	29.26
743.53	29.12
743.711	29.87
743.893	30.18
744.075	29.85
744.256	29.97
744.438	29.67
744.619	28.85
744.8	29.05
744.982	29.23
745.163	29.09
745.345	28.33
745.526	28.98
745.707	29.74
745.889	29.69
746.07	29
746.252	29.11
746.433	29.13
746.614	29.64
746.795	29.36
746.977	29.99
747.158	30.51
747.339	30.31
747.52	29.55
747.702	28.37
747.883	28.38
748.064	29.37
748.245	28.9
748.426	28.88
748.607	29.05
748.788	28.51
748.97	28.36
749.151	28.24
749.332	28.68
749.513	29.52
749.694	30.44
749.875	29.87
750.056	29.52
750.237	29.56
750.418	29.94
750.599	29.57
750.78	30.48
750.96	30.45
751.141	30.5
751.322	30.86
751.503	30.48
751.684	29.34
751.865	30.18
752.046	30.47
752.226	30.15
752.407	29.8
752.588	30.61
752.769	29.95
752.949	29.21
753.13	28.65
753.311	27.65
753.492	27.69
753.672	28.88
753.853	28.8
754.034	29.16
754.214	29.37
754.395	29.79
754.575	29.61
754.756	30.21
754.937	31.34
755.117	31.16
755.298	31.75
755.478	31.53
755.659	30.58
755.839	30.2
756.02	29.42
756.2	29.76
756.381	29.2
756.561	28.49
756.741	27.91
756.922	27.05
757.102	27.34
757.283	26.81
757.463	26.67
757.643	26.78
757.823	27.2
758.004	26.76
758.184	26.51
758.364	26.83
758.545	27.41
758.725	26.7
758.905	26.58
759.085	26.73
759.265	26.36
759.446	26.92
759.626	27.01
759.806	27.27
759.986	27.92
760.166	27.56
760.346	27.46
760.526	26.94
760.706	27.77
760.886	28.59
761.066	28.43
761.246	29.59
761.426	29.13
761.606	29.01
761.786	28.81
761.966	28.45
762.146	28.94
762.326	29.3
762.506	29.14
762.686	28.96
762.866	28.48
763.046	28.64
763.225	28.45
763.405	28.39
763.585	28.58
763.765	28.17
763.945	28.47
764.124	28.45
764.304	28.4
764.484	29
764.664	29.6
764.843	29.45
765.023	29.48
765.203	29.07
765.382	29.35
765.562	28.82
765.741	28.84
765.921	28.56
766.101	28.73
766.28	28.37
766.46	28.4
766.639	27.57
766.819	28.12
766.998	27.58
767.178	27.91
767.357	28.01
767.537	28.7
767.716	28.88
767.896	28.94
768.075	28.68
768.254	28.29
768.434	27.01
768.613	27.46
768.792	26.8
768.972	27.72
769.151	28.22
769.33	28.23
769.51	28.27
769.689	27.88
769.868	28.12
770.047	28.75
770.226	29.53
770.406	29.76
770.585	29.28
770.764	29.45
770.943	29.52
771.122	28.63
771.301	28.81
771.48	28.65
771.66	29.48
771.839	29.05
772.018	27.96
772.197	26.9
772.376	27.92
772.555	28.81
772.734	28.89
772.913	28.44
773.092	28.84
773.271	28.27
773.449	28.22
773.628	27.66
773.807	27.52
773.986	28.27
774.165	29.08
774.344	29.09
774.523	28.25
774.701	28.32
774.88	28.57
775.059	28.39
775.238	29.09
775.417	29.21
775.595	30.09
775.774	31.43
775.953	31.05
776.131	30.88
776.31	29.98
776.489	30.5
776.667	30.49
776.846	30.45
777.025	31.03
777.203	30.06
777.382	30.15
777.56	29.79
777.739	28.88
777.917	29.19
778.096	28.56
778.274	29.49
778.453	28.98
778.631	28.77
778.81	29.12
778.988	29.27
779.166	30.34
779.345	30.27
779.523	29.58
779.702	30.14
779.88	30.51
780.058	31.71
780.237	32.15
780.415	31.96
780.593	33.59
780.771	32.58
780.95	32.57
781.128	31.63
781.306	30.38
781.484	31.74
781.662	31.17
781.841	30
782.019	29.35
782.197	28.28
782.375	28.69
782.553	26.26
782.731	26.08
782.909	26.25
783.087	27.08
783.265	26.94
783.443	26.31
783.621	27.49
783.799	28.56
783.977	29.31
784.155	29.38
784.333	29.83
784.511	30.53
784.689	30.64
784.867	29.91
785.045	29
785.223	30.5
785.4	30.02
785.578	29.23
785.756	28.66
785.934	28.34
786.112	29.3
786.289	28.62
786.467	28.34
786.645	29.5
786.823	29.98
787	30.27
787.178	30.32
787.356	30.25
787.533	30.62
787.711	30.63
787.889	29.74
788.066	27.53
788.244	27.83
788.421	28.97
788.599	28.45
788.776	27.78
788.954	27.33
789.131	27.35
789.309	27.59
789.486	27.79
789.664	27.81
789.841	28.52
790.019	29.8
790.196	30.25
790.373	29.86
790.551	30.27
790.728	30.54
790.906	30.91
791.083	31.26
791.26	30.7
791.437	29.74
791.615	30.56
791.792	31.26
791.969	31.9
792.146	31.3
792.324	30.78
792.501	30.39
792.678	30.65
792.855	30.02
793.032	29.52
793.209	31.22
793.387	31.66
793.564	31.43
793.741	30.53
793.918	29.95
794.095	29.98
794.272	30.4
794.449	30.83
794.626	29.8
794.803	31.8
794.98	31.88
795.157	31.38
795.334	31.53
795.511	31.4
795.688	31.35
795.864	31.89
796.041	32.19
796.218	32.44
796.395	32.8
796.572	33.91
796.749	31.88
796.925	31.31
797.102	30.82
797.279	30.77
797.456	30.03
797.632	29.74
797.809	28.89
797.986	27.99
798.162	26.99
798.339	25.37
798.516	25.78
798.692	27.04
798.869	27.68
799.046	27.45
799.222	27.1
799.399	26.61
799.575	26.51
799.752	26.78
799.928	27.76
800.105	28.14
800.281	28.68
800.458	28.16
800.634	28.15
800.811	29.27
800.987	29.88
801.163	29.37
801.34	30.73
801.516	31.37
801.692	31.55
801.869	30.97
802.045	31.19
802.221	31.9
802.398	30.6
802.574	29.9
802.75	29.95
802.926	30.45
803.103	30.46
803.279	30.35
803.455	30.27
803.631	30.76
803.807	31.03
803.983	31.8
804.16	31.27
804.336	32.68
804.512	31.44
804.688	30.06
804.864	29.61
805.04	29.68
805.216	30.93
805.392	29.61
805.568	28.44
805.744	28.89
805.92	27.59
806.096	29.27
806.272	27.85
806.448	28.6
806.623	28.06
806.799	27.3
806.975	28.28
807.151	27.2
807.327	28.82
807.503	29.35
807.678	29.6
807.854	31.11
808.03	29.16
808.206	30.52
808.381	32.17
808.557	32.13
808.733	31.45
808.908	30.07
809.084	28.14
809.26	27.37
809.435	27.05
809.611	26.76
809.787	25.65
809.962	25.98
810.138	24.82
810.313	24.26
810.489	24.49
810.664	25.33
810.84	27.64
811.015	30.11
811.191	31.02
811.366	31.02
811.542	30.95
811.717	32.55
811.892	32.82
812.068	33.44
812.243	32.92
812.419	32.94
812.594	32.54
812.769	29.84
812.944	30.22
813.12	29.84
813.295	29.97
813.47	28.64
813.645	26.06
813.821	26.98
813.996	27.2
814.171	26.82
814.346	26.91
814.521	27.68
814.697	28.85
814.872	26.73
815.047	25.96
815.222	26.02
815.397	27.2
815.572	26.47
815.747	25.86
815.922	25.68
816.097	26.39
816.272	27.28
816.447	28.22
816.622	28.6
816.797	29.49
816.972	30.49
817.147	31.92
817.322	32.72
817.496	33.47
817.671	33.63
817.846	34.47
818.021	33.76
818.196	33.55
818.371	32.95
818.545	33.92
818.72	33.45
818.895	32.65
819.069	31.43
819.244	30.08
819.419	31.02
819.594	31.1
819.768	31.17
819.943	31.52
820.117	30.6
820.292	29.34
820.467	28.55
820.641	28.56
820.816	27.94
820.99	27.53
821.165	27.23
821.339	26.82
821.514	26.41
821.688	25.84
821.863	25.79
822.037	25.7
822.212	25.88
822.386	25.69
822.56	25.55
822.735	25.94
822.909	26.05
823.084	26.35
823.258	26.37
823.432	26.64
823.606	26.75
823.781	27.02
823.955	27.28
824.129	27.4
824.303	27.66
824.478	27.91
824.652	27.46
824.826	27.5
825	27.23
825.174	27.3
825.348	26.83
825.523	26.89
825.697	26.28
825.871	26.12
826.045	26.27
826.219	26.45
826.393	26.23
826.567	26.87
826.741	27.01
826.915	27.27
827.089	27.25
827.263	27.16
827.437	26.85
827.611	26.6
827.784	26.51
827.958	26.68
828.132	26.34
828.306	26.6
828.48	26.66
828.654	26.66
828.827	26.76
829.001	26.43
829.175	27.46
829.349	28.45
829.522	28.99
829.696	29.46
829.87	29.16
830.044	28.91
830.217	29.29
830.391	28.43
830.565	28.12
830.738	27.51
830.912	27.74
831.085	27.99
831.259	27.96
831.432	28.51
831.606	29.2
831.779	29.13
831.953	30.54
832.126	29.2
832.3	28.94
832.473	28.22
832.647	29.3
832.82	29.56
832.994	27.42
833.167	26.69
833.34	27.07
833.514	26.15
833.687	26.16
833.86	25.91
834.034	26.04
834.207	26.44
834.38	26.93
834.553	26
834.727	26.46
834.9	26.82
835.073	27.14
835.246	26.69
835.419	26.7
835.593	27.08
835.766	26.78
835.939	27.09
836.112	27.9
836.285	27.74
836.458	30.52
836.631	30.46
836.804	31.43
836.977	31.55
837.15	31.47
837.323	31.6
837.496	31.37
837.669	32.13
837.842	33.09
838.015	30.86
838.188	30.17
838.361	25.87
838.533	24.65
838.706	24.05
838.879	23.81
839.052	23.61
839.225	25.37
839.398	23.72
839.57	21.82
839.743	21.02
839.916	24.21
840.088	21.89
840.261	23.68
840.434	24.69
840.607	24.34
840.779	24.48
840.952	23.88
841.124	24.12
841.297	25.57
841.47	26.68
841.642	26.78
841.815	25.36
841.987	28.6
842.16	29.52
842.332	28.76
842.505	27.59
842.677	28.18
842.85	29.4
843.022	28.33
843.194	28.33
843.367	28.39
843.539	27.17
843.712	27.04
843.884	27.16
844.056	27.15
844.229	25.48
844.401	28.79
844.573	28.01
844.745	27.59
844.918	25.58
845.09	25.71
845.262	25.94
845.434	25.27
845.606	25.95
845.779	27.68
845.951	22.39
846.123	26.83
846.295	27.12
846.467	31.21
846.639	32.34
846.811	35.28
846.983	35.55
847.155	37.7
847.327	40.04
847.499	38.28
847.671	38.81
847.843	40.27
848.015	41.3
848.187	38.88
848.359	38.42
848.531	38.61
848.703	38.98
848.875	37.68
849.047	40.04
849.218	40.63
849.39	39.25
849.562	38.19
849.734	38.68
849.905	35.16
850.077	39.68
850.249	39.28
850.421	39.24
850.592	37.84
850.764	39.1
850.936	31.77
851.107	33.14
851.279	33.17
851.451	36.23
851.622	41.64
851.794	41.27
851.965	40.22
852.137	35.06
852.308	36.12
852.48	35.67
852.651	35.34
852.823	39.86
852.994	34.37
853.166	37.2
853.337	34.24
853.509	28.57
853.68	29.6
853.851	26.78
854.023	27.32
854.194	29.11
854.365	30.93
854.537	28.1
854.708	26.7
854.879	27.54
855.05	25.86
855.222	25.01
855.393	26.93
855.564	23.83
855.735	26.46
855.906	28.33
856.078	24.48
856.249	22.16
856.42	27.42
856.591	28.99
856.762	33.31
856.933	29.85
857.104	30.38
857.275	33.64
857.446	35.87
857.617	31.37
857.788	33.17
857.959	34.79
858.13	34.53
858.301	31.97
858.472	27.18
858.643	26.12
858.814	30.43
858.985	33.65
859.155	31.88
859.326	30.43
859.497	38.21
859.668	33.77
859.839	34.16
860.009	34.73
860.18	37.17
860.351	38.86
860.522	39.38
860.692	33.92
860.863	29.83
861.034	25.54
861.204	26.79
861.375	21.18
861.546	26.07
861.716	21.84
861.887	22.48
862.057	22.14
862.228	20.25
862.398	19.87
862.569	21.52
862.739	23.43
862.91	28.06
863.08	32.47
863.251	36.45
863.421	35.54
863.592	38.07
863.762	35.17
863.932	32.85
864.103	34.06
864.273	36.07
864.443	40.8
864.614	42.63
864.784	40.58
864.954	38.42
865.125	35.16
865.295	34
865.465	32.24
865.635	32.16
865.805	33.43
865.976	33.71
866.146	30.19
866.316	26.14
866.486	24.61
866.656	23.24
866.826	19.55
866.996	21.1
867.166	20.53
867.336	23.39
867.506	24.97
867.676	22.96
867.846	21.85
868.016	22.22
868.186	20.58
868.356	17.51
868.526	19.51
868.696	22.25
868.866	20.49
869.036	23.26
869.206	25.56
869.376	21.37
869.545	24.4
869.715	25.82
869.885	24.35
870.055	27.8
870.224	31.16
870.394	30.48
870.564	26.59
870.734	27.6
870.903	25.41
871.073	19.05
871.243	23.22
871.412	25.32
871.582	28.19
871.751	33.58
871.921	34.25
872.091	30.79
872.26	30.86
872.43	33.83
872.599	34.13
872.769	32.43
872.938	32.85
873.108	35.58
873.277	28.82
873.446	23.81
873.616	22.27
873.785	21.65
873.955	24.77
874.124	24.61
874.293	23.87
874.463	25.3
874.632	26.38
874.801	26.41
874.971	25.71
875.14	32.83
875.309	33.46
875.478	33.02
875.647	31.53
875.817	26.88
875.986	25.17
876.155	24.45
876.324	20.72
876.493	24
876.662	24.19
876.831	19.63
877	14.1
877.17	15.3
877.339	16.44
877.508	16.65
877.677	19.45
877.846	20.6
878.015	20.51
878.184	20.97
878.352	18.46
878.521	20.48
878.69	22.75
878.859	24.77
879.028	23.82
879.197	21.57
879.366	23.66
879.534	22.56
879.703	25.66
879.872	26.44
880.041	25.16
880.21	26.93
880.378	25.94
880.547	24.27
880.716	24.36
880.884	25.54
881.053	25.37
881.222	25.16
881.39	25.56
881.559	24.73
881.727	24.62
881.896	25.08
882.065	24.11
882.233	24.64
882.402	25.48
882.57	25.1
882.739	24.8
882.907	25.04
883.076	24.88
883.244	24.81
883.412	24.31
883.581	24.45
883.749	24.17
883.918	24.66
884.086	23.72
884.254	23.23
884.423	23.7
884.591	23.74
884.759	23.72
884.927	23.39
885.096	22.53
885.264	23.94
885.432	24.22
885.6	25.41
885.769	25.92
885.937	26.24
886.105	27.99
886.273	29.07
886.441	28.5
886.609	28.86
886.777	30.7
886.945	31.93
887.113	31.82
887.281	30.16
887.449	28.74
887.617	31.31
887.785	31.72
887.953	32.35
888.121	31.65
888.289	32.76
888.457	31.52
888.625	30.6
888.793	30.36
888.961	31.81
889.129	32.24
889.296	28.05
889.464	22.7
889.632	22.83
889.8	17.7
889.967	15.49
890.135	14.33
