Data from 2938759__Reflection_07.txt Node
Date: Fri Mar 13 18:40:47 EDT 2015
User: robert
Spectrometer: USB4E03002
Autoset integration time: false
Trigger mode: 4
Integration Time (sec): 1.000000E-1
Scans to average: 10
Electric dark correction enabled: false
Nonlinearity correction enabled: false
Boxcar width: 5
Stray light correction enabled: false
XAxis mode: Wavelengths
Stop averaging: false
Number of Pixels in Spectrum: 3648
>>>>>Begin Spectral Data<<<<<
177.575	-106.82
177.794	-1807.14
178.014	-104.31
178.233	-202.7
178.452	37400
178.672	236.99
178.891	219.35
179.11	186.52
179.33	84.55
179.549	222.89
179.768	120.91
179.987	152.69
180.207	181.82
180.426	85.28
180.645	508.33
180.864	83.81
181.084	35.78
181.303	15.63
181.522	-11.21
181.741	-1.26
181.96	42.98
182.179	30.04
182.398	28.44
182.618	22.32
182.837	-22.98
183.056	33.05
183.275	-34.24
183.494	-11.86
183.713	-415.87
183.932	-462.5
184.151	29000
184.37	191.44
184.589	168.71
184.808	161.98
185.027	137.01
185.246	111.57
185.465	164.11
185.684	185.3
185.903	165.81
186.122	390.99
186.341	208.53
186.56	-461.54
186.779	42.62
186.998	62.38
187.216	86.87
187.435	76.66
187.654	58.78
187.873	54.46
188.092	77.86
188.311	95.7
188.53	100.34
188.748	75.18
188.967	69.77
189.186	114.01
189.405	-53.59
189.623	19.39
189.842	12.64
190.061	-23.16
190.28	17.92
190.498	-0
190.717	35.92
190.936	41.39
191.154	82.25
191.373	88.18
191.592	140.33
191.81	-2962.5
192.029	-932.5
192.248	-269.43
192.466	-166.8
192.685	-127.59
192.904	-316.57
193.122	-1131.91
193.341	-1002.63
193.559	-907.69
193.778	3536.36
193.996	176.32
194.215	91.21
194.433	196.26
194.652	-2.78
194.87	-575
195.089	-100
195.307	364.52
195.526	90.28
195.744	37.29
195.963	30.77
196.181	41.65
196.399	21.33
196.618	39.86
196.836	71.17
197.055	28.75
197.273	0
197.491	-7.76
197.71	1.83
197.928	3.8
198.146	25.64
198.365	115.15
198.583	187.5
198.801	53.06
199.019	-32.85
199.238	-71.16
199.456	-33.91
199.674	9.56
199.892	25.45
200.111	26.48
200.329	-2.78
200.547	-95.94
200.765	-35.17
200.983	-49.16
201.202	-38.14
201.42	-33.43
201.638	-50.5
201.856	-11.47
202.074	-7.5
202.292	-61.86
202.51	-53.98
202.728	-54.42
202.946	1.91
203.165	15.47
203.383	-59.79
203.601	-172.83
203.819	-5.63
204.037	-14.29
204.255	1.71
204.473	-46.44
204.691	-22.3
204.909	-10.44
205.127	-8.99
205.345	-24.4
205.562	-27.45
205.78	-49.28
205.998	7.66
206.216	-3.56
206.434	17.37
206.652	-1.65
206.87	8.21
207.088	18.32
207.306	17.05
207.523	27.89
207.741	48.01
207.959	50.22
208.177	43.21
208.395	39.09
208.612	19.74
208.83	13.04
209.048	22
209.266	35.05
209.483	26
209.701	22.66
209.919	27.83
210.136	30.13
210.354	30.68
210.572	38.02
210.79	45.21
211.007	58.13
211.225	32.61
211.442	15.57
211.66	26.49
211.878	22.41
212.095	-90.57
212.313	-219.19
212.53	-150.8
212.748	-198.64
212.966	-168.41
213.183	-196.75
213.401	-134.85
213.618	-125.54
213.836	-234.17
214.053	-518.72
214.271	-347.83
214.488	-54.24
214.705	-26.48
214.923	-1.96
215.14	14.11
215.358	28.86
215.575	27.72
215.793	23.75
216.01	39.56
216.227	35.67
216.445	43.15
216.662	49.03
216.879	54.26
217.097	64.82
217.314	35.22
217.531	27.58
217.749	5.64
217.966	0.68
218.183	16.78
218.4	-1.26
218.618	16.57
218.835	13.65
219.052	1.72
219.269	-2.86
219.487	-11.67
219.704	5.14
219.921	9.51
220.138	13.84
220.355	6.29
220.572	9.24
220.79	10.95
221.007	-1.57
221.224	-15.76
221.441	-7.76
221.658	-1.9
221.875	-8.34
222.092	2.59
222.309	4.52
222.526	-6.71
222.743	-5.27
222.96	-14.57
223.177	-11.81
223.394	-11.59
223.611	-5.29
223.828	-3.77
224.045	-11.66
224.262	-6.08
224.479	-12.65
224.696	-12.9
224.913	-8.02
225.13	-1.98
225.347	-0.07
225.564	-1.07
225.781	2.49
225.997	4.4
226.214	4.67
226.431	5.75
226.648	4.93
226.865	3.73
227.082	2.28
227.298	4.61
227.515	3.64
227.732	2.91
227.949	2.67
228.165	3.14
228.382	3.16
228.599	3
228.816	2.61
229.032	2.68
229.249	1.93
229.466	3.08
229.682	3.41
229.899	3.98
230.116	4.84
230.332	4.56
230.549	5.17
230.765	4.18
230.982	3.87
231.199	4.73
231.415	4.59
231.632	5.83
231.848	5.79
232.065	3.28
232.281	3.18
232.498	2.18
232.714	3.52
232.931	2.05
233.147	3.23
233.364	3.11
233.58	1.71
233.797	0.62
234.013	-0.41
234.23	-2.33
234.446	-0.28
234.662	-1.57
234.879	-1.36
235.095	-0.06
235.312	-1.97
235.528	-2.96
235.744	-4.97
235.961	-4.14
236.177	-2.3
236.393	0.12
236.61	0.42
236.826	-0.7
237.042	0.97
237.258	0.78
237.475	-0.47
237.691	-0.27
237.907	-0.03
238.123	2.8
238.339	2.04
238.556	1.32
238.772	-0.42
238.988	0.14
239.204	1.52
239.42	0.19
239.636	1.62
239.853	2.57
240.069	3.6
240.285	4.31
240.501	3.96
240.717	3.13
240.933	3.87
241.149	4.35
241.365	4
241.581	3.55
241.797	3.15
242.013	2.48
242.229	2.17
242.445	2.06
242.661	1.65
242.877	1.49
243.093	1.87
243.309	1.18
243.525	0.84
243.741	0.72
243.957	0.53
244.173	1.34
244.388	1.69
244.604	1.49
244.82	1.62
245.036	1.83
245.252	1.5
245.468	2.4
245.683	2.8
245.899	2.89
246.115	2.59
246.331	2.33
246.547	2.39
246.762	2.23
246.978	2.19
247.194	2.02
247.409	1.98
247.625	1.93
247.841	1.5
248.057	1.06
248.272	1.01
248.488	1.1
248.703	1.21
248.919	0.68
249.135	0.68
249.35	0.62
249.566	0.6
249.782	0.4
249.997	1.15
250.213	1.53
250.428	1.55
250.644	1.17
250.859	1.37
251.075	1.48
251.29	1.88
251.506	1.47
251.721	1.41
251.937	1.62
252.152	1.55
252.368	0.9
252.583	1.06
252.798	1.44
253.014	2.14
253.229	2.59
253.445	2.09
253.66	2.03
253.875	2.09
254.091	3.07
254.306	3.27
254.521	3.28
254.737	3.88
254.952	2.97
255.167	3.71
255.383	3.01
255.598	2.64
255.813	2.35
256.028	1.18
256.244	1.4
256.459	0.34
256.674	-0.31
256.889	0.5
257.104	0.21
257.32	0.63
257.535	-0.07
257.75	0.37
257.965	0.37
258.18	0.54
258.395	0.73
258.61	0.53
258.826	0.29
259.041	0.26
259.256	-0.05
259.471	0.07
259.686	-0.14
259.901	0.08
260.116	0
260.331	-0.07
260.546	0.3
260.761	0.43
260.976	0.64
261.191	0.79
261.406	1.11
261.621	1.41
261.836	1.23
262.05	1.72
262.265	1.26
262.48	1.27
262.695	1.2
262.91	0.77
263.125	1.1
263.34	0.73
263.555	1.19
263.769	0.46
263.984	0.24
264.199	0.46
264.414	0.82
264.629	1.51
264.843	1.14
265.058	1.23
265.273	1.83
265.488	1.42
265.702	1.15
265.917	0.55
266.132	0.98
266.346	0.88
266.561	1.08
266.776	0.66
266.99	0.82
267.205	0.81
267.42	0.65
267.634	0.42
267.849	0.54
268.063	1.01
268.278	1.38
268.492	0.91
268.707	1.11
268.922	0.92
269.136	0.81
269.351	0.69
269.565	0.71
269.78	0.51
269.994	0.65
270.209	0.57
270.423	0.15
270.637	-0.11
270.852	0.29
271.066	0.12
271.281	0.18
271.495	0.06
271.709	-0.11
271.924	-0.14
272.138	0.39
272.353	0.29
272.567	0.08
272.781	0.05
272.996	0.04
273.21	-0.21
273.424	0.03
273.638	-0.24
273.853	0.17
274.067	0.43
274.281	0.18
274.495	0.08
274.71	-0.07
274.924	0.37
275.138	1
275.352	1.28
275.566	1.62
275.781	1.58
275.995	1.82
276.209	1.64
276.423	1.1
276.637	1.68
276.851	1.56
277.065	1.36
277.279	0.9
277.493	0.83
277.707	0.18
277.921	-0.14
278.135	-0.28
278.349	-0.13
278.563	0.25
278.777	0.8
278.991	0.34
279.205	0.15
279.419	-0.03
279.633	0.68
279.847	0.1
280.061	0.43
280.275	0.8
280.489	0.89
280.703	0.82
280.917	0.51
281.131	0.38
281.344	0.46
281.558	0.5
281.772	0.54
281.986	0.47
282.2	0.62
282.414	0.9
282.627	0.92
282.841	0.85
283.055	0.47
283.269	0.2
283.482	-0.11
283.696	0.15
283.91	-0.33
284.123	-0.07
284.337	-0.14
284.551	0.1
284.764	-0.11
284.978	-0.25
285.192	-0.74
285.405	-0.32
285.619	0.01
285.833	0.53
286.046	0.76
286.26	1.14
286.473	1.11
286.687	0.81
286.9	0.6
287.114	0.86
287.327	1.01
287.541	1.71
287.754	1.63
287.968	1.53
288.181	1.31
288.395	0.83
288.608	0.91
288.822	1.04
289.035	1.03
289.248	0.8
289.462	0.53
289.675	0.1
289.889	-0.07
290.102	-0.1
290.315	-0.06
290.529	-0.31
290.742	-0.19
290.955	0.01
291.169	0.07
291.382	0.28
291.595	0.78
291.808	0.68
292.022	0.58
292.235	0.41
292.448	0.75
292.661	0.44
292.875	0.82
293.088	0.89
293.301	0.68
293.514	0.66
293.727	0.75
293.94	0.52
294.153	0.98
294.367	0.99
294.58	1.25
294.793	0.88
295.006	1
295.219	0.75
295.432	0.62
295.645	0.45
295.858	0.14
296.071	0.06
296.284	0.43
296.497	0.26
296.71	0.45
296.923	0.59
297.136	0.71
297.349	0.65
297.562	0.73
297.775	0.86
297.988	1.14
298.201	1.47
298.414	1.62
298.626	1.51
298.839	1.47
299.052	1.77
299.265	1.44
299.478	1.43
299.691	1.55
299.903	1.33
300.116	1.28
300.329	1
300.542	0.67
300.755	0.47
300.967	0.57
301.18	0.66
301.393	0.33
301.605	0.19
301.818	0.05
302.031	0.12
302.243	0.33
302.456	0.1
302.669	-0.38
302.881	-0.3
303.094	-0.35
303.307	-0.44
303.519	-0.57
303.732	-0.47
303.944	-0.26
304.157	-0.05
304.37	-0.06
304.582	-0.02
304.795	-0.04
305.007	0.85
305.22	1.07
305.432	1.35
305.645	1.05
305.857	1.11
306.069	1.4
306.282	1.13
306.494	1.05
306.707	1.02
306.919	1.51
307.132	1.75
307.344	1.65
307.556	1.36
307.769	1.44
307.981	1.53
308.193	1.72
308.406	1.56
308.618	2.04
308.83	1.8
309.043	1.98
309.255	1.84
309.467	1.53
309.679	1.27
309.892	1.44
310.104	1.15
310.316	1.16
310.528	1.18
310.74	1.15
310.953	1.02
311.165	1.12
311.377	1.09
311.589	0.89
311.801	1.17
312.013	1.18
312.225	1.1
312.437	1.13
312.649	0.88
312.862	0.95
313.074	0.78
313.286	0.84
313.498	1.03
313.71	1.15
313.922	1.57
314.134	1.7
314.346	2.14
314.558	2.38
314.77	2.56
314.982	2.82
315.193	2.64
315.405	2.67
315.617	3.04
315.829	3.17
316.041	3.7
316.253	3.36
316.465	3.19
316.677	2.86
316.888	2.34
317.1	2.26
317.312	3.03
317.524	2.68
317.736	2.82
317.947	2.47
318.159	2.19
318.371	1.48
318.583	1.29
318.794	1.66
319.006	2.37
319.218	2.67
319.43	3.12
319.641	2.61
319.853	2.76
320.064	3.28
320.276	3.33
320.488	3.58
320.699	3.35
320.911	3.42
321.123	3.72
321.334	3
321.546	3.2
321.757	2.97
321.969	3.06
322.18	3.87
322.392	3.71
322.603	3.74
322.815	3.97
323.026	4.34
323.238	4.92
323.449	4.55
323.661	4.34
323.872	4.38
324.083	4.57
324.295	4.68
324.506	4.39
324.718	4.69
324.929	4.94
325.14	4.99
325.352	5.11
325.563	4.9
325.774	5.36
325.986	5.86
326.197	5.98
326.408	6.34
326.62	6.56
326.831	6.79
327.042	6.73
327.253	6.72
327.464	7.28
327.676	7.52
327.887	7.8
328.098	7.75
328.309	8.21
328.52	8.51
328.732	8.64
328.943	8.49
329.154	8.78
329.365	8.93
329.576	9.75
329.787	9.87
329.998	10.01
330.209	10.18
330.42	10.88
330.631	10.54
330.842	11.13
331.053	11.28
331.264	11.94
331.475	12.32
331.686	12.96
331.897	12.81
332.108	12.96
332.319	13.45
332.53	13.91
332.741	13.64
332.952	14.02
333.163	13.87
333.374	14.29
333.585	14.34
333.795	14.49
334.006	13.98
334.217	14.32
334.428	14.35
334.639	14.58
334.849	14.81
335.06	15.25
335.271	15.51
335.482	15.8
335.692	15.69
335.903	15.95
336.114	16.17
336.325	16.48
336.535	16.49
336.746	16.6
336.957	16.46
337.167	16.29
337.378	16.37
337.589	16.66
337.799	16.26
338.01	16.3
338.22	16.05
338.431	15.96
338.642	16.62
338.852	16.78
339.063	16.83
339.273	17.1
339.484	17.47
339.694	17.45
339.905	17.36
340.115	17.78
340.326	17.92
340.536	18.26
340.746	18.05
340.957	17.88
341.167	17.66
341.378	17.68
341.588	17.39
341.799	17.09
342.009	16.95
342.219	16.89
342.43	16.97
342.64	16.94
342.85	16.72
343.061	16.8
343.271	16.49
343.481	16.57
343.691	16.69
343.902	16.91
344.112	16.98
344.322	17.22
344.532	17.1
344.743	17.06
344.953	17.17
345.163	17.5
345.373	17.64
345.583	17.8
345.793	17.75
346.004	17.44
346.214	17.39
346.424	17.46
346.634	17.49
346.844	17.67
347.054	17.57
347.264	17.45
347.474	17.65
347.684	17.6
347.894	17.6
348.104	17.82
348.314	17.8
348.524	17.6
348.734	17.77
348.944	17.53
349.154	17.72
349.364	17.79
349.574	17.67
349.784	17.34
349.994	17.32
350.204	17.29
350.413	17.18
350.623	17.34
350.833	17.27
351.043	17.2
351.253	17.5
351.463	17.27
351.672	17.23
351.882	17.24
352.092	17.27
352.302	17.1
352.511	17.19
352.721	17.31
352.931	17.2
353.141	17.39
353.35	17.18
353.56	16.93
353.77	16.87
353.979	16.9
354.189	16.58
354.399	16.58
354.608	16.59
354.818	16.21
355.027	15.9
355.237	15.85
355.447	15.59
355.656	15.68
355.866	15.59
356.075	15.56
356.285	15.73
356.494	15.76
356.704	15.79
356.913	15.9
357.123	16.06
357.332	16.11
357.542	16.14
357.751	16.34
357.96	16.29
358.17	16.24
358.379	16.37
358.589	16.01
358.798	16.31
359.007	16.14
359.217	16.17
359.426	16.17
359.635	16.13
359.845	16.31
360.054	16.1
360.263	16.03
360.472	15.82
360.682	15.49
360.891	15.49
361.1	15.44
361.309	15.37
361.519	15.19
361.728	15.13
361.937	14.95
362.146	14.8
362.355	14.8
362.564	14.78
362.774	14.95
362.983	15
363.192	14.99
363.401	14.83
363.61	14.81
363.819	15.02
364.028	15.31
364.237	15.45
364.446	15.38
364.655	15.5
364.864	15.49
365.073	15.63
365.282	15.99
365.491	16.09
365.7	16.4
365.909	16.46
366.118	16.46
366.327	16.36
366.536	16.53
366.745	16.79
366.954	17
367.162	16.93
367.371	16.88
367.58	16.4
367.789	16.5
367.998	16.28
368.207	16.49
368.415	16.41
368.624	16.31
368.833	16.25
369.042	16.2
369.25	16.07
369.459	16.18
369.668	16.12
369.877	16.46
370.085	16.37
370.294	16.45
370.503	16.38
370.711	16.34
370.92	16.39
371.129	16.27
371.337	16.26
371.546	16.3
371.754	16.09
371.963	16.11
372.171	15.93
372.38	16.09
372.589	16.08
372.797	15.72
373.006	15.86
373.214	15.69
373.423	15.97
373.631	16.16
373.84	15.92
374.048	15.94
374.256	15.99
374.465	16.09
374.673	16.07
374.882	15.9
375.09	16.36
375.298	16.33
375.507	16.39
375.715	16.12
375.923	15.94
376.132	15.91
376.34	16.05
376.548	15.92
376.757	15.92
376.965	15.73
377.173	15.79
377.381	15.71
377.59	15.57
377.798	15.56
378.006	15.64
378.214	15.48
378.423	15.53
378.631	15.68
378.839	15.85
379.047	15.83
379.255	15.75
379.463	15.88
379.671	15.75
379.879	15.76
380.088	15.71
380.296	15.56
380.504	15.57
380.712	15.44
380.92	15.19
381.128	15.07
381.336	14.99
381.544	15.28
381.752	15.09
381.96	15.06
382.168	15.3
382.376	15.44
382.584	15.64
382.791	15.6
382.999	15.99
383.207	16.11
383.415	15.85
383.623	15.96
383.831	15.9
384.039	16.07
384.247	16.23
384.454	16.13
384.662	15.94
384.87	15.87
385.078	15.83
385.285	15.62
385.493	15.69
385.701	15.71
385.909	15.78
386.116	15.78
386.324	15.94
386.532	15.91
386.739	15.81
386.947	15.91
387.155	15.83
387.362	15.8
387.57	15.82
387.778	15.82
387.985	15.95
388.193	15.9
388.4	15.86
388.608	15.62
388.816	15.38
389.023	15.49
389.231	15.51
389.438	15.63
389.646	15.92
389.853	15.95
390.061	15.75
390.268	15.78
390.475	15.77
390.683	15.84
390.89	15.78
391.098	15.69
391.305	15.56
391.512	15.59
391.72	15.61
391.927	15.53
392.135	15.3
392.342	15.31
392.549	15.32
392.756	15.31
392.964	15.33
393.171	15.5
393.378	15.57
393.586	15.62
393.793	15.63
394	15.77
394.207	15.64
394.414	15.76
394.622	15.79
394.829	15.82
395.036	15.81
395.243	15.95
395.45	15.96
395.657	16.09
395.864	15.97
396.072	15.64
396.279	15.48
396.486	15.43
396.693	15.5
396.9	15.47
397.107	15.46
397.314	15.46
397.521	15.22
397.728	15.12
397.935	15.16
398.142	15.17
398.349	15.51
398.556	15.37
398.763	15.5
398.97	15.4
399.177	15.52
399.383	15.66
399.59	15.82
399.797	15.95
400.004	15.87
400.211	15.79
400.418	15.82
400.625	15.89
400.831	16.05
401.038	16.01
401.245	16.07
401.452	16.09
401.658	15.9
401.865	15.78
402.072	15.59
402.279	15.57
402.485	15.55
402.692	15.59
402.899	15.67
403.105	15.74
403.312	15.71
403.519	15.78
403.725	15.68
403.932	15.78
404.138	15.79
404.345	15.87
404.552	15.91
404.758	15.91
404.965	16.16
405.171	15.96
405.378	15.83
405.584	15.95
405.791	15.94
405.997	15.91
406.204	15.78
406.41	15.82
406.617	15.91
406.823	15.87
407.029	16.02
407.236	15.82
407.442	15.8
407.649	16
407.855	15.95
408.061	15.81
408.268	16.02
408.474	16.07
408.68	16.19
408.887	16.05
409.093	16.24
409.299	16.34
409.505	16.31
409.712	16.35
409.918	16.33
410.124	16.21
410.33	16.36
410.537	16.48
410.743	16.64
410.949	16.53
411.155	16.59
411.361	16.5
411.567	16.31
411.773	16.28
411.98	16.24
412.186	16.25
412.392	16.45
412.598	16.54
412.804	16.28
413.01	16.22
413.216	16.06
413.422	16.18
413.628	16.26
413.834	16.51
414.04	16.57
414.246	16.79
414.452	16.87
414.658	16.74
414.864	16.67
415.07	16.69
415.275	16.65
415.481	16.68
415.687	16.71
415.893	16.56
416.099	16.37
416.305	16.26
416.511	16.15
416.716	16.05
416.922	16.05
417.128	16.06
417.334	16.11
417.539	16.07
417.745	15.93
417.951	15.83
418.157	15.85
418.362	15.89
418.568	15.87
418.774	15.79
418.979	15.67
419.185	15.7
419.391	15.65
419.596	15.59
419.802	15.64
420.008	15.72
420.213	15.78
420.419	15.82
420.624	15.79
420.83	15.83
421.035	15.81
421.241	15.79
421.446	15.74
421.652	15.69
421.857	15.74
422.063	15.61
422.268	15.62
422.474	15.54
422.679	15.51
422.885	15.49
423.09	15.58
423.295	15.65
423.501	15.77
423.706	15.81
423.911	15.84
424.117	15.88
424.322	15.94
424.527	15.93
424.733	15.96
424.938	15.96
425.143	15.96
425.349	15.87
425.554	15.88
425.759	15.75
425.964	15.81
426.169	15.9
426.375	15.83
426.58	15.92
426.785	16.06
426.99	16.08
427.195	16.08
427.4	16.05
427.605	16.14
427.811	16.13
428.016	16.33
428.221	16.41
428.426	16.37
428.631	16.4
428.836	16.38
429.041	16.36
429.246	16.34
429.451	16.48
429.656	16.53
429.861	16.58
430.066	16.68
430.271	16.65
430.476	16.5
430.681	16.5
430.886	16.54
431.09	16.54
431.295	16.41
431.5	16.5
431.705	16.39
431.91	16.42
432.115	16.36
432.32	16.35
432.524	16.33
432.729	16.35
432.934	16.29
433.139	16.37
433.343	16.33
433.548	16.47
433.753	16.52
433.958	16.48
434.162	16.42
434.367	16.41
434.572	16.43
434.776	16.46
434.981	16.62
435.186	16.69
435.39	16.75
435.595	16.81
435.799	16.7
436.004	16.61
436.209	16.69
436.413	16.86
436.618	16.93
436.822	16.97
437.027	17.03
437.231	16.95
437.436	17.04
437.64	16.88
437.845	16.89
438.049	16.88
438.253	17.02
438.458	17.04
438.662	16.97
438.867	16.91
439.071	16.88
439.275	16.86
439.48	16.81
439.684	16.68
439.888	16.67
440.093	16.67
440.297	16.68
440.501	16.61
440.706	16.65
440.91	16.74
441.114	16.83
441.318	16.83
441.523	16.82
441.727	16.87
441.931	16.99
442.135	17.04
442.339	17.02
442.543	17.05
442.748	17.04
442.952	17
443.156	16.88
443.36	16.84
443.564	16.81
443.768	16.84
443.972	16.71
444.176	16.59
444.38	16.58
444.584	16.66
444.788	16.61
444.992	16.53
445.196	16.5
445.4	16.53
445.604	16.46
445.808	16.44
446.012	16.44
446.216	16.53
446.42	16.59
446.624	16.55
446.828	16.47
447.032	16.55
447.235	16.56
447.439	16.62
447.643	16.61
447.847	16.67
448.051	16.65
448.254	16.62
448.458	16.57
448.662	16.52
448.866	16.57
449.069	16.61
449.273	16.6
449.477	16.77
449.681	16.7
449.884	16.74
450.088	16.72
450.292	16.79
450.495	16.75
450.699	16.76
450.902	16.83
451.106	16.79
451.31	16.76
451.513	16.77
451.717	16.71
451.92	16.67
452.124	16.7
452.327	16.71
452.531	16.74
452.734	16.77
452.938	16.87
453.141	16.89
453.345	16.99
453.548	17.04
453.752	16.96
453.955	16.87
454.158	16.99
454.362	16.97
454.565	16.97
454.769	17.06
454.972	17.08
455.175	17.08
455.379	17.18
455.582	17.14
455.785	17.19
455.988	17.19
456.192	17.31
456.395	17.22
456.598	17.08
456.801	17.07
457.005	16.94
457.208	16.92
457.411	16.87
457.614	16.66
457.817	16.63
458.021	16.58
458.224	16.69
458.427	16.65
458.63	16.68
458.833	16.8
459.036	16.8
459.239	16.84
459.442	16.91
459.645	16.92
459.848	16.95
460.051	17.05
460.254	17.07
460.457	17.05
460.66	17.07
460.863	17.14
461.066	17.17
461.269	17.25
461.472	17.24
461.675	17.21
461.878	17.2
462.081	17.32
462.284	17.27
462.486	17.3
462.689	17.27
462.892	17.24
463.095	17.17
463.298	17.1
463.5	17.09
463.703	17.18
463.906	17.08
464.109	16.94
464.311	16.85
464.514	16.78
464.717	16.83
464.92	16.87
465.122	16.99
465.325	17.02
465.528	17.01
465.73	17
465.933	16.85
466.135	17
466.338	17.21
466.541	17.28
466.743	17.33
466.946	17.34
467.148	17.35
467.351	17.25
467.553	17.27
467.756	17.32
467.958	17.3
468.161	17.55
468.363	17.47
468.566	17.52
468.768	17.49
468.971	17.6
469.173	17.64
469.375	17.66
469.578	17.71
469.78	17.64
469.983	17.64
470.185	17.52
470.387	17.24
470.59	17.27
470.792	17.18
470.994	17.15
471.196	16.97
471.399	16.82
471.601	16.81
471.803	16.86
472.005	16.91
472.208	16.92
472.41	17.02
472.612	17.18
472.814	17.24
473.016	17.28
473.218	17.25
473.421	17.28
473.623	17.45
473.825	17.47
474.027	17.37
474.229	17.42
474.431	17.42
474.633	17.44
474.835	17.36
475.037	17.26
475.239	17.25
475.441	17.27
475.643	17.35
475.845	17.14
476.047	17.09
476.249	16.99
476.451	17.04
476.653	17.07
476.855	17.03
477.057	17.07
477.258	17.08
477.46	16.96
477.662	16.97
477.864	16.92
478.066	16.95
478.268	16.96
478.469	17.05
478.671	16.98
478.873	16.94
479.075	16.88
479.276	16.75
479.478	16.67
479.68	16.66
479.882	16.65
480.083	16.64
480.285	16.66
480.487	16.65
480.688	16.65
480.89	16.67
481.091	16.56
481.293	16.56
481.495	16.63
481.696	16.66
481.898	16.63
482.099	16.59
482.301	16.5
482.502	16.45
482.704	16.36
482.905	16.32
483.107	16.25
483.308	16.24
483.51	16.19
483.711	16.16
483.913	16.15
484.114	16.16
484.315	16.16
484.517	16.19
484.718	16.21
484.92	16.26
485.121	16.28
485.322	16.33
485.524	16.36
485.725	16.38
485.926	16.42
486.127	16.42
486.329	16.41
486.53	16.39
486.731	16.37
486.932	16.33
487.134	16.31
487.335	16.31
487.536	16.27
487.737	16.29
487.938	16.32
488.139	16.33
488.341	16.35
488.542	16.4
488.743	16.46
488.944	16.51
489.145	16.57
489.346	16.62
489.547	16.66
489.748	16.66
489.949	16.63
490.15	16.69
490.351	16.66
490.552	16.62
490.753	16.58
490.954	16.53
491.155	16.48
491.356	16.49
491.557	16.48
491.758	16.43
491.959	16.48
492.159	16.55
492.36	16.53
492.561	16.61
492.762	16.63
492.963	16.7
493.164	16.75
493.364	16.9
493.565	16.96
493.766	16.99
493.967	17.05
494.167	17.18
494.368	17.17
494.569	17.21
494.769	17.16
494.97	17.22
495.171	17.18
495.371	17.1
495.572	16.94
495.773	16.91
495.973	16.89
496.174	16.92
496.375	16.81
496.575	16.76
496.776	16.7
496.976	16.75
497.177	16.73
497.377	16.77
497.578	16.89
497.778	16.97
497.979	16.96
498.179	16.96
498.38	16.93
498.58	16.94
498.78	16.99
498.981	17.03
499.181	16.96
499.382	16.97
499.582	16.99
499.782	16.94
499.983	16.92
500.183	16.96
500.383	16.99
500.584	17.06
500.784	17.04
500.984	17.08
501.184	17.12
501.385	17.28
501.585	17.32
501.785	17.26
501.985	17.35
502.185	17.3
502.386	17.25
502.586	17.3
502.786	17.3
502.986	17.38
503.186	17.35
503.386	17.27
503.586	17.15
503.786	17.01
503.987	17.05
504.187	16.98
504.387	17.07
504.587	17.14
504.787	17.12
504.987	17.18
505.187	17.19
505.387	17.15
505.587	17.34
505.786	17.36
505.986	17.52
506.186	17.56
506.386	17.59
506.586	17.63
506.786	17.64
506.986	17.59
507.186	17.53
507.386	17.46
507.585	17.52
507.785	17.4
507.985	17.43
508.185	17.32
508.384	17.32
508.584	17.31
508.784	17.18
508.984	17.15
509.183	17.23
509.383	17.2
509.583	17.26
509.782	17.28
509.982	17.28
510.182	17.25
510.381	17.36
510.581	17.32
510.781	17.34
510.98	17.39
511.18	17.3
511.379	17.32
511.579	17.35
511.778	17.3
511.978	17.31
512.177	17.3
512.377	17.4
512.576	17.32
512.776	17.43
512.975	17.43
513.175	17.54
513.374	17.61
513.573	17.54
513.773	17.54
513.972	17.47
514.172	17.43
514.371	17.48
514.57	17.34
514.77	17.34
514.969	17.21
515.168	17.12
515.367	17.04
515.567	17.14
515.766	17.14
515.965	17.12
516.164	17.22
516.364	17.23
516.563	17.2
516.762	17.21
516.961	17.23
517.16	17.22
517.359	17.33
517.559	17.32
517.758	17.23
517.957	17.15
518.156	17.12
518.355	17.08
518.554	17.09
518.753	17.13
518.952	17.14
519.151	17.1
519.35	17.16
519.549	17.13
519.748	17.13
519.947	17.2
520.146	17.26
520.345	17.35
520.544	17.46
520.743	17.45
520.942	17.42
521.141	17.4
521.339	17.47
521.538	17.44
521.737	17.5
521.936	17.53
522.135	17.5
522.333	17.48
522.532	17.41
522.731	17.34
522.93	17.4
523.129	17.42
523.327	17.48
523.526	17.51
523.725	17.48
523.923	17.49
524.122	17.48
524.321	17.42
524.519	17.48
524.718	17.43
524.917	17.39
525.115	17.27
525.314	17.21
525.512	17.14
525.711	17.1
525.909	17.09
526.108	17.01
526.306	16.91
526.505	16.88
526.703	16.82
526.902	16.82
527.1	16.8
527.299	16.79
527.497	16.75
527.696	16.72
527.894	16.66
528.092	16.65
528.291	16.65
528.489	16.68
528.688	16.67
528.886	16.69
529.084	16.72
529.283	16.73
529.481	16.79
529.679	16.84
529.877	16.91
530.076	17
530.274	17.06
530.472	17.09
530.67	17.17
530.869	17.27
531.067	17.28
531.265	17.31
531.463	17.33
531.661	17.29
531.859	17.26
532.057	17.23
532.255	17.22
532.454	17.18
532.652	17.18
532.85	17.1
533.048	17.1
533.246	17.12
533.444	17.07
533.642	17.04
533.84	17.07
534.038	17.08
534.236	17.13
534.434	17.14
534.632	17.17
534.83	17.23
535.027	17.34
535.225	17.35
535.423	17.33
535.621	17.38
535.819	17.37
536.017	17.36
536.215	17.37
536.412	17.35
536.61	17.35
536.808	17.37
537.006	17.31
537.203	17.28
537.401	17.27
537.599	17.36
537.797	17.34
537.994	17.43
538.192	17.45
538.39	17.52
538.587	17.53
538.785	17.51
538.983	17.46
539.18	17.5
539.378	17.44
539.575	17.36
539.773	17.28
539.97	17.27
540.168	17.19
540.366	17.19
540.563	17.13
540.761	17.12
540.958	17.09
541.155	17.07
541.353	17.04
541.55	17.04
541.748	17.07
541.945	17.12
542.143	17.15
542.34	17.23
542.537	17.26
542.735	17.34
542.932	17.39
543.129	17.47
543.327	17.55
543.524	17.67
543.721	17.75
543.919	17.85
544.116	17.93
544.313	17.97
544.51	17.99
544.708	18.05
544.905	18.03
545.102	18.02
545.299	18.06
545.496	18.01
545.693	18.09
545.891	18.08
546.088	18.06
546.285	18
546.482	17.99
546.679	17.94
546.876	17.9
547.073	17.92
547.27	17.97
547.467	17.97
547.664	18.03
547.861	17.95
548.058	18.03
548.255	18
548.452	18
548.649	18.05
548.846	18.16
549.043	18.23
549.24	18.22
549.437	18.24
549.633	18.19
549.83	18.25
550.027	18.24
550.224	18.3
550.421	18.28
550.618	18.26
550.814	18.19
551.011	18.15
551.208	18.13
551.405	18.28
551.601	18.12
551.798	18.13
551.995	18.08
552.191	18.05
552.388	17.9
552.585	17.85
552.781	17.85
552.978	17.84
553.175	17.84
553.371	17.86
553.568	17.73
553.764	17.82
553.961	17.85
554.157	17.84
554.354	17.83
554.55	17.91
554.747	18.12
554.943	18.17
555.14	18.06
555.336	18.04
555.533	17.92
555.729	17.95
555.926	17.95
556.122	17.92
556.318	17.79
556.515	17.9
556.711	17.89
556.907	17.79
557.104	17.72
557.3	17.81
557.496	17.76
557.693	17.8
557.889	17.8
558.085	17.85
558.281	17.83
558.478	17.99
558.674	17.89
558.87	17.91
559.066	17.91
559.262	17.81
559.459	17.84
559.655	17.97
559.851	17.98
560.047	18.06
560.243	18
560.439	17.99
560.635	18.03
560.831	18.18
561.027	18.15
561.223	18.04
561.419	18.2
561.615	18.29
561.811	18.27
562.007	18.26
562.203	18.09
562.399	18.18
562.595	18.26
562.791	18.17
562.987	18.07
563.183	18.02
563.379	18.09
563.575	18.14
563.771	18.08
563.966	18.04
564.162	17.93
564.358	18.01
564.554	17.87
564.75	17.82
564.945	17.76
565.141	17.82
565.337	17.79
565.533	17.82
565.728	17.66
565.924	17.66
566.12	17.68
566.315	17.81
566.511	17.75
566.707	17.84
566.902	17.78
567.098	17.8
567.293	17.72
567.489	17.74
567.684	17.83
567.88	17.88
568.076	17.85
568.271	17.78
568.467	17.84
568.662	17.97
568.858	17.98
569.053	18.05
569.248	18.13
569.444	18.19
569.639	18.24
569.835	18.2
570.03	18.19
570.225	18.28
570.421	18.32
570.616	18.26
570.812	18.25
571.007	18.12
571.202	18.16
571.397	18.14
571.593	18.07
571.788	18.09
571.983	18.01
572.178	18.03
572.374	17.96
572.569	18.02
572.764	17.92
572.959	17.9
573.154	17.99
573.35	17.94
573.545	17.94
573.74	18.02
573.935	17.89
574.13	17.84
574.325	17.8
574.52	17.86
574.715	17.86
574.91	17.94
575.105	17.89
575.3	17.87
575.495	17.83
575.69	17.78
575.885	17.72
576.08	17.93
576.275	18.1
576.47	18.16
576.665	18.22
576.86	18.15
577.055	18.11
577.25	18.2
577.444	18.32
577.639	18.44
577.834	18.52
578.029	18.53
578.224	18.41
578.418	18.32
578.613	18.39
578.808	18.46
579.003	18.66
579.197	18.82
579.392	18.79
579.587	18.82
579.781	18.79
579.976	18.91
580.171	18.89
580.365	18.95
580.56	19.09
580.755	19.06
580.949	18.98
581.144	18.84
581.338	18.75
581.533	18.73
581.727	18.71
581.922	18.83
582.116	18.76
582.311	18.8
582.505	18.82
582.7	18.81
582.894	18.92
583.089	19
583.283	19.07
583.478	19.06
583.672	19.2
583.866	19.11
584.061	19.03
584.255	19
584.449	19.12
584.644	19.08
584.838	19.11
585.032	19
585.226	18.96
585.421	18.93
585.615	18.95
585.809	18.7
586.003	18.78
586.198	18.83
586.392	18.85
586.586	18.77
586.78	18.76
586.974	18.67
587.168	18.73
587.363	18.66
587.557	18.65
587.751	18.78
587.945	18.91
588.139	18.75
588.333	18.66
588.527	18.73
588.721	18.69
588.915	18.65
589.109	18.68
589.303	18.75
589.497	18.7
589.691	18.74
589.885	18.6
590.079	18.69
590.273	18.87
590.466	19.02
590.66	18.97
590.854	19.02
591.048	19.04
591.242	19.04
591.436	18.93
591.629	19.14
591.823	19.23
592.017	19.36
592.211	19.45
592.404	19.52
592.598	19.42
592.792	19.42
592.986	19.44
593.179	19.47
593.373	19.44
593.567	19.5
593.76	19.2
593.954	19.11
594.147	19.08
594.341	18.77
594.535	18.65
594.728	18.51
594.922	18.42
595.115	18.34
595.309	18.4
595.502	18.44
595.696	18.36
595.889	18.45
596.083	18.45
596.276	18.32
596.47	18.5
596.663	18.6
596.856	18.69
597.05	18.71
597.243	18.81
597.437	18.9
597.63	18.87
597.823	18.94
598.017	19.02
598.21	18.96
598.403	18.99
598.596	18.9
598.79	18.92
598.983	18.97
599.176	19.11
599.369	19.1
599.563	19.03
599.756	19.1
599.949	19.16
600.142	19.12
600.335	19.15
600.528	19.27
600.722	19.29
600.915	19.16
601.108	19.26
601.301	19.07
601.494	19.11
601.687	19.05
601.88	18.93
602.073	18.79
602.266	18.78
602.459	18.81
602.652	18.73
602.845	18.75
603.038	18.75
603.231	18.66
603.424	18.71
603.617	18.57
603.809	18.54
604.002	18.63
604.195	18.71
604.388	18.75
604.581	18.73
604.774	18.86
604.966	18.93
605.159	18.95
605.352	19.08
605.545	19.01
605.737	19.17
605.93	19.16
606.123	19.24
606.316	19.15
606.508	19.09
606.701	19.25
606.894	19.2
607.086	19.17
607.279	19.25
607.471	19.19
607.664	19.33
607.857	19.46
608.049	19.53
608.242	19.66
608.434	19.83
608.627	20.04
608.819	20.17
609.012	20.36
609.204	20.49
609.397	20.72
609.589	21.02
609.782	21.38
609.974	21.52
610.166	21.94
610.359	22.19
610.551	22.65
610.743	22.96
610.936	23.21
611.128	23.5
611.32	23.81
611.513	24.04
611.705	24.09
611.897	24.01
612.09	24.09
612.282	23.92
612.474	23.83
612.666	23.54
612.858	23.46
613.051	23.35
613.243	23.09
613.435	22.95
613.627	22.62
613.819	22.48
614.011	22.36
614.203	22.13
614.395	22.11
614.588	21.93
614.78	21.77
614.972	21.46
615.164	21.25
615.356	21.18
615.548	21.09
615.74	21.06
615.932	20.91
616.124	20.88
616.315	20.69
616.507	20.58
616.699	20.56
616.891	20.5
617.083	20.49
617.275	20.43
617.467	20.34
617.659	20.12
617.85	19.93
618.042	20.04
618.234	20.02
618.426	20.16
618.618	20.12
618.809	20.12
619.001	20.2
619.193	20.37
619.384	20.3
619.576	20.42
619.768	20.61
619.959	20.7
620.151	20.8
620.343	20.78
620.534	20.78
620.726	20.85
620.917	21.07
621.109	21.17
621.301	21.23
621.492	21.33
621.684	21.32
621.875	21.23
622.067	21
622.258	20.91
622.45	20.71
622.641	20.69
622.832	20.59
623.024	20.25
623.215	20.16
623.407	19.9
623.598	19.93
623.789	19.94
623.981	20.18
624.172	20.35
624.363	20.25
624.555	20.48
624.746	20.52
624.937	20.49
625.129	20.49
625.32	20.42
625.511	20.42
625.702	20.35
625.893	20.32
626.085	20.19
626.276	20.25
626.467	20.11
626.658	20.27
626.849	20.27
627.04	20.29
627.231	20.33
627.422	20.29
627.614	20.35
627.805	20.46
627.996	20.48
628.187	20.42
628.378	20.45
628.569	20.57
628.76	20.44
628.951	20.6
629.142	20.66
629.332	20.67
629.523	20.93
629.714	20.92
629.905	20.79
630.096	20.9
630.287	20.89
630.478	20.95
630.669	21.13
630.859	21.11
631.05	20.8
631.241	20.79
631.432	20.83
631.623	20.42
631.813	20.49
632.004	20.49
632.195	20.32
632.385	20.32
632.576	20.17
632.767	19.96
632.957	20.06
633.148	20.21
633.339	20.11
633.529	19.97
633.72	20.28
633.91	20.26
634.101	20.16
634.292	20.07
634.482	20.18
634.673	20.16
634.863	20.07
635.054	19.88
635.244	19.9
635.435	20.03
635.625	20.1
635.815	19.97
636.006	19.89
636.196	19.98
636.387	19.9
636.577	19.88
636.767	20.01
636.958	20.17
637.148	20.24
637.338	20.2
637.529	20.17
637.719	20.26
637.909	20.25
638.099	20.21
638.29	20.18
638.48	20.36
638.67	20.17
638.86	20.12
639.05	20.13
639.241	20.04
639.431	20.04
639.621	20.11
639.811	19.87
640.001	19.72
640.191	19.94
640.381	19.98
640.571	20.06
640.761	20.24
640.951	20.24
641.141	20.22
641.331	20.26
641.521	20.15
641.711	20.07
641.901	20.32
642.091	20.66
642.281	20.5
642.471	20.72
642.661	20.66
642.851	20.51
643.041	20.49
643.231	20.63
643.42	20.69
643.61	20.84
643.8	20.91
643.99	20.91
644.18	20.84
644.369	20.81
644.559	20.65
644.749	20.64
644.939	20.66
645.128	20.73
645.318	20.73
645.508	20.56
645.697	20.3
645.887	20.03
646.076	19.92
646.266	19.97
646.456	20.1
646.645	20.1
646.835	20.18
647.024	20.14
647.214	20.01
647.403	19.99
647.593	20.33
647.782	20.54
647.972	20.82
648.161	20.58
648.351	20.38
648.54	20.15
648.73	19.99
648.919	20.04
649.108	20.16
649.298	20.29
649.487	20.31
649.677	19.87
649.866	19.95
650.055	19.89
650.244	20.14
650.434	20.31
650.623	20.69
650.812	20.89
651.002	20.9
651.191	21.24
651.38	21.15
651.569	21.28
651.758	21.58
651.947	21.54
652.137	21.79
652.326	21.86
652.515	21.91
652.704	21.68
652.893	21.71
653.082	21.56
653.271	21.42
653.46	21.43
653.649	21.13
653.838	21.06
654.027	21.1
654.216	20.87
654.405	21.02
654.594	20.99
654.783	20.89
654.972	20.78
655.161	20.84
655.35	20.7
655.539	20.77
655.728	21.03
655.916	21.07
656.105	21.15
656.294	21.14
656.483	21.09
656.672	21.07
656.86	21.4
657.049	21.27
657.238	21.2
657.427	21.12
657.615	20.97
657.804	20.78
657.993	20.64
658.181	20.39
658.37	20.33
658.559	20.18
658.747	20.07
658.936	19.91
659.125	19.81
659.313	19.9
659.502	19.86
659.69	19.75
659.879	19.85
660.067	19.9
660.256	20.17
660.444	20.29
660.633	20.29
660.821	20.45
661.01	20.6
661.198	20.81
661.387	20.75
661.575	20.85
661.763	21.2
661.952	21.07
662.14	21.16
662.328	20.82
662.517	20.91
662.705	20.87
662.893	20.93
663.082	20.75
663.27	20.78
663.458	20.76
663.646	20.92
663.834	20.65
664.023	20.81
664.211	21.07
664.399	21.27
664.587	21.11
664.775	21.45
664.963	21.3
665.152	21.22
665.34	21.25
665.528	21.42
665.716	21.06
665.904	21.31
666.092	21.52
666.28	21.34
666.468	21.25
666.656	21.31
666.844	21.25
667.032	21.35
667.22	21.45
667.408	21.46
667.596	21.35
667.784	21.51
667.971	21.45
668.159	21.23
668.347	21.28
668.535	21.39
668.723	21.32
668.911	21.04
669.098	20.96
669.286	20.99
669.474	20.95
669.662	20.94
669.849	21.08
670.037	21.15
670.225	21.16
670.413	21.09
670.6	21.23
670.788	21.3
670.976	21.5
671.163	21.61
671.351	21.74
671.538	21.75
671.726	21.84
671.913	21.73
672.101	21.75
672.289	21.75
672.476	21.63
672.664	21.5
672.851	21.68
673.039	21.69
673.226	21.51
673.413	21.28
673.601	21.07
673.788	20.96
673.976	21.14
674.163	21.09
674.35	20.97
674.538	20.7
674.725	20.79
674.912	20.67
675.1	20.45
675.287	20.58
675.474	20.76
675.662	21
675.849	21.18
676.036	21.13
676.223	21.11
676.411	21.09
676.598	21.28
676.785	21.14
676.972	21.04
677.159	21.09
677.346	21.35
677.533	21.29
677.721	21.31
677.908	21.32
678.095	21.01
678.282	21.16
678.469	21.39
678.656	21.44
678.843	21.64
679.03	21.49
679.217	21.56
679.404	21.23
679.591	21.34
679.778	21.35
679.964	21.45
680.151	21.68
680.338	21.65
680.525	21.54
680.712	21.69
680.899	21.57
681.086	21.62
681.272	21.63
681.459	21.79
681.646	21.69
681.833	21.67
682.02	21.65
682.206	21.62
682.393	21.56
682.58	21.69
682.766	21.68
682.953	21.63
683.14	21.79
683.326	21.73
683.513	21.55
683.7	21.59
683.886	21.31
684.073	21.01
684.259	21.1
684.446	21.11
684.632	21.06
684.819	21.16
685.005	21.37
685.192	21.12
685.378	21.53
685.565	21.86
685.751	21.89
685.938	22.18
686.124	22.33
686.31	22.25
686.497	22.43
686.683	22.32
686.87	22.13
687.056	22.11
687.242	22.24
687.429	21.95
687.615	21.69
687.801	21.59
687.987	21.46
688.174	21.58
688.36	21.58
688.546	21.5
688.732	21.61
688.918	21.69
689.105	21.75
689.291	21.64
689.477	21.99
689.663	22.1
689.849	22.14
690.035	22.37
690.221	22.41
690.407	22.37
690.593	22.29
690.779	22.02
690.965	21.97
691.151	21.82
691.337	22.1
691.523	22.02
691.709	22.19
691.895	22.28
692.081	22.29
692.267	22.28
692.453	22.31
692.639	22.46
692.825	22.68
693.011	22.76
693.196	22.69
693.382	22.62
693.568	22.49
693.754	22.4
693.94	22.58
694.125	22.31
694.311	22.39
694.497	22.34
694.682	21.97
694.868	22.34
695.054	22.18
695.239	22.19
695.425	22.04
695.611	21.73
695.796	21.68
695.982	21.46
696.168	21.6
696.353	21.27
696.539	21.19
696.724	21.3
696.91	20.97
697.095	21.17
697.281	21.19
697.466	21.18
697.652	21.1
697.837	20.96
698.023	20.88
698.208	20.86
698.393	21.1
698.579	20.95
698.764	21.14
698.949	20.98
699.135	20.93
699.32	20.94
699.505	20.94
699.691	21.21
699.876	21.36
700.061	21.44
700.246	21.5
700.432	21.2
700.617	21.46
700.802	21.22
700.987	21.55
701.172	21.6
701.358	21.79
701.543	22.05
701.728	22.07
701.913	21.94
702.098	21.94
702.283	22.07
702.468	22.22
702.653	22.27
702.838	22.34
703.023	22.14
703.208	21.99
703.393	21.72
703.578	21.35
703.763	21.51
703.948	21.71
704.133	21.51
704.318	21.3
704.503	21.63
704.688	21.78
704.873	22.06
705.057	22.16
705.242	22.43
705.427	22.36
705.612	22.93
705.797	22.95
705.981	22.72
706.166	22.9
706.351	23.2
706.536	23.08
706.72	23.16
706.905	23.37
707.09	23.8
707.274	23.87
707.459	24.17
707.644	23.89
707.828	23.77
708.013	23.99
708.197	24.39
708.382	24.34
708.567	24.35
708.751	24.29
708.936	23.77
709.12	23.59
709.305	23.54
709.489	23.13
709.673	23.3
709.858	22.93
710.042	22.92
710.227	22.8
710.411	22.75
710.596	22.67
710.78	22.84
710.964	23.11
711.149	23
711.333	23.08
711.517	23.34
711.702	23.46
711.886	23.69
712.07	23.75
712.254	23.61
712.438	23.24
712.623	23.15
712.807	22.85
712.991	22.61
713.175	22.53
713.359	22.25
713.544	22.29
713.728	22.2
713.912	22.36
714.096	22.16
714.28	21.98
714.464	21.8
714.648	21.79
714.832	21.62
715.016	21.39
715.2	21.47
715.384	21.13
715.568	21.15
715.752	21.1
715.936	20.71
716.12	20.75
716.304	20.88
716.488	21.15
716.671	20.97
716.855	21.01
717.039	20.9
717.223	20.59
717.407	20.91
717.59	20.85
717.774	20.94
717.958	21.34
718.142	21.5
718.325	21.55
718.509	21.62
718.693	21.73
718.877	22.02
719.06	22.6
719.244	22.83
719.428	22.92
719.611	23
719.795	22.84
719.978	21.96
720.162	21.76
720.345	21.43
720.529	21.64
720.713	21.69
720.896	21.31
721.08	20.99
721.263	20.87
721.446	20.75
721.63	20.73
721.813	20.5
721.997	21.07
722.18	21.42
722.364	21.91
722.547	21.81
722.73	21.99
722.914	22.26
723.097	22.19
723.28	22.27
723.464	22.21
723.647	22.25
723.83	22.18
724.013	22.33
724.197	22.05
724.38	21.63
724.563	22.03
724.746	22.12
724.929	21.98
725.112	22.33
725.296	22.39
725.479	22.02
725.662	21.91
725.845	22.44
726.028	22.26
726.211	22.38
726.394	22.68
726.577	22.55
726.76	22.54
726.943	22.54
727.126	22.52
727.309	22.35
727.492	22.78
727.675	22.78
727.858	22.62
728.041	22.87
728.224	22.58
728.407	22.91
728.589	22.8
728.772	22.95
728.955	23.43
729.138	23.72
729.321	23.99
729.503	23.69
729.686	23.63
729.869	23.89
730.052	24.12
730.234	24.05
730.417	23.39
730.6	23.33
730.782	23.23
730.965	22.75
731.148	22.19
731.33	21.73
731.513	22.27
731.695	22.52
731.878	22.44
732.061	21.89
732.243	21.9
732.426	22.22
732.608	22.44
732.791	22.2
732.973	22.05
733.156	22.55
733.338	23.04
733.52	22.52
733.703	22.27
733.885	21.61
734.068	21.9
734.25	22.16
734.432	21.84
734.615	21.65
734.797	21.94
734.979	22.24
735.162	21.76
735.344	21.39
735.526	21.96
735.708	22.14
735.891	22.27
736.073	22.06
736.255	22.24
736.437	22.85
736.619	23.24
736.802	22.9
736.984	22.76
737.166	22.69
737.348	23.24
737.53	23.27
737.712	23.39
737.894	23.81
738.076	24.19
738.258	23.89
738.44	23.97
738.622	23.47
738.804	23.45
738.986	23.42
739.168	23.63
739.35	23.52
739.532	23.39
739.714	23.22
739.896	23.37
740.078	23.39
740.259	23.44
740.441	23.17
740.623	23.18
740.805	23.64
740.987	23.55
741.168	23.83
741.35	23.48
741.532	23.5
741.714	23.24
741.895	22.79
742.077	22.88
742.259	23.38
742.44	23.18
742.622	23.32
742.804	22.37
742.985	23.11
743.167	22.87
743.348	22.48
743.53	22.37
743.711	22.29
743.893	22.2
744.075	22.16
744.256	22.19
744.438	22.41
744.619	21.81
744.8	22.76
744.982	22.72
745.163	22.83
745.345	23.23
745.526	23.77
745.707	24.04
745.889	24.4
746.07	24.08
746.252	23.53
746.433	24.2
746.614	24.14
746.795	23.88
746.977	22.99
747.158	22.35
747.339	22.64
747.52	21.64
747.702	22.01
747.883	22.34
748.064	22.16
748.245	22.18
748.426	21.03
748.607	22.22
748.788	21.7
748.97	22.64
749.151	23.54
749.332	23.05
749.513	23.51
749.694	22.46
749.875	21.78
750.056	22.18
750.237	22.08
750.418	22.64
750.599	22.2
750.78	22.77
750.96	22.03
751.141	21.46
751.322	22.2
751.503	21.78
751.684	22.74
751.865	22.65
752.046	22.24
752.226	22.71
752.407	22.84
752.588	22.6
752.769	22.71
752.949	23.18
753.13	23.66
753.311	23.85
753.492	24.29
753.672	23.77
753.853	23.77
754.034	24.07
754.214	23.27
754.395	23.1
754.575	22.95
754.756	22.83
754.937	22.14
755.117	22.61
755.298	21.88
755.478	20.92
755.659	20.82
755.839	21.51
756.02	21.12
756.2	22.01
756.381	21.74
756.561	21.5
756.741	21.4
756.922	22.27
757.102	21.24
757.283	21.82
757.463	22.4
757.643	22.33
757.823	22.45
758.004	23.02
758.184	22.5
758.364	21.95
758.545	22.33
758.725	22.4
758.905	22.33
759.085	22.5
759.265	21.75
759.446	22.77
759.626	23.52
759.806	23.37
759.986	22.69
760.166	22.22
760.346	23.37
760.526	22.69
760.706	22.32
760.886	22.29
761.066	22.36
761.246	22.8
761.426	22.48
761.606	22.1
761.786	21.7
761.966	22.13
762.146	22.32
762.326	21.91
762.506	22.16
762.686	21.91
762.866	21.3
763.046	21.2
763.225	21.26
763.405	20.86
763.585	20.91
763.765	20.69
763.945	20.51
764.124	20.91
764.304	20.64
764.484	21.06
764.664	21.06
764.843	21.51
765.023	21.11
765.203	20.65
765.382	20.42
765.562	20.77
765.741	21.03
765.921	20.7
766.101	20.91
766.28	21.37
766.46	20.84
766.639	21.54
766.819	21.75
766.998	22.08
767.178	22.25
767.357	22.61
767.537	22.29
767.716	21.83
767.896	22.62
768.075	21.99
768.254	22.08
768.434	21.8
768.613	21.72
768.792	21.77
768.972	22.37
769.151	22.85
769.33	23.69
769.51	23.62
769.689	24.45
769.868	23.82
770.047	24.32
770.226	24.45
770.406	25.01
770.585	24.9
770.764	24.58
770.943	24.31
771.122	24.38
771.301	23.37
771.48	23.23
771.66	23.28
771.839	23.94
772.018	22.91
772.197	22.68
772.376	22.88
772.555	23.02
772.734	23.7
772.913	23.99
773.092	23.51
773.271	24.06
773.449	23.9
773.628	23.4
773.807	23.47
773.986	23.66
774.165	24.33
774.344	24.58
774.523	24.63
774.701	23.66
774.88	23.55
775.059	23.28
775.238	22.96
775.417	23.48
775.595	23.98
775.774	23.66
775.953	24.28
776.131	22.9
776.31	23.02
776.489	22.71
776.667	23.03
776.846	22.85
777.025	22.87
777.203	23.49
777.382	22.4
777.56	21.79
777.739	22.16
777.917	21.63
778.096	22.15
778.274	20.92
778.453	20.38
778.631	20.32
778.81	20.55
778.988	20.84
779.166	20.09
779.345	20.95
779.523	21.27
779.702	21.1
779.88	21.66
780.058	21.5
780.237	21.53
780.415	22.29
780.593	21.89
780.771	22.03
780.95	22.3
781.128	22.97
781.306	22.12
781.484	21.66
781.662	21.45
781.841	21.7
782.019	21.47
782.197	22.69
782.375	22.2
782.553	23.1
782.731	22.67
782.909	22.37
783.087	21.32
783.265	23
783.443	23.94
783.621	23.44
783.799	22.45
783.977	22.05
784.155	21.04
784.333	20.76
784.511	20.45
784.689	20.48
784.867	20.3
785.045	20.08
785.223	19.25
785.4	18.7
785.578	19.44
785.756	19.61
785.934	20.72
786.112	20.81
786.289	21.17
786.467	20.56
786.645	20.63
786.823	21.19
787	21.43
787.178	20.81
787.356	21.03
787.533	20.41
787.711	21.03
787.889	20.46
788.066	21.08
788.244	20.83
788.421	21.27
788.599	21.2
788.776	21.04
788.954	21.62
789.131	22.05
789.309	21.45
789.486	20.22
789.664	20.34
789.841	19.99
790.019	19.35
790.196	20.17
790.373	19.98
790.551	19.71
790.728	19.24
790.906	19.49
791.083	17.74
791.26	18.77
791.437	20.84
791.615	19.9
791.792	20.2
791.969	20.45
792.146	20.54
792.324	21.4
792.501	21.46
792.678	21.71
792.855	21.95
793.032	23.6
793.209	22.74
793.387	22.54
793.564	23.1
793.741	23.56
793.918	23.16
794.095	22.56
794.272	21.46
794.449	22.13
794.626	23.17
794.803	22.05
794.98	22.22
795.157	21.82
795.334	21.53
795.511	21.44
795.688	20.66
795.864	20.61
796.041	20.66
796.218	21.05
796.395	20.32
796.572	19.14
796.749	18.82
796.925	18.85
797.102	19.39
797.279	19.92
797.456	19.52
797.632	20.41
797.809	21.01
797.986	21.57
798.162	21.39
798.339	21.76
798.516	22.64
798.692	24.27
798.869	24.53
799.046	24.27
799.222	23.89
799.399	23.03
799.575	23.49
799.752	23.59
799.928	22.35
800.105	22.12
800.281	22.6
800.458	22.31
800.634	21.66
800.811	20.77
800.987	20.99
801.163	21.28
801.34	22.22
801.516	20.72
801.692	20.45
801.869	21.37
802.045	22.23
802.221	22.31
802.398	20.99
802.574	19.16
802.75	19.32
802.926	19
803.103	18.84
803.279	20.95
803.455	21.2
803.631	22.03
803.807	21.92
803.983	21.79
804.16	21.08
804.336	22.49
804.512	22.84
804.688	25.25
804.864	25.61
805.04	24.59
805.216	22.56
805.392	22.38
805.568	22.31
805.744	21.93
805.92	20.01
806.096	20.1
806.272	20.96
806.448	20.95
806.623	19.64
806.799	20.58
806.975	21.8
807.151	21.7
807.327	23.11
807.503	22.52
807.678	23.64
807.854	24.8
808.03	24.09
808.206	22.82
808.381	24.08
808.557	23.57
808.733	23.57
808.908	22.46
809.084	23.09
809.26	21.82
809.435	21.73
809.611	21.46
809.787	20.4
809.962	20.82
810.138	22.09
810.313	22.56
810.489	21.76
810.664	21.17
810.84	22.41
811.015	23.19
811.191	23.11
811.366	22.98
811.542	21.78
811.717	22.44
811.892	23.81
812.068	23.22
812.243	23.2
812.419	24.61
812.594	24.6
812.769	25.05
812.944	25.16
813.12	24.76
813.295	24.77
813.47	25.63
813.645	26.24
813.821	24.93
813.996	25.52
814.171	24.19
814.346	22.24
814.521	21.43
814.697	20.09
814.872	18.78
815.047	18.81
815.222	19.22
815.397	18.55
815.572	18.6
815.747	18.59
815.922	17.16
816.097	16.17
816.272	16.98
816.447	17.32
816.622	16.85
816.797	16.64
816.972	17.74
817.147	17.31
817.322	17.09
817.496	18.17
817.671	19.15
817.846	18.38
818.021	19.36
818.196	20.62
818.371	21.57
818.545	21.69
818.72	22.03
818.895	20.82
819.069	21.39
819.244	22.07
819.419	21.78
819.594	20.35
819.768	20.8
819.943	22.56
820.117	22.01
820.292	21.1
820.467	21.15
820.641	20.34
820.816	20.44
820.99	19.48
821.165	19.19
821.339	18.99
821.514	18.92
821.688	19.05
821.863	18.3
822.037	18.27
822.212	18.45
822.386	18.38
822.56	18.54
822.735	18.74
822.909	18.7
823.084	18.74
823.258	18.65
823.432	18.6
823.606	18.7
823.781	18.95
823.955	18.92
824.129	18.95
824.303	18.76
824.478	18.89
824.652	18.63
824.826	19.12
825	19.23
825.174	19
825.348	19.21
825.523	18.69
825.697	18.3
825.871	18.56
826.045	18.1
826.219	18.66
826.393	18.36
826.567	18.4
826.741	18.36
826.915	18.17
827.089	18.35
827.263	19.01
827.437	19.25
827.611	19.32
827.784	19.44
827.958	19.61
828.132	19.39
828.306	19.33
828.48	19.59
828.654	19.41
828.827	20.06
829.001	20.2
829.175	19.39
829.349	19.55
829.522	20.31
829.696	19.94
829.87	19.98
830.044	20.44
830.217	21
830.391	21.33
830.565	20.49
830.738	20.2
830.912	19.4
831.085	19.71
831.259	18.43
831.432	16.48
831.606	16.45
831.779	15.72
831.953	15.21
832.126	14.99
832.3	14.75
832.473	16.12
832.647	16.05
832.82	17.1
832.994	16.61
833.167	17.32
833.34	18.48
833.514	18.17
833.687	18.81
833.86	19.5
834.034	19.92
834.207	19.53
834.38	19.44
834.553	18.89
834.727	18.5
834.9	18.91
835.073	18.68
835.246	19.07
835.419	19.07
835.593	18.46
835.766	17.22
835.939	16.93
836.112	17.02
836.285	17.07
836.458	17.17
836.631	17.7
836.804	18.17
836.977	18.83
837.15	17.34
837.323	17.53
837.496	18.92
837.669	18.96
837.842	17.44
838.015	15.68
838.188	15.6
838.361	14.46
838.533	14.27
838.706	15.17
838.879	14.71
839.052	14.7
839.225	13.65
839.398	11.26
839.57	12.22
839.743	13.47
839.916	15.84
840.088	17.13
840.261	18.69
840.434	17.72
840.607	16.11
840.779	16.56
840.952	17.38
841.124	16.43
841.297	19.01
841.47	19.32
841.642	19.93
841.815	19.65
841.987	20.24
842.16	19.22
842.332	21.48
842.505	22.16
842.677	23.65
842.85	21.61
843.022	23.41
843.194	24.85
843.367	27.03
843.539	26.06
843.712	25.33
843.884	20.76
844.056	22.49
844.229	24.17
844.401	23.41
844.573	20.36
844.745	24.11
844.918	24.29
845.09	19.45
845.262	18.5
845.434	15.57
845.606	20.05
845.779	25.68
845.951	25.92
846.123	23.26
846.295	23.87
846.467	21.76
846.639	21.63
846.811	24.68
846.983	25.88
847.155	24.23
847.327	28.92
847.499	26.42
847.671	22.86
847.843	22.64
848.015	23.08
848.187	26.2
848.359	30.92
848.531	26.74
848.703	24.99
848.875	26.35
849.047	25.2
849.218	24.45
849.39	22.54
849.562	23.47
849.734	20.41
849.905	21
850.077	18.9
850.249	16.86
850.421	18.65
850.592	19.21
850.764	20.05
850.936	20.3
851.107	18.41
851.279	19.91
851.451	17.47
851.622	21.78
851.794	22.12
851.965	20.39
852.137	24.91
852.308	24.09
852.48	22.12
852.651	19.11
852.823	19.75
852.994	22.77
853.166	24.29
853.337	25.69
853.509	20.76
853.68	18.18
853.851	19.94
854.023	18.68
854.194	19.89
854.365	21.85
854.537	20.88
854.708	19.85
854.879	22.58
855.05	19.92
855.222	21.83
855.393	24.22
855.564	26.25
855.735	25.23
855.906	25.19
856.078	25.09
856.249	20.78
856.42	23.74
856.591	22.25
856.762	18.52
856.933	15.55
857.104	7.88
857.275	7.85
857.446	3.98
857.617	3.23
857.788	1.62
857.959	3.17
858.13	5.22
858.301	0.83
858.472	7.28
858.643	7.33
858.814	13.8
858.985	18.95
859.155	16.95
859.326	16.59
859.497	17.36
859.668	16.48
859.839	16.51
860.009	18.19
860.18	23.02
860.351	17.64
860.522	17.94
860.692	18.35
860.863	16.32
861.034	17.97
861.204	16.03
861.375	14.53
861.546	13.96
861.716	6.6
861.887	5.02
862.057	3.82
862.228	6.49
862.398	4.05
862.569	0.92
862.739	4.11
862.91	5.44
863.08	7.59
863.251	10.29
863.421	14.37
863.592	20.54
863.762	25.34
863.932	25.93
864.103	27.68
864.273	28
864.443	30.92
864.614	30.84
864.784	30.45
864.954	30.39
865.125	30.4
865.295	27.4
865.465	26.3
865.635	25.1
865.805	27.77
865.976	28.4
866.146	25.23
866.316	23.22
866.486	25.2
866.656	24.22
866.826	27.76
866.996	27.65
867.166	28.53
867.336	28.64
867.506	27.55
867.676	22.91
867.846	19.8
868.016	18.13
868.186	21.55
868.356	19.13
868.526	21.45
868.696	18.54
868.866	16.92
869.036	17.12
869.206	16.75
869.376	15.27
869.545	16.03
869.715	19.26
869.885	21.48
870.055	16.11
870.224	10.9
870.394	10.28
870.564	13.28
870.734	15.95
870.903	14.59
871.073	15.26
871.243	17.11
871.412	21.67
871.582	20.44
871.751	22
871.921	24.3
872.091	29.9
872.26	34.83
872.43	32.91
872.599	30.76
872.769	32.27
872.938	32.83
873.108	31.57
873.277	31.77
873.446	31.75
873.616	31.18
873.785	32.86
873.955	32.36
874.124	25.3
874.293	28.15
874.463	28.71
874.632	31.4
874.801	30.37
874.971	29.14
875.14	26.89
875.309	27.37
875.478	29.3
875.647	25.94
875.817	24.19
875.986	28.27
876.155	27.94
876.324	27.36
876.493	23.77
876.662	24.27
876.831	28.6
877	25.94
877.17	24.22
877.339	20.18
877.508	23.74
877.677	27.12
877.846	24.36
878.015	20.74
878.184	19.6
878.352	17.71
878.521	14.67
878.69	13.98
878.859	18.98
879.028	21.13
879.197	21.64
879.366	21.24
879.534	20.22
879.703	21.02
879.872	20.41
880.041	20.29
880.21	21.13
880.378	22.3
880.547	19.31
880.716	17.16
880.884	17.13
881.053	16.05
881.222	15.53
881.39	15.41
881.559	15.15
881.727	14.74
881.896	15.03
882.065	14.99
882.233	14.58
882.402	15.15
882.57	15.51
882.739	14.87
882.907	14.99
883.076	14.75
883.244	14.7
883.412	15.15
883.581	15.79
883.749	15.64
883.918	15.81
884.086	16.51
884.254	16.83
884.423	16.4
884.591	16.52
884.759	17.6
884.927	17.25
885.096	17.1
885.264	17.57
885.432	17.36
885.6	17.43
885.769	15.53
885.937	13.78
886.105	13.34
886.273	14.7
886.441	16.41
886.609	14.72
886.777	17.81
886.945	20.44
887.113	19.88
887.281	18.47
887.449	20.77
887.617	24.16
887.785	23.71
887.953	25.89
888.121	21.04
888.289	17.2
888.457	21.75
888.625	23.51
888.793	16.77
888.961	10.65
889.129	10.7
889.296	2.1
889.464	0.32
889.632	1.47
889.8	-4.67
889.967	-3.73
890.135	-1.82
