Data from 2938719__Reflection_02.txt Node
Date: Tue Mar 17 18:36:10 EDT 2015
User: robert
Spectrometer: USB4E03002
Autoset integration time: false
Trigger mode: 4
Integration Time (sec): 1.000000E-1
Scans to average: 10
Electric dark correction enabled: false
Nonlinearity correction enabled: false
Boxcar width: 5
Stray light correction enabled: false
XAxis mode: Wavelengths
Stop averaging: false
Number of Pixels in Spectrum: 3648
>>>>>Begin Spectral Data<<<<<
177.575	633.33
177.794	5100
178.014	-4318.18
178.233	347.33
178.452	-2571.43
178.672	-6470
178.891	241.16
179.11	187.84
179.33	144.09
179.549	170.68
179.768	189.22
179.987	425.27
180.207	200.89
180.426	172.81
180.645	-5162.5
180.864	409.43
181.084	199.58
181.303	-501.45
181.522	-591.8
181.741	826.98
181.96	383.43
182.179	464.65
182.398	244.88
182.618	-3625
182.837	569.09
183.056	237.97
183.275	75.79
183.494	57.76
183.713	774.07
183.932	245.45
184.151	-336.21
184.37	-0.47
184.589	-165.45
184.808	-161.59
185.027	-397.85
185.246	-1329.41
185.465	194.34
185.684	207.79
185.903	165.07
186.122	179.46
186.341	-308.16
186.56	285.98
186.779	192.5
186.998	144.12
187.216	150.65
187.435	116.9
187.654	131.09
187.873	183.28
188.092	192.74
188.311	150.5
188.53	124.07
188.748	132.3
188.967	128.88
189.186	139.1
189.405	180.66
189.623	233.11
189.842	213.31
190.061	232.68
190.28	334.88
190.498	321.11
190.717	1191.43
190.936	-1134.21
191.154	413
191.373	242.48
191.592	190.54
191.81	165.97
192.029	144.08
192.248	157.59
192.466	222.25
192.685	168.81
192.904	153.68
193.122	165.79
193.341	134.32
193.559	125.36
193.778	104.87
193.996	119.58
194.215	114.92
194.433	130.03
194.652	170
194.87	96.62
195.089	101.14
195.307	111.5
195.526	80.54
195.744	108.21
195.963	121.15
196.181	150.85
196.399	105.96
196.618	107.78
196.836	110.43
197.055	111.62
197.273	146.99
197.491	176.77
197.71	161.82
197.928	273.04
198.146	251.69
198.365	240.39
198.583	165.55
198.801	171.67
199.019	187.77
199.238	139.53
199.456	118.3
199.674	101.91
199.892	99.87
200.111	83.81
200.329	63.74
200.547	57.09
200.765	50.34
200.983	47.2
201.202	33.66
201.42	20.45
201.638	35.92
201.856	32.48
202.074	-16.35
202.292	-35.95
202.51	-46.15
202.728	-31.69
202.946	-132.35
203.165	-20.29
203.383	-74.12
203.601	8625
203.819	-802.22
204.037	-159.2
204.255	-281.88
204.473	6333.33
204.691	1046.87
204.909	626.67
205.127	330.25
205.345	203.59
205.562	186.49
205.78	164.27
205.998	155.07
206.216	104.72
206.434	66.2
206.652	47.39
206.87	42.55
207.088	50.13
207.306	66.41
207.523	50.13
207.741	68.97
207.959	84.81
208.177	100.17
208.395	98.98
208.612	135.74
208.83	155.29
209.048	169.22
209.266	170.97
209.483	144.72
209.701	193.24
209.919	146.79
210.136	187.85
210.354	220.89
210.572	136.59
210.79	265.45
211.007	315.22
211.225	130.36
211.442	54.64
211.66	64.66
211.878	58.99
212.095	44.4
212.313	49.37
212.53	30.66
212.748	20.95
212.966	13.45
213.183	31.98
213.401	20.13
213.618	20.42
213.836	20.17
214.053	25.14
214.271	43.7
214.488	37.82
214.705	19.15
214.923	42.33
215.14	22.86
215.358	13.58
215.575	12.27
215.793	45.38
216.01	29.9
216.227	32.19
216.445	24.41
216.662	34.26
216.879	42.24
217.097	50.71
217.314	39.61
217.531	47.95
217.749	52.43
217.966	57.92
218.183	44.53
218.4	59.83
218.618	41.83
218.835	31.83
219.052	25.74
219.269	30.15
219.487	26.11
219.704	37.82
219.921	22.06
220.138	16.98
220.355	6.09
220.572	18.53
220.79	12.18
221.007	18.75
221.224	22.07
221.441	18.46
221.658	7.98
221.875	9.68
222.092	12.35
222.309	16.87
222.526	25.83
222.743	28.87
222.96	25.01
223.177	31.52
223.394	30.43
223.611	34.44
223.828	35.41
224.045	39.02
224.262	39.45
224.479	34.72
224.696	32.01
224.913	26.12
225.13	22.16
225.347	24.26
225.564	21.44
225.781	21.83
225.997	20.29
226.214	18.44
226.431	13.13
226.648	10.64
226.865	8.5
227.082	9.55
227.298	9.2
227.515	7.21
227.732	6.72
227.949	5.89
228.165	3.68
228.382	3.66
228.599	3.32
228.816	4.37
229.032	4.1
229.249	4.67
229.466	4.48
229.682	4.76
229.899	5.01
230.116	4.18
230.332	3.22
230.549	3.66
230.765	3.99
230.982	3.52
231.199	2.89
231.415	3.31
231.632	2.62
231.848	1.66
232.065	1.01
232.281	2.35
232.498	2.65
232.714	4.22
232.931	3.76
233.147	2.15
233.364	1.64
233.58	-0.22
233.797	-0.7
234.013	-1.77
234.23	0.85
234.446	-1.6
234.662	-1.82
234.879	-0.84
235.095	-0.18
235.312	1.99
235.528	2.34
235.744	2.33
235.961	3.97
236.177	4.94
236.393	6.73
236.61	5.02
236.826	7.41
237.042	7.82
237.258	6.93
237.475	6.42
237.691	6.88
237.907	7.8
238.123	8.28
238.339	7.42
238.556	5.88
238.772	5.1
238.988	5.33
239.204	5.17
239.42	3.23
239.636	3.96
239.853	3.94
240.069	3.29
240.285	2.97
240.501	3.14
240.717	4.13
240.933	3.98
241.149	4.3
241.365	4.14
241.581	3.8
241.797	4.3
242.013	4.47
242.229	3.96
242.445	3.93
242.661	3.92
242.877	4.23
243.093	4.31
243.309	4.33
243.525	4.25
243.741	4.73
243.957	4.61
244.173	4.06
244.388	3.78
244.604	3.91
244.82	3.82
245.036	3.8
245.252	3.78
245.468	3.45
245.683	4.3
245.899	4.68
246.115	4.11
246.331	4.2
246.547	4.4
246.762	4.75
246.978	5.13
247.194	5.2
247.409	5.16
247.625	5.2
247.841	5.27
248.057	5.07
248.272	4.87
248.488	4.96
248.703	5
248.919	5.09
249.135	4.93
249.35	4.65
249.566	4.48
249.782	4.99
249.997	4.69
250.213	4.48
250.428	5
250.644	5.25
250.859	5.33
251.075	5.57
251.29	5.57
251.506	5.69
251.721	5.47
251.937	4.89
252.152	4.63
252.368	4.67
252.583	4.88
252.798	3.45
253.014	3.36
253.229	3.48
253.445	3.56
253.66	3.71
253.875	2.94
254.091	2.28
254.306	2.97
254.521	2.05
254.737	2.14
254.952	1.61
255.167	3.27
255.383	3.21
255.598	3.78
255.813	3.82
256.028	3.8
256.244	4.48
256.459	5.42
256.674	4.99
256.889	4.5
257.104	4.22
257.32	3.7
257.535	3.2
257.75	2.5
257.965	1.75
258.18	1.71
258.395	1.75
258.61	1.59
258.826	1.29
259.041	1.17
259.256	1.32
259.471	1.53
259.686	1.67
259.901	1.79
260.116	1.98
260.331	2.3
260.546	2.29
260.761	2.35
260.976	2.27
261.191	2.4
261.406	2.78
261.621	3.15
261.836	2.98
262.05	3.33
262.265	3.49
262.48	3.27
262.695	3.46
262.91	3.85
263.125	3.49
263.34	3.89
263.555	3.92
263.769	3.71
263.984	3.81
264.199	4.11
264.414	3.9
264.629	3.77
264.843	4.24
265.058	3.61
265.273	3.32
265.488	3.27
265.702	3.23
265.917	3.3
266.132	3.17
266.346	2.77
266.561	3.05
266.776	3.32
266.99	3.2
267.205	3.11
267.42	3.14
267.634	2.95
267.849	3.25
268.063	3.28
268.278	3.06
268.492	3.11
268.707	2.95
268.922	2.43
269.136	1.97
269.351	2.07
269.565	2.04
269.78	1.92
269.994	1.76
270.209	1.6
270.423	1.55
270.637	1.66
270.852	1.66
271.066	2.07
271.281	2.08
271.495	2.12
271.709	2.27
271.924	2.34
272.138	2.27
272.353	2.2
272.567	2.14
272.781	2.01
272.996	1.89
273.21	1.94
273.424	1.73
273.638	1.69
273.853	2.02
274.067	1.88
274.281	2.23
274.495	2.41
274.71	2.59
274.924	2.85
275.138	3.14
275.352	3.61
275.566	3.39
275.781	3.37
275.995	3.22
276.209	3.05
276.423	2.58
276.637	1.99
276.851	1.65
277.065	1.71
277.279	1.57
277.493	1.14
277.707	1.2
277.921	1.14
278.135	0.93
278.349	1.38
278.563	1.28
278.777	1.57
278.991	1.6
279.205	2.08
279.419	2.08
279.633	2.3
279.847	2.03
280.061	1.44
280.275	1.69
280.489	2.26
280.703	2.05
280.917	1.87
281.131	1.97
281.344	2.41
281.558	2.06
281.772	2.09
281.986	2.16
282.2	2.36
282.414	2.13
282.627	2.34
282.841	2.06
283.055	1.96
283.269	2.34
283.482	2.5
283.696	2.09
283.91	2.07
284.123	1.82
284.337	1.6
284.551	1.78
284.764	2.45
284.978	1.91
285.192	2.14
285.405	1.94
285.619	1.86
285.833	1.53
286.046	1.67
286.26	1.73
286.473	2.18
286.687	2
286.9	1.95
287.114	1.81
287.327	2.13
287.541	1.93
287.754	2.43
287.968	2.39
288.181	2.53
288.395	2.23
288.608	2.26
288.822	2.08
289.035	2.25
289.248	2.28
289.462	2.16
289.675	2.04
289.889	2.31
290.102	2.45
290.315	2.4
290.529	2.61
290.742	2.91
290.955	3.05
291.169	2.75
291.382	2.84
291.595	2.98
291.808	2.94
292.022	3.29
292.235	2.96
292.448	2.54
292.661	2.64
292.875	2.35
293.088	2.29
293.301	2.16
293.514	2.61
293.727	2.45
293.94	2.19
294.153	2.28
294.367	2.14
294.58	2.23
294.793	2.32
295.006	2.16
295.219	2.36
295.432	2.4
295.645	2.34
295.858	2.22
296.071	2.43
296.284	2.82
296.497	2.75
296.71	2.81
296.923	2.73
297.136	2.62
297.349	2.62
297.562	2.32
297.775	2.44
297.988	2.43
298.201	2.43
298.414	2.17
298.626	2.1
298.839	1.99
299.052	1.84
299.265	1.98
299.478	2.18
299.691	2.33
299.903	2.52
300.116	2.62
300.329	2.54
300.542	2.56
300.755	2.66
300.967	2.46
301.18	2.61
301.393	2.41
301.605	2.3
301.818	2.15
302.031	2.01
302.243	2.07
302.456	1.62
302.669	1.77
302.881	2.04
303.094	2.28
303.307	2.12
303.519	2.19
303.732	2.64
303.944	2.52
304.157	2.46
304.37	2.33
304.582	2.26
304.795	2.66
305.007	2.78
305.22	2.18
305.432	1.93
305.645	2.36
305.857	2.49
306.069	2
306.282	2.27
306.494	2.49
306.707	2.75
306.919	2.58
307.132	2.52
307.344	2.67
307.556	2.89
307.769	2.94
307.981	2.49
308.193	2.59
308.406	2.78
308.618	2.7
308.83	2.7
309.043	2.78
309.255	3.12
309.467	3.01
309.679	3.15
309.892	3.23
310.104	3.34
310.316	3.69
310.528	3.7
310.74	3.86
310.953	3.72
311.165	3.83
311.377	3.86
311.589	3.72
311.801	3.93
312.013	3.76
312.225	3.87
312.437	4.04
312.649	4.04
312.862	3.8
313.074	3.76
313.286	4.2
313.498	4.2
313.71	4.12
313.922	4.57
314.134	4.36
314.346	4.25
314.558	4.06
314.77	3.91
314.982	3.72
315.193	3.89
315.405	3.59
315.617	3.08
315.829	2.81
316.041	3.24
316.253	3.01
316.465	3.24
316.677	3.37
316.888	3.41
317.1	3.52
317.312	3.64
317.524	3.89
317.736	4.17
317.947	5
318.159	5.56
318.371	5.35
318.583	5.42
318.794	5.25
319.006	5.33
319.218	5.32
319.43	5.18
319.641	5.26
319.853	5.8
320.064	5.6
320.276	5.05
320.488	4.69
320.699	4.82
320.911	4.79
321.123	5.2
321.334	5.19
321.546	5.84
321.757	5.93
321.969	6.26
322.18	5.39
322.392	5.97
322.603	6.28
322.815	6.88
323.026	6.8
323.238	6.92
323.449	6.87
323.661	6.83
323.872	6.69
324.083	6.84
324.295	6.49
324.506	6.38
324.718	6.32
324.929	6.41
325.14	6.04
325.352	5.96
325.563	6.18
325.774	6.04
325.986	6.35
326.197	6.2
326.408	6.44
326.62	6.87
326.831	7.28
327.042	7.28
327.253	7.18
327.464	7.04
327.676	7.35
327.887	7.11
328.098	7.52
328.309	7.32
328.52	7.23
328.732	7.15
328.943	7.09
329.154	7.41
329.365	7.69
329.576	7.9
329.787	8.59
329.998	8.53
330.209	8.89
330.42	8.72
330.631	8.81
330.842	9.31
331.053	9.53
331.264	9.48
331.475	9.29
331.686	9.79
331.897	9.99
332.108	9.98
332.319	10.42
332.53	10.07
332.741	10.11
332.952	10.29
333.163	10.57
333.374	10.5
333.585	10.59
333.795	10.46
334.006	9.96
334.217	9.73
334.428	9.97
334.639	9.52
334.849	9.96
335.06	10.26
335.271	10.12
335.482	9.64
335.692	9.69
335.903	9.76
336.114	10.22
336.325	10.36
336.535	10.44
336.746	10.24
336.957	10.65
337.167	10.35
337.378	10.02
337.589	10.54
337.799	10.99
338.01	10.99
338.22	11.37
338.431	11.09
338.642	10.82
338.852	11.19
339.063	10.99
339.273	10.78
339.484	11.28
339.694	11.44
339.905	10.96
340.115	10.68
340.326	10.62
340.536	10.09
340.746	9.76
340.957	9.93
341.167	9.71
341.378	9.64
341.588	9.56
341.799	9.42
342.009	9.17
342.219	9.36
342.43	9.3
342.64	9.25
342.85	9.45
343.061	9.96
343.271	10.19
343.481	10
343.691	10.19
343.902	10.11
344.112	9.93
344.322	9.95
344.532	9.79
344.743	9.67
344.953	9.7
345.163	9.66
345.373	9.43
345.583	9.37
345.793	9.53
346.004	9.44
346.214	9.51
346.424	9.5
346.634	9.49
346.844	9.63
347.054	9.76
347.264	9.6
347.474	9.54
347.684	9.87
347.894	9.81
348.104	9.82
348.314	9.65
348.524	9.72
348.734	9.89
348.944	10.32
349.154	10.29
349.364	10.48
349.574	10.58
349.784	10.46
349.994	10.41
350.204	10.51
350.413	10.72
350.623	10.99
350.833	10.84
351.043	10.65
351.253	10.33
351.463	10.26
351.672	10.21
351.882	10.3
352.092	10.19
352.302	10.15
352.511	9.85
352.721	9.54
352.931	9.28
353.141	9.4
353.35	9.45
353.56	9.32
353.77	9.15
353.979	8.95
354.189	8.97
354.399	9.09
354.608	8.74
354.818	8.86
355.027	8.93
355.237	9.13
355.447	9.4
355.656	9.53
355.866	9.62
356.075	9.75
356.285	9.68
356.494	9.5
356.704	9.61
356.913	9.72
357.123	9.57
357.332	9.41
357.542	9.45
357.751	9.14
357.96	9.03
358.17	8.99
358.379	8.98
358.589	9.11
358.798	8.93
359.007	8.94
359.217	8.86
359.426	9.09
359.635	9.34
359.845	9.1
360.054	9.26
360.263	9.34
360.472	9.25
360.682	9.23
360.891	9.25
361.1	9.42
361.309	9.28
361.519	9.24
361.728	9.01
361.937	8.89
362.146	9.08
362.355	8.96
362.564	8.9
362.774	9.06
362.983	9.04
363.192	8.96
363.401	8.97
363.61	9.15
363.819	9.33
364.028	9.52
364.237	9.51
364.446	9.43
364.655	9.35
364.864	9.25
365.073	9.05
365.282	9.21
365.491	9.16
365.7	9.13
365.909	8.84
366.118	8.77
366.327	8.9
366.536	8.87
366.745	9.01
366.954	9.2
367.162	9.39
367.371	9.61
367.58	9.7
367.789	9.7
367.998	9.58
368.207	9.89
368.415	9.91
368.624	9.49
368.833	9.57
369.042	9.43
369.25	9.31
369.459	9.01
369.668	8.77
369.877	8.47
370.085	8.49
370.294	8.66
370.503	8.48
370.711	8.3
370.92	8.5
371.129	8.4
371.337	8.01
371.546	7.76
371.754	7.75
371.963	7.84
372.171	7.81
372.38	7.78
372.589	7.64
372.797	7.69
373.006	7.97
373.214	7.91
373.423	7.81
373.631	8.05
373.84	8.28
374.048	8.41
374.256	8.56
374.465	8.6
374.673	8.8
374.882	8.78
375.09	8.78
375.298	8.72
375.507	8.77
375.715	8.98
375.923	9.08
376.132	9.16
376.34	9.12
376.548	8.93
376.757	8.91
376.965	8.75
377.173	8.74
377.381	8.84
377.59	8.52
377.798	8.62
378.006	8.44
378.214	8.41
378.423	8.2
378.631	8.21
378.839	8.27
379.047	8.16
379.255	8.17
379.463	8.22
379.671	8.06
379.879	8.34
380.088	8.19
380.296	8.18
380.504	7.97
380.712	8.1
380.92	7.87
381.128	7.84
381.336	8.14
381.544	8.14
381.752	8.02
381.96	7.91
382.168	7.94
382.376	7.9
382.584	7.98
382.791	8.1
382.999	8.05
383.207	8.29
383.415	8.22
383.623	8.05
383.831	8.05
384.039	8.24
384.247	8.3
384.454	8.2
384.662	8.15
384.87	8.02
385.078	8.03
385.285	8.07
385.493	7.97
385.701	7.95
385.909	7.89
386.116	7.9
386.324	7.92
386.532	7.94
386.739	7.93
386.947	7.9
387.155	8.17
387.362	8.36
387.57	8.22
387.778	8.1
387.985	8.09
388.193	8.11
388.4	8.06
388.608	7.94
388.816	7.92
389.023	7.96
389.231	7.95
389.438	7.82
389.646	7.64
389.853	7.77
390.061	7.87
390.268	7.9
390.475	7.96
390.683	7.99
390.89	7.97
391.098	7.9
391.305	7.85
391.512	7.97
391.72	7.65
391.927	7.66
392.135	7.69
392.342	7.63
392.549	7.77
392.756	7.83
392.964	7.85
393.171	7.96
393.378	8.15
393.586	8.1
393.793	8.08
394	8.37
394.207	8.29
394.414	8.35
394.622	8.39
394.829	8.24
395.036	8.12
395.243	8.15
395.45	8.12
395.657	7.97
395.864	8.11
396.072	8.11
396.279	8.04
396.486	8.06
396.693	7.95
396.9	8.14
397.107	8.25
397.314	8.25
397.521	8.28
397.728	8.18
397.935	8.12
398.142	8.03
398.349	8.05
398.556	7.99
398.763	7.81
398.97	7.89
399.177	7.82
399.383	7.77
399.59	7.8
399.797	7.6
400.004	7.78
400.211	7.93
400.418	7.93
400.625	7.88
400.831	8.12
401.038	8.26
401.245	8.05
401.452	8
401.658	7.98
401.865	7.95
402.072	7.88
402.279	7.75
402.485	7.73
402.692	7.74
402.899	7.7
403.105	7.59
403.312	7.59
403.519	7.65
403.725	7.59
403.932	7.73
404.138	7.78
404.345	7.92
404.552	7.98
404.758	7.93
404.965	7.91
405.171	7.95
405.378	7.93
405.584	7.86
405.791	7.84
405.997	7.8
406.204	7.59
406.41	7.49
406.617	7.33
406.823	7.24
407.029	7.22
407.236	7.14
407.442	7.14
407.649	7.17
407.855	7.29
408.061	7.39
408.268	7.57
408.474	7.64
408.68	7.71
408.887	8.02
409.093	8.08
409.299	8.04
409.505	8
409.712	7.94
409.918	7.72
410.124	7.84
410.33	7.84
410.537	7.77
410.743	7.86
410.949	7.84
411.155	7.64
411.361	7.63
411.567	7.64
411.773	7.86
411.98	7.85
412.186	7.96
412.392	7.84
412.598	7.85
412.804	7.93
413.01	7.81
413.216	7.83
413.422	7.99
413.628	8.1
413.834	8.13
414.04	8.07
414.246	8.26
414.452	8.43
414.658	8.44
414.864	8.3
415.07	8.28
415.275	8.36
415.481	8.48
415.687	8.4
415.893	8.41
416.099	8.54
416.305	8.65
416.511	8.58
416.716	8.55
416.922	8.59
417.128	8.74
417.334	8.78
417.539	8.71
417.745	8.66
417.951	8.8
418.157	8.8
418.362	8.68
418.568	8.55
418.774	8.61
418.979	8.61
419.185	8.63
419.391	8.62
419.596	8.6
419.802	8.6
420.008	8.62
420.213	8.64
420.419	8.58
420.624	8.67
420.83	8.72
421.035	8.65
421.241	8.67
421.446	8.7
421.652	8.72
421.857	8.75
422.063	8.88
422.268	8.88
422.474	8.85
422.679	8.91
422.885	8.91
423.09	8.89
423.295	8.87
423.501	8.84
423.706	8.79
423.911	8.77
424.117	8.79
424.322	8.79
424.527	8.77
424.733	8.76
424.938	8.72
425.143	8.76
425.349	8.87
425.554	8.95
425.759	9.01
425.964	9.04
426.169	9.01
426.375	9.01
426.58	8.97
426.785	9.06
426.99	9.05
427.195	9.07
427.4	9.04
427.605	9.05
427.811	9.05
428.016	9.07
428.221	9.15
428.426	9.19
428.631	9.22
428.836	9.09
429.041	9
429.246	8.99
429.451	9.06
429.656	9.1
429.861	9.01
430.066	9.01
430.271	9.06
430.476	9.07
430.681	9.14
430.886	9.13
431.09	9.31
431.295	9.41
431.5	9.41
431.705	9.39
431.91	9.32
432.115	9.33
432.32	9.39
432.524	9.28
432.729	9.26
432.934	9.24
433.139	9.35
433.343	9.29
433.548	9.3
433.753	9.28
433.958	9.39
434.162	9.58
434.367	9.64
434.572	9.66
434.776	9.81
434.981	9.91
435.186	9.99
435.39	9.95
435.595	10.04
435.799	10.13
436.004	10.19
436.209	10.13
436.413	9.98
436.618	9.93
436.822	9.86
437.027	10.01
437.231	10
437.436	9.82
437.64	9.75
437.845	9.74
438.049	9.66
438.253	9.68
438.458	9.71
438.662	9.81
438.867	9.91
439.071	9.88
439.275	9.71
439.48	9.67
439.684	9.83
439.888	9.9
440.093	9.87
440.297	9.83
440.501	9.81
440.706	9.86
440.91	9.82
441.114	9.74
441.318	9.81
441.523	9.79
441.727	9.81
441.931	9.71
442.135	9.65
442.339	9.69
442.543	9.68
442.748	9.8
442.952	9.8
443.156	9.84
443.36	10.01
443.564	9.96
443.768	10.04
443.972	10.08
444.176	10.06
444.38	10.08
444.584	10.12
444.788	10.24
444.992	10.17
445.196	10.2
445.4	10.14
445.604	10
445.808	10.06
446.012	10.07
446.216	10.01
446.42	10.11
446.624	10.1
446.828	10.08
447.032	9.99
447.235	9.97
447.439	9.92
447.643	9.89
447.847	9.9
448.051	9.86
448.254	9.84
448.458	9.88
448.662	9.87
448.866	9.92
449.069	9.98
449.273	10.03
449.477	10.05
449.681	10.1
449.884	10.17
450.088	10.21
450.292	10.26
450.495	10.25
450.699	10.23
450.902	10.15
451.106	10.14
451.31	10.03
451.513	10.05
451.717	10.05
451.92	9.92
452.124	9.92
452.327	9.95
452.531	9.92
452.734	9.97
452.938	10.02
453.141	10.11
453.345	10.02
453.548	10.01
453.752	9.98
453.955	9.99
454.158	10.14
454.362	10.07
454.565	10.06
454.769	10.04
454.972	9.97
455.175	9.95
455.379	9.9
455.582	9.98
455.785	9.96
455.988	10
456.192	9.85
456.395	9.74
456.598	9.8
456.801	9.75
457.005	9.8
457.208	9.83
457.411	9.82
457.614	9.89
457.817	9.92
458.021	9.98
458.224	9.97
458.427	10.04
458.63	10.06
458.833	10.01
459.036	10.07
459.239	10.04
459.442	10.07
459.645	10.04
459.848	10.02
460.051	10.01
460.254	9.97
460.457	9.95
460.66	9.98
460.863	9.92
461.066	9.94
461.269	9.98
461.472	10.03
461.675	9.99
461.878	10.03
462.081	9.95
462.284	9.9
462.486	10.02
462.689	10.04
462.892	10.05
463.095	10.12
463.298	10.17
463.5	10.11
463.703	10.03
463.906	10.04
464.109	10.14
464.311	10.15
464.514	10.23
464.717	10.13
464.92	10.12
465.122	10.13
465.325	10.16
465.528	10.19
465.73	10.23
465.933	10.36
466.135	10.33
466.338	10.21
466.541	10.24
466.743	10.15
466.946	10.11
467.148	10.08
467.351	10.03
467.553	9.92
467.756	9.87
467.958	9.87
468.161	9.84
468.363	9.85
468.566	9.98
468.768	9.95
468.971	10
469.173	10.08
469.375	10.1
469.578	10.11
469.78	10.25
469.983	10.26
470.185	10.27
470.387	10.2
470.59	10.26
470.792	10.22
470.994	10.31
471.196	10.37
471.399	10.37
471.601	10.39
471.803	10.41
472.005	10.4
472.208	10.39
472.41	10.24
472.612	10.24
472.814	10.29
473.016	10.23
473.218	10.27
473.421	10.22
473.623	10.32
473.825	10.37
474.027	10.39
474.229	10.48
474.431	10.47
474.633	10.52
474.835	10.49
475.037	10.42
475.239	10.47
475.441	10.4
475.643	10.47
475.845	10.42
476.047	10.36
476.249	10.4
476.451	10.27
476.653	10.23
476.855	10.28
477.057	10.38
477.258	10.35
477.46	10.33
477.662	10.33
477.864	10.28
478.066	10.21
478.268	10.25
478.469	10.15
478.671	10.11
478.873	10.21
479.075	10.2
479.276	10.17
479.478	10.23
479.68	10.24
479.882	10.25
480.083	10.21
480.285	10.32
480.487	10.3
480.688	10.45
480.89	10.54
481.091	10.55
481.293	10.54
481.495	10.53
481.696	10.56
481.898	10.53
482.099	10.54
482.301	10.56
482.502	10.5
482.704	10.51
482.905	10.45
483.107	10.41
483.308	10.42
483.51	10.45
483.711	10.44
483.913	10.43
484.114	10.41
484.315	10.42
484.517	10.4
484.718	10.41
484.92	10.38
485.121	10.37
485.322	10.41
485.524	10.36
485.725	10.36
485.926	10.39
486.127	10.36
486.329	10.39
486.53	10.36
486.731	10.36
486.932	10.34
487.134	10.37
487.335	10.4
487.536	10.34
487.737	10.38
487.938	10.32
488.139	10.34
488.341	10.35
488.542	10.37
488.743	10.39
488.944	10.4
489.145	10.4
489.346	10.42
489.547	10.44
489.748	10.46
489.949	10.47
490.15	10.47
490.351	10.49
490.552	10.52
490.753	10.49
490.954	10.53
491.155	10.55
491.356	10.57
491.557	10.55
491.758	10.57
491.959	10.58
492.159	10.56
492.36	10.57
492.561	10.53
492.762	10.52
492.963	10.53
493.164	10.47
493.364	10.47
493.565	10.47
493.766	10.5
493.967	10.49
494.167	10.45
494.368	10.53
494.569	10.55
494.769	10.51
494.97	10.47
495.171	10.5
495.371	10.51
495.572	10.51
495.773	10.6
495.973	10.58
496.174	10.58
496.375	10.63
496.575	10.59
496.776	10.6
496.976	10.68
497.177	10.73
497.377	10.73
497.578	10.75
497.778	10.81
497.979	10.72
498.179	10.73
498.38	10.76
498.58	10.78
498.78	10.79
498.981	10.82
499.181	10.8
499.382	10.78
499.582	10.82
499.782	10.83
499.983	10.68
500.183	10.82
500.383	10.82
500.584	10.69
500.784	10.73
500.984	10.66
501.184	10.66
501.385	10.62
501.585	10.64
501.785	10.59
501.985	10.55
502.185	10.67
502.386	10.58
502.586	10.66
502.786	10.79
502.986	10.74
503.186	10.81
503.386	10.78
503.586	10.79
503.786	10.82
503.987	10.89
504.187	10.95
504.387	10.93
504.587	10.88
504.787	10.89
504.987	10.81
505.187	10.82
505.387	10.89
505.587	11.03
505.786	11.05
505.986	11.04
506.186	10.93
506.386	10.92
506.586	10.98
506.786	11.12
506.986	11.06
507.186	11.19
507.386	11.24
507.585	11.25
507.785	11.18
507.985	11.24
508.185	11.27
508.384	11.31
508.584	11.32
508.784	11.31
508.984	11.3
509.183	11.37
509.383	11.35
509.583	11.36
509.782	11.3
509.982	11.35
510.182	11.36
510.381	11.34
510.581	11.43
510.781	11.51
510.98	11.6
511.18	11.58
511.379	11.55
511.579	11.59
511.778	11.57
511.978	11.66
512.177	11.72
512.377	11.75
512.576	11.79
512.776	11.76
512.975	11.79
513.175	11.73
513.374	11.76
513.573	11.83
513.773	11.81
513.972	11.89
514.172	11.98
514.371	11.9
514.57	11.94
514.77	11.99
514.969	12.11
515.168	12.11
515.367	12.13
515.567	12.23
515.766	12.29
515.965	12.36
516.164	12.33
516.364	12.35
516.563	12.46
516.762	12.51
516.961	12.56
517.16	12.51
517.359	12.49
517.559	12.49
517.758	12.48
517.957	12.5
518.156	12.46
518.355	12.48
518.554	12.48
518.753	12.45
518.952	12.42
519.151	12.52
519.35	12.55
519.549	12.61
519.748	12.69
519.947	12.73
520.146	12.78
520.345	12.9
520.544	12.95
520.743	12.93
520.942	13
521.141	13.06
521.339	12.97
521.538	13
521.737	13.02
521.936	12.97
522.135	12.94
522.333	12.92
522.532	12.9
522.731	13
522.93	13.09
523.129	13.13
523.327	13.13
523.526	13.23
523.725	13.31
523.923	13.34
524.122	13.4
524.321	13.47
524.519	13.49
524.718	13.56
524.917	13.55
525.115	13.6
525.314	13.69
525.512	13.75
525.711	13.77
525.909	13.8
526.108	13.86
526.306	13.93
526.505	14.03
526.703	14.08
526.902	14.13
527.1	14.19
527.299	14.23
527.497	14.22
527.696	14.26
527.894	14.32
528.092	14.34
528.291	14.36
528.489	14.41
528.688	14.43
528.886	14.47
529.084	14.48
529.283	14.51
529.481	14.55
529.679	14.59
529.877	14.59
530.076	14.63
530.274	14.66
530.472	14.75
530.67	14.79
530.869	14.82
531.067	14.89
531.265	14.98
531.463	15.09
531.661	15.15
531.859	15.27
532.057	15.38
532.255	15.41
532.454	15.52
532.652	15.51
532.85	15.53
533.048	15.58
533.246	15.65
533.444	15.66
533.642	15.7
533.84	15.73
534.038	15.77
534.236	15.82
534.434	15.88
534.632	15.93
534.83	15.98
535.027	16.09
535.225	16.11
535.423	16.2
535.621	16.29
535.819	16.33
536.017	16.41
536.215	16.49
536.412	16.49
536.61	16.48
536.808	16.54
537.006	16.65
537.203	16.67
537.401	16.74
537.599	16.77
537.797	16.84
537.994	16.93
538.192	17
538.39	17.03
538.587	17.21
538.785	17.41
538.983	17.51
539.18	17.57
539.378	17.73
539.575	17.87
539.773	17.92
539.97	17.97
540.168	18
540.366	18.04
540.563	18.11
540.761	18.12
540.958	18.13
541.155	18.18
541.353	18.22
541.55	18.28
541.748	18.26
541.945	18.32
542.143	18.35
542.34	18.45
542.537	18.5
542.735	18.53
542.932	18.62
543.129	18.71
543.327	18.78
543.524	18.95
543.721	19.08
543.919	19.31
544.116	19.46
544.313	19.65
544.51	19.84
544.708	20.11
544.905	20.31
545.102	20.52
545.299	20.72
545.496	20.84
545.693	20.89
545.891	20.89
546.088	20.9
546.285	20.96
546.482	20.87
546.679	20.79
546.876	20.67
547.073	20.64
547.27	20.54
547.467	20.4
547.664	20.35
547.861	20.27
548.058	20.2
548.255	20.11
548.452	19.99
548.649	20.07
548.846	20.08
549.043	20.06
549.24	20.07
549.437	20.13
549.633	20.16
549.83	20.1
550.027	20.1
550.224	20.1
550.421	20.1
550.618	20.06
550.814	19.9
551.011	19.88
551.208	19.84
551.405	19.71
551.601	19.66
551.798	19.69
551.995	19.72
552.191	19.76
552.388	19.82
552.585	19.79
552.781	19.86
552.978	19.92
553.175	19.92
553.371	19.96
553.568	19.96
553.764	19.89
553.961	19.98
554.157	19.85
554.354	19.77
554.55	19.69
554.747	19.73
554.943	19.67
555.14	19.66
555.336	19.62
555.533	19.43
555.729	19.54
555.926	19.53
556.122	19.35
556.318	19.54
556.515	19.7
556.711	19.73
556.907	19.72
557.104	19.73
557.3	19.79
557.496	19.8
557.693	19.94
557.889	19.89
558.085	19.82
558.281	19.92
558.478	19.92
558.674	19.81
558.87	19.87
559.066	19.89
559.262	19.9
559.459	19.83
559.655	19.83
559.851	19.92
560.047	19.97
560.243	20.19
560.439	20.2
560.635	20.12
560.831	20.07
561.027	20.02
561.223	20.04
561.419	20.06
561.615	20.19
561.811	20.22
562.007	20.19
562.203	20.18
562.399	20.09
562.595	20.13
562.791	20.21
562.987	20.27
563.183	20.26
563.379	20.34
563.575	20.38
563.771	20.4
563.966	20.47
564.162	20.47
564.358	20.55
564.554	20.52
564.75	20.53
564.945	20.53
565.141	20.59
565.337	20.64
565.533	20.58
565.728	20.52
565.924	20.48
566.12	20.42
566.315	20.48
566.511	20.43
566.707	20.43
566.902	20.41
567.098	20.47
567.293	20.52
567.489	20.55
567.684	20.7
567.88	20.75
568.076	20.73
568.271	20.86
568.467	20.8
568.662	20.81
568.858	20.94
569.053	20.96
569.248	20.91
569.444	20.84
569.639	20.85
569.835	20.78
570.03	20.85
570.225	20.88
570.421	20.82
570.616	20.88
570.812	20.92
571.007	20.88
571.202	20.93
571.397	20.98
571.593	21.03
571.788	21.04
571.983	21.05
572.178	21.02
572.374	21.13
572.569	21.09
572.764	21.11
572.959	21.2
573.154	21.25
573.35	21.23
573.545	21.31
573.74	21.29
573.935	21.35
574.13	21.38
574.325	21.42
574.52	21.36
574.715	21.52
574.91	21.57
575.105	21.51
575.3	21.54
575.495	21.61
575.69	21.65
575.885	21.69
576.08	21.73
576.275	21.82
576.47	21.95
576.665	22.08
576.86	22.15
577.055	22.22
577.25	22.28
577.444	22.33
577.639	22.41
577.834	22.46
578.029	22.53
578.224	22.53
578.418	22.52
578.613	22.6
578.808	22.66
579.003	22.7
579.197	22.66
579.392	22.64
579.587	22.6
579.781	22.62
579.976	22.6
580.171	22.63
580.365	22.66
580.56	22.82
580.755	22.62
580.949	22.57
581.144	22.48
581.338	22.55
581.533	22.65
581.727	22.66
581.922	22.55
582.116	22.63
582.311	22.74
582.505	22.75
582.7	22.65
582.894	22.81
583.089	22.83
583.283	23
583.478	23.04
583.672	23.11
583.866	23.09
584.061	23.12
584.255	23.11
584.449	23.01
584.644	23.1
584.838	23.02
585.032	22.98
585.226	22.89
585.421	22.78
585.615	22.96
585.809	22.97
586.003	23.21
586.198	23.26
586.392	23.21
586.586	23.27
586.78	23.35
586.974	23.42
587.168	23.53
587.363	23.63
587.557	23.6
587.751	23.32
587.945	23.32
588.139	23.14
588.333	23.13
588.527	23.14
588.721	23.04
588.915	22.9
589.109	23.01
589.303	22.88
589.497	22.86
589.691	22.87
589.885	23.07
590.079	23.08
590.273	23.12
590.466	23.11
590.66	23.24
590.854	23.27
591.048	23.29
591.242	23.25
591.436	23.32
591.629	23.44
591.823	23.48
592.017	23.4
592.211	23.21
592.404	23.19
592.598	23.35
592.792	23.22
592.986	23.28
593.179	23.14
593.373	23.04
593.567	23.05
593.76	22.91
593.954	22.85
594.147	22.72
594.341	22.72
594.535	22.64
594.728	22.5
594.922	22.51
595.115	22.53
595.309	22.66
595.502	22.65
595.696	22.53
595.889	22.52
596.083	22.56
596.276	22.58
596.47	22.71
596.663	22.78
596.856	22.8
597.05	22.85
597.243	22.83
597.437	22.86
597.63	22.99
597.823	23.2
598.017	23.2
598.21	23.22
598.403	23.26
598.596	23.25
598.79	23.37
598.983	23.38
599.176	23.27
599.369	23.32
599.563	23.4
599.756	23.39
599.949	23.24
600.142	23.33
600.335	23.3
600.528	23.33
600.722	23.47
600.915	23.43
601.108	23.47
601.301	23.64
601.494	23.5
601.687	23.33
601.88	23.37
602.073	23.28
602.266	23.14
602.459	23.05
602.652	23.05
602.845	22.93
603.038	22.79
603.231	22.7
603.424	22.55
603.617	22.6
603.809	22.6
604.002	22.36
604.195	22.39
604.388	22.49
604.581	22.57
604.774	22.57
604.966	22.54
605.159	22.65
605.352	22.74
605.545	22.89
605.737	22.91
605.93	22.94
606.123	23.07
606.316	23.23
606.508	23.33
606.701	23.41
606.894	23.52
607.086	23.69
607.279	23.85
607.471	24.03
607.664	24.08
607.857	24.3
608.049	24.66
608.242	25.11
608.434	25.61
608.627	26.22
608.819	26.77
609.012	27.51
609.204	28.29
609.397	29.08
609.589	29.81
609.782	30.79
609.974	31.78
610.166	32.83
610.359	33.71
610.551	34.61
610.743	35.27
610.936	35.86
611.128	36.4
611.32	36.67
611.513	36.87
611.705	37.1
611.897	37.12
612.09	36.84
612.282	36.38
612.474	35.96
612.666	35.34
612.858	34.92
613.051	34.47
613.243	33.81
613.435	33.39
613.627	32.87
613.819	32.36
614.011	32.01
614.203	31.61
614.395	31.2
614.588	30.92
614.78	30.42
614.972	29.82
615.164	29.5
615.356	29.17
615.548	28.52
615.74	28.2
615.932	27.79
616.124	27.11
616.315	26.89
616.507	26.49
616.699	26.17
616.891	25.98
617.083	25.73
617.275	25.49
617.467	25.34
617.659	25.37
617.85	25.1
618.042	24.95
618.234	25.04
618.426	24.97
618.618	25
618.809	24.94
619.001	24.92
619.193	25.05
619.384	24.96
619.576	24.82
619.768	24.83
619.959	24.93
620.151	25.03
620.343	25.04
620.534	24.91
620.726	24.86
620.917	24.67
621.109	24.63
621.301	24.57
621.492	24.66
621.684	24.81
621.875	24.78
622.067	24.76
622.258	24.65
622.45	24.82
622.641	24.92
622.832	25.06
623.024	25.26
623.215	25.37
623.407	25.35
623.598	25.3
623.789	25.1
623.981	25.02
624.172	25.21
624.363	25.22
624.555	24.96
624.746	24.92
624.937	25
625.129	24.93
625.32	24.85
625.511	24.88
625.702	24.92
625.893	25.02
626.085	24.99
626.276	24.85
626.467	25
626.658	24.91
626.849	24.97
627.04	24.79
627.231	24.78
627.422	24.82
627.614	25.07
627.805	25.21
627.996	25.14
628.187	25.43
628.378	25.43
628.569	25.46
628.76	25.75
628.951	25.78
629.142	25.88
629.332	25.96
629.523	26.11
629.714	25.87
629.905	25.81
630.096	26.04
630.287	26.01
630.478	26.04
630.669	26.08
630.859	25.91
631.05	25.87
631.241	25.77
631.432	25.79
631.623	25.42
631.813	25.37
632.004	25.2
632.195	24.92
632.385	24.75
632.576	24.59
632.767	24.43
632.957	24.44
633.148	24.28
633.339	24.22
633.529	23.89
633.72	24
633.91	23.98
634.101	23.94
634.292	24.02
634.482	23.97
634.673	23.87
634.863	23.95
635.054	23.9
635.244	23.8
635.435	23.84
635.625	23.92
635.815	23.9
636.006	23.75
636.196	23.89
636.387	23.73
636.577	23.66
636.767	23.93
636.958	23.83
637.148	23.8
637.338	23.9
637.529	23.96
637.719	23.95
637.909	24.14
638.099	24.16
638.29	23.99
638.48	24
638.67	23.96
638.86	24.06
639.05	23.87
639.241	23.83
639.431	23.67
639.621	23.29
639.811	23.3
640.001	23.16
640.191	23.24
640.381	23.27
640.571	23.41
640.761	23.38
640.951	23.16
641.141	23.3
641.331	23.34
641.521	23.53
641.711	23.93
641.901	23.94
642.091	23.91
642.281	23.88
642.471	23.8
642.661	23.69
642.851	23.88
643.041	23.82
643.231	23.66
643.42	23.66
643.61	23.55
643.8	23.43
643.99	23.41
644.18	23.48
644.369	23.54
644.559	23.62
644.749	23.68
644.939	23.7
645.128	23.66
645.318	23.87
645.508	23.93
645.697	24.03
645.887	24.01
646.076	23.97
646.266	23.86
646.456	23.72
646.645	23.79
646.835	23.83
647.024	23.64
647.214	23.66
647.403	23.54
647.593	23.7
647.782	23.82
647.972	23.72
648.161	23.89
648.351	23.98
648.54	24.16
648.73	24.23
648.919	24.2
649.108	24.42
649.298	24.45
649.487	24.62
649.677	24.42
649.866	24.18
650.055	24.44
650.244	24.34
650.434	24.3
650.623	24.17
650.812	24.12
651.002	24.26
651.191	24.11
651.38	24.37
651.569	24.33
651.758	24.36
651.947	24.56
652.137	24.7
652.326	24.76
652.515	24.77
652.704	24.89
652.893	24.83
653.082	24.78
653.271	24.57
653.46	24.22
653.649	24.28
653.838	24.25
654.027	24.3
654.216	24.26
654.405	24.34
654.594	24.33
654.783	24.23
654.972	24.3
655.161	24.27
655.35	24.4
655.539	24.52
655.728	24.51
655.916	24.42
656.105	24.14
656.294	24.09
656.483	24.12
656.672	24.01
656.86	24.06
657.049	24.2
657.238	24.06
657.427	24.17
657.615	24.15
657.804	24.14
657.993	24.28
658.181	24.43
658.37	24.37
658.559	24.31
658.747	24.44
658.936	24.5
659.125	24.54
659.313	24.77
659.502	24.79
659.69	24.79
659.879	24.68
660.067	24.65
660.256	24.57
660.444	24.53
660.633	24.54
660.821	24.66
661.01	24.57
661.198	24.44
661.387	24.39
661.575	24.56
661.763	24.6
661.952	24.76
662.14	24.78
662.328	24.83
662.517	24.93
662.705	24.99
662.893	24.76
663.082	24.76
663.27	24.83
663.458	24.55
663.646	24.21
663.834	24.11
664.023	24.04
664.211	23.97
664.399	24.05
664.587	24.12
664.775	24.11
664.963	23.98
665.152	24.06
665.34	23.97
665.528	24.25
665.716	24.45
665.904	24.55
666.092	24.46
666.28	24.45
666.468	24.18
666.656	24.2
666.844	24.08
667.032	24.39
667.22	24.25
667.408	24.21
667.596	24.02
667.784	24.1
667.971	24.06
668.159	23.82
668.347	23.99
668.535	24.04
668.723	23.84
668.911	23.72
669.098	23.61
669.286	23.67
669.474	23.83
669.662	23.73
669.849	23.61
670.037	23.6
670.225	23.88
670.413	23.79
670.6	23.96
670.788	24.03
670.976	24.48
671.163	24.44
671.351	24.48
671.538	24.29
671.726	24.45
671.913	24.46
672.101	24.41
672.289	24.52
672.476	24.48
672.664	24.48
672.851	24.2
673.039	23.94
673.226	23.94
673.413	23.89
673.601	23.86
673.788	23.85
673.976	23.75
674.163	23.88
674.35	23.62
674.538	23.76
674.725	23.93
674.912	24.2
675.1	23.97
675.287	23.97
675.474	24.04
675.662	24.13
675.849	24.14
676.036	24.07
676.223	24.14
676.411	24.29
676.598	24.21
676.785	24.06
676.972	24.18
677.159	24.68
677.346	24.99
677.533	25.04
677.721	24.8
677.908	24.89
678.095	25.07
678.282	25.16
678.469	25.03
678.656	24.92
678.843	24.91
679.03	24.83
679.217	24.56
679.404	24.38
679.591	24.21
679.778	24.37
679.964	24.24
680.151	24.19
680.338	24.13
680.525	24.3
680.712	24.49
680.899	24.58
681.086	24.61
681.272	24.6
681.459	24.35
681.646	24.47
681.833	24.68
682.02	24.59
682.206	24.47
682.393	24.25
682.58	24.36
682.766	24.25
682.953	23.94
683.14	23.81
683.326	23.82
683.513	24.05
683.7	24.2
683.886	23.97
684.073	24.24
684.259	24.42
684.446	24.78
684.632	24.7
684.819	24.86
685.005	25.32
685.192	25.51
685.378	25.42
685.565	25.33
685.751	25.29
685.938	25.36
686.124	25.22
686.31	25.4
686.497	25.21
686.683	25.11
686.87	25.11
687.056	25.08
687.242	25
687.429	25.15
687.615	25.24
687.801	25.04
687.987	25
688.174	25.24
688.36	24.99
688.546	24.86
688.732	24.77
688.918	24.91
689.105	24.52
689.291	24.49
689.477	24.31
689.663	24.13
689.849	24.28
690.035	24.24
690.221	24.18
690.407	24.44
690.593	24.73
690.779	24.73
690.965	24.54
691.151	24.84
691.337	24.8
691.523	24.75
691.709	25.1
691.895	25.31
692.081	25.37
692.267	25.24
692.453	25.06
692.639	24.9
692.825	25.08
693.011	25.02
693.196	24.87
693.382	24.87
693.568	25.09
693.754	24.95
693.94	24.46
694.125	24.7
694.311	24.71
694.497	24.71
694.682	24.6
694.868	24.44
695.054	24.66
695.239	24.63
695.425	24.64
695.611	24.71
695.796	24.42
695.982	24.38
696.168	24.06
696.353	23.95
696.539	24.09
696.724	23.85
696.91	23.95
697.095	23.64
697.281	23.64
697.466	23.58
697.652	23.52
697.837	23.82
698.023	23.97
698.208	23.91
698.393	24.03
698.579	23.99
698.764	24.09
698.949	24.01
699.135	23.98
699.32	24.2
699.505	24.06
699.691	24.07
699.876	24.12
700.061	23.93
700.246	24
700.432	23.85
700.617	23.98
700.802	24.36
700.987	24.54
701.172	24.84
701.358	24.47
701.543	24.92
701.728	24.71
701.913	24.46
702.098	25.08
702.283	25.28
702.468	25.54
702.653	25.52
702.838	25.04
703.023	25
703.208	25.11
703.393	25.33
703.578	25.06
703.763	25.43
703.948	25.32
704.133	25.16
704.318	25.36
704.503	25.47
704.688	25.29
704.873	25.91
705.057	26.16
705.242	26.25
705.427	26.61
705.612	27.17
705.797	27.48
705.981	28.18
706.166	28.36
706.351	28.07
706.536	28.46
706.72	28.38
706.905	28.42
707.09	28.37
707.274	28.56
707.459	28.75
707.644	28.82
707.828	28.43
708.013	28.14
708.197	28.08
708.382	28.23
708.567	27.85
708.751	28.11
708.936	27.63
709.12	27.48
709.305	27.15
709.489	26.85
709.673	26.73
709.858	27.1
710.042	27.33
710.227	27.5
710.411	27.65
710.596	27.82
710.78	27.96
710.964	27.99
711.149	28.16
711.333	27.87
711.517	27.96
711.702	27.6
711.886	27.48
712.07	27.66
712.254	27.1
712.438	26.92
712.623	26.54
712.807	26.14
712.991	26.27
713.175	26.11
713.359	26.22
713.544	25.91
713.728	25.86
713.912	25.77
714.096	25.48
714.28	25.2
714.464	25.2
714.648	24.98
714.832	24.79
715.016	24.65
715.2	24.49
715.384	24.32
715.568	24.49
715.752	24.31
715.936	24.07
716.12	23.68
716.304	23.91
716.488	23.46
716.671	23.45
716.855	23.49
717.039	23.45
717.223	23.41
717.407	23.45
717.59	22.99
717.774	23.09
717.958	22.93
718.142	22.81
718.325	23.04
718.509	23.19
718.693	23.45
718.877	23.7
719.06	23.88
719.244	23.84
719.428	23.62
719.611	23.91
719.795	23.61
719.978	23.55
720.162	23.77
720.345	23.69
720.529	24.11
720.713	24.14
720.896	24.44
721.08	24.51
721.263	24.43
721.446	25.12
721.63	24.76
721.813	25.15
721.997	25.01
722.18	25.18
722.364	25.12
722.547	25.18
722.73	25.47
722.914	24.95
723.097	24.39
723.28	24.31
723.464	23.3
723.647	23.55
723.83	23.24
724.013	23.37
724.197	22.96
724.38	23.09
724.563	22.93
724.746	22.53
724.929	22.69
725.112	22.83
725.296	23.26
725.479	24.16
725.662	24.19
725.845	24.49
726.028	24.65
726.211	25.02
726.394	25.33
726.577	24.74
726.76	24.78
726.943	24.54
727.126	25.05
727.309	24.51
727.492	24.12
727.675	23.72
727.858	23.49
728.041	23.82
728.224	23.92
728.407	23.68
728.589	24.18
728.772	24.1
728.955	24.34
729.138	24.04
729.321	24.33
729.503	24.41
729.686	24.98
729.869	25.44
730.052	24.9
730.234	24.31
730.417	23.87
730.6	23.72
730.782	23.85
730.965	23.85
731.148	24.31
731.33	24.3
731.513	24.16
731.695	23.54
731.878	23.43
732.061	23.66
732.243	23.96
732.426	24.24
732.608	24.42
732.791	24.7
732.973	24.41
733.156	23.97
733.338	23.83
733.52	24.12
733.703	24.84
733.885	24.26
734.068	24.21
734.25	24.23
734.432	24.43
734.615	24.13
734.797	23.75
734.979	23.91
735.162	23.99
735.344	23.99
735.526	23.52
735.708	23.16
735.891	23.5
736.073	23.57
736.255	23.83
736.437	23.39
736.619	24.29
736.802	24.56
736.984	24.28
737.166	24.26
737.348	24.94
737.53	25.28
737.712	25.57
737.894	25.92
738.076	26.45
738.258	26.17
738.44	26.13
738.622	25.53
738.804	25.3
738.986	25.79
739.168	25.75
739.35	25.44
739.532	25.26
739.714	24.91
739.896	24.51
740.078	23.88
740.259	23.63
740.441	23.56
740.623	23.58
740.805	23.75
740.987	23.54
741.168	23.16
741.35	23.17
741.532	23.65
741.714	23.88
741.895	24.56
742.077	24.75
742.259	24.95
742.44	25.02
742.622	24.8
742.804	24.48
742.985	24.83
743.167	25.34
743.348	25.41
743.53	25.06
743.711	24.99
743.893	24.3
744.075	24.51
744.256	24.44
744.438	25.04
744.619	25.07
744.8	25.65
744.982	25.08
745.163	25.04
745.345	24.68
745.526	25.46
745.707	25.98
745.889	26.44
746.07	26.38
746.252	26.28
746.433	26.29
746.614	26.36
746.795	26.03
746.977	25.65
747.158	25.29
747.339	25.22
747.52	24.43
747.702	23.66
747.883	23.29
748.064	23.26
748.245	23.49
748.426	22.88
748.607	22.81
748.788	23.19
748.97	23.35
749.151	23.82
749.332	24.04
749.513	24.36
749.694	24.46
749.875	24.94
750.056	25.1
750.237	25.04
750.418	25.19
750.599	25.3
750.78	25.25
750.96	25.47
751.141	25.85
751.322	25.94
751.503	25.82
751.684	26.04
751.865	25.51
752.046	25.17
752.226	25.36
752.407	25.59
752.588	25.42
752.769	25.14
752.949	25.39
753.13	24.46
753.311	25.09
753.492	24.89
753.672	24.37
753.853	24.53
754.034	24.99
754.214	25.15
754.395	25.25
754.575	25.15
754.756	24.8
754.937	25.04
755.117	24.83
755.298	23.82
755.478	23.52
755.659	24.22
755.839	24.7
756.02	24.35
756.2	24.25
756.381	24.11
756.561	24.08
756.741	24.34
756.922	24.24
757.102	25.14
757.283	25.45
757.463	25.67
757.643	25.21
757.823	24.83
758.004	25.7
758.184	25.62
758.364	25.47
758.545	25.54
758.725	24.73
758.905	24.46
759.085	24.19
759.265	23.35
759.446	23.66
759.626	23.85
759.806	23.36
759.986	22.35
760.166	22.7
760.346	22.39
760.526	22.17
760.706	22.52
760.886	22.71
761.066	22.4
761.246	23.41
761.426	23.52
761.606	23.32
761.786	23.66
761.966	24.24
762.146	23.59
762.326	24.03
762.506	24.08
762.686	24.65
762.866	24.66
763.046	24.54
763.225	24.35
763.405	23.58
763.585	23.88
763.765	24.1
763.945	23.46
764.124	23.63
764.304	23.47
764.484	23.4
764.664	23.19
764.843	23.25
765.023	23.49
765.203	23.42
765.382	24.08
765.562	24.33
765.741	24.17
765.921	24.52
766.101	24.44
766.28	24.22
766.46	24.29
766.639	24.09
766.819	23.9
766.998	23.94
767.178	24.31
767.357	24.26
767.537	23.93
767.716	23.71
767.896	23.79
768.075	23.98
768.254	24.37
768.434	24.83
768.613	25.49
768.792	25.39
768.972	25.42
769.151	25.17
769.33	25.15
769.51	25.06
769.689	24.97
769.868	25.53
770.047	25.75
770.226	25.78
770.406	25.29
770.585	24.98
770.764	25.05
770.943	25.15
771.122	24.99
771.301	24.69
771.48	24.84
771.66	24.76
771.839	23.85
772.018	23.28
772.197	23.2
772.376	23.86
772.555	23.77
772.734	23.86
772.913	23.92
773.092	24.08
773.271	23.8
773.449	23.6
773.628	24.19
773.807	24.29
773.986	24.9
774.165	24.65
774.344	23.72
774.523	23.44
774.701	23.35
774.88	23.43
775.059	23.62
775.238	24.24
775.417	24.34
775.595	24.39
775.774	24.83
775.953	24.31
776.131	25.16
776.31	26.25
776.489	26.14
776.667	25.43
776.846	25.86
777.025	24.84
777.203	24.31
777.382	23.87
777.56	22.89
777.739	23.43
777.917	24.13
778.096	23.32
778.274	22.97
778.453	23.99
778.631	25.19
778.81	24.06
778.988	25.54
779.166	26.11
779.345	26.54
779.523	27.89
779.702	26.68
779.88	27.13
780.058	28.36
780.237	28.23
780.415	27.34
780.593	26.66
780.771	27.31
780.95	26.16
781.128	26.24
781.306	25.5
781.484	24.55
781.662	25.36
781.841	24.95
782.019	24.42
782.197	24.57
782.375	24.19
782.553	24.89
782.731	24.68
782.909	24.89
783.087	24.76
783.265	25.36
783.443	25.08
783.621	24.55
783.799	23.9
783.977	23.37
784.155	23.28
784.333	24.23
784.511	23.24
784.689	23.03
784.867	23.29
785.045	23.01
785.223	23.2
785.4	23.37
785.578	23.67
785.756	23.87
785.934	24.69
786.112	24.59
786.289	23.59
786.467	23.27
786.645	23.04
786.823	22.45
787	22.34
787.178	22.29
787.356	22.76
787.533	22.2
787.711	22.61
787.889	21.44
788.066	20.7
788.244	20.41
788.421	21.41
788.599	20.87
788.776	20.86
788.954	21.25
789.131	21.5
789.309	21.14
789.486	22.02
789.664	21.97
789.841	22.21
790.019	23.45
790.196	24.13
790.373	24
790.551	25.22
790.728	26.49
790.906	26.58
791.083	26.51
791.26	26.9
791.437	26.03
791.615	26.83
791.792	26.44
791.969	26.19
792.146	27.01
792.324	27.27
792.501	28.22
792.678	28.02
792.855	27.92
793.032	28.16
793.209	27.74
793.387	27.86
793.564	26.71
793.741	26.78
793.918	27.04
794.095	25.97
794.272	25.29
794.449	24.95
794.626	24.25
794.803	24.02
794.98	22.88
795.157	23.38
795.334	22.66
795.511	22.88
795.688	23.37
795.864	23.31
796.041	22.79
796.218	22.43
796.395	21.24
796.572	21.52
796.749	22.05
796.925	22.33
797.102	21.98
797.279	22.75
797.456	22.66
797.632	23.27
797.809	22.97
797.986	23.84
798.162	24.43
798.339	24.88
798.516	24.4
798.692	24.01
798.869	24.04
799.046	23.92
799.222	23.63
799.399	22.84
799.575	21.11
799.752	20.42
799.928	20.85
800.105	21.26
800.281	21.94
800.458	22.63
800.634	22.14
800.811	22.24
800.987	21.74
801.163	21.61
801.34	22.71
801.516	24.6
801.692	25.16
801.869	24.7
802.045	23.77
802.221	22.68
802.398	21.92
802.574	23.27
802.75	24.25
802.926	25.6
803.103	25.97
803.279	26.33
803.455	25.89
803.631	26.98
803.807	27.71
803.983	27.87
804.16	29.48
804.336	30
804.512	29.07
804.688	28.51
804.864	27.43
805.04	29.08
805.216	28.21
805.392	28.13
805.568	26.07
805.744	26.19
805.92	26.85
806.096	25.02
806.272	24.92
806.448	24.41
806.623	25.14
806.799	25.29
806.975	23.27
807.151	23.22
807.327	23.58
807.503	24.02
807.678	23.35
807.854	22.44
808.03	23.74
808.206	24.14
808.381	25
808.557	22.43
808.733	23.61
808.908	24.13
809.084	24.11
809.26	22.86
809.435	22.86
809.611	22.91
809.787	23.99
809.962	23.39
810.138	22.43
810.313	21.97
810.489	23
810.664	22.3
810.84	21.41
811.015	22.36
811.191	23.6
811.366	23.92
811.542	23.1
811.717	22.81
811.892	22.15
812.068	22.68
812.243	22.46
812.419	22.27
812.594	22.07
812.769	23.38
812.944	22.04
813.12	20.59
813.295	21.08
813.47	22.49
813.645	22.92
813.821	22.54
813.996	22.74
814.171	23.89
814.346	24.35
814.521	25.46
814.697	24.9
814.872	25.55
815.047	25.38
815.222	23.75
815.397	23.21
815.572	23.39
815.747	23.87
815.922	24.24
816.097	23.8
816.272	22.88
816.447	21.14
816.622	21.28
816.797	22.02
816.972	23.21
817.147	23.55
817.322	24.11
817.496	23.52
817.671	23.73
817.846	22.87
818.021	22.6
818.196	22.3
818.371	23.71
818.545	24.05
818.72	23.17
818.895	22.39
819.069	23.3
819.244	21.9
819.419	21.73
819.594	21.75
819.768	21.91
819.943	22.1
820.117	21.82
820.292	21.01
820.467	20.81
820.641	20.7
820.816	20.69
820.99	20.57
821.165	20.43
821.339	20.12
821.514	20.21
821.688	20.13
821.863	19.87
822.037	20.28
822.212	20.22
822.386	20.22
822.56	20.19
822.735	20.25
822.909	20.1
823.084	20.26
823.258	20.48
823.432	20.21
823.606	20.17
823.781	20.24
823.955	20.15
824.129	20.29
824.303	20.25
824.478	20.33
824.652	20.18
824.826	20.42
825	20.43
825.174	20.01
825.348	20.35
825.523	20.48
825.697	20.91
825.871	21.13
826.045	21.28
826.219	21.47
826.393	21.33
826.567	21.82
826.741	21.57
826.915	21.35
827.089	21.71
827.263	21.24
827.437	21.28
827.611	20.99
827.784	20.58
827.958	20.06
828.132	19.39
828.306	19.51
828.48	19.15
828.654	19.09
828.827	19.16
829.001	18.68
829.175	18.51
829.349	17.53
829.522	17.31
829.696	17.84
829.87	18.82
830.044	19.23
830.217	18.98
830.391	18.26
830.565	19.33
830.738	19.66
830.912	20.32
831.085	21.17
831.259	23.15
831.432	23.01
831.606	23.16
831.779	22.35
831.953	21.82
832.126	21.46
832.3	22.15
832.473	22.03
832.647	21.49
832.82	21.38
832.994	20.74
833.167	21.03
833.34	21.86
833.514	21
833.687	20.85
833.86	21.26
834.034	21.02
834.207	21.13
834.38	20.57
834.553	21.12
834.727	20.38
834.9	20.55
835.073	19.48
835.246	19.58
835.419	20.82
835.593	20.6
835.766	21.27
835.939	21.07
836.112	21.52
836.285	20.78
836.458	20.02
836.631	21.16
836.804	21.2
836.977	21.61
837.15	20.82
837.323	17.48
837.496	18.31
837.669	17.39
837.842	19.45
838.015	18.02
838.188	19.02
838.361	19.51
838.533	19.48
838.706	21.43
838.879	21.24
839.052	22.22
839.225	23.55
839.398	21.92
839.57	21.43
839.743	19.65
839.916	20.44
840.088	21.5
840.261	21.31
840.434	23.26
840.607	22.77
840.779	24.16
840.952	23.43
841.124	24.89
841.297	25.29
841.47	24.66
841.642	26.05
841.815	25.06
841.987	27.18
842.16	27.9
842.332	26.97
842.505	24.73
842.677	25.18
842.85	25.64
843.022	25.68
843.194	26.9
843.367	27.48
843.539	26.28
843.712	28.01
843.884	25.96
844.056	25.18
844.229	24.81
844.401	30.34
844.573	27.08
844.745	28.49
844.918	28.93
845.09	29.1
845.262	31.67
845.434	31.95
845.606	32.53
845.779	31.55
845.951	31.56
846.123	29.26
846.295	28.13
846.467	29.58
846.639	27.39
846.811	28.33
846.983	26.97
847.155	27.88
847.327	30.44
847.499	26.05
847.671	26.63
847.843	25.33
848.015	26.69
848.187	26.2
848.359	26.27
848.531	26
848.703	23.93
848.875	25.12
849.047	26.1
849.218	25.46
849.39	30.03
849.562	28.37
849.734	29.68
849.905	28.42
850.077	28.77
850.249	29.39
850.421	28.62
850.592	30.58
850.764	28.54
850.936	24.67
851.107	25.11
851.279	25.67
851.451	26.39
851.622	25.77
851.794	25.55
851.965	26.69
852.137	26.69
852.308	27.87
852.48	26.21
852.651	27.44
852.823	30
852.994	27.56
853.166	26.01
853.337	28.32
853.509	33.16
853.68	35.99
853.851	34.27
854.023	37.39
854.194	36
854.365	34.51
854.537	35.05
854.708	34.33
854.879	32.96
855.05	32.45
855.222	31.47
855.393	30.73
855.564	29.49
855.735	28.09
855.906	24.71
856.078	27
856.249	26.64
856.42	26.17
856.591	25.28
856.762	27.11
856.933	30.36
857.104	30.66
857.275	29.16
857.446	34.99
857.617	36.63
857.788	38.61
857.959	35.86
858.13	39.14
858.301	42.25
858.472	42.05
858.643	45.6
858.814	44
858.985	38.41
859.155	35.61
859.326	32.52
859.497	32.14
859.668	30.19
859.839	32.46
860.009	32.39
860.18	28.09
860.351	31.57
860.522	31.92
860.692	27.29
860.863	30.34
861.034	29.42
861.204	27.82
861.375	27.92
861.546	23.5
861.716	22.7
861.887	21.49
862.057	19.82
862.228	16.3
862.398	10.65
862.569	14.68
862.739	15.16
862.91	18.02
863.08	16.44
863.251	19.93
863.421	22.36
863.592	27.57
863.762	27.61
863.932	30.31
864.103	28.06
864.273	30.05
864.443	29.8
864.614	29.65
864.784	29.55
864.954	32.88
865.125	29.08
865.295	32.03
865.465	25.13
865.635	29.9
865.805	29.07
865.976	31.37
866.146	32.34
866.316	36.09
866.486	38.51
866.656	38.92
866.826	37.5
866.996	38.28
867.166	35.84
867.336	37.27
867.506	31.55
867.676	30.71
867.846	29.11
868.016	31.36
868.186	25.03
868.356	23.01
868.526	22.42
868.696	25.81
868.866	26.08
869.036	32.92
869.206	38.53
869.376	41.13
869.545	41.65
869.715	41.99
869.885	36.26
870.055	40.09
870.224	37.04
870.394	38.66
870.564	34.36
870.734	35.93
870.903	30.15
871.073	25.84
871.243	20.99
871.412	24.71
871.582	26.19
871.751	27.19
871.921	28.25
872.091	32.65
872.26	31.34
872.43	28.3
872.599	28.99
872.769	26.87
872.938	26.19
873.108	28.23
873.277	27.32
873.446	27.01
873.616	25.94
873.785	21.13
873.955	21.51
874.124	21.05
874.293	25.77
874.463	23.86
874.632	28.07
874.801	29.88
874.971	28.93
875.14	27.94
875.309	26.36
875.478	30.38
875.647	37.03
875.817	35.77
875.986	35.6
876.155	34.23
876.324	32.4
876.493	30.51
876.662	30.86
876.831	31.88
877	30.85
877.17	32.89
877.339	27.71
877.508	21.08
877.677	18.42
877.846	17.16
878.015	15.3
878.184	13.32
878.352	14.22
878.521	15.02
878.69	12.05
878.859	13.05
879.028	12.38
879.197	14.11
879.366	16.74
879.534	20.41
879.703	20.46
879.872	21.03
880.041	21.77
880.21	22.31
880.378	18.82
880.547	19.89
880.716	19.42
880.884	18.91
881.053	18.99
881.222	18.43
881.39	17.78
881.559	17.6
881.727	17.62
881.896	18.29
882.065	17.26
882.233	17.37
882.402	16.89
882.57	17.41
882.739	17.25
882.907	17.26
883.076	17.2
883.244	17.03
883.412	16.87
883.581	16.79
883.749	15.9
883.918	15.91
884.086	16.38
884.254	17.31
884.423	16.87
884.591	18.11
884.759	18.83
884.927	19.93
885.096	20.33
885.264	20.35
885.432	20.66
885.6	22.72
885.769	23.93
885.937	23.48
886.105	24.42
886.273	25.54
886.441	23.17
886.609	21.57
886.777	22.04
886.945	23.54
887.113	25.67
887.281	26.48
887.449	25.45
887.617	26.83
887.785	30.13
887.953	29.14
888.121	31.63
888.289	34.73
888.457	36.09
888.625	35.05
888.793	31.97
888.961	34.42
889.129	34.64
889.296	31.28
889.464	31.02
889.632	29.97
889.8	28.78
889.967	24.26
890.135	20.53
