Data from 2938804__Reflection_03.txt Node
Date: Thu Mar 12 22:23:26 EDT 2015
User: robert
Spectrometer: USB4E03002
Autoset integration time: false
Trigger mode: 4
Integration Time (sec): 1.000000E-1
Scans to average: 10
Electric dark correction enabled: false
Nonlinearity correction enabled: false
Boxcar width: 5
Stray light correction enabled: false
XAxis mode: Wavelengths
Stop averaging: false
Number of Pixels in Spectrum: 3648
>>>>>Begin Spectral Data<<<<<
177.575	-1350.72
177.794	-3787.88
178.014	-1637.21
178.233	-2460.61
178.452	-1482.05
178.672	-1539.37
178.891	22190
179.11	1534.16
179.33	1300
179.549	823.66
179.768	2108.33
179.987	1005.08
180.207	1564.94
180.426	1492.07
180.645	1033.61
180.864	529.62
181.084	479.53
181.303	471.12
181.522	555.98
181.741	452.61
181.96	635.66
182.179	611.86
182.398	962.66
182.618	1706.3
182.837	2156.25
183.056	-7820.83
183.275	-471.83
183.494	-541.03
183.713	-540.51
183.932	-616.43
184.151	-400
184.37	-599.33
184.589	-1052.33
184.808	-925.6
185.027	1555.15
185.246	909.47
185.465	697.96
185.684	504.72
185.903	564.71
186.122	764.35
186.341	1997.52
186.56	1044.29
186.779	548.71
186.998	610.98
187.216	594.74
187.435	1247.8
187.654	922.03
187.873	701.05
188.092	729.17
188.311	444.52
188.53	573.3
188.748	434.9
188.967	385.79
189.186	618.85
189.405	584.13
189.623	609.07
189.842	659.37
190.061	1138.46
190.28	-5208.7
190.498	-13552.94
190.717	-3343.06
190.936	2565.63
191.154	1804.76
191.373	1204.19
191.592	714.79
191.81	772.16
192.029	633.14
192.248	682.94
192.466	497.55
192.685	447.61
192.904	662.5
193.122	915.96
193.341	916.38
193.559	711.74
193.778	17290.91
193.996	-763.86
194.215	-1268.42
194.433	-1579.67
194.652	-1964.71
194.87	-797.71
195.089	-1488.89
195.307	-2751.14
195.526	-42316.67
195.744	-1883.33
195.963	-1412.72
196.181	-1778.52
196.399	-2814.44
196.618	-1038.7
196.836	-596.39
197.055	-806.37
197.273	-5919.51
197.491	3591.94
197.71	1167.36
197.928	1717.36
198.146	649.15
198.365	485.78
198.583	405.86
198.801	334.38
199.019	242.66
199.238	253.57
199.456	289.3
199.674	349.63
199.892	408.76
200.111	672.78
200.329	629.84
200.547	767.71
200.765	971.72
200.983	1780.99
201.202	5928.57
201.42	2541.18
201.638	2650
201.856	521.8
202.074	431.85
202.292	460.94
202.51	367.03
202.728	379.67
202.946	387.98
203.165	334.79
203.383	364.39
203.601	325.93
203.819	409.85
204.037	383.1
204.255	841.41
204.473	1318.06
204.691	708.04
204.909	454.55
205.127	405.58
205.345	347.28
205.562	459.61
205.78	394.76
205.998	410.74
206.216	426.48
206.434	436.09
206.652	402.54
206.87	421.57
207.088	447.04
207.306	363.31
207.523	468.96
207.741	501.44
207.959	378.94
208.177	352.84
208.395	245.49
208.612	209.66
208.83	222.02
209.048	187.8
209.266	167.76
209.483	169.26
209.701	234.19
209.919	211.45
210.136	227.43
210.354	233.25
210.572	210.84
210.79	246.54
211.007	215.03
211.225	179.2
211.442	191.35
211.66	208.57
211.878	202.67
212.095	177.16
212.313	180.48
212.53	180.69
212.748	156.35
212.966	162.02
213.183	151.33
213.401	157.31
213.618	169.73
213.836	166.42
214.053	165.81
214.271	185.77
214.488	194.2
214.705	182.01
214.923	178.5
215.14	218.05
215.358	205.53
215.575	249.25
215.793	240.38
216.01	221.7
216.227	222.98
216.445	199.82
216.662	186.94
216.879	209.88
217.097	201.19
217.314	161.62
217.531	176.93
217.749	200.24
217.966	206.16
218.183	217.41
218.4	215.56
218.618	206.1
218.835	224.59
219.052	208.92
219.269	191.63
219.487	189.67
219.704	218.06
219.921	183.22
220.138	152.02
220.355	128.17
220.572	124.12
220.79	121.37
221.007	123.66
221.224	119.37
221.441	117.92
221.658	106.9
221.875	103.3
222.092	94.38
222.309	93.29
222.526	94.83
222.743	98.81
222.96	90.58
223.177	83.88
223.394	77.31
223.611	72.86
223.828	69.3
224.045	69.74
224.262	68.77
224.479	70.1
224.696	63.68
224.913	63.16
225.13	58.41
225.347	57.78
225.564	54.21
225.781	54.37
225.997	52.56
226.214	48.65
226.431	43
226.648	38.68
226.865	37.1
227.082	34.54
227.298	28.79
227.515	27.11
227.732	24.18
227.949	22.2
228.165	19.79
228.382	17.97
228.599	16.71
228.816	16.24
229.032	14.83
229.249	14.23
229.466	13.31
229.682	13.31
229.899	12.82
230.116	13.11
230.332	12.98
230.549	13.01
230.765	14.19
230.982	14.5
231.199	14.31
231.415	14.43
231.632	13.88
231.848	15.06
232.065	17.01
232.281	18.31
232.498	17.63
232.714	18.16
232.931	19.52
233.147	17.98
233.364	19.17
233.58	19.09
233.797	19.58
234.013	19.37
234.23	19.55
234.446	18.66
234.662	19.41
234.879	20.85
235.095	22.15
235.312	23.24
235.528	24.28
235.744	23.97
235.961	24.11
236.177	23.64
236.393	24.33
236.61	23.44
236.826	24.82
237.042	23.9
237.258	22.61
237.475	21.45
237.691	20.48
237.907	21.96
238.123	22.83
238.339	23.74
238.556	26.19
238.772	26.39
238.988	27.43
239.204	25.28
239.42	24.51
239.636	24.94
239.853	23.77
240.069	21.95
240.285	19.28
240.501	17.69
240.717	16.08
240.933	14.65
241.149	14.01
241.365	13.16
241.581	12.57
241.797	12.09
242.013	10.97
242.229	11.3
242.445	11.09
242.661	11.05
242.877	10.67
243.093	11.07
243.309	11.3
243.525	11.41
243.741	11.18
243.957	11.99
244.173	12.04
244.388	13
244.604	12.89
244.82	13.58
245.036	13.43
245.252	13.22
245.468	12.2
245.683	10.65
245.899	9.88
246.115	9.79
246.331	8.86
246.547	8.58
246.762	8.07
246.978	7.41
247.194	6.9
247.409	6.92
247.625	6.76
247.841	6.98
248.057	7.29
248.272	7.37
248.488	7.31
248.703	7.39
248.919	7.07
249.135	7.09
249.35	7.86
249.566	8.42
249.782	8.53
249.997	9.69
250.213	9.77
250.428	9.6
250.644	9.76
250.859	10.31
251.075	10.7
251.29	12.02
251.506	11.96
251.721	12.09
251.937	11.72
252.152	11.81
252.368	11.12
252.583	11.4
252.798	11.16
253.014	11.12
253.229	10.99
253.445	11.53
253.66	11.93
253.875	12.35
254.091	12.35
254.306	13.17
254.521	12.98
254.737	13
254.952	12.24
255.167	13.21
255.383	13.73
255.598	14.23
255.813	12.8
256.028	12.29
256.244	12.34
256.459	12.73
256.674	12
256.889	11.89
257.104	11.85
257.32	12.29
257.535	11.64
257.75	10.92
257.965	9.56
258.18	9.32
258.395	8.47
258.61	7.62
258.826	6.87
259.041	6.75
259.256	6.61
259.471	5.99
259.686	5.55
259.901	5.48
260.116	5.35
260.331	5.47
260.546	5.51
260.761	5.67
260.976	6.01
261.191	6.18
261.406	6.24
261.621	6.31
261.836	6.86
262.05	7.13
262.265	7.56
262.48	7.99
262.695	8.35
262.91	8.64
263.125	8.64
263.34	8.7
263.555	9.32
263.769	9.37
263.984	10.28
264.199	10.65
264.414	10.92
264.629	10.5
264.843	10.71
265.058	10.99
265.273	11.39
265.488	11.27
265.702	10.86
265.917	10.48
266.132	10.7
266.346	9.94
266.561	9.7
266.776	9.88
266.99	9.89
267.205	9.87
267.42	9.63
267.634	8.91
267.849	8.64
268.063	8.4
268.278	8.55
268.492	8.27
268.707	8.41
268.922	8.39
269.136	8.05
269.351	8.22
269.565	7.99
269.78	7.85
269.994	7.89
270.209	8.35
270.423	8.62
270.637	8.17
270.852	7.77
271.066	7.67
271.281	7.47
271.495	6.94
271.709	6.89
271.924	6.86
272.138	6.68
272.353	6.55
272.567	6.48
272.781	6.29
272.996	6.27
273.21	6.21
273.424	6.13
273.638	6.53
273.853	6.9
274.067	6.59
274.281	6.74
274.495	7.05
274.71	7.3
274.924	7.11
275.138	7.36
275.352	7.41
275.566	7.44
275.781	7.39
275.995	7.11
276.209	7.3
276.423	7.48
276.637	7.15
276.851	6.99
277.065	6.77
277.279	6.73
277.493	6.66
277.707	6.92
277.921	7.32
278.135	7.44
278.349	7.44
278.563	7.24
278.777	7.43
278.991	7.49
279.205	7.87
279.419	7.82
279.633	8.09
279.847	7.78
280.061	7.6
280.275	7.73
280.489	7.85
280.703	7.64
280.917	7.35
281.131	7.36
281.344	7.7
281.558	7.12
281.772	7.58
281.986	7.56
282.2	7.55
282.414	7.18
282.627	6.65
282.841	6.49
283.055	6.23
283.269	6.29
283.482	6.25
283.696	5.85
283.91	6.12
284.123	5.74
284.337	5.37
284.551	5.26
284.764	5.36
284.978	5.34
285.192	5.12
285.405	5.41
285.619	5.45
285.833	5.34
286.046	5.42
286.26	5.54
286.473	5.58
286.687	5.96
286.9	6.19
287.114	6.13
287.327	6.5
287.541	6.81
287.754	6.85
287.968	7.12
288.181	7.28
288.395	7.01
288.608	6.81
288.822	6.86
289.035	6.48
289.248	6.53
289.462	6.86
289.675	6.71
289.889	6.49
290.102	6.28
290.315	6.03
290.529	5.96
290.742	6.22
290.955	6.27
291.169	6.3
291.382	6.06
291.595	5.86
291.808	5.81
292.022	5.79
292.235	6.08
292.448	6.16
292.661	6.55
292.875	6.55
293.088	6.76
293.301	6.68
293.514	6.78
293.727	7.24
293.94	7.02
294.153	6.94
294.367	6.97
294.58	6.72
294.793	6.83
295.006	6.8
295.219	6.93
295.432	6.82
295.645	6.79
295.858	6.55
296.071	6.42
296.284	6.49
296.497	6.56
296.71	6.66
296.923	6.49
297.136	6.53
297.349	6.25
297.562	6.05
297.775	5.88
297.988	6.19
298.201	6.4
298.414	6.57
298.626	6.81
298.839	7.02
299.052	6.98
299.265	7.38
299.478	7.18
299.691	7.56
299.903	7.82
300.116	7.98
300.329	7.87
300.542	7.89
300.755	7.97
300.967	8.02
301.18	7.72
301.393	7.85
301.605	7.77
301.818	8.08
302.031	8.24
302.243	8.11
302.456	8.58
302.669	8.52
302.881	8.68
303.094	8.51
303.307	8.38
303.519	8.32
303.732	8.15
303.944	8.01
304.157	7.85
304.37	7.59
304.582	7.94
304.795	7.89
305.007	8.1
305.22	7.86
305.432	8.07
305.645	8.53
305.857	8.57
306.069	8.78
306.282	9.03
306.494	9.26
306.707	9.71
306.919	9.63
307.132	9.52
307.344	9.31
307.556	9.74
307.769	9.62
307.981	9.45
308.193	9.61
308.406	9.57
308.618	9.69
308.83	9.37
309.043	8.99
309.255	8.82
309.467	8.94
309.679	9.04
309.892	8.74
310.104	8.92
310.316	8.69
310.528	8.52
310.74	8.52
310.953	8.67
311.165	8.56
311.377	8.66
311.589	8.74
311.801	8.32
312.013	8.17
312.225	8.04
312.437	8.17
312.649	8.44
312.862	8.61
313.074	8.83
313.286	8.67
313.498	9.16
313.71	9.2
313.922	9.29
314.134	9.87
314.346	9.9
314.558	10.1
314.77	9.9
314.982	9.77
315.193	10.06
315.405	10
315.617	10.1
315.829	10.39
316.041	10.58
316.253	10.81
316.465	10.77
316.677	11.13
316.888	11.32
317.1	11.62
317.312	11.78
317.524	11.81
317.736	11.88
317.947	12.19
318.159	11.95
318.371	12
318.583	12
318.794	12.11
319.006	12.17
319.218	12.34
319.43	12.24
319.641	12.69
319.853	12.85
320.064	13.22
320.276	13.05
320.488	12.85
320.699	13.38
320.911	13.88
321.123	13.92
321.334	14.05
321.546	14.5
321.757	14.7
321.969	14.51
322.18	14.7
322.392	14.85
322.603	14.58
322.815	15.17
323.026	14.59
323.238	14.51
323.449	14.56
323.661	14.46
323.872	14.39
324.083	14.5
324.295	14.55
324.506	14.14
324.718	13.81
324.929	14.54
325.14	14.77
325.352	14.88
325.563	14.6
325.774	14.92
325.986	15.19
326.197	15.44
326.408	15.67
326.62	16.18
326.831	16.63
327.042	16.93
327.253	17.02
327.464	17.14
327.676	18.13
327.887	18.97
328.098	19.46
328.309	19.66
328.52	19.9
328.732	20.15
328.943	20.57
329.154	21.08
329.365	21.93
329.576	22.46
329.787	23.09
329.998	23.05
330.209	23.42
330.42	23.64
330.631	24.13
330.842	24.4
331.053	25.13
331.264	25.13
331.475	25.73
331.686	25.4
331.897	25.41
332.108	25.54
332.319	25.79
332.53	25.63
332.741	25.87
332.952	26.11
333.163	26.18
333.374	26.27
333.585	26.59
333.795	26.41
334.006	26.64
334.217	26.64
334.428	26.8
334.639	26.81
334.849	26.73
335.06	26.81
335.271	27.06
335.482	27.41
335.692	27.33
335.903	27.25
336.114	27.31
336.325	27.56
336.535	27.46
336.746	27.65
336.957	27.88
337.167	28.24
337.378	28.48
337.589	28.33
337.799	28.45
338.01	28.33
338.22	28.22
338.431	28.11
338.642	28.27
338.852	28.47
339.063	28.4
339.273	28.43
339.484	28.36
339.694	27.48
339.905	27.44
340.115	27.19
340.326	27.14
340.536	27.23
340.746	27.33
340.957	27.27
341.167	27.38
341.378	27.19
341.588	27.23
341.799	27.1
342.009	27.45
342.219	27.46
342.43	27.64
342.64	27.78
342.85	27.97
343.061	28.22
343.271	27.97
343.481	27.89
343.691	27.84
343.902	27.45
344.112	27.58
344.322	27.78
344.532	27.77
344.743	27.49
344.953	27.57
345.163	27.41
345.373	26.9
345.583	26.75
345.793	26.84
346.004	26.95
346.214	26.91
346.424	26.86
346.634	26.98
346.844	26.98
347.054	26.85
347.264	26.8
347.474	26.63
347.684	26.88
347.894	27.28
348.104	27.27
348.314	27.25
348.524	27.33
348.734	27.24
348.944	27.16
349.154	26.79
349.364	27.11
349.574	26.91
349.784	27.02
349.994	26.9
350.204	26.81
350.413	26.94
350.623	26.8
350.833	26.91
351.043	27.03
351.253	26.87
351.463	27.18
351.672	26.99
351.882	26.91
352.092	26.71
352.302	26.73
352.511	26.6
352.721	26.33
352.931	26.38
353.141	26.08
353.35	26.12
353.56	26.08
353.77	25.85
353.979	25.75
354.189	25.75
354.399	25.71
354.608	25.43
354.818	25.49
355.027	25.39
355.237	25.1
355.447	25.06
355.656	24.78
355.866	24.69
356.075	24.9
356.285	25.1
356.494	24.92
356.704	24.87
356.913	25.12
357.123	24.76
357.332	24.6
357.542	24.69
357.751	24.67
357.96	24.67
358.17	24.54
358.379	24.32
358.589	24.27
358.798	24.21
359.007	24.3
359.217	24.12
359.426	24.13
359.635	24.28
359.845	24.21
360.054	24.07
360.263	23.91
360.472	23.9
360.682	23.78
360.891	23.53
361.1	23.53
361.309	23.38
361.519	23.42
361.728	23.58
361.937	23.46
362.146	23.34
362.355	23.37
362.564	23.44
362.774	23.36
362.983	23.23
363.192	23.21
363.401	23.26
363.61	23.24
363.819	23.25
364.028	23.1
364.237	23.01
364.446	22.99
364.655	23.1
364.864	23.05
365.073	23.08
365.282	23.18
365.491	23.46
365.7	23.56
365.909	23.52
366.118	23.47
366.327	23.72
366.536	23.9
366.745	24.21
366.954	24.09
367.162	24.08
367.371	24.45
367.58	24.46
367.789	24.43
367.998	24.5
368.207	24.71
368.415	24.73
368.624	24.47
368.833	24.42
369.042	24.39
369.25	24.38
369.459	24.42
369.668	24.05
369.877	24.17
370.085	23.92
370.294	23.66
370.503	23.69
370.711	23.48
370.92	23.53
371.129	23.39
371.337	23.25
371.546	23.26
371.754	23.21
371.963	22.96
372.171	23.03
372.38	23.01
372.589	23.17
372.797	23.16
373.006	23.3
373.214	23.18
373.423	23.12
373.631	23.32
373.84	23.4
374.048	23.49
374.256	23.75
374.465	23.6
374.673	23.6
374.882	23.44
375.09	23.34
375.298	23.22
375.507	23.17
375.715	23.15
375.923	22.9
376.132	22.81
376.34	22.8
376.548	22.8
376.757	22.79
376.965	22.77
377.173	22.66
377.381	22.65
377.59	22.72
377.798	22.74
378.006	22.72
378.214	22.75
378.423	22.87
378.631	22.81
378.839	22.8
379.047	22.85
379.255	22.87
379.463	22.89
379.671	22.9
379.879	22.78
380.088	22.92
380.296	22.98
380.504	22.88
380.712	22.68
380.92	22.51
381.128	22.39
381.336	22.29
381.544	22.2
381.752	22.36
381.96	22.45
382.168	22.63
382.376	22.68
382.584	22.58
382.791	22.58
382.999	22.85
383.207	22.77
383.415	22.63
383.623	22.53
383.831	22.47
384.039	22.32
384.247	22.27
384.454	22.02
384.662	21.92
384.87	21.87
385.078	21.85
385.285	21.6
385.493	21.85
385.701	21.96
385.909	21.94
386.116	21.78
386.324	21.75
386.532	21.53
386.739	21.57
386.947	21.55
387.155	21.74
387.362	21.78
387.57	21.85
387.778	21.75
387.985	22.05
388.193	22.17
388.4	22.4
388.608	22.64
388.816	22.77
389.023	22.69
389.231	22.67
389.438	22.44
389.646	22.32
389.853	22.27
390.061	22.49
390.268	22.28
390.475	22.14
390.683	22.13
390.89	21.8
391.098	21.64
391.305	21.63
391.512	21.58
391.72	21.77
391.927	21.85
392.135	21.85
392.342	21.56
392.549	21.35
392.756	21.35
392.964	21.3
393.171	21.43
393.378	21.47
393.586	21.52
393.793	21.61
394	21.34
394.207	21.32
394.414	21.3
394.622	21.47
394.829	21.63
395.036	21.73
395.243	21.72
395.45	21.8
395.657	21.87
395.864	21.88
396.072	21.8
396.279	21.95
396.486	21.92
396.693	21.96
396.9	21.82
397.107	21.81
397.314	21.77
397.521	21.64
397.728	21.58
397.935	21.43
398.142	21.51
398.349	21.62
398.556	21.78
398.763	21.57
398.97	21.54
399.177	21.63
399.383	21.6
399.59	21.67
399.797	21.87
400.004	22.01
400.211	22.06
400.418	22.15
400.625	22.09
400.831	21.84
401.038	22.16
401.245	22.17
401.452	22.21
401.658	22.24
401.865	22.27
402.072	22.23
402.279	22.19
402.485	22.09
402.692	21.93
402.899	21.89
403.105	21.97
403.312	21.97
403.519	21.87
403.725	21.73
403.932	21.76
404.138	21.55
404.345	21.54
404.552	21.43
404.758	21.62
404.965	21.68
405.171	21.45
405.378	21.46
405.584	21.27
405.791	21.27
405.997	21.21
406.204	21.1
406.41	21.3
406.617	21.28
406.823	21.2
407.029	21.16
407.236	21.16
407.442	21.38
407.649	21.45
407.855	21.57
408.061	21.56
408.268	21.4
408.474	21.61
408.68	21.54
408.887	21.63
409.093	21.74
409.299	21.71
409.505	21.58
409.712	21.58
409.918	21.49
410.124	21.51
410.33	21.69
410.537	21.97
410.743	21.96
410.949	22.15
411.155	21.99
411.361	22.1
411.567	22.14
411.773	22.2
411.98	22.3
412.186	22.32
412.392	22.42
412.598	22.38
412.804	22.43
413.01	22.29
413.216	22.1
413.422	22.21
413.628	22.03
413.834	21.96
414.04	22.07
414.246	21.93
414.452	21.98
414.658	21.81
414.864	21.88
415.07	21.81
415.275	21.83
415.481	21.75
415.687	21.67
415.893	21.74
416.099	21.65
416.305	21.51
416.511	21.61
416.716	21.42
416.922	21.45
417.128	21.21
417.334	21.23
417.539	21.14
417.745	21
417.951	21
418.157	20.93
418.362	20.9
418.568	20.91
418.774	20.8
418.979	20.85
419.185	20.77
419.391	20.85
419.596	20.76
419.802	20.75
420.008	20.76
420.213	21.21
420.419	21.23
420.624	21.21
420.83	21.2
421.035	21.18
421.241	21.2
421.446	21.24
421.652	21.21
421.857	21.29
422.063	21.36
422.268	21.42
422.474	21
422.679	21.06
422.885	21.08
423.09	21.08
423.295	21.05
423.501	21.01
423.706	20.98
423.911	21.01
424.117	20.95
424.322	20.89
424.527	20.88
424.733	20.87
424.938	20.78
425.143	20.84
425.349	20.81
425.554	20.85
425.759	20.92
425.964	21
426.169	20.98
426.375	20.97
426.58	21.01
426.785	21.08
426.99	21.29
427.195	21.32
427.4	21.28
427.605	21.33
427.811	21.47
428.016	21.41
428.221	21.28
428.426	21.36
428.631	21.43
428.836	21.43
429.041	21.38
429.246	21.19
429.451	21.12
429.656	21.15
429.861	21.12
430.066	21.02
430.271	21
430.476	21.13
430.681	21.07
430.886	21.04
431.09	21.18
431.295	21.29
431.5	21.3
431.705	21.46
431.91	21.45
432.115	21.53
432.32	21.56
432.524	21.63
432.729	21.58
432.934	21.6
433.139	21.55
433.343	21.42
433.548	21.35
433.753	21.38
433.958	21.34
434.162	21.44
434.367	21.4
434.572	21.43
434.776	21.42
434.981	21.48
435.186	21.42
435.39	21.41
435.595	21.49
435.799	21.45
436.004	21.45
436.209	21.43
436.413	21.36
436.618	21.36
436.822	21.29
437.027	21.3
437.231	21.34
437.436	21.37
437.64	21.29
437.845	21.29
438.049	21.34
438.253	21.26
438.458	21.31
438.662	21.3
438.867	21.32
439.071	21.37
439.275	21.37
439.48	21.32
439.684	21.4
439.888	21.44
440.093	21.4
440.297	21.42
440.501	21.44
440.706	21.34
440.91	21.29
441.114	21.26
441.318	21.27
441.523	21.16
441.727	21.15
441.931	21.15
442.135	21.19
442.339	21.25
442.543	21.25
442.748	21.25
442.952	21.32
443.156	21.38
443.36	21.42
443.564	21.39
443.768	21.47
443.972	21.5
444.176	21.43
444.38	21.48
444.584	21.44
444.788	21.41
444.992	21.39
445.196	21.38
445.4	21.35
445.604	21.26
445.808	21.34
446.012	21.33
446.216	21.26
446.42	21.28
446.624	21.26
446.828	21.25
447.032	21.16
447.235	21.2
447.439	21.21
447.643	21.28
447.847	21.37
448.051	21.33
448.254	21.43
448.458	21.42
448.662	21.39
448.866	21.34
449.069	21.41
449.273	21.56
449.477	21.64
449.681	21.65
449.884	21.66
450.088	21.7
450.292	21.66
450.495	21.64
450.699	21.76
450.902	21.86
451.106	21.95
451.31	21.89
451.513	21.8
451.717	21.65
451.92	21.72
452.124	21.68
452.327	21.71
452.531	21.7
452.734	21.8
452.938	21.82
453.141	21.8
453.345	21.77
453.548	21.66
453.752	21.68
453.955	21.73
454.158	21.58
454.362	21.63
454.565	21.57
454.769	21.63
454.972	21.49
455.175	21.37
455.379	21.28
455.582	21.3
455.785	21.46
455.988	21.59
456.192	21.66
456.395	21.77
456.598	21.86
456.801	21.86
457.005	21.79
457.208	21.78
457.411	21.83
457.614	21.85
457.817	21.75
458.021	21.68
458.224	21.64
458.427	21.6
458.63	21.57
458.833	21.49
459.036	21.51
459.239	21.47
459.442	21.45
459.645	21.46
459.848	21.49
460.051	21.6
460.254	21.66
460.457	21.57
460.66	21.48
460.863	21.5
461.066	21.5
461.269	21.47
461.472	21.6
461.675	21.69
461.878	21.68
462.081	21.66
462.284	21.6
462.486	21.58
462.689	21.64
462.892	21.77
463.095	21.79
463.298	21.8
463.5	21.73
463.703	21.71
463.906	21.63
464.109	21.66
464.311	21.76
464.514	21.72
464.717	21.77
464.92	21.77
465.122	21.82
465.325	21.79
465.528	21.83
465.73	21.84
465.933	21.79
466.135	21.85
466.338	21.83
466.541	21.69
466.743	21.84
466.946	21.82
467.148	21.81
467.351	21.77
467.553	21.78
467.756	21.75
467.958	21.77
468.161	21.84
468.363	21.74
468.566	21.77
468.768	21.85
468.971	21.72
469.173	21.7
469.375	21.75
469.578	21.74
469.78	21.64
469.983	21.69
470.185	21.73
470.387	21.64
470.59	21.64
470.792	21.57
470.994	21.45
471.196	21.5
471.399	21.43
471.601	21.41
471.803	21.36
472.005	21.45
472.208	21.4
472.41	21.47
472.612	21.49
472.814	21.51
473.016	21.52
473.218	21.49
473.421	21.4
473.623	21.46
473.825	21.4
474.027	21.45
474.229	21.44
474.431	21.46
474.633	21.48
474.835	21.41
475.037	21.41
475.239	21.48
475.441	21.58
475.643	21.73
475.845	21.62
476.047	21.63
476.249	21.63
476.451	21.61
476.653	21.55
476.855	21.35
477.057	21.47
477.258	21.47
477.46	21.42
477.662	21.39
477.864	21.23
478.066	21.31
478.268	21.38
478.469	21.28
478.671	21.3
478.873	21.23
479.075	21.32
479.276	21.26
479.478	21.35
479.68	21.28
479.882	21.31
480.083	21.32
480.285	21.27
480.487	21.18
480.688	21.15
480.89	21.19
481.091	21.23
481.293	21.15
481.495	21.09
481.696	21.01
481.898	20.92
482.099	20.89
482.301	20.84
482.502	20.78
482.704	20.78
482.905	20.71
483.107	20.64
483.308	20.64
483.51	20.62
483.711	20.56
483.913	20.53
484.114	20.57
484.315	20.54
484.517	20.54
484.718	20.53
484.92	20.49
485.121	20.53
485.322	20.53
485.524	20.51
485.725	20.52
485.926	20.59
486.127	20.56
486.329	20.54
486.53	20.53
486.731	20.49
486.932	20.51
487.134	20.55
487.335	20.57
487.536	20.58
487.737	20.56
487.938	20.57
488.139	20.55
488.341	20.54
488.542	20.52
488.743	20.49
488.944	20.56
489.145	20.58
489.346	20.58
489.547	20.55
489.748	20.53
489.949	20.56
490.15	20.56
490.351	20.55
490.552	20.61
490.753	20.67
490.954	20.68
491.155	20.67
491.356	20.67
491.557	20.63
491.758	20.68
491.959	20.7
492.159	20.7
492.36	20.7
492.561	20.75
492.762	20.77
492.963	20.73
493.164	20.8
493.364	20.87
493.565	20.84
493.766	20.91
493.967	20.92
494.167	20.9
494.368	20.91
494.569	20.98
494.769	21.04
494.97	21.04
495.171	21.12
495.371	21.1
495.572	21.1
495.773	21.14
495.973	21.17
496.174	21.18
496.375	21.18
496.575	21.19
496.776	21.19
496.976	21.2
497.177	21.17
497.377	21.16
497.578	21.13
497.778	21.04
497.979	21.05
498.179	20.98
498.38	21.01
498.58	21.04
498.78	21.07
498.981	20.97
499.181	20.85
499.382	20.9
499.582	20.9
499.782	21.05
499.983	21.13
500.183	21.13
500.383	21.22
500.584	21.22
500.784	21.29
500.984	21.31
501.184	21.4
501.385	21.41
501.585	21.43
501.785	21.48
501.985	21.39
502.185	21.37
502.386	21.4
502.586	21.44
502.786	21.38
502.986	21.37
503.186	21.31
503.386	21.27
503.586	21.38
503.786	21.36
503.987	21.35
504.187	21.4
504.387	21.34
504.587	21.39
504.787	21.34
504.987	21.44
505.187	21.4
505.387	21.42
505.587	21.49
505.786	21.43
505.986	21.41
506.186	21.38
506.386	21.26
506.586	21.37
506.786	21.37
506.986	21.41
507.186	21.37
507.386	21.35
507.585	21.39
507.785	21.33
507.985	21.35
508.185	21.35
508.384	21.36
508.584	21.38
508.784	21.46
508.984	21.4
509.183	21.39
509.383	21.39
509.583	21.44
509.782	21.42
509.982	21.58
510.182	21.58
510.381	21.66
510.581	21.65
510.781	21.66
510.98	21.62
511.18	21.61
511.379	21.65
511.579	21.63
511.778	21.6
511.978	21.59
512.177	21.51
512.377	21.49
512.576	21.53
512.776	21.57
512.975	21.61
513.175	21.61
513.374	21.63
513.573	21.6
513.773	21.63
513.972	21.73
514.172	21.75
514.371	21.8
514.57	21.86
514.77	21.83
514.969	21.73
515.168	21.72
515.367	21.69
515.567	21.72
515.766	21.7
515.965	21.73
516.164	21.66
516.364	21.74
516.563	21.68
516.762	21.73
516.961	21.71
517.16	21.75
517.359	21.8
517.559	21.81
517.758	21.86
517.957	21.92
518.156	21.9
518.355	21.94
518.554	21.87
518.753	21.91
518.952	21.83
519.151	21.84
519.35	21.82
519.549	21.83
519.748	21.79
519.947	21.75
520.146	21.74
520.345	21.82
520.544	21.87
520.743	21.92
520.942	21.9
521.141	21.9
521.339	21.91
521.538	21.98
521.737	21.94
521.936	22.05
522.135	21.96
522.333	21.91
522.532	21.93
522.731	21.78
522.93	21.77
523.129	21.82
523.327	21.92
523.526	21.95
523.725	21.97
523.923	21.98
524.122	21.91
524.321	22.04
524.519	22.06
524.718	22
524.917	22.01
525.115	22.04
525.314	22.01
525.512	22
525.711	22.03
525.909	21.97
526.108	21.97
526.306	21.96
526.505	21.92
526.703	21.92
526.902	21.89
527.1	21.87
527.299	21.84
527.497	21.84
527.696	21.77
527.894	21.73
528.092	21.72
528.291	21.71
528.489	21.73
528.688	21.69
528.886	21.67
529.084	21.68
529.283	21.66
529.481	21.66
529.679	21.63
529.877	21.67
530.076	21.69
530.274	21.73
530.472	21.73
530.67	21.7
530.869	21.8
531.067	21.82
531.265	21.85
531.463	21.92
531.661	21.94
531.859	21.96
532.057	21.95
532.255	21.92
532.454	21.89
532.652	21.94
532.85	21.94
533.048	21.92
533.246	21.9
533.444	21.87
533.642	21.86
533.84	21.9
534.038	21.9
534.236	21.87
534.434	21.88
534.632	21.96
534.83	21.91
535.027	21.98
535.225	22.01
535.423	22.03
535.621	22.05
535.819	22.08
536.017	21.98
536.215	22.03
536.412	22.1
536.61	22.12
536.808	22.05
537.006	22.08
537.203	22.12
537.401	22.11
537.599	22.14
537.797	22.17
537.994	22.21
538.192	22.33
538.39	22.28
538.587	22.27
538.785	22.32
538.983	22.36
539.18	22.39
539.378	22.37
539.575	22.4
539.773	22.42
539.97	22.42
540.168	22.43
540.366	22.45
540.563	22.47
540.761	22.49
540.958	22.45
541.155	22.43
541.353	22.45
541.55	22.43
541.748	22.38
541.945	22.36
542.143	22.41
542.34	22.41
542.537	22.33
542.735	22.35
542.932	22.4
543.129	22.39
543.327	22.48
543.524	22.5
543.721	22.49
543.919	22.55
544.116	22.64
544.313	22.62
544.51	22.66
544.708	22.75
544.905	22.79
545.102	22.83
545.299	22.99
545.496	23.02
545.693	23.01
545.891	23.12
546.088	23.15
546.285	23.1
546.482	23.09
546.679	23.08
546.876	23.07
547.073	23.04
547.27	23.03
547.467	23.01
547.664	22.95
547.861	23
548.058	23.07
548.255	23.13
548.452	23.21
548.649	23.3
548.846	23.38
549.043	23.44
549.24	23.52
549.437	23.49
549.633	23.44
549.83	23.53
550.027	23.46
550.224	23.29
550.421	23.34
550.618	23.31
550.814	23.28
551.011	23.12
551.208	23.05
551.405	23.07
551.601	23.08
551.798	23.15
551.995	23.12
552.191	23.17
552.388	23.2
552.585	23.04
552.781	23.01
552.978	23.02
553.175	23.11
553.371	23.17
553.568	23.22
553.764	23.27
553.961	23.24
554.157	23.21
554.354	23.21
554.55	23.23
554.747	23.33
554.943	23.33
555.14	23.39
555.336	23.46
555.533	23.57
555.729	23.49
555.926	23.47
556.122	23.49
556.318	23.6
556.515	23.59
556.711	23.57
556.907	23.52
557.104	23.58
557.3	23.49
557.496	23.48
557.693	23.31
557.889	23.31
558.085	23.32
558.281	23.38
558.478	23.29
558.674	23.26
558.87	23.38
559.066	23.57
559.262	23.59
559.459	23.69
559.655	23.7
559.851	23.75
560.047	23.84
560.243	23.88
560.439	23.9
560.635	23.94
560.831	23.91
561.027	23.77
561.223	23.72
561.419	23.72
561.615	23.66
561.811	23.65
562.007	23.82
562.203	23.71
562.399	23.58
562.595	23.48
562.791	23.61
562.987	23.79
563.183	23.75
563.379	23.68
563.575	23.65
563.771	23.66
563.966	23.77
564.162	23.65
564.358	23.69
564.554	23.87
564.75	23.87
564.945	23.71
565.141	23.73
565.337	23.84
565.533	23.8
565.728	23.81
565.924	23.78
566.12	23.7
566.315	23.8
566.511	23.74
566.707	23.62
566.902	23.59
567.098	23.79
567.293	23.56
567.489	23.49
567.684	23.56
567.88	23.5
568.076	23.54
568.271	23.51
568.467	23.42
568.662	23.54
568.858	23.58
569.053	23.63
569.248	23.55
569.444	23.74
569.639	23.86
569.835	23.79
570.03	23.88
570.225	23.98
570.421	23.86
570.616	23.85
570.812	23.87
571.007	23.81
571.202	23.8
571.397	23.74
571.593	23.72
571.788	23.68
571.983	23.75
572.178	23.7
572.374	23.67
572.569	23.8
572.764	23.89
572.959	23.9
573.154	23.88
573.35	23.88
573.545	23.85
573.74	23.87
573.935	23.84
574.13	23.81
574.325	23.8
574.52	23.86
574.715	23.84
574.91	23.81
575.105	23.71
575.3	23.77
575.495	23.77
575.69	23.82
575.885	23.83
576.08	24.03
576.275	24.1
576.47	24.2
576.665	24.1
576.86	24.14
577.055	24.22
577.25	24.31
577.444	24.38
577.639	24.4
577.834	24.42
578.029	24.53
578.224	24.39
578.418	24.42
578.613	24.53
578.808	24.59
579.003	24.74
579.197	24.71
579.392	24.72
579.587	24.77
579.781	24.92
579.976	25.06
580.171	25.04
580.365	25.11
580.56	25.24
580.755	25.19
580.949	25.34
581.144	25.19
581.338	25.09
581.533	25.18
581.727	25.23
581.922	25.23
582.116	25.16
582.311	25.08
582.505	24.92
582.7	24.75
582.894	24.68
583.089	24.63
583.283	24.75
583.478	24.91
583.672	24.92
583.866	24.91
584.061	24.8
584.255	24.8
584.449	24.95
584.644	25.01
584.838	25.08
585.032	25.19
585.226	25.2
585.421	25.23
585.615	25.33
585.809	25.44
586.003	25.48
586.198	25.69
586.392	25.76
586.586	25.69
586.78	25.78
586.974	25.79
587.168	25.7
587.363	25.57
587.557	25.45
587.751	25.3
587.945	25.13
588.139	25.26
588.333	25.16
588.527	25.2
588.721	25.07
588.915	25.21
589.109	25.14
589.303	25.29
589.497	25.51
589.691	25.45
589.885	25.44
590.079	25.44
590.273	25.28
590.466	25.26
590.66	25.05
590.854	25.18
591.048	25.02
591.242	25.09
591.436	25.02
591.629	25.02
591.823	25.21
592.017	25.32
592.211	25.45
592.404	25.6
592.598	25.48
592.792	25.56
592.986	25.5
593.179	25.58
593.373	25.68
593.567	25.7
593.76	25.65
593.954	25.57
594.147	25.58
594.341	25.47
594.535	25.42
594.728	25.63
594.922	25.75
595.115	25.92
595.309	25.87
595.502	25.71
595.696	25.65
595.889	25.49
596.083	25.52
596.276	25.51
596.47	25.55
596.663	25.49
596.856	25.45
597.05	25.53
597.243	25.45
597.437	25.53
597.63	25.57
597.823	25.61
598.017	25.73
598.21	25.84
598.403	25.8
598.596	25.86
598.79	25.98
598.983	26.01
599.176	26
599.369	26.03
599.563	25.97
599.756	26.11
599.949	26.08
600.142	26.04
600.335	26.01
600.528	26.11
600.722	26.14
600.915	26.17
601.108	26.19
601.301	26.11
601.494	26.09
601.687	26.15
601.88	26.21
602.073	26.38
602.266	26.31
602.459	26.23
602.652	26.12
602.845	26.16
603.038	26.06
603.231	26.06
603.424	26.06
603.617	26.06
603.809	26.05
604.002	25.93
604.195	25.87
604.388	26
604.581	25.95
604.774	25.96
604.966	25.79
605.159	25.87
605.352	25.81
605.545	25.8
605.737	25.85
605.93	25.87
606.123	25.88
606.316	25.82
606.508	25.85
606.701	26.08
606.894	26.29
607.086	26.51
607.279	26.67
607.471	26.75
607.664	26.69
607.857	26.74
608.049	26.81
608.242	27.1
608.434	27.37
608.627	27.56
608.819	27.7
609.012	27.84
609.204	28.1
609.397	28.28
609.589	28.72
609.782	29.27
609.974	29.78
610.166	30.05
610.359	30.35
610.551	30.56
610.743	30.82
610.936	31.04
611.128	31.28
611.32	31.35
611.513	31.45
611.705	31.46
611.897	31.31
612.09	30.95
612.282	30.87
612.474	30.73
612.666	30.64
612.858	30.69
613.051	30.55
613.243	30.3
613.435	30.14
613.627	30.09
613.819	29.92
614.011	30
614.203	29.96
614.395	30.02
614.588	29.94
614.78	29.96
614.972	29.62
615.164	29.44
615.356	29.39
615.548	29.29
615.74	28.99
615.932	28.62
616.124	28.41
616.315	28.49
616.507	28.27
616.699	28.18
616.891	27.75
617.083	27.71
617.275	27.6
617.467	27.61
617.659	27.79
617.85	28.04
618.042	28.24
618.234	28.22
618.426	28.02
618.618	28.19
618.809	28.16
619.001	28.19
619.193	28.32
619.384	28.41
619.576	28.28
619.768	28.34
619.959	28.17
620.151	28.18
620.343	28.14
620.534	28.19
620.726	28.1
620.917	28.04
621.109	28.26
621.301	28.17
621.492	28.24
621.684	28.29
621.875	28.09
622.067	28.04
622.258	27.99
622.45	28.08
622.641	28.17
622.832	28.13
623.024	28.11
623.215	28
623.407	27.77
623.598	27.85
623.789	27.83
623.981	28.09
624.172	27.99
624.363	28.1
624.555	28.18
624.746	28.08
624.937	28.1
625.129	28.23
625.32	28.18
625.511	28.39
625.702	28.39
625.893	28.55
626.085	28.36
626.276	28.48
626.467	28.34
626.658	28.37
626.849	28.4
627.04	28.36
627.231	28.28
627.422	28.31
627.614	28.26
627.805	28.2
627.996	28.21
628.187	28.19
628.378	28.19
628.569	28.38
628.76	28.32
628.951	28.42
629.142	28.55
629.332	28.63
629.523	28.77
629.714	28.94
629.905	29.08
630.096	29.12
630.287	29.29
630.478	29.17
630.669	29.13
630.859	29.21
631.05	29.18
631.241	29.09
631.432	29.09
631.623	29.16
631.813	28.86
632.004	28.59
632.195	28.55
632.385	28.41
632.576	28.67
632.767	28.74
632.957	28.5
633.148	28.44
633.339	28.38
633.529	28.24
633.72	28.07
633.91	28.27
634.101	28.39
634.292	28.13
634.482	28.15
634.673	27.94
634.863	27.61
635.054	27.62
635.244	27.62
635.435	27.57
635.625	27.61
635.815	27.76
636.006	27.57
636.196	27.52
636.387	27.69
636.577	27.69
636.767	27.87
636.958	28.07
637.148	28.05
637.338	27.99
637.529	27.99
637.719	27.86
637.909	27.85
638.099	27.99
638.29	28.03
638.48	28.11
638.67	28.12
638.86	28.07
639.05	28.19
639.241	28.45
639.431	28.64
639.621	28.87
639.811	28.97
640.001	28.75
640.191	28.71
640.381	28.74
640.571	28.69
640.761	28.83
640.951	28.79
641.141	28.74
641.331	28.39
641.521	28.39
641.711	28.44
641.901	28.5
642.091	28.71
642.281	28.82
642.471	28.79
642.661	28.7
642.851	28.42
643.041	28.42
643.231	28.44
643.42	28.71
643.61	28.81
643.8	28.88
643.99	28.72
644.18	28.62
644.369	28.56
644.559	28.51
644.749	28.78
644.939	29.02
645.128	29.03
645.318	29.05
645.508	29.18
645.697	29.05
645.887	29.04
646.076	29.25
646.266	29.42
646.456	29.71
646.645	29.84
646.835	29.76
647.024	29.72
647.214	29.84
647.403	29.73
647.593	29.57
647.782	29.54
647.972	29.43
648.161	29.51
648.351	29.66
648.54	29.48
648.73	29.45
648.919	29.35
649.108	29.5
649.298	29.41
649.487	29.71
649.677	29.77
649.866	29.83
650.055	29.69
650.244	29.64
650.434	29.52
650.623	29.5
650.812	29.52
651.002	29.44
651.191	29.25
651.38	29.34
651.569	29.3
651.758	29.23
651.947	29.2
652.137	29.3
652.326	29.33
652.515	29.38
652.704	29.42
652.893	29.46
653.082	29.59
653.271	29.96
653.46	30.1
653.649	30.05
653.838	30.25
654.027	30.36
654.216	30.45
654.405	30.57
654.594	30.48
654.783	30.54
654.972	30.6
655.161	30.72
655.35	30.15
655.539	30
655.728	29.74
655.916	29.89
656.105	29.75
656.294	29.83
656.483	29.88
656.672	29.73
656.86	29.59
657.049	29.65
657.238	29.48
657.427	29.71
657.615	29.54
657.804	29.63
657.993	29.39
658.181	29.47
658.37	29.23
658.559	29.09
658.747	29.21
658.936	29.3
659.125	29.1
659.313	29.26
659.502	29.39
659.69	29.7
659.879	29.74
660.067	29.87
660.256	29.88
660.444	30
660.633	30.34
660.821	30.39
661.01	30.46
661.198	30.45
661.387	30.46
661.575	30.42
661.763	30.32
661.952	30.55
662.14	30.56
662.328	30.46
662.517	30.61
662.705	30.3
662.893	30.3
663.082	30.33
663.27	30.83
663.458	30.85
663.646	30.99
663.834	31.14
664.023	31.12
664.211	31.29
664.399	31.65
664.587	31.63
664.775	31.88
664.963	32.16
665.152	32.04
665.34	32.01
665.528	31.82
665.716	31.91
665.904	31.64
666.092	31.91
666.28	31.62
666.468	31.48
666.656	31.43
666.844	31.35
667.032	31.15
667.22	31.14
667.408	31.06
667.596	31.37
667.784	31.13
667.971	31.22
668.159	31.08
668.347	31.35
668.535	31.25
668.723	31.42
668.911	31.21
669.098	31.2
669.286	31.24
669.474	31.08
669.662	31.12
669.849	31.06
670.037	31.17
670.225	31.22
670.413	31.08
670.6	31.05
670.788	30.83
670.976	31.1
671.163	31.22
671.351	31.42
671.538	31.65
671.726	31.53
671.913	31.56
672.101	31.42
672.289	31.3
672.476	31.14
672.664	31.37
672.851	31.59
673.039	31.65
673.226	31.71
673.413	31.55
673.601	31.49
673.788	31.52
673.976	31.64
674.163	31.82
674.35	31.72
674.538	31.88
674.725	31.86
674.912	31.72
675.1	31.59
675.287	31.42
675.474	31.46
675.662	31.27
675.849	31.32
676.036	31.32
676.223	31.2
676.411	31.11
676.598	31
676.785	31.11
676.972	31.23
677.159	31.47
677.346	31.6
677.533	31.63
677.721	32.02
677.908	31.94
678.095	31.92
678.282	31.85
678.469	31.7
678.656	32.1
678.843	31.87
679.03	31.81
679.217	31.61
679.404	31.44
679.591	31.38
679.778	31.06
679.964	31.05
680.151	30.88
680.338	30.83
680.525	31.02
680.712	30.73
680.899	30.81
681.086	30.86
681.272	30.58
681.459	30.76
681.646	30.85
681.833	30.87
682.02	30.94
682.206	31.26
682.393	31.6
682.58	31.82
682.766	31.92
682.953	31.99
683.14	31.81
683.326	32.27
683.513	32.34
683.7	32.22
683.886	32.28
684.073	32.24
684.259	32.21
684.446	32.1
684.632	31.84
684.819	31.55
685.005	31.52
685.192	31.91
685.378	31.9
685.565	32
685.751	32.34
685.938	32.57
686.124	32.53
686.31	32.46
686.497	32.72
686.683	33.23
686.87	33.64
687.056	33.72
687.242	33.51
687.429	33.37
687.615	33.03
687.801	32.91
687.987	33.02
688.174	33.26
688.36	33.45
688.546	33.34
688.732	32.99
688.918	33.17
689.105	33.18
689.291	33.44
689.477	33.73
689.663	34.14
689.849	34.11
690.035	33.84
690.221	33.83
690.407	33.99
690.593	34.01
690.779	34.03
690.965	34.09
691.151	33.8
691.337	33.95
691.523	33.89
691.709	33.66
691.895	33.79
692.081	33.96
692.267	33.84
692.453	33.46
692.639	33.2
692.825	33.66
693.011	33.53
693.196	34.14
693.382	33.99
693.568	33.75
693.754	33.63
693.94	33.68
694.125	33.77
694.311	34
694.497	33.94
694.682	34.17
694.868	33.93
695.054	34.11
695.239	34
695.425	33.86
695.611	34.01
695.796	34.37
695.982	34.18
696.168	34.19
696.353	33.94
696.539	34.11
696.724	34.04
696.91	34.11
697.095	33.69
697.281	33.35
697.466	33.27
697.652	33.08
697.837	32.66
698.023	32.5
698.208	32.17
698.393	31.98
698.579	31.81
698.764	31.61
698.949	31.49
699.135	31.54
699.32	31.75
699.505	31.84
699.691	31.88
699.876	32.14
700.061	32.57
700.246	32.97
700.432	33.65
700.617	33.7
700.802	33.79
700.987	34
701.172	34.03
701.358	34.02
701.543	34.14
701.728	34.47
701.913	34.81
702.098	34.8
702.283	34.82
702.468	34.5
702.653	34.94
702.838	35.56
703.023	35.28
703.208	35.37
703.393	35.17
703.578	35.23
703.763	35.07
703.948	34.77
704.133	34.83
704.318	34.78
704.503	34.98
704.688	34.91
704.873	34.49
705.057	34.71
705.242	34.88
705.427	35.37
705.612	35.69
705.797	35.55
705.981	35.58
706.166	35.32
706.351	35.36
706.536	35.42
706.72	35.73
706.905	36.05
707.09	35.82
707.274	36.39
707.459	36.49
707.644	36.25
707.828	36.83
708.013	37.27
708.197	37.29
708.382	37.52
708.567	37.28
708.751	36.99
708.936	36.97
709.12	37.13
709.305	36.67
709.489	36.2
709.673	36.4
709.858	36.26
710.042	35.92
710.227	36.31
710.411	35.98
710.596	36.41
710.78	36.45
710.964	36.57
711.149	36.87
711.333	36.99
711.517	36.98
711.702	36.74
711.886	36.66
712.07	36.62
712.254	36.34
712.438	36.25
712.623	36.1
712.807	36.05
712.991	36.01
713.175	35.82
713.359	35.4
713.544	35.36
713.728	35.6
713.912	35.62
714.096	35.42
714.28	35.25
714.464	35.25
714.648	34.94
714.832	34.96
715.016	34.49
715.2	34.44
715.384	34.71
715.568	35.14
715.752	34.87
715.936	34.78
716.12	34.72
716.304	34.97
716.488	34.93
716.671	35.13
716.855	35.04
717.039	35.33
717.223	35.33
717.407	35.51
717.59	35.77
717.774	35.91
717.958	36.47
718.142	36.62
718.325	36.24
718.509	36.7
718.693	36.73
718.877	36.9
719.06	36.72
719.244	36.48
719.428	36.02
719.611	35.44
719.795	35.35
719.978	34.61
720.162	34.93
720.345	35.4
720.529	34.85
720.713	35.26
720.896	35.13
721.08	35.44
721.263	35.93
721.446	36.35
721.63	36.96
721.813	36.8
721.997	36.63
722.18	36.9
722.364	36.71
722.547	37.3
722.73	37.05
722.914	37.38
723.097	37.4
723.28	37.25
723.464	37.27
723.647	36.7
723.83	37.03
724.013	37.22
724.197	36.76
724.38	36.93
724.563	37.12
724.746	36.84
724.929	36.73
725.112	36.4
725.296	36.75
725.479	36.54
725.662	37.05
725.845	37.11
726.028	37.28
726.211	37.55
726.394	37.64
726.577	37.35
726.76	37.74
726.943	37.52
727.126	37.67
727.309	36.97
727.492	37.07
727.675	36.91
727.858	36.59
728.041	36.49
728.224	36.23
728.407	35.58
728.589	35.47
728.772	34.74
728.955	34.85
729.138	35.04
729.321	35.36
729.503	35.29
729.686	35.31
729.869	35.66
730.052	35.7
730.234	35.73
730.417	36.16
730.6	36.27
730.782	36.73
730.965	36.47
731.148	36.39
731.33	36.41
731.513	36.68
731.695	36.66
731.878	36.37
732.061	36.22
732.243	36.4
732.426	36.69
732.608	37.04
732.791	36.76
732.973	36.96
733.156	36.75
733.338	36.93
733.52	36.81
733.703	36.82
733.885	37.27
734.068	37.46
734.25	37.53
734.432	37.4
734.615	37.37
734.797	37.77
734.979	37.79
735.162	37.97
735.344	37.92
735.526	37.81
735.708	37.68
735.891	37.34
736.073	37.53
736.255	37.87
736.437	37.31
736.619	36.94
736.802	36.95
736.984	37.08
737.166	37.55
737.348	37.42
737.53	37.74
737.712	37.63
737.894	38.06
738.076	37.83
738.258	37.44
738.44	37.89
738.622	37.57
738.804	37.66
738.986	37.61
739.168	36.99
739.35	37.03
739.532	36.81
739.714	37.15
739.896	36.81
740.078	37.32
740.259	37.68
740.441	37.7
740.623	38.06
740.805	37.94
740.987	37.77
741.168	38.25
741.35	38.21
741.532	38.26
741.714	37.65
741.895	37.48
742.077	37.23
742.259	36.86
742.44	37.16
742.622	37.12
742.804	36.86
742.985	37.3
743.167	36.96
743.348	37.29
743.53	37.75
743.711	38.33
743.893	38.54
744.075	38.64
744.256	38.92
744.438	39.23
744.619	39.18
744.8	39.57
744.982	39.16
745.163	39.96
745.345	39.51
745.526	39.05
745.707	39.93
745.889	40.21
746.07	39.8
746.252	39.54
746.433	39.68
746.614	39.72
746.795	39.48
746.977	40.43
747.158	40.2
747.339	40.66
747.52	40.9
747.702	39.82
747.883	39.44
748.064	39.8
748.245	39.96
748.426	39.85
748.607	40.33
748.788	40.39
748.97	40.3
749.151	39.83
749.332	39.57
749.513	40.01
749.694	40.52
749.875	41.3
750.056	41.91
750.237	42.11
750.418	41.65
750.599	41.39
750.78	41.59
750.96	40.97
751.141	41.64
751.322	41.61
751.503	41.67
751.684	41.82
751.865	41.36
752.046	40.91
752.226	41.35
752.407	41.51
752.588	41.07
752.769	41.76
752.949	42.31
753.13	42.59
753.311	43.21
753.492	42.7
753.672	41.7
753.853	41.68
754.034	41.42
754.214	40.36
754.395	40.52
754.575	41.08
754.756	40.51
754.937	40.59
755.117	40.2
755.298	39.92
755.478	39.82
755.659	39.84
755.839	40.12
756.02	40.4
756.2	40.96
756.381	40.65
756.561	40.4
756.741	40.41
756.922	39.63
757.102	39.18
757.283	39.44
757.463	39.45
757.643	39.6
757.823	38.88
758.004	38.68
758.184	38.57
758.364	38.82
758.545	38.71
758.725	38.92
758.905	38.81
759.085	39.34
759.265	39.11
759.446	39.11
759.626	39.86
759.806	40.19
759.986	40.16
760.166	40.3
760.346	40.11
760.526	40.49
760.706	40.26
760.886	40.38
761.066	40.15
761.246	40.06
761.426	40.06
761.606	39.07
761.786	38.91
761.966	39.01
762.146	38.65
762.326	38.4
762.506	37.99
762.686	37.45
762.866	37.68
763.046	37.26
763.225	37.1
763.405	36.97
763.585	36.96
763.765	36.56
763.945	36.3
764.124	36.47
764.304	36.28
764.484	36.79
764.664	37.25
764.843	36.9
765.023	37.55
765.203	37.15
765.382	37.45
765.562	37.97
765.741	38.51
765.921	38.66
766.101	38.77
766.28	39.31
766.46	38.81
766.639	38.91
766.819	39.67
766.998	39.4
767.178	39.82
767.357	39.3
767.537	39.62
767.716	39.51
767.896	39.45
768.075	39.67
768.254	40.03
768.434	40.24
768.613	40.03
768.792	39.96
768.972	40.7
769.151	41.36
769.33	41.46
769.51	41.09
769.689	41.13
769.868	41.58
770.047	41.43
770.226	41.29
770.406	41.75
770.585	42.31
770.764	41.64
770.943	40.36
771.122	40.16
771.301	40.62
771.48	40.8
771.66	41.13
771.839	41.34
772.018	41.34
772.197	40.4
772.376	40.51
772.555	40.21
772.734	40.18
772.913	41.18
773.092	41.31
773.271	41.47
773.449	40.31
773.628	40.35
773.807	40.11
773.986	40.63
774.165	41.05
774.344	40.77
774.523	41.03
774.701	42.28
774.88	42.31
775.059	42.43
775.238	42.9
775.417	43.43
775.595	44.21
775.774	44.4
775.953	43.72
776.131	43.74
776.31	43.09
776.489	43.27
776.667	42.24
776.846	41.44
777.025	41.48
777.203	40.31
777.382	41.85
777.56	41.46
777.739	41.72
777.917	41.99
778.096	42.28
778.274	43.27
778.453	42.36
778.631	42.16
778.81	42.65
778.988	43.16
779.166	43.64
779.345	42.51
779.523	42.32
779.702	42.47
779.88	41.69
780.058	41.15
780.237	40.72
780.415	41.45
780.593	41.98
780.771	42.98
780.95	42.43
781.128	43.01
781.306	44.19
781.484	43.72
781.662	43.3
781.841	43.61
782.019	44.56
782.197	44.4
782.375	44.38
782.553	44.38
782.731	43.29
782.909	42.55
783.087	42.27
783.265	41.6
783.443	41.38
783.621	42.21
783.799	42.88
783.977	43.67
784.155	44.78
784.333	44.52
784.511	45.44
784.689	44.86
784.867	45.14
785.045	45.23
785.223	45.67
785.4	46.54
785.578	46.16
785.756	45.98
785.934	45.18
786.112	44.53
786.289	44.67
786.467	44.74
786.645	45.2
786.823	45.48
787	44.96
787.178	44.48
787.356	45.26
787.533	44.44
787.711	44.85
787.889	44.56
788.066	44.67
788.244	44.41
788.421	43.82
788.599	43.93
788.776	43.65
788.954	43.76
789.131	43.12
789.309	42.22
789.486	42.67
789.664	41.54
789.841	41.98
790.019	40.91
790.196	40.89
790.373	40.46
790.551	40.5
790.728	41.25
790.906	41.54
791.083	43.31
791.26	44.18
791.437	43.1
791.615	43.57
791.792	43.76
791.969	44.68
792.146	44.78
792.324	45.85
792.501	45.96
792.678	44.96
792.855	45.13
793.032	44.22
793.209	43.2
793.387	44.29
793.564	44.81
793.741	44.4
793.918	43.9
794.095	44.34
794.272	43.34
794.449	43.64
794.626	44.44
794.803	44.21
794.98	44.95
795.157	44.04
795.334	44.06
795.511	44.51
795.688	44.21
795.864	45.15
796.041	44.42
796.218	44.8
796.395	44.42
796.572	45.54
796.749	46.25
796.925	45.14
797.102	46.07
797.279	45.73
797.456	45.5
797.632	45.89
797.809	45.15
797.986	46.46
798.162	45.9
798.339	46.05
798.516	44.75
798.692	44.78
798.869	44.77
799.046	44.5
799.222	45.4
799.399	44.4
799.575	44.43
799.752	44.5
799.928	42.97
800.105	43.43
800.281	44.23
800.458	44.23
800.634	44.06
800.811	44.79
800.987	46.58
801.163	46.56
801.34	48.32
801.516	48.87
801.692	48.76
801.869	48.78
802.045	49.55
802.221	48.86
802.398	49.32
802.574	48.6
802.75	49.59
802.926	48.07
803.103	47.56
803.279	47.24
803.455	46.73
803.631	46.42
803.807	47.2
803.983	46.57
804.16	45.59
804.336	46.19
804.512	46.59
804.688	45.5
804.864	46.34
805.04	46.68
805.216	46.75
805.392	47.6
805.568	49.17
805.744	50.16
805.92	50.88
806.096	51.11
806.272	50.67
806.448	51.08
806.623	51.87
806.799	51.96
806.975	51.62
807.151	51.66
807.327	51.18
807.503	49.42
807.678	47.77
807.854	48.09
808.03	49.03
808.206	47.75
808.381	47.42
808.557	46.79
808.733	46.02
808.908	45.9
809.084	45.3
809.26	46.88
809.435	46.85
809.611	47.78
809.787	47.31
809.962	47.58
810.138	49.21
810.313	48.35
810.489	48.28
810.664	48.62
810.84	50.79
811.015	50.27
811.191	48.84
811.366	49.91
811.542	49.32
811.717	49.45
811.892	49.19
812.068	49.25
812.243	50.12
812.419	49.5
812.594	49.78
812.769	47.53
812.944	48.99
813.12	48.85
813.295	50.16
813.47	51.07
813.645	51.28
813.821	51.58
813.996	51.1
814.171	51.8
814.346	52.52
814.521	51.47
814.697	52.17
814.872	51.55
815.047	51.83
815.222	51.1
815.397	51.02
815.572	50.43
815.747	48.73
815.922	48.4
816.097	47.51
816.272	47.13
816.447	48.52
816.622	47.81
816.797	47.08
816.972	47.5
817.147	48.47
817.322	48.29
817.496	48.86
817.671	49.27
817.846	48.83
818.021	49
818.196	49.08
818.371	47.73
818.545	46.97
818.72	47.34
818.895	45.97
819.069	44.48
819.244	43.92
819.419	42.4
819.594	42.29
819.768	41.39
819.943	40.03
820.117	39.28
820.292	38.81
820.467	38.41
820.641	36.86
820.816	36.2
820.99	35.28
821.165	34.75
821.339	34.2
821.514	33.77
821.688	33.56
821.863	33.24
822.037	33.02
822.212	32.5
822.386	32.1
822.56	32.12
822.735	31.84
822.909	31.66
823.084	31.45
823.258	31.36
823.432	31.28
823.606	31.31
823.781	31.38
823.955	31.6
824.129	31.76
824.303	32.25
824.478	31.9
824.652	32.24
824.826	31.95
825	32.27
825.174	32.69
825.348	32.69
825.523	33.09
825.697	33.71
825.871	33.56
826.045	33.66
826.219	33.25
826.393	34.55
826.567	34.44
826.741	35.48
826.915	35.38
827.089	34.99
827.263	34.98
827.437	34.64
827.611	34.21
827.784	34.04
827.958	34.38
828.132	34.61
828.306	34.52
828.48	34.64
828.654	34.83
828.827	35.29
829.001	35.8
829.175	36.6
829.349	37.12
829.522	37.51
829.696	38.69
829.87	39.17
830.044	40.42
830.217	41.41
830.391	41.99
830.565	42.11
830.738	42.82
830.912	44.65
831.085	44.82
831.259	45.09
831.432	45.93
831.606	45.1
831.779	45.19
831.953	45.84
832.126	44.07
832.3	44.34
832.473	43.65
832.647	42.35
832.82	41.31
832.994	41.1
833.167	40.76
833.34	39.86
833.514	39.37
833.687	39.17
833.86	37.9
834.034	38.46
834.207	37.98
834.38	38.12
834.553	38.24
834.727	38.25
834.9	37.75
835.073	38.23
835.246	39.39
835.419	39.15
835.593	39.64
835.766	40.04
835.939	39.85
836.112	40.99
836.285	41.59
836.458	41.23
836.631	42.33
836.804	44.51
836.977	44.33
837.15	44
837.323	45.03
837.496	45.26
837.669	46.93
837.842	48.08
838.015	49.01
838.188	49.07
838.361	52.96
838.533	51.63
838.706	52.9
838.879	51.91
839.052	54.08
839.225	55.44
839.398	56.01
839.57	56.35
839.743	56.96
839.916	55.69
840.088	57.16
840.261	55.64
840.434	59.35
840.607	56.82
840.779	58.51
840.952	56.15
841.124	55.95
841.297	54.65
841.47	54.23
841.642	53.81
841.815	54.16
841.987	53.13
842.16	53.79
842.332	51.79
842.505	55.77
842.677	56.41
842.85	58.32
843.022	59.12
843.194	61.41
843.367	62.45
843.539	63.99
843.712	64.49
843.884	66.22
844.056	66.99
844.229	68.01
844.401	66.81
844.573	67.47
844.745	67.31
844.918	68.86
845.09	71.15
845.262	69.93
845.434	69.78
845.606	70.56
845.779	69.39
845.951	70.9
846.123	68.76
846.295	65.48
846.467	63.68
846.639	66.4
846.811	66.57
846.983	68.55
847.155	69.17
847.327	70.57
847.499	73.82
847.671	71.01
847.843	71.81
848.015	72.51
848.187	76.66
848.359	81.15
848.531	81.03
848.703	80.1
848.875	73.22
849.047	75.51
849.218	71.58
849.39	72.46
849.562	76.89
849.734	75.02
849.905	81.26
850.077	80.74
850.249	83.16
850.421	84.27
850.592	80.37
850.764	87.77
850.936	82.91
851.107	90.01
851.279	88.3
851.451	90.86
851.622	89.56
851.794	83.55
851.965	86.65
852.137	85.75
852.308	85.64
852.48	96.22
852.651	93.61
852.823	97.28
852.994	93.7
853.166	91.65
853.337	92.6
853.509	97.98
853.68	99.08
853.851	95.5
854.023	94.59
854.194	91.84
854.365	89.32
854.537	87.44
854.708	86.28
854.879	86.2
855.05	89.01
855.222	87.38
855.393	83.43
855.564	81.69
855.735	82.1
855.906	83.48
856.078	85.47
856.249	85.76
856.42	86.17
856.591	91.76
856.762	96.32
856.933	93.12
857.104	94.72
857.275	92.09
857.446	91.72
857.617	93.31
857.788	90.03
857.959	89.25
858.13	90.1
858.301	95.68
858.472	92.63
858.643	90.72
858.814	93.07
858.985	92.51
859.155	102.09
859.326	108.8
859.497	105.29
859.668	106.65
859.839	104.87
860.009	102.5
860.18	103.46
860.351	95.54
860.522	96.99
860.692	94.36
860.863	96.08
861.034	90.42
861.204	86.85
861.375	88.76
861.546	88.75
861.716	90.51
861.887	90.73
862.057	88.15
862.228	93.17
862.398	89.4
862.569	92.3
862.739	85.71
862.91	88.46
863.08	90
863.251	89.17
863.421	86.44
863.592	85.08
863.762	86
863.932	85.32
864.103	83.41
864.273	81.62
864.443	81.31
864.614	86.06
864.784	87.21
864.954	85.82
865.125	89.63
865.295	91.62
865.465	90.17
865.635	87.88
865.805	87.57
865.976	92.24
866.146	92
866.316	89.81
866.486	88.64
866.656	86.72
866.826	85.08
866.996	84.5
867.166	86.34
867.336	85.75
867.506	83.38
867.676	82.74
867.846	82.61
868.016	87.69
868.186	93.38
868.356	87.73
868.526	88.3
868.696	93.26
868.866	89.48
869.036	89.36
869.206	88.69
869.376	91.14
869.545	88.51
869.715	84.7
869.885	82.5
870.055	77.95
870.224	83
870.394	84.57
870.564	85.07
870.734	87.58
870.903	85.49
871.073	88.06
871.243	88.89
871.412	92.39
871.582	89.79
871.751	94.45
871.921	95.81
872.091	94.71
872.26	87.29
872.43	80.94
872.599	79.73
872.769	77.75
872.938	75.55
873.108	75.58
873.277	76.13
873.446	82.11
873.616	80.5
873.785	80.07
873.955	74.92
874.124	79.77
874.293	80.85
874.463	78.14
874.632	81.12
874.801	86.92
874.971	84.18
875.14	78.14
875.309	73.07
875.478	73.54
875.647	74.42
875.817	80.45
875.986	80.88
876.155	85.21
876.324	84.46
876.493	81.97
876.662	78.97
876.831	80.49
877	85.66
877.17	85.57
877.339	81.48
877.508	78.49
877.677	77.53
877.846	76.91
878.015	73.68
878.184	75.43
878.352	73.8
878.521	71.38
878.69	70.92
878.859	65.8
879.028	67.98
879.197	70.32
879.366	70.95
879.534	67.69
879.703	66.95
879.872	60.89
880.041	57.56
880.21	55.67
880.378	53.84
880.547	48.96
880.716	48.13
880.884	44.75
881.053	42.62
881.222	40.08
881.39	38.51
881.559	36.83
881.727	36.5
881.896	35.64
882.065	34.91
882.233	34.45
882.402	34.8
882.57	33.95
882.739	34.39
882.907	34.06
883.076	33.93
883.244	34.39
883.412	34.16
883.581	34.75
883.749	34.73
883.918	35.27
884.086	36
884.254	35.75
884.423	36.44
884.591	37.13
884.759	37.58
884.927	39.38
885.096	40.32
885.264	42.7
885.432	44.74
885.6	48.57
885.769	52.23
885.937	52.9
886.105	56.33
886.273	59.48
886.441	61.28
886.609	64.1
886.777	62.07
886.945	65.73
887.113	66.94
887.281	69.6
887.449	69.21
887.617	68.2
887.785	71.22
887.953	72.78
888.121	72.17
888.289	71.09
888.457	71.65
888.625	75.16
888.793	73.39
888.961	76.82
889.129	73.79
889.296	74.09
889.464	73.42
889.632	72.93
889.8	74.37
889.967	78.02
890.135	78.35
