Data from 2938821__Reflection_04.txt Node
Date: Thu Mar 12 14:27:54 EDT 2015
User: robert
Spectrometer: USB4E03002
Autoset integration time: false
Trigger mode: 4
Integration Time (sec): 1.000000E-1
Scans to average: 10
Electric dark correction enabled: false
Nonlinearity correction enabled: false
Boxcar width: 5
Stray light correction enabled: false
XAxis mode: Wavelengths
Stop averaging: false
Number of Pixels in Spectrum: 3648
>>>>>Begin Spectral Data<<<<<
177.575	172.99
177.794	147.34
178.014	88.86
178.233	70.81
178.452	56.81
178.672	52.63
178.891	41.68
179.11	30.88
179.33	12.08
179.549	26.06
179.768	34.52
179.987	0.52
180.207	-32.21
180.426	-58.57
180.645	-219.55
180.864	-273.79
181.084	-675.61
181.303	276.61
181.522	3009.09
181.741	-600
181.96	-214.74
182.179	-601.45
182.398	-1108
182.618	-656.25
182.837	885
183.056	312.17
183.275	187.85
183.494	200.43
183.713	216.67
183.932	154.17
184.151	153.76
184.37	146.61
184.589	152.43
184.808	197.03
185.027	208.68
185.246	176.01
185.465	269.71
185.684	295.61
185.903	204.92
186.122	185.89
186.341	253.18
186.56	202.8
186.779	218.47
186.998	206.82
187.216	160.75
187.435	150
187.654	145.08
187.873	102.53
188.092	83.45
188.311	94.18
188.53	89.77
188.748	51.31
188.967	42.14
189.186	25.65
189.405	-25.64
189.623	-102.64
189.842	-100
190.061	-48.06
190.28	-52.13
190.498	3.45
190.717	32.98
190.936	-10.05
191.154	62.45
191.373	47.49
191.592	46.02
191.81	43.74
192.029	76.15
192.248	73.35
192.466	88.46
192.685	101.49
192.904	61.93
193.122	14.29
193.341	42.86
193.559	18.41
193.778	104.3
193.996	-112.39
194.215	-94.25
194.433	-1047.06
194.652	113.1
194.87	96.55
195.089	162.91
195.307	312.84
195.526	316.38
195.744	324.81
195.963	378.22
196.181	210.66
196.399	163.29
196.618	257.8
196.836	400
197.055	-155.56
197.273	747.92
197.491	543.1
197.71	906.67
197.928	880.49
198.146	339.34
198.365	133.09
198.583	168
198.801	152.92
199.019	233.55
199.238	256.02
199.456	136.09
199.674	110.84
199.892	26.42
200.111	76.92
200.329	74.75
200.547	25.87
200.765	9650
200.983	-442.11
201.202	1066.67
201.42	-1607.14
201.638	-97.17
201.856	533.33
202.074	-1373.33
202.292	664.71
202.51	1055.1
202.728	282.8
202.946	466.67
203.165	290.2
203.383	320.24
203.601	214.71
203.819	141.39
204.037	165.14
204.255	149.44
204.473	127.27
204.691	313.68
204.909	110.64
205.127	286
205.345	180.56
205.562	-300
205.78	53.91
205.998	56.71
206.216	52.65
206.434	59.56
206.652	40.42
206.87	62.56
207.088	37.91
207.306	32.35
207.523	26.74
207.741	24.29
207.959	40.13
208.177	24.43
208.395	13.51
208.612	27.09
208.83	20.93
209.048	43.39
209.266	16.81
209.483	26.69
209.701	44.51
209.919	63.5
210.136	77.61
210.354	60.66
210.572	97.38
210.79	97.45
211.007	86.59
211.225	82.82
211.442	87.84
211.66	97.28
211.878	89.58
212.095	89.1
212.313	67.8
212.53	61.02
212.748	63.88
212.966	58.12
213.183	61.65
213.401	61.68
213.618	58.86
213.836	59.45
214.053	72.03
214.271	65.75
214.488	73.72
214.705	85.06
214.923	103.79
215.14	101.27
215.358	87.4
215.575	83.43
215.793	115.82
216.01	83.8
216.227	86.63
216.445	68.76
216.662	61.95
216.879	51.13
217.097	37.43
217.314	18.06
217.531	43.93
217.749	49.48
217.966	39.4
218.183	37.76
218.4	48.87
218.618	51.47
218.835	51.06
219.052	44.99
219.269	37.1
219.487	37.49
219.704	48.58
219.921	43.51
220.138	46.27
220.355	41.56
220.572	39.13
220.79	35.39
221.007	24.96
221.224	25.78
221.441	31.74
221.658	33.32
221.875	31.77
222.092	19.03
222.309	21.36
222.526	13.38
222.743	19.66
222.96	14.86
223.177	21.3
223.394	22.88
223.611	21.38
223.828	6.99
224.045	7.96
224.262	12.01
224.479	17.52
224.696	15.97
224.913	20.1
225.13	22.57
225.347	23.62
225.564	16.32
225.781	14.13
225.997	15.68
226.214	17.22
226.431	15.62
226.648	11.9
226.865	9.05
227.082	9.1
227.298	7.69
227.515	4.08
227.732	3.81
227.949	3.97
228.165	4.01
228.382	3.67
228.599	3.47
228.816	4.19
229.032	3.6
229.249	2.77
229.466	1.63
229.682	1.4
229.899	1.9
230.116	1.37
230.332	1.49
230.549	2.64
230.765	2.21
230.982	2.44
231.199	1.12
231.415	3.18
231.632	4.72
231.848	6.11
232.065	6.29
232.281	7.39
232.498	9.03
232.714	9.45
232.931	9.17
233.147	7.91
233.364	7.62
233.58	8.68
233.797	6
234.013	5.56
234.23	6.76
234.446	5.58
234.662	4.96
234.879	4.04
235.095	4.25
235.312	3.08
235.528	4.73
235.744	4.98
235.961	6.44
236.177	6.47
236.393	7.13
236.61	5.72
236.826	6.61
237.042	7.09
237.258	8.6
237.475	9.98
237.691	10.28
237.907	9.56
238.123	8.43
238.339	6.65
238.556	8.34
238.772	7.14
238.988	6.55
239.204	8.3
239.42	8.42
239.636	7.96
239.853	6.15
240.069	5.4
240.285	5.55
240.501	6.63
240.717	6.69
240.933	5.81
241.149	6.17
241.365	6.31
241.581	5.05
241.797	4.68
242.013	3.94
242.229	3.47
242.445	3.68
242.661	3.66
242.877	2.79
243.093	2.53
243.309	2.81
243.525	2.24
243.741	1.85
243.957	3.06
244.173	3.02
244.388	3.48
244.604	3.87
244.82	3.59
245.036	3.54
245.252	4.39
245.468	3.91
245.683	3.59
245.899	3.56
246.115	3.41
246.331	2.75
246.547	2.5
246.762	2.29
246.978	2.48
247.194	2.65
247.409	2.64
247.625	2.67
247.841	2.98
248.057	2.97
248.272	3.24
248.488	3.34
248.703	3.06
248.919	3.44
249.135	3.42
249.35	3.39
249.566	3.4
249.782	3.16
249.997	3.11
250.213	3.14
250.428	3.25
250.644	2.53
250.859	2.5
251.075	2.83
251.29	2.91
251.506	3.07
251.721	2.45
251.937	2.44
252.152	3.33
252.368	3.57
252.583	2.63
252.798	3.05
253.014	3.07
253.229	3.38
253.445	3.86
253.66	3.34
253.875	4.15
254.091	4.36
254.306	4.28
254.521	4.36
254.737	4.11
254.952	4.62
255.167	4.04
255.383	4.11
255.598	4.4
255.813	4.27
256.028	4.7
256.244	3.5
256.459	3.65
256.674	3.17
256.889	2.72
257.104	2.42
257.32	2.8
257.535	2.18
257.75	2.79
257.965	3.04
258.18	2.55
258.395	2.35
258.61	2.61
258.826	2.54
259.041	2.4
259.256	2.39
259.471	2.42
259.686	2.18
259.901	2.25
260.116	2.24
260.331	1.89
260.546	1.78
260.761	1.95
260.976	1.96
261.191	2.32
261.406	2.61
261.621	2.36
261.836	2.46
262.05	2.94
262.265	3.26
262.48	3.2
262.695	3.58
262.91	4.45
263.125	4.02
263.34	3.97
263.555	3.15
263.769	3.12
263.984	3.35
264.199	2.93
264.414	2.72
264.629	2.71
264.843	2.38
265.058	2
265.273	2.06
265.488	2.61
265.702	2.41
265.917	1.95
266.132	2.36
266.346	2.59
266.561	3.03
266.776	3.13
266.99	2.78
267.205	3.17
267.42	3.26
267.634	3.06
267.849	2.9
268.063	2.84
268.278	4.03
268.492	3.75
268.707	3.39
268.922	3.81
269.136	3.74
269.351	3.83
269.565	3.44
269.78	2.97
269.994	2.74
270.209	2.53
270.423	2.56
270.637	1.95
270.852	2.04
271.066	1.97
271.281	1.09
271.495	0.89
271.709	1.03
271.924	1.04
272.138	1.36
272.353	1.57
272.567	1.87
272.781	1.87
272.996	1.86
273.21	1.62
273.424	1.93
273.638	2.15
273.853	1.94
274.067	2.01
274.281	2.4
274.495	2.48
274.71	2.48
274.924	2.17
275.138	1.9
275.352	1.92
275.566	2.31
275.781	2.59
275.995	2.75
276.209	3.44
276.423	3.21
276.637	2.94
276.851	2.79
277.065	2.63
277.279	2.4
277.493	2.91
277.707	2.95
277.921	2.36
278.135	1.38
278.349	1.29
278.563	1.25
278.777	1.51
278.991	1.5
279.205	1.75
279.419	1.77
279.633	2.23
279.847	2.66
280.061	2.67
280.275	2.92
280.489	3.46
280.703	3.42
280.917	3.21
281.131	2.85
281.344	2.68
281.558	2.4
281.772	2.38
281.986	1.99
282.2	1.1
282.414	1.22
282.627	1.19
282.841	1.28
283.055	1.38
283.269	1.54
283.482	1.43
283.696	1.59
283.91	1.47
284.123	1.43
284.337	1.5
284.551	1.5
284.764	1.28
284.978	1.46
285.192	1.44
285.405	1
285.619	0.74
285.833	0.93
286.046	0.74
286.26	0.88
286.473	0.69
286.687	0.68
286.9	0.93
287.114	0.92
287.327	0.93
287.541	0.65
287.754	1.59
287.968	1.56
288.181	1.29
288.395	1.55
288.608	1.46
288.822	1.76
289.035	2.21
289.248	2.47
289.462	2.65
289.675	2.48
289.889	2.49
290.102	1.56
290.315	1.71
290.529	1.74
290.742	1.81
290.955	2
291.169	1.96
291.382	1.94
291.595	1.94
291.808	1.58
292.022	1.98
292.235	2.1
292.448	2.58
292.661	2.47
292.875	2.77
293.088	2.61
293.301	2.58
293.514	2.81
293.727	3.06
293.94	2.92
294.153	3.41
294.367	3.07
294.58	3.42
294.793	3.31
295.006	3.32
295.219	3.34
295.432	3.35
295.645	3.44
295.858	3.4
296.071	2.84
296.284	3.04
296.497	2.89
296.71	2.67
296.923	2.44
297.136	2.7
297.349	2.98
297.562	3.09
297.775	3.18
297.988	3.03
298.201	2.93
298.414	3.41
298.626	3.39
298.839	3.67
299.052	3.91
299.265	3.97
299.478	3.61
299.691	3.67
299.903	3.71
300.116	3.65
300.329	4.07
300.542	3.88
300.755	3.59
300.967	3.33
301.18	3.19
301.393	3.14
301.605	3.22
301.818	3.59
302.031	3.76
302.243	3.59
302.456	3.56
302.669	3.35
302.881	3.48
303.094	3.63
303.307	3.94
303.519	3.79
303.732	3.92
303.944	3.86
304.157	3.86
304.37	3.35
304.582	3.42
304.795	3.58
305.007	3.92
305.22	4.22
305.432	4.12
305.645	4.18
305.857	4.28
306.069	4.26
306.282	4.39
306.494	4.48
306.707	4.64
306.919	4.36
307.132	4.19
307.344	4.15
307.556	3.85
307.769	3.76
307.981	3.71
308.193	3.64
308.406	3.86
308.618	3.88
308.83	3.93
309.043	3.78
309.255	3.82
309.467	3.8
309.679	3.57
309.892	3.86
310.104	3.93
310.316	4.02
310.528	4.24
310.74	4.06
310.953	3.95
311.165	3.88
311.377	4.07
311.589	4.35
311.801	4.59
312.013	4.39
312.225	4.11
312.437	4.35
312.649	4.24
312.862	4.07
313.074	4.12
313.286	4.27
313.498	4.37
313.71	4.42
313.922	4.35
314.134	4.13
314.346	4.31
314.558	4.63
314.77	4.47
314.982	4.77
315.193	5.06
315.405	4.96
315.617	4.85
315.829	4.82
316.041	4.94
316.253	5.15
316.465	5.2
316.677	5.87
316.888	5.87
317.1	5.8
317.312	5.61
317.524	5.52
317.736	6.12
317.947	6.71
318.159	6.9
318.371	7.01
318.583	7.29
318.794	7.83
319.006	7.28
319.218	7.39
319.43	7.2
319.641	7.25
319.853	7.38
320.064	6.93
320.276	6.45
320.488	6.39
320.699	6.46
320.911	6.06
321.123	6
321.334	6.55
321.546	6.64
321.757	7.11
321.969	7.1
322.18	7.04
322.392	7.24
322.603	7.53
322.815	7.54
323.026	7.58
323.238	7.74
323.449	7.98
323.661	8.01
323.872	8.2
324.083	8.39
324.295	8.6
324.506	8.57
324.718	8.79
324.929	8.8
325.14	9.22
325.352	9.31
325.563	9.65
325.774	9.7
325.986	9.97
326.197	10.45
326.408	10.65
326.62	10.98
326.831	11.21
327.042	11.62
327.253	12.05
327.464	12.57
327.676	13.17
327.887	13.43
328.098	13.8
328.309	13.87
328.52	13.88
328.732	14.4
328.943	14.95
329.154	15.6
329.365	15.75
329.576	15.84
329.787	15.52
329.998	15.72
330.209	16.07
330.42	16.47
330.631	16.94
330.842	17.3
331.053	17.25
331.264	17.28
331.475	17.54
331.686	17.88
331.897	18.12
332.108	18.79
332.319	19.09
332.53	19.21
332.741	19.17
332.952	19.59
333.163	19.91
333.374	20.42
333.585	20.59
333.795	20.93
334.006	21
334.217	21.34
334.428	21.14
334.639	20.7
334.849	20.53
335.06	20.78
335.271	20.76
335.482	20.77
335.692	20.92
335.903	21.06
336.114	21.13
336.325	21.67
336.535	22.07
336.746	22.22
336.957	22.78
337.167	23.08
337.378	23.13
337.589	23.11
337.799	22.9
338.01	22.64
338.22	22.7
338.431	22.82
338.642	22.2
338.852	22.06
339.063	21.88
339.273	21.77
339.484	22.11
339.694	21.98
339.905	21.9
340.115	21.9
340.326	22.08
340.536	21.93
340.746	21.43
340.957	21.46
341.167	21.28
341.378	21.67
341.588	21.74
341.799	21.31
342.009	21.46
342.219	21.38
342.43	21.59
342.64	21.32
342.85	21.44
343.061	21.55
343.271	21.78
343.481	21.68
343.691	21.23
343.902	21.4
344.112	21.63
344.322	21.61
344.532	21.49
344.743	21.42
344.953	21.63
345.163	21.46
345.373	21.46
345.583	21.36
345.793	21.5
346.004	22.04
346.214	21.76
346.424	21.43
346.634	21.49
346.844	21.58
347.054	21.27
347.264	20.76
347.474	20.88
347.684	21.04
347.894	20.84
348.104	20.92
348.314	20.52
348.524	20.54
348.734	20.99
348.944	20.62
349.154	20.87
349.364	21.25
349.574	21.44
349.784	21.29
349.994	21.2
350.204	21.36
350.413	21.35
350.623	21.42
350.833	21.36
351.043	21.05
351.253	21.44
351.463	21.38
351.672	21.16
351.882	21.11
352.092	21.02
352.302	20.92
352.511	20.87
352.721	20.76
352.931	20.93
353.141	20.63
353.35	20.63
353.56	20.73
353.77	20.56
353.979	20.57
354.189	20.65
354.399	20.74
354.608	20.68
354.818	20.77
355.027	20.79
355.237	20.86
355.447	20.89
355.656	20.67
355.866	20.21
356.075	20.09
356.285	20.27
356.494	20.11
356.704	20.04
356.913	20.03
357.123	20.05
357.332	19.96
357.542	19.71
357.751	19.75
357.96	19.94
358.17	19.89
358.379	19.92
358.589	19.71
358.798	19.54
359.007	19.55
359.217	19.46
359.426	19.32
359.635	19.2
359.845	19.07
360.054	19.09
360.263	19.09
360.472	19.23
360.682	19.34
360.891	19.47
361.1	19.67
361.309	19.64
361.519	19.7
361.728	19.82
361.937	19.86
362.146	19.77
362.355	19.87
362.564	19.87
362.774	19.84
362.983	19.64
363.192	19.43
363.401	19.34
363.61	19.28
363.819	19.22
364.028	19.25
364.237	19.26
364.446	19.32
364.655	19.1
364.864	19.09
365.073	19.27
365.282	19.49
365.491	19.67
365.7	19.75
365.909	19.71
366.118	19.63
366.327	19.46
366.536	19.31
366.745	19.17
366.954	19.38
367.162	19.43
367.371	19.39
367.58	19.28
367.789	18.97
367.998	18.93
368.207	19
368.415	19.18
368.624	19.26
368.833	19.32
369.042	19.49
369.25	19.63
369.459	19.43
369.668	19.21
369.877	19.39
370.085	19.51
370.294	19.71
370.503	19.55
370.711	19.45
370.92	19.23
371.129	19.41
371.337	19.38
371.546	19.34
371.754	19.38
371.963	19.33
372.171	19.02
372.38	18.94
372.589	18.89
372.797	19.02
373.006	18.84
373.214	18.75
373.423	18.62
373.631	18.75
373.84	18.53
374.048	18.66
374.256	18.67
374.465	18.6
374.673	18.85
374.882	18.75
375.09	18.47
375.298	18.64
375.507	18.68
375.715	18.65
375.923	18.42
376.132	18.41
376.34	18.46
376.548	18.38
376.757	18.45
376.965	18.43
377.173	18.46
377.381	18.67
377.59	18.63
377.798	18.82
378.006	18.54
378.214	18.53
378.423	18.42
378.631	18.2
378.839	18.06
379.047	18
379.255	17.81
379.463	17.74
379.671	17.62
379.879	17.68
380.088	17.59
380.296	17.78
380.504	18
380.712	18.02
380.92	18.17
381.128	18.2
381.336	18.09
381.544	17.95
381.752	17.99
381.96	17.89
382.168	17.89
382.376	17.99
382.584	18.04
382.791	17.9
382.999	18.07
383.207	17.69
383.415	17.95
383.623	18.09
383.831	18.36
384.039	18.29
384.247	18.43
384.454	18.32
384.662	18.13
384.87	17.86
385.078	17.78
385.285	17.65
385.493	17.74
385.701	17.64
385.909	17.54
386.116	17.61
386.324	17.61
386.532	17.5
386.739	17.69
386.947	17.69
387.155	17.72
387.362	17.88
387.57	17.84
387.778	17.86
387.985	17.77
388.193	17.95
388.4	17.78
388.608	17.86
388.816	17.98
389.023	17.83
389.231	17.7
389.438	17.78
389.646	17.75
389.853	17.77
390.061	17.83
390.268	17.98
390.475	17.97
390.683	17.91
390.89	17.85
391.098	17.95
391.305	18
391.512	18.1
391.72	18.1
391.927	17.93
392.135	17.77
392.342	17.84
392.549	17.7
392.756	17.58
392.964	17.59
393.171	17.7
393.378	17.63
393.586	17.67
393.793	17.7
394	17.84
394.207	17.95
394.414	18.05
394.622	18.03
394.829	18.19
395.036	18.11
395.243	18.19
395.45	18.07
395.657	18
395.864	17.89
396.072	17.76
396.279	17.71
396.486	17.67
396.693	17.77
396.9	17.64
397.107	17.37
397.314	17.57
397.521	17.65
397.728	17.67
397.935	17.62
398.142	17.56
398.349	17.68
398.556	17.58
398.763	17.51
398.97	17.57
399.177	17.67
399.383	17.87
399.59	17.84
399.797	17.75
400.004	17.8
400.211	18.01
400.418	18.18
400.625	18.11
400.831	18.24
401.038	18.34
401.245	18.21
401.452	18.24
401.658	18.1
401.865	18.02
402.072	18.09
402.279	18.01
402.485	18.05
402.692	17.95
402.899	18.13
403.105	18.05
403.312	18.16
403.519	18.15
403.725	18.02
403.932	18.12
404.138	18.29
404.345	18.28
404.552	18.21
404.758	18.28
404.965	18.2
405.171	18.12
405.378	18.17
405.584	18.27
405.791	18.3
405.997	18.36
406.204	18.4
406.41	18.34
406.617	18.38
406.823	18.52
407.029	18.44
407.236	18.66
407.442	18.85
407.649	18.86
407.855	18.65
408.061	18.64
408.268	18.7
408.474	18.69
408.68	18.75
408.887	18.59
409.093	18.45
409.299	18.31
409.505	18.14
409.712	18.05
409.918	18.03
410.124	18.18
410.33	18.29
410.537	18.29
410.743	18.33
410.949	18.29
411.155	18.45
411.361	18.43
411.567	18.34
411.773	18.44
411.98	18.33
412.186	18.31
412.392	18.15
412.598	18.15
412.804	18.17
413.01	18.09
413.216	18.01
413.422	17.69
413.628	17.84
413.834	17.94
414.04	17.87
414.246	17.97
414.452	18.26
414.658	18.29
414.864	18.23
415.07	18.32
415.275	18.33
415.481	18.36
415.687	18.42
415.893	18.43
416.099	18.36
416.305	18.38
416.511	18.3
416.716	18.14
416.922	18.07
417.128	18.17
417.334	18.08
417.539	18.04
417.745	18
417.951	18.01
418.157	17.96
418.362	18.04
418.568	18.02
418.774	18.03
418.979	17.95
419.185	18.04
419.391	17.88
419.596	17.94
419.802	17.97
420.008	17.99
420.213	17.5
420.419	17.49
420.624	17.45
420.83	17.38
421.035	17.42
421.241	17.46
421.446	17.44
421.652	17.44
421.857	17.45
422.063	17.5
422.268	17.51
422.474	18.01
422.679	18.01
422.885	17.98
423.09	18.02
423.295	17.97
423.501	18
423.706	17.99
423.911	18.05
424.117	17.94
424.322	17.89
424.527	17.87
424.733	17.9
424.938	17.93
425.143	17.97
425.349	18.04
425.554	18.03
425.759	18.07
425.964	18.15
426.169	18.14
426.375	18.19
426.58	18.32
426.785	18.31
426.99	18.32
427.195	18.2
427.4	18.21
427.605	18.23
427.811	18.2
428.016	18.1
428.221	18.01
428.426	18.09
428.631	18.13
428.836	18.02
429.041	18.13
429.246	18.11
429.451	18.22
429.656	18.22
429.861	18.14
430.066	18.23
430.271	18.31
430.476	18.35
430.681	18.23
430.886	18.21
431.09	18.24
431.295	18.24
431.5	18.21
431.705	18.24
431.91	18.24
432.115	18.25
432.32	18.2
432.524	18.19
432.729	18.23
432.934	18.25
433.139	18.26
433.343	18.36
433.548	18.31
433.753	18.37
433.958	18.45
434.162	18.65
434.367	18.7
434.572	18.75
434.776	18.82
434.981	18.75
435.186	18.8
435.39	18.92
435.595	18.86
435.799	18.8
436.004	18.67
436.209	18.55
436.413	18.48
436.618	18.46
436.822	18.42
437.027	18.35
437.231	18.34
437.436	18.31
437.64	18.26
437.845	18.23
438.049	18.31
438.253	18.29
438.458	18.34
438.662	18.24
438.867	18.26
439.071	18.27
439.275	18.25
439.48	18.26
439.684	18.26
439.888	18.2
440.093	18.19
440.297	18.19
440.501	18.29
440.706	18.26
440.91	18.21
441.114	18.23
441.318	18.31
441.523	18.33
441.727	18.42
441.931	18.49
442.135	18.5
442.339	18.51
442.543	18.5
442.748	18.44
442.952	18.51
443.156	18.71
443.36	18.65
443.564	18.6
443.768	18.52
443.972	18.42
444.176	18.47
444.38	18.52
444.584	18.51
444.788	18.61
444.992	18.75
445.196	18.74
445.4	18.65
445.604	18.67
445.808	18.7
446.012	18.78
446.216	18.74
446.42	18.65
446.624	18.6
446.828	18.6
447.032	18.55
447.235	18.55
447.439	18.51
447.643	18.45
447.847	18.43
448.051	18.43
448.254	18.35
448.458	18.4
448.662	18.44
448.866	18.5
449.069	18.46
449.273	18.45
449.477	18.41
449.681	18.48
449.884	18.47
450.088	18.5
450.292	18.48
450.495	18.52
450.699	18.58
450.902	18.55
451.106	18.59
451.31	18.68
451.513	18.72
451.717	18.76
451.92	18.8
452.124	18.91
452.327	18.97
452.531	18.91
452.734	18.88
452.938	18.78
453.141	18.77
453.345	18.73
453.548	18.77
453.752	18.85
453.955	18.85
454.158	18.77
454.362	18.75
454.565	18.76
454.769	18.93
454.972	19.08
455.175	19.23
455.379	19.3
455.582	19.3
455.785	19.28
455.988	19.15
456.192	19.02
456.395	19.06
456.598	19.09
456.801	19.09
457.005	19
457.208	18.94
457.411	18.94
457.614	18.85
457.817	18.88
458.021	18.85
458.224	18.86
458.427	18.85
458.63	18.79
458.833	18.79
459.036	18.77
459.239	18.73
459.442	18.7
459.645	18.59
459.848	18.62
460.051	18.6
460.254	18.61
460.457	18.61
460.66	18.64
460.863	18.65
461.066	18.65
461.269	18.68
461.472	18.71
461.675	18.74
461.878	18.83
462.081	18.93
462.284	18.96
462.486	19.02
462.689	19.07
462.892	19.12
463.095	19.14
463.298	19.15
463.5	19.22
463.703	19.33
463.906	19.44
464.109	19.62
464.311	19.59
464.514	19.66
464.717	19.63
464.92	19.64
465.122	19.73
465.325	19.79
465.528	19.84
465.73	19.82
465.933	19.72
466.135	19.62
466.338	19.47
466.541	19.47
466.743	19.34
466.946	19.32
467.148	19.44
467.351	19.31
467.553	19.33
467.756	19.3
467.958	19.21
468.161	19.17
468.363	19.23
468.566	19.29
468.768	19.31
468.971	19.2
469.173	19.19
469.375	19.08
469.578	19.1
469.78	19.1
469.983	19.25
470.185	19.31
470.387	19.53
470.59	19.47
470.792	19.28
470.994	19.33
471.196	19.47
471.399	19.52
471.601	19.53
471.803	19.55
472.005	19.52
472.208	19.34
472.41	19.36
472.612	19.31
472.814	19.29
473.016	19.31
473.218	19.24
473.421	19.33
473.623	19.39
473.825	19.33
474.027	19.3
474.229	19.22
474.431	19.28
474.633	19.3
474.835	19.24
475.037	19.27
475.239	19.4
475.441	19.43
475.643	19.37
475.845	19.32
476.047	19.42
476.249	19.4
476.451	19.47
476.653	19.39
476.855	19.37
477.057	19.35
477.258	19.31
477.46	19.24
477.662	19.13
477.864	19.23
478.066	19.24
478.268	19.15
478.469	19.19
478.671	19.17
478.873	19.32
479.075	19.32
479.276	19.32
479.478	19.31
479.68	19.41
479.882	19.53
480.083	19.44
480.285	19.4
480.487	19.36
480.688	19.35
480.89	19.4
481.091	19.29
481.293	19.25
481.495	19.26
481.696	19.29
481.898	19.21
482.099	19.12
482.301	19.06
482.502	18.94
482.704	18.94
482.905	18.92
483.107	18.87
483.308	18.81
483.51	18.77
483.711	18.74
483.913	18.71
484.114	18.67
484.315	18.67
484.517	18.67
484.718	18.73
484.92	18.75
485.121	18.79
485.322	18.82
485.524	18.89
485.725	18.95
485.926	18.98
486.127	19
486.329	19.05
486.53	19.05
486.731	19.06
486.932	19.05
487.134	19.03
487.335	19.01
487.536	19.02
487.737	19.01
487.938	19
488.139	19.03
488.341	19.06
488.542	19.09
488.743	19.15
488.944	19.16
489.145	19.19
489.346	19.25
489.547	19.27
489.748	19.25
489.949	19.26
490.15	19.24
490.351	19.22
490.552	19.19
490.753	19.15
490.954	19.15
491.155	19.16
491.356	19.13
491.557	19.12
491.758	19.12
491.959	19.12
492.159	19.19
492.36	19.26
492.561	19.29
492.762	19.34
492.963	19.42
493.164	19.5
493.364	19.62
493.565	19.77
493.766	19.8
493.967	19.81
494.167	19.93
494.368	19.9
494.569	19.88
494.769	19.91
494.97	19.95
495.171	19.97
495.371	19.95
495.572	19.9
495.773	19.84
495.973	19.9
496.174	19.94
496.375	19.86
496.575	19.91
496.776	19.95
496.976	19.97
497.177	19.93
497.377	19.88
497.578	19.88
497.778	19.87
497.979	19.95
498.179	19.94
498.38	19.94
498.58	20.03
498.78	20.01
498.981	20.02
499.181	20.01
499.382	20.05
499.582	20.16
499.782	20.2
499.983	20.25
500.183	20.24
500.383	20.26
500.584	20.28
500.784	20.23
500.984	20.3
501.184	20.36
501.385	20.42
501.585	20.42
501.785	20.38
501.985	20.39
502.185	20.4
502.386	20.44
502.586	20.46
502.786	20.38
502.986	20.44
503.186	20.37
503.386	20.31
503.586	20.31
503.786	20.36
503.987	20.28
504.187	20.21
504.387	20.21
504.587	20.21
504.787	20.24
504.987	20.38
505.187	20.4
505.387	20.4
505.587	20.37
505.786	20.3
505.986	20.31
506.186	20.46
506.386	20.57
506.586	20.6
506.786	20.56
506.986	20.57
507.186	20.64
507.386	20.71
507.585	20.75
507.785	20.77
507.985	20.77
508.185	20.7
508.384	20.63
508.584	20.52
508.784	20.53
508.984	20.47
509.183	20.52
509.383	20.42
509.583	20.35
509.782	20.39
509.982	20.39
510.182	20.46
510.381	20.55
510.581	20.68
510.781	20.68
510.98	20.67
511.18	20.76
511.379	20.67
511.579	20.64
511.778	20.67
511.978	20.68
512.177	20.75
512.377	20.69
512.576	20.64
512.776	20.53
512.975	20.58
513.175	20.61
513.374	20.59
513.573	20.63
513.773	20.71
513.972	20.68
514.172	20.7
514.371	20.67
514.57	20.68
514.77	20.76
514.969	20.8
515.168	20.9
515.367	20.79
515.567	20.84
515.766	20.86
515.965	20.9
516.164	20.92
516.364	20.92
516.563	20.87
516.762	20.87
516.961	20.89
517.16	20.86
517.359	20.78
517.559	20.85
517.758	20.73
517.957	20.68
518.156	20.58
518.355	20.6
518.554	20.6
518.753	20.65
518.952	20.7
519.151	20.58
519.35	20.6
519.549	20.6
519.748	20.62
519.947	20.73
520.146	20.85
520.345	20.95
520.544	20.97
520.743	20.99
520.942	21.03
521.141	21.11
521.339	21.21
521.538	21.22
521.737	21.32
521.936	21.31
522.135	21.34
522.333	21.33
522.532	21.32
522.731	21.44
522.93	21.38
523.129	21.36
523.327	21.34
523.526	21.3
523.725	21.35
523.923	21.29
524.122	21.34
524.321	21.31
524.519	21.25
524.718	21.27
524.917	21.19
525.115	21.25
525.314	21.26
525.512	21.22
525.711	21.27
525.909	21.19
526.108	21.19
526.306	21.1
526.505	21.11
526.703	21.1
526.902	21.04
527.1	21.01
527.299	20.91
527.497	20.82
527.696	20.77
527.894	20.68
528.092	20.65
528.291	20.64
528.489	20.66
528.688	20.62
528.886	20.63
529.084	20.63
529.283	20.65
529.481	20.66
529.679	20.7
529.877	20.75
530.076	20.86
530.274	20.92
530.472	20.96
530.67	20.96
530.869	21.03
531.067	21.01
531.265	20.99
531.463	20.95
531.661	21
531.859	21.04
532.057	21.04
532.255	20.99
532.454	20.97
532.652	20.97
532.85	20.95
533.048	20.9
533.246	20.97
533.444	21
533.642	21.02
533.84	21.01
534.038	21.05
534.236	21.07
534.434	21.12
534.632	21.18
534.83	21.22
535.027	21.27
535.225	21.31
535.423	21.31
535.621	21.37
535.819	21.4
536.017	21.47
536.215	21.5
536.412	21.58
536.61	21.64
536.808	21.66
537.006	21.7
537.203	21.75
537.401	21.86
537.599	21.97
537.797	22.05
537.994	22.1
538.192	22.19
538.39	22.29
538.587	22.34
538.785	22.37
538.983	22.44
539.18	22.47
539.378	22.56
539.575	22.57
539.773	22.51
539.97	22.47
540.168	22.46
540.366	22.41
540.563	22.39
540.761	22.33
540.958	22.29
541.155	22.26
541.353	22.23
541.55	22.2
541.748	22.23
541.945	22.25
542.143	22.33
542.34	22.35
542.537	22.4
542.735	22.43
542.932	22.47
543.129	22.58
543.327	22.72
543.524	22.89
543.721	23.06
543.919	23.2
544.116	23.37
544.313	23.51
544.51	23.74
544.708	23.87
544.905	24.08
545.102	24.38
545.299	24.53
545.496	24.57
545.693	24.63
545.891	24.58
546.088	24.55
546.285	24.48
546.482	24.44
546.679	24.33
546.876	24.28
547.073	24.16
547.27	24
547.467	23.94
547.664	23.92
547.861	23.88
548.058	23.94
548.255	23.86
548.452	23.94
548.649	23.82
548.846	23.86
549.043	23.83
549.24	23.83
549.437	23.72
549.633	23.73
549.83	23.65
550.027	23.6
550.224	23.52
550.421	23.48
550.618	23.42
550.814	23.4
551.011	23.37
551.208	23.33
551.405	23.25
551.601	23.27
551.798	23.2
551.995	23.23
552.191	23.3
552.388	23.28
552.585	23.26
552.781	23.25
552.978	23.23
553.175	23.22
553.371	23.25
553.568	23.35
553.764	23.41
553.961	23.38
554.157	23.33
554.354	23.3
554.55	23.25
554.747	23.37
554.943	23.4
555.14	23.54
555.336	23.52
555.533	23.51
555.729	23.48
555.926	23.6
556.122	23.6
556.318	23.62
556.515	23.52
556.711	23.57
556.907	23.38
557.104	23.24
557.3	23.16
557.496	23.09
557.693	23.06
557.889	23.11
558.085	23.05
558.281	23.06
558.478	23.12
558.674	23.2
558.87	23.21
559.066	23.37
559.262	23.47
559.459	23.39
559.655	23.44
559.851	23.44
560.047	23.37
560.243	23.36
560.439	23.34
560.635	23.24
560.831	23.11
561.027	23.23
561.223	23.21
561.419	23.29
561.615	23.35
561.811	23.41
562.007	23.44
562.203	23.42
562.399	23.4
562.595	23.47
562.791	23.65
562.987	23.68
563.183	23.58
563.379	23.66
563.575	23.53
563.771	23.56
563.966	23.57
564.162	23.73
564.358	23.84
564.554	23.75
564.75	23.66
564.945	23.58
565.141	23.62
565.337	23.54
565.533	23.46
565.728	23.43
565.924	23.46
566.12	23.41
566.315	23.28
566.511	23.24
566.707	23.23
566.902	23.28
567.098	23.25
567.293	23.19
567.489	23.26
567.684	23.26
567.88	23.24
568.076	23.22
568.271	23.22
568.467	23.13
568.662	23.14
568.858	23.25
569.053	23.24
569.248	23.39
569.444	23.48
569.639	23.43
569.835	23.44
570.03	23.49
570.225	23.48
570.421	23.45
570.616	23.53
570.812	23.53
571.007	23.43
571.202	23.47
571.397	23.31
571.593	23.28
571.788	23.37
571.983	23.38
572.178	23.54
572.374	23.59
572.569	23.59
572.764	23.5
572.959	23.37
573.154	23.41
573.35	23.35
573.545	23.37
573.74	23.45
573.935	23.41
574.13	23.43
574.325	23.35
574.52	23.36
574.715	23.35
574.91	23.5
575.105	23.62
575.3	23.54
575.495	23.64
575.69	23.87
575.885	23.9
576.08	23.96
576.275	24.11
576.47	24.24
576.665	24.36
576.86	24.51
577.055	24.71
577.25	24.83
577.444	25.04
577.639	25.17
577.834	25.24
578.029	25.31
578.224	25.43
578.418	25.51
578.613	25.63
578.808	25.55
579.003	25.69
579.197	25.59
579.392	25.74
579.587	25.9
579.781	25.86
579.976	25.69
580.171	25.73
580.365	25.7
580.56	25.48
580.755	25.34
580.949	25.36
581.144	25.32
581.338	25.38
581.533	25.24
581.727	25.15
581.922	25.12
582.116	25.24
582.311	25.35
582.505	25.44
582.7	25.55
582.894	25.69
583.089	25.81
583.283	25.86
583.478	25.86
583.672	26
583.866	26.08
584.061	26.02
584.255	26.05
584.449	26.05
584.644	25.99
584.838	26
585.032	25.96
585.226	26.07
585.421	26.07
585.615	26.13
585.809	26.19
586.003	26.16
586.198	26.47
586.392	26.47
586.586	26.48
586.78	26.43
586.974	26.42
587.168	26.34
587.363	26.19
587.557	26.09
587.751	26.04
587.945	25.78
588.139	25.61
588.333	25.37
588.527	25.35
588.721	25.15
588.915	25.11
589.109	25.16
589.303	25.28
589.497	25.33
589.691	25.26
589.885	25.23
590.079	25.34
590.273	25.54
590.466	25.61
590.66	25.7
590.854	25.84
591.048	26.01
591.242	25.99
591.436	25.97
591.629	25.95
591.823	26.15
592.017	26.13
592.211	26.18
592.404	26.16
592.598	26.2
592.792	26.18
592.986	26.1
593.179	25.84
593.373	25.97
593.567	25.94
593.76	25.95
593.954	25.92
594.147	25.85
594.341	25.74
594.535	25.73
594.728	25.64
594.922	25.52
595.115	25.59
595.309	25.72
595.502	25.5
595.696	25.5
595.889	25.42
596.083	25.26
596.276	25.32
596.47	25.46
596.663	25.37
596.856	25.31
597.05	25.37
597.243	25.41
597.437	25.44
597.63	25.49
597.823	25.61
598.017	25.73
598.21	25.95
598.403	26.08
598.596	26.17
598.79	26.37
598.983	26.54
599.176	26.48
599.369	26.52
599.563	26.62
599.756	26.77
599.949	26.74
600.142	26.74
600.335	26.72
600.528	26.72
600.722	26.62
600.915	26.46
601.108	26.46
601.301	26.48
601.494	26.43
601.687	26.43
601.88	26.4
602.073	26.16
602.266	26
602.459	25.88
602.652	25.9
602.845	25.67
603.038	25.75
603.231	25.71
603.424	25.72
603.617	25.65
603.809	25.62
604.002	25.6
604.195	25.83
604.388	26.04
604.581	26.09
604.774	26.04
604.966	26.28
605.159	26.35
605.352	26.44
605.545	26.65
605.737	26.83
605.93	26.88
606.123	27.05
606.316	27.06
606.508	27.02
606.701	27.31
606.894	27.39
607.086	27.53
607.279	27.54
607.471	27.7
607.664	27.71
607.857	27.9
608.049	28.17
608.242	28.53
608.434	28.85
608.627	29.43
608.819	29.84
609.012	30.63
609.204	31.36
609.397	32.19
609.589	33.04
609.782	33.93
609.974	34.87
610.166	35.81
610.359	36.76
610.551	37.7
610.743	38.41
610.936	39.15
611.128	39.53
611.32	39.94
611.513	40.25
611.705	40.21
611.897	40.03
612.09	39.69
612.282	39.44
612.474	38.83
612.666	38.33
612.858	37.91
613.051	37.31
613.243	36.88
613.435	36.34
613.627	35.74
613.819	35.48
614.011	35.4
614.203	35.2
614.395	34.59
614.588	34.25
614.78	33.84
614.972	33.22
615.164	32.99
615.356	32.71
615.548	32.41
615.74	32.2
615.932	31.84
616.124	31.37
616.315	30.98
616.507	30.81
616.699	30.36
616.891	30.01
617.083	29.84
617.275	29.68
617.467	29.42
617.659	29.28
617.85	29.08
618.042	28.97
618.234	28.97
618.426	28.9
618.618	28.82
618.809	29.17
619.001	29.39
619.193	29.64
619.384	29.51
619.576	29.53
619.768	29.54
619.959	29.82
620.151	29.95
620.343	29.96
620.534	30.16
620.726	30.31
620.917	30.27
621.109	30.2
621.301	30.04
621.492	30.08
621.684	30.15
621.875	30.13
622.067	29.74
622.258	29.46
622.45	29.6
622.641	29.41
622.832	29.22
623.024	29.25
623.215	29.16
623.407	29.33
623.598	29.59
623.789	29.56
623.981	29.39
624.172	29.64
624.363	29.69
624.555	29.66
624.746	29.68
624.937	29.67
625.129	29.62
625.32	29.75
625.511	29.73
625.702	29.48
625.893	29.58
626.085	29.74
626.276	29.72
626.467	29.85
626.658	29.78
626.849	29.73
627.04	29.78
627.231	29.82
627.422	29.76
627.614	29.66
627.805	29.74
627.996	29.73
628.187	29.86
628.378	29.92
628.569	30.14
628.76	30.28
628.951	30.43
629.142	30.64
629.332	30.73
629.523	30.77
629.714	31.02
629.905	31.24
630.096	31.45
630.287	31.4
630.478	31.62
630.669	31.5
630.859	31.41
631.05	31.42
631.241	31.32
631.432	31.17
631.623	31.2
631.813	30.93
632.004	30.74
632.195	30.39
632.385	30.32
632.576	30.02
632.767	29.85
632.957	29.68
633.148	29.6
633.339	29.54
633.529	29.64
633.72	29.67
633.91	29.47
634.101	29.45
634.292	29.49
634.482	29.41
634.673	29.49
634.863	29.52
635.054	29.72
635.244	29.67
635.435	29.73
635.625	29.81
635.815	29.78
636.006	29.97
636.196	29.89
636.387	29.84
636.577	29.85
636.767	29.77
636.958	29.79
637.148	29.74
637.338	29.97
637.529	29.99
637.719	29.82
637.909	29.91
638.099	29.93
638.29	30.09
638.48	30.15
638.67	30.52
638.86	30.73
639.05	30.86
639.241	30.87
639.431	30.74
639.621	30.81
639.811	31.06
640.001	30.96
640.191	30.97
640.381	30.89
640.571	31.01
640.761	30.88
640.951	30.94
641.141	30.81
641.331	30.62
641.521	30.57
641.711	30.71
641.901	30.66
642.091	30.76
642.281	30.93
642.471	31.05
642.661	31.06
642.851	31.01
643.041	30.84
643.231	30.93
643.42	31.24
643.61	31.44
643.8	31.44
643.99	31.51
644.18	31.81
644.369	32.04
644.559	31.87
644.749	31.91
644.939	31.89
645.128	31.97
645.318	31.99
645.508	31.89
645.697	31.63
645.887	31.5
646.076	31.68
646.266	31.55
646.456	31.41
646.645	31.7
646.835	31.69
647.024	31.76
647.214	32.11
647.403	32.28
647.593	32.33
647.782	32.59
647.972	32.64
648.161	32.34
648.351	32.2
648.54	32.39
648.73	32.24
648.919	32.43
649.108	32.54
649.298	32.22
649.487	32.36
649.677	32.62
649.866	32.77
650.055	32.93
650.244	32.95
650.434	33.19
650.623	32.96
650.812	33
651.002	32.97
651.191	32.82
651.38	33.13
651.569	33.01
651.758	32.92
651.947	32.93
652.137	32.82
652.326	32.82
652.515	32.91
652.704	33.22
652.893	33.3
653.082	33.17
653.271	33.41
653.46	33.02
653.649	32.84
653.838	32.88
654.027	32.8
654.216	32.61
654.405	32.88
654.594	32.58
654.783	32.44
654.972	32.61
655.161	32.74
655.35	32.67
655.539	32.81
655.728	32.87
655.916	32.84
656.105	32.91
656.294	33.08
656.483	32.99
656.672	33.16
656.86	33.18
657.049	33.04
657.238	33.11
657.427	32.97
657.615	32.86
657.804	33.02
657.993	32.77
658.181	32.66
658.37	32.6
658.559	32.57
658.747	32.6
658.936	32.45
659.125	32.4
659.313	32.27
659.502	32.22
659.69	32.1
659.879	32.05
660.067	32.37
660.256	32.52
660.444	32.67
660.633	32.65
660.821	32.72
661.01	33.05
661.198	33.4
661.387	33.55
661.575	33.76
661.763	34.17
661.952	34.47
662.14	34.56
662.328	34.84
662.517	35.16
662.705	35.41
662.893	35.47
663.082	35.41
663.27	35.11
663.458	35.52
663.646	35.57
663.834	35.84
664.023	35.65
664.211	35.71
664.399	35.52
664.587	35.39
664.775	35.51
664.963	35.48
665.152	35.56
665.34	35.67
665.528	35.35
665.716	35.41
665.904	35.19
666.092	35.31
666.28	35.19
666.468	35.23
666.656	35.31
666.844	35.35
667.032	35.51
667.22	35.29
667.408	35.52
667.596	35.59
667.784	35.67
667.971	35.68
668.159	35.63
668.347	35.53
668.535	35.31
668.723	35
668.911	34.96
669.098	35.06
669.286	35.28
669.474	35.42
669.662	35.75
669.849	35.79
670.037	35.89
670.225	36.24
670.413	36.53
670.6	37
670.788	37.44
670.976	37.33
671.163	37.24
671.351	37.45
671.538	37.37
671.726	37.17
671.913	37.05
672.101	37.1
672.289	36.85
672.476	36.72
672.664	36.69
672.851	36.61
673.039	36.83
673.226	36.73
673.413	36.6
673.601	36.37
673.788	36.29
673.976	36.67
674.163	36.46
674.35	36.68
674.538	36.92
674.725	36.84
674.912	37
675.1	37.11
675.287	37.5
675.474	37.68
675.662	37.78
675.849	37.9
676.036	37.5
676.223	37.75
676.411	37.58
676.598	37.71
676.785	37.9
676.972	38.02
677.159	37.77
677.346	37.55
677.533	37.56
677.721	37.74
677.908	37.49
678.095	37.8
678.282	37.72
678.469	37.86
678.656	37.69
678.843	37.52
679.03	37.54
679.217	37.5
679.404	37.55
679.591	37.34
679.778	37.23
679.964	37.33
680.151	37.19
680.338	37.23
680.525	37.2
680.712	37.04
680.899	37.08
681.086	36.84
681.272	37.14
681.459	37.05
681.646	37.31
681.833	37.31
682.02	37.54
682.206	37.74
682.393	37.94
682.58	37.59
682.766	37.77
682.953	38.02
683.14	38.11
683.326	37.94
683.513	38.14
683.7	38.22
683.886	38.55
684.073	38.43
684.259	38.51
684.446	38.5
684.632	39.18
684.819	39.4
685.005	39.41
685.192	39.72
685.378	39.8
685.565	39.7
685.751	39.58
685.938	39.43
686.124	39.83
686.31	39.69
686.497	39.46
686.683	39.31
686.87	39.3
687.056	39.12
687.242	38.93
687.429	39.06
687.615	39.4
687.801	39.31
687.987	39.7
688.174	39.61
688.36	39.63
688.546	39.68
688.732	39.77
688.918	39.88
689.105	40.07
689.291	40.24
689.477	40.14
689.663	39.71
689.849	39.82
690.035	39.43
690.221	39.55
690.407	39.76
690.593	40.2
690.779	40.07
690.965	39.93
691.151	39.83
691.337	39.83
691.523	40.08
691.709	40.69
691.895	40.88
692.081	41.21
692.267	41.17
692.453	41.04
692.639	41.1
692.825	41.29
693.011	41.54
693.196	41.45
693.382	41.21
693.568	40.78
693.754	40.46
693.94	40.26
694.125	40.33
694.311	40.13
694.497	40.53
694.682	40.29
694.868	40.34
695.054	40.21
695.239	40.3
695.425	40.17
695.611	40.34
695.796	40.25
695.982	40.16
696.168	40.08
696.353	40.24
696.539	39.88
696.724	39.53
696.91	39.04
697.095	38.75
697.281	38.63
697.466	38.69
697.652	38.62
697.837	38.58
698.023	38.58
698.208	38.35
698.393	38.21
698.579	38.4
698.764	38.67
698.949	38.92
699.135	39.03
699.32	39.06
699.505	38.99
699.691	39.1
699.876	39.2
700.061	39.33
700.246	39.57
700.432	39.71
700.617	39.69
700.802	39.6
700.987	39.68
701.172	40.01
701.358	40.38
701.543	40.84
701.728	41.36
701.913	41.51
702.098	41.82
702.283	41.83
702.468	41.86
702.653	41.98
702.838	42.26
703.023	42.58
703.208	42.45
703.393	42.39
703.578	42.45
703.763	42.28
703.948	42.55
704.133	42.44
704.318	42.77
704.503	42.9
704.688	43.08
704.873	43.68
705.057	43.67
705.242	44.06
705.427	44.47
705.612	44.62
705.797	45.23
705.981	45.37
706.166	45.49
706.351	45.38
706.536	46.04
706.72	45.92
706.905	45.7
707.09	45.64
707.274	45.54
707.459	45.2
707.644	45.39
707.828	45.16
708.013	45.21
708.197	45.2
708.382	45.14
708.567	44.97
708.751	44.91
708.936	44.31
709.12	44.31
709.305	44.13
709.489	44.33
709.673	44.48
709.858	44.28
710.042	44.24
710.227	44.37
710.411	44.61
710.596	44.73
710.78	45.25
710.964	45.68
711.149	46.13
711.333	46.45
711.517	46.28
711.702	46.17
711.886	46.25
712.07	46.25
712.254	46.56
712.438	46.53
712.623	46
712.807	45.83
712.991	45.64
713.175	45.27
713.359	45.08
713.544	44.86
713.728	44.39
713.912	44.06
714.096	43.76
714.28	43.23
714.464	42.92
714.648	42.97
714.832	42.35
715.016	42.16
715.2	41.79
715.384	41.51
715.568	41.69
715.752	41.63
715.936	41.66
716.12	41.35
716.304	41.33
716.488	41.02
716.671	40.31
716.855	40.48
717.039	40.31
717.223	40.41
717.407	40.1
717.59	39.83
717.774	39.89
717.958	40.18
718.142	40.48
718.325	40.65
718.509	41.39
718.693	42.39
718.877	42.37
719.06	42.83
719.244	42.6
719.428	43.35
719.611	43.46
719.795	43.63
719.978	43.59
720.162	43.8
720.345	43.61
720.529	43.34
720.713	42.98
720.896	43
721.08	43.15
721.263	44.08
721.446	43.78
721.63	44.17
721.813	44.35
721.997	44.4
722.18	44.04
722.364	44.1
722.547	43.77
722.73	43.99
722.914	43.97
723.097	43.95
723.28	43.36
723.464	43.42
723.647	43.05
723.83	43.2
724.013	43.29
724.197	43.63
724.38	43.65
724.563	43.97
724.746	43.93
724.929	44.34
725.112	44.47
725.296	44.8
725.479	44.34
725.662	44.39
725.845	44.33
726.028	44.24
726.211	44.36
726.394	44.43
726.577	44.4
726.76	44.35
726.943	43.74
727.126	43.31
727.309	43.25
727.492	43.77
727.675	43.96
727.858	43.91
728.041	43.58
728.224	43.47
728.407	43.29
728.589	42.78
728.772	43.07
728.955	43.61
729.138	43.79
729.321	43.51
729.503	43.36
729.686	43.72
729.869	43.78
730.052	43.93
730.234	43.97
730.417	44.01
730.6	44.48
730.782	44.47
730.965	44.19
731.148	44.19
731.33	44.24
731.513	44.54
731.695	44.26
731.878	43.66
732.061	43.39
732.243	43.29
732.426	43.43
732.608	43.58
732.791	43.34
732.973	43.43
733.156	43.15
733.338	43.11
733.52	42.59
733.703	42.88
733.885	43.6
734.068	43.8
734.25	43.86
734.432	43.68
734.615	44.1
734.797	44.32
734.979	44.39
735.162	44.81
735.344	45.6
735.526	45.99
735.708	45.72
735.891	45.78
736.073	46.38
736.255	46.24
736.437	46.47
736.619	46.02
736.802	45.81
736.984	45.97
737.166	46.38
737.348	45.68
737.53	45.69
737.712	45.63
737.894	45.22
738.076	45.16
738.258	45.47
738.44	45.31
738.622	45.98
738.804	46.17
738.986	46.34
739.168	46.4
739.35	46.58
739.532	46.39
739.714	46.16
739.896	45.88
740.078	45.67
740.259	45.81
740.441	46.08
740.623	45.58
740.805	45.42
740.987	45.17
741.168	45.43
741.35	45.52
741.532	46.43
741.714	46.39
741.895	46.86
742.077	46.91
742.259	47.15
742.44	47.05
742.622	46.92
742.804	46.97
742.985	47.4
743.167	46.64
743.348	47.08
743.53	47.03
743.711	47.26
743.893	47.13
744.075	47.41
744.256	47.62
744.438	48.18
744.619	48.64
744.8	49.32
744.982	49.49
745.163	49.44
745.345	49.52
745.526	49.37
745.707	50
745.889	50.7
746.07	51.11
746.252	51.16
746.433	50.32
746.614	49.77
746.795	49.27
746.977	48.82
747.158	48.82
747.339	48.34
747.52	48.3
747.702	48.17
747.883	47.24
748.064	46.53
748.245	45.56
748.426	45.85
748.607	46.43
748.788	45.93
748.97	45.76
749.151	46.09
749.332	45.53
749.513	45.34
749.694	45.33
749.875	46.04
750.056	46.07
750.237	46.36
750.418	46.88
750.599	46.56
750.78	46.89
750.96	47.2
751.141	47.18
751.322	47.97
751.503	48.06
751.684	47.52
751.865	47.21
752.046	47.44
752.226	47.95
752.407	47.36
752.588	47.06
752.769	47.75
752.949	48.02
753.13	47.69
753.311	47.18
753.492	47.37
753.672	48.44
753.853	48.56
754.034	49.3
754.214	49.42
754.395	50.05
754.575	50.69
754.756	50.26
754.937	49.75
755.117	50.21
755.298	50.71
755.478	51.09
755.659	50.5
755.839	50.36
756.02	49.55
756.2	49.16
756.381	48.25
756.561	48.02
756.741	48.17
756.922	47.96
757.102	47.72
757.283	47.28
757.463	46.58
757.643	45.84
757.823	45.92
758.004	45.94
758.184	45.98
758.364	46.76
758.545	46.89
758.725	46.44
758.905	46.89
759.085	45.96
759.265	46.3
759.446	46.15
759.626	46.67
759.806	46.21
759.986	45.93
760.166	45.07
760.346	44.95
760.526	45.01
760.706	45.22
760.886	44.95
761.066	45.32
761.246	44.6
761.426	44.9
761.606	44.71
761.786	44.51
761.966	44.35
762.146	44.6
762.326	43.97
762.506	42.9
762.686	42.5
762.866	42.53
763.046	42.41
763.225	42.79
763.405	42.7
763.585	42.67
763.765	42.78
763.945	42.71
764.124	42.76
764.304	43.17
764.484	43.25
764.664	43.73
764.843	43.88
765.023	43.87
765.203	43.85
765.382	43.49
765.562	44.03
765.741	44.01
765.921	44.42
766.101	44.89
766.28	44.75
766.46	45.53
766.639	45.72
766.819	45.68
766.998	46.29
767.178	46.53
767.357	46.57
767.537	46.67
767.716	47.35
767.896	46.91
768.075	46.58
768.254	47.29
768.434	47.53
768.613	47.78
768.792	48.66
768.972	49.09
769.151	49.68
769.33	49.93
769.51	49.5
769.689	49.79
769.868	50.37
770.047	50.78
770.226	50.23
770.406	50.41
770.585	49.59
770.764	49.03
770.943	48.92
771.122	47.9
771.301	48.29
771.48	48.49
771.66	48.07
771.839	47.74
772.018	48.7
772.197	48.93
772.376	49.47
772.555	49.46
772.734	50.48
772.913	50.56
773.092	51.35
773.271	51.49
773.449	51.34
773.628	51.95
773.807	52.97
773.986	52.11
774.165	52.89
774.344	52.33
774.523	53.49
774.701	53.06
774.88	53.26
775.059	52.65
775.238	53.1
775.417	53.51
775.595	53.81
775.774	53.25
775.953	53.4
776.131	53.07
776.31	53.06
776.489	52.72
776.667	52.13
776.846	52.08
777.025	52.42
777.203	52.6
777.382	52.15
777.56	51.96
777.739	52.3
777.917	51.68
778.096	52.04
778.274	51.56
778.453	51.58
778.631	51.39
778.81	51.23
778.988	51.7
779.166	51.75
779.345	52.5
779.523	52.62
779.702	51.81
779.88	52.6
780.058	51.85
780.237	51.57
780.415	50.81
780.593	50.86
780.771	50.58
780.95	50.36
781.128	50.37
781.306	48.83
781.484	48.36
781.662	49.11
781.841	48.57
782.019	48.95
782.197	49.97
782.375	51.19
782.553	50.95
782.731	51.13
782.909	51.19
783.087	50.66
783.265	51.36
783.443	51.45
783.621	51.57
783.799	51.75
783.977	52.22
784.155	52.5
784.333	52.04
784.511	52.16
784.689	51.24
784.867	51.75
785.045	51.35
785.223	51.58
785.4	52.25
785.578	52.1
785.756	51.67
785.934	50.88
786.112	50.15
786.289	49.62
786.467	50.04
786.645	51.36
786.823	50.62
787	50.96
787.178	51.36
787.356	50.36
787.533	49.92
787.711	50.34
787.889	50.32
788.066	49.62
788.244	49.65
788.421	49.75
788.599	49.48
788.776	49.7
788.954	49.17
789.131	48.81
789.309	48.82
789.486	49.1
789.664	49.39
789.841	48.95
790.019	49.71
790.196	49.98
790.373	49.27
790.551	49.12
790.728	48.82
790.906	48.8
791.083	48.26
791.26	47.39
791.437	47.67
791.615	47.06
791.792	48.94
791.969	49.23
792.146	49.3
792.324	50.99
792.501	50.31
792.678	50.97
792.855	51.39
793.032	50.7
793.209	51.97
793.387	51.73
793.564	51.88
793.741	50.33
793.918	51.01
794.095	50.79
794.272	49.8
794.449	49.88
794.626	48.57
794.803	48.51
794.98	49.48
795.157	49.54
795.334	48.59
795.511	48.53
795.688	47.76
795.864	46.18
796.041	46.42
796.218	45.78
796.395	46.63
796.572	47.02
796.749	46.89
796.925	46.96
797.102	47.12
797.279	46.87
797.456	47.19
797.632	46.96
797.809	47.34
797.986	47.09
798.162	47.59
798.339	47.25
798.516	46.81
798.692	47.46
798.869	46.87
799.046	46.69
799.222	47.78
799.399	47.51
799.575	48.74
799.752	49.57
799.928	49.37
800.105	49.06
800.281	49.65
800.458	50.7
800.634	50.44
800.811	51.44
800.987	50.69
801.163	50.8
801.34	50.38
801.516	49.73
801.692	49.34
801.869	49.4
802.045	50.1
802.221	49.8
802.398	49.69
802.574	49.51
802.75	49.36
802.926	50.49
803.103	49.88
803.279	51.09
803.455	51.09
803.631	50.32
803.807	49.82
803.983	48.72
804.16	47.58
804.336	46.76
804.512	46.87
804.688	47.83
804.864	46.12
805.04	45.33
805.216	44.67
805.392	45.45
805.568	45.85
805.744	46.81
805.92	46.93
806.096	47.61
806.272	48.72
806.448	47.6
806.623	45.93
806.799	46.77
806.975	48.4
807.151	48.97
807.327	48.6
807.503	49.14
807.678	49.6
807.854	50.42
808.03	51.34
808.206	50.13
808.381	50.52
808.557	51.95
808.733	51.22
808.908	49.62
809.084	49.1
809.26	48.32
809.435	47.52
809.611	45.76
809.787	45.38
809.962	44.92
810.138	46.04
810.313	46.42
810.489	45.9
810.664	47.48
810.84	48.4
811.015	49.39
811.191	49.56
811.366	49.83
811.542	50.32
811.717	50.05
811.892	50.3
812.068	48.68
812.243	48.54
812.419	48.18
812.594	46.73
812.769	44.98
812.944	43.64
813.12	43.82
813.295	44.12
813.47	43.94
813.645	43.75
813.821	43.15
813.996	44.03
814.171	43.99
814.346	44.53
814.521	45.61
814.697	47.15
814.872	45.66
815.047	46.62
815.222	46.26
815.397	46.78
815.572	46.13
815.747	45.87
815.922	45.1
816.097	44.19
816.272	44.41
816.447	43.81
816.622	43.78
816.797	43.77
816.972	42.2
817.147	41.65
817.322	40.88
817.496	40.04
817.671	39.98
817.846	40.37
818.021	41.11
818.196	40.6
818.371	40.47
818.545	40.48
818.72	41.73
818.895	41.47
819.069	41.18
819.244	41.84
819.419	43.67
819.594	43.44
819.768	43.75
819.943	42.19
820.117	41.08
820.292	40.11
820.467	38.79
820.641	38
820.816	37.77
820.99	36.94
821.165	36.4
821.339	35.92
821.514	35.19
821.688	34.61
821.863	34.85
822.037	34.75
822.212	34.8
822.386	34.65
822.56	34.55
822.735	34.71
822.909	34.52
823.084	34.36
823.258	34.06
823.432	34.25
823.606	34.29
823.781	34.3
823.955	34.25
824.129	34.08
824.303	34.37
824.478	34.28
824.652	34.09
824.826	34.6
825	34.61
825.174	34.96
825.348	35.26
825.523	35.58
825.697	35.64
825.871	35.65
826.045	36.11
826.219	35.57
826.393	35.7
826.567	35.63
826.741	35.44
826.915	35.53
827.089	35.51
827.263	35.03
827.437	34.66
827.611	34.34
827.784	34.41
827.958	33.75
828.132	33.91
828.306	34.25
828.48	34.21
828.654	34.89
828.827	35.01
829.001	34.39
829.175	34.77
829.349	35.36
829.522	35.69
829.696	35.83
829.87	36.95
830.044	38.08
830.217	37.96
830.391	37.96
830.565	37.27
830.738	37.56
830.912	38.36
831.085	38.05
831.259	37.1
831.432	36.77
831.606	37.31
831.779	34.87
831.953	35.15
832.126	34.9
832.3	36.11
832.473	34.99
832.647	34.92
832.82	34.23
832.994	34.49
833.167	35.36
833.34	35.35
833.514	34.84
833.687	35.63
833.86	34.66
834.034	34.88
834.207	34.22
834.38	34.82
834.553	34.92
834.727	35.33
834.9	35.18
835.073	34.65
835.246	34.48
835.419	34.96
835.593	35.91
835.766	35.87
835.939	35.44
836.112	36.46
836.285	36.77
836.458	36.26
836.631	37.1
836.804	36.9
836.977	37.86
837.15	40.18
837.323	39.56
837.496	39.45
837.669	41.52
837.842	42.15
838.015	41.27
838.188	40.21
838.361	42.2
838.533	43.99
838.706	45.96
838.879	45.24
839.052	42.44
839.225	43.8
839.398	41.72
839.57	39.31
839.743	38.76
839.916	39.18
840.088	40.18
840.261	39.53
840.434	39.03
840.607	38.39
840.779	39.15
840.952	40.88
841.124	39.39
841.297	41.07
841.47	43.07
841.642	42.23
841.815	41.41
841.987	41.9
842.16	41.54
842.332	40.88
842.505	40.98
842.677	44.43
842.85	43.98
843.022	46.35
843.194	44.22
843.367	43.7
843.539	45.77
843.712	49.78
843.884	51.23
844.056	51.96
844.229	51.35
844.401	55.39
844.573	51.47
844.745	49.49
844.918	48.67
845.09	52.01
845.262	53.2
845.434	55.14
845.606	53.18
845.779	50.3
845.951	50.3
846.123	51.54
846.295	51.61
846.467	50.55
846.639	56.09
846.811	57.57
846.983	59.68
847.155	58.48
847.327	56.62
847.499	55.94
847.671	58.48
847.843	61.08
848.015	58.36
848.187	57.22
848.359	59.8
848.531	54.87
848.703	53.66
848.875	51.29
849.047	53.01
849.218	55
849.39	56.84
849.562	57.02
849.734	55.78
849.905	57.14
850.077	53.87
850.249	52.58
850.421	56.3
850.592	58.61
850.764	57.25
850.936	58.68
851.107	55.56
851.279	52.4
851.451	51.05
851.622	48.01
851.794	47.87
851.965	48.12
852.137	51.98
852.308	49.28
852.48	48.11
852.651	52.85
852.823	51.09
852.994	51.92
853.166	51.04
853.337	49.87
853.509	50.97
853.68	50.56
853.851	49.32
854.023	43.41
854.194	44.82
854.365	43.63
854.537	43.28
854.708	43.88
854.879	39.66
855.05	41.74
855.222	41.4
855.393	44.58
855.564	44.5
855.735	45.47
855.906	45.05
856.078	44.72
856.249	42.8
856.42	38.14
856.591	37.94
856.762	43.76
856.933	42.46
857.104	45.39
857.275	46.62
857.446	48.18
857.617	48.87
857.788	51.17
857.959	51.59
858.13	52.41
858.301	51.36
858.472	55.69
858.643	56.6
858.814	61.64
858.985	62.77
859.155	62.87
859.326	64.09
859.497	63.54
859.668	63.38
859.839	62.62
860.009	66.2
860.18	71.51
860.351	66.53
860.522	65.07
860.692	59.55
860.863	58.63
861.034	52.73
861.204	53.38
861.375	56.32
861.546	56.67
861.716	55.53
861.887	53.1
862.057	50.62
862.228	51.81
862.398	54.39
862.569	58.58
862.739	55.28
862.91	60.21
863.08	57.87
863.251	55.06
863.421	56.95
863.592	56.95
863.762	57.77
863.932	57.31
864.103	56.16
864.273	49.99
864.443	48
864.614	53.63
864.784	52.52
864.954	55.2
865.125	55.12
865.295	52.4
865.465	51.6
865.635	52.12
865.805	51.63
865.976	52.61
866.146	57.62
866.316	58.21
866.486	56.94
866.656	60.71
866.826	55.95
866.996	54.48
867.166	52.83
867.336	55.52
867.506	53.1
867.676	56.19
867.846	57.26
868.016	57.69
868.186	57.83
868.356	56.19
868.526	49.89
868.696	53.61
868.866	57.57
869.036	60.23
869.206	62.57
869.376	64.66
869.545	66.42
869.715	67.01
869.885	65
870.055	61.15
870.224	60.38
870.394	59.16
870.564	55.12
870.734	51.97
870.903	53.47
871.073	54.31
871.243	55.88
871.412	47.96
871.582	47.27
871.751	47.72
871.921	50.33
872.091	49.08
872.26	49.41
872.43	56.38
872.599	58.18
872.769	56.09
872.938	49.65
873.108	46.37
873.277	51.51
873.446	51.55
873.616	52.66
873.785	48.1
873.955	49.2
874.124	48.5
874.293	47.53
874.463	43.65
874.632	46.87
874.801	48.89
874.971	44
875.14	44.88
875.309	42.63
875.478	39.57
875.647	43.01
875.817	44.03
875.986	45.09
876.155	43.29
876.324	47.64
876.493	45.7
876.662	45.51
876.831	52.62
877	52.02
877.17	55.07
877.339	53.5
877.508	51.21
877.677	46.6
877.846	45.09
878.015	43.73
878.184	42.09
878.352	42.16
878.521	42.13
878.69	41.51
878.859	38.23
879.028	34.23
879.197	34.7
879.366	37.49
879.534	37.73
879.703	36.89
879.872	35.37
880.041	35.58
880.21	33.17
880.378	31.12
880.547	30.49
880.716	30.82
880.884	30.41
881.053	30.32
881.222	28.94
881.39	28.39
881.559	28.49
881.727	27.48
881.896	26.34
882.065	26.05
882.233	26.59
882.402	26.59
882.57	26.01
882.739	25.94
882.907	25.93
883.076	25.67
883.244	25.77
883.412	25.83
883.581	26.13
883.749	26.83
883.918	27.43
884.086	26.63
884.254	25.73
884.423	26.14
884.591	26.03
884.759	25.8
884.927	26.65
885.096	26.93
885.264	26.23
885.432	26.66
885.6	28.18
885.769	27.89
885.937	30.82
886.105	32.52
886.273	34.32
886.441	36.33
886.609	38.99
886.777	38.04
886.945	36.9
887.113	38.84
887.281	42.41
887.449	41.93
887.617	43.16
887.785	39.77
887.953	43.03
888.121	42.91
888.289	42.76
888.457	41.2
888.625	44.22
888.793	45.41
888.961	46.73
889.129	41.43
889.296	38.81
889.464	38.07
889.632	40.64
889.8	36.58
889.967	33.95
890.135	35.34
