Data from 2938784__Reflection_03.txt Node
Date: Fri Mar 13 12:12:55 EDT 2015
User: robert
Spectrometer: USB4E03002
Autoset integration time: false
Trigger mode: 4
Integration Time (sec): 1.000000E-1
Scans to average: 10
Electric dark correction enabled: false
Nonlinearity correction enabled: false
Boxcar width: 5
Stray light correction enabled: false
XAxis mode: Wavelengths
Stop averaging: false
Number of Pixels in Spectrum: 3648
>>>>>Begin Spectral Data<<<<<
177.575	82.25
177.794	89.77
178.014	89.23
178.233	89.18
178.452	97.61
178.672	88.32
178.891	84.82
179.11	83.54
179.33	88.23
179.549	92.15
179.768	99.87
179.987	104.04
180.207	100.86
180.426	95.84
180.645	98.36
180.864	93.93
181.084	93.86
181.303	95.6
181.522	96.73
181.741	93.37
181.96	95.25
182.179	92.79
182.398	89.79
182.618	90.85
182.837	92
183.056	87.34
183.275	85.09
183.494	86.77
183.713	86.04
183.932	86.83
184.151	86.52
184.37	83.54
184.589	83.22
184.808	80.32
185.027	77.31
185.246	83.24
185.465	86.15
185.684	87.97
185.903	88.76
186.122	88.49
186.341	83.54
186.56	77.52
186.779	73.7
186.998	72.45
187.216	77.02
187.435	79.45
187.654	75.83
187.873	72.59
188.092	74.28
188.311	73.86
188.53	71.79
188.748	75.15
188.967	78.56
189.186	85.21
189.405	89.22
189.623	89.92
189.842	86.78
190.061	88.93
190.28	93.52
190.498	93.17
190.717	96.5
190.936	97.72
191.154	97.55
191.373	97.99
191.592	93.57
191.81	90.91
192.029	86.48
192.248	88.71
192.466	84.82
192.685	78.58
192.904	78.23
193.122	75.56
193.341	77.59
193.559	77.07
193.778	72.01
193.996	74.78
194.215	73.48
194.433	75.36
194.652	78.31
194.87	79.76
195.089	83.24
195.307	81.56
195.526	83.95
195.744	84.74
195.963	83.95
196.181	87.73
196.399	84.18
196.618	85.73
196.836	78.9
197.055	72.84
197.273	74.34
197.491	71.42
197.71	74.86
197.928	74.31
198.146	68
198.365	65.61
198.583	64.83
198.801	68.51
199.019	70.93
199.238	78.78
199.456	86.07
199.674	81.11
199.892	81.98
200.111	77.49
200.329	81.49
200.547	85.28
200.765	85.9
200.983	89.05
201.202	88.78
201.42	90.65
201.638	92.19
201.856	86.42
202.074	90.61
202.292	87.3
202.51	88.41
202.728	83.96
202.946	81.67
203.165	83.46
203.383	80.8
203.601	79.62
203.819	77.29
204.037	73.75
204.255	71.37
204.473	72.71
204.691	78.66
204.909	79.18
205.127	79.14
205.345	79.68
205.562	79.41
205.78	80.61
205.998	82.22
206.216	80.14
206.434	84.55
206.652	88.99
206.87	87.57
207.088	83.54
207.306	79.21
207.523	76.89
207.741	77.75
207.959	79.04
208.177	77.1
208.395	77.47
208.612	79.32
208.83	75.64
209.048	74.65
209.266	74.66
209.483	80.92
209.701	84.97
209.919	86.23
210.136	86.8
210.354	87.06
210.572	89.83
210.79	88.06
211.007	89.04
211.225	93.7
211.442	92.16
211.66	90.61
211.878	91.92
212.095	74.46
212.313	76.09
212.53	75.1
212.748	70.86
212.966	69.76
213.183	68.89
213.401	68.41
213.618	65.85
213.836	69.4
214.053	69.03
214.271	63.71
214.488	78.08
214.705	77.02
214.923	75.15
215.14	71.84
215.358	69.16
215.575	68.3
215.793	68.92
216.01	70.16
216.227	65.74
216.445	61.79
216.662	61.83
216.879	63.85
217.097	63.2
217.314	62.43
217.531	66.08
217.749	66.51
217.966	69.41
218.183	67.46
218.4	63.99
218.618	66.95
218.835	69.18
219.052	66.72
219.269	61.78
219.487	62.82
219.704	66.09
219.921	65.42
220.138	65.78
220.355	61.26
220.572	59.25
220.79	61.07
221.007	58.51
221.224	56.25
221.441	59.49
221.658	60.13
221.875	59.67
222.092	58.03
222.309	57.15
222.526	53.48
222.743	54.65
222.96	54.53
223.177	53.95
223.394	50.64
223.611	52.14
223.828	49.85
224.045	49.16
224.262	46.05
224.479	44.38
224.696	45.99
224.913	46.44
225.13	44.45
225.347	43.82
225.564	42.86
225.781	44.78
225.997	42.78
226.214	38.21
226.431	34.74
226.648	33.08
226.865	30.77
227.082	28.12
227.298	25.52
227.515	23.16
227.732	20.66
227.949	18.56
228.165	16.61
228.382	15.66
228.599	16.93
228.816	17.02
229.032	16.19
229.249	16
229.466	15.17
229.682	15.63
229.899	16.27
230.116	16.65
230.332	17.57
230.549	18.01
230.765	19.23
230.982	18.88
231.199	19.45
231.415	21.33
231.632	22.8
231.848	24.53
232.065	24.7
232.281	25.08
232.498	24.98
232.714	24.71
232.931	25.3
233.147	25.91
233.364	26.17
233.58	25.74
233.797	25.59
234.013	24.89
234.23	23.91
234.446	23.79
234.662	23.37
234.879	23.63
235.095	23.8
235.312	24.22
235.528	23.94
235.744	23.16
235.961	23.1
236.177	22.91
236.393	23.45
236.61	24.33
236.826	23.75
237.042	23.73
237.258	24.18
237.475	23.98
237.691	23.14
237.907	23.94
238.123	24.42
238.339	25.29
238.556	24.9
238.772	24.05
238.988	23
239.204	23.27
239.42	22.9
239.636	22.96
239.853	21.71
240.069	21.2
240.285	19.32
240.501	17.86
240.717	16.45
240.933	14.97
241.149	13.91
241.365	13.49
241.581	13.01
241.797	12.56
242.013	11.49
242.229	11.7
242.445	11.63
242.661	11.66
242.877	11.85
243.093	11.81
243.309	12.12
243.525	12.51
243.741	12.65
243.957	12.67
244.173	13.45
244.388	14.38
244.604	14.31
244.82	14.4
245.036	13.76
245.252	12.9
245.468	12.83
245.683	12.46
245.899	11.66
246.115	10.92
246.331	10.37
246.547	9.83
246.762	9.03
246.978	8.67
247.194	8.27
247.409	8.02
247.625	8.12
247.841	7.86
248.057	7.56
248.272	7.82
248.488	7.88
248.703	7.92
248.919	7.99
249.135	8.65
249.35	9.32
249.566	9.98
249.782	10.7
249.997	11.13
250.213	11.07
250.428	12.17
250.644	12.41
250.859	12.82
251.075	13.37
251.29	13.75
251.506	13.08
251.721	12.79
251.937	12.2
252.152	12.12
252.368	12.35
252.583	12.87
252.798	12.45
253.014	12.64
253.229	13.18
253.445	13.41
253.66	13.2
253.875	14.44
254.091	15.35
254.306	16
254.521	16.99
254.737	17.78
254.952	17.03
255.167	17.57
255.383	17.6
255.598	16.55
255.813	15.82
256.028	15.46
256.244	13.73
256.459	13.38
256.674	13.04
256.889	11.79
257.104	11.02
257.32	10.97
257.535	9.91
257.75	9.01
257.965	9.07
258.18	8.92
258.395	8.28
258.61	8.09
258.826	7.17
259.041	7.1
259.256	6.65
259.471	6.39
259.686	6.44
259.901	6.59
260.116	6.43
260.331	6.2
260.546	6.35
260.761	6.49
260.976	6.5
261.191	6.55
261.406	6.35
261.621	7.06
261.836	7.07
262.05	7.33
262.265	7.65
262.48	8.3
262.695	9.18
262.91	9.43
263.125	9.97
263.34	10.59
263.555	11.46
263.769	12.21
263.984	11.59
264.199	11.93
264.414	11.55
264.629	11.31
264.843	11.46
265.058	10.91
265.273	10.24
265.488	9.88
265.702	9.2
265.917	8.73
266.132	8.46
266.346	8.71
266.561	8.93
266.776	9.13
266.99	9.19
267.205	8.74
267.42	8.67
267.634	8.58
267.849	8.65
268.063	9.19
268.278	9.1
268.492	8.93
268.707	9.15
268.922	8.67
269.136	8.81
269.351	8.27
269.565	8.1
269.78	7.68
269.994	7.13
270.209	6.81
270.423	6.25
270.637	6.04
270.852	6.16
271.066	5.92
271.281	6.03
271.495	5.71
271.709	5.88
271.924	5.94
272.138	6.15
272.353	6.48
272.567	6.64
272.781	7.26
272.996	7.27
273.21	7.39
273.424	7.24
273.638	6.81
273.853	6.84
274.067	7.01
274.281	7.2
274.495	7.39
274.71	7.77
274.924	7.94
275.138	7.64
275.352	7.87
275.566	7.97
275.781	7.93
275.995	8.77
276.209	8.83
276.423	8.93
276.637	8.85
276.851	9.31
277.065	8.99
277.279	8.78
277.493	8.57
277.707	8.73
277.921	8.69
278.135	8.85
278.349	7.91
278.563	8.15
278.777	8.07
278.991	7.87
279.205	7.43
279.419	7.88
279.633	7.51
279.847	7.88
280.061	8.04
280.275	7.28
280.489	7.54
280.703	8.1
280.917	7.98
281.131	7.68
281.344	7.56
281.558	7.14
281.772	7.36
281.986	7.71
282.2	7.36
282.414	7.1
282.627	7.44
282.841	7.41
283.055	7.38
283.269	7.27
283.482	7.01
283.696	7
283.91	7.17
284.123	6.12
284.337	6
284.551	5.86
284.764	5.8
284.978	5.31
285.192	5.04
285.405	4.97
285.619	4.84
285.833	5.37
286.046	5.46
286.26	5.49
286.473	6.07
286.687	5.81
286.9	5.93
287.114	5.83
287.327	6.25
287.541	6.39
287.754	6.38
287.968	6.71
288.181	6.39
288.395	6.54
288.608	6.78
288.822	6.43
289.035	6.27
289.248	6.14
289.462	6.17
289.675	6.18
289.889	5.98
290.102	5.78
290.315	5.42
290.529	5.56
290.742	5.62
290.955	5.18
291.169	5.34
291.382	5.83
291.595	5.83
291.808	5.95
292.022	5.91
292.235	6.09
292.448	6.26
292.661	6.56
292.875	6.43
293.088	6.45
293.301	6.53
293.514	6.51
293.727	6.46
293.94	6.54
294.153	6.52
294.367	6.34
294.58	5.96
294.793	6.16
295.006	5.8
295.219	5.66
295.432	5.52
295.645	5.46
295.858	5.3
296.071	5.11
296.284	4.98
296.497	4.65
296.71	4.69
296.923	4.94
297.136	4.98
297.349	4.99
297.562	5.14
297.775	5.08
297.988	5.15
298.201	5.55
298.414	5.54
298.626	5.67
298.839	5.64
299.052	5.73
299.265	6.11
299.478	5.94
299.691	6.4
299.903	6.57
300.116	6.73
300.329	6.73
300.542	6.41
300.755	6.48
300.967	6.59
301.18	7.17
301.393	7.32
301.605	6.97
301.818	6.8
302.031	6.65
302.243	6.37
302.456	6.3
302.669	6.43
302.881	6.24
303.094	6.52
303.307	6.67
303.519	6.79
303.732	6.78
303.944	6.66
304.157	6.9
304.37	6.56
304.582	6.7
304.795	6.91
305.007	7.09
305.22	7.53
305.432	7.47
305.645	7.25
305.857	7.08
306.069	7.09
306.282	7.07
306.494	7.25
306.707	7.63
306.919	7.56
307.132	7.37
307.344	7.17
307.556	7.16
307.769	7.06
307.981	7.03
308.193	7.16
308.406	6.93
308.618	6.97
308.83	6.92
309.043	6.66
309.255	6.55
309.467	6.69
309.679	6.64
309.892	6.7
310.104	6.72
310.316	6.86
310.528	6.58
310.74	6.74
310.953	6.72
311.165	6.49
311.377	6.63
311.589	7
311.801	6.61
312.013	6.55
312.225	6.45
312.437	6.44
312.649	6.34
312.862	6.35
313.074	6.34
313.286	6.49
313.498	6.99
313.71	7.11
313.922	6.84
314.134	7.15
314.346	7.24
314.558	7.27
314.77	7.64
314.982	7.86
315.193	8.23
315.405	8.38
315.617	8.48
315.829	8.31
316.041	8.8
316.253	8.75
316.465	9.03
316.677	9.21
316.888	9.39
317.1	9.54
317.312	9.37
317.524	9.61
317.736	9.64
317.947	10.18
318.159	9.95
318.371	9.7
318.583	10.01
318.794	10.35
319.006	10.5
319.218	10.42
319.43	10.13
319.641	10.01
319.853	9.49
320.064	9.75
320.276	9.48
320.488	9.95
320.699	9.75
320.911	9.99
321.123	9.72
321.334	9.26
321.546	9.29
321.757	9.69
321.969	9.91
322.18	10.22
322.392	9.9
322.603	9.91
322.815	9.52
323.026	9.77
323.238	9.78
323.449	9.67
323.661	9.86
323.872	9.77
324.083	9.42
324.295	9.55
324.506	9.36
324.718	9.02
324.929	9.23
325.14	9.4
325.352	9.27
325.563	9.41
325.774	9.38
325.986	9.59
326.197	9.6
326.408	9.82
326.62	9.8
326.831	10
327.042	10.62
327.253	10.61
327.464	10.81
327.676	10.76
327.887	10.56
328.098	10.81
328.309	10.94
328.52	11.12
328.732	10.9
328.943	11.34
329.154	11.65
329.365	11.48
329.576	11.48
329.787	11.49
329.998	11.99
330.209	12.01
330.42	11.94
330.631	11.88
330.842	11.91
331.053	12.39
331.264	11.77
331.475	11.94
331.686	11.94
331.897	11.85
332.108	11.73
332.319	11.56
332.53	11.61
332.741	11.44
332.952	11.51
333.163	11.48
333.374	11.44
333.585	11.9
333.795	11.58
334.006	11.7
334.217	11.67
334.428	11.65
334.639	11.94
334.849	11.76
335.06	11.95
335.271	12.02
335.482	12.48
335.692	12.46
335.903	12.69
336.114	12.35
336.325	12.45
336.535	12.39
336.746	12.4
336.957	12.54
337.167	12.64
337.378	13
337.589	12.86
337.799	12.19
338.01	12.33
338.22	12.01
338.431	12.49
338.642	12.46
338.852	12.48
339.063	12.68
339.273	12.33
339.484	12.4
339.694	11.94
339.905	12.25
340.115	12.55
340.326	12.24
340.536	12.34
340.746	12.12
340.957	12.13
341.167	12.14
341.378	12.1
341.588	12.02
341.799	12.05
342.009	11.93
342.219	11.54
342.43	11.59
342.64	11.91
342.85	11.71
343.061	11.56
343.271	11.61
343.481	11.59
343.691	11.29
343.902	11.4
344.112	11.53
344.322	11.48
344.532	11.65
344.743	11.41
344.953	11.04
345.163	10.91
345.373	10.79
345.583	10.64
345.793	10.58
346.004	10.73
346.214	10.65
346.424	10.61
346.634	11.03
346.844	11.03
347.054	11.39
347.264	11.47
347.474	11.67
347.684	11.7
347.894	11.76
348.104	11.81
348.314	11.7
348.524	11.55
348.734	11.59
348.944	11.51
349.154	11.24
349.364	10.93
349.574	10.88
349.784	10.82
349.994	11.11
350.204	11.14
350.413	11.1
350.623	10.86
350.833	10.77
351.043	10.44
351.253	10.43
351.463	10.52
351.672	10.49
351.882	10.42
352.092	10.37
352.302	10.4
352.511	10.38
352.721	10.5
352.931	10.53
353.141	10.71
353.35	10.45
353.56	10.03
353.77	10.22
353.979	10.3
354.189	10.35
354.399	10.25
354.608	10.27
354.818	10.03
355.027	9.88
355.237	10.05
355.447	10.07
355.656	10.24
355.866	10.54
356.075	10.44
356.285	10.36
356.494	10.26
356.704	10.35
356.913	10.23
357.123	10.38
357.332	10.45
357.542	10.48
357.751	10.27
357.96	10.46
358.17	10.3
358.379	10.16
358.589	10.12
358.798	10.22
359.007	10.22
359.217	10.27
359.426	9.97
359.635	9.77
359.845	9.57
360.054	9.43
360.263	9.17
360.472	9.06
360.682	8.92
360.891	8.76
361.1	8.56
361.309	8.25
361.519	8.27
361.728	8.33
361.937	8.42
362.146	8.63
362.355	8.69
362.564	8.89
362.774	9.06
362.983	9.04
363.192	9.22
363.401	9.12
363.61	9.46
363.819	9.6
364.028	9.81
364.237	9.92
364.446	9.71
364.655	9.66
364.864	9.3
365.073	9.32
365.282	9.48
365.491	9.45
365.7	9.64
365.909	9.35
366.118	9.22
366.327	9.16
366.536	9.08
366.745	9.29
366.954	9.6
367.162	9.74
367.371	9.69
367.58	9.9
367.789	9.7
367.998	9.79
368.207	9.96
368.415	9.84
368.624	9.76
368.833	9.58
369.042	9.5
369.25	9.36
369.459	9.55
369.668	9.5
369.877	9.36
370.085	9.42
370.294	9.38
370.503	9.38
370.711	9.22
370.92	9.2
371.129	9.37
371.337	9.13
371.546	9.06
371.754	9.04
371.963	8.68
372.171	8.66
372.38	9.04
372.589	9.05
372.797	9.06
373.006	9.17
373.214	9.15
373.423	8.93
373.631	8.85
373.84	8.76
374.048	8.77
374.256	9.05
374.465	8.98
374.673	8.78
374.882	8.98
375.09	9.15
375.298	9.09
375.507	9.21
375.715	9.24
375.923	9.46
376.132	9.36
376.34	9.13
376.548	8.96
376.757	8.83
376.965	8.83
377.173	8.51
377.381	8.28
377.59	8.4
377.798	8.26
378.006	8.24
378.214	8.09
378.423	8.24
378.631	8.1
378.839	8.28
379.047	8.29
379.255	8.16
379.463	8.39
379.671	8.33
379.879	8.25
380.088	8.2
380.296	8.19
380.504	8.33
380.712	8.21
380.92	8.34
381.128	8.43
381.336	8.34
381.544	8.28
381.752	8.18
381.96	8.17
382.168	8.09
382.376	8.07
382.584	8.17
382.791	8.16
382.999	8.06
383.207	7.99
383.415	7.91
383.623	7.96
383.831	7.78
384.039	7.59
384.247	7.66
384.454	7.7
384.662	7.79
384.87	7.62
385.078	7.47
385.285	7.56
385.493	7.61
385.701	7.5
385.909	7.56
386.116	7.75
386.324	7.8
386.532	7.75
386.739	7.55
386.947	7.54
387.155	7.78
387.362	7.78
387.57	7.62
387.778	7.35
387.985	7.53
388.193	7.44
388.4	7.45
388.608	7.53
388.816	7.51
389.023	7.58
389.231	7.44
389.438	7.17
389.646	7.27
389.853	7.43
390.061	7.62
390.268	7.51
390.475	7.35
390.683	7.26
390.89	7.05
391.098	7.03
391.305	7.12
391.512	7.07
391.72	7.18
391.927	7.09
392.135	7.08
392.342	7.21
392.549	7.19
392.756	7.28
392.964	7.21
393.171	7.34
393.378	7.32
393.586	7.21
393.793	7.21
394	7.13
394.207	7.22
394.414	7.15
394.622	7.04
394.829	6.96
395.036	7.06
395.243	7.17
395.45	7.1
395.657	7.08
395.864	7.06
396.072	7.01
396.279	7.16
396.486	6.98
396.693	7.02
396.9	7.02
397.107	7.08
397.314	7.18
397.521	7.06
397.728	7.08
397.935	7
398.142	7.06
398.349	7.28
398.556	7.11
398.763	7.15
398.97	7.09
399.177	7.03
399.383	7.01
399.59	7.04
399.797	7.13
400.004	7.09
400.211	7.27
400.418	7.26
400.625	7.23
400.831	7.2
401.038	7.31
401.245	7.27
401.452	7.34
401.658	7.33
401.865	7.2
402.072	7.23
402.279	7.31
402.485	7.34
402.692	7.26
402.899	7.24
403.105	7.25
403.312	7.26
403.519	7.11
403.725	7.07
403.932	6.88
404.138	6.78
404.345	6.69
404.552	6.55
404.758	6.47
404.965	6.32
405.171	6.2
405.378	6.17
405.584	6.16
405.791	6.37
405.997	6.36
406.204	6.53
406.41	6.46
406.617	6.56
406.823	6.54
407.029	6.5
407.236	6.59
407.442	6.63
407.649	6.77
407.855	6.69
408.061	6.75
408.268	6.84
408.474	6.89
408.68	6.82
408.887	6.75
409.093	6.85
409.299	6.81
409.505	6.95
409.712	6.92
409.918	6.78
410.124	6.79
410.33	6.72
410.537	6.48
410.743	6.4
410.949	6.59
411.155	6.66
411.361	6.47
411.567	6.59
411.773	6.55
411.98	6.54
412.186	6.51
412.392	6.55
412.598	6.59
412.804	6.74
413.01	6.81
413.216	6.84
413.422	6.78
413.628	7.02
413.834	6.88
414.04	6.83
414.246	6.91
414.452	6.81
414.658	6.62
414.864	6.39
415.07	6.4
415.275	6.28
415.481	6.15
415.687	5.95
415.893	5.88
416.099	5.93
416.305	5.88
416.511	5.85
416.716	5.81
416.922	5.82
417.128	5.81
417.334	5.72
417.539	5.67
417.745	5.47
417.951	5.44
418.157	5.41
418.362	5.26
418.568	5.14
418.774	4.93
418.979	4.97
419.185	4.9
419.391	4.91
419.596	4.77
419.802	4.7
420.008	4.75
420.213	5.4
420.419	5.3
420.624	5.24
420.83	5.31
421.035	5.34
421.241	5.25
421.446	5.21
421.652	5.12
421.857	5.14
422.063	5.15
422.268	5.15
422.474	4.53
422.679	4.52
422.885	4.54
423.09	4.48
423.295	4.46
423.501	4.45
423.706	4.51
423.911	4.52
424.117	4.57
424.322	4.48
424.527	4.46
424.733	4.42
424.938	4.44
425.143	4.47
425.349	4.51
425.554	4.5
425.759	4.57
425.964	4.57
426.169	4.62
426.375	4.6
426.58	4.75
426.785	4.81
426.99	4.92
427.195	5.02
427.4	5.05
427.605	4.99
427.811	5.06
428.016	5.01
428.221	5.06
428.426	5.06
428.631	5.11
428.836	5.09
429.041	5.14
429.246	5.12
429.451	5.04
429.656	5.05
429.861	5.15
430.066	4.98
430.271	4.99
430.476	4.88
430.681	4.94
430.886	5.02
431.09	5.01
431.295	4.9
431.5	5.05
431.705	5.05
431.91	5.11
432.115	4.96
432.32	5.18
432.524	5.12
432.729	5.21
432.934	5.15
433.139	5.01
433.343	5.05
433.548	5.08
433.753	5.09
433.958	5.11
434.162	5.1
434.367	5.23
434.572	5.26
434.776	5.36
434.981	5.29
435.186	5.32
435.39	5.42
435.595	5.31
435.799	5.29
436.004	5.15
436.209	5.14
436.413	5.13
436.618	5.09
436.822	4.93
437.027	4.91
437.231	4.91
437.436	5.03
437.64	5.03
437.845	5.11
438.049	5.18
438.253	5.12
438.458	5.13
438.662	4.98
438.867	4.95
439.071	4.97
439.275	4.92
439.48	4.88
439.684	4.7
439.888	4.72
440.093	4.62
440.297	4.5
440.501	4.52
440.706	4.54
440.91	4.56
441.114	4.53
441.318	4.55
441.523	4.57
441.727	4.58
441.931	4.68
442.135	4.69
442.339	4.74
442.543	4.96
442.748	4.93
442.952	4.93
443.156	5.02
443.36	5.04
443.564	5.05
443.768	5.08
443.972	5.02
444.176	4.94
444.38	4.88
444.584	4.87
444.788	4.63
444.992	4.67
445.196	4.63
445.4	4.58
445.604	4.61
445.808	4.58
446.012	4.56
446.216	4.61
446.42	4.63
446.624	4.6
446.828	4.52
447.032	4.5
447.235	4.54
447.439	4.48
447.643	4.56
447.847	4.54
448.051	4.6
448.254	4.58
448.458	4.66
448.662	4.69
448.866	4.67
449.069	4.87
449.273	5.05
449.477	4.99
449.681	5.07
449.884	5.09
450.088	5.21
450.292	5.14
450.495	5.15
450.699	5.04
450.902	4.95
451.106	5.05
451.31	4.95
451.513	4.91
451.717	4.91
451.92	4.77
452.124	4.78
452.327	4.64
452.531	4.59
452.734	4.59
452.938	4.68
453.141	4.83
453.345	4.88
453.548	4.79
453.752	4.84
453.955	4.97
454.158	5.03
454.362	4.98
454.565	5.06
454.769	5.09
454.972	5.19
455.175	5.12
455.379	5.05
455.582	5.02
455.785	5.08
455.988	5.04
456.192	5.02
456.395	5.06
456.598	5.11
456.801	5.09
457.005	5.03
457.208	5.01
457.411	5.04
457.614	4.98
457.817	4.88
458.021	4.81
458.224	4.78
458.427	4.55
458.63	4.53
458.833	4.41
459.036	4.38
459.239	4.38
459.442	4.27
459.645	4.2
459.848	4.24
460.051	4.29
460.254	4.37
460.457	4.37
460.66	4.45
460.863	4.45
461.066	4.55
461.269	4.53
461.472	4.61
461.675	4.61
461.878	4.7
462.081	4.74
462.284	4.8
462.486	4.75
462.689	4.77
462.892	4.86
463.095	4.82
463.298	4.77
463.5	4.89
463.703	4.87
463.906	5.01
464.109	4.99
464.311	4.94
464.514	4.83
464.717	4.9
464.92	4.94
465.122	4.98
465.325	5.11
465.528	5.11
465.73	5.13
465.933	5.1
466.135	5.04
466.338	5.02
466.541	4.99
466.743	5.03
466.946	4.94
467.148	4.89
467.351	4.91
467.553	4.98
467.756	5
467.958	4.89
468.161	5.08
468.363	5.13
468.566	5.19
468.768	5.28
468.971	5.33
469.173	5.43
469.375	5.5
469.578	5.42
469.78	5.33
469.983	5.4
470.185	5.49
470.387	5.36
470.59	5.3
470.792	5.3
470.994	5.28
471.196	5.22
471.399	5.18
471.601	5.18
471.803	5.17
472.005	5.17
472.208	5.07
472.41	5.07
472.612	5.03
472.814	5.15
473.016	5.16
473.218	5.18
473.421	5.23
473.623	5.28
473.825	5.33
474.027	5.37
474.229	5.36
474.431	5.4
474.633	5.38
474.835	5.43
475.037	5.41
475.239	5.33
475.441	5.3
475.643	5.22
475.845	5.11
476.047	5.05
476.249	5.01
476.451	5.06
476.653	5
476.855	5.03
477.057	4.97
477.258	4.98
477.46	4.95
477.662	4.94
477.864	4.98
478.066	5.01
478.268	4.97
478.469	4.95
478.671	4.88
478.873	4.91
479.075	4.87
479.276	4.89
479.478	4.86
479.68	4.91
479.882	4.9
480.083	4.89
480.285	4.82
480.487	4.84
480.688	4.81
480.89	4.79
481.091	4.73
481.293	4.67
481.495	4.58
481.696	4.48
481.898	4.44
482.099	4.33
482.301	4.27
482.502	4.25
482.704	4.15
482.905	4.12
483.107	4.06
483.308	4.02
483.51	3.95
483.711	3.92
483.913	3.9
484.114	3.87
484.315	3.86
484.517	3.83
484.718	3.81
484.92	3.82
485.121	3.8
485.322	3.82
485.524	3.82
485.725	3.88
485.926	3.91
486.127	3.93
486.329	3.94
486.53	3.94
486.731	4
486.932	4
487.134	4
487.335	4.02
487.536	3.96
487.737	3.99
487.938	3.99
488.139	4.01
488.341	4.02
488.542	4.06
488.743	4.07
488.944	4.05
489.145	4.1
489.346	4.16
489.547	4.18
489.748	4.26
489.949	4.27
490.15	4.28
490.351	4.34
490.552	4.35
490.753	4.31
490.954	4.32
491.155	4.32
491.356	4.31
491.557	4.31
491.758	4.33
491.959	4.3
492.159	4.32
492.36	4.32
492.561	4.27
492.762	4.28
492.963	4.31
493.164	4.33
493.364	4.4
493.565	4.42
493.766	4.42
493.967	4.42
494.167	4.51
494.368	4.59
494.569	4.63
494.769	4.69
494.97	4.77
495.171	4.88
495.371	4.97
495.572	4.92
495.773	4.9
495.973	4.96
496.174	4.95
496.375	4.99
496.575	4.95
496.776	5.08
496.976	5.09
497.177	5.06
497.377	4.97
497.578	4.96
497.778	5
497.979	5.06
498.179	5.05
498.38	5.09
498.58	5.1
498.78	5.07
498.981	5
499.181	4.98
499.382	5.1
499.582	5.24
499.782	5.3
499.983	5.31
500.183	5.33
500.383	5.36
500.584	5.44
500.784	5.43
500.984	5.48
501.184	5.5
501.385	5.54
501.585	5.46
501.785	5.51
501.985	5.48
502.185	5.55
502.386	5.59
502.586	5.65
502.786	5.68
502.986	5.83
503.186	5.88
503.386	5.89
503.586	5.97
503.786	5.97
503.987	5.93
504.187	5.91
504.387	5.93
504.587	5.94
504.787	5.94
504.987	5.95
505.187	5.86
505.387	5.95
505.587	6
505.786	5.93
505.986	5.94
506.186	6.02
506.386	6.08
506.586	6.15
506.786	6.15
506.986	6.18
507.186	6.13
507.386	6.1
507.585	6.05
507.785	6.07
507.985	6.1
508.185	6.13
508.384	6.07
508.584	6.06
508.784	6.02
508.984	6.12
509.183	6.15
509.383	6.22
509.583	6.36
509.782	6.39
509.982	6.39
510.182	6.47
510.381	6.55
510.581	6.57
510.781	6.59
510.98	6.58
511.18	6.5
511.379	6.55
511.579	6.58
511.778	6.57
511.978	6.57
512.177	6.62
512.377	6.61
512.576	6.63
512.776	6.67
512.975	6.82
513.175	6.95
513.374	7.03
513.573	7.1
513.773	7.18
513.972	7.31
514.172	7.44
514.371	7.57
514.57	7.66
514.77	7.7
514.969	7.73
515.168	7.7
515.367	7.66
515.567	7.73
515.766	7.71
515.965	7.68
516.164	7.59
516.364	7.52
516.563	7.36
516.762	7.38
516.961	7.29
517.16	7.39
517.359	7.36
517.559	7.43
517.758	7.42
517.957	7.43
518.156	7.47
518.355	7.46
518.554	7.48
518.753	7.57
518.952	7.6
519.151	7.65
519.35	7.62
519.549	7.7
519.748	7.65
519.947	7.69
520.146	7.76
520.345	7.76
520.544	7.87
520.743	7.95
520.942	7.95
521.141	7.95
521.339	8.09
521.538	8.09
521.737	8.15
521.936	8.18
522.135	8.23
522.333	8.25
522.532	8.34
522.731	8.41
522.93	8.41
523.129	8.5
523.327	8.55
523.526	8.53
523.725	8.59
523.923	8.53
524.122	8.58
524.321	8.6
524.519	8.55
524.718	8.49
524.917	8.48
525.115	8.49
525.314	8.48
525.512	8.52
525.711	8.52
525.909	8.57
526.108	8.61
526.306	8.61
526.505	8.61
526.703	8.67
526.902	8.66
527.1	8.61
527.299	8.62
527.497	8.66
527.696	8.64
527.894	8.65
528.092	8.64
528.291	8.63
528.489	8.64
528.688	8.63
528.886	8.63
529.084	8.67
529.283	8.72
529.481	8.74
529.679	8.75
529.877	8.8
530.076	8.86
530.274	8.89
530.472	8.97
530.67	9.09
530.869	9.16
531.067	9.2
531.265	9.28
531.463	9.34
531.661	9.4
531.859	9.41
532.057	9.44
532.255	9.46
532.454	9.5
532.652	9.46
532.85	9.45
533.048	9.5
533.246	9.57
533.444	9.58
533.642	9.6
533.84	9.6
534.038	9.68
534.236	9.71
534.434	9.75
534.632	9.78
534.83	9.92
535.027	9.92
535.225	9.9
535.423	9.93
535.621	10.02
535.819	10.06
536.017	10.2
536.215	10.18
536.412	10.26
536.61	10.29
536.808	10.33
537.006	10.4
537.203	10.57
537.401	10.73
537.599	10.8
537.797	10.88
537.994	11.01
538.192	11.09
538.39	11.28
538.587	11.44
538.785	11.58
538.983	11.73
539.18	11.8
539.378	11.84
539.575	11.87
539.773	11.98
539.97	11.98
540.168	12.04
540.366	12.08
540.563	12.04
540.761	12.04
540.958	12.09
541.155	12.18
541.353	12.18
541.55	12.19
541.748	12.26
541.945	12.29
542.143	12.38
542.34	12.47
542.537	12.54
542.735	12.67
542.932	12.74
543.129	12.89
543.327	13
543.524	13.26
543.721	13.47
543.919	13.71
544.116	14.02
544.313	14.36
544.51	14.64
544.708	14.9
544.905	15.26
545.102	15.64
545.299	15.9
545.496	16.15
545.693	16.24
545.891	16.45
546.088	16.51
546.285	16.51
546.482	16.34
546.679	16.23
546.876	16.18
547.073	16.02
547.27	15.85
547.467	15.71
547.664	15.56
547.861	15.49
548.058	15.44
548.255	15.34
548.452	15.28
548.649	15.37
548.846	15.42
549.043	15.44
549.24	15.47
549.437	15.49
549.633	15.57
549.83	15.6
550.027	15.6
550.224	15.48
550.421	15.48
550.618	15.31
550.814	15.16
551.011	15.16
551.208	15.15
551.405	15.15
551.601	15.17
551.798	15.03
551.995	14.9
552.191	14.97
552.388	14.96
552.585	14.99
552.781	15.09
552.978	15.2
553.175	15.18
553.371	15.26
553.568	15.25
553.764	15.2
553.961	15.29
554.157	15.41
554.354	15.47
554.55	15.53
554.747	15.53
554.943	15.6
555.14	15.71
555.336	15.82
555.533	15.82
555.729	15.88
555.926	16
556.122	16.12
556.318	16.28
556.515	16.2
556.711	16.26
556.907	16.3
557.104	16.36
557.3	16.35
557.496	16.22
557.693	16.31
557.889	16.34
558.085	16.43
558.281	16.52
558.478	16.53
558.674	16.58
558.87	16.66
559.066	16.76
559.262	16.77
559.459	16.85
559.655	17.1
559.851	17.12
560.047	17.17
560.243	17.23
560.439	17.08
560.635	17.19
560.831	17.24
561.027	17.3
561.223	17.36
561.419	17.45
561.615	17.36
561.811	17.42
562.007	17.49
562.203	17.7
562.399	17.75
562.595	17.87
562.791	17.89
562.987	17.95
563.183	17.93
563.379	18.07
563.575	18.09
563.771	18.3
563.966	18.27
564.162	18.17
564.358	18.03
564.554	18.08
564.75	18.09
564.945	18.14
565.141	18.12
565.337	18.18
565.533	18.07
565.728	18.1
565.924	18.1
566.12	18.17
566.315	18.23
566.511	18.26
566.707	18.25
566.902	18.28
567.098	18.3
567.293	18.39
567.489	18.45
567.684	18.51
567.88	18.55
568.076	18.59
568.271	18.69
568.467	18.83
568.662	18.77
568.858	18.87
569.053	18.94
569.248	18.96
569.444	19.04
569.639	19
569.835	19.15
570.03	19.11
570.225	19.09
570.421	19.07
570.616	18.95
570.812	19.15
571.007	19.09
571.202	19
571.397	19.09
571.593	19.07
571.788	19.1
571.983	19.14
572.178	19.23
572.374	19.32
572.569	19.38
572.764	19.56
572.959	19.55
573.154	19.63
573.35	19.78
573.545	19.8
573.74	19.92
573.935	20.01
574.13	19.95
574.325	20.11
574.52	20.2
574.715	20.33
574.91	20.38
575.105	20.62
575.3	20.81
575.495	21.08
575.69	21.2
575.885	21.43
576.08	21.64
576.275	21.97
576.47	22.12
576.665	22.33
576.86	22.44
577.055	22.62
577.25	22.7
577.444	22.88
577.639	23.05
577.834	23.19
578.029	23.2
578.224	23.44
578.418	23.53
578.613	23.71
578.808	23.86
579.003	24.01
579.197	24.08
579.392	24.09
579.587	24.1
579.781	24.07
579.976	24.12
580.171	24.22
580.365	24.26
580.56	24.27
580.755	24.31
580.949	24.26
581.144	24.36
581.338	24.45
581.533	24.64
581.727	24.79
581.922	24.66
582.116	24.75
582.311	24.89
582.505	24.75
582.7	24.9
582.894	25.08
583.089	25.11
583.283	25.07
583.478	25.14
583.672	25.2
583.866	25.26
584.061	25.48
584.255	25.49
584.449	25.51
584.644	25.66
584.838	25.69
585.032	25.51
585.226	25.8
585.421	25.94
585.615	26.12
585.809	26.15
586.003	26.17
586.198	26.22
586.392	26.37
586.586	26.43
586.78	26.49
586.974	26.51
587.168	26.45
587.363	26.33
587.557	26.21
587.751	26.07
587.945	25.82
588.139	25.65
588.333	25.59
588.527	25.46
588.721	25.16
588.915	25.08
589.109	24.82
589.303	24.74
589.497	24.62
589.691	24.53
589.885	24.5
590.079	24.65
590.273	24.66
590.466	24.66
590.66	24.9
590.854	25.2
591.048	25.28
591.242	25.52
591.436	25.84
591.629	26.07
591.823	26.41
592.017	26.55
592.211	26.62
592.404	26.77
592.598	26.97
592.792	26.89
592.986	26.94
593.179	26.83
593.373	26.76
593.567	26.62
593.76	26.29
593.954	26.04
594.147	25.97
594.341	25.88
594.535	25.74
594.728	25.48
594.922	25.26
595.115	25.07
595.309	24.81
595.502	24.69
595.696	24.55
595.889	24.41
596.083	24.3
596.276	24.17
596.47	24.28
596.663	24.27
596.856	24.21
597.05	24.29
597.243	24.22
597.437	24.44
597.63	24.64
597.823	24.87
598.017	25.18
598.21	25.33
598.403	25.58
598.596	25.68
598.79	25.82
598.983	26.15
599.176	26.21
599.369	26.39
599.563	26.52
599.756	26.58
599.949	26.47
600.142	26.54
600.335	26.66
600.528	26.63
600.722	26.5
600.915	26.4
601.108	26.3
601.301	26.32
601.494	26.11
601.687	26.05
601.88	25.91
602.073	25.88
602.266	25.78
602.459	25.59
602.652	25.37
602.845	25.3
603.038	25.16
603.231	25.05
603.424	24.9
603.617	24.91
603.809	24.76
604.002	24.65
604.195	24.55
604.388	24.54
604.581	24.52
604.774	24.56
604.966	24.59
605.159	24.75
605.352	24.78
605.545	24.95
605.737	25.15
605.93	25.36
606.123	25.73
606.316	26.1
606.508	26.38
606.701	26.68
606.894	27.02
607.086	27.34
607.279	27.79
607.471	28.06
607.664	28.39
607.857	28.83
608.049	29.44
608.242	29.91
608.434	30.6
608.627	31.56
608.819	32.82
609.012	34.22
609.204	35.96
609.397	37.76
609.589	39.89
609.782	41.95
609.974	44.18
610.166	46.35
610.359	48.56
610.551	50.76
610.743	52.64
610.936	54.38
611.128	55.57
611.32	56.22
611.513	56.65
611.705	56.79
611.897	56.79
612.09	56.3
612.282	55.54
612.474	54.59
612.666	53.44
612.858	52.16
613.051	50.75
613.243	49.66
613.435	48.49
613.627	47.32
613.819	46.13
614.011	45.08
614.203	44.2
614.395	43.27
614.588	42.21
614.78	41.26
614.972	40.28
615.164	39.42
615.356	38.52
615.548	37.69
615.74	37.06
615.932	36.33
616.124	35.49
616.315	34.7
616.507	34.15
616.699	33.52
616.891	32.88
617.083	32.66
617.275	32.26
617.467	31.96
617.659	31.74
617.85	31.24
618.042	30.99
618.234	30.82
618.426	30.53
618.618	30.26
618.809	30.22
619.001	30.23
619.193	30.06
619.384	30.13
619.576	30.25
619.768	30.42
619.959	30.42
620.151	30.59
620.343	30.73
620.534	30.81
620.726	30.72
620.917	30.84
621.109	30.89
621.301	30.93
621.492	30.89
621.684	30.71
621.875	30.41
622.067	30.54
622.258	30.67
622.45	30.71
622.641	30.79
622.832	31.1
623.024	31.03
623.215	30.97
623.407	30.96
623.598	30.84
623.789	30.97
623.981	31.1
624.172	30.94
624.363	30.78
624.555	30.55
624.746	30.34
624.937	30.29
625.129	30.15
625.32	30.04
625.511	29.95
625.702	29.99
625.893	29.94
626.085	29.98
626.276	30.11
626.467	30.06
626.658	30.14
626.849	30.1
627.04	29.88
627.231	30
627.422	30.2
627.614	30.3
627.805	30.26
627.996	30.17
628.187	30.28
628.378	30.37
628.569	30.67
628.76	31
628.951	31.27
629.142	31.74
629.332	32.12
629.523	32.35
629.714	32.76
629.905	33.1
630.096	33.43
630.287	33.62
630.478	33.81
630.669	33.71
630.859	33.45
631.05	33.53
631.241	33.24
631.432	32.78
631.623	32.37
631.813	31.84
632.004	31.19
632.195	30.83
632.385	30.28
632.576	29.91
632.767	29.64
632.957	29.49
633.148	28.94
633.339	28.63
633.529	28.49
633.72	28.41
633.91	28.29
634.101	28.27
634.292	28.24
634.482	28.33
634.673	28.19
634.863	28.1
635.054	27.94
635.244	28.15
635.435	28.2
635.625	28.14
635.815	28.03
636.006	28.01
636.196	28.13
636.387	28.02
636.577	28.05
636.767	28.14
636.958	28.18
637.148	28.25
637.338	28.3
637.529	28.36
637.719	28.5
637.909	28.54
638.099	28.55
638.29	28.52
638.48	28.79
638.67	28.83
638.86	28.61
639.05	28.73
639.241	28.86
639.431	28.65
639.621	28.7
639.811	28.7
640.001	28.88
640.191	29.01
640.381	29.02
640.571	28.91
640.761	28.85
640.951	29.09
641.141	28.98
641.331	28.88
641.521	28.97
641.711	28.97
641.901	29.12
642.091	28.96
642.281	28.91
642.471	29.01
642.661	28.87
642.851	28.98
643.041	29.08
643.231	29.11
643.42	28.93
643.61	29.02
643.8	28.96
643.99	28.72
644.18	28.76
644.369	29.02
644.559	29.07
644.749	29.32
644.939	29.14
645.128	29.04
645.318	28.94
645.508	29.04
645.697	28.97
645.887	29.17
646.076	29.22
646.266	29.26
646.456	29.14
646.645	28.97
646.835	28.67
647.024	28.62
647.214	28.61
647.403	28.6
647.593	28.58
647.782	28.79
647.972	28.87
648.161	29.01
648.351	29.04
648.54	29.17
648.73	29.38
648.919	29.64
649.108	29.75
649.298	29.88
649.487	30.1
649.677	30.4
649.866	30.28
650.055	30.24
650.244	30.29
650.434	30.41
650.623	30.21
650.812	30.31
651.002	30.19
651.191	30.51
651.38	30.4
651.569	30.47
651.758	30.29
651.947	30.38
652.137	30.48
652.326	30.47
652.515	30.24
652.704	30.18
652.893	30.12
653.082	30.02
653.271	29.68
653.46	29.86
653.649	29.95
653.838	29.89
654.027	29.81
654.216	29.5
654.405	29.54
654.594	29.49
654.783	29.58
654.972	29.36
655.161	29.5
655.35	29.63
655.539	29.23
655.728	29.09
655.916	29.17
656.105	29.01
656.294	29.32
656.483	29.12
656.672	29.13
656.86	29.04
657.049	29.19
657.238	29.06
657.427	28.87
657.615	29.08
657.804	28.88
657.993	28.77
658.181	28.78
658.37	28.31
658.559	28.44
658.747	28.44
658.936	28.51
659.125	28.11
659.313	28.12
659.502	28.13
659.69	28.06
659.879	28.13
660.067	28.29
660.256	28.43
660.444	28.7
660.633	28.63
660.821	28.87
661.01	28.95
661.198	29.39
661.387	29.59
661.575	29.87
661.763	30.07
661.952	30.28
662.14	30.33
662.328	30.24
662.517	30.35
662.705	30.43
662.893	30.5
663.082	30.51
663.27	30.63
663.458	30.65
663.646	30.75
663.834	30.84
664.023	30.71
664.211	30.92
664.399	31.16
664.587	31.04
664.775	30.87
664.963	30.8
665.152	30.9
665.34	30.77
665.528	31
665.716	30.94
665.904	30.97
666.092	31.22
666.28	31.14
666.468	31.03
666.656	31.2
666.844	31.42
667.032	31.49
667.22	31.44
667.408	31.75
667.596	31.57
667.784	31.47
667.971	31.2
668.159	30.97
668.347	30.8
668.535	30.79
668.723	30.61
668.911	30.62
669.098	30.61
669.286	30.71
669.474	30.31
669.662	30.25
669.849	30.29
670.037	30.45
670.225	30.62
670.413	30.75
670.6	30.84
670.788	31.06
670.976	31.01
671.163	30.97
671.351	30.97
671.538	31.29
671.726	31.32
671.913	31.27
672.101	31.25
672.289	31.18
672.476	30.96
672.664	30.9
672.851	30.87
673.039	30.98
673.226	30.8
673.413	30.78
673.601	30.53
673.788	30.81
673.976	30.8
674.163	30.95
674.35	31.06
674.538	31.29
674.725	31.68
674.912	31.8
675.1	31.88
675.287	31.95
675.474	31.78
675.662	31.97
675.849	31.93
676.036	32.16
676.223	32.09
676.411	32.13
676.598	32.13
676.785	31.8
676.972	31.5
677.159	31.26
677.346	31.24
677.533	31.2
677.721	31.11
677.908	30.79
678.095	30.5
678.282	30.42
678.469	30.13
678.656	29.95
678.843	29.71
679.03	29.84
679.217	29.9
679.404	30.02
679.591	30.11
679.778	29.85
679.964	30.01
680.151	29.82
680.338	29.78
680.525	29.87
680.712	29.85
680.899	30.09
681.086	30.29
681.272	30.26
681.459	30.13
681.646	30.34
681.833	30.76
682.02	30.63
682.206	30.99
682.393	31.21
682.58	31.32
682.766	31.59
682.953	31.76
683.14	31.43
683.326	31.69
683.513	32.16
683.7	32.13
683.886	31.98
684.073	32.17
684.259	32.2
684.446	31.97
684.632	32.1
684.819	31.9
685.005	31.8
685.192	31.85
685.378	31.9
685.565	31.55
685.751	31.47
685.938	31.76
686.124	31.94
686.31	32.27
686.497	32.49
686.683	32.31
686.87	32.43
687.056	32.36
687.242	32.39
687.429	32.34
687.615	32.51
687.801	32.29
687.987	32.1
688.174	31.86
688.36	31.41
688.546	31.54
688.732	31.48
688.918	31.32
689.105	31.5
689.291	31.66
689.477	31.72
689.663	31.4
689.849	31.65
690.035	31.87
690.221	31.87
690.407	31.95
690.593	31.69
690.779	31.71
690.965	31.88
691.151	31.71
691.337	31.67
691.523	31.74
691.709	32.15
691.895	32.26
692.081	32.28
692.267	32.57
692.453	32.75
692.639	32.83
692.825	32.99
693.011	33.01
693.196	33.07
693.382	33.11
693.568	33.04
693.754	32.95
693.94	32.68
694.125	32.52
694.311	32.31
694.497	31.95
694.682	32
694.868	31.65
695.054	31.66
695.239	31.82
695.425	31.99
695.611	31.84
695.796	31.82
695.982	31.73
696.168	31.69
696.353	31.58
696.539	31.73
696.724	31.43
696.91	31.49
697.095	31.24
697.281	30.97
697.466	30.46
697.652	30.37
697.837	29.82
698.023	29.79
698.208	29.65
698.393	29.4
698.579	29.09
698.764	28.85
698.949	28.66
699.135	28.78
699.32	28.76
699.505	28.62
699.691	28.67
699.876	28.92
700.061	29.08
700.246	29.15
700.432	29.47
700.617	29.78
700.802	30.37
700.987	30.74
701.172	30.76
701.358	30.9
701.543	31.49
701.728	31.69
701.913	31.94
702.098	31.78
702.283	32.09
702.468	32.3
702.653	32.77
702.838	32.99
703.023	32.89
703.208	33.26
703.393	33.51
703.578	33.73
703.763	34.2
703.948	34.67
704.133	35.18
704.318	35.34
704.503	35.74
704.688	36.11
704.873	36.51
705.057	37.69
705.242	38.48
705.427	38.92
705.612	39.78
705.797	39.94
705.981	40.11
706.166	40.56
706.351	40.96
706.536	41.02
706.72	41.18
706.905	41.59
707.09	41.46
707.274	41.29
707.459	41.36
707.644	41.43
707.828	41.56
708.013	42.1
708.197	41.94
708.382	42.18
708.567	42.3
708.751	42.25
708.936	41.48
709.12	41.15
709.305	40.94
709.489	40.86
709.673	40.49
709.858	40.04
710.042	39.72
710.227	39.75
710.411	39.06
710.596	38.96
710.78	38.86
710.964	39.26
711.149	39.44
711.333	39.77
711.517	39.71
711.702	39.4
711.886	39.27
712.07	38.52
712.254	38.4
712.438	38.36
712.623	38.14
712.807	37.73
712.991	37.45
713.175	36.88
713.359	36.13
713.544	35.73
713.728	35.35
713.912	35.15
714.096	35.11
714.28	34.46
714.464	34.08
714.648	33.64
714.832	33.4
715.016	32.99
715.2	32.94
715.384	32.89
715.568	32.47
715.752	32.4
715.936	32.59
716.12	32.48
716.304	32.76
716.488	32.82
716.671	32.89
716.855	32.71
717.039	32.58
717.223	32.4
717.407	31.89
717.59	31.94
717.774	32.13
717.958	31.95
718.142	32.04
718.325	31.91
718.509	32.06
718.693	31.82
718.877	31.77
719.06	32.13
719.244	32.33
719.428	32.79
719.611	32.91
719.795	32.82
719.978	32.62
720.162	32.63
720.345	32.85
720.529	33.04
720.713	33.37
720.896	33.31
721.08	33.42
721.263	33.55
721.446	33.94
721.63	34.3
721.813	34.33
721.997	34.62
722.18	35.02
722.364	35.18
722.547	34.67
722.73	34.7
722.914	34.99
723.097	34.43
723.28	34.49
723.464	34.18
723.647	34.28
723.83	33.71
724.013	33.57
724.197	33.44
724.38	33.27
724.563	33.37
724.746	33.15
724.929	32.89
725.112	32.81
725.296	32.23
725.479	32.32
725.662	32.29
725.845	32.3
726.028	32.17
726.211	31.94
726.394	31.84
726.577	31.73
726.76	31.86
726.943	31.75
727.126	31.59
727.309	31.8
727.492	31.23
727.675	30.88
727.858	30.69
728.041	30.76
728.224	30.43
728.407	30.4
728.589	30.57
728.772	30.14
728.955	30.47
729.138	30.89
729.321	30.72
729.503	30.92
729.686	30.85
729.869	31.3
730.052	31.65
730.234	32.09
730.417	32.4
730.6	31.97
730.782	32.22
730.965	32.48
731.148	32.16
731.33	32.49
731.513	32.82
731.695	33.09
731.878	33.38
732.061	33.01
732.243	33.1
732.426	32.45
732.608	33.08
732.791	33.05
732.973	32.45
733.156	32.54
733.338	32.18
733.52	32.25
733.703	32.01
733.885	31.69
734.068	31.54
734.25	31.79
734.432	32.48
734.615	32.44
734.797	32.55
734.979	33.07
735.162	33.49
735.344	33.88
735.526	34.04
735.708	34.35
735.891	35.02
736.073	35.25
736.255	35.42
736.437	35.19
736.619	35.55
736.802	35.42
736.984	35.35
737.166	35.93
737.348	36.04
737.53	36.26
737.712	36.34
737.894	36.27
738.076	36.29
738.258	35.98
738.44	36.23
738.622	36.41
738.804	36.55
738.986	36.71
739.168	36.46
739.35	36.92
739.532	36.73
739.714	37.22
739.896	36.99
740.078	37.25
740.259	37.09
740.441	36.66
740.623	36.58
740.805	36.83
740.987	36.84
741.168	36.94
741.35	36.46
741.532	36.07
741.714	36.02
741.895	36.34
742.077	36.29
742.259	36.99
742.44	37.89
742.622	37.08
742.804	37.85
742.985	38.15
743.167	38.31
743.348	38.65
743.53	38.98
743.711	38.34
743.893	38.81
744.075	39.36
744.256	38.79
744.438	38.12
744.619	39.13
744.8	38.65
744.982	38.71
745.163	39.09
745.345	39.5
745.526	39.54
745.707	40
745.889	39.34
746.07	39.2
746.252	39.36
746.433	39.44
746.614	38.92
746.795	38.54
746.977	38.25
747.158	37.75
747.339	37.5
747.52	37.53
747.702	37.73
747.883	37.94
748.064	37.73
748.245	37.88
748.426	38.04
748.607	38.84
748.788	39.02
748.97	39.35
749.151	39.1
749.332	38.7
749.513	38.4
749.694	38.16
749.875	38.12
750.056	38.06
750.237	38.3
750.418	38.6
750.599	38.17
750.78	38.71
750.96	38.48
751.141	38.88
751.322	39.53
751.503	39.71
751.684	39.97
751.865	40.19
752.046	40.29
752.226	39.71
752.407	39.6
752.588	39.38
752.769	39.15
752.949	39.18
753.13	38.95
753.311	38.66
753.492	39.08
753.672	39.12
753.853	38.77
754.034	39.09
754.214	39.26
754.395	38.99
754.575	39.18
754.756	38.79
754.937	38.75
755.117	38.65
755.298	38.74
755.478	38.6
755.659	38
755.839	38.07
756.02	37.4
756.2	37.74
756.381	37.66
756.561	37.45
756.741	37.97
756.922	38
757.102	38.12
757.283	37.41
757.463	36.95
757.643	37.43
757.823	37.1
758.004	36.85
758.184	36.29
758.364	36.08
758.545	35.2
758.725	34.63
758.905	33.72
759.085	33.32
759.265	33.34
759.446	33.3
759.626	32.57
759.806	32.54
759.986	32.31
760.166	31.78
760.346	31.28
760.526	31.53
760.706	30.85
760.886	31.41
761.066	31.27
761.246	31.43
761.426	31.41
761.606	31.4
761.786	31.15
761.966	30.94
762.146	30.06
762.326	29.91
762.506	29.58
762.686	29.92
762.866	29.21
763.046	28.79
763.225	28.57
763.405	28.35
763.585	28.19
763.765	28.38
763.945	28.3
764.124	29.01
764.304	29.44
764.484	29.77
764.664	30.22
764.843	30.6
765.023	31.25
765.203	31.53
765.382	31.71
765.562	32.3
765.741	32.43
765.921	33.24
766.101	33.77
766.28	34.24
766.46	34.48
766.639	34.5
766.819	35.19
766.998	35.45
767.178	35.83
767.357	36.33
767.537	36.43
767.716	37.29
767.896	37.62
768.075	37.63
768.254	37.7
768.434	38.22
768.613	38.75
768.792	39.07
768.972	39.47
769.151	39.55
769.33	39.9
769.51	40.14
769.689	39.86
769.868	39.98
770.047	40.76
770.226	40.61
770.406	40.76
770.585	41.28
770.764	41.23
770.943	41.15
771.122	41.13
771.301	41.1
771.48	41.32
771.66	41.32
771.839	41.55
772.018	41.28
772.197	41.36
772.376	41.14
772.555	40.34
772.734	39.87
772.913	39.86
773.092	40.67
773.271	40.67
773.449	41.03
773.628	41.32
773.807	41.35
773.986	41.22
774.165	41.82
774.344	42.29
774.523	43.25
774.701	43.43
774.88	43.94
775.059	43.75
775.238	43.67
775.417	43.64
775.595	43.88
775.774	43.96
775.953	44.02
776.131	43.61
776.31	43.98
776.489	43.66
776.667	44.52
776.846	43.98
777.025	43.52
777.203	44.18
777.382	43.99
777.56	43.53
777.739	43.45
777.917	43.15
778.096	42.97
778.274	42.7
778.453	41.99
778.631	41.88
778.81	41.65
778.988	41.35
779.166	40.74
779.345	41.42
779.523	41.14
779.702	41.04
779.88	40.9
780.058	41.6
780.237	41.39
780.415	41.67
780.593	41.35
780.771	42.36
780.95	42.99
781.128	43.15
781.306	42.27
781.484	42.71
781.662	42.3
781.841	43.08
782.019	42.76
782.197	41.82
782.375	41.04
782.553	41.52
782.731	41.14
782.909	41.27
783.087	40.96
783.265	41.05
783.443	40.77
783.621	41.11
783.799	40.33
783.977	40.34
784.155	41.5
784.333	42.66
784.511	42.65
784.689	42.24
784.867	42.05
785.045	42.26
785.223	41.66
785.4	41.95
785.578	42.14
785.756	43.07
785.934	42.76
786.112	42.32
786.289	41.57
786.467	41.36
786.645	41.88
786.823	41.33
787	41
787.178	40.95
787.356	40.45
787.533	39.85
787.711	38.99
787.889	39.4
788.066	38.53
788.244	38.43
788.421	37.73
788.599	37.09
788.776	37.96
788.954	37.85
789.131	37.65
789.309	37.65
789.486	37.88
789.664	38.21
789.841	38.05
790.019	39.22
790.196	39.24
790.373	39.4
790.551	39.64
790.728	39.18
790.906	39.71
791.083	42.45
791.26	42.68
791.437	42.87
791.615	43.3
791.792	44.09
791.969	43.84
792.146	44.68
792.324	45.21
792.501	45.73
792.678	45.9
792.855	46.15
793.032	44.3
793.209	45.04
793.387	45.13
793.564	45.5
793.741	44.86
793.918	44.65
794.095	43.49
794.272	43.76
794.449	42.9
794.626	43.02
794.803	42.85
794.98	43.33
795.157	41.98
795.334	41.76
795.511	40.77
795.688	40.75
795.864	41
796.041	41.84
796.218	40.34
796.395	40.15
796.572	38.67
796.749	38.98
796.925	38.03
797.102	39.4
797.279	39.25
797.456	39.12
797.632	39.44
797.809	39.9
797.986	39.61
798.162	40.36
798.339	39.86
798.516	41.08
798.692	40.68
798.869	40.7
799.046	40.04
799.222	40.46
799.399	40.54
799.575	39.97
799.752	39.75
799.928	39.4
800.105	40.98
800.281	41.89
800.458	42.21
800.634	42.27
800.811	42.94
800.987	43.03
801.163	42.83
801.34	43.47
801.516	43.14
801.692	42.61
801.869	43.15
802.045	42.23
802.221	42.15
802.398	41.58
802.574	41.37
802.75	41.41
802.926	41.58
803.103	42.22
803.279	41.82
803.455	41.71
803.631	42.2
803.807	42.82
803.983	42.54
804.16	42.64
804.336	42.47
804.512	42.42
804.688	41.09
804.864	40.84
805.04	40.27
805.216	40.86
805.392	40.68
805.568	40.79
805.744	39.93
805.92	39.71
806.096	39.19
806.272	40.92
806.448	41.77
806.623	42.56
806.799	42.33
806.975	42.72
807.151	41.92
807.327	43.4
807.503	43.52
807.678	43.84
807.854	43.39
808.03	44.21
808.206	42.92
808.381	42.61
808.557	41.9
808.733	41.83
808.908	42.09
809.084	42.6
809.26	41.58
809.435	41.85
809.611	42.98
809.787	43.22
809.962	42.99
810.138	42.96
810.313	42.88
810.489	43.41
810.664	44.07
810.84	44.22
811.015	44.94
811.191	45.66
811.366	45.1
811.542	44.26
811.717	44.53
811.892	44.66
812.068	45.5
812.243	44.79
812.419	45.34
812.594	44.99
812.769	43.87
812.944	43.37
813.12	42.71
813.295	43.35
813.47	42.94
813.645	42.53
813.821	41.79
813.996	40.76
814.171	42.49
814.346	42.72
814.521	42.59
814.697	42.67
814.872	42.73
815.047	43.44
815.222	41.76
815.397	41.34
815.572	41.27
815.747	41.24
815.922	41.34
816.097	41
816.272	39.99
816.447	41.03
816.622	41.8
816.797	41.27
816.972	40.1
817.147	41.02
817.322	40.84
817.496	40.56
817.671	40.69
817.846	41.27
818.021	40.61
818.196	40
818.371	38.54
818.545	38.12
818.72	37.9
818.895	38.79
819.069	37.05
819.244	36.62
819.419	36.16
819.594	35.92
819.768	34.27
819.943	33.12
820.117	33.1
820.292	32.46
820.467	30.93
820.641	30.34
820.816	28.71
820.99	28.55
821.165	27.39
821.339	26.54
821.514	25.91
821.688	25.61
821.863	25.19
822.037	24.46
822.212	23.78
822.386	23.63
822.56	23.25
822.735	23.27
822.909	23.32
823.084	23.61
823.258	23.8
823.432	23.71
823.606	23.79
823.781	23.75
823.955	23.99
824.129	24.43
824.303	24.82
824.478	24.79
824.652	25.08
824.826	25.01
825	25.01
825.174	25.18
825.348	25.78
825.523	26
825.697	26.74
825.871	27.34
826.045	27.42
826.219	27.29
826.393	28.07
826.567	27.91
826.741	28.41
826.915	28.41
827.089	28.24
827.263	27.74
827.437	27.49
827.611	27.43
827.784	27.05
827.958	27.3
828.132	27.11
828.306	27.09
828.48	27.1
828.654	27.09
828.827	27.94
829.001	28.57
829.175	29.79
829.349	31.21
829.522	31.28
829.696	32.78
829.87	33.42
830.044	35.2
830.217	35.55
830.391	35.98
830.565	35.73
830.738	35.92
830.912	36.22
831.085	36.42
831.259	36.66
831.432	37.38
831.606	37
831.779	37.35
831.953	36.75
832.126	35.89
832.3	36.31
832.473	35.88
832.647	34.88
832.82	34.48
832.994	33.89
833.167	33.64
833.34	32.84
833.514	32.36
833.687	31.7
833.86	31.13
834.034	31.41
834.207	31.23
834.38	31.58
834.553	31.72
834.727	31.8
834.9	32.2
835.073	31.99
835.246	32.19
835.419	32.14
835.593	32.52
835.766	32.7
835.939	33.24
836.112	33.74
836.285	34.36
836.458	35.73
836.631	36.4
836.804	36.69
836.977	37.9
837.15	39.28
837.323	40.61
837.496	41.91
837.669	43.8
837.842	44.86
838.015	45.53
838.188	46.39
838.361	46.1
838.533	46.02
838.706	46.26
838.879	45.76
839.052	46.13
839.225	45.83
839.398	45.15
839.57	44.68
839.743	43.45
839.916	43.25
840.088	43.1
840.261	43.3
840.434	44.51
840.607	44.28
840.779	43.87
840.952	43.15
841.124	44.18
841.297	45.21
841.47	45.22
841.642	45.71
841.815	47.08
841.987	48.26
842.16	48.1
842.332	47.88
842.505	49.08
842.677	48.59
842.85	50.34
843.022	50.43
843.194	51.25
843.367	52.27
843.539	53.49
843.712	52.05
843.884	52.35
844.056	52.02
844.229	52.17
844.401	51.69
844.573	54.92
844.745	53.81
844.918	53.8
845.09	52.36
845.262	52.41
845.434	53.86
845.606	56.5
845.779	55.49
845.951	55.56
846.123	54.45
846.295	54.09
846.467	51.62
846.639	53.69
846.811	53.83
846.983	54.69
847.155	54
847.327	54.09
847.499	52.48
847.671	52.44
847.843	53.48
848.015	54.98
848.187	56.66
848.359	57.69
848.531	57.37
848.703	56.65
848.875	57.5
849.047	58.41
849.218	59.11
849.39	59.95
849.562	59.33
849.734	59.38
849.905	59.09
850.077	56.44
850.249	56.05
850.421	54.51
850.592	56.17
850.764	56.55
850.936	57.36
851.107	56.62
851.279	56.77
851.451	56.08
851.622	55.33
851.794	56.15
851.965	58.95
852.137	60.83
852.308	62.55
852.48	61.98
852.651	61.72
852.823	60.59
852.994	59.66
853.166	58.13
853.337	59.4
853.509	60.22
853.68	58.08
853.851	56.49
854.023	55.31
854.194	53.93
854.365	53.88
854.537	54.72
854.708	53.79
854.879	55.51
855.05	57.65
855.222	58.6
855.393	59.42
855.564	62.73
855.735	63.72
855.906	62.57
856.078	63.2
856.249	60.35
856.42	60.18
856.591	61.88
856.762	59.45
856.933	57.22
857.104	55.58
857.275	55.54
857.446	53.8
857.617	53.41
857.788	54.57
857.959	55.75
858.13	56.13
858.301	54.65
858.472	53.66
858.643	54
858.814	55.51
858.985	54.74
859.155	55.56
859.326	56.31
859.497	55.33
859.668	55.42
859.839	52.45
860.009	54.49
860.18	53.93
860.351	54.37
860.522	55.32
860.692	56.25
860.863	58.09
861.034	57.13
861.204	59.08
861.375	61.83
861.546	63.27
861.716	67.78
861.887	69
862.057	71.56
862.228	71
862.398	68.65
862.569	66.27
862.739	67.06
862.91	67.89
863.08	64.87
863.251	61.38
863.421	59.37
863.592	57.77
863.762	55.87
863.932	54.22
864.103	52.37
864.273	53.4
864.443	55.05
864.614	53.87
864.784	53.5
864.954	53.89
865.125	54.89
865.295	56.64
865.465	56.51
865.635	55.17
865.805	56.27
865.976	58.92
866.146	60.82
866.316	60.67
866.486	62.1
866.656	61.57
866.826	62.16
866.996	63.6
867.166	62.71
867.336	64.18
867.506	65.42
867.676	65.89
867.846	65.77
868.016	65.48
868.186	64.98
868.356	63.33
868.526	62.34
868.696	62.09
868.866	62.37
869.036	60.44
869.206	58.49
869.376	60.42
869.545	59.02
869.715	60.6
869.885	59.2
870.055	59.35
870.224	58.65
870.394	61.18
870.564	63.53
870.734	64.4
870.903	64.64
871.073	64.04
871.243	62.77
871.412	62.22
871.582	59.84
871.751	60.34
871.921	60.86
872.091	63.32
872.26	59.2
872.43	57.89
872.599	55.2
872.769	55.6
872.938	55.94
873.108	56.67
873.277	57.31
873.446	55.83
873.616	56.43
873.785	55.89
873.955	55.87
874.124	56.9
874.293	54.56
874.463	55.45
874.632	55.26
874.801	54.49
874.971	53.54
875.14	51.88
875.309	53.02
875.478	52.32
875.647	51.38
875.817	51.4
875.986	52.64
876.155	55.28
876.324	54.47
876.493	55.25
876.662	56.03
876.831	56.5
877	57.63
877.17	56.41
877.339	55.4
877.508	56.82
877.677	54.6
877.846	55.42
878.015	53.06
878.184	52.06
878.352	51.61
878.521	50.95
878.69	49.74
878.859	48.96
879.028	49.11
879.197	49.41
879.366	47.26
879.534	46.97
879.703	44.61
879.872	43.58
880.041	42.52
880.21	40.91
880.378	39.96
880.547	38.38
880.716	37.48
880.884	35.39
881.053	33.11
881.222	32.09
881.39	30.42
881.559	29.37
881.727	28.14
881.896	27.86
882.065	27.43
882.233	26.58
882.402	26.09
882.57	26.05
882.739	26.28
882.907	26.61
883.076	26.95
883.244	27.26
883.412	27.26
883.581	28.39
883.749	28.55
883.918	28.87
884.086	29.53
884.254	29.83
884.423	29.89
884.591	30.47
884.759	30.41
884.927	30.45
885.096	30.1
885.264	31.23
885.432	31.36
885.6	31.36
885.769	31.61
885.937	33.06
886.105	33.96
886.273	35.88
886.441	38.29
886.609	40.69
886.777	41.88
886.945	44.42
887.113	45.27
887.281	46.79
887.449	48.32
887.617	48.31
887.785	49.23
887.953	50.23
888.121	52.24
888.289	50.59
888.457	51.05
888.625	51.4
888.793	51.9
888.961	52.96
889.129	52
889.296	53.26
889.464	55.04
889.632	54.1
889.8	55.87
889.967	52.43
890.135	53.22
