Data from 2938817__Reflection_03.txt Node
Date: Thu Mar 12 15:08:54 EDT 2015
User: robert
Spectrometer: USB4E03002
Autoset integration time: false
Trigger mode: 4
Integration Time (sec): 1.000000E-1
Scans to average: 10
Electric dark correction enabled: false
Nonlinearity correction enabled: false
Boxcar width: 5
Stray light correction enabled: false
XAxis mode: Wavelengths
Stop averaging: false
Number of Pixels in Spectrum: 3648
>>>>>Begin Spectral Data<<<<<
177.575	-385.71
177.794	-361.54
178.014	-192.74
178.233	-987.1
178.452	587.18
178.672	-1380.65
178.891	-274.87
179.11	-272.54
179.33	-339.76
179.549	-385.14
179.768	-3068.18
179.987	-1825
180.207	-243.03
180.426	837.5
180.645	-579.38
180.864	-388.98
181.084	943.75
181.303	274.86
181.522	1596.87
181.741	0
181.96	11075
182.179	-2074.07
182.398	-1316
182.618	685.26
182.837	-777.03
183.056	-984.75
183.275	-995.08
183.494	-1927.27
183.713	1326.23
183.932	522.76
184.151	577.18
184.37	240.05
184.589	180.19
184.808	138.48
185.027	140.62
185.246	141.52
185.465	115.46
185.684	138.16
185.903	146.6
186.122	163.33
186.341	174.9
186.56	195.38
186.779	240.08
186.998	337.57
187.216	354.09
187.435	518.94
187.654	439.25
187.873	612.63
188.092	489.45
188.311	350
188.53	277.08
188.748	238.55
188.967	245.7
189.186	395.56
189.405	220.46
189.623	206.68
189.842	183.97
190.061	170.03
190.28	168.17
190.498	172.33
190.717	359.64
190.936	499.17
191.154	302.23
191.373	190
191.592	294.02
191.81	-12266.67
192.029	-141.91
192.248	-130.29
192.466	-75.47
192.685	-130.9
192.904	-76.84
193.122	6.6
193.341	3.47
193.559	-9.51
193.778	-16.56
193.996	-353.85
194.215	523.68
194.433	203.77
194.652	114.63
194.87	112.38
195.089	125.68
195.307	178.19
195.526	179.56
195.744	153.81
195.963	151.15
196.181	161.78
196.399	184.31
196.618	173.14
196.836	192.29
197.055	376.29
197.273	298.1
197.491	258.29
197.71	145.43
197.928	131.12
198.146	152.57
198.365	208.4
198.583	245.14
198.801	258.58
199.019	343.62
199.238	249.87
199.456	169.23
199.674	202.39
199.892	198.55
200.111	296.95
200.329	216.9
200.547	169.35
200.765	156.79
200.983	159.35
201.202	145.56
201.42	123.48
201.638	132.95
201.856	143.97
202.074	122.91
202.292	126.78
202.51	187.97
202.728	243.49
202.946	313.72
203.165	212.14
203.383	181.27
203.601	219.29
203.819	357.67
204.037	333.33
204.255	247.18
204.473	282.33
204.691	1040.91
204.909	223.48
205.127	244.17
205.345	207.49
205.562	171.13
205.78	181.43
205.998	143.82
206.216	116.93
206.434	98.38
206.652	101.07
206.87	115.63
207.088	115.68
207.306	108.8
207.523	87.76
207.741	84.12
207.959	89.61
208.177	89.04
208.395	98.68
208.612	111.75
208.83	152.25
209.048	186.46
209.266	177.07
209.483	112.39
209.701	118.61
209.919	150.74
210.136	173.47
210.354	172.15
210.572	160.71
210.79	131.46
211.007	142.29
211.225	110.73
211.442	96.48
211.66	74.9
211.878	79.79
212.095	71.15
212.313	75.24
212.53	75.5
212.748	55.2
212.966	51.41
213.183	62.94
213.401	52.49
213.618	50.11
213.836	52.58
214.053	64.35
214.271	70.43
214.488	95.72
214.705	83.97
214.923	87.24
215.14	86.16
215.358	81.96
215.575	93.6
215.793	89.25
216.01	93.92
216.227	88.74
216.445	82.9
216.662	76.47
216.879	70.86
217.097	73.11
217.314	71.02
217.531	78.39
217.749	69.56
217.966	51.36
218.183	56.77
218.4	52.66
218.618	55.98
218.835	56.42
219.052	63.38
219.269	55.64
219.487	50.57
219.704	44.74
219.921	37.38
220.138	47.44
220.355	49.19
220.572	49.46
220.79	40.1
221.007	38.88
221.224	45.09
221.441	39.92
221.658	29.9
221.875	26.12
222.092	24.16
222.309	32.63
222.526	26.94
222.743	27.7
222.96	22.68
223.177	31.67
223.394	24.77
223.611	19.48
223.828	22.98
224.045	24.27
224.262	26.86
224.479	25.65
224.696	18.98
224.913	22.32
225.13	16.21
225.347	13.85
225.564	14.2
225.781	14.48
225.997	13.39
226.214	7.57
226.431	12.16
226.648	9.71
226.865	9.97
227.082	10.95
227.298	8.12
227.515	9.53
227.732	10.2
227.949	8.02
228.165	7.9
228.382	7.86
228.599	8.08
228.816	6.19
229.032	5.75
229.249	5.56
229.466	4.59
229.682	4.58
229.899	4.87
230.116	4.49
230.332	5.18
230.549	5.37
230.765	4.75
230.982	4.94
231.199	4.99
231.415	6.77
231.632	5.36
231.848	6.55
232.065	6.91
232.281	8.39
232.498	6.96
232.714	7.66
232.931	7.52
233.147	9.41
233.364	8.3
233.58	8.86
233.797	7.11
234.013	9.12
234.23	8.84
234.446	9.15
234.662	6.67
234.879	6.83
235.095	4.49
235.312	4.89
235.528	4.85
235.744	5.16
235.961	5.54
236.177	7.45
236.393	7.58
236.61	6.19
236.826	7.92
237.042	8.8
237.258	9.72
237.475	11.56
237.691	10.5
237.907	10.87
238.123	10.66
238.339	11.43
238.556	10.88
238.772	9.44
238.988	11.31
239.204	9.64
239.42	10.81
239.636	10.81
239.853	10.82
240.069	10.5
240.285	9.11
240.501	8.93
240.717	8.69
240.933	8.29
241.149	8.22
241.365	7.68
241.581	8.03
241.797	7.59
242.013	7.1
242.229	6.7
242.445	6.46
242.661	6.46
242.877	6.3
243.093	6
243.309	6.08
243.525	6.06
243.741	5.96
243.957	5.31
244.173	4.48
244.388	4.53
244.604	4.58
244.82	4.39
245.036	4.65
245.252	5.2
245.468	5.03
245.683	5.11
245.899	4.96
246.115	5.1
246.331	4.73
246.547	4.76
246.762	4.91
246.978	4.86
247.194	5.09
247.409	5.13
247.625	5
247.841	4.76
248.057	4.27
248.272	4.2
248.488	3.86
248.703	3.97
248.919	4.23
249.135	4.08
249.35	3.54
249.566	3.78
249.782	3.49
249.997	3.03
250.213	3.43
250.428	4
250.644	4.17
250.859	3.65
251.075	4.5
251.29	4.47
251.506	4.44
251.721	5.28
251.937	5.66
252.152	5.44
252.368	5.79
252.583	6.02
252.798	6.15
253.014	6.45
253.229	7.03
253.445	7.09
253.66	7.18
253.875	7.14
254.091	6.48
254.306	4.93
254.521	5.06
254.737	5.94
254.952	5.52
255.167	4.38
255.383	3.42
255.598	3.15
255.813	2.15
256.028	1.25
256.244	2.3
256.459	3.34
256.674	4.15
256.889	3.69
257.104	2.78
257.32	3.46
257.535	4.08
257.75	4.76
257.965	4.82
258.18	4.79
258.395	4.81
258.61	4.34
258.826	4.19
259.041	3.94
259.256	4.22
259.471	4.03
259.686	3.79
259.901	3.77
260.116	3.71
260.331	3.62
260.546	3.8
260.761	4.03
260.976	4.12
261.191	4.22
261.406	4.25
261.621	3.66
261.836	3.87
262.05	3.77
262.265	3.89
262.48	3.84
262.695	4.48
262.91	4.28
263.125	3.85
263.34	3.9
263.555	3.83
263.769	4
263.984	5.22
264.199	5.44
264.414	5.85
264.629	6.18
264.843	6.12
265.058	5.87
265.273	5.86
265.488	6.2
265.702	6.22
265.917	5.44
266.132	5.7
266.346	5.41
266.561	4.86
266.776	4.89
266.99	4.42
267.205	4.89
267.42	5
267.634	5.41
267.849	5.19
268.063	4.82
268.278	5
268.492	5.08
268.707	5.05
268.922	5.22
269.136	4.72
269.351	4.91
269.565	4.02
269.78	3.89
269.994	3.24
270.209	3.3
270.423	3.45
270.637	3.47
270.852	2.93
271.066	2.87
271.281	2.85
271.495	3.16
271.709	2.91
271.924	3.18
272.138	2.96
272.353	3
272.567	3.01
272.781	3.42
272.996	3.69
273.21	3.55
273.424	3.59
273.638	3.65
273.853	4.01
274.067	4.56
274.281	4.57
274.495	5.01
274.71	5.02
274.924	4.97
275.138	4.17
275.352	4.07
275.566	4.77
275.781	4.92
275.995	4.98
276.209	4.61
276.423	4.25
276.637	3.85
276.851	3.39
277.065	3.62
277.279	4.03
277.493	4.37
277.707	4.65
277.921	4.33
278.135	3.93
278.349	3.98
278.563	4.3
278.777	4.71
278.991	5.13
279.205	5.46
279.419	5.03
279.633	4.88
279.847	5.09
280.061	4.82
280.275	4.49
280.489	4.15
280.703	4.51
280.917	4.23
281.131	3.49
281.344	3.5
281.558	3.03
281.772	3.1
281.986	2.84
282.2	2.74
282.414	2.77
282.627	3.04
282.841	3.23
283.055	2.68
283.269	2.85
283.482	3.02
283.696	2.88
283.91	2.78
284.123	3
284.337	3.33
284.551	3.24
284.764	3.18
284.978	3.26
285.192	3.58
285.405	3.56
285.619	3.42
285.833	3.59
286.046	3.63
286.26	3.87
286.473	3.72
286.687	3.49
286.9	3.72
287.114	3.82
287.327	3.55
287.541	3.21
287.754	3.37
287.968	3.7
288.181	3.24
288.395	3.2
288.608	3.15
288.822	3.27
289.035	3.16
289.248	2.97
289.462	2.78
289.675	3.09
289.889	3.37
290.102	3.56
290.315	3.37
290.529	3.74
290.742	3.68
290.955	3.58
291.169	3.75
291.382	4.22
291.595	4.31
291.808	4.46
292.022	4.28
292.235	4.06
292.448	4.26
292.661	4.39
292.875	4.67
293.088	4.85
293.301	5.15
293.514	4.85
293.727	4.51
293.94	4.83
294.153	5.09
294.367	5.42
294.58	5.52
294.793	5.39
295.006	5.08
295.219	4.86
295.432	4.92
295.645	4.81
295.858	4.88
296.071	4.93
296.284	4.74
296.497	4.76
296.71	4.61
296.923	4.56
297.136	4.5
297.349	4.63
297.562	4.81
297.775	4.98
297.988	5.03
298.201	5.16
298.414	5.01
298.626	4.92
298.839	4.7
299.052	4.75
299.265	5
299.478	5.15
299.691	5.15
299.903	4.97
300.116	5.08
300.329	5.3
300.542	5.5
300.755	5.96
300.967	5.86
301.18	5.95
301.393	5.92
301.605	5.66
301.818	5.78
302.031	5.82
302.243	6.11
302.456	6.36
302.669	6.22
302.881	5.89
303.094	5.61
303.307	5.9
303.519	5.82
303.732	6.35
303.944	6.86
304.157	6.74
304.37	6.9
304.582	6.96
304.795	6.39
305.007	6.89
305.22	7.07
305.432	7.28
305.645	7.38
305.857	7.67
306.069	7.47
306.282	7.3
306.494	7.47
306.707	7.91
306.919	8.12
307.132	8.52
307.344	8.09
307.556	8.41
307.769	8.61
307.981	8.69
308.193	8.33
308.406	8.38
308.618	8.29
308.83	8.27
309.043	8
309.255	7.78
309.467	8.02
309.679	8.3
309.892	8.15
310.104	7.94
310.316	7.97
310.528	8.05
310.74	7.99
310.953	8.29
311.165	8.26
311.377	8.09
311.589	8.03
311.801	7.78
312.013	7.59
312.225	7.61
312.437	7.54
312.649	7.26
312.862	7.56
313.074	7.62
313.286	7.3
313.498	7.18
313.71	7.26
313.922	7.38
314.134	7.4
314.346	7.32
314.558	7.47
314.77	7.92
314.982	8.25
315.193	8.17
315.405	8.32
315.617	8.49
315.829	8.59
316.041	8.53
316.253	8.44
316.465	8.46
316.677	8.78
316.888	8.92
317.1	8.78
317.312	8.87
317.524	8.72
317.736	8.59
317.947	8.56
318.159	8.45
318.371	8.85
318.583	8.97
318.794	8.97
319.006	9.03
319.218	8.79
319.43	8.88
319.641	8.87
319.853	8.96
320.064	8.88
320.276	9.1
320.488	9.48
320.699	9.43
320.911	9.39
321.123	9.55
321.334	9.68
321.546	10.15
321.757	10.22
321.969	9.84
322.18	10.09
322.392	10.2
322.603	10.32
322.815	10.44
323.026	10.7
323.238	10.97
323.449	11.22
323.661	10.66
323.872	10.39
324.083	10.58
324.295	11.03
324.506	11.13
324.718	11
324.929	11.1
325.14	11.19
325.352	10.84
325.563	10.87
325.774	11.1
325.986	11.47
326.197	11.83
326.408	11.54
326.62	11.75
326.831	11.68
327.042	12.03
327.253	12.07
327.464	12.08
327.676	12.49
327.887	13.13
328.098	12.64
328.309	13.14
328.52	12.94
328.732	13.45
328.943	13.57
329.154	13.82
329.365	14.21
329.576	14.36
329.787	14.69
329.998	14.84
330.209	14.3
330.42	14.83
330.631	14.8
330.842	15.48
331.053	15.46
331.264	15.24
331.475	15.58
331.686	15.85
331.897	16.29
332.108	16.19
332.319	16.19
332.53	16.43
332.741	16.35
332.952	16.59
333.163	16.12
333.374	16.27
333.585	16.44
333.795	16.32
334.006	15.83
334.217	15.83
334.428	15.96
334.639	16.16
334.849	16.33
335.06	16.37
335.271	16.3
335.482	16.43
335.692	16.51
335.903	16.72
336.114	16.63
336.325	16.82
336.535	16.6
336.746	16.76
336.957	16.69
337.167	17.01
337.378	17.54
337.589	17.45
337.799	17.73
338.01	17.54
338.22	17.8
338.431	18.1
338.642	18.49
338.852	18.41
339.063	18.3
339.273	18.12
339.484	17.57
339.694	17.18
339.905	17.38
340.115	17.25
340.326	17.4
340.536	17.19
340.746	17.1
340.957	16.55
341.167	17.05
341.378	17.03
341.588	17.18
341.799	17.2
342.009	17.19
342.219	17.15
342.43	17.66
342.64	17.57
342.85	17.45
343.061	17.08
343.271	17.47
343.481	16.94
343.691	16.99
343.902	17.29
344.112	17.61
344.322	17.67
344.532	17.69
344.743	17.13
344.953	17.32
345.163	17.34
345.373	17.7
345.583	17.37
345.793	17.5
346.004	17.52
346.214	17.4
346.424	17.42
346.634	17.42
346.844	17.37
347.054	17.38
347.264	17.36
347.474	17.41
347.684	17.47
347.894	17.44
348.104	17.48
348.314	16.99
348.524	16.9
348.734	16.85
348.944	16.87
349.154	16.45
349.364	16.66
349.574	16.74
349.784	16.82
349.994	16.89
350.204	17.14
350.413	17.18
350.623	17.52
350.833	17.46
351.043	17
351.253	16.96
351.463	17.68
351.672	17.72
351.882	17.29
352.092	16.83
352.302	16.68
352.511	16.69
352.721	16.74
352.931	16.66
353.141	16.59
353.35	16.78
353.56	16.71
353.77	16.19
353.979	15.93
354.189	16.2
354.399	16.43
354.608	16.46
354.818	16.22
355.027	15.97
355.237	16.11
355.447	15.95
355.656	15.7
355.866	15.53
356.075	15.58
356.285	15.71
356.494	15.51
356.704	15.3
356.913	15.21
357.123	15.31
357.332	15.39
357.542	15.49
357.751	15.74
357.96	15.97
358.17	16.04
358.379	16.1
358.589	16.08
358.798	16.16
359.007	16.41
359.217	16.28
359.426	16.26
359.635	16.35
359.845	16.15
360.054	16.06
360.263	16.03
360.472	16.03
360.682	15.85
360.891	15.84
361.1	15.77
361.309	15.66
361.519	15.77
361.728	15.6
361.937	15.35
362.146	15.26
362.355	15.31
362.564	15.27
362.774	15.36
362.983	15.29
363.192	15.21
363.401	14.96
363.61	14.97
363.819	15.06
364.028	15.34
364.237	15.53
364.446	15.67
364.655	15.47
364.864	15.34
365.073	15.16
365.282	15.48
365.491	15.21
365.7	15.43
365.909	15.61
366.118	15.41
366.327	15.21
366.536	14.82
366.745	14.85
366.954	14.9
367.162	14.91
367.371	15
367.58	14.88
367.789	15.04
367.998	14.93
368.207	14.86
368.415	14.87
368.624	15.04
368.833	15.47
369.042	15.43
369.25	15.39
369.459	15.48
369.668	15.54
369.877	15.46
370.085	15.48
370.294	15.38
370.503	15.33
370.711	15.34
370.92	15.11
371.129	14.92
371.337	14.77
371.546	14.87
371.754	14.86
371.963	14.63
372.171	14.68
372.38	14.56
372.589	14.7
372.797	14.71
373.006	14.5
373.214	14.66
373.423	14.78
373.631	14.91
373.84	14.79
374.048	14.85
374.256	14.8
374.465	14.58
374.673	14.76
374.882	14.73
375.09	14.54
375.298	14.5
375.507	14.62
375.715	14.53
375.923	14.3
376.132	14.26
376.34	14.17
376.548	14.1
376.757	14.22
376.965	14.31
377.173	14.22
377.381	14.31
377.59	14.45
377.798	14.12
378.006	13.99
378.214	14.1
378.423	14.16
378.631	14.14
378.839	14.24
379.047	13.98
379.255	13.97
379.463	14.07
379.671	14.03
379.879	14.14
380.088	14.27
380.296	14.35
380.504	14.42
380.712	14.26
380.92	14.13
381.128	14.01
381.336	14.35
381.544	14.29
381.752	14.25
381.96	14.26
382.168	14.23
382.376	14.24
382.584	14.12
382.791	14.12
382.999	14.14
383.207	14.31
383.415	14.6
383.623	14.39
383.831	14.21
384.039	14.36
384.247	14.3
384.454	14.19
384.662	14.08
384.87	14.39
385.078	14.21
385.285	14.4
385.493	14.02
385.701	14.03
385.909	14.15
386.116	14.33
386.324	14.04
386.532	14.16
386.739	14.2
386.947	14.27
387.155	14.04
387.362	14.13
387.57	14.13
387.778	14.36
387.985	14.31
388.193	14.27
388.4	14.17
388.608	14.32
388.816	14.29
389.023	14.3
389.231	14.18
389.438	14.14
389.646	14.18
389.853	14.02
390.061	14.01
390.268	13.76
390.475	13.66
390.683	13.56
390.89	13.63
391.098	13.58
391.305	13.54
391.512	13.67
391.72	13.8
391.927	13.78
392.135	13.72
392.342	13.75
392.549	13.96
392.756	14.11
392.964	14.11
393.171	14.1
393.378	14.05
393.586	13.99
393.793	13.93
394	13.9
394.207	13.85
394.414	13.86
394.622	13.77
394.829	13.81
395.036	13.78
395.243	13.83
395.45	13.83
395.657	13.75
395.864	13.86
396.072	13.61
396.279	13.59
396.486	13.55
396.693	13.66
396.9	13.61
397.107	13.36
397.314	13.65
397.521	13.77
397.728	13.59
397.935	13.68
398.142	13.57
398.349	13.75
398.556	13.69
398.763	13.93
398.97	13.82
399.177	13.96
399.383	14.06
399.59	13.86
399.797	13.69
400.004	13.73
400.211	13.57
400.418	13.68
400.625	13.89
400.831	13.99
401.038	13.74
401.245	13.73
401.452	13.66
401.658	13.77
401.865	13.51
402.072	13.47
402.279	13.61
402.485	13.8
402.692	13.69
402.899	13.62
403.105	13.73
403.312	13.76
403.519	13.78
403.725	13.97
403.932	13.87
404.138	13.88
404.345	13.89
404.552	13.72
404.758	13.73
404.965	13.78
405.171	13.75
405.378	13.56
405.584	13.74
405.791	13.8
405.997	13.65
406.204	13.51
406.41	13.54
406.617	13.72
406.823	13.75
407.029	13.57
407.236	13.51
407.442	13.43
407.649	13.41
407.855	13.11
408.061	12.97
408.268	12.97
408.474	13.01
408.68	13.21
408.887	13.07
409.093	13.22
409.299	13.29
409.505	13.15
409.712	13.14
409.918	13.18
410.124	13.26
410.33	13.21
410.537	13.19
410.743	13.17
410.949	13.06
411.155	13.09
411.361	13.01
411.567	13.08
411.773	13.16
411.98	13.06
412.186	12.97
412.392	12.93
412.598	13.09
412.804	13.23
413.01	13.33
413.216	13.32
413.422	13.3
413.628	13.26
413.834	13.31
414.04	13.33
414.246	13.31
414.452	13.38
414.658	13.47
414.864	13.53
415.07	13.46
415.275	13.5
415.481	13.51
415.687	13.56
415.893	13.63
416.099	13.58
416.305	13.57
416.511	13.62
416.716	13.63
416.922	13.58
417.128	13.53
417.334	13.52
417.539	13.36
417.745	13.36
417.951	13.16
418.157	13.1
418.362	12.99
418.568	12.95
418.774	12.93
418.979	12.93
419.185	12.85
419.391	12.76
419.596	12.69
419.802	12.73
420.008	12.67
420.213	12.15
420.419	12.18
420.624	12.31
420.83	12.38
421.035	12.39
421.241	12.38
421.446	12.4
421.652	12.42
421.857	12.4
422.063	12.45
422.268	12.51
422.474	13.11
422.679	13.03
422.885	12.96
423.09	12.89
423.295	12.88
423.501	12.89
423.706	13.02
423.911	13.06
424.117	13.13
424.322	13.12
424.527	13.06
424.733	13
424.938	13.07
425.143	13.12
425.349	13.18
425.554	13.11
425.759	13.12
425.964	13.09
426.169	13.03
426.375	13
426.58	13
426.785	12.98
426.99	13.07
427.195	13.04
427.4	13
427.605	12.98
427.811	13.15
428.016	13.03
428.221	12.94
428.426	13
428.631	13.09
428.836	13
429.041	13.09
429.246	13.11
429.451	13.11
429.656	13.17
429.861	13.06
430.066	13.17
430.271	13.19
430.476	13.14
430.681	13.17
430.886	13.1
431.09	13.2
431.295	13.21
431.5	13.09
431.705	13.23
431.91	13.12
432.115	13.25
432.32	13.15
432.524	13.18
432.729	13.26
432.934	13.23
433.139	13.26
433.343	13.26
433.548	13.32
433.753	13.38
433.958	13.42
434.162	13.41
434.367	13.38
434.572	13.46
434.776	13.39
434.981	13.3
435.186	13.26
435.39	13.18
435.595	13.15
435.799	13.07
436.004	13.11
436.209	13.04
436.413	13.15
436.618	13.21
436.822	13.15
437.027	13.25
437.231	13.37
437.436	13.38
437.64	13.48
437.845	13.63
438.049	13.72
438.253	13.65
438.458	13.56
438.662	13.53
438.867	13.48
439.071	13.39
439.275	13.41
439.48	13.32
439.684	13.39
439.888	13.42
440.093	13.34
440.297	13.27
440.501	13.37
440.706	13.41
440.91	13.43
441.114	13.36
441.318	13.39
441.523	13.48
441.727	13.58
441.931	13.52
442.135	13.39
442.339	13.36
442.543	13.39
442.748	13.24
442.952	13.25
443.156	13.22
443.36	13.35
443.564	13.41
443.768	13.31
443.972	13.28
444.176	13.3
444.38	13.27
444.584	13.33
444.788	13.31
444.992	13.35
445.196	13.32
445.4	13.34
445.604	13.28
445.808	13.24
446.012	13.21
446.216	13.19
446.42	13.21
446.624	13.27
446.828	13.25
447.032	13.21
447.235	13.16
447.439	13.13
447.643	13.09
447.847	13.12
448.051	13.23
448.254	13.27
448.458	13.26
448.662	13.25
448.866	13.25
449.069	13.3
449.273	13.32
449.477	13.4
449.681	13.42
449.884	13.5
450.088	13.51
450.292	13.4
450.495	13.36
450.699	13.45
450.902	13.43
451.106	13.42
451.31	13.45
451.513	13.43
451.717	13.47
451.92	13.46
452.124	13.45
452.327	13.45
452.531	13.5
452.734	13.51
452.938	13.44
453.141	13.45
453.345	13.43
453.548	13.3
453.752	13.36
453.955	13.28
454.158	13.33
454.362	13.35
454.565	13.3
454.769	13.21
454.972	13.23
455.175	13.26
455.379	13.25
455.582	13.3
455.785	13.22
455.988	13.28
456.192	13.32
456.395	13.28
456.598	13.15
456.801	13.18
457.005	13.23
457.208	13.26
457.411	13.21
457.614	13.19
457.817	13.16
458.021	13.19
458.224	13.22
458.427	13.27
458.63	13.32
458.833	13.4
459.036	13.47
459.239	13.38
459.442	13.31
459.645	13.3
459.848	13.31
460.051	13.4
460.254	13.5
460.457	13.42
460.66	13.4
460.863	13.44
461.066	13.41
461.269	13.31
461.472	13.34
461.675	13.46
461.878	13.55
462.081	13.53
462.284	13.39
462.486	13.25
462.689	13.3
462.892	13.31
463.095	13.28
463.298	13.3
463.5	13.23
463.703	13.33
463.906	13.2
464.109	13.07
464.311	13.14
464.514	13.18
464.717	13.32
464.92	13.29
465.122	13.25
465.325	13.18
465.528	13.09
465.73	13.2
465.933	13.16
466.135	13.23
466.338	13.34
466.541	13.23
466.743	13.18
466.946	13.1
467.148	13.02
467.351	13.1
467.553	13.06
467.756	13.18
467.958	13.19
468.161	13.15
468.363	13.17
468.566	13.1
468.768	13.27
468.971	13.26
469.173	13.3
469.375	13.38
469.578	13.37
469.78	13.41
469.983	13.31
470.185	13.26
470.387	13.35
470.59	13.35
470.792	13.4
470.994	13.4
471.196	13.55
471.399	13.59
471.601	13.59
471.803	13.6
472.005	13.62
472.208	13.63
472.41	13.62
472.612	13.54
472.814	13.59
473.016	13.62
473.218	13.59
473.421	13.49
473.623	13.43
473.825	13.37
474.027	13.28
474.229	13.36
474.431	13.43
474.633	13.49
474.835	13.43
475.037	13.39
475.239	13.36
475.441	13.29
475.643	13.34
475.845	13.42
476.047	13.55
476.249	13.58
476.451	13.54
476.653	13.47
476.855	13.4
477.057	13.43
477.258	13.37
477.46	13.27
477.662	13.32
477.864	13.32
478.066	13.23
478.268	13.13
478.469	13.1
478.671	13.11
478.873	13.22
479.075	13.24
479.276	13.27
479.478	13.3
479.68	13.39
479.882	13.32
480.083	13.28
480.285	13.33
480.487	13.41
480.688	13.4
480.89	13.4
481.091	13.32
481.293	13.32
481.495	13.34
481.696	13.33
481.898	13.3
482.099	13.33
482.301	13.33
482.502	13.31
482.704	13.28
482.905	13.3
483.107	13.28
483.308	13.27
483.51	13.27
483.711	13.25
483.913	13.25
484.114	13.26
484.315	13.27
484.517	13.29
484.718	13.32
484.92	13.33
485.121	13.34
485.322	13.35
485.524	13.37
485.725	13.38
485.926	13.36
486.127	13.4
486.329	13.36
486.53	13.33
486.731	13.3
486.932	13.26
487.134	13.27
487.335	13.24
487.536	13.23
487.737	13.24
487.938	13.24
488.139	13.27
488.341	13.24
488.542	13.28
488.743	13.3
488.944	13.32
489.145	13.34
489.346	13.28
489.547	13.27
489.748	13.27
489.949	13.25
490.15	13.3
490.351	13.33
490.552	13.36
490.753	13.37
490.954	13.38
491.155	13.44
491.356	13.49
491.557	13.54
491.758	13.58
491.959	13.62
492.159	13.62
492.36	13.59
492.561	13.58
492.762	13.63
492.963	13.6
493.164	13.57
493.364	13.54
493.565	13.5
493.766	13.45
493.967	13.48
494.167	13.44
494.368	13.5
494.569	13.47
494.769	13.49
494.97	13.41
495.171	13.5
495.371	13.64
495.572	13.68
495.773	13.63
495.973	13.74
496.174	13.75
496.375	13.79
496.575	13.74
496.776	13.78
496.976	13.84
497.177	13.81
497.377	13.74
497.578	13.7
497.778	13.65
497.979	13.75
498.179	13.78
498.38	13.75
498.58	13.8
498.78	13.9
498.981	13.94
499.181	13.96
499.382	14.06
499.582	14.11
499.782	14.14
499.983	14.13
500.183	14.03
500.383	13.95
500.584	14.01
500.784	14.05
500.984	13.96
501.184	13.89
501.385	13.95
501.585	13.98
501.785	14.01
501.985	14.09
502.185	14.13
502.386	14.16
502.586	14.18
502.786	14.19
502.986	14.16
503.186	14.25
503.386	14.25
503.586	14.14
503.786	14.07
503.987	13.98
504.187	13.93
504.387	13.94
504.587	13.96
504.787	13.97
504.987	13.86
505.187	13.83
505.387	13.8
505.587	13.89
505.786	13.88
505.986	13.89
506.186	13.94
506.386	13.95
506.586	13.9
506.786	13.86
506.986	13.89
507.186	13.97
507.386	13.96
507.585	13.99
507.785	13.96
507.985	13.98
508.185	14
508.384	14.05
508.584	14.04
508.784	14.08
508.984	14.13
509.183	14.14
509.383	14.24
509.583	14.21
509.782	14.08
509.982	14.14
510.182	14.18
510.381	14.24
510.581	14.24
510.781	14.31
510.98	14.31
511.18	14.33
511.379	14.37
511.579	14.3
511.778	14.41
511.978	14.58
512.177	14.61
512.377	14.63
512.576	14.67
512.776	14.71
512.975	14.71
513.175	14.8
513.374	14.85
513.573	14.93
513.773	15.06
513.972	15.09
514.172	15.08
514.371	15.06
514.57	15.08
514.77	15.06
514.969	15.1
515.168	15.13
515.367	15.13
515.567	15.17
515.766	15.1
515.965	15.14
516.164	15.07
516.364	15.11
516.563	15.13
516.762	15.22
516.961	15.24
517.16	15.24
517.359	15.24
517.559	15.25
517.758	15.23
517.957	15.35
518.156	15.35
518.355	15.37
518.554	15.41
518.753	15.43
518.952	15.41
519.151	15.47
519.35	15.54
519.549	15.53
519.748	15.58
519.947	15.66
520.146	15.59
520.345	15.55
520.544	15.61
520.743	15.57
520.942	15.68
521.141	15.77
521.339	15.81
521.538	15.84
521.737	15.87
521.936	15.87
522.135	15.85
522.333	15.87
522.532	15.96
522.731	16
522.93	16.11
523.129	16.16
523.327	16.13
523.526	16.07
523.725	16.08
523.923	16.11
524.122	16.17
524.321	16.24
524.519	16.3
524.718	16.29
524.917	16.23
525.115	16.2
525.314	16.15
525.512	16.13
525.711	16.14
525.909	16.13
526.108	16.21
526.306	16.24
526.505	16.19
526.703	16.23
526.902	16.18
527.1	16.22
527.299	16.24
527.497	16.23
527.696	16.23
527.894	16.24
528.092	16.28
528.291	16.24
528.489	16.25
528.688	16.3
528.886	16.28
529.084	16.36
529.283	16.37
529.481	16.42
529.679	16.51
529.877	16.59
530.076	16.66
530.274	16.71
530.472	16.8
530.67	16.84
530.869	16.9
531.067	16.97
531.265	17
531.463	17.14
531.661	17.11
531.859	17.06
532.057	17.04
532.255	17
532.454	16.97
532.652	16.97
532.85	16.99
533.048	16.96
533.246	16.98
533.444	16.98
533.642	16.98
533.84	17
534.038	17.03
534.236	17.12
534.434	17.21
534.632	17.27
534.83	17.26
535.027	17.31
535.225	17.35
535.423	17.34
535.621	17.32
535.819	17.31
536.017	17.32
536.215	17.32
536.412	17.3
536.61	17.33
536.808	17.36
537.006	17.39
537.203	17.41
537.401	17.5
537.599	17.62
537.797	17.71
537.994	17.7
538.192	17.81
538.39	17.87
538.587	17.94
538.785	17.95
538.983	17.95
539.18	18.07
539.378	18
539.575	17.95
539.773	17.85
539.97	17.84
540.168	17.89
540.366	17.87
540.563	17.91
540.761	17.85
540.958	17.85
541.155	17.9
541.353	17.93
541.55	17.99
541.748	18.04
541.945	18.09
542.143	18.14
542.34	18.17
542.537	18.19
542.735	18.27
542.932	18.4
543.129	18.44
543.327	18.46
543.524	18.48
543.721	18.54
543.919	18.66
544.116	18.74
544.313	18.85
544.51	18.93
544.708	19.1
544.905	19.1
545.102	19.1
545.299	19.19
545.496	19.22
545.693	19.35
545.891	19.36
546.088	19.32
546.285	19.3
546.482	19.24
546.679	19.15
546.876	19.04
547.073	19.02
547.27	19.04
547.467	19.01
547.664	19.02
547.861	18.97
548.058	18.97
548.255	18.94
548.452	19.02
548.649	19.07
548.846	19.22
549.043	19.33
549.24	19.39
549.437	19.38
549.633	19.41
549.83	19.42
550.027	19.36
550.224	19.36
550.421	19.33
550.618	19.26
550.814	19.22
551.011	19.24
551.208	19.15
551.405	19.14
551.601	19.09
551.798	19.04
551.995	19.03
552.191	19
552.388	19.03
552.585	19.05
552.781	19.17
552.978	19.15
553.175	19.14
553.371	19.24
553.568	19.12
553.764	19.25
553.961	19.39
554.157	19.41
554.354	19.46
554.55	19.45
554.747	19.56
554.943	19.43
555.14	19.5
555.336	19.5
555.533	19.39
555.729	19.4
555.926	19.23
556.122	19.31
556.318	19.25
556.515	19.27
556.711	19.19
556.907	19.08
557.104	19.09
557.3	19.05
557.496	18.92
557.693	18.99
557.889	19.16
558.085	19.26
558.281	19.08
558.478	19.06
558.674	19.09
558.87	19.14
559.066	19.12
559.262	19.27
559.459	19.36
559.655	19.47
559.851	19.54
560.047	19.43
560.243	19.46
560.439	19.47
560.635	19.57
560.831	19.51
561.027	19.5
561.223	19.61
561.419	19.5
561.615	19.55
561.811	19.59
562.007	19.44
562.203	19.55
562.399	19.59
562.595	19.61
562.791	19.62
562.987	19.7
563.183	19.75
563.379	19.72
563.575	19.8
563.771	19.64
563.966	19.56
564.162	19.71
564.358	19.64
564.554	19.54
564.75	19.58
564.945	19.63
565.141	19.72
565.337	19.8
565.533	19.67
565.728	19.67
565.924	19.76
566.12	19.8
566.315	19.9
566.511	20.04
566.707	20.19
566.902	20.32
567.098	20.3
567.293	20.26
567.489	20.32
567.684	20.55
567.88	20.6
568.076	20.61
568.271	20.66
568.467	20.58
568.662	20.52
568.858	20.58
569.053	20.45
569.248	20.43
569.444	20.44
569.639	20.39
569.835	20.4
570.03	20.4
570.225	20.3
570.421	20.27
570.616	20.27
570.812	20.38
571.007	20.2
571.202	20.2
571.397	20.2
571.593	20.33
571.788	20.32
571.983	20.25
572.178	20.15
572.374	20.25
572.569	20.29
572.764	20.41
572.959	20.3
573.154	20.47
573.35	20.49
573.545	20.58
573.74	20.48
573.935	20.62
574.13	20.68
574.325	20.86
574.52	20.95
574.715	21.04
574.91	20.98
575.105	21.04
575.3	20.91
575.495	21
575.69	21.07
575.885	21.11
576.08	21.13
576.275	21.22
576.47	21.23
576.665	21.29
576.86	21.38
577.055	21.49
577.25	21.58
577.444	21.71
577.639	21.73
577.834	21.86
578.029	21.83
578.224	21.8
578.418	21.79
578.613	21.85
578.808	21.95
579.003	21.92
579.197	21.97
579.392	22.1
579.587	22.14
579.781	22.21
579.976	22.19
580.171	22.4
580.365	22.44
580.56	22.54
580.755	22.58
580.949	22.52
581.144	22.39
581.338	22.29
581.533	22.23
581.727	22.36
581.922	22.48
582.116	22.42
582.311	22.28
582.505	22.3
582.7	22.32
582.894	22.31
583.089	22.41
583.283	22.59
583.478	22.78
583.672	22.81
583.866	22.74
584.061	22.6
584.255	22.57
584.449	22.68
584.644	22.75
584.838	22.64
585.032	22.62
585.226	22.53
585.421	22.66
585.615	22.51
585.809	22.52
586.003	22.55
586.198	22.8
586.392	22.93
586.586	22.92
586.78	22.98
586.974	23.1
587.168	23.05
587.363	23.08
587.557	22.91
587.751	23.07
587.945	23.1
588.139	23.09
588.333	22.92
588.527	22.93
588.721	22.93
588.915	22.9
589.109	22.91
589.303	22.86
589.497	22.95
589.691	22.94
589.885	22.68
590.079	22.69
590.273	22.85
590.466	23.04
590.66	23
590.854	23.02
591.048	23.03
591.242	22.98
591.436	23.05
591.629	23.12
591.823	23.33
592.017	23.63
592.211	23.53
592.404	23.47
592.598	23.35
592.792	23.46
592.986	23.5
593.179	23.63
593.373	23.69
593.567	23.9
593.76	23.91
593.954	23.94
594.147	23.92
594.341	23.95
594.535	23.84
594.728	23.95
594.922	23.9
595.115	23.89
595.309	23.67
595.502	23.68
595.696	23.66
595.889	23.39
596.083	23.23
596.276	23.14
596.47	23.29
596.663	23.43
596.856	23.27
597.05	23.26
597.243	23.31
597.437	23.34
597.63	23.43
597.823	23.37
598.017	23.55
598.21	23.68
598.403	23.8
598.596	23.93
598.79	23.88
598.983	24.06
599.176	24.11
599.369	24.03
599.563	24.26
599.756	24.22
599.949	24.1
600.142	24.2
600.335	24.18
600.528	24.17
600.722	24.03
600.915	24.14
601.108	24.2
601.301	24.47
601.494	24.57
601.687	24.32
601.88	24.31
602.073	24.27
602.266	24.19
602.459	24.16
602.652	24.11
602.845	23.89
603.038	23.74
603.231	23.59
603.424	23.41
603.617	23.33
603.809	23.44
604.002	23.51
604.195	23.74
604.388	23.77
604.581	23.7
604.774	23.85
604.966	23.97
605.159	24.16
605.352	24.23
605.545	24.21
605.737	24.45
605.93	24.54
606.123	24.53
606.316	24.46
606.508	24.51
606.701	24.72
606.894	24.67
607.086	24.91
607.279	24.87
607.471	24.93
607.664	25.15
607.857	25.1
608.049	25.09
608.242	25.25
608.434	25.63
608.627	25.97
608.819	26.26
609.012	26.8
609.204	27.23
609.397	27.83
609.589	28.45
609.782	28.93
609.974	29.61
610.166	30.44
610.359	31.16
610.551	31.75
610.743	32.25
610.936	32.81
611.128	33.15
611.32	33.45
611.513	33.49
611.705	33.68
611.897	33.89
612.09	33.75
612.282	33.54
612.474	33.22
612.666	32.99
612.858	32.84
613.051	32.59
613.243	32.15
613.435	31.93
613.627	31.76
613.819	31.49
614.011	31.16
614.203	30.87
614.395	30.67
614.588	30.4
614.78	30.15
614.972	29.73
615.164	29.55
615.356	29.37
615.548	29.21
615.74	29.17
615.932	28.92
616.124	28.96
616.315	28.88
616.507	28.69
616.699	28.49
616.891	28.26
617.083	28.2
617.275	27.91
617.467	27.84
617.659	27.67
617.85	27.37
618.042	27.18
618.234	26.73
618.426	26.63
618.618	26.43
618.809	26.44
619.001	26.41
619.193	26.34
619.384	26.47
619.576	26.5
619.768	26.51
619.959	26.58
620.151	26.71
620.343	26.92
620.534	26.95
620.726	27.2
620.917	27.3
621.109	27.48
621.301	27.75
621.492	27.69
621.684	27.76
621.875	27.69
622.067	27.59
622.258	27.61
622.45	27.77
622.641	27.64
622.832	27.55
623.024	27.69
623.215	27.62
623.407	27.46
623.598	27.51
623.789	27.37
623.981	27.42
624.172	27.64
624.363	27.75
624.555	27.53
624.746	27.78
624.937	27.76
625.129	27.72
625.32	27.46
625.511	27.54
625.702	27.58
625.893	27.73
626.085	27.72
626.276	27.76
626.467	27.61
626.658	27.87
626.849	27.77
627.04	27.78
627.231	27.75
627.422	27.93
627.614	27.94
627.805	27.97
627.996	28.2
628.187	28.35
628.378	28.32
628.569	28.57
628.76	28.42
628.951	28.42
629.142	28.62
629.332	28.74
629.523	28.97
629.714	28.96
629.905	29.1
630.096	29.01
630.287	29.01
630.478	29.04
630.669	28.89
630.859	29.1
631.05	29.15
631.241	29.15
631.432	29.12
631.623	29.1
631.813	29.15
632.004	29.01
632.195	28.92
632.385	28.73
632.576	28.82
632.767	28.78
632.957	28.51
633.148	28.51
633.339	28.38
633.529	28.31
633.72	28.1
633.91	28.07
634.101	28.08
634.292	28.02
634.482	27.98
634.673	28.03
634.863	28.06
635.054	27.94
635.244	28.15
635.435	28.06
635.625	28.06
635.815	28.2
636.006	28.09
636.196	28.24
636.387	28.26
636.577	28.34
636.767	28.04
636.958	28.15
637.148	28.39
637.338	28.31
637.529	28.53
637.719	28.58
637.909	28.46
638.099	28.67
638.29	28.7
638.48	28.73
638.67	28.89
638.86	29.17
639.05	28.87
639.241	28.69
639.431	28.76
639.621	28.62
639.811	28.54
640.001	28.59
640.191	28.67
640.381	28.63
640.571	28.54
640.761	28.68
640.951	28.65
641.141	28.96
641.331	29.08
641.521	29.21
641.711	29.3
641.901	29.27
642.091	29.39
642.281	29.1
642.471	29.12
642.661	29.2
642.851	29.29
643.041	29.26
643.231	29.23
643.42	29.34
643.61	28.94
643.8	28.88
643.99	29.09
644.18	29.19
644.369	29.43
644.559	29.35
644.749	29.22
644.939	29.06
645.128	29
645.318	29.06
645.508	29.17
645.697	29.4
645.887	29.41
646.076	29.4
646.266	29.18
646.456	29.16
646.645	29.42
646.835	29.79
647.024	29.71
647.214	29.73
647.403	29.66
647.593	29.64
647.782	29.87
647.972	29.95
648.161	29.99
648.351	30.04
648.54	30.08
648.73	29.81
648.919	29.82
649.108	29.92
649.298	30.16
649.487	30.22
649.677	30.35
649.866	30.04
650.055	30.4
650.244	30.53
650.434	30.59
650.623	30.53
650.812	30.57
651.002	30.41
651.191	30.45
651.38	30.35
651.569	30.36
651.758	30.32
651.947	30.35
652.137	30.12
652.326	30.13
652.515	30.5
652.704	30.3
652.893	30.43
653.082	30.44
653.271	30.24
653.46	30.38
653.649	30.41
653.838	30.24
654.027	30.59
654.216	30.71
654.405	30.68
654.594	30.44
654.783	30.76
654.972	30.84
655.161	31.05
655.35	31.31
655.539	31.16
655.728	31.14
655.916	31.25
656.105	31.14
656.294	30.89
656.483	30.79
656.672	30.6
656.86	30.69
657.049	30.53
657.238	30.51
657.427	30.31
657.615	30.31
657.804	30.2
657.993	30.29
658.181	30.17
658.37	30.13
658.559	30.05
658.747	30.25
658.936	30.12
659.125	30.14
659.313	30.12
659.502	30.34
659.69	30.54
659.879	30.82
660.067	30.79
660.256	31.1
660.444	31.09
660.633	31.26
660.821	31.24
661.01	31.37
661.198	31.32
661.387	31.53
661.575	31.37
661.763	31.25
661.952	31.21
662.14	31.32
662.328	31.26
662.517	31.59
662.705	31.72
662.893	31.64
663.082	31.7
663.27	31.97
663.458	31.77
663.646	31.94
663.834	32.09
664.023	32.26
664.211	32.36
664.399	32.25
664.587	32.25
664.775	32.28
664.963	32.56
665.152	32.65
665.34	32.88
665.528	32.78
665.716	32.71
665.904	32.78
666.092	32.75
666.28	32.59
666.468	32.67
666.656	32.76
666.844	32.9
667.032	32.71
667.22	32.82
667.408	32.59
667.596	32.5
667.784	32.5
667.971	32.12
668.159	32.15
668.347	32.09
668.535	32.17
668.723	32.04
668.911	31.89
669.098	31.96
669.286	31.98
669.474	31.55
669.662	31.73
669.849	31.72
670.037	32.01
670.225	31.92
670.413	31.87
670.6	31.99
670.788	32.22
670.976	32.35
671.163	32.31
671.351	31.95
671.538	32.34
671.726	32.74
671.913	32.75
672.101	33.01
672.289	33.09
672.476	33.28
672.664	33.04
672.851	32.8
673.039	32.85
673.226	32.93
673.413	33.17
673.601	33.24
673.788	32.71
673.976	33.1
674.163	32.89
674.35	32.88
674.538	32.98
674.725	32.97
674.912	33.22
675.1	32.94
675.287	32.93
675.474	32.98
675.662	33.06
675.849	33.27
676.036	33.12
676.223	33.44
676.411	33.71
676.598	33.51
676.785	33.65
676.972	33.6
677.159	33.79
677.346	33.77
677.533	33.75
677.721	33.84
677.908	33.95
678.095	33.71
678.282	33.46
678.469	33.24
678.656	33.38
678.843	33.45
679.03	33.43
679.217	33.29
679.404	33.42
679.591	33.45
679.778	33.45
679.964	33.54
680.151	33.64
680.338	33.7
680.525	33.67
680.712	33.65
680.899	33.44
681.086	33.47
681.272	33.52
681.459	33.28
681.646	33.27
681.833	33.26
682.02	33.16
682.206	33.13
682.393	33.11
682.58	33.1
682.766	33.07
682.953	33.24
683.14	33.33
683.326	33.39
683.513	33.53
683.7	33.53
683.886	33.41
684.073	33.24
684.259	33.29
684.446	33.57
684.632	33.97
684.819	34.07
685.005	33.93
685.192	33.96
685.378	34.38
685.565	34.28
685.751	34.29
685.938	34.56
686.124	35.2
686.31	35.44
686.497	35.28
686.683	34.9
686.87	34.72
687.056	34.64
687.242	34.55
687.429	34.33
687.615	34.66
687.801	34.75
687.987	34.39
688.174	33.92
688.36	33.91
688.546	33.8
688.732	33.75
688.918	34.03
689.105	34.54
689.291	34.36
689.477	34.01
689.663	33.92
689.849	33.75
690.035	34.27
690.221	34.62
690.407	34.54
690.593	34.52
690.779	34.86
690.965	34.68
691.151	34.28
691.337	34.58
691.523	34.79
691.709	34.93
691.895	35.32
692.081	35.3
692.267	35.27
692.453	35.43
692.639	35.42
692.825	35.08
693.011	35.39
693.196	35.83
693.382	35.69
693.568	35.57
693.754	35.22
693.94	35.07
694.125	34.86
694.311	34.59
694.497	34.38
694.682	34.43
694.868	34.56
695.054	34.26
695.239	33.96
695.425	33.97
695.611	33.96
695.796	34.25
695.982	34.16
696.168	33.96
696.353	33.81
696.539	33.81
696.724	33.81
696.91	33.85
697.095	34.11
697.281	34.04
697.466	33.91
697.652	33.98
697.837	33.71
698.023	33.65
698.208	33.57
698.393	33.75
698.579	33.8
698.764	33.59
698.949	33.57
699.135	33.48
699.32	33.34
699.505	33.56
699.691	33.6
699.876	33.91
700.061	33.84
700.246	34.03
700.432	34
700.617	33.91
700.802	34.18
700.987	34.11
701.172	34.47
701.358	34.89
701.543	35.08
701.728	35.25
701.913	35.3
702.098	35.91
702.283	36.08
702.468	36.3
702.653	36.56
702.838	36.44
703.023	36.85
703.208	36.54
703.393	36.53
703.578	36.64
703.763	36.76
703.948	37.07
704.133	36.96
704.318	37.47
704.503	37.35
704.688	37.73
704.873	38.43
705.057	38.65
705.242	38.98
705.427	39.39
705.612	39.37
705.797	39.58
705.981	39.45
706.166	39.61
706.351	39.31
706.536	39.7
706.72	39.75
706.905	40.11
707.09	40.11
707.274	40.12
707.459	39.98
707.644	40.19
707.828	40.02
708.013	40.1
708.197	39.97
708.382	40.36
708.567	40.22
708.751	40.08
708.936	39.45
709.12	39.31
709.305	38.87
709.489	39.34
709.673	38.76
709.858	38.86
710.042	38.64
710.227	38.63
710.411	38.46
710.596	38.59
710.78	38.66
710.964	38.75
711.149	38.59
711.333	38.99
711.517	38.33
711.702	38.81
711.886	38.94
712.07	39.16
712.254	39.04
712.438	38.59
712.623	38.49
712.807	38.03
712.991	37.85
713.175	37.88
713.359	37.6
713.544	37.96
713.728	37.83
713.912	37.89
714.096	37.74
714.28	37.51
714.464	37.79
714.648	37.25
714.832	37.71
715.016	37.78
715.2	37.88
715.384	37.7
715.568	37.11
715.752	36.96
715.936	37.05
716.12	36.98
716.304	36.87
716.488	36.5
716.671	36.83
716.855	36.68
717.039	36.53
717.223	36.14
717.407	36.4
717.59	36.88
717.774	36.47
717.958	36.01
718.142	35.99
718.325	36.39
718.509	36.6
718.693	36.64
718.877	35.88
719.06	35.82
719.244	36.03
719.428	36.21
719.611	36.19
719.795	37.04
719.978	37.17
720.162	37.06
720.345	37.03
720.529	37.39
720.713	37.82
720.896	38.21
721.08	38.81
721.263	39.03
721.446	39.54
721.63	39.27
721.813	38.75
721.997	38.46
722.18	38.62
722.364	38.66
722.547	37.92
722.73	37.45
722.914	37.65
723.097	36.87
723.28	36.77
723.464	36.21
723.647	36.01
723.83	36.19
724.013	36.67
724.197	36.83
724.38	37.08
724.563	37.5
724.746	37.44
724.929	37.62
725.112	38.04
725.296	37.85
725.479	38.1
725.662	38.28
725.845	38.13
726.028	38.37
726.211	38.58
726.394	38.14
726.577	38.39
726.76	38.94
726.943	38.72
727.126	38.34
727.309	38.53
727.492	37.99
727.675	38.3
727.858	38.46
728.041	37.71
728.224	37.61
728.407	37.99
728.589	37.92
728.772	37.51
728.955	37.36
729.138	37.62
729.321	37.37
729.503	37.49
729.686	37.45
729.869	36.99
730.052	36.92
730.234	36.49
730.417	36.19
730.6	35.81
730.782	35.75
730.965	35.8
731.148	35.95
731.33	36.33
731.513	36.38
731.695	35.87
731.878	36.44
732.061	36.87
732.243	36.96
732.426	37.17
732.608	37.42
732.791	37.85
732.973	38.46
733.156	38.46
733.338	38.43
733.52	38.68
733.703	39.25
733.885	39.23
734.068	39.14
734.25	39.26
734.432	38.94
734.615	39.61
734.797	39.58
734.979	39.26
735.162	39.01
735.344	38.97
735.526	38.66
735.708	38.38
735.891	38.84
736.073	38.94
736.255	39.37
736.437	39.38
736.619	38.35
736.802	38.19
736.984	38.57
737.166	39.17
737.348	39.25
737.53	39.64
737.712	39.65
737.894	39.46
738.076	39.39
738.258	39.12
738.44	39.1
738.622	39.58
738.804	39.71
738.986	39.56
739.168	39.35
739.35	39.09
739.532	38.68
739.714	39.07
739.896	38.83
740.078	38.8
740.259	38.7
740.441	39.46
740.623	39.87
740.805	39.55
740.987	39.32
741.168	39.16
741.35	39.08
741.532	39.09
741.714	39.07
741.895	39.49
742.077	39.46
742.259	39.78
742.44	39.47
742.622	38.94
742.804	39.16
742.985	39.59
743.167	39.82
743.348	40.39
743.53	40.52
743.711	40.13
743.893	39.54
744.075	39.24
744.256	39.21
744.438	39.15
744.619	39.65
744.8	38.95
744.982	38.42
745.163	38.54
745.345	38.41
745.526	38.85
745.707	38.88
745.889	38.7
746.07	39.29
746.252	39.51
746.433	39.85
746.614	39.47
746.795	40.18
746.977	40.25
747.158	40.42
747.339	40.65
747.52	40.62
747.702	40.79
747.883	40.88
748.064	40.79
748.245	40.05
748.426	39.82
748.607	39.62
748.788	39.14
748.97	38.69
749.151	38.39
749.332	38.04
749.513	37.56
749.694	37.91
749.875	37.95
750.056	38.22
750.237	38.86
750.418	39.08
750.599	39.51
750.78	40.41
750.96	40.93
751.141	40.83
751.322	40.77
751.503	40.53
751.684	40.18
751.865	39.76
752.046	39.23
752.226	39.5
752.407	39.63
752.588	39.31
752.769	38.9
752.949	38.83
753.13	39.08
753.311	39.14
753.492	39.53
753.672	39.81
753.853	40.42
754.034	40.06
754.214	39.59
754.395	39.21
754.575	40.1
754.756	40.35
754.937	40.43
755.117	40.22
755.298	40.06
755.478	40.48
755.659	40.21
755.839	40.51
756.02	41.02
756.2	40.91
756.381	40.97
756.561	40.18
756.741	40
756.922	40.69
757.102	40.69
757.283	41.47
757.463	40.48
757.643	40.08
757.823	39.31
758.004	39.14
758.184	38.78
758.364	37.82
758.545	37.39
758.725	37.44
758.905	36.17
759.085	35.92
759.265	35.19
759.446	35.04
759.626	35.74
759.806	35.62
759.986	35.68
760.166	35.48
760.346	36.33
760.526	36.49
760.706	35.92
760.886	36.15
761.066	36.02
761.246	35.55
761.426	36.05
761.606	35.17
761.786	35.46
761.966	35.23
762.146	35.79
762.326	35.73
762.506	35.86
762.686	36.01
762.866	36.58
763.046	36.4
763.225	36.97
763.405	36.66
763.585	36.95
763.765	36.94
763.945	37.02
764.124	36.85
764.304	36.75
764.484	36.82
764.664	36.81
764.843	36.53
765.023	36.8
765.203	36.94
765.382	37.42
765.562	37.92
765.741	37.98
765.921	38.03
766.101	38.21
766.28	38.37
766.46	37.99
766.639	38.3
766.819	38.67
766.998	38.86
767.178	38.82
767.357	38.1
767.537	37.33
767.716	38.31
767.896	38.55
768.075	38.69
768.254	38.93
768.434	39.98
768.613	40.45
768.792	40.4
768.972	40.59
769.151	40.1
769.33	41.28
769.51	41.95
769.689	41.42
769.868	41.44
770.047	41.8
770.226	41.65
770.406	40.57
770.585	40.17
770.764	40.88
770.943	41.43
771.122	41.76
771.301	41.14
771.48	40.94
771.66	41.19
771.839	41.19
772.018	41.51
772.197	41.8
772.376	42.86
772.555	42.29
772.734	41.82
772.913	41.57
773.092	41.59
773.271	42.88
773.449	43.42
773.628	43.12
773.807	44.16
773.986	43.13
774.165	43.46
774.344	43.09
774.523	43.68
774.701	42.63
774.88	42.58
775.059	41.96
775.238	41.1
775.417	40.32
775.595	40.19
775.774	39.27
775.953	39.79
776.131	39.26
776.31	38.98
776.489	39.85
776.667	40.73
776.846	41.27
777.025	42.11
777.203	42.32
777.382	42.96
777.56	43.07
777.739	43.43
777.917	43.55
778.096	44.05
778.274	44.49
778.453	44.43
778.631	44.92
778.81	44.45
778.988	44.55
779.166	44.29
779.345	43.59
779.523	43.27
779.702	43.14
779.88	42.72
780.058	42.73
780.237	42.92
780.415	42.97
780.593	42.64
780.771	42.26
780.95	42.42
781.128	42.26
781.306	42.99
781.484	44.04
781.662	44.84
781.841	44.88
782.019	43.92
782.197	44.2
782.375	42.92
782.553	42.34
782.731	42.46
782.909	41.73
783.087	42.8
783.265	41.43
783.443	40.99
783.621	40.17
783.799	40.17
783.977	41.02
784.155	40.23
784.333	41
784.511	41.44
784.689	41.53
784.867	42.53
785.045	42.28
785.223	43.53
785.4	42.61
785.578	43.33
785.756	43.77
785.934	43
786.112	43.24
786.289	42.43
786.467	42.37
786.645	42.15
786.823	41.57
787	41.5
787.178	40.63
787.356	40.95
787.533	40.36
787.711	39.88
787.889	40.08
788.066	39.73
788.244	40.21
788.421	40.18
788.599	40.5
788.776	39.87
788.954	39.64
789.131	40.87
789.309	41.13
789.486	41.21
789.664	41.76
789.841	41.55
790.019	41.14
790.196	41.27
790.373	42.08
790.551	42.09
790.728	42.06
790.906	40.66
791.083	40.42
791.26	40.2
791.437	40.77
791.615	39.6
791.792	40.97
791.969	42.56
792.146	41.96
792.324	40.49
792.501	40.44
792.678	41.32
792.855	42.36
793.032	41.87
793.209	41.87
793.387	41.11
793.564	41.46
793.741	41.75
793.918	39.87
794.095	40.02
794.272	39.95
794.449	38.65
794.626	38.38
794.803	38.7
794.98	38.99
795.157	38.41
795.334	37.97
795.511	38.93
795.688	38.07
795.864	38.45
796.041	38.85
796.218	39.59
796.395	41.38
796.572	42.07
796.749	41.1
796.925	39.86
797.102	41.06
797.279	41.81
797.456	41.44
797.632	41.2
797.809	41.05
797.986	40.99
798.162	41.54
798.339	39.75
798.516	39.47
798.692	40.1
798.869	41.42
799.046	41.23
799.222	40.44
799.399	40.22
799.575	40.71
799.752	41.1
799.928	41.2
800.105	40.56
800.281	40.92
800.458	40.99
800.634	41.96
800.811	40.57
800.987	40.39
801.163	41.96
801.34	42.04
801.516	42
801.692	41.58
801.869	41.35
802.045	41.53
802.221	41.62
802.398	41.37
802.574	40.49
802.75	41.21
802.926	39.91
803.103	38.64
803.279	38.25
803.455	37.24
803.631	37.41
803.807	37.19
803.983	37.48
804.16	37.44
804.336	37
804.512	38.1
804.688	39.15
804.864	38.99
805.04	38.59
805.216	37.79
805.392	38.02
805.568	38.85
805.744	38.09
805.92	37.13
806.096	36.82
806.272	37.02
806.448	35.49
806.623	34.2
806.799	34.75
806.975	35.03
807.151	35.85
807.327	35.43
807.503	35.79
807.678	37.08
807.854	37.69
808.03	38.33
808.206	38.87
808.381	39.71
808.557	40.15
808.733	40.53
808.908	40.42
809.084	41.84
809.26	41.45
809.435	41.29
809.611	41.36
809.787	40.85
809.962	41.89
810.138	41.28
810.313	41.18
810.489	41.85
810.664	42.32
810.84	42.11
811.015	41.1
811.191	41.4
811.366	40.7
811.542	40.25
811.717	41.1
811.892	40.35
812.068	40.06
812.243	38.89
812.419	37.35
812.594	36.3
812.769	37.27
812.944	37.42
813.12	38.45
813.295	37.97
813.47	36.75
813.645	35.8
813.821	34.74
813.996	34.9
814.171	35.91
814.346	36.49
814.521	36.83
814.697	35.49
814.872	34.48
815.047	33.33
815.222	33.74
815.397	34.09
815.572	34.46
815.747	35.45
815.922	35.14
816.097	34.67
816.272	35.3
816.447	35.06
816.622	35.68
816.797	35.37
816.972	35.91
817.147	36.15
817.322	36.41
817.496	35.75
817.671	35.83
817.846	36.24
818.021	35.23
818.196	35.55
818.371	36.11
818.545	35.98
818.72	36.29
818.895	35.98
819.069	35.78
819.244	35.42
819.419	35.91
819.594	35.07
819.768	34.19
819.943	34.81
820.117	33.79
820.292	32.86
820.467	31.69
820.641	31.24
820.816	31.14
820.99	30.33
821.165	30
821.339	29.05
821.514	28.79
821.688	28.63
821.863	28.29
822.037	28.04
822.212	28.09
822.386	28.14
822.56	28.01
822.735	27.87
822.909	28.04
823.084	28.05
823.258	28.36
823.432	28.65
823.606	28.86
823.781	28.88
823.955	29.29
824.129	29.38
824.303	29.91
824.478	30.6
824.652	30.96
824.826	30.68
825	30.84
825.174	30.95
825.348	30.7
825.523	30.26
825.697	31.3
825.871	30.73
826.045	30.37
826.219	29.68
826.393	28.8
826.567	29.01
826.741	29.27
826.915	29.28
827.089	28.95
827.263	29.03
827.437	29.31
827.611	28.29
827.784	28.94
827.958	29.48
828.132	29.72
828.306	30.33
828.48	30.4
828.654	30.89
828.827	31.12
829.001	31.02
829.175	31.44
829.349	32.2
829.522	32.46
829.696	32.53
829.87	33.1
830.044	34.08
830.217	34.55
830.391	34.31
830.565	33.52
830.738	33.45
830.912	34.52
831.085	34.58
831.259	34.05
831.432	35.52
831.606	34.59
831.779	33.65
831.953	33.15
832.126	32.25
832.3	31.54
832.473	32.86
832.647	32.31
832.82	31.92
832.994	31.04
833.167	31.88
833.34	31.48
833.514	31.58
833.687	31.53
833.86	31.12
834.034	31.08
834.207	31.07
834.38	30.83
834.553	31.44
834.727	31.46
834.9	31.59
835.073	30.36
835.246	30.59
835.419	30.28
835.593	29.77
835.766	30.67
835.939	30.34
836.112	30.56
836.285	31.4
836.458	31.63
836.631	32.42
836.804	33.41
836.977	33.41
837.15	33.04
837.323	33.09
837.496	33.34
837.669	32.49
837.842	34.15
838.015	35.47
838.188	34.34
838.361	34.62
838.533	34.89
838.706	33.84
838.879	35.72
839.052	37.3
839.225	38.81
839.398	41.63
839.57	42.95
839.743	42.01
839.916	41.73
840.088	40.64
840.261	41.12
840.434	41.52
840.607	42.64
840.779	42.16
840.952	40.51
841.124	41.2
841.297	39.94
841.47	38.89
841.642	38.84
841.815	37.66
841.987	37.97
842.16	36.52
842.332	37.45
842.505	37.95
842.677	40.1
842.85	41.54
843.022	42.02
843.194	40.88
843.367	42.4
843.539	41.64
843.712	43.67
843.884	45.88
844.056	45.27
844.229	45.06
844.401	44.38
844.573	41.06
844.745	41.32
844.918	39.7
845.09	41.76
845.262	38.03
845.434	40.46
845.606	37.03
845.779	37.15
845.951	41.88
846.123	41.27
846.295	41.29
846.467	46.62
846.639	45.11
846.811	44.48
846.983	47.53
847.155	48.32
847.327	49.15
847.499	53.19
847.671	52.16
847.843	50.62
848.015	50.82
848.187	52.94
848.359	50.48
848.531	51.99
848.703	52.23
848.875	50.63
849.047	53.96
849.218	55.27
849.39	53.43
849.562	52.82
849.734	53.89
849.905	49.79
850.077	48.68
850.249	49.82
850.421	50
850.592	49.61
850.764	45.2
850.936	44.55
851.107	40.63
851.279	41.92
851.451	40.19
851.622	38.97
851.794	41.21
851.965	42.99
852.137	40.95
852.308	42.72
852.48	42.4
852.651	44.99
852.823	42.93
852.994	44.06
853.166	41.91
853.337	46.82
853.509	47.11
853.68	46.46
853.851	42.19
854.023	45.07
854.194	45.04
854.365	48.33
854.537	51.04
854.708	47.83
854.879	48.46
855.05	54.98
855.222	55.74
855.393	52.93
855.564	53.62
855.735	51.99
855.906	48.94
856.078	46.35
856.249	43.72
856.42	41.56
856.591	47.04
856.762	44.34
856.933	42.22
857.104	40.28
857.275	42.14
857.446	44.79
857.617	49.19
857.788	50.05
857.959	48.52
858.13	53.87
858.301	54.7
858.472	51.66
858.643	53.44
858.814	51.42
858.985	52.36
859.155	50.8
859.326	50.13
859.497	49.63
859.668	53.02
859.839	52.55
860.009	48.18
860.18	45.85
860.351	49.68
860.522	51.2
860.692	46.9
860.863	45.87
861.034	51.72
861.204	51.01
861.375	50.4
861.546	49
861.716	54.17
861.887	55.31
862.057	58.93
862.228	58.01
862.398	58.44
862.569	63.91
862.739	60.78
862.91	56.87
863.08	57.97
863.251	55.95
863.421	57.76
863.592	55.21
863.762	51.88
863.932	52.99
864.103	54.44
864.273	52.96
864.443	51.74
864.614	51.64
864.784	51.36
864.954	52.67
865.125	53.81
865.295	51.61
865.465	51.83
865.635	53.89
865.805	50.65
865.976	51.16
866.146	46.9
866.316	44.73
866.486	46.26
866.656	47.65
866.826	46.31
866.996	49.7
867.166	48.03
867.336	50.95
867.506	49.93
867.676	48.47
867.846	46.95
868.016	51.66
868.186	52.78
868.356	55.22
868.526	53.06
868.696	49.09
868.866	47.16
869.036	47.21
869.206	46.27
869.376	48.33
869.545	44.94
869.715	49.53
869.885	45.94
870.055	40.75
870.224	38.4
870.394	39.88
870.564	40.13
870.734	42.89
870.903	43.87
871.073	36.61
871.243	35.67
871.412	38.46
871.582	33.73
871.751	34.1
871.921	37.21
872.091	39.04
872.26	38.55
872.43	36.34
872.599	33.67
872.769	34.61
872.938	40.96
873.108	39.71
873.277	42.65
873.446	40.84
873.616	40.56
873.785	40.95
873.955	41.02
874.124	44.56
874.293	47.21
874.463	45.76
874.632	45.81
874.801	38.31
874.971	39.93
875.14	36.55
875.309	37.54
875.478	40.62
875.647	37.31
875.817	37.25
875.986	34.99
876.155	37.5
876.324	40.74
876.493	37.3
876.662	44.26
876.831	43.91
877	47.31
877.17	48.99
877.339	49.14
877.508	53.11
877.677	52.55
877.846	50.27
878.015	48.73
878.184	46.32
878.352	47.5
878.521	46.48
878.69	48.18
878.859	45.47
879.028	44.85
879.197	41.85
879.366	40.57
879.534	38.79
879.703	39.12
879.872	38.47
880.041	36.05
880.21	35.34
880.378	34.34
880.547	32.35
880.716	30.99
880.884	29.89
881.053	29.71
881.222	28.05
881.39	27.41
881.559	26.72
881.727	26.91
881.896	26.4
882.065	25.66
882.233	25.02
882.402	25.22
882.57	25.46
882.739	25.62
882.907	25.82
883.076	26.61
883.244	26.42
883.412	26.26
883.581	25.97
883.749	26.9
883.918	27.24
884.086	27.8
884.254	27.12
884.423	27.81
884.591	27.36
884.759	27.63
884.927	27.37
885.096	27.44
885.264	28.76
885.432	28.65
885.6	28.43
885.769	30.88
885.937	30.2
886.105	32.87
886.273	31.07
886.441	34.12
886.609	32.99
886.777	33.89
886.945	35.83
887.113	35.73
887.281	35.58
887.449	36.54
887.617	33.14
887.785	37.59
887.953	34.36
888.121	34.49
888.289	35.07
888.457	40.38
888.625	41.53
888.793	45.24
888.961	43.79
889.129	49.85
889.296	51.16
889.464	53.96
889.632	51.87
889.8	55.95
889.967	60.5
890.135	60.06
