Data from 29388109__Reflection_01.txt Node
Date: Thu Mar 12 21:47:42 EDT 2015
User: robert
Spectrometer: USB4E03002
Autoset integration time: false
Trigger mode: 4
Integration Time (sec): 1.000000E-1
Scans to average: 10
Electric dark correction enabled: false
Nonlinearity correction enabled: false
Boxcar width: 5
Stray light correction enabled: false
XAxis mode: Wavelengths
Stop averaging: false
Number of Pixels in Spectrum: 3648
>>>>>Begin Spectral Data<<<<<
177.575	141.94
177.794	130.57
178.014	145.04
178.233	167.72
178.452	143.71
178.672	148.18
178.891	162.72
179.11	156.8
179.33	153.34
179.549	150.26
179.768	154.62
179.987	169.43
180.207	176.01
180.426	170.41
180.645	139.97
180.864	159.49
181.084	168.64
181.303	158.97
181.522	176.66
181.741	217.71
181.96	203.22
182.179	215.05
182.398	199.47
182.618	199.78
182.837	206.52
183.056	222.26
183.275	245.77
183.494	257.32
183.713	242.24
183.932	220.62
184.151	217.58
184.37	225.61
184.589	235.21
184.808	250.26
185.027	339.55
185.246	350.94
185.465	358.5
185.684	276.95
185.903	207.68
186.122	226.05
186.341	252.42
186.56	220.45
186.779	190.72
186.998	209.26
187.216	200.47
187.435	168.25
187.654	131.95
187.873	148.24
188.092	139.71
188.311	165.14
188.53	186.64
188.748	219.56
188.967	209.1
189.186	219.24
189.405	190
189.623	183.42
189.842	163.08
190.061	205.91
190.28	217.15
190.498	323.75
190.717	289.62
190.936	266.49
191.154	196.3
191.373	208.64
191.592	219.47
191.81	228.86
192.029	236.16
192.248	356.05
192.466	294.41
192.685	294.28
192.904	257.81
193.122	242.16
193.341	205.46
193.559	219.51
193.778	194.59
193.996	172.78
194.215	161.88
194.433	151.29
194.652	146.06
194.87	163.34
195.089	155.7
195.307	149.08
195.526	140.19
195.744	163.3
195.963	176.16
196.181	180.65
196.399	188.86
196.618	200.99
196.836	236.36
197.055	201.07
197.273	176.93
197.491	157.28
197.71	148.19
197.928	135.79
198.146	132.94
198.365	133.51
198.583	133.58
198.801	133.19
199.019	134.96
199.238	123.01
199.456	128.02
199.674	120.75
199.892	139.09
200.111	158.52
200.329	170.22
200.547	152.81
200.765	141.9
200.983	151.86
201.202	155.19
201.42	154.29
201.638	170.35
201.856	197.18
202.074	215.8
202.292	207.78
202.51	185.6
202.728	191.64
202.946	184.93
203.165	200.57
203.383	204.66
203.601	205.96
203.819	198.65
204.037	179.64
204.255	174.61
204.473	174.38
204.691	161.4
204.909	159.32
205.127	177.72
205.345	176.39
205.562	172.19
205.78	156.62
205.998	146.41
206.216	130.87
206.434	133.67
206.652	133.8
206.87	135.55
207.088	140.4
207.306	141.31
207.523	131.01
207.741	139.58
207.959	144.57
208.177	141.63
208.395	144.32
208.612	169.56
208.83	166.41
209.048	154.42
209.266	158.06
209.483	157.46
209.701	152.33
209.919	172.55
210.136	153.21
210.354	165.22
210.572	178.2
210.79	156.67
211.007	138.93
211.225	131.36
211.442	119.61
211.66	128.38
211.878	127.92
212.095	129.77
212.313	128.37
212.53	146.52
212.748	133.21
212.966	130.43
213.183	138.29
213.401	131.16
213.618	125.87
213.836	139.96
214.053	130.65
214.271	128.26
214.488	138.02
214.705	115.95
214.923	96.92
215.14	90.42
215.358	95.4
215.575	101.63
215.793	101.07
216.01	118.8
216.227	118.05
216.445	105.52
216.662	99.22
216.879	96.62
217.097	120.74
217.314	143.49
217.531	137.19
217.749	117.04
217.966	105.62
218.183	114.63
218.4	102.61
218.618	94.68
218.835	107.85
219.052	106.56
219.269	107.5
219.487	96.16
219.704	98.69
219.921	90.26
220.138	89.32
220.355	91.75
220.572	85.22
220.79	79.57
221.007	78.36
221.224	76.01
221.441	73.37
221.658	72.2
221.875	71.11
222.092	67.48
222.309	70.66
222.526	70.75
222.743	63.41
222.96	58.68
223.177	63.74
223.394	69.52
223.611	62.69
223.828	63.56
224.045	55.74
224.262	53.49
224.479	51.64
224.696	49.06
224.913	47.96
225.13	45.52
225.347	46.45
225.564	40.5
225.781	36.22
225.997	33.23
226.214	31.44
226.431	30.54
226.648	27.64
226.865	24.18
227.082	21.45
227.298	18.62
227.515	16.43
227.732	14.99
227.949	13.88
228.165	12.35
228.382	11.65
228.599	10.41
228.816	9.76
229.032	9.63
229.249	9.74
229.466	9.64
229.682	9.38
229.899	10.06
230.116	10.54
230.332	11.17
230.549	10.81
230.765	11.03
230.982	12.34
231.199	13.34
231.415	14.54
231.632	15.56
231.848	17.18
232.065	18.3
232.281	18.81
232.498	18.65
232.714	18.84
232.931	21.38
233.147	21.94
233.364	21.2
233.58	20.55
233.797	19.66
234.013	17.97
234.23	16.82
234.446	16.36
234.662	16.57
234.879	16.52
235.095	16.07
235.312	15.09
235.528	15.67
235.744	15.96
235.961	16.28
236.177	16.41
236.393	17.65
236.61	17.58
236.826	17.29
237.042	16.78
237.258	17.48
237.475	17.29
237.691	17.45
237.907	17.38
238.123	16.87
238.339	18.07
238.556	18.82
238.772	17.63
238.988	17.04
239.204	18.15
239.42	17.93
239.636	16.53
239.853	16
240.069	15.44
240.285	14.17
240.501	14.1
240.717	12.71
240.933	11.7
241.149	12.01
241.365	11.75
241.581	10.33
241.797	9.96
242.013	9.45
242.229	9.43
242.445	9.33
242.661	9.6
242.877	9.47
243.093	9.65
243.309	10.12
243.525	9.44
243.741	9.78
243.957	10.76
244.173	10.85
244.388	11.53
244.604	12.05
244.82	12.27
245.036	12.27
245.252	12.05
245.468	10.97
245.683	9.94
245.899	10.13
246.115	9.52
246.331	8.74
246.547	8.44
246.762	8.2
246.978	7.57
247.194	7.17
247.409	6.79
247.625	6.42
247.841	6.61
248.057	6.89
248.272	6.82
248.488	6.76
248.703	6.9
248.919	7.07
249.135	7.04
249.35	7.37
249.566	7.87
249.782	8.25
249.997	8.98
250.213	9.83
250.428	10.02
250.644	10.54
250.859	11.4
251.075	10.98
251.29	10.63
251.506	10.82
251.721	10.83
251.937	10.87
252.152	10.41
252.368	9.92
252.583	9.06
252.798	8.89
253.014	8.4
253.229	8.16
253.445	9.04
253.66	9.55
253.875	9.81
254.091	10.01
254.306	9.79
254.521	10.7
254.737	11.73
254.952	11.68
255.167	11.69
255.383	11.99
255.598	11.7
255.813	11.53
256.028	11.35
256.244	10.93
256.459	11.24
256.674	11.2
256.889	11.31
257.104	10.13
257.32	10.48
257.535	9.56
257.75	9.45
257.965	8.8
258.18	8.13
258.395	7.7
258.61	7.18
258.826	6.46
259.041	6.24
259.256	5.93
259.471	6.19
259.686	5.86
259.901	6
260.116	5.91
260.331	5.77
260.546	5.87
260.761	5.74
260.976	5.96
261.191	5.95
261.406	6.1
261.621	6.43
261.836	6.16
262.05	6.42
262.265	6.58
262.48	6.51
262.695	7.12
262.91	7.47
263.125	7.69
263.34	7.57
263.555	8.5
263.769	8.45
263.984	8.14
264.199	8.55
264.414	8.39
264.629	8.36
264.843	8.81
265.058	8.33
265.273	8.19
265.488	8.52
265.702	8.7
265.917	8.16
266.132	7.86
266.346	7.7
266.561	7.6
266.776	7.58
266.99	7.6
267.205	7.24
267.42	7.88
267.634	7.75
267.849	7.59
268.063	7.38
268.278	7.43
268.492	7.56
268.707	7.6
268.922	8.11
269.136	8.34
269.351	8.5
269.565	8.35
269.78	7.51
269.994	7.12
270.209	7.32
270.423	7.47
270.637	7.06
270.852	7.21
271.066	7.24
271.281	6.67
271.495	6.35
271.709	6.04
271.924	6.14
272.138	6.41
272.353	6.42
272.567	6.03
272.781	5.69
272.996	5.73
273.21	5.69
273.424	5.55
273.638	5.74
273.853	5.89
274.067	6.16
274.281	6.25
274.495	5.89
274.71	6.18
274.924	6.3
275.138	6.65
275.352	6.8
275.566	6.83
275.781	6.63
275.995	6.43
276.209	6.78
276.423	6.38
276.637	6.56
276.851	7.26
277.065	7.33
277.279	7.52
277.493	7.24
277.707	7.54
277.921	7.45
278.135	7.88
278.349	8.01
278.563	7.57
278.777	7.75
278.991	7.68
279.205	7.13
279.419	6.92
279.633	6.77
279.847	6.75
280.061	6.66
280.275	6.36
280.489	6.24
280.703	6.21
280.917	6.2
281.131	6.25
281.344	6.54
281.558	6.52
281.772	6.53
281.986	6.27
282.2	6.32
282.414	6.24
282.627	6.4
282.841	6.28
283.055	6.1
283.269	6.05
283.482	5.92
283.696	5.24
283.91	5.3
284.123	5.07
284.337	5.43
284.551	5.53
284.764	5.4
284.978	5.02
285.192	4.92
285.405	5.07
285.619	5.12
285.833	5.1
286.046	5.36
286.26	5.43
286.473	5.38
286.687	5.45
286.9	5.15
287.114	5.35
287.327	5.9
287.541	6.07
287.754	6.17
287.968	6.29
288.181	6.72
288.395	6.73
288.608	6.8
288.822	6.65
289.035	6.55
289.248	6.74
289.462	6.45
289.675	6.37
289.889	6.5
290.102	6.31
290.315	6.3
290.529	6.15
290.742	6.14
290.955	6.16
291.169	6.45
291.382	6.33
291.595	6.47
291.808	6.84
292.022	7.09
292.235	7.22
292.448	7.09
292.661	7.28
292.875	7.21
293.088	7.04
293.301	6.85
293.514	6.94
293.727	7.32
293.94	7.33
294.153	7.24
294.367	6.72
294.58	6.49
294.793	6.47
295.006	6.22
295.219	6.49
295.432	6.92
295.645	7.01
295.858	7.13
296.071	6.86
296.284	6.84
296.497	6.68
296.71	6.84
296.923	6.95
297.136	7.12
297.349	7.16
297.562	7.07
297.775	7.05
297.988	6.95
298.201	7.05
298.414	7.3
298.626	7.37
298.839	7.64
299.052	7.81
299.265	8.1
299.478	8.35
299.691	8.37
299.903	8.33
300.116	8.23
300.329	8.52
300.542	8.42
300.755	8.6
300.967	8.71
301.18	8.7
301.393	8.83
301.605	8.48
301.818	8.24
302.031	8.52
302.243	8.8
302.456	8.98
302.669	8.98
302.881	9.2
303.094	9.06
303.307	8.98
303.519	9.21
303.732	9.1
303.944	9.14
304.157	9.28
304.37	9.23
304.582	9.03
304.795	9.13
305.007	8.98
305.22	8.85
305.432	8.94
305.645	9.24
305.857	8.97
306.069	8.98
306.282	9.1
306.494	9.2
306.707	9.44
306.919	9.2
307.132	8.91
307.344	8.86
307.556	8.91
307.769	8.84
307.981	8.95
308.193	9.09
308.406	8.84
308.618	8.81
308.83	9.05
309.043	9.06
309.255	9.41
309.467	9.59
309.679	9.84
309.892	9.48
310.104	9.57
310.316	9.26
310.528	9.15
310.74	9.1
310.953	9.2
311.165	9.08
311.377	9.01
311.589	8.85
311.801	8.91
312.013	8.86
312.225	9.35
312.437	9.11
312.649	9.28
312.862	9.53
313.074	10.04
313.286	10
313.498	10.06
313.71	10.44
313.922	10.67
314.134	10.58
314.346	10.83
314.558	10.87
314.77	10.8
314.982	10.72
315.193	10.74
315.405	10.67
315.617	10.95
315.829	10.64
316.041	10.08
316.253	9.9
316.465	10.04
316.677	10.17
316.888	9.91
317.1	10.14
317.312	10.67
317.524	10.88
317.736	11.09
317.947	10.96
318.159	11.46
318.371	11.77
318.583	11.86
318.794	11.86
319.006	11.57
319.218	11.94
319.43	11.91
319.641	11.44
319.853	11.51
320.064	11.63
320.276	11.47
320.488	11.64
320.699	11.69
320.911	11.72
321.123	11.76
321.334	12.01
321.546	11.65
321.757	12.05
321.969	11.98
322.18	11.64
322.392	11.03
322.603	11.47
322.815	11.1
323.026	10.9
323.238	11.23
323.449	11.13
323.661	10.83
323.872	10.95
324.083	10.93
324.295	11.16
324.506	11.48
324.718	11.65
324.929	11.58
325.14	11.67
325.352	12.07
325.563	12.25
325.774	12.47
325.986	12.8
326.197	12.95
326.408	12.86
326.62	12.98
326.831	13.02
327.042	13.14
327.253	13.25
327.464	13.57
327.676	13.41
327.887	13.33
328.098	13.34
328.309	13.71
328.52	13.78
328.732	13.83
328.943	14.06
329.154	14.05
329.365	14.32
329.576	14.43
329.787	14.51
329.998	14.65
330.209	14.7
330.42	15.08
330.631	14.74
330.842	14.65
331.053	14.9
331.264	14.7
331.475	14.64
331.686	14.73
331.897	14.6
332.108	14.66
332.319	14.96
332.53	15.17
332.741	15.08
332.952	15.38
333.163	15.73
333.374	15.48
333.585	15.88
333.795	15.94
334.006	15.93
334.217	15.74
334.428	15.54
334.639	15.44
334.849	15.47
335.06	15.66
335.271	15.62
335.482	15.32
335.692	15.49
335.903	15.3
336.114	15.32
336.325	15.27
336.535	15.44
336.746	15.43
336.957	15.12
337.167	14.87
337.378	14.4
337.589	14.46
337.799	14.65
338.01	14.81
338.22	14.73
338.431	14.87
338.642	14.96
338.852	14.93
339.063	15.04
339.273	15.53
339.484	15.76
339.694	16.1
339.905	15.87
340.115	15.82
340.326	15.86
340.536	15.65
340.746	15.2
340.957	15.04
341.167	15.3
341.378	15.13
341.588	14.79
341.799	14.74
342.009	14.69
342.219	14.86
342.43	14.88
342.64	14.63
342.85	14.8
343.061	14.88
343.271	14.87
343.481	14.66
343.691	14.54
343.902	14.37
344.112	14.32
344.322	14.4
344.532	14.32
344.743	14.16
344.953	14.31
345.163	14.29
345.373	14.44
345.583	14.24
345.793	14.17
346.004	14.32
346.214	14.43
346.424	14.58
346.634	14.44
346.844	14.37
347.054	14.57
347.264	14.28
347.474	14.26
347.684	14.47
347.894	14.74
348.104	14.71
348.314	14.86
348.524	14.91
348.734	14.46
348.944	14.17
349.154	14.24
349.364	14.19
349.574	14.54
349.784	14.6
349.994	14.32
350.204	14.2
350.413	14.22
350.623	13.92
350.833	14.14
351.043	14.37
351.253	14.6
351.463	14.45
351.672	14.48
351.882	14.25
352.092	13.93
352.302	13.87
352.511	14.07
352.721	13.97
352.931	14.15
353.141	13.93
353.35	13.86
353.56	13.91
353.77	13.84
353.979	13.9
354.189	13.94
354.399	14.15
354.608	14.29
354.818	13.95
355.027	14.21
355.237	14.08
355.447	13.92
355.656	13.7
355.866	13.71
356.075	13.84
356.285	13.65
356.494	13.56
356.704	13.61
356.913	13.44
357.123	13.32
357.332	13.04
357.542	12.98
357.751	13.31
357.96	13.58
358.17	13.31
358.379	12.98
358.589	12.96
358.798	12.98
359.007	12.78
359.217	12.86
359.426	13.15
359.635	13.38
359.845	13.22
360.054	12.96
360.263	12.98
360.472	12.86
360.682	13.04
360.891	12.92
361.1	12.83
361.309	12.99
361.519	12.83
361.728	12.9
361.937	12.84
362.146	12.88
362.355	12.89
362.564	12.67
362.774	12.77
362.983	12.6
363.192	12.79
363.401	13.04
363.61	12.73
363.819	12.7
364.028	12.69
364.237	12.79
364.446	12.97
364.655	13
364.864	13.23
365.073	13.47
365.282	13.49
365.491	13.29
365.7	13.24
365.909	13.58
366.118	13.5
366.327	13.43
366.536	13.23
366.745	13.19
366.954	13.2
367.162	13.17
367.371	12.99
367.58	13.2
367.789	13.21
367.998	13.17
368.207	13.17
368.415	13.49
368.624	13.46
368.833	13.32
369.042	13.13
369.25	12.91
369.459	12.92
369.668	12.75
369.877	12.57
370.085	12.62
370.294	12.47
370.503	12.45
370.711	12.36
370.92	12.14
371.129	12.17
371.337	12.18
371.546	12.38
371.754	12.17
371.963	12.27
372.171	12.19
372.38	12.18
372.589	12.27
372.797	12.12
373.006	12.2
373.214	12.15
373.423	12.19
373.631	12.28
373.84	12.01
374.048	11.82
374.256	11.83
374.465	12.14
374.673	12.07
374.882	11.86
375.09	11.84
375.298	11.7
375.507	11.78
375.715	11.77
375.923	11.8
376.132	12.08
376.34	12.22
376.548	12.21
376.757	11.82
376.965	11.9
377.173	12
377.381	12.19
377.59	12.1
377.798	12
378.006	11.88
378.214	11.79
378.423	11.5
378.631	11.5
378.839	11.43
379.047	11.5
379.255	11.26
379.463	11.19
379.671	10.81
379.879	10.93
380.088	10.96
380.296	11.21
380.504	11.27
380.712	11.44
380.92	11.55
381.128	11.55
381.336	11.69
381.544	11.85
381.752	11.88
381.96	11.81
382.168	11.7
382.376	11.65
382.584	11.38
382.791	11.35
382.999	11.15
383.207	11.21
383.415	11.11
383.623	11.1
383.831	10.86
384.039	10.8
384.247	10.92
384.454	10.75
384.662	10.92
384.87	11.01
385.078	11.18
385.285	11.2
385.493	10.81
385.701	10.77
385.909	10.82
386.116	10.88
386.324	10.84
386.532	10.79
386.739	10.94
386.947	10.85
387.155	10.93
387.362	10.76
387.57	10.82
387.778	11.09
387.985	11.16
388.193	10.94
388.4	11.09
388.608	11.18
388.816	11.41
389.023	11.33
389.231	11.43
389.438	11.43
389.646	11.35
389.853	11.29
390.061	11.22
390.268	11.21
390.475	11.34
390.683	11.26
390.89	11.2
391.098	11
391.305	11.02
391.512	10.84
391.72	10.7
391.927	10.73
392.135	10.72
392.342	10.54
392.549	10.49
392.756	10.41
392.964	10.5
393.171	10.55
393.378	10.5
393.586	10.38
393.793	10.41
394	10.5
394.207	10.41
394.414	10.53
394.622	10.67
394.829	10.8
395.036	10.67
395.243	10.64
395.45	10.44
395.657	10.65
395.864	10.81
396.072	10.77
396.279	10.63
396.486	10.57
396.693	10.51
396.9	10.32
397.107	10.21
397.314	10.33
397.521	10.28
397.728	10.42
397.935	10.35
398.142	10.12
398.349	10.18
398.556	10.08
398.763	10.17
398.97	10.16
399.177	10.36
399.383	10.37
399.59	10.32
399.797	10.26
400.004	10.23
400.211	10.28
400.418	10.4
400.625	10.31
400.831	10.52
401.038	10.43
401.245	10.34
401.452	10.24
401.658	10.23
401.865	10.25
402.072	10.28
402.279	10.44
402.485	10.3
402.692	10.21
402.899	10.21
403.105	10.03
403.312	10.03
403.519	9.98
403.725	10.02
403.932	9.92
404.138	9.95
404.345	9.89
404.552	9.63
404.758	9.66
404.965	9.74
405.171	9.85
405.378	9.95
405.584	9.99
405.791	10
405.997	10.01
406.204	10.03
406.41	10.02
406.617	10.02
406.823	10.1
407.029	10.01
407.236	10.02
407.442	9.96
407.649	10.01
407.855	9.99
408.061	10.14
408.268	10.13
408.474	10.21
408.68	10.09
408.887	10.08
409.093	10.16
409.299	10.12
409.505	10.15
409.712	10.14
409.918	10.16
410.124	10.04
410.33	9.97
410.537	9.91
410.743	10.06
410.949	10.29
411.155	10.37
411.361	10.21
411.567	10.35
411.773	10.41
411.98	10.45
412.186	10.32
412.392	10.48
412.598	10.51
412.804	10.42
413.01	10.24
413.216	10.15
413.422	10.21
413.628	10.35
413.834	10.33
414.04	10.22
414.246	10.2
414.452	10.3
414.658	10.3
414.864	10.23
415.07	10.33
415.275	10.34
415.481	10.36
415.687	10.21
415.893	10.27
416.099	10.1
416.305	10.02
416.511	10.03
416.716	10.03
416.922	10.03
417.128	10.09
417.334	10.07
417.539	10.1
417.745	10.01
417.951	10.03
418.157	10.03
418.362	10.11
418.568	10.15
418.774	10.12
418.979	10.09
419.185	10.12
419.391	10.03
419.596	10
419.802	9.94
420.008	9.98
420.213	10.05
420.419	9.95
420.624	9.99
420.83	9.97
421.035	9.94
421.241	9.89
421.446	9.83
421.652	9.89
421.857	9.94
422.063	9.99
422.268	10.03
422.474	9.94
422.679	9.97
422.885	9.95
423.09	9.98
423.295	9.95
423.501	9.92
423.706	9.94
423.911	9.93
424.117	9.94
424.322	9.96
424.527	9.86
424.733	9.82
424.938	9.82
425.143	9.76
425.349	9.7
425.554	9.75
425.759	9.78
425.964	9.85
426.169	9.93
426.375	9.93
426.58	9.87
426.785	9.96
426.99	10.12
427.195	10.11
427.4	10.18
427.605	10.35
427.811	10.46
428.016	10.55
428.221	10.64
428.426	10.55
428.631	10.59
428.836	10.67
429.041	10.67
429.246	10.72
429.451	10.78
429.656	10.91
429.861	10.83
430.066	10.84
430.271	10.75
430.476	10.6
430.681	10.69
430.886	10.59
431.09	10.6
431.295	10.6
431.5	10.54
431.705	10.63
431.91	10.6
432.115	10.62
432.32	10.57
432.524	10.74
432.729	10.82
432.934	10.8
433.139	10.89
433.343	10.91
433.548	10.91
433.753	10.9
433.958	10.88
434.162	10.81
434.367	10.84
434.572	10.71
434.776	10.6
434.981	10.49
435.186	10.37
435.39	10.37
435.595	10.32
435.799	10.36
436.004	10.38
436.209	10.41
436.413	10.46
436.618	10.47
436.822	10.6
437.027	10.57
437.231	10.66
437.436	10.71
437.64	10.69
437.845	10.87
438.049	10.94
438.253	11.03
438.458	10.93
438.662	11
438.867	11.06
439.071	11.18
439.275	11.27
439.48	11.3
439.684	11.33
439.888	11.33
440.093	11.18
440.297	11.13
440.501	11.13
440.706	11.2
440.91	11.17
441.114	11.05
441.318	11.05
441.523	11.09
441.727	11.04
441.931	10.99
442.135	11.01
442.339	11.19
442.543	11.3
442.748	11.19
442.952	11.18
443.156	11.17
443.36	11.23
443.564	11.2
443.768	11.19
443.972	11.19
444.176	11.24
444.38	11.21
444.584	11.11
444.788	11.01
444.992	11.07
445.196	11.01
445.4	10.95
445.604	10.97
445.808	10.93
446.012	10.93
446.216	10.91
446.42	10.86
446.624	10.9
446.828	10.88
447.032	10.94
447.235	10.86
447.439	10.81
447.643	10.85
447.847	10.9
448.051	10.9
448.254	10.85
448.458	10.89
448.662	10.96
448.866	10.93
449.069	10.96
449.273	10.94
449.477	11.03
449.681	11.18
449.884	11.2
450.088	11.21
450.292	11.24
450.495	11.3
450.699	11.4
450.902	11.37
451.106	11.43
451.31	11.47
451.513	11.45
451.717	11.42
451.92	11.4
452.124	11.38
452.327	11.35
452.531	11.3
452.734	11.24
452.938	11.14
453.141	11.23
453.345	11.22
453.548	11.18
453.752	11.18
453.955	11.13
454.158	11.14
454.362	11.2
454.565	11.28
454.769	11.33
454.972	11.45
455.175	11.47
455.379	11.38
455.582	11.35
455.785	11.3
455.988	11.32
456.192	11.49
456.395	11.56
456.598	11.54
456.801	11.43
457.005	11.36
457.208	11.28
457.411	11.33
457.614	11.32
457.817	11.32
458.021	11.32
458.224	11.31
458.427	11.07
458.63	10.97
458.833	10.96
459.036	10.87
459.239	10.89
459.442	10.85
459.645	10.79
459.848	10.78
460.051	10.78
460.254	10.82
460.457	10.76
460.66	10.85
460.863	10.89
461.066	10.91
461.269	11.04
461.472	11.03
461.675	11.06
461.878	11.12
462.081	11.2
462.284	11.25
462.486	11.2
462.689	11.35
462.892	11.45
463.095	11.41
463.298	11.47
463.5	11.47
463.703	11.54
463.906	11.62
464.109	11.51
464.311	11.54
464.514	11.48
464.717	11.52
464.92	11.38
465.122	11.33
465.325	11.35
465.528	11.37
465.73	11.33
465.933	11.32
466.135	11.31
466.338	11.31
466.541	11.42
466.743	11.34
466.946	11.31
467.148	11.47
467.351	11.5
467.553	11.51
467.756	11.46
467.958	11.45
468.161	11.48
468.363	11.48
468.566	11.57
468.768	11.5
468.971	11.54
469.173	11.54
469.375	11.47
469.578	11.49
469.78	11.51
469.983	11.59
470.185	11.54
470.387	11.6
470.59	11.68
470.792	11.64
470.994	11.65
471.196	11.7
471.399	11.88
471.601	11.9
471.803	11.85
472.005	11.8
472.208	11.8
472.41	11.88
472.612	11.8
472.814	11.76
473.016	11.78
473.218	11.79
473.421	11.77
473.623	11.54
473.825	11.5
474.027	11.56
474.229	11.62
474.431	11.58
474.633	11.53
474.835	11.62
475.037	11.63
475.239	11.7
475.441	11.65
475.643	11.71
475.845	11.74
476.047	11.88
476.249	11.89
476.451	11.84
476.653	11.85
476.855	11.82
477.057	11.78
477.258	11.74
477.46	11.68
477.662	11.68
477.864	11.6
478.066	11.63
478.268	11.57
478.469	11.53
478.671	11.61
478.873	11.61
479.075	11.64
479.276	11.61
479.478	11.63
479.68	11.64
479.882	11.57
480.083	11.57
480.285	11.6
480.487	11.54
480.688	11.5
480.89	11.4
481.091	11.31
481.293	11.3
481.495	11.18
481.696	11.16
481.898	11.18
482.099	11.17
482.301	11.08
482.502	10.99
482.704	10.94
482.905	10.92
483.107	10.91
483.308	10.87
483.51	10.84
483.711	10.88
483.913	10.85
484.114	10.79
484.315	10.78
484.517	10.83
484.718	10.86
484.92	10.87
485.121	10.87
485.322	10.86
485.524	10.86
485.725	10.85
485.926	10.81
486.127	10.8
486.329	10.84
486.53	10.81
486.731	10.8
486.932	10.8
487.134	10.82
487.335	10.82
487.536	10.81
487.737	10.83
487.938	10.86
488.139	10.9
488.341	10.9
488.542	10.89
488.743	10.89
488.944	10.92
489.145	10.93
489.346	10.93
489.547	10.91
489.748	10.95
489.949	11
490.15	11.02
490.351	11.01
490.552	11.03
490.753	11.05
490.954	11.11
491.155	11.07
491.356	11.06
491.557	11.09
491.758	11.1
491.959	11.1
492.159	11.12
492.36	11.15
492.561	11.19
492.762	11.22
492.963	11.25
493.164	11.24
493.364	11.33
493.565	11.35
493.766	11.31
493.967	11.37
494.167	11.4
494.368	11.36
494.569	11.36
494.769	11.38
494.97	11.49
495.171	11.52
495.371	11.5
495.572	11.46
495.773	11.46
495.973	11.62
496.174	11.69
496.375	11.71
496.575	11.8
496.776	11.79
496.976	11.81
497.177	11.7
497.377	11.76
497.578	11.83
497.778	11.88
497.979	11.95
498.179	11.9
498.38	11.89
498.58	11.93
498.78	11.92
498.981	11.99
499.181	11.98
499.382	12.11
499.582	12.1
499.782	12.17
499.983	12.16
500.183	12.16
500.383	12.23
500.584	12.28
500.784	12.23
500.984	12.33
501.184	12.35
501.385	12.42
501.585	12.42
501.785	12.41
501.985	12.49
502.185	12.58
502.386	12.7
502.586	12.73
502.786	12.82
502.986	12.97
503.186	12.93
503.386	12.92
503.586	12.97
503.786	13.06
503.987	13.16
504.187	13.07
504.387	13.06
504.587	13.13
504.787	13.15
504.987	13.09
505.187	13.18
505.387	13.3
505.587	13.4
505.786	13.53
505.986	13.65
506.186	13.7
506.386	13.85
506.586	13.87
506.786	13.85
506.986	13.91
507.186	13.99
507.386	13.99
507.585	13.97
507.785	14
507.985	13.98
508.185	13.83
508.384	13.93
508.584	13.93
508.784	13.99
508.984	14.07
509.183	14.07
509.383	14.13
509.583	14.17
509.782	14.16
509.982	14.24
510.182	14.29
510.381	14.38
510.581	14.39
510.781	14.49
510.98	14.53
511.18	14.46
511.379	14.51
511.579	14.51
511.778	14.57
511.978	14.64
512.177	14.68
512.377	14.62
512.576	14.69
512.776	14.69
512.975	14.6
513.175	14.75
513.374	14.87
513.573	15.02
513.773	15.11
513.972	15.11
514.172	15.16
514.371	15.18
514.57	15.29
514.77	15.37
514.969	15.42
515.168	15.6
515.367	15.63
515.567	15.73
515.766	15.78
515.965	15.81
516.164	15.93
516.364	16.02
516.563	16.08
516.762	16.14
516.961	16.17
517.16	16.29
517.359	16.31
517.559	16.28
517.758	16.27
517.957	16.27
518.156	16.31
518.355	16.26
518.554	16.34
518.753	16.4
518.952	16.47
519.151	16.59
519.35	16.61
519.549	16.63
519.748	16.68
519.947	16.76
520.146	16.85
520.345	16.92
520.544	17.08
520.743	17.06
520.942	17.14
521.141	17.15
521.339	17.06
521.538	17.09
521.737	17.19
521.936	17.26
522.135	17.32
522.333	17.33
522.532	17.36
522.731	17.36
522.93	17.47
523.129	17.5
523.327	17.6
523.526	17.75
523.725	17.83
523.923	17.84
524.122	17.94
524.321	17.98
524.519	17.95
524.718	18.02
524.917	18.09
525.115	18.08
525.314	18.12
525.512	18.16
525.711	18.16
525.909	18.14
526.108	18.18
526.306	18.22
526.505	18.23
526.703	18.32
526.902	18.32
527.1	18.34
527.299	18.37
527.497	18.37
527.696	18.37
527.894	18.37
528.092	18.43
528.291	18.45
528.489	18.44
528.688	18.45
528.886	18.48
529.084	18.52
529.283	18.55
529.481	18.61
529.679	18.66
529.877	18.7
530.076	18.78
530.274	18.79
530.472	18.86
530.67	18.97
530.869	19.06
531.067	19.06
531.265	19.07
531.463	19.1
531.661	19.1
531.859	19.17
532.057	19.21
532.255	19.25
532.454	19.3
532.652	19.3
532.85	19.25
533.048	19.22
533.246	19.25
533.444	19.3
533.642	19.34
533.84	19.37
534.038	19.35
534.236	19.38
534.434	19.36
534.632	19.37
534.83	19.44
535.027	19.53
535.225	19.62
535.423	19.67
535.621	19.75
535.819	19.8
536.017	19.83
536.215	19.81
536.412	19.87
536.61	19.95
536.808	19.97
537.006	19.92
537.203	19.96
537.401	20.01
537.599	20.01
537.797	19.99
537.994	19.99
538.192	19.97
538.39	20.04
538.587	20.04
538.785	19.99
538.983	19.98
539.18	20
539.378	19.96
539.575	19.97
539.773	19.98
539.97	19.97
540.168	19.96
540.366	20.01
540.563	20.01
540.761	20.05
540.958	20.08
541.155	20.07
541.353	20.12
541.55	20.1
541.748	20.12
541.945	20.14
542.143	20.17
542.34	20.2
542.537	20.22
542.735	20.25
542.932	20.25
543.129	20.32
543.327	20.41
543.524	20.48
543.721	20.53
543.919	20.54
544.116	20.6
544.313	20.65
544.51	20.68
544.708	20.74
544.905	20.77
545.102	20.84
545.299	20.76
545.496	20.76
545.693	20.7
545.891	20.77
546.088	20.75
546.285	20.78
546.482	20.78
546.679	20.82
546.876	20.76
547.073	20.84
547.27	20.82
547.467	20.78
547.664	20.77
547.861	20.87
548.058	20.77
548.255	20.87
548.452	20.93
548.649	20.91
548.846	20.95
549.043	21.1
549.24	21.06
549.437	21.07
549.633	21.21
549.83	21.33
550.027	21.4
550.224	21.52
550.421	21.48
550.618	21.41
550.814	21.48
551.011	21.4
551.208	21.37
551.405	21.38
551.601	21.46
551.798	21.43
551.995	21.31
552.191	21.2
552.388	21.2
552.585	21.28
552.781	21.33
552.978	21.33
553.175	21.36
553.371	21.28
553.568	21.28
553.764	21.27
553.961	21.25
554.157	21.29
554.354	21.38
554.55	21.43
554.747	21.29
554.943	21.33
555.14	21.4
555.336	21.41
555.533	21.45
555.729	21.52
555.926	21.58
556.122	21.66
556.318	21.66
556.515	21.68
556.711	21.7
556.907	21.77
557.104	21.71
557.3	21.64
557.496	21.66
557.693	21.76
557.889	21.66
558.085	21.6
558.281	21.53
558.478	21.54
558.674	21.46
558.87	21.44
559.066	21.48
559.262	21.48
559.459	21.44
559.655	21.45
559.851	21.36
560.047	21.39
560.243	21.4
560.439	21.44
560.635	21.5
560.831	21.58
561.027	21.63
561.223	21.61
561.419	21.6
561.615	21.76
561.811	21.71
562.007	21.87
562.203	21.94
562.399	21.87
562.595	21.88
562.791	21.84
562.987	21.74
563.183	21.64
563.379	21.6
563.575	21.64
563.771	21.59
563.966	21.69
564.162	21.55
564.358	21.59
564.554	21.67
564.75	21.64
564.945	21.77
565.141	21.89
565.337	21.89
565.533	21.91
565.728	21.92
565.924	21.85
566.12	21.84
566.315	21.85
566.511	21.82
566.707	21.74
566.902	21.75
567.098	21.67
567.293	21.64
567.489	21.64
567.684	21.73
567.88	21.74
568.076	21.79
568.271	21.79
568.467	21.83
568.662	21.77
568.858	21.84
569.053	21.92
569.248	21.99
569.444	21.89
569.639	22
569.835	21.98
570.03	21.97
570.225	22.03
570.421	21.99
570.616	21.98
570.812	21.99
571.007	21.97
571.202	21.96
571.397	21.94
571.593	22.03
571.788	21.98
571.983	22.01
572.178	21.98
572.374	22.03
572.569	22.08
572.764	22.1
572.959	22.09
573.154	22.09
573.35	22.14
573.545	22.08
573.74	22.05
573.935	22.09
574.13	22.08
574.325	22.1
574.52	22.02
574.715	22.05
574.91	22.02
575.105	22.05
575.3	22.1
575.495	22.13
575.69	22.2
575.885	22.25
576.08	22.24
576.275	22.25
576.47	22.31
576.665	22.26
576.86	22.2
577.055	22.2
577.25	22.2
577.444	22.26
577.639	22.08
577.834	22.13
578.029	22.15
578.224	22.21
578.418	22.16
578.613	22.21
578.808	22.28
579.003	22.35
579.197	22.38
579.392	22.3
579.587	22.3
579.781	22.41
579.976	22.37
580.171	22.26
580.365	22.22
580.56	22.22
580.755	22.2
580.949	22.21
581.144	22.18
581.338	22.12
581.533	22.3
581.727	22.33
581.922	22.37
582.116	22.43
582.311	22.41
582.505	22.42
582.7	22.56
582.894	22.53
583.089	22.57
583.283	22.53
583.478	22.66
583.672	22.7
583.866	22.57
584.061	22.58
584.255	22.6
584.449	22.64
584.644	22.67
584.838	22.61
585.032	22.61
585.226	22.63
585.421	22.66
585.615	22.71
585.809	22.49
586.003	22.67
586.198	22.66
586.392	22.6
586.586	22.7
586.78	22.64
586.974	22.47
587.168	22.39
587.363	22.32
587.557	22.36
587.751	22.41
587.945	22.53
588.139	22.58
588.333	22.48
588.527	22.47
588.721	22.49
588.915	22.52
589.109	22.62
589.303	22.67
589.497	22.68
589.691	22.68
589.885	22.58
590.079	22.67
590.273	22.63
590.466	22.82
590.66	22.85
590.854	22.83
591.048	22.79
591.242	22.83
591.436	22.72
591.629	22.75
591.823	22.72
592.017	22.63
592.211	22.41
592.404	22.33
592.598	22.19
592.792	22.27
592.986	22.24
593.179	22.25
593.373	22.26
593.567	22.43
593.76	22.41
593.954	22.5
594.147	22.7
594.341	22.86
594.535	22.85
594.728	22.85
594.922	22.72
595.115	22.71
595.309	22.71
595.502	22.65
595.696	22.55
595.889	22.51
596.083	22.51
596.276	22.48
596.47	22.37
596.663	22.37
596.856	22.52
597.05	22.49
597.243	22.5
597.437	22.53
597.63	22.46
597.823	22.59
598.017	22.61
598.21	22.6
598.403	22.44
598.596	22.56
598.79	22.68
598.983	22.63
599.176	22.81
599.369	22.77
599.563	22.76
599.756	22.95
599.949	22.99
600.142	23.1
600.335	23.23
600.528	23.39
600.722	23.44
600.915	23.42
601.108	23.41
601.301	23.26
601.494	23.33
601.687	23.31
601.88	23.31
602.073	23.08
602.266	23.03
602.459	22.86
602.652	22.86
602.845	23.02
603.038	22.95
603.231	22.99
603.424	23.07
603.617	23.02
603.809	23.03
604.002	23.04
604.195	23.14
604.388	23.18
604.581	23.34
604.774	23.31
604.966	23.17
605.159	23.29
605.352	23.17
605.545	23.25
605.737	23.27
605.93	23.33
606.123	23.38
606.316	23.51
606.508	23.48
606.701	23.42
606.894	23.28
607.086	23.25
607.279	23.13
607.471	23.12
607.664	22.95
607.857	23.1
608.049	23.1
608.242	22.95
608.434	22.92
608.627	23.08
608.819	23.14
609.012	23.37
609.204	23.52
609.397	23.62
609.589	23.82
609.782	23.95
609.974	23.96
610.166	24.14
610.359	24.41
610.551	24.55
610.743	24.64
610.936	24.77
611.128	24.78
611.32	24.77
611.513	24.8
611.705	24.65
611.897	24.71
612.09	24.72
612.282	24.6
612.474	24.54
612.666	24.47
612.858	24.44
613.051	24.49
613.243	24.49
613.435	24.52
613.627	24.36
613.819	24.51
614.011	24.61
614.203	24.72
614.395	24.69
614.588	24.73
614.78	24.75
614.972	24.51
615.164	24.23
615.356	24.31
615.548	24.18
615.74	24.18
615.932	24.26
616.124	23.98
616.315	23.91
616.507	23.83
616.699	23.65
616.891	23.52
617.083	23.56
617.275	23.44
617.467	23.41
617.659	23.52
617.85	23.75
618.042	23.7
618.234	23.88
618.426	23.8
618.618	23.81
618.809	23.83
619.001	23.87
619.193	24.13
619.384	24.25
619.576	24.21
619.768	24.13
619.959	24.18
620.151	24.26
620.343	24.26
620.534	24.24
620.726	24.23
620.917	24.3
621.109	24.21
621.301	24
621.492	24.12
621.684	24.2
621.875	24.11
622.067	23.92
622.258	23.84
622.45	23.78
622.641	23.81
622.832	23.94
623.024	23.85
623.215	24
623.407	24.11
623.598	24.11
623.789	23.98
623.981	24.11
624.172	24.11
624.363	24
624.555	24.04
624.746	23.8
624.937	23.66
625.129	23.75
625.32	23.76
625.511	23.75
625.702	23.7
625.893	23.7
626.085	23.77
626.276	23.88
626.467	24.01
626.658	23.86
626.849	24.05
627.04	24.17
627.231	24.23
627.422	24.14
627.614	24.15
627.805	24.15
627.996	24.28
628.187	24.25
628.378	24.19
628.569	24.29
628.76	24.25
628.951	24.24
629.142	24.29
629.332	24.25
629.523	24.47
629.714	24.51
629.905	24.56
630.096	24.53
630.287	24.39
630.478	24.55
630.669	24.28
630.859	24.46
631.05	24.5
631.241	24.53
631.432	24.57
631.623	24.27
631.813	24.22
632.004	24.21
632.195	24.27
632.385	24.47
632.576	24.36
632.767	24.75
632.957	24.83
633.148	24.97
633.339	24.86
633.529	24.71
633.72	24.69
633.91	24.76
634.101	24.9
634.292	24.97
634.482	25.03
634.673	24.95
634.863	24.71
635.054	24.6
635.244	24.54
635.435	24.6
635.625	24.74
635.815	24.87
636.006	24.82
636.196	24.6
636.387	24.62
636.577	24.36
636.767	24.41
636.958	24.38
637.148	24.47
637.338	24.43
637.529	24.42
637.719	24.48
637.909	24.5
638.099	24.57
638.29	24.58
638.48	24.38
638.67	24.53
638.86	24.54
639.05	24.66
639.241	24.68
639.431	24.69
639.621	24.88
639.811	24.79
640.001	24.79
640.191	24.73
640.381	24.72
640.571	24.62
640.761	24.57
640.951	24.59
641.141	24.71
641.331	24.85
641.521	24.89
641.711	24.77
641.901	24.68
642.091	24.53
642.281	24.46
642.471	24.61
642.661	24.93
642.851	25.15
643.041	25.22
643.231	25.12
643.42	25.06
643.61	25
643.8	24.99
643.99	25.07
644.18	25.37
644.369	25.38
644.559	25.33
644.749	25.3
644.939	25.22
645.128	25.13
645.318	25.04
645.508	25.08
645.697	25.11
645.887	25.25
646.076	25.33
646.266	25.01
646.456	25.23
646.645	25.39
646.835	25.52
647.024	25.39
647.214	25.31
647.403	25.38
647.593	25.51
647.782	25.53
647.972	25.42
648.161	25.3
648.351	25.43
648.54	25.24
648.73	25.07
648.919	24.79
649.108	24.8
649.298	24.98
649.487	24.96
649.677	24.71
649.866	24.79
650.055	24.84
650.244	24.88
650.434	25.03
650.623	25.13
650.812	25.33
651.002	25.37
651.191	25.44
651.38	25.47
651.569	25.61
651.758	25.67
651.947	25.73
652.137	25.69
652.326	25.77
652.515	25.58
652.704	25.67
652.893	25.72
653.082	25.98
653.271	26.19
653.46	26.19
653.649	26.17
653.838	26.17
654.027	26.11
654.216	26.29
654.405	26.34
654.594	26.55
654.783	26.53
654.972	26.45
655.161	26.38
655.35	26.21
655.539	26.3
655.728	26.24
655.916	26.29
656.105	26.1
656.294	26.08
656.483	25.91
656.672	26.06
656.86	26.01
657.049	25.99
657.238	25.96
657.427	25.9
657.615	25.89
657.804	25.9
657.993	25.79
658.181	26.02
658.37	25.87
658.559	26.05
658.747	25.81
658.936	25.72
659.125	25.44
659.313	25.39
659.502	25.53
659.69	25.37
659.879	25.35
660.067	25.31
660.256	25.37
660.444	25.4
660.633	25.43
660.821	25.45
661.01	25.56
661.198	26.03
661.387	25.92
661.575	25.8
661.763	25.82
661.952	25.86
662.14	26.17
662.328	26.01
662.517	26.04
662.705	25.95
662.893	26
663.082	25.75
663.27	25.73
663.458	26.2
663.646	26.2
663.834	26.16
664.023	26.11
664.211	26.09
664.399	26.15
664.587	26.38
664.775	26.41
664.963	26.59
665.152	26.98
665.34	26.89
665.528	26.5
665.716	26.67
665.904	26.76
666.092	27.01
666.28	26.99
666.468	26.7
666.656	26.37
666.844	26.3
667.032	26.34
667.22	25.99
667.408	25.9
667.596	25.81
667.784	25.8
667.971	25.82
668.159	25.84
668.347	25.71
668.535	26.17
668.723	26.4
668.911	26.47
669.098	26.32
669.286	26.35
669.474	26.45
669.662	26.64
669.849	26.52
670.037	26.13
670.225	25.87
670.413	25.87
670.6	25.86
670.788	25.76
670.976	25.86
671.163	25.9
671.351	26.28
671.538	26.22
671.726	26.23
671.913	26.28
672.101	26.97
672.289	27.03
672.476	27.19
672.664	27.13
672.851	27.17
673.039	27.37
673.226	27.46
673.413	27.32
673.601	27.49
673.788	27.48
673.976	27.46
674.163	27.19
674.35	27.17
674.538	26.87
674.725	26.8
674.912	26.83
675.1	26.56
675.287	26.61
675.474	26.47
675.662	26.46
675.849	26.48
676.036	26.39
676.223	26.56
676.411	26.54
676.598	26.89
676.785	27.01
676.972	27.2
677.159	27.45
677.346	27.24
677.533	27.36
677.721	27.08
677.908	27.02
678.095	27.16
678.282	27.07
678.469	27.26
678.656	27.12
678.843	27.03
679.03	26.95
679.217	26.92
679.404	26.9
679.591	26.94
679.778	27
679.964	27.2
680.151	27.33
680.338	27.4
680.525	27.31
680.712	27.31
680.899	27.18
681.086	27.07
681.272	26.73
681.459	26.85
681.646	26.97
681.833	27.15
682.02	26.84
682.206	26.78
682.393	26.84
682.58	26.9
682.766	27
682.953	27.16
683.14	27.22
683.326	27.45
683.513	27.49
683.7	27.15
683.886	27.09
684.073	27.38
684.259	27.31
684.446	27.43
684.632	27.28
684.819	27.33
685.005	27.46
685.192	27.75
685.378	27.73
685.565	27.83
685.751	27.87
685.938	27.73
686.124	27.91
686.31	27.79
686.497	27.69
686.683	27.84
686.87	27.66
687.056	27.43
687.242	27.22
687.429	27.2
687.615	26.85
687.801	26.98
687.987	27.18
688.174	26.95
688.36	26.9
688.546	26.81
688.732	26.72
688.918	26.87
689.105	26.83
689.291	26.83
689.477	27.12
689.663	27.5
689.849	27.6
690.035	27.6
690.221	27.54
690.407	27.8
690.593	27.92
690.779	27.84
690.965	27.86
691.151	27.93
691.337	28.06
691.523	27.89
691.709	27.71
691.895	27.58
692.081	27.61
692.267	27.66
692.453	28.03
692.639	28.01
692.825	28.32
693.011	28.41
693.196	28.6
693.382	28.26
693.568	28.53
693.754	28.52
693.94	28.77
694.125	28.79
694.311	28.68
694.497	28.55
694.682	28.2
694.868	27.99
695.054	27.74
695.239	27.99
695.425	28.29
695.611	28.1
695.796	28.42
695.982	28.3
696.168	28.29
696.353	28.56
696.539	28.25
696.724	28.59
696.91	28.74
697.095	28.7
697.281	28.36
697.466	28.08
697.652	27.82
697.837	27.83
698.023	27.55
698.208	27.56
698.393	27.6
698.579	27.59
698.764	27.75
698.949	27.68
699.135	27.72
699.32	27.89
699.505	28.02
699.691	28.1
699.876	28.03
700.061	28.24
700.246	28.3
700.432	28.32
700.617	28.55
700.802	28.39
700.987	28.47
701.172	28.67
701.358	28.68
701.543	28.71
701.728	28.93
701.913	29.1
702.098	29.19
702.283	29.05
702.468	28.91
702.653	28.72
702.838	28.59
703.023	28.56
703.208	28.44
703.393	28.54
703.578	28.54
703.763	28.55
703.948	28.36
704.133	28.57
704.318	28.7
704.503	28.77
704.688	28.88
704.873	28.72
705.057	28.98
705.242	29.02
705.427	28.95
705.612	28.98
705.797	29.15
705.981	29.13
706.166	29.09
706.351	29.29
706.536	29.35
706.72	29.31
706.905	29.62
707.09	29.65
707.274	29.76
707.459	29.83
707.644	30.17
707.828	30.17
708.013	30.18
708.197	30.32
708.382	30.08
708.567	30.08
708.751	30.43
708.936	30.4
709.12	30.3
709.305	30.26
709.489	30.47
709.673	30.34
709.858	29.97
710.042	29.97
710.227	29.65
710.411	29.88
710.596	30.14
710.78	29.86
710.964	29.6
711.149	29.53
711.333	29.78
711.517	29.6
711.702	29.56
711.886	29.79
712.07	30.01
712.254	29.94
712.438	29.77
712.623	29.38
712.807	29.5
712.991	29.88
713.175	29.9
713.359	29.33
713.544	29.32
713.728	29.16
713.912	28.9
714.096	28.76
714.28	28.95
714.464	28.96
714.648	28.65
714.832	28.71
715.016	28.64
715.2	28.39
715.384	28.84
715.568	28.78
715.752	28.98
715.936	29.21
716.12	29.31
716.304	29.6
716.488	29.83
716.671	30.28
716.855	30.32
717.039	30.36
717.223	30.51
717.407	30.26
717.59	30.46
717.774	30.57
717.958	30.71
718.142	30.6
718.325	30.08
718.509	29.88
718.693	29.96
718.877	29.81
719.06	29.59
719.244	29.8
719.428	29.99
719.611	29.92
719.795	29.99
719.978	30.08
720.162	29.94
720.345	29.96
720.529	30.37
720.713	30.5
720.896	30.32
721.08	30.26
721.263	30.09
721.446	30.36
721.63	29.99
721.813	30.01
721.997	29.97
722.18	30.35
722.364	30.84
722.547	30.25
722.73	30.14
722.914	30.53
723.097	30.87
723.28	30.79
723.464	30.59
723.647	30.45
723.83	30.17
724.013	30.1
724.197	29.87
724.38	29.67
724.563	30.09
724.746	30.11
724.929	30.29
725.112	30.29
725.296	30.61
725.479	30.61
725.662	31.02
725.845	31.53
726.028	31.63
726.211	31.51
726.394	31.48
726.577	31.39
726.76	30.82
726.943	30.23
727.126	30.08
727.309	30.37
727.492	30.18
727.675	29.89
727.858	29.89
728.041	29.73
728.224	30.05
728.407	30.01
728.589	30.18
728.772	30.75
728.955	31.02
729.138	31.01
729.321	30.46
729.503	30.72
729.686	30.86
729.869	30.76
730.052	30.75
730.234	30.8
730.417	30.86
730.6	30.55
730.782	30.4
730.965	30.44
731.148	30.66
731.33	31.1
731.513	30.98
731.695	31.03
731.878	31.04
732.061	31.36
732.243	31.14
732.426	31.46
732.608	31.69
732.791	31.88
732.973	32.04
733.156	32.4
733.338	32.41
733.52	32.39
733.703	32.31
733.885	32.2
734.068	32.35
734.25	32.94
734.432	32.58
734.615	32.41
734.797	32.84
734.979	32.73
735.162	32.42
735.344	32.02
735.526	32.17
735.708	32.87
735.891	32.74
736.073	32.69
736.255	32.48
736.437	32.49
736.619	32.52
736.802	32.07
736.984	31.85
737.166	31.98
737.348	32.24
737.53	32.64
737.712	32.2
737.894	32.19
738.076	32.07
738.258	32.12
738.44	32.15
738.622	32.33
738.804	32.23
738.986	32.4
739.168	32.2
739.35	31.86
739.532	31.32
739.714	31.5
739.896	31.77
740.078	31.81
740.259	31.06
740.441	31.14
740.623	30.94
740.805	31.09
740.987	31.08
741.168	31.23
741.35	31.5
741.532	32.12
741.714	31.93
741.895	31.82
742.077	32.21
742.259	32.57
742.44	32.7
742.622	33.32
742.804	33.49
742.985	33.34
743.167	33.56
743.348	34.08
743.53	33.61
743.711	33.62
743.893	33.56
744.075	33.16
744.256	33.55
744.438	33.6
744.619	33.44
744.8	33.67
744.982	34.1
745.163	33.47
745.345	32.53
745.526	33.06
745.707	32.94
745.889	32.82
746.07	32.89
746.252	32.66
746.433	32.8
746.614	32.71
746.795	32.3
746.977	32.13
747.158	32.65
747.339	33.72
747.52	33.17
747.702	32.99
747.883	33.62
748.064	33.78
748.245	33.71
748.426	33.27
748.607	33.43
748.788	33.49
748.97	33.25
749.151	32.92
749.332	33.06
749.513	32.84
749.694	33
749.875	32.35
750.056	31.69
750.237	31.83
750.418	32.38
750.599	32.21
750.78	32.24
750.96	31.89
751.141	32.33
751.322	31.71
751.503	31.57
751.684	32.35
751.865	32.45
752.046	33.28
752.226	32.69
752.407	32.81
752.588	32.33
752.769	32.25
752.949	33.42
753.13	33.25
753.311	33.43
753.492	33.62
753.672	32.98
753.853	33.4
754.034	33.06
754.214	33.99
754.395	34.06
754.575	34.7
754.756	34.38
754.937	33.87
755.117	34.21
755.298	34.17
755.478	34.88
755.659	34.85
755.839	34.4
756.02	34.17
756.2	34.08
756.381	34.32
756.561	34.17
756.741	34.53
756.922	34.81
757.102	34.56
757.283	34.39
757.463	33.27
757.643	33.32
757.823	32.95
758.004	33.04
758.184	32.77
758.364	31.67
758.545	30.98
758.725	31.29
758.905	31.36
759.085	31.35
759.265	30.93
759.446	31.64
759.626	31.83
759.806	31.98
759.986	31.72
760.166	31.47
760.346	32.02
760.526	32.8
760.706	32.72
760.886	32.09
761.066	31.88
761.246	32.29
761.426	31.91
761.606	31.63
761.786	31.49
761.966	31.99
762.146	32.12
762.326	31.6
762.506	31.64
762.686	31.03
762.866	31.25
763.046	30.96
763.225	31
763.405	31.04
763.585	31.03
763.765	30.96
763.945	30.88
764.124	30.59
764.304	31.01
764.484	30.82
764.664	31.02
764.843	31.06
765.023	31.27
765.203	31.43
765.382	31.36
765.562	31.74
765.741	32.08
765.921	32.07
766.101	32.42
766.28	32.14
766.46	31.95
766.639	32.52
766.819	32.64
766.998	33.07
767.178	32.89
767.357	33.38
767.537	32.76
767.716	32.67
767.896	32.44
768.075	32.58
768.254	32.45
768.434	32.9
768.613	32.52
768.792	32.45
768.972	32.81
769.151	31.8
769.33	31.32
769.51	31.84
769.689	32.38
769.868	32.6
770.047	32.51
770.226	32.71
770.406	32.68
770.585	33.42
770.764	34.06
770.943	33.61
771.122	34.38
771.301	34.99
771.48	35.38
771.66	35.06
771.839	35.5
772.018	35.69
772.197	36.12
772.376	36.19
772.555	35.8
772.734	34.97
772.913	35
773.092	36.18
773.271	35.9
773.449	36.15
773.628	36.04
773.807	35.81
773.986	36.48
774.165	37.08
774.344	37.04
774.523	36.8
774.701	36.83
774.88	36.54
775.059	35.91
775.238	36.01
775.417	36.2
775.595	36.74
775.774	36.95
775.953	35.6
776.131	35.31
776.31	35.01
776.489	35.58
776.667	35.48
776.846	36.35
777.025	36.22
777.203	35.66
777.382	34.89
777.56	34.18
777.739	33.43
777.917	34.37
778.096	33.24
778.274	34.05
778.453	33.61
778.631	34.4
778.81	33.9
778.988	34.58
779.166	35.06
779.345	35.25
779.523	35.99
779.702	36.75
779.88	37
780.058	37.54
780.237	36.68
780.415	36.34
780.593	35.53
780.771	35.45
780.95	35.11
781.128	35.64
781.306	36.46
781.484	36.39
781.662	36.21
781.841	35.69
782.019	35.54
782.197	36.31
782.375	36.69
782.553	37.62
782.731	37.92
782.909	37.19
783.087	36.87
783.265	36.23
783.443	35.04
783.621	34.68
783.799	35.25
783.977	35.03
784.155	34.05
784.333	33.92
784.511	33.19
784.689	32.8
784.867	33.28
785.045	32.8
785.223	32.3
785.4	33.71
785.578	33.28
785.756	32.95
785.934	33.87
786.112	34.78
786.289	34.99
786.467	34.81
786.645	34.62
786.823	35.12
787	35.57
787.178	35.12
787.356	34.84
787.533	35.18
787.711	35.44
787.889	36.07
788.066	36.06
788.244	35.87
788.421	35.66
788.599	35.49
788.776	35.54
788.954	35.91
789.131	36.19
789.309	36.16
789.486	36.28
789.664	35.52
789.841	35.12
790.019	35.08
790.196	35.39
790.373	35.92
790.551	36.76
790.728	36.16
790.906	35.99
791.083	35.58
791.26	35.26
791.437	34.62
791.615	35.34
791.792	34.7
791.969	35.1
792.146	35.3
792.324	35.43
792.501	35.06
792.678	35.8
792.855	36.33
793.032	37.25
793.209	38.04
793.387	38.58
793.564	38.31
793.741	38.4
793.918	37.38
794.095	36.9
794.272	37.07
794.449	36.72
794.626	35.16
794.803	33.87
794.98	34.51
795.157	34.14
795.334	34.02
795.511	34.19
795.688	34.44
795.864	35.2
796.041	35.16
796.218	34.43
796.395	34.6
796.572	35.46
796.749	35.12
796.925	34.58
797.102	34.2
797.279	34.91
797.456	35.19
797.632	35.14
797.809	34.88
797.986	35.39
798.162	35.26
798.339	35.89
798.516	35.85
798.692	37.14
798.869	37.12
799.046	37.96
799.222	37.47
799.399	37.55
799.575	37.89
799.752	37.58
799.928	37.21
800.105	37.8
800.281	38.09
800.458	37.95
800.634	37.62
800.811	38.6
800.987	38.05
801.163	38.88
801.34	38.39
801.516	37.78
801.692	38.01
801.869	38.31
802.045	37.84
802.221	37.67
802.398	37.87
802.574	38.42
802.75	37.69
802.926	38.26
803.103	38.25
803.279	37.95
803.455	39.18
803.631	39.42
803.807	38.94
803.983	40.15
804.16	39.34
804.336	39.18
804.512	39.21
804.688	38.83
804.864	38.55
805.04	37.27
805.216	37.75
805.392	37.17
805.568	37.72
805.744	38.03
805.92	37.82
806.096	38.79
806.272	38.79
806.448	38.78
806.623	38.92
806.799	38.93
806.975	39.42
807.151	40.99
807.327	40.87
807.503	39.82
807.678	39.65
807.854	40.21
808.03	39.57
808.206	39.44
808.381	38.98
808.557	39.69
808.733	39.6
808.908	39.25
809.084	36.9
809.26	36.36
809.435	36.54
809.611	37.05
809.787	36.17
809.962	34.43
810.138	36.01
810.313	36.16
810.489	36.11
810.664	35.2
810.84	36.04
811.015	37.69
811.191	38.99
811.366	38.82
811.542	38.96
811.717	40.17
811.892	42.08
812.068	40.04
812.243	41.12
812.419	39.75
812.594	42.03
812.769	41.56
812.944	41.07
813.12	40.67
813.295	40.89
813.47	40.01
813.645	39.5
813.821	39.37
813.996	40.23
814.171	39.42
814.346	40.43
814.521	38.39
814.697	38.6
814.872	38.8
815.047	38.49
815.222	38.93
815.397	39.42
815.572	39.38
815.747	40.21
815.922	40.77
816.097	41.54
816.272	41.43
816.447	41.93
816.622	42.46
816.797	42.54
816.972	42.71
817.147	41.67
817.322	41.91
817.496	40.07
817.671	40.34
817.846	40.55
818.021	38.98
818.196	39.55
818.371	38.48
818.545	37.82
818.72	38.1
818.895	37.91
819.069	37.88
819.244	37.75
819.419	38.45
819.594	36.64
819.768	35.46
819.943	34.83
820.117	33.55
820.292	33.24
820.467	32.92
820.641	31.66
820.816	30.91
820.99	30.18
821.165	28.71
821.339	28.1
821.514	27.86
821.688	27.36
821.863	27.24
822.037	27.18
822.212	27.1
822.386	26.81
822.56	26.7
822.735	26.81
822.909	26.99
823.084	27.25
823.258	27.19
823.432	27.37
823.606	27.66
823.781	27.82
823.955	27.98
824.129	28.37
824.303	28.8
824.478	28.9
824.652	28.96
824.826	29.11
825	29.42
825.174	29.84
825.348	29.55
825.523	29.83
825.697	29.82
825.871	29.13
826.045	28.86
826.219	28.64
826.393	28.91
826.567	28.63
826.741	28.19
826.915	28.28
827.089	28.11
827.263	28.57
827.437	28.46
827.611	28.41
827.784	28.65
827.958	28.94
828.132	29.03
828.306	29.56
828.48	29.71
828.654	30.2
828.827	30.3
829.001	30.83
829.175	30.77
829.349	30.89
829.522	32.2
829.696	32.89
829.87	32.63
830.044	32.59
830.217	32.65
830.391	33.1
830.565	33.94
830.738	34.92
830.912	35.67
831.085	36.08
831.259	37.28
831.432	35.93
831.606	37.1
831.779	37.3
831.953	38.74
832.126	37.31
832.3	37.17
832.473	35.87
832.647	35.13
832.82	34.24
832.994	34.48
833.167	34.08
833.34	33.46
833.514	33.07
833.687	33.03
833.86	32.12
834.034	32.27
834.207	31.78
834.38	31.77
834.553	31.8
834.727	32.39
834.9	32.3
835.073	31.93
835.246	32.37
835.419	31.87
835.593	32.36
835.766	33
835.939	34.13
836.112	34.59
836.285	35.49
836.458	35.49
836.631	36.15
836.804	35.82
836.977	37.49
837.15	38.02
837.323	40.59
837.496	40.55
837.669	40.76
837.842	40.42
838.015	41.22
838.188	40.95
838.361	41.95
838.533	41.7
838.706	42.52
838.879	41.99
839.052	42.43
839.225	40.31
839.398	41.56
839.57	41.55
839.743	41.64
839.916	41.65
840.088	41.73
840.261	41.02
840.434	40.94
840.607	42.32
840.779	42.49
840.952	41.29
841.124	41.14
841.297	41.04
841.47	41.98
841.642	41.85
841.815	42.35
841.987	43.42
842.16	43.32
842.332	42.71
842.505	42.55
842.677	42.22
842.85	44.3
843.022	46.24
843.194	46.77
843.367	46.35
843.539	46.92
843.712	48.3
843.884	48.61
844.056	50.45
844.229	52.13
844.401	53.22
844.573	55.85
844.745	55.51
844.918	54.97
845.09	53.47
845.262	55.9
845.434	56.35
845.606	54.51
845.779	55.75
845.951	59.01
846.123	57.56
846.295	56
846.467	53.22
846.639	51.14
846.811	53.96
846.983	55.48
847.155	53.59
847.327	54.23
847.499	56.42
847.671	55.61
847.843	52.04
848.015	53.14
848.187	54.38
848.359	55.01
848.531	58.45
848.703	58.69
848.875	59.95
849.047	60.77
849.218	63.04
849.39	63.21
849.562	63.11
849.734	63.96
849.905	64.45
850.077	67.48
850.249	66.64
850.421	68.64
850.592	68.09
850.764	67.52
850.936	69.31
851.107	65.57
851.279	66.45
851.451	65.25
851.622	64.94
851.794	61.39
851.965	58.11
852.137	60.29
852.308	59.39
852.48	59.57
852.651	60.59
852.823	59.79
852.994	58.4
853.166	57.94
853.337	60.98
853.509	64.22
853.68	70.48
853.851	72.62
854.023	73.13
854.194	72.96
854.365	72.64
854.537	69.49
854.708	66.47
854.879	70.86
855.05	73.69
855.222	73.85
855.393	74.42
855.564	71.01
855.735	68.6
855.906	69.56
856.078	73.12
856.249	72.13
856.42	74.32
856.591	75.18
856.762	70.86
856.933	69.29
857.104	66.92
857.275	63.38
857.446	61.67
857.617	60.91
857.788	57.2
857.959	52.29
858.13	52.04
858.301	52.99
858.472	54.85
858.643	56.99
858.814	54.39
858.985	55.53
859.155	60.12
859.326	60.52
859.497	63.11
859.668	64.23
859.839	66.11
860.009	66.31
860.18	64.45
860.351	60.83
860.522	62.46
860.692	64.24
860.863	60.06
861.034	55.76
861.204	58.01
861.375	57.6
861.546	53.72
861.716	55.94
861.887	60.46
862.057	60.5
862.228	67.11
862.398	68.25
862.569	64.4
862.739	67.74
862.91	68.31
863.08	68.13
863.251	64.67
863.421	66.63
863.592	64.28
863.762	64.28
863.932	65.82
864.103	61.64
864.273	62.1
864.443	63.35
864.614	64.76
864.784	62.07
864.954	57.63
865.125	58.78
865.295	57.86
865.465	57.49
865.635	53.75
865.805	53.44
865.976	55.44
866.146	53.07
866.316	55.47
866.486	54.54
866.656	56.51
866.826	63.05
866.996	65.39
867.166	68.12
867.336	67.52
867.506	68.83
867.676	67.61
867.846	65.86
868.016	63.54
868.186	63.03
868.356	61.1
868.526	64.91
868.696	59.31
868.866	59.82
869.036	61.59
869.206	64.76
869.376	63.9
869.545	63.14
869.715	66.3
869.885	69
870.055	66
870.224	68.71
870.394	67.32
870.564	69.89
870.734	64.58
870.903	64.35
871.073	63.34
871.243	61.45
871.412	62.82
871.582	61.68
871.751	64.31
871.921	66.54
872.091	66.7
872.26	65.01
872.43	63.5
872.599	69.89
872.769	66.87
872.938	69.08
873.108	73.22
873.277	73.43
873.446	74.05
873.616	73.72
873.785	74.9
873.955	76.29
874.124	77.32
874.293	79.06
874.463	77.57
874.632	76.37
874.801	70.88
874.971	71.05
875.14	66.6
875.309	66.79
875.478	58.96
875.647	59.42
875.817	58.79
875.986	59.59
876.155	61.03
876.324	63.48
876.493	65.03
876.662	64.29
876.831	63.77
877	69.77
877.17	65.5
877.339	67.04
877.508	66.57
877.677	65.36
877.846	64.64
878.015	65.35
878.184	63.22
878.352	61.04
878.521	62.56
878.69	57.38
878.859	52.78
879.028	54.11
879.197	56.05
879.366	53.01
879.534	51.17
879.703	51.44
879.872	46.86
880.041	45.03
880.21	43.87
880.378	41.38
880.547	41.01
880.716	40.18
880.884	38.46
881.053	35.05
881.222	33.76
881.39	32.32
881.559	30.1
881.727	29.5
881.896	28.92
882.065	28.68
882.233	28.94
882.402	28.31
882.57	28.23
882.739	28.3
882.907	29.28
883.076	29.55
883.244	29.42
883.412	29.82
883.581	30.08
883.749	30.46
883.918	30.14
884.086	30.03
884.254	30.89
884.423	30.89
884.591	31.58
884.759	32.45
884.927	32.9
885.096	35.42
885.264	37.65
885.432	39.96
885.6	40.2
885.769	41.23
885.937	43.9
886.105	46.2
886.273	49.37
886.441	49.36
886.609	49.16
886.777	49.04
886.945	47.23
887.113	49.83
887.281	49.3
887.449	50.67
887.617	55.32
887.785	54.72
887.953	54.1
888.121	51.53
888.289	49.04
888.457	50.68
888.625	53.59
888.793	57.18
888.961	53.64
889.129	53.36
889.296	55.26
889.464	54.93
889.632	55.72
889.8	56.72
889.967	59
890.135	65.95
