Data from 2938740__Reflection_03.txt Node
Date: Sun Mar 15 12:24:33 EDT 2015
User: robert
Spectrometer: USB4E03002
Autoset integration time: false
Trigger mode: 4
Integration Time (sec): 1.000000E-1
Scans to average: 10
Electric dark correction enabled: false
Nonlinearity correction enabled: false
Boxcar width: 5
Stray light correction enabled: false
XAxis mode: Wavelengths
Stop averaging: false
Number of Pixels in Spectrum: 3648
>>>>>Begin Spectral Data<<<<<
177.575	-136.12
177.794	-360.43
178.014	-590
178.233	-1083.33
178.452	1011.27
178.672	431.91
178.891	205.26
179.11	114.68
179.33	92.78
179.549	70.28
179.768	64.31
179.987	67.22
180.207	73.66
180.426	101.95
180.645	99.11
180.864	87.9
181.084	91.46
181.303	94.02
181.522	98.61
181.741	70.34
181.96	110.67
182.179	103.23
182.398	99.04
182.618	114.75
182.837	80.7
183.056	72.33
183.275	70.4
183.494	69.42
183.713	81.68
183.932	78.92
184.151	106.61
184.37	100.44
184.589	111.12
184.808	120.85
185.027	105.75
185.246	97.52
185.465	99.65
185.684	95.72
185.903	94.94
186.122	98.39
186.341	112.71
186.56	95.72
186.779	102.4
186.998	86.4
187.216	84.45
187.435	82.94
187.654	82.46
187.873	80.89
188.092	90.24
188.311	88.15
188.53	71.57
188.748	63.36
188.967	67.99
189.186	63.7
189.405	66.36
189.623	64.44
189.842	58.93
190.061	64.91
190.28	75.83
190.498	77.9
190.717	78.7
190.936	83.06
191.154	78.55
191.373	73.42
191.592	65.49
191.81	67.9
192.029	73.68
192.248	88.66
192.466	89.86
192.685	71.27
192.904	62.37
193.122	61.6
193.341	54.75
193.559	76.37
193.778	71.85
193.996	78.44
194.215	64.79
194.433	61.71
194.652	41.9
194.87	42.25
195.089	48.65
195.307	55.18
195.526	66.24
195.744	70.69
195.963	59.02
196.181	62.58
196.399	66.02
196.618	80.45
196.836	71.78
197.055	88.21
197.273	90.37
197.491	100.61
197.71	102.28
197.928	92.16
198.146	100
198.365	94.14
198.583	114.18
198.801	101.87
199.019	100.28
199.238	115.2
199.456	120.65
199.674	105.46
199.892	87.7
200.111	93.32
200.329	84.65
200.547	76.05
200.765	88.53
200.983	79.61
201.202	90.69
201.42	82.71
201.638	73.55
201.856	62.39
202.074	56.54
202.292	55.22
202.51	62.33
202.728	64.01
202.946	69.64
203.165	70.31
203.383	57.97
203.601	46.88
203.819	44.22
204.037	43.47
204.255	52.51
204.473	66.57
204.691	76.48
204.909	68.03
205.127	74.66
205.345	78.45
205.562	73.64
205.78	80.79
205.998	75.45
206.216	77.08
206.434	78.1
206.652	72.2
206.87	69.91
207.088	64.16
207.306	71.11
207.523	67.47
207.741	64.39
207.959	59.1
208.177	61.54
208.395	71.41
208.612	70.25
208.83	77.02
209.048	86.72
209.266	81.97
209.483	89.56
209.701	80.68
209.919	98.78
210.136	92.7
210.354	88.27
210.572	84.31
210.79	78.23
211.007	83.53
211.225	75.75
211.442	65.18
211.66	66.93
211.878	63.7
212.095	67.97
212.313	66.06
212.53	62.24
212.748	66.85
212.966	70.8
213.183	67.6
213.401	67.53
213.618	71.13
213.836	72.12
214.053	68.77
214.271	70.3
214.488	67.22
214.705	67.13
214.923	72.71
215.14	72.08
215.358	66.58
215.575	79.27
215.793	83.48
216.01	77.06
216.227	76.24
216.445	87.06
216.662	86.59
216.879	81.37
217.097	74.01
217.314	72.47
217.531	73.88
217.749	76.37
217.966	69.88
218.183	62.94
218.4	67.21
218.618	67.6
218.835	59.62
219.052	57.29
219.269	66.19
219.487	57.29
219.704	59.9
219.921	60.02
220.138	58.87
220.355	52.54
220.572	51.95
220.79	51.43
221.007	53.58
221.224	51.05
221.441	47.06
221.658	46.84
221.875	50.25
222.092	48.19
222.309	44.23
222.526	37.3
222.743	34.28
222.96	30.04
223.177	27.72
223.394	25.87
223.611	21.82
223.828	23.23
224.045	21.43
224.262	19.45
224.479	19.99
224.696	22.07
224.913	21.54
225.13	22.96
225.347	25.82
225.564	25.21
225.781	22.19
225.997	24.66
226.214	21.72
226.431	17.45
226.648	15.21
226.865	13.14
227.082	13.36
227.298	13.13
227.515	12.95
227.732	11.05
227.949	10.19
228.165	10.07
228.382	9.65
228.599	9.5
228.816	10.17
229.032	9.85
229.249	9.98
229.466	9.46
229.682	9.69
229.899	9.87
230.116	10.33
230.332	10.02
230.549	10.68
230.765	10.58
230.982	10.75
231.199	10.55
231.415	11.4
231.632	11.32
231.848	10.84
232.065	10.89
232.281	8.75
232.498	7.22
232.714	8.76
232.931	7.42
233.147	6.58
233.364	6.23
233.58	5.59
233.797	6.15
234.013	6.23
234.23	7.54
234.446	7.03
234.662	7.76
234.879	8.61
235.095	8.62
235.312	8.71
235.528	9.08
235.744	9.61
235.961	12.01
236.177	11.94
236.393	12.06
236.61	11.23
236.826	11.87
237.042	12.19
237.258	13.19
237.475	12.06
237.691	12.64
237.907	13.88
238.123	13.55
238.339	12.22
238.556	13.28
238.772	13.68
238.988	13.55
239.204	12.35
239.42	13.18
239.636	11.39
239.853	12
240.069	11.68
240.285	11.28
240.501	11.18
240.717	10.6
240.933	9.45
241.149	9.62
241.365	9.89
241.581	9.93
241.797	9.2
242.013	8.87
242.229	8.76
242.445	8.63
242.661	7.82
242.877	7.78
243.093	7.2
243.309	7.32
243.525	6.85
243.741	6.59
243.957	6.61
244.173	6.2
244.388	6.25
244.604	5.45
244.82	5.96
245.036	6.67
245.252	6.63
245.468	6.91
245.683	6.45
245.899	6.19
246.115	6.28
246.331	6.21
246.547	6.56
246.762	6.38
246.978	6.57
247.194	6.39
247.409	5.98
247.625	6.27
247.841	6.32
248.057	6.47
248.272	6.41
248.488	6.13
248.703	6.32
248.919	6.29
249.135	6.61
249.35	6.77
249.566	7.21
249.782	8.37
249.997	7.76
250.213	8.36
250.428	7.82
250.644	8.09
250.859	9.15
251.075	9.23
251.29	8.26
251.506	8.06
251.721	8.36
251.937	8.05
252.152	7.69
252.368	8.33
252.583	7.56
252.798	7.76
253.014	7.8
253.229	6.71
253.445	6.14
253.66	7.05
253.875	7.34
254.091	6.83
254.306	6.78
254.521	7.13
254.737	6.92
254.952	7.8
255.167	8.34
255.383	7.88
255.598	8.95
255.813	9.17
256.028	9.63
256.244	9.32
256.459	8.94
256.674	8.73
256.889	7.66
257.104	6.88
257.32	5.75
257.535	5.52
257.75	5.21
257.965	4.9
258.18	5.04
258.395	4.57
258.61	4.88
258.826	4.92
259.041	4.64
259.256	4.79
259.471	4.93
259.686	5.24
259.901	5.1
260.116	5.44
260.331	5.4
260.546	5.24
260.761	5.42
260.976	5.31
261.191	5.52
261.406	5.57
261.621	5.75
261.836	5.42
262.05	5.69
262.265	5.81
262.48	6.02
262.695	5.98
262.91	6.14
263.125	5.84
263.34	5.82
263.555	5.67
263.769	6.08
263.984	6.07
264.199	6.51
264.414	6.22
264.629	7.33
264.843	6.73
265.058	6.89
265.273	6.76
265.488	7.14
265.702	6.9
265.917	6.35
266.132	6.35
266.346	6.26
266.561	6.14
266.776	6.16
266.99	5.66
267.205	6.17
267.42	6.09
267.634	5.96
267.849	5.24
268.063	5.34
268.278	6.22
268.492	5.67
268.707	6.2
268.922	6.72
269.136	6.58
269.351	6.5
269.565	5.88
269.78	5.8
269.994	6.05
270.209	6.24
270.423	6.26
270.637	5.22
270.852	5.69
271.066	5.15
271.281	4.83
271.495	4.66
271.709	4.65
271.924	4.64
272.138	4.94
272.353	4.58
272.567	4.92
272.781	4.91
272.996	5.19
273.21	5.12
273.424	5.09
273.638	4.72
273.853	4.84
274.067	4.83
274.281	5.16
274.495	4.96
274.71	5.73
274.924	5.39
275.138	5.7
275.352	5.67
275.566	5.88
275.781	5.3
275.995	5.7
276.209	5.89
276.423	5.62
276.637	5.42
276.851	5.64
277.065	4.96
277.279	5.78
277.493	5.36
277.707	5.25
277.921	5.13
278.135	5.74
278.349	5.79
278.563	5.68
278.777	5.76
278.991	5.77
279.205	6.19
279.419	6.33
279.633	6.25
279.847	6.39
280.061	6.34
280.275	6.24
280.489	6.31
280.703	6.68
280.917	6.87
281.131	7.05
281.344	7.19
281.558	6.6
281.772	6.81
281.986	6.6
282.2	6.22
282.414	5.99
282.627	5.71
282.841	5.17
283.055	4.67
283.269	4.79
283.482	4.05
283.696	3.7
283.91	3.57
284.123	3.02
284.337	3.06
284.551	3.36
284.764	3.87
284.978	4.25
285.192	4.2
285.405	4.25
285.619	4.15
285.833	4.73
286.046	4.68
286.26	4.65
286.473	5.15
286.687	4.99
286.9	4.81
287.114	4.8
287.327	4.78
287.541	5.21
287.754	5.68
287.968	5.43
288.181	5.35
288.395	5.63
288.608	5.9
288.822	5.6
289.035	5.46
289.248	5.67
289.462	5.54
289.675	5.13
289.889	5.03
290.102	4.85
290.315	5.09
290.529	5.12
290.742	5.26
290.955	5.37
291.169	5.18
291.382	5.11
291.595	4.91
291.808	4.99
292.022	4.77
292.235	5.01
292.448	4.37
292.661	4.64
292.875	4.69
293.088	4.7
293.301	4.33
293.514	4.72
293.727	4.85
293.94	4.88
294.153	4.84
294.367	5.21
294.58	4.95
294.793	5.3
295.006	4.98
295.219	4.66
295.432	4.56
295.645	4.7
295.858	4.56
296.071	4.59
296.284	4.65
296.497	4.57
296.71	4.74
296.923	4.82
297.136	5.3
297.349	5.08
297.562	5.72
297.775	5.89
297.988	5.83
298.201	5.92
298.414	6.1
298.626	6.35
298.839	6.34
299.052	6.2
299.265	6.5
299.478	6.13
299.691	6.36
299.903	5.54
300.116	5.17
300.329	5.01
300.542	4.98
300.755	5.01
300.967	4.82
301.18	5.2
301.393	5.6
301.605	5.25
301.818	5.14
302.031	5.37
302.243	5.27
302.456	5.55
302.669	5.84
302.881	5.97
303.094	5.68
303.307	5.88
303.519	5.77
303.732	5.38
303.944	5.63
304.157	5.93
304.37	5.91
304.582	6.26
304.795	6.26
305.007	6.59
305.22	6.75
305.432	6.97
305.645	6.62
305.857	6.69
306.069	7.05
306.282	7.25
306.494	7.02
306.707	6.62
306.919	6.8
307.132	6.99
307.344	6.94
307.556	6.78
307.769	6.8
307.981	6.96
308.193	6.68
308.406	6.54
308.618	6.26
308.83	6.23
309.043	6.53
309.255	6.59
309.467	6.48
309.679	6.06
309.892	6.29
310.104	6.38
310.316	6.33
310.528	6.54
310.74	6.54
310.953	6.32
311.165	6.16
311.377	6.5
311.589	6.47
311.801	6.65
312.013	6.65
312.225	6.72
312.437	6.67
312.649	6.83
312.862	6.92
313.074	6.91
313.286	7.34
313.498	7.75
313.71	7.5
313.922	7.52
314.134	7.14
314.346	7.54
314.558	7.34
314.77	7.11
314.982	7.62
315.193	7.11
315.405	7.32
315.617	7.38
315.829	7.71
316.041	8.18
316.253	8.43
316.465	8.49
316.677	8.53
316.888	8.6
317.1	8.68
317.312	8.23
317.524	8.93
317.736	8.84
317.947	8.67
318.159	8.63
318.371	8.37
318.583	8.6
318.794	8.84
319.006	8.87
319.218	8.94
319.43	9.1
319.641	9.49
319.853	9.62
320.064	9.86
320.276	9.95
320.488	9.92
320.699	9.82
320.911	9.5
321.123	9.28
321.334	9
321.546	9.19
321.757	9.41
321.969	9.38
322.18	9.2
322.392	9.15
322.603	9.6
322.815	9.5
323.026	9.93
323.238	9.94
323.449	10.35
323.661	10.69
323.872	10.74
324.083	11.13
324.295	10.66
324.506	10.65
324.718	10.76
324.929	10.75
325.14	10.9
325.352	10.75
325.563	10.3
325.774	9.92
325.986	9.77
326.197	9.48
326.408	9.15
326.62	9.35
326.831	9.59
327.042	9.58
327.253	9.65
327.464	9.81
327.676	9.93
327.887	10.48
328.098	10.66
328.309	11.3
328.52	11.3
328.732	11.23
328.943	11.46
329.154	11.57
329.365	11.45
329.576	11.26
329.787	11.14
329.998	11.15
330.209	11.43
330.42	11.76
330.631	11.15
330.842	11.28
331.053	11.29
331.264	10.68
331.475	10.43
331.686	9.97
331.897	9.65
332.108	9.67
332.319	9.79
332.53	9.59
332.741	9.18
332.952	9.06
333.163	9.22
333.374	9.36
333.585	9.86
333.795	9.61
334.006	10.17
334.217	10.44
334.428	10.19
334.639	9.95
334.849	9.8
335.06	10.29
335.271	10.63
335.482	10.64
335.692	10.77
335.903	10.66
336.114	10.62
336.325	10.61
336.535	10.5
336.746	10.58
336.957	10.45
337.167	10.81
337.378	10.37
337.589	9.99
337.799	10.25
338.01	9.88
338.22	9.74
338.431	9.93
338.642	9.76
338.852	9.74
339.063	9.97
339.273	9.93
339.484	9.35
339.694	9.44
339.905	9.82
340.115	9.28
340.326	9.26
340.536	9.64
340.746	9.39
340.957	9.3
341.167	9.27
341.378	9
341.588	9.23
341.799	9.63
342.009	9.4
342.219	9.01
342.43	9.23
342.64	9.52
342.85	9.56
343.061	10.08
343.271	10.37
343.481	10.6
343.691	10.5
343.902	10.3
344.112	10.05
344.322	10.08
344.532	10.16
344.743	9.9
344.953	9.71
345.163	9.29
345.373	9.02
345.583	8.63
345.793	8.16
346.004	8.35
346.214	8.67
346.424	8.81
346.634	8.81
346.844	8.95
347.054	8.92
347.264	8.94
347.474	9.16
347.684	9.12
347.894	9.49
348.104	9.68
348.314	9.72
348.524	9.51
348.734	9.19
348.944	9.49
349.154	9.21
349.364	9.65
349.574	9.55
349.784	9.43
349.994	9.44
350.204	9.39
350.413	9.51
350.623	9.67
350.833	9.35
351.043	9.45
351.253	9.24
351.463	9.44
351.672	9.31
351.882	9.2
352.092	9.29
352.302	8.93
352.511	9.32
352.721	9.08
352.931	8.66
353.141	8.67
353.35	8.95
353.56	8.85
353.77	9.11
353.979	8.89
354.189	8.89
354.399	9.14
354.608	9.46
354.818	8.94
355.027	9.13
355.237	9.18
355.447	9.26
355.656	8.92
355.866	8.84
356.075	8.45
356.285	8.31
356.494	8.41
356.704	8.46
356.913	8.39
357.123	8.49
357.332	8.27
357.542	8.04
357.751	8.15
357.96	8.45
358.17	8.54
358.379	8.63
358.589	8.85
358.798	8.85
359.007	8.54
359.217	8.87
359.426	8.67
359.635	8.84
359.845	8.89
360.054	8.75
360.263	8.46
360.472	8.38
360.682	8.28
360.891	8.01
361.1	7.91
361.309	7.94
361.519	7.65
361.728	7.71
361.937	7.63
362.146	7.84
362.355	7.91
362.564	7.89
362.774	8.17
362.983	8.24
363.192	8.61
363.401	8.83
363.61	8.61
363.819	8.77
364.028	8.64
364.237	8.94
364.446	8.84
364.655	8.89
364.864	9.13
365.073	8.82
365.282	8.89
365.491	8.7
365.7	8.62
365.909	8.61
366.118	8.58
366.327	8.61
366.536	8.25
366.745	8.24
366.954	8.1
367.162	7.92
367.371	7.91
367.58	7.86
367.789	7.83
367.998	7.68
368.207	8
368.415	7.84
368.624	7.83
368.833	8.01
369.042	8.06
369.25	8.12
369.459	8.27
369.668	8.4
369.877	8.36
370.085	8.35
370.294	8.71
370.503	8.69
370.711	8.63
370.92	8.86
371.129	8.55
371.337	8.34
371.546	8.33
371.754	8.3
371.963	8.14
372.171	8.13
372.38	8.11
372.589	7.85
372.797	7.69
373.006	7.55
373.214	7.44
373.423	7.65
373.631	7.82
373.84	7.51
374.048	7.31
374.256	7.35
374.465	7.47
374.673	7.34
374.882	7.17
375.09	7.2
375.298	7.1
375.507	6.82
375.715	6.59
375.923	6.55
376.132	6.73
376.34	6.75
376.548	6.95
376.757	6.85
376.965	6.96
377.173	7.05
377.381	7.28
377.59	7.28
377.798	7.65
378.006	7.96
378.214	7.7
378.423	7.63
378.631	7.54
378.839	7.47
379.047	7.31
379.255	7.24
379.463	7.13
379.671	6.75
379.879	6.92
380.088	6.71
380.296	6.65
380.504	6.59
380.712	6.72
380.92	6.88
381.128	6.64
381.336	6.73
381.544	6.85
381.752	7.04
381.96	7.06
382.168	7.17
382.376	7.13
382.584	7.03
382.791	7.36
382.999	7.31
383.207	7.14
383.415	7.35
383.623	7.48
383.831	7.41
384.039	7.3
384.247	7.44
384.454	7.29
384.662	7.21
384.87	7.16
385.078	6.92
385.285	6.88
385.493	6.97
385.701	7.02
385.909	6.94
386.116	6.9
386.324	7
386.532	7.14
386.739	7.11
386.947	7.3
387.155	7.21
387.362	7.52
387.57	7.49
387.778	7.47
387.985	7.2
388.193	7.04
388.4	7.06
388.608	7.08
388.816	6.86
389.023	7.12
389.231	6.91
389.438	6.73
389.646	6.59
389.853	6.63
390.061	6.59
390.268	6.68
390.475	6.81
390.683	6.65
390.89	6.4
391.098	6.28
391.305	5.94
391.512	5.77
391.72	6.06
391.927	6.05
392.135	5.93
392.342	5.91
392.549	5.94
392.756	5.85
392.964	5.78
393.171	5.84
393.378	5.83
393.586	5.81
393.793	6.1
394	5.99
394.207	5.91
394.414	6.02
394.622	6.02
394.829	5.95
395.036	5.79
395.243	5.98
395.45	5.94
395.657	6.07
395.864	6.35
396.072	6.13
396.279	6.33
396.486	6.33
396.693	6.34
396.9	6.24
397.107	6.16
397.314	6.48
397.521	6.33
397.728	6.31
397.935	6.26
398.142	6.13
398.349	6.33
398.556	6.19
398.763	6.22
398.97	6.18
399.177	6.11
399.383	6.25
399.59	6.01
399.797	6.31
400.004	6.34
400.211	6.25
400.418	6.29
400.625	6.26
400.831	6.12
401.038	6.11
401.245	6.14
401.452	6.28
401.658	6.19
401.865	6.38
402.072	6.4
402.279	6.47
402.485	6.52
402.692	6.28
402.899	6.23
403.105	6.29
403.312	6.39
403.519	6.4
403.725	6.37
403.932	6.43
404.138	6.42
404.345	6.1
404.552	5.97
404.758	5.92
404.965	6.01
405.171	6.07
405.378	6.09
405.584	5.73
405.791	5.66
405.997	5.75
406.204	5.77
406.41	5.62
406.617	5.71
406.823	5.96
407.029	5.95
407.236	6.17
407.442	6
407.649	5.97
407.855	6.13
408.061	6.22
408.268	6.06
408.474	5.72
408.68	5.76
408.887	5.72
409.093	5.54
409.299	5.65
409.505	5.51
409.712	5.51
409.918	5.38
410.124	5.58
410.33	5.74
410.537	5.82
410.743	6.06
410.949	5.91
411.155	5.98
411.361	5.92
411.567	5.86
411.773	5.9
411.98	5.99
412.186	6.25
412.392	6.31
412.598	6.1
412.804	6.2
413.01	6.14
413.216	6.26
413.422	6.22
413.628	6.46
413.834	6.46
414.04	6.48
414.246	6.53
414.452	6.5
414.658	6.28
414.864	6.38
415.07	6.28
415.275	6.48
415.481	6.56
415.687	6.55
415.893	6.45
416.099	6.68
416.305	6.68
416.511	6.69
416.716	6.59
416.922	6.51
417.128	6.3
417.334	6.23
417.539	6.04
417.745	6.04
417.951	6.02
418.157	5.98
418.362	5.78
418.568	5.78
418.774	5.73
418.979	5.66
419.185	5.69
419.391	5.75
419.596	5.73
419.802	5.79
420.008	5.76
420.213	5.82
420.419	5.88
420.624	5.96
420.83	5.95
421.035	5.9
421.241	6.03
421.446	6.04
421.652	6.05
421.857	6.12
422.063	6.15
422.268	6.18
422.474	6.12
422.679	6.09
422.885	5.99
423.09	5.89
423.295	6.01
423.501	5.91
423.706	5.93
423.911	6.01
424.117	5.98
424.322	5.89
424.527	5.91
424.733	5.98
424.938	5.97
425.143	6.12
425.349	6.22
425.554	6.23
425.759	6.28
425.964	6.29
426.169	6.21
426.375	6.23
426.58	6.27
426.785	6.27
426.99	6.26
427.195	6.24
427.4	6.16
427.605	6.19
427.811	6.11
428.016	6.09
428.221	6.15
428.426	6.32
428.631	6.41
428.836	6.4
429.041	6.41
429.246	6.36
429.451	6.39
429.656	6.4
429.861	6.46
430.066	6.41
430.271	6.48
430.476	6.4
430.681	6.16
430.886	6.16
431.09	6.21
431.295	6.26
431.5	6.23
431.705	6.24
431.91	6.25
432.115	6.24
432.32	6.39
432.524	6.41
432.729	6.55
432.934	6.66
433.139	6.66
433.343	6.63
433.548	6.55
433.753	6.55
433.958	6.59
434.162	6.53
434.367	6.5
434.572	6.44
434.776	6.35
434.981	6.32
435.186	6.4
435.39	6.33
435.595	6.25
435.799	6.33
436.004	6.35
436.209	6.34
436.413	6.37
436.618	6.32
436.822	6.33
437.027	6.38
437.231	6.39
437.436	6.34
437.64	6.42
437.845	6.66
438.049	6.57
438.253	6.66
438.458	6.65
438.662	6.61
438.867	6.6
439.071	6.59
439.275	6.68
439.48	6.7
439.684	6.66
439.888	6.6
440.093	6.53
440.297	6.63
440.501	6.63
440.706	6.65
440.91	6.76
441.114	6.77
441.318	6.79
441.523	6.76
441.727	6.77
441.931	6.75
442.135	6.85
442.339	6.89
442.543	6.91
442.748	6.85
442.952	6.83
443.156	6.72
443.36	6.77
443.564	6.84
443.768	6.85
443.972	6.87
444.176	6.95
444.38	7.02
444.584	6.98
444.788	7
444.992	6.98
445.196	6.95
445.4	6.96
445.604	6.97
445.808	6.97
446.012	6.96
446.216	6.9
446.42	6.85
446.624	6.7
446.828	6.72
447.032	6.63
447.235	6.62
447.439	6.64
447.643	6.65
447.847	6.69
448.051	6.59
448.254	6.6
448.458	6.62
448.662	6.67
448.866	6.75
449.069	6.76
449.273	6.84
449.477	6.93
449.681	6.9
449.884	6.94
450.088	6.83
450.292	6.95
450.495	6.89
450.699	6.78
450.902	6.74
451.106	6.77
451.31	6.66
451.513	6.54
451.717	6.44
451.92	6.58
452.124	6.59
452.327	6.56
452.531	6.48
452.734	6.59
452.938	6.68
453.141	6.7
453.345	6.62
453.548	6.58
453.752	6.74
453.955	6.8
454.158	6.81
454.362	6.84
454.565	6.92
454.769	6.94
454.972	6.97
455.175	6.98
455.379	6.96
455.582	7.06
455.785	7.01
455.988	6.88
456.192	6.9
456.395	6.86
456.598	6.97
456.801	6.88
457.005	6.8
457.208	6.73
457.411	6.71
457.614	6.76
457.817	6.65
458.021	6.7
458.224	6.78
458.427	6.76
458.63	6.72
458.833	6.71
459.036	6.73
459.239	6.69
459.442	6.65
459.645	6.68
459.848	6.66
460.051	6.63
460.254	6.71
460.457	6.69
460.66	6.73
460.863	6.72
461.066	6.65
461.269	6.69
461.472	6.75
461.675	6.77
461.878	6.65
462.081	6.67
462.284	6.72
462.486	6.74
462.689	6.73
462.892	6.76
463.095	6.89
463.298	6.87
463.5	6.83
463.703	6.81
463.906	6.73
464.109	6.85
464.311	6.78
464.514	6.74
464.717	6.7
464.92	6.7
465.122	6.57
465.325	6.57
465.528	6.62
465.73	6.68
465.933	6.79
466.135	6.81
466.338	6.84
466.541	6.86
466.743	6.96
466.946	6.96
467.148	6.92
467.351	7.03
467.553	7.01
467.756	6.95
467.958	6.98
468.161	7.01
468.363	7.1
468.566	7.1
468.768	7.23
468.971	7.22
469.173	7.16
469.375	7.17
469.578	7.16
469.78	7.08
469.983	7.08
470.185	6.96
470.387	6.84
470.59	6.84
470.792	6.74
470.994	6.68
471.196	6.63
471.399	6.68
471.601	6.77
471.803	6.76
472.005	6.8
472.208	6.72
472.41	6.77
472.612	6.84
472.814	6.77
473.016	6.8
473.218	6.76
473.421	6.79
473.623	6.78
473.825	6.72
474.027	6.58
474.229	6.52
474.431	6.56
474.633	6.62
474.835	6.59
475.037	6.64
475.239	6.7
475.441	6.69
475.643	6.74
475.845	6.74
476.047	6.75
476.249	6.92
476.451	6.96
476.653	6.97
476.855	6.93
477.057	6.92
477.258	6.86
477.46	6.82
477.662	6.86
477.864	6.77
478.066	6.77
478.268	6.73
478.469	6.64
478.671	6.62
478.873	6.81
479.075	6.75
479.276	6.8
479.478	6.89
479.68	6.89
479.882	6.85
480.083	6.97
480.285	7.08
480.487	7.04
480.688	7.11
480.89	7.23
481.091	7.04
481.293	7.09
481.495	7.06
481.696	7.02
481.898	7.03
482.099	6.99
482.301	6.88
482.502	6.79
482.704	6.85
482.905	6.76
483.107	6.68
483.308	6.67
483.51	6.64
483.711	6.62
483.913	6.59
484.114	6.59
484.315	6.58
484.517	6.58
484.718	6.56
484.92	6.53
485.121	6.54
485.322	6.55
485.524	6.57
485.725	6.57
485.926	6.6
486.127	6.65
486.329	6.62
486.53	6.65
486.731	6.72
486.932	6.75
487.134	6.73
487.335	6.73
487.536	6.74
487.737	6.75
487.938	6.76
488.139	6.73
488.341	6.66
488.542	6.66
488.743	6.66
488.944	6.61
489.145	6.61
489.346	6.64
489.547	6.69
489.748	6.7
489.949	6.69
490.15	6.7
490.351	6.68
490.552	6.74
490.753	6.76
490.954	6.75
491.155	6.73
491.356	6.73
491.557	6.73
491.758	6.73
491.959	6.69
492.159	6.69
492.36	6.7
492.561	6.75
492.762	6.71
492.963	6.7
493.164	6.71
493.364	6.76
493.565	6.77
493.766	6.78
493.967	6.72
494.167	6.74
494.368	6.72
494.569	6.73
494.769	6.65
494.97	6.78
495.171	6.78
495.371	6.77
495.572	6.86
495.773	6.85
495.973	6.81
496.174	6.86
496.375	6.92
496.575	6.94
496.776	6.91
496.976	6.97
497.177	6.89
497.377	6.92
497.578	6.96
497.778	6.89
497.979	6.88
498.179	6.97
498.38	7
498.58	6.94
498.78	6.9
498.981	6.93
499.181	6.9
499.382	6.96
499.582	7.02
499.782	7.14
499.983	7.27
500.183	7.36
500.383	7.3
500.584	7.33
500.784	7.36
500.984	7.56
501.184	7.54
501.385	7.64
501.585	7.63
501.785	7.43
501.985	7.28
502.185	7.19
502.386	7.05
502.586	6.98
502.786	6.88
502.986	6.94
503.186	6.76
503.386	6.82
503.586	6.81
503.786	6.89
503.987	7.12
504.187	7.22
504.387	7.26
504.587	7.33
504.787	7.41
504.987	7.49
505.187	7.49
505.387	7.64
505.587	7.58
505.786	7.49
505.986	7.5
506.186	7.45
506.386	7.43
506.586	7.45
506.786	7.48
506.986	7.56
507.186	7.61
507.386	7.62
507.585	7.64
507.785	7.77
507.985	7.88
508.185	7.8
508.384	7.88
508.584	7.76
508.784	7.72
508.984	7.73
509.183	7.76
509.383	7.74
509.583	7.75
509.782	7.73
509.982	7.69
510.182	7.7
510.381	7.77
510.581	7.68
510.781	7.76
510.98	7.83
511.18	7.76
511.379	7.71
511.579	7.65
511.778	7.68
511.978	7.65
512.177	7.65
512.377	7.57
512.576	7.53
512.776	7.6
512.975	7.63
513.175	7.55
513.374	7.63
513.573	7.67
513.773	7.78
513.972	7.7
514.172	7.76
514.371	7.9
514.57	8.07
514.77	8.11
514.969	8.08
515.168	8.13
515.367	8.18
515.567	8.12
515.766	8.13
515.965	8.17
516.164	8.27
516.364	8.29
516.563	8.27
516.762	8.2
516.961	8.16
517.16	8.25
517.359	8.21
517.559	8.22
517.758	8.26
517.957	8.32
518.156	8.34
518.355	8.36
518.554	8.32
518.753	8.38
518.952	8.4
519.151	8.52
519.35	8.48
519.549	8.57
519.748	8.61
519.947	8.7
520.146	8.71
520.345	8.75
520.544	8.81
520.743	8.93
520.942	8.86
521.141	8.84
521.339	8.85
521.538	8.9
521.737	8.91
521.936	8.91
522.135	9.01
522.333	8.96
522.532	8.94
522.731	8.85
522.93	8.85
523.129	8.93
523.327	9.14
523.526	9.13
523.725	9.17
523.923	9.12
524.122	9.22
524.321	9.18
524.519	9.21
524.718	9.24
524.917	9.22
525.115	9.28
525.314	9.23
525.512	9.11
525.711	9.17
525.909	9.14
526.108	9.22
526.306	9.24
526.505	9.27
526.703	9.3
526.902	9.28
527.1	9.36
527.299	9.35
527.497	9.39
527.696	9.41
527.894	9.38
528.092	9.42
528.291	9.46
528.489	9.46
528.688	9.43
528.886	9.48
529.084	9.53
529.283	9.57
529.481	9.58
529.679	9.64
529.877	9.7
530.076	9.74
530.274	9.81
530.472	9.82
530.67	9.85
530.869	9.93
531.067	9.92
531.265	10.03
531.463	10.02
531.661	10.1
531.859	10.1
532.057	10.13
532.255	10.17
532.454	10.17
532.652	10.18
532.85	10.26
533.048	10.27
533.246	10.28
533.444	10.28
533.642	10.28
533.84	10.27
534.038	10.27
534.236	10.34
534.434	10.43
534.632	10.46
534.83	10.52
535.027	10.53
535.225	10.62
535.423	10.66
535.621	10.63
535.819	10.78
536.017	10.82
536.215	10.91
536.412	10.93
536.61	10.95
536.808	11.03
537.006	11.07
537.203	11.06
537.401	11.1
537.599	11.26
537.797	11.3
537.994	11.32
538.192	11.4
538.39	11.38
538.587	11.4
538.785	11.46
538.983	11.5
539.18	11.57
539.378	11.62
539.575	11.7
539.773	11.74
539.97	11.77
540.168	11.84
540.366	11.87
540.563	11.9
540.761	11.95
540.958	11.92
541.155	11.9
541.353	11.86
541.55	11.87
541.748	11.87
541.945	11.89
542.143	11.94
542.34	11.92
542.537	11.92
542.735	11.99
542.932	12.06
543.129	12.12
543.327	12.26
543.524	12.4
543.721	12.54
543.919	12.65
544.116	12.72
544.313	12.77
544.51	13
544.708	13.18
544.905	13.25
545.102	13.35
545.299	13.51
545.496	13.63
545.693	13.66
545.891	13.67
546.088	13.55
546.285	13.58
546.482	13.62
546.679	13.5
546.876	13.47
547.073	13.48
547.27	13.41
547.467	13.42
547.664	13.26
547.861	13.27
548.058	13.25
548.255	13.34
548.452	13.33
548.649	13.37
548.846	13.49
549.043	13.52
549.24	13.61
549.437	13.7
549.633	13.54
549.83	13.63
550.027	13.68
550.224	13.65
550.421	13.75
550.618	13.79
550.814	13.87
551.011	13.71
551.208	13.7
551.405	13.6
551.601	13.59
551.798	13.75
551.995	13.66
552.191	13.56
552.388	13.76
552.585	13.8
552.781	13.77
552.978	13.77
553.175	13.9
553.371	13.9
553.568	14.02
553.764	14.1
553.961	14.06
554.157	14.09
554.354	14.23
554.55	14.14
554.747	14.17
554.943	14.2
555.14	14.22
555.336	14.23
555.533	14.28
555.729	14.18
555.926	14.06
556.122	14.11
556.318	14.31
556.515	14.32
556.711	14.22
556.907	14.19
557.104	14.33
557.3	14.38
557.496	14.46
557.693	14.36
557.889	14.5
558.085	14.65
558.281	14.84
558.478	14.89
558.674	14.9
558.87	14.99
559.066	15.09
559.262	15.01
559.459	14.98
559.655	14.94
559.851	15.06
560.047	15.11
560.243	15.19
560.439	15.04
560.635	14.99
560.831	15.01
561.027	15.19
561.223	15.28
561.419	15.43
561.615	15.54
561.811	15.47
562.007	15.6
562.203	15.51
562.399	15.32
562.595	15.35
562.791	15.42
562.987	15.47
563.183	15.42
563.379	15.41
563.575	15.38
563.771	15.38
563.966	15.45
564.162	15.45
564.358	15.56
564.554	15.75
564.75	15.88
564.945	15.72
565.141	15.79
565.337	15.76
565.533	15.67
565.728	15.66
565.924	15.68
566.12	15.68
566.315	15.79
566.511	15.72
566.707	15.64
566.902	15.62
567.098	15.69
567.293	15.62
567.489	15.74
567.684	15.89
567.88	15.82
568.076	15.79
568.271	15.98
568.467	15.88
568.662	16.02
568.858	16.11
569.053	16.12
569.248	16.18
569.444	16.25
569.639	16.18
569.835	16.17
570.03	16.25
570.225	16.38
570.421	16.34
570.616	16.32
570.812	16.41
571.007	16.43
571.202	16.48
571.397	16.54
571.593	16.6
571.788	16.69
571.983	16.82
572.178	16.97
572.374	16.93
572.569	16.97
572.764	17
572.959	17.06
573.154	17.02
573.35	16.98
573.545	17.08
573.74	17.14
573.935	17.07
574.13	17.03
574.325	16.96
574.52	16.99
574.715	16.91
574.91	17.05
575.105	17
575.3	17.07
575.495	17.19
575.69	17.21
575.885	17.24
576.08	17.38
576.275	17.53
576.47	17.67
576.665	17.83
576.86	18
577.055	18.11
577.25	18.26
577.444	18.48
577.639	18.53
577.834	18.5
578.029	18.54
578.224	18.63
578.418	18.65
578.613	18.7
578.808	18.74
579.003	18.91
579.197	18.81
579.392	18.7
579.587	18.53
579.781	18.44
579.976	18.54
580.171	18.61
580.365	18.53
580.56	18.4
580.755	18.36
580.949	18.35
581.144	18.17
581.338	18.26
581.533	18.36
581.727	18.47
581.922	18.56
582.116	18.59
582.311	18.5
582.505	18.73
582.7	18.75
582.894	18.67
583.089	18.73
583.283	18.95
583.478	19.05
583.672	18.95
583.866	18.99
584.061	19.08
584.255	18.94
584.449	19.07
584.644	19.11
584.838	19.22
585.032	19.43
585.226	19.28
585.421	19.3
585.615	19.23
585.809	19.37
586.003	19.43
586.198	19.57
586.392	19.76
586.586	19.68
586.78	19.59
586.974	19.68
587.168	19.55
587.363	19.74
587.557	19.82
587.751	19.84
587.945	19.69
588.139	19.7
588.333	19.46
588.527	19.52
588.721	19.53
588.915	19.52
589.109	19.36
589.303	19.48
589.497	19.39
589.691	19.24
589.885	19.19
590.079	19.28
590.273	19.19
590.466	19.22
590.66	19.25
590.854	19.32
591.048	19.29
591.242	19.48
591.436	19.48
591.629	19.63
591.823	19.69
592.017	19.86
592.211	20.03
592.404	20.11
592.598	20.21
592.792	20.08
592.986	20.09
593.179	20
593.373	19.83
593.567	19.82
593.76	19.65
593.954	19.5
594.147	19.52
594.341	19.28
594.535	19.28
594.728	19.25
594.922	19.25
595.115	19.23
595.309	19.28
595.502	19.34
595.696	19.28
595.889	19.26
596.083	19.37
596.276	19.3
596.47	19.3
596.663	19.22
596.856	19.14
597.05	19.09
597.243	19.12
597.437	19.13
597.63	19.19
597.823	19.29
598.017	19.33
598.21	19.38
598.403	19.39
598.596	19.54
598.79	19.61
598.983	19.83
599.176	19.89
599.369	19.87
599.563	19.83
599.756	19.8
599.949	19.71
600.142	19.8
600.335	19.68
600.528	19.75
600.722	19.73
600.915	19.67
601.108	19.43
601.301	19.51
601.494	19.59
601.687	19.72
601.88	19.78
602.073	19.78
602.266	19.75
602.459	19.83
602.652	19.64
602.845	19.64
603.038	19.6
603.231	19.6
603.424	19.39
603.617	19.35
603.809	19.32
604.002	19.24
604.195	19.17
604.388	19.17
604.581	19.25
604.774	19.33
604.966	19.22
605.159	19.21
605.352	19.32
605.545	19.55
605.737	19.5
605.93	19.47
606.123	19.58
606.316	19.84
606.508	19.95
606.701	19.88
606.894	20.09
607.086	20.44
607.279	20.5
607.471	20.62
607.664	20.81
607.857	21.08
608.049	21.61
608.242	21.69
608.434	21.99
608.627	22.41
608.819	22.92
609.012	23.31
609.204	23.86
609.397	24.8
609.589	25.61
609.782	26.28
609.974	27.09
610.166	27.65
610.359	28.52
610.551	29.13
610.743	29.71
610.936	30.36
611.128	30.6
611.32	30.94
611.513	30.98
611.705	30.87
611.897	30.79
612.09	30.72
612.282	30.49
612.474	30
612.666	29.69
612.858	29.38
613.051	28.86
613.243	28.78
613.435	28.22
613.627	27.85
613.819	27.7
614.011	27.37
614.203	26.74
614.395	26.45
614.588	26.12
614.78	25.72
614.972	25.12
615.164	24.73
615.356	24.39
615.548	24.23
615.74	23.98
615.932	23.6
616.124	23.36
616.315	23.22
616.507	22.83
616.699	22.98
616.891	22.88
617.083	22.84
617.275	22.56
617.467	22.36
617.659	22.05
617.85	21.82
618.042	21.54
618.234	21.31
618.426	21.26
618.618	21.34
618.809	21.29
619.001	21.1
619.193	21.17
619.384	21.16
619.576	20.94
619.768	20.94
619.959	20.95
620.151	21.2
620.343	21.21
620.534	21.19
620.726	21
620.917	20.9
621.109	20.87
621.301	20.85
621.492	21.01
621.684	21.26
621.875	21.35
622.067	21.36
622.258	21.3
622.45	21.41
622.641	21.59
622.832	21.65
623.024	21.48
623.215	21.38
623.407	21.27
623.598	21.29
623.789	21.3
623.981	21.37
624.172	21.38
624.363	21.32
624.555	21.31
624.746	21.14
624.937	21.34
625.129	21.48
625.32	21.5
625.511	21.5
625.702	21.45
625.893	21.28
626.085	21.21
626.276	21.16
626.467	21.25
626.658	21.26
626.849	21.21
627.04	21.13
627.231	21.08
627.422	21.26
627.614	21.19
627.805	21.22
627.996	21.4
628.187	21.52
628.378	21.62
628.569	21.82
628.76	21.86
628.951	21.94
629.142	21.96
629.332	22.14
629.523	22.29
629.714	22.64
629.905	22.69
630.096	22.94
630.287	23.11
630.478	23.26
630.669	23.16
630.859	23.03
631.05	23.22
631.241	23.27
631.432	23.06
631.623	22.87
631.813	22.67
632.004	22.51
632.195	22.05
632.385	21.88
632.576	21.61
632.767	21.27
632.957	21.32
633.148	21
633.339	20.9
633.529	20.83
633.72	20.76
633.91	20.6
634.101	20.54
634.292	20.72
634.482	20.68
634.673	20.64
634.863	20.75
635.054	20.68
635.244	20.75
635.435	20.61
635.625	20.63
635.815	20.51
636.006	20.48
636.196	20.45
636.387	20.33
636.577	20.21
636.767	20.34
636.958	20.27
637.148	20.13
637.338	20.21
637.529	20.3
637.719	20.25
637.909	20.4
638.099	20.34
638.29	20.55
638.48	20.44
638.67	20.59
638.86	20.54
639.05	20.61
639.241	20.81
639.431	20.6
639.621	20.48
639.811	20.62
640.001	20.53
640.191	20.46
640.381	20.49
640.571	20.72
640.761	20.58
640.951	20.54
641.141	20.59
641.331	20.49
641.521	20.74
641.711	20.92
641.901	20.98
642.091	21.05
642.281	21.33
642.471	21.03
642.661	20.92
642.851	20.92
643.041	20.94
643.231	21.05
643.42	21.18
643.61	21.1
643.8	21.1
643.99	20.98
644.18	21.05
644.369	20.93
644.559	21.11
644.749	21.26
644.939	21.34
645.128	21.35
645.318	21.2
645.508	21.29
645.697	21.49
645.887	21.64
646.076	21.75
646.266	21.63
646.456	21.76
646.645	21.68
646.835	21.4
647.024	21.5
647.214	21.46
647.403	21.58
647.593	21.53
647.782	21.4
647.972	21.18
648.161	21.4
648.351	21.49
648.54	21.5
648.73	21.63
648.919	21.92
649.108	22.02
649.298	22.29
649.487	22.16
649.677	22.18
649.866	22.03
650.055	22.18
650.244	21.97
650.434	22.11
650.623	22.16
650.812	22.14
651.002	21.8
651.191	21.64
651.38	21.64
651.569	21.69
651.758	21.57
651.947	21.57
652.137	21.48
652.326	21.5
652.515	21.46
652.704	21.4
652.893	21.55
653.082	21.88
653.271	21.94
653.46	22.01
653.649	22.19
653.838	22.47
654.027	22.73
654.216	22.84
654.405	22.71
654.594	22.9
654.783	22.82
654.972	22.85
655.161	22.6
655.35	22.53
655.539	22.14
655.728	21.79
655.916	21.46
656.105	21.29
656.294	20.98
656.483	21.15
656.672	21.12
656.86	21.01
657.049	20.82
657.238	20.82
657.427	20.71
657.615	20.89
657.804	20.88
657.993	20.76
658.181	20.78
658.37	21
658.559	20.9
658.747	20.8
658.936	20.83
659.125	20.72
659.313	20.77
659.502	20.9
659.69	20.92
659.879	21.25
660.067	21.37
660.256	21.33
660.444	21.39
660.633	21.4
660.821	21.41
661.01	21.48
661.198	21.79
661.387	21.84
661.575	21.77
661.763	22.14
661.952	21.94
662.14	22.16
662.328	22.06
662.517	22.05
662.705	22.2
662.893	22.33
663.082	22.46
663.27	22.57
663.458	22.48
663.646	22.65
663.834	22.26
664.023	22.35
664.211	22.16
664.399	22.46
664.587	22.5
664.775	22.66
664.963	22.45
665.152	22.5
665.34	22.28
665.528	22.58
665.716	22.57
665.904	22.5
666.092	22.51
666.28	22.67
666.468	22.58
666.656	22.32
666.844	21.87
667.032	21.64
667.22	21.7
667.408	21.73
667.596	21.54
667.784	21.37
667.971	21.43
668.159	21.5
668.347	21.25
668.535	21.2
668.723	21.16
668.911	21.61
669.098	21.71
669.286	21.82
669.474	21.76
669.662	21.98
669.849	22.35
670.037	22.23
670.225	22.28
670.413	22.72
670.6	22.73
670.788	23.12
670.976	22.97
671.163	23.07
671.351	22.85
671.538	22.97
671.726	22.77
671.913	22.53
672.101	22.59
672.289	22.37
672.476	21.97
672.664	21.94
672.851	21.74
673.039	21.41
673.226	21.25
673.413	20.91
673.601	20.68
673.788	20.72
673.976	20.65
674.163	20.62
674.35	20.69
674.538	20.95
674.725	21.07
674.912	20.92
675.1	21.2
675.287	21.31
675.474	21.66
675.662	21.47
675.849	21.64
676.036	21.75
676.223	22
676.411	22.03
676.598	21.95
676.785	21.81
676.972	21.95
677.159	21.59
677.346	21.89
677.533	22.05
677.721	22.78
677.908	22.84
678.095	22.86
678.282	22.59
678.469	22.64
678.656	22.66
678.843	22.72
679.03	22.81
679.217	23.15
679.404	22.9
679.591	22.88
679.778	22.44
679.964	22.44
680.151	22.41
680.338	22.39
680.525	22.18
680.712	22.09
680.899	22.13
681.086	22.16
681.272	22.15
681.459	22.08
681.646	21.8
681.833	22
682.02	21.95
682.206	21.78
682.393	22.04
682.58	22.16
682.766	22.07
682.953	22.24
683.14	22.3
683.326	22.5
683.513	22.71
683.7	22.99
683.886	23.08
684.073	22.85
684.259	22.84
684.446	22.7
684.632	22.89
684.819	23.17
685.005	23.22
685.192	22.85
685.378	22.57
685.565	22.44
685.751	22.59
685.938	22.32
686.124	22.59
686.31	22.79
686.497	22.86
686.683	22.77
686.87	22.91
687.056	22.81
687.242	22.91
687.429	23.28
687.615	23.33
687.801	23.35
687.987	23.26
688.174	23.23
688.36	23.15
688.546	23.19
688.732	23.25
688.918	23.08
689.105	23.19
689.291	23.36
689.477	22.98
689.663	23.07
689.849	22.89
690.035	23.06
690.221	22.65
690.407	22.84
690.593	23.14
690.779	22.89
690.965	22.69
691.151	22.49
691.337	22.62
691.523	22.8
691.709	23.13
691.895	23.4
692.081	23.34
692.267	23.66
692.453	23.86
692.639	23.45
692.825	23.66
693.011	23.91
693.196	24.02
693.382	23.84
693.568	23.9
693.754	23.63
693.94	23.45
694.125	23.72
694.311	23.88
694.497	23.71
694.682	24.01
694.868	24.13
695.054	24.39
695.239	24.75
695.425	24.55
695.611	24.18
695.796	24.06
695.982	24.11
696.168	23.9
696.353	23.68
696.539	23.54
696.724	23.44
696.91	23.05
697.095	22.9
697.281	22.49
697.466	22.75
697.652	22.83
697.837	22.77
698.023	22.42
698.208	22.35
698.393	22.33
698.579	21.99
698.764	21.63
698.949	21.53
699.135	21.56
699.32	21.51
699.505	21.37
699.691	21.38
699.876	21.55
700.061	21.44
700.246	21.39
700.432	21.68
700.617	22.16
700.802	22.46
700.987	22.79
701.172	23.27
701.358	23.31
701.543	23.34
701.728	23.38
701.913	23.52
702.098	24.28
702.283	24.53
702.468	24.19
702.653	24.28
702.838	24.73
703.023	25.3
703.208	25.07
703.393	25.22
703.578	25.7
703.763	25.99
703.948	26.1
704.133	25.94
704.318	26.15
704.503	26.42
704.688	26.36
704.873	26.34
705.057	26.37
705.242	26.24
705.427	26.77
705.612	26.54
705.797	26.83
705.981	26.89
706.166	27.23
706.351	27.39
706.536	27.77
706.72	28.3
706.905	28.38
707.09	28.2
707.274	28.27
707.459	28.22
707.644	28.62
707.828	28.36
708.013	28.32
708.197	28.5
708.382	28.42
708.567	28.26
708.751	27.97
708.936	27.52
709.12	27.68
709.305	27.72
709.489	27.41
709.673	27.08
709.858	27.63
710.042	27.66
710.227	27.31
710.411	27.29
710.596	27.3
710.78	27.05
710.964	26.84
711.149	26.55
711.333	26.44
711.517	26.62
711.702	26.62
711.886	25.79
712.07	25.76
712.254	25.28
712.438	25.28
712.623	24.95
712.807	25.11
712.991	25.33
713.175	25.29
713.359	24.88
713.544	25.07
713.728	24.75
713.912	24.77
714.096	24.33
714.28	24.75
714.464	24.58
714.648	24.77
714.832	24.59
715.016	24.72
715.2	24.13
715.384	24.55
715.568	23.74
715.752	23.72
715.936	23.39
716.12	23.35
716.304	22.95
716.488	22.68
716.671	22.56
716.855	22.55
717.039	22.31
717.223	22.8
717.407	22.09
717.59	22.5
717.774	22.78
717.958	23.09
718.142	23.32
718.325	23.37
718.509	23.49
718.693	23.5
718.877	23.06
719.06	23.17
719.244	23.28
719.428	23.7
719.611	23.12
719.795	22.94
719.978	23.17
720.162	23.3
720.345	23.54
720.529	23.44
720.713	23.64
720.896	23.95
721.08	24.24
721.263	24.51
721.446	24.74
721.63	25.16
721.813	25.41
721.997	25.35
722.18	25.07
722.364	25.3
722.547	25.74
722.73	25.32
722.914	25.06
723.097	24.86
723.28	24.46
723.464	24.23
723.647	24.26
723.83	24.2
724.013	24.33
724.197	25
724.38	24.63
724.563	24.22
724.746	24.39
724.929	24.72
725.112	24.46
725.296	24.44
725.479	24.14
725.662	24.28
725.845	24.42
726.028	24.15
726.211	23.48
726.394	23.73
726.577	23.47
726.76	23.26
726.943	23.77
727.126	23.73
727.309	23.91
727.492	24.16
727.675	23.97
727.858	23.57
728.041	23.68
728.224	24.16
728.407	23.95
728.589	24.07
728.772	24.6
728.955	24.61
729.138	24.97
729.321	24.75
729.503	24.86
729.686	24.66
729.869	24.54
730.052	24.53
730.234	23.85
730.417	23.89
730.6	24.05
730.782	23.92
730.965	23.15
731.148	23.3
731.33	23.49
731.513	23.64
731.695	24.1
731.878	24.63
732.061	24.76
732.243	25.26
732.426	25.06
732.608	25.41
732.791	25.12
732.973	25.55
733.156	25.39
733.338	24.99
733.52	24.59
733.703	24.54
733.885	24.52
734.068	24.57
734.25	24.04
734.432	24.35
734.615	24.1
734.797	24.76
734.979	24.47
735.162	24.53
735.344	24.88
735.526	25.26
735.708	25.22
735.891	25.23
736.073	25.36
736.255	26.38
736.437	26.58
736.619	26.36
736.802	26.33
736.984	26.63
737.166	26.89
737.348	27.11
737.53	27.36
737.712	27.76
737.894	27.53
738.076	27.55
738.258	26.72
738.44	26.63
738.622	27.01
738.804	26.77
738.986	26.35
739.168	25.53
739.35	25.3
739.532	24.64
739.714	24.15
739.896	23.59
740.078	23.52
740.259	23.73
740.441	24
740.623	24.33
740.805	23.64
740.987	23.92
741.168	24.54
741.35	24.97
741.532	25.32
741.714	25.86
741.895	26.54
742.077	26.5
742.259	26.58
742.44	26.84
742.622	26.48
742.804	26.98
742.985	27.21
743.167	27.02
743.348	26.65
743.53	26.85
743.711	26.71
743.893	27.36
744.075	27
744.256	27.41
744.438	26.75
744.619	27.53
744.8	26.62
744.982	26.75
745.163	26.88
745.345	27.64
745.526	28.58
745.707	27.85
745.889	27.83
746.07	28.56
746.252	28
746.433	27.94
746.614	27.99
746.795	29.59
746.977	28.91
747.158	28.89
747.339	28.29
747.52	27.13
747.702	27.55
747.883	27.12
748.064	27.16
748.245	27.54
748.426	27.35
748.607	26.39
748.788	25.78
748.97	26.33
749.151	26.01
749.332	25.79
749.513	25.94
749.694	26.21
749.875	26.69
750.056	26.73
750.237	26.69
750.418	27.05
750.599	26.49
750.78	26.88
750.96	26.88
751.141	27.15
751.322	27.25
751.503	27.4
751.684	26.71
751.865	26.28
752.046	25.68
752.226	24.99
752.407	25.6
752.588	26.25
752.769	26.42
752.949	26.31
753.13	26.64
753.311	27.38
753.492	27.69
753.672	28.13
753.853	27.9
754.034	27.86
754.214	28.33
754.395	28.01
754.575	28.47
754.756	27.72
754.937	27.89
755.117	27.98
755.298	27.33
755.478	26.59
755.659	26.61
755.839	26.91
756.02	26.77
756.2	27.18
756.381	26.39
756.561	26.17
756.741	25.96
756.922	26.05
757.102	26.02
757.283	26.4
757.463	26.68
757.643	27.24
757.823	26.63
758.004	27.02
758.184	27.25
758.364	27.86
758.545	27.4
758.725	27.71
758.905	27.74
759.085	27.07
759.265	26.26
759.446	26.34
759.626	25.61
759.806	25.77
759.986	25.75
760.166	24.72
760.346	24.34
760.526	23.91
760.706	24
760.886	24.09
761.066	24.79
761.246	25.41
761.426	25.29
761.606	25.43
761.786	25.18
761.966	24.75
762.146	24.87
762.326	24.83
762.506	25.42
762.686	24.95
762.866	24.7
763.046	24.05
763.225	23.81
763.405	23.34
763.585	23.31
763.765	23.81
763.945	23.7
764.124	23.85
764.304	24.64
764.484	24.43
764.664	24.35
764.843	24.57
765.023	25.06
765.203	24.66
765.382	25.02
765.562	24.97
765.741	24.73
765.921	24.83
766.101	25.58
766.28	24.63
766.46	24.58
766.639	25.35
766.819	25.73
766.998	25.38
767.178	25.56
767.357	26.53
767.537	26.89
767.716	26.89
767.896	27.47
768.075	27.33
768.254	27.5
768.434	28.24
768.613	27.67
768.792	27.95
768.972	27.51
769.151	27.58
769.33	27.19
769.51	27.81
769.689	27.5
769.868	27.28
770.047	27.38
770.226	26.78
770.406	26.48
770.585	26.65
770.764	25.76
770.943	26.88
771.122	27.89
771.301	27.83
771.48	27.5
771.66	28.1
771.839	28.78
772.018	28.12
772.197	29.3
772.376	29.49
772.555	30.06
772.734	30.45
772.913	30.56
773.092	30.44
773.271	30.33
773.449	29.58
773.628	30.21
773.807	29.56
773.986	29.25
774.165	28.19
774.344	29.16
774.523	29.27
774.701	29.06
774.88	29.48
775.059	28.67
775.238	29.22
775.417	30.29
775.595	30.32
775.774	30.34
775.953	31.31
776.131	32.37
776.31	31.79
776.489	31.31
776.667	31.29
776.846	29.97
777.025	30.57
777.203	28.46
777.382	29.12
777.56	29.14
777.739	29.32
777.917	28.6
778.096	28.82
778.274	27.91
778.453	28.84
778.631	28.99
778.81	30.2
778.988	30.3
779.166	31.59
779.345	29.8
779.523	28.8
779.702	29.71
779.88	31.33
780.058	30.82
780.237	31.15
780.415	30.6
780.593	30.18
780.771	29.51
780.95	30.56
781.128	30.64
781.306	30.96
781.484	31.65
781.662	31.56
781.841	30.39
782.019	30.86
782.197	31.23
782.375	31.01
782.553	31.12
782.731	31.11
782.909	31.21
783.087	31.05
783.265	32.19
783.443	31.97
783.621	32.35
783.799	31.84
783.977	31.83
784.155	30.54
784.333	31.52
784.511	31.11
784.689	30.56
784.867	28.96
785.045	28.8
785.223	27.72
785.4	28.1
785.578	27.22
785.756	26.72
785.934	26.42
786.112	27.33
786.289	26.86
786.467	27.52
786.645	28.72
786.823	28.69
787	29.6
787.178	30.29
787.356	29.19
787.533	28.04
787.711	29.29
787.889	29.88
788.066	29.75
788.244	29.66
788.421	29.77
788.599	29.32
788.776	30.12
788.954	30.76
789.131	30.32
789.309	31.72
789.486	32.06
789.664	31.5
789.841	30.26
790.019	30.37
790.196	29.86
790.373	29.7
790.551	29.44
790.728	30.05
790.906	29.16
791.083	29.47
791.26	28.35
791.437	28.45
791.615	28.56
791.792	28.51
791.969	29.04
792.146	29.23
792.324	30.1
792.501	30.38
792.678	29.23
792.855	28.83
793.032	28.67
793.209	29.36
793.387	29.65
793.564	29.17
793.741	29.14
793.918	27.5
794.095	27.2
794.272	26.26
794.449	26.07
794.626	25.26
794.803	25.74
794.98	25.61
795.157	26.05
795.334	27.31
795.511	27.05
795.688	28.24
795.864	29.26
796.041	30.06
796.218	30.28
796.395	30.64
796.572	30.72
796.749	30.67
796.925	30.71
797.102	30.78
797.279	30.13
797.456	30.48
797.632	30.19
797.809	30.9
797.986	30.03
798.162	29.46
798.339	29.16
798.516	29.79
798.692	29.43
798.869	29.26
799.046	28.02
799.222	28.14
799.399	28.07
799.575	27.59
799.752	26.07
799.928	27.32
800.105	28.55
800.281	28.72
800.458	28.75
800.634	29
800.811	29.19
800.987	30.66
801.163	30.29
801.34	31.35
801.516	33.1
801.692	34.19
801.869	33.24
802.045	32.25
802.221	32.26
802.398	32.72
802.574	32.47
802.75	32.75
802.926	32.36
803.103	32.62
803.279	31.54
803.455	30.11
803.631	31
803.807	30.98
803.983	31.43
804.16	31.68
804.336	31.98
804.512	32.42
804.688	32.79
804.864	31.93
805.04	31.48
805.216	32.6
805.392	30.49
805.568	29.46
805.744	27.96
805.92	26.85
806.096	26.7
806.272	25.6
806.448	26.12
806.623	26.83
806.799	27.35
806.975	28.03
807.151	27.47
807.327	29.51
807.503	28.62
807.678	29.12
807.854	29.51
808.03	29.65
808.206	29.48
808.381	28.11
808.557	28.19
808.733	27.44
808.908	26.53
809.084	27.49
809.26	28.18
809.435	28.62
809.611	30.55
809.787	31.22
809.962	32.34
810.138	32.79
810.313	33.1
810.489	31.04
810.664	31.15
810.84	32.12
811.015	31.66
811.191	31.29
811.366	32.13
811.542	31.03
811.717	31.26
811.892	30.54
812.068	29.59
812.243	30.14
812.419	31.03
812.594	33.07
812.769	33.81
812.944	34.85
813.12	34.46
813.295	33.79
813.47	35.16
813.645	34.11
813.821	33.5
813.996	34.58
814.171	34.87
814.346	33.82
814.521	33.45
814.697	32.55
814.872	30.81
815.047	31.42
815.222	31.69
815.397	30.41
815.572	32.84
815.747	33.76
815.922	33.05
816.097	32.56
816.272	33.45
816.447	32.75
816.622	32.23
816.797	32.89
816.972	31.79
817.147	31.77
817.322	32.92
817.496	30.19
817.671	29.92
817.846	30.17
818.021	30.05
818.196	28.96
818.371	27.7
818.545	26.96
818.72	26.54
818.895	26.66
819.069	26.84
819.244	26.04
819.419	25.91
819.594	26.06
819.768	26.08
819.943	24.69
820.117	24.36
820.292	24.22
820.467	23.9
820.641	23.42
820.816	22.95
820.99	22.45
821.165	22.21
821.339	22.24
821.514	21.37
821.688	21.61
821.863	21.76
822.037	21.75
822.212	21.47
822.386	21.17
822.56	20.67
822.735	20.44
822.909	20.53
823.084	20.38
823.258	20.11
823.432	20.05
823.606	19.46
823.781	19.59
823.955	19.29
824.129	19.49
824.303	19.59
824.478	19.89
824.652	20.17
824.826	19.9
825	19.69
825.174	20.08
825.348	20.52
825.523	21.2
825.697	20.63
825.871	22.23
826.045	21.86
826.219	22.15
826.393	22.92
826.567	23.21
826.741	23.68
826.915	23.4
827.089	23.35
827.263	23.51
827.437	23.38
827.611	23.67
827.784	22.68
827.958	23.17
828.132	23.67
828.306	22.8
828.48	23.29
828.654	23.39
828.827	24.2
829.001	24.7
829.175	24.68
829.349	24.64
829.522	25.26
829.696	26.35
829.87	27.21
830.044	26.94
830.217	27.98
830.391	26.39
830.565	25.79
830.738	26.47
830.912	26.06
831.085	26.41
831.259	26.43
831.432	25.8
831.606	25.93
831.779	24.39
831.953	24.78
832.126	25.24
832.3	27.05
832.473	27.49
832.647	27.3
832.82	27.54
832.994	27.88
833.167	27.63
833.34	28.11
833.514	27.89
833.687	27.58
833.86	27.02
834.034	26.72
834.207	26.64
834.38	26.89
834.553	26.92
834.727	26.8
834.9	26.07
835.073	26.23
835.246	25.8
835.419	25.12
835.593	25.95
835.766	25.32
835.939	26.93
836.112	26.38
836.285	25.3
836.458	25.09
836.631	24.1
836.804	25.52
836.977	26.4
837.15	27.62
837.323	27.51
837.496	26.91
837.669	30.07
837.842	28.9
838.015	30.79
838.188	33.36
838.361	33.76
838.533	34.64
838.706	32.28
838.879	32.56
839.052	32.41
839.225	31.99
839.398	33.34
839.57	32.47
839.743	31.74
839.916	31.55
840.088	30.65
840.261	31.67
840.434	33.78
840.607	35.42
840.779	35.83
840.952	33.94
841.124	35.99
841.297	36.69
841.47	37.73
841.642	37.85
841.815	36.24
841.987	35.53
842.16	35.57
842.332	34.77
842.505	33.86
842.677	34.74
842.85	35.57
843.022	35.01
843.194	34.97
843.367	34.89
843.539	34.99
843.712	36.37
843.884	38.03
844.056	38.67
844.229	37.54
844.401	38.83
844.573	35.55
844.745	37.58
844.918	37.48
845.09	37.1
845.262	36.11
845.434	38.06
845.606	39.01
845.779	40.19
845.951	39.39
846.123	39.73
846.295	40.92
846.467	45.68
846.639	48.26
846.811	46.39
846.983	45.65
847.155	48.32
847.327	47.66
847.499	49.89
847.671	50.52
847.843	49.34
848.015	51.64
848.187	52.5
848.359	52.47
848.531	51.75
848.703	56.07
848.875	56.83
849.047	54.85
849.218	57.57
849.39	56.14
849.562	51.88
849.734	53.64
849.905	51.44
850.077	53.41
850.249	53.05
850.421	51.93
850.592	50.7
850.764	51.84
850.936	52.87
851.107	50.69
851.279	49.15
851.451	49.67
851.622	48.82
851.794	45.31
851.965	44.68
852.137	43.62
852.308	37.15
852.48	37.29
852.651	35.86
852.823	36.51
852.994	36.35
853.166	34.55
853.337	38.83
853.509	39.54
853.68	43.69
853.851	42.74
854.023	41.11
854.194	47.62
854.365	47.63
854.537	46.56
854.708	45.04
854.879	43.55
855.05	45.4
855.222	43.63
855.393	45.79
855.564	47.41
855.735	42.91
855.906	44.37
856.078	43.36
856.249	41.33
856.42	41.16
856.591	40.99
856.762	41.93
856.933	38.65
857.104	40.05
857.275	39.05
857.446	40.3
857.617	42.12
857.788	41.5
857.959	40.81
858.13	47.19
858.301	48.52
858.472	47.63
858.643	48.1
858.814	53.07
858.985	54.1
859.155	52.37
859.326	50.45
859.497	53.24
859.668	52.45
859.839	51
860.009	46.56
860.18	47.93
860.351	50.23
860.522	50.32
860.692	49.56
860.863	44.15
861.034	46.08
861.204	45.34
861.375	45.03
861.546	45.74
861.716	45.97
861.887	46.46
862.057	44.78
862.228	45.16
862.398	45.36
862.569	49.53
862.739	48.51
862.91	47.2
863.08	46.53
863.251	45.22
863.421	46.12
863.592	52.81
863.762	48.68
863.932	47.6
864.103	47.81
864.273	47.5
864.443	42.72
864.614	45.77
864.784	43.32
864.954	45.06
865.125	44.51
865.295	42.88
865.465	38.51
865.635	41.16
865.805	42.55
865.976	41.39
866.146	40.06
866.316	39.85
866.486	38.86
866.656	40.24
866.826	38.82
866.996	38.4
867.166	39.74
867.336	37.98
867.506	36.16
867.676	33.97
867.846	34.35
868.016	32.02
868.186	32.97
868.356	35.91
868.526	39.07
868.696	34.2
868.866	36.15
869.036	35.61
869.206	35.03
869.376	38.7
869.545	42.16
869.715	41.75
869.885	46.2
870.055	47.74
870.224	48.21
870.394	45.47
870.564	49.46
870.734	49.53
870.903	45.93
871.073	49.85
871.243	49.78
871.412	50.8
871.582	51.74
871.751	51.15
871.921	47.48
872.091	47.18
872.26	42.98
872.43	39.43
872.599	34.9
872.769	37.57
872.938	38.37
873.108	40.8
873.277	36.73
873.446	38.54
873.616	37.48
873.785	39.41
873.955	37.19
874.124	42.5
874.293	46.88
874.463	48.1
874.632	49.57
874.801	48.27
874.971	44.22
875.14	48.19
875.309	45.45
875.478	46.23
875.647	46.16
875.817	45.06
875.986	41.21
876.155	38.82
876.324	39.15
876.493	40.33
876.662	37.86
876.831	36.92
877	35.12
877.17	35
877.339	31.51
877.508	30.63
877.677	28.39
877.846	28.74
878.015	30.77
878.184	30.53
878.352	29.39
878.521	30.21
878.69	32.86
878.859	33.71
879.028	36.77
879.197	39.56
879.366	39.33
879.534	41.49
879.703	40.67
879.872	38.02
880.041	36.36
880.21	33.41
880.378	32
880.547	30.77
880.716	29.46
880.884	26.24
881.053	24.4
881.222	23.83
881.39	23.01
881.559	22.68
881.727	22.94
881.896	22.53
882.065	22.4
882.233	22.07
882.402	21.69
882.57	22.48
882.739	23.07
882.907	23.8
883.076	23.79
883.244	23.98
883.412	23.79
883.581	23.8
883.749	24.1
883.918	23.6
884.086	24.77
884.254	25.56
884.423	24.06
884.591	24.31
884.759	23.11
884.927	22.66
885.096	20.7
885.264	20.06
885.432	18.47
885.6	20.89
885.769	22.47
885.937	21.22
886.105	19.41
886.273	21.64
886.441	21.49
886.609	23.49
886.777	26.02
886.945	29.02
887.113	30.98
887.281	35.17
887.449	30.87
887.617	34.49
887.785	35.92
887.953	38.02
888.121	37.8
888.289	41.91
888.457	44.84
888.625	45.14
888.793	46.47
888.961	47.74
889.129	46.25
889.296	52.1
889.464	50.21
889.632	50.77
889.8	54.35
889.967	53.37
890.135	48.42
