Data from 2938810__Reflection_02.txt Node
Date: Thu Mar 12 16:58:39 EDT 2015
User: robert
Spectrometer: USB4E03002
Autoset integration time: false
Trigger mode: 4
Integration Time (sec): 1.000000E-1
Scans to average: 10
Electric dark correction enabled: false
Nonlinearity correction enabled: false
Boxcar width: 5
Stray light correction enabled: false
XAxis mode: Wavelengths
Stop averaging: false
Number of Pixels in Spectrum: 3648
>>>>>Begin Spectral Data<<<<<
177.575	52.31
177.794	60.49
178.014	-76.19
178.233	195.24
178.452	-275
178.672	215.38
178.891	80
179.11	94.44
179.33	38.53
179.549	308.7
179.768	64.93
179.987	151.7
180.207	491.36
180.426	1250
180.645	519.28
180.864	293.8
181.084	277
181.303	286.49
181.522	217.86
181.741	392.8
181.96	866.67
182.179	737.04
182.398	-482.46
182.618	222.08
182.837	712.24
183.056	246.07
183.275	260.47
183.494	835.9
183.713	-27500
183.932	194.02
184.151	132.35
184.37	107.51
184.589	135.02
184.808	120.95
185.027	99.56
185.246	77.26
185.465	92.1
185.684	286.89
185.903	236.59
186.122	69.9
186.341	-183.05
186.56	-320
186.779	45.74
186.998	37.54
187.216	70.48
187.435	37.68
187.654	32.03
187.873	20.04
188.092	3.57
188.311	-0.42
188.53	9.64
188.748	24.74
188.967	28.99
189.186	-11.73
189.405	-208.11
189.623	377.78
189.842	105.1
190.061	101.66
190.28	76.91
190.498	56.79
190.717	87.43
190.936	109.32
191.154	111.53
191.373	116.19
191.592	161.25
191.81	135.59
192.029	130.15
192.248	178.85
192.466	232.19
192.685	317.07
192.904	254.35
193.122	176.51
193.341	171.24
193.559	137.48
193.778	143.22
193.996	116.9
194.215	121
194.433	123.1
194.652	138.81
194.87	127.49
195.089	109.92
195.307	121.12
195.526	115.59
195.744	154.06
195.963	254.67
196.181	247.15
196.399	237.77
196.618	302.79
196.836	693.15
197.055	251.72
197.273	282.04
197.491	194.55
197.71	264.29
197.928	345.04
198.146	264.93
198.365	141.28
198.583	269.15
198.801	162.41
199.019	94.28
199.238	122.91
199.456	158.33
199.674	94.36
199.892	757.89
200.111	98.41
200.329	20.86
200.547	29.02
200.765	-16.54
200.983	14.36
201.202	-23.08
201.42	-586.21
201.638	-29400
201.856	-375
202.074	1340
202.292	-420.31
202.51	-22.3
202.728	87.69
202.946	117.42
203.165	140.17
203.383	124.9
203.601	127.53
203.819	106.41
204.037	154.95
204.255	102.94
204.473	108.71
204.691	122.47
204.909	145.76
205.127	175.31
205.345	152.97
205.562	151.29
205.78	218.27
205.998	342.19
206.216	350
206.434	228.22
206.652	-1347.83
206.87	-409.3
207.088	61.86
207.306	40.94
207.523	-37.63
207.741	136
207.959	60.26
208.177	66.98
208.395	38.09
208.612	58.17
208.83	56.11
209.048	51.71
209.266	65.72
209.483	59.08
209.701	49.86
209.919	38.75
210.136	48.83
210.354	43.95
210.572	41.79
210.79	42.68
211.007	33.25
211.225	34.24
211.442	30.05
211.66	24.29
211.878	43.23
212.095	53.07
212.313	53.45
212.53	43.48
212.748	46.17
212.966	46.55
213.183	49.62
213.401	54.11
213.618	57
213.836	62.47
214.053	54.17
214.271	46.15
214.488	36.66
214.705	26.82
214.923	17.45
215.14	21.32
215.358	8.93
215.575	8.76
215.793	1.47
216.01	-26.12
216.227	-39.8
216.445	-38.22
216.662	-34.07
216.879	-20.46
217.097	-17.98
217.314	-4.46
217.531	11.1
217.749	28.44
217.966	32.08
218.183	40.1
218.4	50.86
218.618	57.86
218.835	59.73
219.052	52.39
219.269	46.84
219.487	52.21
219.704	57.29
219.921	55.33
220.138	49.67
220.355	39.7
220.572	31.87
220.79	31.82
221.007	38.75
221.224	26.53
221.441	16.14
221.658	14.78
221.875	19.65
222.092	13.65
222.309	13.11
222.526	13.16
222.743	15.76
222.96	22.27
223.177	18.06
223.394	16.61
223.611	25.9
223.828	31.24
224.045	30.33
224.262	22.52
224.479	22.25
224.696	21.46
224.913	20.69
225.13	16.6
225.347	8.75
225.564	10.67
225.781	4.63
225.997	1.65
226.214	3.91
226.431	5.53
226.648	8.26
226.865	11.41
227.082	11.51
227.298	11.66
227.515	12.68
227.732	13.01
227.949	13.19
228.165	13.47
228.382	13.71
228.599	12.57
228.816	11.46
229.032	10.7
229.249	9.64
229.466	8.99
229.682	8.02
229.899	8.47
230.116	7.76
230.332	6.95
230.549	6.35
230.765	4.97
230.982	6.34
231.199	7.63
231.415	7.71
231.632	8.09
231.848	7.93
232.065	9.08
232.281	6.89
232.498	7.43
232.714	6.55
232.931	7.81
233.147	7.3
233.364	4.51
233.58	2.84
233.797	3.85
234.013	4.16
234.23	7.01
234.446	6.66
234.662	7.2
234.879	6
235.095	5.94
235.312	4.43
235.528	6.27
235.744	7.11
235.961	7.21
236.177	8.25
236.393	8.27
236.61	7.16
236.826	7.73
237.042	7.72
237.258	8.51
237.475	10.94
237.691	12.41
237.907	11.49
238.123	10.64
238.339	11.54
238.556	8.49
238.772	6.19
238.988	5.44
239.204	4.71
239.42	3.79
239.636	5.45
239.853	4.5
240.069	4.41
240.285	4.69
240.501	4.67
240.717	4.75
240.933	4.73
241.149	4.79
241.365	5.81
241.581	5.76
241.797	6.25
242.013	6.01
242.229	5.28
242.445	5.82
242.661	5.77
242.877	5.46
243.093	5.13
243.309	5.88
243.525	6.46
243.741	6.13
243.957	5.73
244.173	5.42
244.388	5.62
244.604	5.97
244.82	4.79
245.036	5.32
245.252	5.84
245.468	5.8
245.683	5.43
245.899	5.33
246.115	5.08
246.331	5.59
246.547	5.62
246.762	5.41
246.978	5.43
247.194	5.2
247.409	5.12
247.625	4.81
247.841	4.85
248.057	4.59
248.272	4.36
248.488	4.32
248.703	3.99
248.919	3.61
249.135	3.44
249.35	3.41
249.566	3.72
249.782	3.04
249.997	3.1
250.213	2.6
250.428	3.07
250.644	3.84
250.859	4.07
251.075	4.1
251.29	4.87
251.506	4.75
251.721	4.85
251.937	4.83
252.152	5.75
252.368	5.3
252.583	6.25
252.798	6.54
253.014	5.84
253.229	5.71
253.445	5.38
253.66	5.17
253.875	4.74
254.091	5.02
254.306	4.77
254.521	3.61
254.737	5.04
254.952	3.23
255.167	2.39
255.383	3.51
255.598	3.68
255.813	4.32
256.028	3.72
256.244	4.81
256.459	5.16
256.674	5.44
256.889	5.3
257.104	5.47
257.32	6.16
257.535	6.69
257.75	5.62
257.965	5.22
258.18	5.36
258.395	5.47
258.61	4.96
258.826	4.2
259.041	4.37
259.256	4.2
259.471	3.94
259.686	4.04
259.901	3.78
260.116	4.1
260.331	3.87
260.546	3.78
260.761	3.86
260.976	3.7
261.191	4.03
261.406	4.08
261.621	4.31
261.836	4.09
262.05	4.09
262.265	4.02
262.48	3.47
262.695	4.31
262.91	4.61
263.125	4.11
263.34	4.44
263.555	3.6
263.769	3.19
263.984	3.02
264.199	3.56
264.414	3.28
264.629	4.08
264.843	4.26
265.058	3.89
265.273	3.67
265.488	4.38
265.702	4.67
265.917	4.88
266.132	4.57
266.346	4.56
266.561	4.09
266.776	4.42
266.99	4.31
267.205	4.26
267.42	4.62
267.634	4.44
267.849	4.23
268.063	3.7
268.278	3.5
268.492	3.48
268.707	3.32
268.922	3.45
269.136	2.85
269.351	2.29
269.565	2.89
269.78	2.47
269.994	3.21
270.209	3.11
270.423	3.6
270.637	3.92
270.852	4.12
271.066	4.3
271.281	4.23
271.495	4.15
271.709	4.28
271.924	3.99
272.138	3.75
272.353	3.48
272.567	3.44
272.781	3.61
272.996	3.75
273.21	4.04
273.424	3.98
273.638	4.22
273.853	4.66
274.067	4.72
274.281	4.96
274.495	5.39
274.71	4.86
274.924	5.08
275.138	5.09
275.352	4.78
275.566	4.52
275.781	4.65
275.995	4.62
276.209	4.45
276.423	4.72
276.637	4.17
276.851	3.93
277.065	4.07
277.279	3.75
277.493	3.66
277.707	3.97
277.921	3.62
278.135	3.36
278.349	3.52
278.563	3.96
278.777	4.38
278.991	4.37
279.205	4.57
279.419	4.48
279.633	4.99
279.847	4.71
280.061	4.39
280.275	4.7
280.489	5.33
280.703	4.72
280.917	4.13
281.131	3.36
281.344	4.04
281.558	3.5
281.772	3.77
281.986	3.29
282.2	3.36
282.414	3.21
282.627	3
282.841	2.65
283.055	3.32
283.269	3.15
283.482	3.1
283.696	3.06
283.91	3.68
284.123	3.77
284.337	3.88
284.551	3.54
284.764	3.79
284.978	3.67
285.192	3.45
285.405	3.15
285.619	3.11
285.833	3.36
286.046	3.16
286.26	3.04
286.473	3.04
286.687	3.05
286.9	3.49
287.114	3.31
287.327	3.57
287.541	3.66
287.754	3.83
287.968	4.21
288.181	3.79
288.395	3.74
288.608	3.41
288.822	3.22
289.035	3.2
289.248	2.91
289.462	3.39
289.675	3.28
289.889	3.32
290.102	3.08
290.315	3.16
290.529	3.7
290.742	3.47
290.955	3.84
291.169	3.93
291.382	3.91
291.595	3.92
291.808	4.01
292.022	3.98
292.235	4.21
292.448	4.36
292.661	4.24
292.875	4.36
293.088	4.81
293.301	4.46
293.514	4.64
293.727	4.87
293.94	5.05
294.153	4.56
294.367	4.72
294.58	4.61
294.793	4.62
295.006	4.61
295.219	4.23
295.432	4.28
295.645	4.45
295.858	4.4
296.071	4.27
296.284	4.25
296.497	4.54
296.71	4.37
296.923	4.29
297.136	4.29
297.349	4.34
297.562	4.44
297.775	4.61
297.988	4.72
298.201	4.81
298.414	4.91
298.626	5.01
298.839	5.19
299.052	5.31
299.265	5.5
299.478	5.73
299.691	5.45
299.903	5.65
300.116	5.48
300.329	5.35
300.542	4.94
300.755	5.01
300.967	4.87
301.18	4.38
301.393	4.3
301.605	4.14
301.818	4.13
302.031	4.58
302.243	4.47
302.456	4.57
302.669	4.52
302.881	4.83
303.094	4.92
303.307	4.89
303.519	5.25
303.732	5.33
303.944	5.53
304.157	5.49
304.37	5.73
304.582	5.68
304.795	5.48
305.007	5.7
305.22	5.98
305.432	5.93
305.645	5.99
305.857	5.73
306.069	5.73
306.282	5.63
306.494	5.3
306.707	4.63
306.919	4.63
307.132	4.99
307.344	4.69
307.556	4.29
307.769	4.4
307.981	4.59
308.193	4.69
308.406	5
308.618	5.29
308.83	5.5
309.043	5.76
309.255	5.88
309.467	5.34
309.679	5.61
309.892	5.79
310.104	6.07
310.316	6.04
310.528	5.87
310.74	5.88
310.953	5.7
311.165	5.96
311.377	6.01
311.589	6.23
311.801	6.39
312.013	6.37
312.225	6.4
312.437	5.85
312.649	5.93
312.862	6.2
313.074	5.75
313.286	5.67
313.498	5.75
313.71	6.01
313.922	5.51
314.134	5.29
314.346	5.22
314.558	5.09
314.77	5.42
314.982	5.26
315.193	5.36
315.405	5.76
315.617	6.01
315.829	5.71
316.041	5.45
316.253	5.63
316.465	6.37
316.677	6.84
316.888	6.89
317.1	6.65
317.312	6.97
317.524	7.2
317.736	7.44
317.947	7.19
318.159	6.92
318.371	6.67
318.583	6.61
318.794	6.58
319.006	6.51
319.218	6.62
319.43	7.03
319.641	6.9
319.853	6.29
320.064	6.08
320.276	6.45
320.488	7.27
320.699	7.65
320.911	8.05
321.123	7.97
321.334	7.38
321.546	7.99
321.757	8.07
321.969	8.55
322.18	8.65
322.392	8.51
322.603	8.15
322.815	7.88
323.026	8.31
323.238	8.07
323.449	8.01
323.661	8.3
323.872	8.11
324.083	8.04
324.295	7.6
324.506	7.86
324.718	8.03
324.929	8.29
325.14	8.09
325.352	7.89
325.563	8.13
325.774	8.34
325.986	8.67
326.197	8.8
326.408	8.72
326.62	9.19
326.831	8.91
327.042	9.08
327.253	9.06
327.464	9.32
327.676	9.12
327.887	8.98
328.098	8.67
328.309	8.57
328.52	8.41
328.732	8.53
328.943	8.43
329.154	9.04
329.365	9.03
329.576	9.08
329.787	9.19
329.998	9.94
330.209	9.85
330.42	9.98
330.631	9.87
330.842	9.45
331.053	9.58
331.264	9.42
331.475	9.1
331.686	9.35
331.897	9.13
332.108	9
332.319	8.87
332.53	8.78
332.741	8.93
332.952	9.06
333.163	9.81
333.374	9.98
333.585	10.37
333.795	10.34
334.006	9.94
334.217	10.11
334.428	9.84
334.639	9.69
334.849	10.39
335.06	10.69
335.271	10.7
335.482	10.46
335.692	10.05
335.903	9.86
336.114	9.92
336.325	9.85
336.535	9.97
336.746	10.1
336.957	9.82
337.167	9.27
337.378	8.83
337.589	8.95
337.799	8.78
338.01	8.84
338.22	8.68
338.431	8.54
338.642	8.7
338.852	8.78
339.063	8.97
339.273	9.19
339.484	9.13
339.694	9.24
339.905	9.17
340.115	9.21
340.326	9.26
340.536	8.95
340.746	9.42
340.957	9.79
341.167	9.57
341.378	9.67
341.588	9.7
341.799	10.03
342.009	9.75
342.219	9.4
342.43	9.49
342.64	9.55
342.85	9.5
343.061	9.24
343.271	8.87
343.481	9.03
343.691	8.61
343.902	8.14
344.112	8.07
344.322	8.2
344.532	8.32
344.743	8.27
344.953	8.74
345.163	8.93
345.373	8.84
345.583	9.08
345.793	9.2
346.004	9.21
346.214	9.57
346.424	9.72
346.634	9.85
346.844	9.54
347.054	9.54
347.264	8.76
347.474	9.02
347.684	8.78
347.894	8.46
348.104	8.23
348.314	8.06
348.524	7.71
348.734	7.25
348.944	7.28
349.154	7.48
349.364	7.6
349.574	7.71
349.784	7.06
349.994	7.06
350.204	6.87
350.413	6.99
350.623	7.13
350.833	7.15
351.043	7.06
351.253	6.94
351.463	7.1
351.672	7.07
351.882	7.08
352.092	7.3
352.302	7.42
352.511	7.98
352.721	7.78
352.931	7.88
353.141	7.96
353.35	8
353.56	7.81
353.77	7.88
353.979	7.49
354.189	7.47
354.399	7.8
354.608	8.06
354.818	7.55
355.027	7.62
355.237	7.68
355.447	7.79
355.656	8.06
355.866	8.28
356.075	8.38
356.285	8.62
356.494	8.75
356.704	8.68
356.913	8.61
357.123	8.91
357.332	8.75
357.542	8.68
357.751	8.95
357.96	8.83
358.17	8.82
358.379	8.51
358.589	8.46
358.798	8.45
359.007	8.42
359.217	8.43
359.426	8.37
359.635	8.66
359.845	8.34
360.054	8.11
360.263	8.14
360.472	8.04
360.682	8.11
360.891	8.17
361.1	8.05
361.309	7.89
361.519	7.65
361.728	7.49
361.937	7.37
362.146	7.63
362.355	7.35
362.564	7.4
362.774	7.32
362.983	7.26
363.192	7.07
363.401	7.27
363.61	7.28
363.819	7.5
364.028	7.56
364.237	7.58
364.446	7.84
364.655	8.01
364.864	7.69
365.073	7.58
365.282	7.58
365.491	7.58
365.7	7.42
365.909	7.47
366.118	7.33
366.327	7.32
366.536	7.11
366.745	6.91
366.954	7.2
367.162	7.23
367.371	7.62
367.58	7.43
367.789	7.57
367.998	7.31
368.207	7.13
368.415	7.12
368.624	6.93
368.833	7.03
369.042	6.65
369.25	6.35
369.459	6.58
369.668	6.23
369.877	6.42
370.085	6.1
370.294	6.12
370.503	6.33
370.711	6.61
370.92	6.76
371.129	6.79
371.337	6.92
371.546	7.01
371.754	6.73
371.963	6.86
372.171	6.82
372.38	7.12
372.589	7.19
372.797	7.1
373.006	6.8
373.214	6.94
373.423	6.53
373.631	6.53
373.84	6.4
374.048	6.79
374.256	6.76
374.465	6.86
374.673	6.65
374.882	6.49
375.09	6.6
375.298	6.64
375.507	6.56
375.715	6.97
375.923	7.01
376.132	6.98
376.34	6.63
376.548	6.55
376.757	6.62
376.965	6.51
377.173	6.56
377.381	6.3
377.59	6.34
377.798	6.32
378.006	6.22
378.214	6.16
378.423	6.17
378.631	6.31
378.839	6.24
379.047	5.94
379.255	5.99
379.463	6.05
379.671	6.23
379.879	6.05
380.088	5.97
380.296	5.85
380.504	5.76
380.712	5.58
380.92	5.41
381.128	5.48
381.336	5.61
381.544	5.83
381.752	5.81
381.96	5.48
382.168	5.66
382.376	5.38
382.584	5.64
382.791	5.65
382.999	5.72
383.207	5.79
383.415	5.94
383.623	6.01
383.831	5.94
384.039	5.94
384.247	6.23
384.454	6
384.662	6
384.87	5.62
385.078	5.67
385.285	5.78
385.493	5.79
385.701	5.62
385.909	5.39
386.116	5.3
386.324	5.26
386.532	5.27
386.739	5.49
386.947	5.82
387.155	6.12
387.362	6.25
387.57	6.13
387.778	6.08
387.985	5.99
388.193	6.05
388.4	6.11
388.608	6.16
388.816	6.01
389.023	5.81
389.231	5.53
389.438	5.31
389.646	4.96
389.853	4.97
390.061	5
390.268	4.93
390.475	4.97
390.683	4.95
390.89	4.7
391.098	4.7
391.305	4.71
391.512	4.74
391.72	4.56
391.927	4.76
392.135	4.91
392.342	4.82
392.549	4.91
392.756	5.02
392.964	4.95
393.171	5.26
393.378	5.32
393.586	5.41
393.793	5.37
394	5.71
394.207	5.79
394.414	5.62
394.622	5.74
394.829	5.98
395.036	5.79
395.243	5.82
395.45	5.55
395.657	5.34
395.864	5.09
396.072	5.21
396.279	5.03
396.486	4.94
396.693	5.02
396.9	4.83
397.107	4.62
397.314	4.52
397.521	4.44
397.728	4.54
397.935	4.79
398.142	5.05
398.349	5.09
398.556	5.14
398.763	5.08
398.97	5.05
399.177	5.12
399.383	5.02
399.59	5.2
399.797	5.3
400.004	5.38
400.211	5.11
400.418	5
400.625	4.84
400.831	4.88
401.038	4.77
401.245	4.81
401.452	4.76
401.658	5.04
401.865	5.01
402.072	5.01
402.279	4.85
402.485	4.86
402.692	4.81
402.899	5.04
403.105	5.2
403.312	5.43
403.519	5.41
403.725	5.35
403.932	5.19
404.138	5.12
404.345	5.1
404.552	5.34
404.758	5.44
404.965	5.57
405.171	5.15
405.378	4.79
405.584	4.49
405.791	4.28
405.997	4.38
406.204	4.23
406.41	4.24
406.617	4.29
406.823	4.19
407.029	4.23
407.236	4.07
407.442	4.24
407.649	4.44
407.855	4.77
408.061	4.92
408.268	4.97
408.474	5.23
408.68	5.36
408.887	5.28
409.093	5.31
409.299	5.3
409.505	5.21
409.712	5.15
409.918	5.07
410.124	4.82
410.33	5.02
410.537	5.04
410.743	4.79
410.949	4.72
411.155	4.64
411.361	4.52
411.567	4.54
411.773	4.74
411.98	4.99
412.186	4.9
412.392	5
412.598	4.88
412.804	4.83
413.01	4.81
413.216	4.91
413.422	4.89
413.628	4.99
413.834	4.96
414.04	4.94
414.246	4.93
414.452	4.89
414.658	4.97
414.864	4.76
415.07	4.7
415.275	4.55
415.481	4.15
415.687	4.17
415.893	4.11
416.099	4.08
416.305	4.05
416.511	3.99
416.716	4.19
416.922	4.13
417.128	4.4
417.334	4.53
417.539	4.69
417.745	4.86
417.951	4.85
418.157	4.86
418.362	4.87
418.568	4.82
418.774	4.84
418.979	4.71
419.185	4.71
419.391	4.57
419.596	4.5
419.802	4.53
420.008	4.45
420.213	3.7
420.419	3.66
420.624	3.64
420.83	3.66
421.035	3.65
421.241	3.72
421.446	3.73
421.652	3.79
421.857	3.84
422.063	3.85
422.268	3.96
422.474	4.72
422.679	4.69
422.885	4.87
423.09	4.92
423.295	4.95
423.501	4.89
423.706	4.87
423.911	4.83
424.117	4.82
424.322	4.8
424.527	4.74
424.733	4.73
424.938	4.79
425.143	4.65
425.349	4.63
425.554	4.59
425.759	4.66
425.964	4.67
426.169	4.67
426.375	4.53
426.58	4.51
426.785	4.5
426.99	4.47
427.195	4.53
427.4	4.5
427.605	4.47
427.811	4.53
428.016	4.53
428.221	4.54
428.426	4.54
428.631	4.6
428.836	4.65
429.041	4.69
429.246	4.75
429.451	4.6
429.656	4.67
429.861	4.63
430.066	4.73
430.271	4.81
430.476	4.84
430.681	4.8
430.886	4.87
431.09	4.85
431.295	4.89
431.5	4.85
431.705	4.88
431.91	4.88
432.115	4.95
432.32	4.8
432.524	4.68
432.729	4.67
432.934	4.77
433.139	4.75
433.343	4.7
433.548	4.69
433.753	4.64
433.958	4.68
434.162	4.67
434.367	4.71
434.572	4.77
434.776	4.81
434.981	4.81
435.186	4.78
435.39	4.79
435.595	4.89
435.799	4.85
436.004	4.88
436.209	4.9
436.413	4.97
436.618	4.91
436.822	4.85
437.027	4.84
437.231	4.82
437.436	4.77
437.64	4.73
437.845	4.67
438.049	4.7
438.253	4.66
438.458	4.64
438.662	4.58
438.867	4.56
439.071	4.54
439.275	4.47
439.48	4.46
439.684	4.51
439.888	4.52
440.093	4.54
440.297	4.56
440.501	4.62
440.706	4.63
440.91	4.63
441.114	4.66
441.318	4.64
441.523	4.72
441.727	4.75
441.931	4.7
442.135	4.82
442.339	4.82
442.543	4.72
442.748	4.74
442.952	4.79
443.156	4.83
443.36	4.81
443.564	4.81
443.768	4.82
443.972	4.85
444.176	4.95
444.38	4.9
444.584	4.87
444.788	4.82
444.992	4.84
445.196	4.7
445.4	4.72
445.604	4.74
445.808	4.79
446.012	4.73
446.216	4.66
446.42	4.59
446.624	4.54
446.828	4.53
447.032	4.61
447.235	4.56
447.439	4.61
447.643	4.48
447.847	4.48
448.051	4.46
448.254	4.53
448.458	4.49
448.662	4.54
448.866	4.54
449.069	4.52
449.273	4.53
449.477	4.44
449.681	4.48
449.884	4.6
450.088	4.6
450.292	4.69
450.495	4.58
450.699	4.58
450.902	4.5
451.106	4.54
451.31	4.55
451.513	4.61
451.717	4.63
451.92	4.57
452.124	4.46
452.327	4.44
452.531	4.35
452.734	4.38
452.938	4.38
453.141	4.46
453.345	4.45
453.548	4.44
453.752	4.38
453.955	4.42
454.158	4.53
454.362	4.55
454.565	4.59
454.769	4.56
454.972	4.61
455.175	4.58
455.379	4.62
455.582	4.46
455.785	4.44
455.988	4.45
456.192	4.45
456.395	4.36
456.598	4.3
456.801	4.2
457.005	4.24
457.208	4.22
457.411	4.2
457.614	4.08
457.817	4.18
458.021	4.26
458.224	4.21
458.427	4.18
458.63	4.18
458.833	4.22
459.036	4.26
459.239	4.25
459.442	4.24
459.645	4.29
459.848	4.25
460.051	4.33
460.254	4.36
460.457	4.38
460.66	4.48
460.863	4.54
461.066	4.47
461.269	4.49
461.472	4.44
461.675	4.42
461.878	4.53
462.081	4.53
462.284	4.58
462.486	4.5
462.689	4.55
462.892	4.45
463.095	4.3
463.298	4.46
463.5	4.43
463.703	4.5
463.906	4.57
464.109	4.59
464.311	4.77
464.514	4.74
464.717	4.69
464.92	4.53
465.122	4.49
465.325	4.56
465.528	4.48
465.73	4.53
465.933	4.53
466.135	4.58
466.338	4.43
466.541	4.33
466.743	4.26
466.946	4.42
467.148	4.56
467.351	4.66
467.553	4.76
467.756	4.89
467.958	4.9
468.161	4.91
468.363	4.84
468.566	4.81
468.768	4.92
468.971	4.9
469.173	4.86
469.375	4.77
469.578	4.64
469.78	4.56
469.983	4.48
470.185	4.46
470.387	4.44
470.59	4.48
470.792	4.52
470.994	4.4
471.196	4.45
471.399	4.46
471.601	4.52
471.803	4.53
472.005	4.6
472.208	4.67
472.41	4.73
472.612	4.87
472.814	4.79
473.016	4.88
473.218	5
473.421	4.83
473.623	4.73
473.825	4.73
474.027	4.8
474.229	4.83
474.431	4.8
474.633	4.72
474.835	4.58
475.037	4.69
475.239	4.71
475.441	4.6
475.643	4.69
475.845	4.77
476.047	4.8
476.249	4.77
476.451	4.7
476.653	4.65
476.855	4.69
477.057	4.72
477.258	4.72
477.46	4.67
477.662	4.72
477.864	4.71
478.066	4.69
478.268	4.71
478.469	4.73
478.671	4.71
478.873	4.67
479.075	4.66
479.276	4.71
479.478	4.68
479.68	4.65
479.882	4.61
480.083	4.66
480.285	4.67
480.487	4.66
480.688	4.63
480.89	4.67
481.091	4.69
481.293	4.66
481.495	4.64
481.696	4.56
481.898	4.56
482.099	4.55
482.301	4.57
482.502	4.54
482.704	4.53
482.905	4.51
483.107	4.48
483.308	4.5
483.51	4.5
483.711	4.49
483.913	4.53
484.114	4.54
484.315	4.53
484.517	4.53
484.718	4.53
484.92	4.52
485.121	4.51
485.322	4.53
485.524	4.53
485.725	4.53
485.926	4.55
486.127	4.55
486.329	4.56
486.53	4.6
486.731	4.57
486.932	4.59
487.134	4.62
487.335	4.64
487.536	4.63
487.737	4.61
487.938	4.6
488.139	4.58
488.341	4.59
488.542	4.59
488.743	4.58
488.944	4.62
489.145	4.59
489.346	4.53
489.547	4.55
489.748	4.62
489.949	4.61
490.15	4.61
490.351	4.56
490.552	4.53
490.753	4.53
490.954	4.51
491.155	4.46
491.356	4.46
491.557	4.47
491.758	4.5
491.959	4.46
492.159	4.49
492.36	4.52
492.561	4.6
492.762	4.61
492.963	4.68
493.164	4.69
493.364	4.74
493.565	4.75
493.766	4.81
493.967	4.81
494.167	4.82
494.368	4.81
494.569	4.88
494.769	4.83
494.97	4.79
495.171	4.74
495.371	4.76
495.572	4.81
495.773	4.88
495.973	4.95
496.174	4.99
496.375	4.96
496.575	4.93
496.776	4.9
496.976	4.96
497.177	5.02
497.377	5.08
497.578	5.04
497.778	4.98
497.979	4.93
498.179	4.84
498.38	4.83
498.58	4.82
498.78	4.91
498.981	4.86
499.181	4.79
499.382	4.75
499.582	4.71
499.782	4.79
499.983	4.88
500.183	4.91
500.383	5
500.584	4.94
500.784	5.05
500.984	5.09
501.184	5.23
501.385	5.32
501.585	5.5
501.785	5.54
501.985	5.53
502.185	5.59
502.386	5.65
502.586	5.64
502.786	5.73
502.986	5.74
503.186	5.75
503.386	5.73
503.586	5.75
503.786	5.67
503.987	5.62
504.187	5.63
504.387	5.61
504.587	5.6
504.787	5.62
504.987	5.65
505.187	5.66
505.387	5.61
505.587	5.59
505.786	5.54
505.986	5.49
506.186	5.6
506.386	5.64
506.586	5.65
506.786	5.77
506.986	5.82
507.186	5.83
507.386	5.9
507.585	5.96
507.785	5.95
507.985	6.04
508.185	6.12
508.384	6.07
508.584	6.11
508.784	6.19
508.984	6.18
509.183	6.26
509.383	6.35
509.583	6.35
509.782	6.43
509.982	6.53
510.182	6.6
510.381	6.62
510.581	6.72
510.781	6.74
510.98	6.77
511.18	6.8
511.379	6.83
511.579	6.83
511.778	6.87
511.978	6.82
512.177	6.79
512.377	6.71
512.576	6.81
512.776	6.8
512.975	6.86
513.175	6.88
513.374	6.84
513.573	6.82
513.773	6.79
513.972	6.84
514.172	6.93
514.371	7.03
514.57	7.18
514.77	7.19
514.969	7.25
515.168	7.33
515.367	7.4
515.567	7.56
515.766	7.68
515.965	7.71
516.164	7.74
516.364	7.81
516.563	7.83
516.762	7.94
516.961	8
517.16	8.04
517.359	7.99
517.559	8.06
517.758	8.12
517.957	8.12
518.156	8.2
518.355	8.26
518.554	8.24
518.753	8.31
518.952	8.22
519.151	8.22
519.35	8.22
519.549	8.31
519.748	8.34
519.947	8.27
520.146	8.31
520.345	8.43
520.544	8.44
520.743	8.56
520.942	8.63
521.141	8.83
521.339	8.95
521.538	9.04
521.737	9.11
521.936	9.17
522.135	9.3
522.333	9.4
522.532	9.36
522.731	9.44
522.93	9.43
523.129	9.4
523.327	9.26
523.526	9.29
523.725	9.37
523.923	9.41
524.122	9.43
524.321	9.55
524.519	9.65
524.718	9.74
524.917	9.79
525.115	9.82
525.314	9.95
525.512	10.1
525.711	10.16
525.909	10.27
526.108	10.33
526.306	10.34
526.505	10.35
526.703	10.37
526.902	10.42
527.1	10.51
527.299	10.61
527.497	10.66
527.696	10.72
527.894	10.73
528.092	10.74
528.291	10.78
528.489	10.88
528.688	10.9
528.886	10.92
529.084	10.93
529.283	10.92
529.481	10.93
529.679	10.88
529.877	10.92
530.076	10.99
530.274	11.01
530.472	11.02
530.67	11.02
530.869	11.04
531.067	11.11
531.265	11.18
531.463	11.33
531.661	11.44
531.859	11.61
532.057	11.69
532.255	11.76
532.454	11.83
532.652	11.89
532.85	11.92
533.048	12
533.246	12.05
533.444	12.11
533.642	12.14
533.84	12.14
534.038	12.18
534.236	12.23
534.434	12.22
534.632	12.27
534.83	12.31
535.027	12.36
535.225	12.36
535.423	12.39
535.621	12.5
535.819	12.48
536.017	12.53
536.215	12.51
536.412	12.5
536.61	12.6
536.808	12.54
537.006	12.63
537.203	12.66
537.401	12.77
537.599	12.88
537.797	12.82
537.994	12.95
538.192	13.06
538.39	13.14
538.587	13.24
538.785	13.25
538.983	13.34
539.18	13.41
539.378	13.59
539.575	13.66
539.773	13.67
539.97	13.72
540.168	13.75
540.366	13.78
540.563	13.78
540.761	13.81
540.958	13.82
541.155	13.9
541.353	13.93
541.55	13.94
541.748	13.93
541.945	13.94
542.143	13.98
542.34	14
542.537	13.97
542.735	14.01
542.932	13.99
543.129	14.05
543.327	14.08
543.524	14.09
543.721	14.09
543.919	14.19
544.116	14.22
544.313	14.26
544.51	14.28
544.708	14.41
544.905	14.49
545.102	14.61
545.299	14.64
545.496	14.73
545.693	14.76
545.891	14.84
546.088	14.76
546.285	14.79
546.482	14.79
546.679	14.84
546.876	14.81
547.073	14.94
547.27	14.87
547.467	14.91
547.664	14.86
547.861	14.87
548.058	14.89
548.255	14.96
548.452	14.87
548.649	14.8
548.846	14.77
549.043	14.8
549.24	14.6
549.437	14.69
549.633	14.67
549.83	14.69
550.027	14.65
550.224	14.65
550.421	14.65
550.618	14.87
550.814	15.13
551.011	15.13
551.208	15.21
551.405	15.31
551.601	15.33
551.798	15.36
551.995	15.41
552.191	15.6
552.388	15.54
552.585	15.57
552.781	15.58
552.978	15.4
553.175	15.39
553.371	15.5
553.568	15.46
553.764	15.42
553.961	15.41
554.157	15.41
554.354	15.35
554.55	15.46
554.747	15.48
554.943	15.47
555.14	15.65
555.336	15.82
555.533	15.75
555.729	15.8
555.926	15.93
556.122	15.99
556.318	16.12
556.515	15.96
556.711	15.94
556.907	15.91
557.104	16.04
557.3	16.05
557.496	16.01
557.693	15.92
557.889	16.01
558.085	16.03
558.281	16.11
558.478	15.94
558.674	16.12
558.87	16.06
559.066	16.14
559.262	16.01
559.459	15.97
559.655	15.98
559.851	16.1
560.047	16.08
560.243	16.19
560.439	16.14
560.635	16.21
560.831	16.32
561.027	16.53
561.223	16.54
561.419	16.63
561.615	16.69
561.811	16.7
562.007	16.73
562.203	16.85
562.399	16.76
562.595	16.87
562.791	16.93
562.987	16.78
563.183	16.76
563.379	16.84
563.575	16.87
563.771	16.83
563.966	16.82
564.162	16.75
564.358	16.65
564.554	16.78
564.75	16.76
564.945	16.83
565.141	16.92
565.337	16.94
565.533	16.94
565.728	16.93
565.924	17.1
566.12	17.17
566.315	17.19
566.511	17.32
566.707	17.21
566.902	17.21
567.098	17.21
567.293	17.31
567.489	17.25
567.684	17.2
567.88	17.2
568.076	17.11
568.271	17.22
568.467	17.26
568.662	17.24
568.858	17.39
569.053	17.48
569.248	17.48
569.444	17.39
569.639	17.54
569.835	17.61
570.03	17.6
570.225	17.64
570.421	17.62
570.616	17.69
570.812	17.71
571.007	17.67
571.202	17.59
571.397	17.66
571.593	17.78
571.788	17.69
571.983	17.69
572.178	17.72
572.374	17.7
572.569	17.76
572.764	17.77
572.959	17.67
573.154	17.67
573.35	17.82
573.545	17.85
573.74	17.88
573.935	18.01
574.13	18.15
574.325	18.19
574.52	18.33
574.715	18.19
574.91	18.23
575.105	18.42
575.3	18.38
575.495	18.29
575.69	18.24
575.885	18.23
576.08	18.2
576.275	18.29
576.47	18.28
576.665	18.13
576.86	18.25
577.055	18.23
577.25	18.17
577.444	18.28
577.639	18.32
577.834	18.41
578.029	18.37
578.224	18.31
578.418	18.25
578.613	18.22
578.808	18.27
579.003	18.24
579.197	18.34
579.392	18.39
579.587	18.4
579.781	18.62
579.976	18.57
580.171	18.69
580.365	18.9
580.56	18.89
580.755	18.98
580.949	19.09
581.144	19.11
581.338	19.03
581.533	19.08
581.727	18.97
581.922	18.87
582.116	18.96
582.311	18.92
582.505	18.68
582.7	18.71
582.894	18.8
583.089	19.04
583.283	19.12
583.478	19.12
583.672	19.08
583.866	19.12
584.061	19.2
584.255	19.18
584.449	19.14
584.644	19.24
584.838	19.22
585.032	19.32
585.226	19.03
585.421	18.99
585.615	19.14
585.809	19.27
586.003	19.26
586.198	19.14
586.392	19.23
586.586	19.14
586.78	19.22
586.974	19.21
587.168	19.12
587.363	19.1
587.557	19.21
587.751	19.13
587.945	19.07
588.139	19.15
588.333	19.19
588.527	19.07
588.721	19.28
588.915	19.21
589.109	19.26
589.303	19.31
589.497	19.41
589.691	19.4
589.885	19.51
590.079	19.6
590.273	19.65
590.466	19.79
590.66	19.84
590.854	19.78
591.048	20.08
591.242	20.09
591.436	20.1
591.629	20.22
591.823	20.31
592.017	20.21
592.211	20.21
592.404	20.18
592.598	19.99
592.792	19.98
592.986	19.92
593.179	19.72
593.373	19.67
593.567	19.65
593.76	19.53
593.954	19.4
594.147	19.59
594.341	19.6
594.535	19.72
594.728	19.98
594.922	20.17
595.115	20.17
595.309	20.21
595.502	20.19
595.696	20.23
595.889	20.25
596.083	20.24
596.276	20.13
596.47	20
596.663	19.92
596.856	19.77
597.05	19.7
597.243	19.7
597.437	19.78
597.63	19.86
597.823	19.83
598.017	19.87
598.21	19.88
598.403	19.89
598.596	20.15
598.79	20.12
598.983	20.15
599.176	20.09
599.369	20.2
599.563	20.14
599.756	20.12
599.949	20.16
600.142	20.2
600.335	20.21
600.528	20.26
600.722	20.1
600.915	20.15
601.108	20.18
601.301	20.17
601.494	20.17
601.687	20.14
601.88	20.23
602.073	20.18
602.266	20.01
602.459	20.16
602.652	20.15
602.845	20.12
603.038	20.05
603.231	20.11
603.424	20.09
603.617	20.07
603.809	20.15
604.002	20.18
604.195	20.27
604.388	20.35
604.581	20.27
604.774	20.22
604.966	20.28
605.159	20.45
605.352	20.38
605.545	20.48
605.737	20.54
605.93	20.4
606.123	20.35
606.316	20.26
606.508	20.32
606.701	20.37
606.894	20.47
607.086	20.61
607.279	20.59
607.471	20.49
607.664	20.63
607.857	20.72
608.049	20.92
608.242	20.9
608.434	21.19
608.627	21.31
608.819	21.62
609.012	21.84
609.204	22.04
609.397	22.34
609.589	22.89
609.782	23.28
609.974	23.66
610.166	24.07
610.359	24.56
610.551	24.81
610.743	25.16
610.936	25.2
611.128	25.37
611.32	25.47
611.513	25.63
611.705	25.52
611.897	25.34
612.09	25.13
612.282	24.9
612.474	24.59
612.666	24.29
612.858	24.24
613.051	24.17
613.243	23.87
613.435	23.73
613.627	23.48
613.819	23.3
614.011	23.25
614.203	23.16
614.395	23.05
614.588	23.14
614.78	23.24
614.972	23.06
615.164	22.94
615.356	23.04
615.548	22.98
615.74	23
615.932	22.72
616.124	22.66
616.315	22.38
616.507	22.26
616.699	22.03
616.891	21.83
617.083	21.73
617.275	21.73
617.467	21.58
617.659	21.47
617.85	21.31
618.042	21.45
618.234	21.23
618.426	21.43
618.618	21.39
618.809	21.44
619.001	21.45
619.193	21.5
619.384	21.51
619.576	21.51
619.768	21.62
619.959	21.64
620.151	21.67
620.343	21.93
620.534	22.04
620.726	21.98
620.917	21.86
621.109	21.9
621.301	21.85
621.492	21.88
621.684	21.81
621.875	21.5
622.067	21.68
622.258	21.54
622.45	21.39
622.641	21.31
622.832	21.31
623.024	21.51
623.215	21.35
623.407	21.4
623.598	21.26
623.789	21.33
623.981	21.61
624.172	21.41
624.363	21.5
624.555	21.3
624.746	21.33
624.937	21.32
625.129	21.14
625.32	21.33
625.511	21.11
625.702	21.31
625.893	21.49
626.085	21.56
626.276	21.52
626.467	21.6
626.658	21.79
626.849	21.74
627.04	21.91
627.231	22.1
627.422	22.06
627.614	22.35
627.805	22.29
627.996	22.17
628.187	21.99
628.378	22.15
628.569	22.08
628.76	22.07
628.951	22.23
629.142	22.22
629.332	22.24
629.523	22.28
629.714	22.1
629.905	22.12
630.096	22.09
630.287	22.16
630.478	22.2
630.669	22.18
630.859	22.24
631.05	22.21
631.241	22.07
631.432	21.99
631.623	21.83
631.813	21.88
632.004	21.86
632.195	21.91
632.385	21.87
632.576	21.71
632.767	21.81
632.957	21.7
633.148	21.5
633.339	21.6
633.529	21.53
633.72	21.56
633.91	21.36
634.101	21.37
634.292	21.37
634.482	21.45
634.673	21.5
634.863	21.4
635.054	21.56
635.244	21.58
635.435	21.46
635.625	21.63
635.815	21.78
636.006	21.97
636.196	21.92
636.387	21.96
636.577	21.93
636.767	21.92
636.958	22.13
637.148	22.14
637.338	22.23
637.529	22.24
637.719	22.17
637.909	22.03
638.099	22.05
638.29	22.02
638.48	22.02
638.67	22.09
638.86	22.11
639.05	22.09
639.241	22.03
639.431	21.83
639.621	22
639.811	22
640.001	22.04
640.191	22.12
640.381	22.33
640.571	22.31
640.761	22.34
640.951	22.44
641.141	22.26
641.331	22.2
641.521	22.38
641.711	22.41
641.901	22.32
642.091	22.26
642.281	22.1
642.471	21.96
642.661	22.09
642.851	22.1
643.041	21.98
643.231	22.01
643.42	21.91
643.61	21.79
643.8	21.52
643.99	21.62
644.18	21.78
644.369	21.86
644.559	21.9
644.749	22.01
644.939	22.01
645.128	21.94
645.318	22.04
645.508	22.05
645.697	22.18
645.887	22.27
646.076	22.22
646.266	22.13
646.456	22.15
646.645	22.38
646.835	21.96
647.024	21.93
647.214	22.29
647.403	22.49
647.593	22.6
647.782	22.69
647.972	22.87
648.161	22.88
648.351	22.8
648.54	23.06
648.73	22.9
648.919	23.22
649.108	23.15
649.298	22.83
649.487	22.81
649.677	22.77
649.866	22.42
650.055	22.46
650.244	22.51
650.434	22.56
650.623	22.26
650.812	22.21
651.002	22.28
651.191	22.45
651.38	22.57
651.569	22.44
651.758	22.42
651.947	22.78
652.137	22.49
652.326	22.56
652.515	22.73
652.704	22.81
652.893	22.82
653.082	22.64
653.271	22.58
653.46	22.6
653.649	22.38
653.838	22.37
654.027	22.33
654.216	22.56
654.405	22.38
654.594	22.29
654.783	22.09
654.972	22
655.161	22.07
655.35	21.92
655.539	21.99
655.728	22.27
655.916	22.31
656.105	22.46
656.294	22.37
656.483	22.25
656.672	22.31
656.86	22.51
657.049	22.53
657.238	22.51
657.427	22.68
657.615	22.61
657.804	22.67
657.993	22.66
658.181	22.55
658.37	22.63
658.559	22.86
658.747	22.84
658.936	22.87
659.125	23.01
659.313	23.09
659.502	22.98
659.69	22.8
659.879	22.94
660.067	22.89
660.256	22.95
660.444	23.1
660.633	23.32
660.821	23.42
661.01	23.39
661.198	23.19
661.387	23.25
661.575	23.12
661.763	23.34
661.952	23.11
662.14	23.3
662.328	23.06
662.517	22.96
662.705	22.62
662.893	22.56
663.082	22.5
663.27	22.74
663.458	22.52
663.646	22.77
663.834	22.75
664.023	23.02
664.211	23.02
664.399	23.23
664.587	22.96
664.775	22.76
664.963	22.81
665.152	22.96
665.34	22.74
665.528	22.96
665.716	23.15
665.904	23.25
666.092	22.97
666.28	22.76
666.468	22.83
666.656	23.37
666.844	23.55
667.032	23.5
667.22	23.44
667.408	23.52
667.596	23.68
667.784	23.46
667.971	23.46
668.159	23.5
668.347	23.77
668.535	23.69
668.723	23.51
668.911	23.55
669.098	23.31
669.286	23.44
669.474	23.41
669.662	23.32
669.849	23.46
670.037	23.57
670.225	23.51
670.413	23.57
670.6	23.48
670.788	23.18
670.976	23.02
671.163	23.23
671.351	23.27
671.538	23.33
671.726	23.27
671.913	23.29
672.101	23.41
672.289	23.18
672.476	22.95
672.664	23.35
672.851	23.44
673.039	23.69
673.226	23.84
673.413	23.91
673.601	23.73
673.788	23.76
673.976	23.52
674.163	23.57
674.35	23.95
674.538	23.98
674.725	23.7
674.912	23.64
675.1	23.85
675.287	23.88
675.474	23.8
675.662	23.97
675.849	24.12
676.036	24.06
676.223	23.85
676.411	23.75
676.598	23.74
676.785	23.8
676.972	23.88
677.159	23.49
677.346	23.21
677.533	23.21
677.721	23.29
677.908	23.1
678.095	23.3
678.282	23.31
678.469	23.14
678.656	23.16
678.843	23.16
679.03	23.3
679.217	23.46
679.404	23.48
679.591	23.37
679.778	23.55
679.964	23.43
680.151	23.38
680.338	23.21
680.525	23.27
680.712	23.26
680.899	23.18
681.086	22.91
681.272	22.7
681.459	22.92
681.646	23.15
681.833	22.99
682.02	23.2
682.206	23.27
682.393	23.27
682.58	23.47
682.766	23.46
682.953	23.73
683.14	23.89
683.326	24.05
683.513	23.74
683.7	23.51
683.886	23.56
684.073	23.29
684.259	23.1
684.446	23.23
684.632	23.36
684.819	23.36
685.005	23.03
685.192	23.36
685.378	23.27
685.565	23.6
685.751	23.36
685.938	23.1
686.124	23.27
686.31	23.52
686.497	23.48
686.683	23.51
686.87	23.4
687.056	23.61
687.242	23.28
687.429	23.55
687.615	23.49
687.801	23.52
687.987	23.88
688.174	23.8
688.36	23.69
688.546	23.83
688.732	23.54
688.918	23.4
689.105	23.36
689.291	23.51
689.477	23.47
689.663	23.39
689.849	23.75
690.035	23.62
690.221	23.77
690.407	23.75
690.593	23.71
690.779	23.81
690.965	24.03
691.151	24.1
691.337	24.15
691.523	24.21
691.709	24.49
691.895	24.14
692.081	24.06
692.267	23.73
692.453	23.5
692.639	23.29
692.825	23.26
693.011	23.54
693.196	23.65
693.382	23.64
693.568	23.49
693.754	23.1
693.94	23.24
694.125	23.22
694.311	23.24
694.497	23.55
694.682	23.56
694.868	23.5
695.054	23.45
695.239	23.54
695.425	23.39
695.611	23.53
695.796	23.45
695.982	23.53
696.168	23.61
696.353	24
696.539	23.79
696.724	23.8
696.91	24.16
697.095	24.08
697.281	23.84
697.466	23.93
697.652	23.87
697.837	24.14
698.023	24.09
698.208	24.05
698.393	24.16
698.579	24.21
698.764	24.12
698.949	23.84
699.135	23.76
699.32	23.79
699.505	23.58
699.691	23.59
699.876	23.47
700.061	23.6
700.246	23.41
700.432	23.02
700.617	23.08
700.802	23.16
700.987	23.17
701.172	22.91
701.358	22.76
701.543	23.08
701.728	22.97
701.913	22.95
702.098	22.87
702.283	23.3
702.468	23.52
702.653	23.68
702.838	23.71
703.023	23.76
703.208	24.13
703.393	24.4
703.578	24.32
703.763	24.83
703.948	24.82
704.133	24.98
704.318	24.55
704.503	24.64
704.688	24.59
704.873	24.73
705.057	25.35
705.242	25.28
705.427	24.9
705.612	25.01
705.797	24.54
705.981	24.8
706.166	25.2
706.351	25.83
706.536	25.6
706.72	25.85
706.905	25.94
707.09	25.47
707.274	25.69
707.459	26.13
707.644	26.02
707.828	26.53
708.013	26.47
708.197	26.22
708.382	26.14
708.567	26.19
708.751	25.83
708.936	25.9
709.12	26.04
709.305	26.07
709.489	25.87
709.673	26.11
709.858	25.85
710.042	25.89
710.227	25.52
710.411	25.27
710.596	25.34
710.78	24.98
710.964	24.85
711.149	24.84
711.333	25
711.517	25.03
711.702	24.9
711.886	24.66
712.07	24.68
712.254	24.89
712.438	24.77
712.623	24.86
712.807	25.39
712.991	25.37
713.175	25.28
713.359	25.07
713.544	25.07
713.728	24.9
713.912	24.94
714.096	24.8
714.28	24.63
714.464	24.99
714.648	24.67
714.832	24.4
715.016	24.47
715.2	24.4
715.384	24.16
715.568	24.05
715.752	23.95
715.936	23.69
716.12	23.72
716.304	23.34
716.488	22.92
716.671	22.73
716.855	23.28
717.039	23.23
717.223	23.16
717.407	23.26
717.59	23.11
717.774	23.37
717.958	23.49
718.142	23.19
718.325	23.3
718.509	23.07
718.693	23.55
718.877	23.21
719.06	22.94
719.244	23.09
719.428	23.02
719.611	23.32
719.795	22.71
719.978	22.98
720.162	23.24
720.345	23.43
720.529	23.73
720.713	23.75
720.896	23.82
721.08	24.05
721.263	24.28
721.446	24.62
721.63	24.83
721.813	25.37
721.997	25.2
722.18	25.26
722.364	25.56
722.547	25.65
722.73	25.45
722.914	24.76
723.097	25.09
723.28	24.63
723.464	24.41
723.647	24.11
723.83	24.04
724.013	24.28
724.197	24.64
724.38	24.49
724.563	24.46
724.746	24.8
724.929	25.11
725.112	24.54
725.296	24.67
725.479	24.7
725.662	24.81
725.845	24.95
726.028	24.85
726.211	24.58
726.394	24.68
726.577	24.49
726.76	24.24
726.943	24.17
727.126	24.82
727.309	24.36
727.492	24.89
727.675	24.67
727.858	24.53
728.041	24.46
728.224	24.71
728.407	24.46
728.589	25.02
728.772	24.78
728.955	25.14
729.138	24.8
729.321	25.49
729.503	25.2
729.686	25.4
729.869	25.32
730.052	25.1
730.234	25.02
730.417	25.61
730.6	25.17
730.782	25.27
730.965	25.2
731.148	25.38
731.33	24.91
731.513	24.53
731.695	24.37
731.878	24.49
732.061	24.34
732.243	24.29
732.426	23.87
732.608	23.91
732.791	24.06
732.973	24.31
733.156	24
733.338	24.15
733.52	24.39
733.703	24.77
733.885	25.13
734.068	25.64
734.25	25.34
734.432	25.46
734.615	25.49
734.797	25.71
734.979	25.09
735.162	25.12
735.344	25.04
735.526	24.94
735.708	24.42
735.891	23.86
736.073	23.94
736.255	24.35
736.437	24.21
736.619	24.04
736.802	23.66
736.984	23.62
737.166	23.82
737.348	23.8
737.53	23.83
737.712	24.05
737.894	24.33
738.076	23.81
738.258	23.27
738.44	23.17
738.622	23.25
738.804	23.67
738.986	24.22
739.168	24.58
739.35	25.05
739.532	25.32
739.714	25.1
739.896	24.81
740.078	25.19
740.259	25.2
740.441	25.47
740.623	25.89
740.805	25.28
740.987	24.85
741.168	24.3
741.35	24.38
741.532	24.17
741.714	23.93
741.895	24.28
742.077	24.68
742.259	24.96
742.44	25.22
742.622	25.41
742.804	26.15
742.985	26.66
743.167	27.33
743.348	28.09
743.53	27.38
743.711	28.3
743.893	28.55
744.075	28.05
744.256	28.11
744.438	28.59
744.619	28.11
744.8	27.77
744.982	27.65
745.163	27.03
745.345	25.91
745.526	26.73
745.707	26.6
745.889	26.4
746.07	26.31
746.252	26.49
746.433	25.97
746.614	26.18
746.795	26.6
746.977	26.8
747.158	27.74
747.339	27.83
747.52	28.13
747.702	27.52
747.883	26.88
748.064	27.3
748.245	27.11
748.426	26.65
748.607	26.82
748.788	26.5
748.97	26.08
749.151	24.73
749.332	24.61
749.513	24.33
749.694	25.06
749.875	25.08
750.056	25
750.237	24.75
750.418	25.33
750.599	24.79
750.78	24.75
750.96	24.86
751.141	25.12
751.322	25.05
751.503	25.25
751.684	24.44
751.865	25.36
752.046	25.78
752.226	25.8
752.407	25.77
752.588	26.88
752.769	26.7
752.949	26.79
753.13	27.08
753.311	26.99
753.492	27.09
753.672	27.64
753.853	27.57
754.034	27.13
754.214	27.45
754.395	26.92
754.575	26.45
754.756	26.9
754.937	26.99
755.117	26.3
755.298	26.99
755.478	26.55
755.659	26.06
755.839	24.89
756.02	24.7
756.2	24.71
756.381	25.31
756.561	25.01
756.741	24.76
756.922	24.17
757.102	24.64
757.283	23.91
757.463	24
757.643	24.02
757.823	25.2
758.004	25.14
758.184	24.92
758.364	24.77
758.545	25.16
758.725	25.38
758.905	25.92
759.085	26.08
759.265	25.28
759.446	25.38
759.626	25.97
759.806	25.51
759.986	25.36
760.166	25.25
760.346	24.97
760.526	24.44
760.706	24.27
760.886	24.31
761.066	24.64
761.246	25.62
761.426	25.48
761.606	25.5
761.786	25.39
761.966	25.55
762.146	25.61
762.326	25.58
762.506	25.57
762.686	25.64
762.866	25.65
763.046	25.07
763.225	25.03
763.405	25.14
763.585	24.85
763.765	24.41
763.945	24.36
764.124	24.33
764.304	24.33
764.484	24.55
764.664	24.6
764.843	24.29
765.023	24.6
765.203	24.21
765.382	24.27
765.562	24.2
765.741	24.34
765.921	24.74
766.101	24.92
766.28	24.59
766.46	24.15
766.639	23.84
766.819	24.11
766.998	24.16
767.178	24.68
767.357	24.41
767.537	24.4
767.716	24.49
767.896	23.79
768.075	23.7
768.254	23.61
768.434	23.21
768.613	22.95
768.792	22.65
768.972	22.95
769.151	23.39
769.33	24.08
769.51	24.18
769.689	24.23
769.868	24.91
770.047	24.71
770.226	25.82
770.406	26.29
770.585	26.71
770.764	26.44
770.943	26.64
771.122	26.24
771.301	26.14
771.48	26.42
771.66	26.66
771.839	26.35
772.018	26.43
772.197	25.66
772.376	26.1
772.555	25.97
772.734	26.29
772.913	25.19
773.092	24.73
773.271	24.04
773.449	24.3
773.628	24.63
773.807	24.38
773.986	24.71
774.165	25.23
774.344	25.74
774.523	26.39
774.701	27.24
774.88	27.61
775.059	27.77
775.238	28.34
775.417	28.04
775.595	28.38
775.774	28.51
775.953	29.15
776.131	29
776.31	28.39
776.489	28.15
776.667	27.63
776.846	28.53
777.025	28.19
777.203	27.58
777.382	28.04
777.56	27.98
777.739	28.77
777.917	27.14
778.096	27.15
778.274	27.74
778.453	28.04
778.631	27.05
778.81	26.97
778.988	27.65
779.166	27.73
779.345	27.74
779.523	27.48
779.702	26.84
779.88	27.83
780.058	28.33
780.237	27.83
780.415	27.41
780.593	27.99
780.771	27.51
780.95	26.41
781.128	26.46
781.306	25.54
781.484	25.92
781.662	25.62
781.841	24.52
782.019	23.54
782.197	23.51
782.375	23.27
782.553	23.61
782.731	23.1
782.909	24.5
783.087	24.8
783.265	24.24
783.443	23.61
783.621	24.42
783.799	25.88
783.977	26.63
784.155	25.97
784.333	25.77
784.511	25.45
784.689	25.78
784.867	25.36
785.045	25.65
785.223	26.41
785.4	27.17
785.578	27.14
785.756	26.91
785.934	25.78
786.112	26.06
786.289	25.46
786.467	24.9
786.645	24.7
786.823	25.61
787	25.46
787.178	25.51
787.356	25.09
787.533	24.77
787.711	24.27
787.889	25.33
788.066	24.56
788.244	25.83
788.421	26.89
788.599	27
788.776	26.22
788.954	25.22
789.131	24.99
789.309	25.8
789.486	25.6
789.664	25.65
789.841	25.69
790.019	27.26
790.196	26.49
790.373	26.2
790.551	26.62
790.728	26.45
790.906	27.16
791.083	27.14
791.26	26.47
791.437	26.96
791.615	27
791.792	26.48
791.969	25.83
792.146	26.11
792.324	26.97
792.501	26.49
792.678	26.13
792.855	25.15
793.032	25.61
793.209	25.97
793.387	25.78
793.564	25.58
793.741	26.36
793.918	27.02
794.095	27.37
794.272	26.29
794.449	25.75
794.626	26.48
794.803	27.74
794.98	27.83
795.157	27.71
795.334	28.13
795.511	27.88
795.688	26.99
795.864	26.54
796.041	24.56
796.218	25.57
796.395	27.03
796.572	26.8
796.749	25.56
796.925	25.46
797.102	25
797.279	25.12
797.456	25.62
797.632	25.62
797.809	25.34
797.986	26.51
798.162	24.95
798.339	24.21
798.516	24.84
798.692	25.04
798.869	25.05
799.046	24.86
799.222	24.85
799.399	24.87
799.575	25.99
799.752	25.48
799.928	25.49
800.105	26.09
800.281	25.91
800.458	25.18
800.634	25.12
800.811	25.91
800.987	26.79
801.163	26.9
801.34	27.6
801.516	26.34
801.692	26.31
801.869	27.49
802.045	27.68
802.221	28.37
802.398	28.91
802.574	30.35
802.75	30.56
802.926	30.77
803.103	29.59
803.279	28.77
803.455	28.9
803.631	29.3
803.807	29.2
803.983	29.8
804.16	29.38
804.336	29.85
804.512	29.49
804.688	28.97
804.864	27.8
805.04	27.69
805.216	28.37
805.392	28.02
805.568	27.98
805.744	27.33
805.92	26.54
806.096	27.55
806.272	25.39
806.448	25.14
806.623	25.41
806.799	25.67
806.975	26.59
807.151	26.69
807.327	26.74
807.503	26.49
807.678	26.94
807.854	26.42
808.03	25.48
808.206	27.42
808.381	27.26
808.557	27.18
808.733	27.1
808.908	27.85
809.084	26.55
809.26	27.92
809.435	27.51
809.611	27.92
809.787	29.46
809.962	29.94
810.138	28.05
810.313	28.64
810.489	27.75
810.664	27.94
810.84	27.95
811.015	28.38
811.191	27.4
811.366	27.59
811.542	27.01
811.717	27.48
811.892	28.74
812.068	29.81
812.243	28.03
812.419	27.54
812.594	27.49
812.769	26.98
812.944	27.94
813.12	27.22
813.295	27.06
813.47	26.97
813.645	25.98
813.821	24.69
813.996	24.95
814.171	26.12
814.346	27.16
814.521	26.14
814.697	25.75
814.872	25.41
815.047	25.41
815.222	27.61
815.397	26.02
815.572	24.35
815.747	23.72
815.922	24.06
816.097	24.46
816.272	23.97
816.447	25.65
816.622	26.36
816.797	26.96
816.972	28.03
817.147	28.46
817.322	29.53
817.496	29.94
817.671	30.19
817.846	29.41
818.021	29.37
818.196	29.02
818.371	28.71
818.545	28.03
818.72	27.41
818.895	26.39
819.069	24.38
819.244	24.17
819.419	24.82
819.594	25.46
819.768	25.41
819.943	24.86
820.117	24.86
820.292	24.78
820.467	23.89
820.641	23.84
820.816	24.24
820.99	24.46
821.165	23.74
821.339	23.15
821.514	22.85
821.688	22.6
821.863	22.53
822.037	22.55
822.212	22.2
822.386	22.05
822.56	21.85
822.735	21.71
822.909	21.54
823.084	22.03
823.258	22.34
823.432	22.33
823.606	22.31
823.781	22.47
823.955	22.4
824.129	22.68
824.303	23.05
824.478	23.4
824.652	23.43
824.826	23.46
825	22.91
825.174	22.33
825.348	21.96
825.523	22.16
825.697	22.38
825.871	22.27
826.045	22.34
826.219	22.17
826.393	21.94
826.567	22.29
826.741	22.84
826.915	22.99
827.089	23.15
827.263	23.38
827.437	23.17
827.611	22.68
827.784	22.44
827.958	22.36
828.132	22.88
828.306	22.88
828.48	22.68
828.654	22.34
828.827	22.57
829.001	22.78
829.175	22.64
829.349	23.13
829.522	23.54
829.696	23.8
829.87	23.43
830.044	22.72
830.217	22.89
830.391	22.84
830.565	23.52
830.738	23.57
830.912	24.01
831.085	25.19
831.259	25.28
831.432	25.68
831.606	25.4
831.779	24.07
831.953	23.67
832.126	22.71
832.3	22.27
832.473	20.57
832.647	22.18
832.82	21.93
832.994	21.58
833.167	21.13
833.34	21.46
833.514	22.07
833.687	22.2
833.86	22.38
834.034	22.96
834.207	22.87
834.38	23.4
834.553	22.28
834.727	22.28
834.9	21.41
835.073	21.63
835.246	21.27
835.419	21.01
835.593	22.2
835.766	22.25
835.939	21.9
836.112	22.79
836.285	22.96
836.458	25.93
836.631	27.38
836.804	28.82
836.977	28.04
837.15	28.65
837.323	29.41
837.496	29.34
837.669	30.32
837.842	31.45
838.015	31.09
838.188	31.85
838.361	27.95
838.533	24.94
838.706	23.85
838.879	26.18
839.052	26
839.225	26.75
839.398	24.01
839.57	21.23
839.743	20.82
839.916	22.53
840.088	20.34
840.261	20.47
840.434	22.5
840.607	24.11
840.779	23.32
840.952	22.11
841.124	22.29
841.297	26.14
841.47	28.08
841.642	27.59
841.815	28.18
841.987	30.45
842.16	30.99
842.332	29.16
842.505	27.63
842.677	28.22
842.85	29.16
843.022	28.17
843.194	28.72
843.367	29.86
843.539	31.06
843.712	30.24
843.884	29.07
844.056	28.67
844.229	27.82
844.401	30.3
844.573	30.94
844.745	30.19
844.918	30.02
845.09	27.42
845.262	24.77
845.434	21.7
845.606	18.46
845.779	18.44
845.951	19.23
846.123	22.65
846.295	22.26
846.467	24.03
846.639	28.5
846.811	28.45
846.983	29.44
847.155	34.35
847.327	38.54
847.499	39.53
847.671	40.82
847.843	37.21
848.015	38.44
848.187	36.89
848.359	37.81
848.531	37.02
848.703	37.98
848.875	38.33
849.047	37.59
849.218	36.69
849.39	35.3
849.562	33.82
849.734	35.17
849.905	35.31
850.077	38.03
850.249	35.96
850.421	33.94
850.592	32.76
850.764	30.61
850.936	28.3
851.107	28.03
851.279	28.05
851.451	30.97
851.622	32.58
851.794	31.58
851.965	31.07
852.137	30.9
852.308	32.42
852.48	35.49
852.651	35.58
852.823	39.4
852.994	37.65
853.166	37.01
853.337	38.43
853.509	39.64
853.68	41.04
853.851	38.67
854.023	38.19
854.194	36.39
854.365	38.45
854.537	37.24
854.708	34.44
854.879	36.85
855.05	42.24
855.222	36.18
855.393	34.69
855.564	32.35
855.735	36.41
855.906	40.46
856.078	42.99
856.249	40.99
856.42	45.9
856.591	47.58
856.762	45.53
856.933	39.66
857.104	44.45
857.275	48.14
857.446	49.58
857.617	48.15
857.788	44.88
857.959	42.95
858.13	42.88
858.301	41.68
858.472	39.81
858.643	40.99
858.814	44.77
858.985	46.91
859.155	38.73
859.326	38.1
859.497	40.63
859.668	38.63
859.839	38.31
860.009	38.44
860.18	38.15
860.351	40.26
860.522	40.35
860.692	34
860.863	28.92
861.034	31.89
861.204	29.85
861.375	25.87
861.546	31.5
861.716	34.96
861.887	36.02
862.057	35.29
862.228	29.66
862.398	27.68
862.569	33.3
862.739	34
862.91	36.7
863.08	39.18
863.251	44.73
863.421	42.44
863.592	37.81
863.762	32.35
863.932	35.36
864.103	35.16
864.273	39.39
864.443	40.31
864.614	40.34
864.784	38.53
864.954	42.22
865.125	38.03
865.295	35.16
865.465	37.68
865.635	37.55
865.805	34.54
865.976	36.69
866.146	32.86
866.316	30
866.486	30.43
866.656	30.42
866.826	21.39
866.996	22.21
867.166	21.56
867.336	21.97
867.506	25.51
867.676	25.39
867.846	21.42
868.016	22.09
868.186	22.28
868.356	21.28
868.526	20.34
868.696	23.62
868.866	21.57
869.036	22.71
869.206	21.35
869.376	20.08
869.545	20.76
869.715	26.44
869.885	27.51
870.055	24.5
870.224	25.22
870.394	25.07
870.564	30.92
870.734	30.94
870.903	30.69
871.073	31.43
871.243	30.8
871.412	32.57
871.582	36.75
871.751	35.07
871.921	40.2
872.091	37.64
872.26	40.57
872.43	36.35
872.599	32.39
872.769	34.11
872.938	35.54
873.108	35.45
873.277	31.46
873.446	27.24
873.616	27.61
873.785	28.01
873.955	30.87
874.124	29.39
874.293	26.48
874.463	27.79
874.632	27.56
874.801	27
874.971	26.27
875.14	30.18
875.309	28.89
875.478	30.93
875.647	30.05
875.817	24.68
875.986	26.78
876.155	30.98
876.324	36.12
876.493	36.55
876.662	35.69
876.831	32.51
877	28.25
877.17	27.07
877.339	24.9
877.508	19.51
877.677	22.39
877.846	22.36
878.015	20.03
878.184	17.06
878.352	15.66
878.521	9.56
878.69	13
878.859	16.91
879.028	20.37
879.197	24.61
879.366	26.1
879.534	27.04
879.703	27.58
879.872	27.99
880.041	28.41
880.21	27.89
880.378	29.61
880.547	25.74
880.716	23.76
880.884	25.29
881.053	24.07
881.222	24.62
881.39	23.36
881.559	23.32
881.727	24
881.896	23.93
882.065	23.71
882.233	23.86
882.402	25.35
882.57	25.46
882.739	24.16
882.907	24
883.076	24.07
883.244	24.61
883.412	23.87
883.581	22.48
883.749	21.95
883.918	22.19
884.086	22.24
884.254	21.81
884.423	21.66
884.591	22.96
884.759	22.96
884.927	21.92
885.096	21.17
885.264	21.56
885.432	23.9
885.6	25.33
885.769	25.41
885.937	25.29
886.105	26.11
886.273	26.76
886.441	25
886.609	24.75
886.777	27.61
886.945	29.62
887.113	28.26
887.281	25.55
887.449	25.39
887.617	23.99
887.785	22.84
887.953	21.76
888.121	21.63
888.289	22.07
888.457	21.92
888.625	20.08
888.793	21.28
888.961	27.72
889.129	30.38
889.296	26.32
889.464	28.06
889.632	27.32
889.8	27.49
889.967	31.78
890.135	34.02
