Data from 2938742__Reflection_01.txt Node
Date: Sun Mar 15 12:03:06 EDT 2015
User: robert
Spectrometer: USB4E03002
Autoset integration time: false
Trigger mode: 4
Integration Time (sec): 1.000000E-1
Scans to average: 10
Electric dark correction enabled: false
Nonlinearity correction enabled: false
Boxcar width: 5
Stray light correction enabled: false
XAxis mode: Wavelengths
Stop averaging: false
Number of Pixels in Spectrum: 3648
>>>>>Begin Spectral Data<<<<<
177.575	656.8
177.794	496.83
178.014	886.19
178.233	1036.05
178.452	1338.65
178.672	2011.49
178.891	2303.01
179.11	-7225.58
179.33	-1890.96
179.549	-1668.21
179.768	-2452.45
179.987	-4438.96
180.207	-1291.76
180.426	-7121.15
180.645	-5689.55
180.864	-54185.71
181.084	3453.57
181.303	-18014.29
181.522	2027.98
181.741	1794.39
181.96	3124.39
182.179	879.69
182.398	843.66
182.618	591.92
182.837	610.93
183.056	551.64
183.275	594.38
183.494	698.26
183.713	590.58
183.932	531.59
184.151	464.98
184.37	456.45
184.589	712.67
184.808	707.15
185.027	758.69
185.246	779.48
185.465	679.62
185.684	734.03
185.903	633.7
186.122	579.23
186.341	926.2
186.56	1476.92
186.779	1117.74
186.998	1011.5
187.216	1173.05
187.435	2093.63
187.654	1986.31
187.873	6456
188.092	2070.99
188.311	1533.33
188.53	2192.31
188.748	1944.26
188.967	1581.47
189.186	1824.52
189.405	1502.33
189.623	2037.17
189.842	1364.83
190.061	1365.86
190.28	1333.67
190.498	2507.14
190.717	1929
190.936	3054.76
191.154	2091.62
191.373	1735.51
191.592	811.7
191.81	684.15
192.029	574.68
192.248	641.44
192.466	901.16
192.685	802.4
192.904	602.29
193.122	833.41
193.341	890.1
193.559	667.74
193.778	753.23
193.996	1581.37
194.215	2398.48
194.433	-11596.3
194.652	3630.68
194.87	2543.08
195.089	3675.58
195.307	6177.36
195.526	2319.62
195.744	4701.3
195.963	-3991.58
196.181	-9365.12
196.399	-8142
196.618	-3222.4
196.836	-3348.28
197.055	-1542.46
197.273	-1866.99
197.491	-2228.25
197.71	-7271.43
197.928	-3941.84
198.146	-3243.22
198.365	-3504.59
198.583	-6346.55
198.801	11067.65
199.019	2400.62
199.238	1291.59
199.456	882.54
199.674	1223.86
199.892	1580
200.111	1854.92
200.329	2181.87
200.547	807.78
200.765	590.98
200.983	576.92
201.202	556.52
201.42	623.17
201.638	593.76
201.856	731.16
202.074	526.98
202.292	429.38
202.51	526.24
202.728	460.93
202.946	593.67
203.165	751.03
203.383	766.19
203.601	760.58
203.819	732.24
204.037	765.78
204.255	591.17
204.473	485
204.691	508.56
204.909	465.68
205.127	512.69
205.345	420.11
205.562	390.28
205.78	532.66
205.998	658.45
206.216	801.53
206.434	791.87
206.652	1131.27
206.87	3066.41
207.088	10985.29
207.306	1779.91
207.523	2452.53
207.741	2738.89
207.959	3257.02
208.177	1196.34
208.395	897.53
208.612	747.25
208.83	822.34
209.048	899.07
209.266	626.25
209.483	635.61
209.701	749.59
209.919	831.15
210.136	611.72
210.354	542.7
210.572	808.53
210.79	704.88
211.007	556.8
211.225	485.71
211.442	423.18
211.66	449.7
211.878	514.03
212.095	279.93
212.313	257.83
212.53	293.92
212.748	315.33
212.966	271.57
213.183	261.07
213.401	278.77
213.618	282.56
213.836	263.64
214.053	268.91
214.271	237.88
214.488	468.36
214.705	401.6
214.923	410.03
215.14	359.23
215.358	356.34
215.575	416.47
215.793	337.82
216.01	334.6
216.227	315.26
216.445	310.72
216.662	349.85
216.879	320.68
217.097	325.55
217.314	311.79
217.531	288.3
217.749	277.23
217.966	270.82
218.183	340.74
218.4	340.87
218.618	386.52
218.835	391.21
219.052	309.09
219.269	315.54
219.487	328.91
219.704	320.91
219.921	354.6
220.138	358.49
220.355	284.43
220.572	236.57
220.79	229.46
221.007	211.72
221.224	195.54
221.441	198.23
221.658	188.3
221.875	175.65
222.092	172.63
222.309	167.32
222.526	160.91
222.743	163.22
222.96	168.56
223.177	164.33
223.394	158.61
223.611	162.29
223.828	160.74
224.045	149.22
224.262	147.4
224.479	137.27
224.696	126.75
224.913	128.95
225.13	118.07
225.347	108.65
225.564	102.16
225.781	100.08
225.997	94.26
226.214	89.12
226.431	83.82
226.648	75.43
226.865	69.42
227.082	62.03
227.298	51.03
227.515	47.2
227.732	40.86
227.949	37.22
228.165	33.05
228.382	30.82
228.599	28.37
228.816	26.31
229.032	25.41
229.249	24.46
229.466	24.39
229.682	24.71
229.899	24.36
230.116	24.92
230.332	24.86
230.549	25.87
230.765	26.77
230.982	28.34
231.199	29.27
231.415	30.98
231.632	34.17
231.848	36.98
232.065	37.96
232.281	39.96
232.498	42.5
232.714	44.89
232.931	44.57
233.147	44.81
233.364	44.65
233.58	44.81
233.797	43.47
234.013	42.43
234.23	40.77
234.446	42.19
234.662	43.3
234.879	42.34
235.095	41.84
235.312	43.39
235.528	43.61
235.744	43.91
235.961	44.37
236.177	44.43
236.393	44.19
236.61	45.46
236.826	43.47
237.042	43.64
237.258	44.95
237.475	46.64
237.691	47.84
237.907	47.17
238.123	45.19
238.339	43.73
238.556	46.28
238.772	43.47
238.988	40.81
239.204	41.72
239.42	38.9
239.636	35.19
239.853	31.6
240.069	30.13
240.285	28.13
240.501	26.83
240.717	26.31
240.933	22.61
241.149	21.47
241.365	20.11
241.581	18.33
241.797	17.59
242.013	16.54
242.229	15.93
242.445	14.78
242.661	15.16
242.877	15.29
243.093	15.07
243.309	15.55
243.525	15.92
243.741	17.09
243.957	18.65
244.173	18.86
244.388	20.32
244.604	20.74
244.82	21.05
245.036	19.1
245.252	18.27
245.468	16.57
245.683	15.82
245.899	14.54
246.115	12.62
246.331	10.74
246.547	9.75
246.762	9.43
246.978	9.28
247.194	8.85
247.409	8.98
247.625	8.85
247.841	9.04
248.057	9.09
248.272	9.68
248.488	9.94
248.703	10.46
248.919	11.42
249.135	12.5
249.35	13.5
249.566	14.64
249.782	15.62
249.997	16.56
250.213	16.83
250.428	17.34
250.644	17.03
250.859	18.3
251.075	18.81
251.29	18.97
251.506	17.71
251.721	17.05
251.937	16.9
252.152	16.13
252.368	15.27
252.583	16.32
252.798	16.29
253.014	16.55
253.229	16.73
253.445	17.12
253.66	17.87
253.875	19.27
254.091	20.75
254.306	21.57
254.521	23.97
254.737	25.14
254.952	26.11
255.167	27.26
255.383	27
255.598	26.31
255.813	25.73
256.028	24.3
256.244	24
256.459	21.92
256.674	20.77
256.889	18.3
257.104	18.05
257.32	17.03
257.535	15.36
257.75	15.2
257.965	14.53
258.18	13.5
258.395	12.39
258.61	10.56
258.826	10.4
259.041	9.94
259.256	9.59
259.471	9.16
259.686	8.37
259.901	8
260.116	7.27
260.331	7.06
260.546	6.85
260.761	7.1
260.976	7.35
261.191	7.17
261.406	7.44
261.621	7.99
261.836	8.19
262.05	8.86
262.265	9.93
262.48	11.57
262.695	11.92
262.91	12.98
263.125	13.07
263.34	14.33
263.555	15.99
263.769	15.95
263.984	16.3
264.199	17.14
264.414	17.14
264.629	16.88
264.843	15.76
265.058	16.48
265.273	15.79
265.488	15.81
265.702	14.98
265.917	13.98
266.132	13.64
266.346	13.67
266.561	13.15
266.776	13.32
266.99	13.85
267.205	14.09
267.42	13.55
267.634	14.13
267.849	13.75
268.063	13.84
268.278	13.95
268.492	14.52
268.707	14.26
268.922	14.19
269.136	13.96
269.351	13.71
269.565	13.94
269.78	13.5
269.994	12.96
270.209	12.96
270.423	12.53
270.637	12.1
270.852	11.46
271.066	11.07
271.281	11.01
271.495	10.63
271.709	10.16
271.924	9.98
272.138	10.14
272.353	9.98
272.567	10.21
272.781	10.43
272.996	10.42
273.21	10.81
273.424	11.23
273.638	11.44
273.853	11.91
274.067	11.96
274.281	12.09
274.495	12.03
274.71	12.76
274.924	12.79
275.138	12.95
275.352	13.03
275.566	13.18
275.781	12.89
275.995	12.46
276.209	12.49
276.423	12.49
276.637	12.49
276.851	12.17
277.065	11.33
277.279	11.04
277.493	10.99
277.707	11.04
277.921	10.83
278.135	11.08
278.349	11.33
278.563	10.95
278.777	11.12
278.991	11.04
279.205	11.79
279.419	12.29
279.633	12.7
279.847	12.21
280.061	12.14
280.275	11.94
280.489	11.66
280.703	11.65
280.917	11.61
281.131	11.32
281.344	11.32
281.558	11.45
281.772	11.16
281.986	11.12
282.2	11.43
282.414	11.67
282.627	11.28
282.841	11.14
283.055	11.27
283.269	11.09
283.482	11.07
283.696	10.68
283.91	10.38
284.123	10.12
284.337	9.39
284.551	8.97
284.764	8.59
284.978	8.73
285.192	8.74
285.405	8.23
285.619	8.37
285.833	8.02
286.046	8.14
286.26	8
286.473	8.17
286.687	8.59
286.9	8.83
287.114	8.52
287.327	8.58
287.541	8.54
287.754	8.98
287.968	8.88
288.181	9.16
288.395	8.93
288.608	8.94
288.822	8.47
289.035	8.31
289.248	8.28
289.462	8.52
289.675	8.32
289.889	8.22
290.102	7.71
290.315	7.8
290.529	7.85
290.742	8.04
290.955	8.25
291.169	8.24
291.382	8.61
291.595	8.59
291.808	8.45
292.022	9.4
292.235	9.67
292.448	9.81
292.661	9.63
292.875	9.63
293.088	9.76
293.301	9.77
293.514	10.03
293.727	9.67
293.94	9.57
294.153	9.99
294.367	8.92
294.58	8.54
294.793	8.33
295.006	8.4
295.219	8.21
295.432	8.16
295.645	7.83
295.858	7.93
296.071	7.73
296.284	7.4
296.497	6.99
296.71	7.06
296.923	6.97
297.136	7.09
297.349	7.02
297.562	6.86
297.775	6.45
297.988	6.54
298.201	6.6
298.414	6.77
298.626	7.06
298.839	7.31
299.052	7.46
299.265	7.87
299.478	8.11
299.691	8.47
299.903	9.15
300.116	9.43
300.329	9.85
300.542	9.44
300.755	9.58
300.967	9.83
301.18	9.76
301.393	9.77
301.605	9.84
301.818	10.1
302.031	10.14
302.243	10.01
302.456	10.41
302.669	9.72
302.881	10.26
303.094	10.58
303.307	10.43
303.519	10.56
303.732	10.72
303.944	10.52
304.157	10.68
304.37	10.46
304.582	10.46
304.795	10.38
305.007	10.46
305.22	10.51
305.432	10.31
305.645	10.17
305.857	10.32
306.069	10.28
306.282	10.37
306.494	9.6
306.707	9.91
306.919	10.08
307.132	9.82
307.344	9.83
307.556	9.49
307.769	9.9
307.981	9.67
308.193	9.22
308.406	9.05
308.618	8.97
308.83	8.93
309.043	8.92
309.255	8.62
309.467	8.64
309.679	8.85
309.892	8.88
310.104	8.34
310.316	8.45
310.528	8.63
310.74	8.57
310.953	8.64
311.165	8.96
311.377	8.54
311.589	8.65
311.801	8.86
312.013	8.69
312.225	8.85
312.437	9.05
312.649	9.09
312.862	8.96
313.074	8.98
313.286	8.84
313.498	8.57
313.71	8.82
313.922	8.65
314.134	9.05
314.346	9.55
314.558	9.57
314.77	9.37
314.982	9.92
315.193	10.29
315.405	10.28
315.617	10.59
315.829	10.95
316.041	11.18
316.253	11.41
316.465	11.15
316.677	10.88
316.888	11.23
317.1	11.17
317.312	11.43
317.524	11.37
317.736	12.11
317.947	12.54
318.159	12.84
318.371	12.56
318.583	12.65
318.794	12.68
319.006	12.55
319.218	12.22
319.43	12.4
319.641	12.11
319.853	12.8
320.064	12.85
320.276	13.13
320.488	13.03
320.699	13.71
320.911	13.81
321.123	13.8
321.334	14.03
321.546	14.25
321.757	14.84
321.969	14.94
322.18	14.39
322.392	14.29
322.603	14.25
322.815	14.6
323.026	13.8
323.238	13.62
323.449	13.26
323.661	13.39
323.872	13.36
324.083	13.04
324.295	12.96
324.506	13.53
324.718	13.04
324.929	12.63
325.14	12.17
325.352	12.86
325.563	13.2
325.774	13.74
325.986	13.61
326.197	13.47
326.408	14.1
326.62	14.13
326.831	13.81
327.042	14.39
327.253	15.01
327.464	15.46
327.676	15.48
327.887	15.29
328.098	15.44
328.309	16.32
328.52	16.97
328.732	16.74
328.943	17.23
329.154	17.66
329.365	17.7
329.576	17.94
329.787	18.07
329.998	18.35
330.209	18.99
330.42	19.19
330.631	19.11
330.842	19.41
331.053	19.82
331.264	20.15
331.475	20.42
331.686	20.44
331.897	20.33
332.108	20.3
332.319	20.45
332.53	20.57
332.741	20.66
332.952	20.75
333.163	20.21
333.374	19.75
333.585	19.25
333.795	19.25
334.006	19.65
334.217	19.47
334.428	19.53
334.639	19.61
334.849	19.37
335.06	19.52
335.271	19.49
335.482	20.05
335.692	20.34
335.903	20.74
336.114	20.78
336.325	20.58
336.535	20.99
336.746	21
336.957	20.85
337.167	21.26
337.378	20.99
337.589	21.01
337.799	20.66
338.01	20.77
338.22	20.93
338.431	20.64
338.642	20.72
338.852	20.22
339.063	20.61
339.273	20.41
339.484	20.02
339.694	20.49
339.905	20.46
340.115	20.78
340.326	20.9
340.536	20.87
340.746	20.73
340.957	21
341.167	21.01
341.378	20.47
341.588	20.45
341.799	20.62
342.009	20.02
342.219	19.66
342.43	19.46
342.64	19.12
342.85	18.77
343.061	19.01
343.271	18.55
343.481	18.75
343.691	19.14
343.902	19.2
344.112	19.16
344.322	19.18
344.532	19.34
344.743	19.42
344.953	19.33
345.163	19.3
345.373	19.2
345.583	19.3
345.793	19.16
346.004	18.98
346.214	19.13
346.424	18.88
346.634	18.93
346.844	19.11
347.054	19.07
347.264	19.47
347.474	19.61
347.684	19.67
347.894	19.71
348.104	19.81
348.314	20.2
348.524	20.49
348.734	20.36
348.944	20.56
349.154	19.99
349.364	19.67
349.574	19.15
349.784	19.29
349.994	19.35
350.204	19.33
350.413	19.24
350.623	18.68
350.833	18.64
351.043	18.91
351.253	18.75
351.463	19.3
351.672	19.66
351.882	19.69
352.092	19.71
352.302	19.59
352.511	19.55
352.721	19.36
352.931	19.5
353.141	19.24
353.35	19.05
353.56	19.07
353.77	18.94
353.979	18.52
354.189	18.7
354.399	18.11
354.608	18.17
354.818	17.94
355.027	18.1
355.237	17.96
355.447	17.67
355.656	17.58
355.866	17.54
356.075	17.22
356.285	17.44
356.494	17.35
356.704	17.62
356.913	17.55
357.123	17.69
357.332	17.35
357.542	17.52
357.751	17.35
357.96	17.5
358.17	17.47
358.379	17.63
358.589	17.48
358.798	17.27
359.007	17
359.217	16.9
359.426	16.7
359.635	16.81
359.845	16.67
360.054	16.6
360.263	16.55
360.472	16.22
360.682	16.09
360.891	15.93
361.1	15.87
361.309	15.82
361.519	15.61
361.728	15.59
361.937	15.74
362.146	15.85
362.355	15.95
362.564	16.15
362.774	16.25
362.983	16.27
363.192	16.37
363.401	16.65
363.61	16.71
363.819	17.11
364.028	17.27
364.237	17.29
364.446	17.27
364.655	17.32
364.864	17.3
365.073	17.72
365.282	17.9
365.491	18.15
365.7	17.85
365.909	17.99
366.118	17.91
366.327	17.94
366.536	17.88
366.745	17.82
366.954	18.02
367.162	17.68
367.371	17.34
367.58	17.3
367.789	17.08
367.998	17.14
368.207	17.46
368.415	17.61
368.624	17.36
368.833	17.12
369.042	17.08
369.25	17.24
369.459	17.87
369.668	17.97
369.877	17.69
370.085	17.95
370.294	17.91
370.503	17.38
370.711	17.33
370.92	17.55
371.129	17.94
371.337	17.87
371.546	17.61
371.754	17.34
371.963	17.22
372.171	17.28
372.38	17.23
372.589	17.21
372.797	17.46
373.006	17.48
373.214	17.33
373.423	16.93
373.631	16.81
373.84	16.71
374.048	16.72
374.256	16.68
374.465	16.68
374.673	16.55
374.882	16.62
375.09	16.42
375.298	16.49
375.507	16.46
375.715	16.66
375.923	16.57
376.132	16.74
376.34	16.31
376.548	16.31
376.757	16.36
376.965	16.39
377.173	16.33
377.381	16.42
377.59	15.9
377.798	16.13
378.006	15.97
378.214	16.31
378.423	16.24
378.631	16.39
378.839	16.5
379.047	16.58
379.255	16.6
379.463	16.83
379.671	16.95
379.879	17.08
380.088	16.72
380.296	16.59
380.504	16.5
380.712	16.65
380.92	16.67
381.128	16.84
381.336	16.58
381.544	16.31
381.752	16.1
381.96	16.1
382.168	16.14
382.376	16.56
382.584	16.89
382.791	16.91
382.999	16.61
383.207	16.37
383.415	15.96
383.623	15.99
383.831	16.06
384.039	16.07
384.247	16.02
384.454	16.32
384.662	16.4
384.87	16.26
385.078	16.05
385.285	16.13
385.493	16.34
385.701	16.43
385.909	16.52
386.116	16.54
386.324	16.62
386.532	16.5
386.739	16.37
386.947	16.28
387.155	16.46
387.362	16.52
387.57	16.6
387.778	16.73
387.985	16.78
388.193	17.03
388.4	17.17
388.608	17.38
388.816	17.47
389.023	17.36
389.231	17.35
389.438	17.02
389.646	17.18
389.853	17.08
390.061	17.03
390.268	17
390.475	16.76
390.683	16.64
390.89	16.33
391.098	16.35
391.305	16.27
391.512	16.05
391.72	16.16
391.927	16.01
392.135	15.77
392.342	15.51
392.549	15.47
392.756	15.27
392.964	15.25
393.171	15.37
393.378	15.12
393.586	15.14
393.793	15.26
394	15.32
394.207	15.47
394.414	15.66
394.622	15.76
394.829	15.85
395.036	16.06
395.243	16.2
395.45	16.14
395.657	16.17
395.864	16.38
396.072	16.24
396.279	16.17
396.486	15.99
396.693	15.97
396.9	16.12
397.107	16.01
397.314	16.21
397.521	16.02
397.728	16.02
397.935	16.13
398.142	15.96
398.349	15.97
398.556	16.11
398.763	16.18
398.97	16.29
399.177	16.31
399.383	16.4
399.59	16.19
399.797	16.32
400.004	16.39
400.211	16.62
400.418	16.68
400.625	16.73
400.831	16.74
401.038	16.84
401.245	16.74
401.452	16.83
401.658	16.91
401.865	17.06
402.072	17.01
402.279	16.98
402.485	17.12
402.692	17.09
402.899	17.09
403.105	17.1
403.312	17.16
403.519	17.12
403.725	17.05
403.932	16.96
404.138	16.98
404.345	16.92
404.552	16.99
404.758	16.86
404.965	16.94
405.171	16.9
405.378	16.79
405.584	16.77
405.791	16.98
405.997	16.95
406.204	17.09
406.41	17.03
406.617	17.26
406.823	17.32
407.029	17.34
407.236	17.48
407.442	17.75
407.649	18.04
407.855	17.95
408.061	18
408.268	17.96
408.474	18.1
408.68	18.12
408.887	18
409.093	18.01
409.299	17.89
409.505	17.63
409.712	17.55
409.918	17.32
410.124	17.45
410.33	17.52
410.537	17.72
410.743	17.62
410.949	17.74
411.155	17.94
411.361	17.95
411.567	18.07
411.773	18.26
411.98	18.03
412.186	18.09
412.392	17.94
412.598	17.74
412.804	17.62
413.01	17.6
413.216	17.44
413.422	17.38
413.628	17.49
413.834	17.45
414.04	17.28
414.246	17.38
414.452	17.26
414.658	17.36
414.864	17.48
415.07	17.67
415.275	17.61
415.481	17.66
415.687	17.59
415.893	17.22
416.099	17.1
416.305	17.1
416.511	16.93
416.716	16.85
416.922	16.63
417.128	16.43
417.334	16.09
417.539	15.91
417.745	15.74
417.951	15.47
418.157	15.46
418.362	15.34
418.568	15.19
418.774	15.16
418.979	15.11
419.185	15.02
419.391	14.78
419.596	14.74
419.802	14.65
420.008	14.66
420.213	14.66
420.419	14.65
420.624	14.56
420.83	14.67
421.035	14.66
421.241	14.55
421.446	14.5
421.652	14.5
421.857	14.56
422.063	14.49
422.268	14.4
422.474	14.29
422.679	14.23
422.885	14.32
423.09	14.14
423.295	14.03
423.501	14.06
423.706	14.07
423.911	14.08
424.117	13.92
424.322	14.01
424.527	14.03
424.733	14.12
424.938	14.1
425.143	14.06
425.349	14.18
425.554	14.24
425.759	14.33
425.964	14.54
426.169	14.73
426.375	14.87
426.58	15.06
426.785	15.18
426.99	15.31
427.195	15.52
427.4	15.76
427.605	15.98
427.811	16.25
428.016	16.18
428.221	16.01
428.426	16.1
428.631	16.18
428.836	16.13
429.041	16.2
429.246	16.27
429.451	16.41
429.656	16.3
429.861	16.15
430.066	16.11
430.271	16.2
430.476	16.36
430.681	16.32
430.886	16.35
431.09	16.34
431.295	16.29
431.5	16.29
431.705	16.21
431.91	16.13
432.115	16
432.32	15.98
432.524	16.05
432.729	16
432.934	16.04
433.139	16.04
433.343	16.1
433.548	16.24
433.753	16.36
433.958	16.41
434.162	16.61
434.367	16.83
434.572	16.95
434.776	17.05
434.981	17.25
435.186	17.4
435.39	17.6
435.595	17.67
435.799	17.69
436.004	17.68
436.209	17.67
436.413	17.57
436.618	17.53
436.822	17.37
437.027	17.33
437.231	17.14
437.436	17.01
437.64	16.72
437.845	16.64
438.049	16.45
438.253	16.38
438.458	16.25
438.662	16.17
438.867	16.09
439.071	16.02
439.275	15.87
439.48	15.78
439.684	15.68
439.888	15.64
440.093	15.48
440.297	15.38
440.501	15.25
440.706	15.23
440.91	15.21
441.114	15.18
441.318	15.22
441.523	15.28
441.727	15.4
441.931	15.42
442.135	15.58
442.339	15.76
442.543	15.92
442.748	16.09
442.952	16.11
443.156	16.26
443.36	16.36
443.564	16.36
443.768	16.26
443.972	16.16
444.176	16.07
444.38	15.92
444.584	15.7
444.788	15.54
444.992	15.38
445.196	15.33
445.4	15.08
445.604	14.95
445.808	14.86
446.012	14.83
446.216	14.76
446.42	14.76
446.624	14.77
446.828	14.85
447.032	14.9
447.235	14.9
447.439	14.99
447.643	15.09
447.847	15.1
448.051	15.18
448.254	15.25
448.458	15.37
448.662	15.51
448.866	15.57
449.069	15.73
449.273	15.96
449.477	16.18
449.681	16.26
449.884	16.39
450.088	16.6
450.292	16.74
450.495	16.87
450.699	16.96
450.902	17.09
451.106	17.1
451.31	17.02
451.513	16.88
451.717	16.77
451.92	16.63
452.124	16.71
452.327	16.69
452.531	16.62
452.734	16.65
452.938	16.58
453.141	16.47
453.345	16.48
453.548	16.62
453.752	16.8
453.955	16.94
454.158	17.07
454.362	17
454.565	17.03
454.769	17.25
454.972	17.3
455.175	17.5
455.379	17.61
455.582	17.77
455.785	17.79
455.988	17.83
456.192	17.74
456.395	17.67
456.598	17.68
456.801	17.65
457.005	17.51
457.208	17.4
457.411	17.25
457.614	17.01
457.817	16.74
458.021	16.53
458.224	16.17
458.427	15.92
458.63	15.81
458.833	15.7
459.036	15.58
459.239	15.44
459.442	15.31
459.645	15.22
459.848	15.22
460.051	15.22
460.254	15.18
460.457	15.29
460.66	15.47
460.863	15.65
461.066	15.73
461.269	15.81
461.472	16
461.675	16.23
461.878	16.49
462.081	16.67
462.284	16.93
462.486	17.24
462.689	17.38
462.892	17.46
463.095	17.52
463.298	17.62
463.5	17.77
463.703	17.83
463.906	17.92
464.109	17.87
464.311	17.9
464.514	17.97
464.717	17.97
464.92	17.98
465.122	18.09
465.325	18.11
465.528	18.25
465.73	18.35
465.933	18.22
466.135	18.14
466.338	18.17
466.541	18.22
466.743	18.05
466.946	18.01
467.148	18
467.351	17.93
467.553	18.06
467.756	18.17
467.958	18.2
468.161	18.26
468.363	18.39
468.566	18.3
468.768	18.37
468.971	18.52
469.173	18.62
469.375	18.66
469.578	18.63
469.78	18.55
469.983	18.44
470.185	18.4
470.387	18.61
470.59	18.62
470.792	18.92
470.994	18.87
471.196	18.85
471.399	18.79
471.601	18.85
471.803	18.94
472.005	18.91
472.208	18.81
472.41	18.78
472.612	18.6
472.814	18.62
473.016	18.47
473.218	18.63
473.421	18.66
473.623	18.76
473.825	18.9
474.027	18.99
474.229	19.18
474.431	19.3
474.633	19.35
474.835	19.53
475.037	19.46
475.239	19.55
475.441	19.58
475.643	19.56
475.845	19.5
476.047	19.43
476.249	19.34
476.451	19.16
476.653	19.05
476.855	18.81
477.057	18.66
477.258	18.64
477.46	18.62
477.662	18.5
477.864	18.49
478.066	18.35
478.268	18.22
478.469	18.29
478.671	18.3
478.873	18.33
479.075	18.48
479.276	18.44
479.478	18.36
479.68	18.22
479.882	18.13
480.083	18.09
480.285	18.12
480.487	17.99
480.688	17.79
480.89	17.73
481.091	17.53
481.293	17.26
481.495	17.07
481.696	16.69
481.898	16.26
482.099	15.83
482.301	15.4
482.502	15.03
482.704	14.7
482.905	14.43
483.107	14.17
483.308	14
483.51	13.88
483.711	13.73
483.913	13.68
484.114	13.7
484.315	13.7
484.517	13.76
484.718	13.81
484.92	13.96
485.121	14.09
485.322	14.16
485.524	14.27
485.725	14.34
485.926	14.46
486.127	14.57
486.329	14.53
486.53	14.57
486.731	14.56
486.932	14.56
487.134	14.49
487.335	14.44
487.536	14.46
487.737	14.46
487.938	14.53
488.139	14.54
488.341	14.63
488.542	14.82
488.743	14.97
488.944	15.15
489.145	15.31
489.346	15.51
489.547	15.62
489.748	15.69
489.949	15.77
490.15	15.75
490.351	15.81
490.552	15.73
490.753	15.59
490.954	15.52
491.155	15.44
491.356	15.37
491.557	15.32
491.758	15.37
491.959	15.43
492.159	15.54
492.36	15.75
492.561	15.93
492.762	16.12
492.963	16.36
493.164	16.66
493.364	16.92
493.565	17.21
493.766	17.5
493.967	17.87
494.167	18.21
494.368	18.43
494.569	18.54
494.769	18.6
494.97	18.7
495.171	18.78
495.371	18.72
495.572	18.73
495.773	18.84
495.973	18.8
496.174	18.62
496.375	18.53
496.575	18.49
496.776	18.41
496.976	18.41
497.177	18.43
497.377	18.44
497.578	18.42
497.778	18.39
497.979	18.37
498.179	18.46
498.38	18.54
498.58	18.59
498.78	18.68
498.981	18.84
499.181	18.83
499.382	18.94
499.582	19.05
499.782	19.29
499.983	19.49
500.183	19.58
500.383	19.66
500.584	19.8
500.784	19.9
500.984	19.94
501.184	19.99
501.385	20.19
501.585	20.08
501.785	20.08
501.985	20.03
502.185	19.93
502.386	19.9
502.586	19.78
502.786	19.78
502.986	19.69
503.186	19.61
503.386	19.58
503.586	19.55
503.786	19.61
503.987	19.68
504.187	19.71
504.387	19.8
504.587	19.91
504.787	20.13
504.987	20.2
505.187	20.42
505.387	20.54
505.587	20.6
505.786	20.59
505.986	20.73
506.186	20.73
506.386	20.78
506.586	20.77
506.786	20.65
506.986	20.46
507.186	20.32
507.386	20.04
507.585	19.82
507.785	19.8
507.985	19.74
508.185	19.64
508.384	19.58
508.584	19.37
508.784	19.29
508.984	19.27
509.183	19.29
509.383	19.37
509.583	19.42
509.782	19.49
509.982	19.46
510.182	19.58
510.381	19.51
510.581	19.47
510.781	19.53
510.98	19.57
511.18	19.54
511.379	19.57
511.579	19.53
511.778	19.54
511.978	19.54
512.177	19.6
512.377	19.58
512.576	19.69
512.776	19.78
512.975	19.9
513.175	20
513.374	20.14
513.573	20.2
513.773	20.18
513.972	20.32
514.172	20.44
514.371	20.47
514.57	20.54
514.77	20.68
514.969	20.69
515.168	20.71
515.367	20.55
515.567	20.55
515.766	20.51
515.965	20.51
516.164	20.34
516.364	20.1
516.563	19.88
516.762	19.65
516.961	19.4
517.16	19.28
517.359	19.01
517.559	19
517.758	18.78
517.957	18.7
518.156	18.62
518.355	18.68
518.554	18.79
518.753	18.81
518.952	18.83
519.151	18.88
519.35	18.93
519.549	19.13
519.748	19.24
519.947	19.46
520.146	19.62
520.345	19.8
520.544	19.91
520.743	19.97
520.942	20.2
521.141	20.43
521.339	20.62
521.538	20.76
521.737	20.88
521.936	20.91
522.135	20.97
522.333	21
522.532	21.1
522.731	21.1
522.93	21.13
523.129	21
523.327	20.95
523.526	20.79
523.725	20.69
523.923	20.5
524.122	20.38
524.321	20.23
524.519	20.03
524.718	19.75
524.917	19.59
525.115	19.43
525.314	19.32
525.512	19.21
525.711	19.03
525.909	18.91
526.108	18.79
526.306	18.64
526.505	18.34
526.703	18.08
526.902	17.88
527.1	17.66
527.299	17.46
527.497	17.23
527.696	17
527.894	16.88
528.092	16.73
528.291	16.62
528.489	16.57
528.688	16.6
528.886	16.68
529.084	16.77
529.283	16.89
529.481	17.03
529.679	17.22
529.877	17.44
530.076	17.65
530.274	17.92
530.472	18.22
530.67	18.45
530.869	18.69
531.067	18.87
531.265	18.93
531.463	18.92
531.661	18.9
531.859	18.88
532.057	18.78
532.255	18.68
532.454	18.61
532.652	18.5
532.85	18.48
533.048	18.48
533.246	18.46
533.444	18.52
533.642	18.61
533.84	18.74
534.038	18.89
534.236	19.07
534.434	19.29
534.632	19.39
534.83	19.55
535.027	19.63
535.225	19.72
535.423	19.81
535.621	19.87
535.819	19.98
536.017	20.06
536.215	20.05
536.412	20.18
536.61	20.25
536.808	20.33
537.006	20.46
537.203	20.71
537.401	20.92
537.599	21.18
537.797	21.51
537.994	21.76
538.192	21.93
538.39	22.13
538.587	22.26
538.785	22.43
538.983	22.51
539.18	22.57
539.378	22.43
539.575	22.28
539.773	22.08
539.97	21.83
540.168	21.65
540.366	21.49
540.563	21.4
540.761	21.24
540.958	21.11
541.155	21.06
541.353	21.04
541.55	21.04
541.748	21.07
541.945	21.2
542.143	21.38
542.34	21.57
542.537	21.77
542.735	22.02
542.932	22.33
543.129	22.69
543.327	23.23
543.524	23.7
543.721	24.29
543.919	24.96
544.116	25.54
544.313	26.16
544.51	26.83
544.708	27.47
544.905	28.05
545.102	28.66
545.299	29.09
545.496	29.26
545.693	29.34
545.891	29.32
546.088	29.27
546.285	29.11
546.482	28.85
546.679	28.51
546.876	28.25
547.073	28.01
547.27	27.74
547.467	27.68
547.664	27.57
547.861	27.62
548.058	27.6
548.255	27.61
548.452	27.74
548.649	28.05
548.846	28.28
549.043	28.46
549.24	28.61
549.437	28.71
549.633	28.61
549.83	28.75
550.027	28.71
550.224	28.8
550.421	28.66
550.618	28.45
550.814	28.2
551.011	27.86
551.208	27.64
551.405	27.55
551.601	27.38
551.798	27.22
551.995	26.87
552.191	26.75
552.388	26.49
552.585	26.36
552.781	26.38
552.978	26.25
553.175	26.39
553.371	26.39
553.568	26.39
553.764	26.5
553.961	26.51
554.157	26.67
554.354	26.6
554.55	26.81
554.747	27.03
554.943	27.17
555.14	27.41
555.336	27.5
555.533	27.62
555.729	27.77
555.926	27.7
556.122	27.79
556.318	27.88
556.515	28.1
556.711	27.92
556.907	27.95
557.104	27.91
557.3	27.78
557.496	27.68
557.693	27.66
557.889	27.66
558.085	27.68
558.281	27.84
558.478	27.87
558.674	27.75
558.87	27.87
559.066	27.77
559.262	27.81
559.459	27.68
559.655	27.88
559.851	27.85
560.047	27.82
560.243	27.91
560.439	27.72
560.635	27.66
560.831	27.68
561.027	27.74
561.223	27.61
561.419	27.48
561.615	27.54
561.811	27.5
562.007	27.43
562.203	27.34
562.399	27.21
562.595	27.19
562.791	27.19
562.987	27.17
563.183	27.05
563.379	27.18
563.575	27.21
563.771	27.25
563.966	27.05
564.162	27.06
564.358	26.92
564.554	26.56
564.75	26.4
564.945	26.1
565.141	25.89
565.337	25.8
565.533	25.48
565.728	25.24
565.924	24.96
566.12	24.78
566.315	24.64
566.511	24.66
566.707	24.88
566.902	24.94
567.098	25.13
567.293	25.23
567.489	25.25
567.684	25.42
567.88	25.69
568.076	25.9
568.271	26.04
568.467	26.13
568.662	26.09
568.858	26.04
569.053	25.96
569.248	25.87
569.444	25.75
569.639	25.65
569.835	25.61
570.03	25.39
570.225	25.32
570.421	25.12
570.616	24.97
570.812	24.82
571.007	24.59
571.202	24.48
571.397	24.35
571.593	24.25
571.788	24.12
571.983	24.02
572.178	23.97
572.374	23.99
572.569	24.09
572.764	24.21
572.959	24.22
573.154	24.4
573.35	24.4
573.545	24.39
573.74	24.44
573.935	24.53
574.13	24.61
574.325	24.7
574.52	24.81
574.715	25.01
574.91	25.02
575.105	25.33
575.3	25.46
575.495	25.91
575.69	26.22
575.885	26.5
576.08	26.75
576.275	27
576.47	27.31
576.665	27.53
576.86	27.73
577.055	27.99
577.25	28.21
577.444	28.43
577.639	28.53
577.834	28.64
578.029	28.92
578.224	29.05
578.418	29.37
578.613	29.61
578.808	29.84
579.003	29.94
579.197	30.11
579.392	30.07
579.587	30.27
579.781	30.14
579.976	30.35
580.171	30.42
580.365	30.69
580.56	30.76
580.755	30.63
580.949	30.46
581.144	30.37
581.338	30.4
581.533	30.61
581.727	30.59
581.922	30.93
582.116	30.89
582.311	31.04
582.505	31.07
582.7	31.05
582.894	31.1
583.089	31.18
583.283	31.39
583.478	31.44
583.672	31.34
583.866	31.39
584.061	31.27
584.255	31.28
584.449	31.12
584.644	31.2
584.838	31.18
585.032	31.12
585.226	31.22
585.421	31.11
585.615	31.21
585.809	31.36
586.003	31.44
586.198	31.49
586.392	31.62
586.586	31.34
586.78	31.12
586.974	31.11
587.168	31.14
587.363	30.92
587.557	30.73
587.751	30.43
587.945	29.91
588.139	29.68
588.333	29.32
588.527	28.83
588.721	28.79
588.915	28.56
589.109	28.33
589.303	28.26
589.497	28.16
589.691	28.15
589.885	28.04
590.079	28.31
590.273	28.28
590.466	28.63
590.66	28.96
590.854	29.32
591.048	29.72
591.242	29.89
591.436	30.17
591.629	30.4
591.823	30.64
592.017	30.9
592.211	30.99
592.404	31.17
592.598	31.09
592.792	31.08
592.986	30.93
593.179	30.71
593.373	30.54
593.567	30.22
593.76	30.04
593.954	29.49
594.147	29.23
594.341	28.91
594.535	28.6
594.728	28.37
594.922	27.98
595.115	27.68
595.309	27.41
595.502	27.26
595.696	26.97
595.889	26.64
596.083	26.63
596.276	26.57
596.47	26.42
596.663	26.31
596.856	26.24
597.05	26.34
597.243	26.49
597.437	26.65
597.63	26.75
597.823	27.08
598.017	27.57
598.21	27.89
598.403	28.22
598.596	28.65
598.79	29.09
598.983	29.49
599.176	29.82
599.369	29.91
599.563	29.96
599.756	30.12
599.949	30.23
600.142	30.38
600.335	30.37
600.528	30.12
600.722	30.16
600.915	29.85
601.108	29.61
601.301	29.33
601.494	29.03
601.687	28.85
601.88	28.47
602.073	28.11
602.266	27.54
602.459	27.1
602.652	27.01
602.845	26.65
603.038	26.45
603.231	26.12
603.424	25.8
603.617	25.68
603.809	25.48
604.002	25.46
604.195	25.4
604.388	25.41
604.581	25.54
604.774	25.46
604.966	25.52
605.159	25.57
605.352	25.85
605.545	26.27
605.737	26.58
605.93	26.98
606.123	27.26
606.316	27.54
606.508	28.01
606.701	28.51
606.894	28.97
607.086	29.39
607.279	29.87
607.471	29.99
607.664	30.14
607.857	30.53
608.049	31.05
608.242	31.73
608.434	32.73
608.627	33.63
608.819	34.84
609.012	36.23
609.204	37.81
609.397	39.68
609.589	41.92
609.782	44.18
609.974	46.62
610.166	49.07
610.359	51.34
610.551	53.46
610.743	55.54
610.936	57.19
611.128	58.62
611.32	59.73
611.513	60.56
611.705	60.78
611.897	60.87
612.09	60.24
612.282	59.44
612.474	58.66
612.666	57.59
612.858	56.16
613.051	55.08
613.243	54.04
613.435	53.12
613.627	52.01
613.819	51.03
614.011	50.35
614.203	49.48
614.395	48.4
614.588	47.36
614.78	46.29
614.972	45.35
615.164	44.35
615.356	43.33
615.548	42.53
615.74	41.68
615.932	40.85
616.124	39.6
616.315	38.87
616.507	38.44
616.699	37.78
616.891	37.38
617.083	37.03
617.275	36.55
617.467	36.23
617.659	35.9
617.85	35.44
618.042	35.18
618.234	35.18
618.426	34.9
618.618	34.58
618.809	34.54
619.001	34.26
619.193	34.44
619.384	34.3
619.576	34.28
619.768	34.06
619.959	34.33
620.151	34.48
620.343	34.44
620.534	34.46
620.726	34.55
620.917	34.62
621.109	34.94
621.301	34.87
621.492	35.1
621.684	35.22
621.875	35.38
622.067	35.3
622.258	35.29
622.45	35.51
622.641	35.61
622.832	35.73
623.024	35.68
623.215	35.59
623.407	35.55
623.598	35.27
623.789	35.14
623.981	34.81
624.172	34.81
624.363	34.61
624.555	34.4
624.746	34.07
624.937	33.62
625.129	33.38
625.32	33.12
625.511	32.82
625.702	32.6
625.893	32.45
626.085	32.19
626.276	31.67
626.467	31.55
626.658	31.21
626.849	31.19
627.04	31.19
627.231	31.26
627.422	31.2
627.614	31.23
627.805	31.68
627.996	31.91
628.187	32.34
628.378	32.73
628.569	33.18
628.76	33.81
628.951	34.22
629.142	34.71
629.332	35.22
629.523	35.71
629.714	36.27
629.905	36.46
630.096	36.72
630.287	36.89
630.478	37.31
630.669	37.41
630.859	37.28
631.05	37.36
631.241	37.24
631.432	36.68
631.623	36.44
631.813	36
632.004	35.47
632.195	35.01
632.385	34.57
632.576	33.99
632.767	33.38
632.957	32.98
633.148	32.69
633.339	32.38
633.529	32.39
633.72	32.21
633.91	32.18
634.101	32.04
634.292	31.79
634.482	31.72
634.673	31.65
634.863	31.73
635.054	31.77
635.244	31.75
635.435	31.79
635.625	31.81
635.815	31.83
636.006	31.8
636.196	31.82
636.387	32.11
636.577	32.08
636.767	32.35
636.958	32.48
637.148	32.46
637.338	32.54
637.529	32.64
637.719	32.71
637.909	32.75
638.099	32.85
638.29	32.9
638.48	32.73
638.67	32.74
638.86	32.62
639.05	32.48
639.241	32.64
639.431	32.57
639.621	32.72
639.811	32.78
640.001	32.67
640.191	32.56
640.381	32.79
640.571	33.15
640.761	33.53
640.951	33.61
641.141	33.7
641.331	33.8
641.521	33.9
641.711	34.04
641.901	34.07
642.091	34.44
642.281	34.86
642.471	34.95
642.661	35.19
642.851	35.23
643.041	35.21
643.231	35.55
643.42	35.47
643.61	35.77
643.8	35.48
643.99	35.42
644.18	35.16
644.369	34.95
644.559	34.9
644.749	34.42
644.939	34.05
645.128	33.96
645.318	33.54
645.508	33.51
645.697	33.1
645.887	33.11
646.076	32.96
646.266	33.03
646.456	32.91
646.645	32.92
646.835	33.09
647.024	33.38
647.214	33.47
647.403	33.42
647.593	33.75
647.782	34
647.972	33.9
648.161	34.27
648.351	34.25
648.54	34.4
648.73	34.5
648.919	34.71
649.108	34.66
649.298	34.88
649.487	35.17
649.677	34.99
649.866	34.81
650.055	34.8
650.244	34.58
650.434	34.47
650.623	34.49
650.812	34.23
651.002	33.83
651.191	33.73
651.38	33.44
651.569	33.2
651.758	32.89
651.947	33.18
652.137	33.17
652.326	33.21
652.515	33.4
652.704	33.42
652.893	33.73
653.082	34.06
653.271	34.39
653.46	34.42
653.649	34.53
653.838	34.62
654.027	34.28
654.216	34.27
654.405	34.15
654.594	34.08
654.783	33.64
654.972	33.32
655.161	33.13
655.35	33.01
655.539	33.1
655.728	32.92
655.916	32.85
656.105	32.76
656.294	32.86
656.483	32.79
656.672	32.65
656.86	32.84
657.049	32.72
657.238	32.26
657.427	31.92
657.615	31.48
657.804	31.41
657.993	31.14
658.181	30.54
658.37	30.24
658.559	29.94
658.747	29.75
658.936	29.63
659.125	29.36
659.313	29.33
659.502	29.51
659.69	29.62
659.879	29.57
660.067	30.02
660.256	30.57
660.444	31.01
660.633	31.41
660.821	31.94
661.01	32.46
661.198	33.27
661.387	33.96
661.575	34.12
661.763	34.43
661.952	34.9
662.14	35.18
662.328	35.52
662.517	35.66
662.705	35.94
662.893	35.84
663.082	35.65
663.27	35.61
663.458	35.42
663.646	35.62
663.834	36.14
664.023	36.48
664.211	36.19
664.399	36.47
664.587	36.46
664.775	36.24
664.963	36.6
665.152	36.77
665.34	36.83
665.528	36.88
665.716	36.89
665.904	36.69
666.092	36.12
666.28	36.35
666.468	36.01
666.656	36.26
666.844	36.47
667.032	36.54
667.22	36.39
667.408	36.43
667.596	36.83
667.784	36.54
667.971	36.58
668.159	36.81
668.347	36.46
668.535	36.6
668.723	36.23
668.911	35.94
669.098	35.6
669.286	35.69
669.474	35.42
669.662	35.55
669.849	35.88
670.037	35.95
670.225	36.12
670.413	36.47
670.6	36.43
670.788	36.65
670.976	37.04
671.163	37.34
671.351	37.46
671.538	37.65
671.726	37.37
671.913	37.32
672.101	37.27
672.289	37.28
672.476	37.31
672.664	37.65
672.851	37.57
673.039	37.55
673.226	37.72
673.413	37.74
673.601	37.83
673.788	37.69
673.976	37.71
674.163	37.73
674.35	37.69
674.538	37.83
674.725	37.71
674.912	37.78
675.1	37.92
675.287	37.79
675.474	37.67
675.662	37.73
675.849	37.9
676.036	37.68
676.223	37.69
676.411	37.72
676.598	37.61
676.785	37.39
676.972	37.29
677.159	37.06
677.346	36.81
677.533	36.86
677.721	36.42
677.908	36.18
678.095	35.81
678.282	35.47
678.469	34.91
678.656	34.47
678.843	34.02
679.03	33.8
679.217	33.5
679.404	33.33
679.591	32.83
679.778	32.77
679.964	32.78
680.151	32.93
680.338	32.87
680.525	33.08
680.712	33.39
680.899	33.85
681.086	34.28
681.272	34.65
681.459	34.89
681.646	35.36
681.833	35.61
682.02	36.01
682.206	36.15
682.393	36.54
682.58	37.04
682.766	37.06
682.953	37.2
683.14	37.31
683.326	37.56
683.513	37.82
683.7	37.73
683.886	37.91
684.073	37.87
684.259	38.3
684.446	38.2
684.632	38.2
684.819	38.11
685.005	38.4
685.192	38.31
685.378	38.06
685.565	37.93
685.751	38.18
685.938	38.12
686.124	37.99
686.31	38.14
686.497	38.11
686.683	38.1
686.87	38.34
687.056	37.93
687.242	37.97
687.429	38.28
687.615	38.24
687.801	38.22
687.987	38.51
688.174	38.53
688.36	38.38
688.546	38.4
688.732	38.28
688.918	38.17
689.105	38.11
689.291	38.04
689.477	37.91
689.663	38.33
689.849	38.24
690.035	37.98
690.221	38.07
690.407	38.33
690.593	38.66
690.779	38.7
690.965	38.79
691.151	39.42
691.337	39.59
691.523	39.81
691.709	39.58
691.895	39.76
692.081	39.98
692.267	40.26
692.453	40.32
692.639	40.35
692.825	40.35
693.011	40.48
693.196	40.28
693.382	40.21
693.568	40.2
693.754	39.91
693.94	40.1
694.125	39.93
694.311	39.97
694.497	39.78
694.682	40.09
694.868	40.2
695.054	40.45
695.239	40.59
695.425	40.53
695.611	40.39
695.796	40.28
695.982	39.78
696.168	39.72
696.353	39.01
696.539	38.39
696.724	37.41
696.91	36.57
697.095	35.86
697.281	34.91
697.466	34.39
697.652	33.49
697.837	33.03
698.023	32.92
698.208	32.64
698.393	32.33
698.579	32.12
698.764	31.95
698.949	32.08
699.135	31.82
699.32	32
699.505	32.14
699.691	32.48
699.876	32.83
700.061	32.88
700.246	33.09
700.432	33.69
700.617	34.04
700.802	34.32
700.987	35.19
701.172	36.39
701.358	37.1
701.543	38.08
701.728	39.04
701.913	39.75
702.098	40.57
702.283	41.34
702.468	42.04
702.653	42.94
702.838	43.7
703.023	43.86
703.208	43.81
703.393	44.14
703.578	44.34
703.763	44.89
703.948	45.18
704.133	45.61
704.318	46.15
704.503	46.69
704.688	47.35
704.873	48.17
705.057	49.57
705.242	50.41
705.427	50.89
705.612	51.45
705.797	52.02
705.981	52.82
706.166	53.09
706.351	53.29
706.536	53.25
706.72	52.84
706.905	52.92
707.09	52.29
707.274	52.29
707.459	52.38
707.644	52.35
707.828	52.1
708.013	51.85
708.197	51.95
708.382	51.85
708.567	51.58
708.751	51.73
708.936	51.51
709.12	51.39
709.305	51.02
709.489	50.71
709.673	50.27
709.858	50.01
710.042	49.68
710.227	49.69
710.411	49.65
710.596	49.45
710.78	49.31
710.964	49.27
711.149	48.97
711.333	49.07
711.517	49.3
711.702	49.06
711.886	48.79
712.07	48.81
712.254	48.42
712.438	47.87
712.623	47.88
712.807	47.68
712.991	47.27
713.175	46.81
713.359	46.2
713.544	45.87
713.728	45.9
713.912	45.47
714.096	44.8
714.28	44.02
714.464	43.43
714.648	42.84
714.832	42.38
715.016	42.07
715.2	41.72
715.384	41.47
715.568	41
715.752	40.14
715.936	40.31
716.12	40.25
716.304	40.49
716.488	40.46
716.671	39.96
716.855	39.9
717.039	39.78
717.223	39.77
717.407	40.02
717.59	40.03
717.774	40.66
717.958	40.33
718.142	40.55
718.325	40.39
718.509	40.9
718.693	41.88
718.877	41.75
719.06	41.8
719.244	42.01
719.428	42.22
719.611	42.74
719.795	42.73
719.978	42.8
720.162	43.42
720.345	43.9
720.529	44.14
720.713	44.4
720.896	45.26
721.08	45.93
721.263	46.94
721.446	47.09
721.63	47.21
721.813	47.26
721.997	47.5
722.18	47.3
722.364	46.79
722.547	46.84
722.73	46.81
722.914	46.27
723.097	46.23
723.28	45.75
723.464	45.39
723.647	44.86
723.83	44.9
724.013	44.26
724.197	44.26
724.38	44.73
724.563	44.52
724.746	44.39
724.929	44.36
725.112	44.15
725.296	43.79
725.479	43.55
725.662	43.47
725.845	43.45
726.028	43.9
726.211	43.29
726.394	43.09
726.577	42.68
726.76	42.73
726.943	42.66
727.126	42.74
727.309	42.64
727.492	42.74
727.675	42.76
727.858	42.78
728.041	42.85
728.224	43.04
728.407	42.77
728.589	43.13
728.772	42.87
728.955	43.08
729.138	42.4
729.321	42.63
729.503	42.73
729.686	42.74
729.869	42.46
730.052	42.21
730.234	42.3
730.417	42.62
730.6	41.81
730.782	41.65
730.965	41.3
731.148	41.88
731.33	41.56
731.513	41.72
731.695	41.98
731.878	41.89
732.061	42.15
732.243	42.13
732.426	42.16
732.608	42.75
732.791	43.04
732.973	43.35
733.156	44.01
733.338	44.29
733.52	44.62
733.703	44.23
733.885	44.84
734.068	45.22
734.25	45.17
734.432	45.17
734.615	45.9
734.797	46.66
734.979	46.84
735.162	46.95
735.344	47.18
735.526	46.96
735.708	47.89
735.891	48.85
736.073	49.13
736.255	49.48
736.437	50
736.619	49.36
736.802	48.92
736.984	48.87
737.166	48.47
737.348	48.44
737.53	48.58
737.712	48.92
737.894	48.14
738.076	48.42
738.258	48.62
738.44	48.56
738.622	49.31
738.804	49.55
738.986	50.21
739.168	49.89
739.35	50.43
739.532	51.03
739.714	51.18
739.896	51.63
740.078	51.47
740.259	51.28
740.441	51.67
740.623	51.44
740.805	51.78
740.987	51.78
741.168	52.6
741.35	52.89
741.532	53.14
741.714	53.61
741.895	53.9
742.077	55.05
742.259	56.23
742.44	56.85
742.622	57.65
742.804	58.09
742.985	58.32
743.167	57.84
743.348	57.33
743.53	56.87
743.711	56.35
743.893	55.8
744.075	54.42
744.256	54.14
744.438	54.25
744.619	55.11
744.8	55.06
744.982	55.42
745.163	56.26
745.345	57.7
745.526	58.87
745.707	58.6
745.889	59.21
746.07	60.12
746.252	60.29
746.433	59.71
746.614	58.46
746.795	57.73
746.977	57.97
747.158	57.63
747.339	57.14
747.52	56.47
747.702	56.88
747.883	56.64
748.064	55.95
748.245	55.48
748.426	55.18
748.607	54.93
748.788	55.17
748.97	54.87
749.151	54.69
749.332	54.74
749.513	54.61
749.694	54.72
749.875	55.43
750.056	56
750.237	55.59
750.418	56.11
750.599	56.91
750.78	57.83
750.96	57.51
751.141	57.29
751.322	56.53
751.503	57.01
751.684	56.85
751.865	56.52
752.046	56.51
752.226	57.33
752.407	57.17
752.588	56.97
752.769	56.15
752.949	56.56
753.13	57.99
753.311	58.91
753.492	59.77
753.672	59.61
753.853	59.59
754.034	59.53
754.214	59.63
754.395	58.94
754.575	59.1
754.756	58.89
754.937	59.35
755.117	59.09
755.298	59.07
755.478	57.68
755.659	57.63
755.839	57.52
756.02	57.43
756.2	57.18
756.381	57.57
756.561	58.05
756.741	58.37
756.922	57.78
757.102	57.1
757.283	56.1
757.463	56.46
757.643	56.19
757.823	55.27
758.004	54.85
758.184	54.06
758.364	53.9
758.545	52.2
758.725	51.03
758.905	49.64
759.085	48.08
759.265	47.03
759.446	45.41
759.626	44.79
759.806	44.41
759.986	44.47
760.166	43.64
760.346	42.14
760.526	41.77
760.706	41.19
760.886	40.39
761.066	40.76
761.246	41.12
761.426	40.64
761.606	40.35
761.786	40.21
761.966	39.19
762.146	39.11
762.326	39.15
762.506	38.93
762.686	38.92
762.866	38.65
763.046	37.73
763.225	37.42
763.405	37.5
763.585	37.5
763.765	37.34
763.945	37.08
764.124	37.37
764.304	37.86
764.484	38.34
764.664	38.65
764.843	39.53
765.023	40.89
765.203	41.47
765.382	42.06
765.562	42.31
765.741	43.31
765.921	45.27
766.101	46.97
766.28	48.02
766.46	48.97
766.639	49.95
766.819	51.76
766.998	52.02
767.178	52.94
767.357	54.54
767.537	56.54
767.716	57.23
767.896	57.8
768.075	57.92
768.254	58.33
768.434	59.41
768.613	59.96
768.792	59.74
768.972	60.55
769.151	61.31
769.33	62.01
769.51	61.81
769.689	62.3
769.868	62.29
770.047	62.51
770.226	62.58
770.406	62.36
770.585	63.27
770.764	63.12
770.943	63.82
771.122	63.55
771.301	63.26
771.48	64.33
771.66	63.87
771.839	64.54
772.018	64.46
772.197	65.88
772.376	66.58
772.555	66.8
772.734	67.39
772.913	67.23
773.092	67.6
773.271	68.19
773.449	67.88
773.628	68.76
773.807	68.83
773.986	68.82
774.165	68.57
774.344	69.05
774.523	69.33
774.701	69.95
774.88	71.15
775.059	71.16
775.238	70.75
775.417	71
775.595	70.92
775.774	70.2
775.953	70.29
776.131	70.27
776.31	69.25
776.489	68.9
776.667	67.75
776.846	67.16
777.025	66.87
777.203	67.91
777.382	68.07
777.56	68.11
777.739	67.98
777.917	68.53
778.096	68.38
778.274	69.14
778.453	69.42
778.631	70.38
778.81	70.71
778.988	72.03
779.166	70.82
779.345	70.52
779.523	70.22
779.702	71.55
779.88	72.22
780.058	72.84
780.237	73.65
780.415	74.95
780.593	75.45
780.771	75.36
780.95	75.61
781.128	76.73
781.306	76.22
781.484	77.87
781.662	77.15
781.841	76.14
782.019	76.52
782.197	74.51
782.375	72.48
782.553	71.58
782.731	71.18
782.909	70.95
783.087	70.71
783.265	71.41
783.443	69.88
783.621	70.07
783.799	70.49
783.977	69.84
784.155	70.76
784.333	72.44
784.511	73.88
784.689	74.19
784.867	74.48
785.045	72.61
785.223	72.61
785.4	72.87
785.578	72.91
785.756	73.35
785.934	73.28
786.112	73.74
786.289	71.9
786.467	71.1
786.645	71.02
786.823	70.37
787	71.77
787.178	69.93
787.356	68.88
787.533	67.87
787.711	66.68
787.889	66.06
788.066	64.83
788.244	65.32
788.421	64.39
788.599	62.99
788.776	62.4
788.954	62.05
789.131	62.92
789.309	63.34
789.486	63.59
789.664	64.22
789.841	64.73
790.019	65.64
790.196	66.95
790.373	67.91
790.551	70.36
790.728	70.37
790.906	70.71
791.083	70.03
791.26	69.91
791.437	70.56
791.615	70.02
791.792	69.35
791.969	68.95
792.146	67.9
792.324	68.8
792.501	67.79
792.678	67.88
792.855	68.08
793.032	68.95
793.209	70.17
793.387	70.24
793.564	70.81
793.741	72.15
793.918	73.49
794.095	72.27
794.272	70.73
794.449	70.76
794.626	71.9
794.803	72.12
794.98	72.73
795.157	72.56
795.334	71.99
795.511	71.95
795.688	71.2
795.864	70.68
796.041	71.32
796.218	71.87
796.395	71.79
796.572	71
796.749	69.65
796.925	69.31
797.102	68.64
797.279	68.62
797.456	68.86
797.632	69.57
797.809	68.08
797.986	68.01
798.162	68.32
798.339	67.82
798.516	67.64
798.692	67.88
798.869	67.37
799.046	68.87
799.222	68.88
799.399	67.28
799.575	66.26
799.752	67.83
799.928	68.29
800.105	67.48
800.281	68.06
800.458	67.27
800.634	68.67
800.811	69.47
800.987	68.48
801.163	68.66
801.34	69.29
801.516	68.58
801.692	68.6
801.869	68.19
802.045	69.7
802.221	69.04
802.398	69.99
802.574	69.47
802.75	70.28
802.926	71.23
803.103	73.12
803.279	73.84
803.455	74.36
803.631	74.44
803.807	74.59
803.983	75.38
804.16	77.99
804.336	78.69
804.512	79.38
804.688	79.49
804.864	78.75
805.04	76.6
805.216	77.4
805.392	79.88
805.568	79.44
805.744	79.24
805.92	78.52
806.096	76.92
806.272	76.68
806.448	76.16
806.623	75.48
806.799	74.98
806.975	77.04
807.151	77.38
807.327	76.8
807.503	76.51
807.678	78.28
807.854	76.69
808.03	76.53
808.206	76.6
808.381	76.31
808.557	76.47
808.733	76.81
808.908	75.5
809.084	74.07
809.26	73.08
809.435	74.23
809.611	72.34
809.787	73.3
809.962	73.73
810.138	73.16
810.313	72.4
810.489	72.82
810.664	73.62
810.84	71.99
811.015	73.04
811.191	72.87
811.366	72.15
811.542	74.25
811.717	73.96
811.892	73.55
812.068	74.68
812.243	74.63
812.419	72.44
812.594	71.77
812.769	71.86
812.944	71.56
813.12	72.54
813.295	73.9
813.47	73.45
813.645	74.67
813.821	74.78
813.996	74.47
814.171	76.08
814.346	77.89
814.521	78.8
814.697	79.26
814.872	77.83
815.047	77.28
815.222	75.16
815.397	73.35
815.572	71.76
815.747	70.71
815.922	71.45
816.097	71.55
816.272	72.38
816.447	71.04
816.622	72.35
816.797	75.02
816.972	73.83
817.147	73.23
817.322	74.97
817.496	73.2
817.671	74.21
817.846	71.98
818.021	69.09
818.196	67.73
818.371	68.06
818.545	67
818.72	63.15
818.895	61.95
819.069	60.88
819.244	58.04
819.419	58.13
819.594	56.33
819.768	54.29
819.943	53.44
820.117	50.34
820.292	46.22
820.467	43.11
820.641	40.86
820.816	37.86
820.99	35.27
821.165	32.88
821.339	30.98
821.514	29.67
821.688	28.76
821.863	27.22
822.037	26.36
822.212	25.83
822.386	25.28
822.56	24.75
822.735	24.81
822.909	24.9
823.084	25.31
823.258	25.64
823.432	25.64
823.606	25.76
823.781	26.58
823.955	27.27
824.129	28.25
824.303	28.99
824.478	30.29
824.652	31.3
824.826	32.09
825	33.12
825.174	33.96
825.348	35.24
825.523	36.47
825.697	36.51
825.871	37.14
826.045	36.98
826.219	37.62
826.393	37.34
826.567	37.02
826.741	36.87
826.915	36.43
827.089	36.11
827.263	35.96
827.437	35.98
827.611	36.53
827.784	37.08
827.958	37.98
828.132	37.73
828.306	38.87
828.48	39.81
828.654	40.67
828.827	41.77
829.001	43.62
829.175	44.81
829.349	46.95
829.522	49.01
829.696	51.34
829.87	52.39
830.044	54.99
830.217	57.64
830.391	59.47
830.565	61.38
830.738	64.32
830.912	64.21
831.085	64.66
831.259	63.22
831.432	62.59
831.606	60.66
831.779	60.93
831.953	58
832.126	55.45
832.3	55.16
832.473	52.82
832.647	50.56
832.82	49.09
832.994	47.7
833.167	47.04
833.34	46.43
833.514	45.02
833.687	43.62
833.86	44.7
834.034	43.9
834.207	42.59
834.38	43.26
834.553	43.12
834.727	43.78
834.9	44.88
835.073	45.25
835.246	46.11
835.419	48.32
835.593	50.36
835.766	51.47
835.939	54.49
836.112	57.03
836.285	60.25
836.458	61.79
836.631	63.78
836.804	64.36
836.977	67.75
837.15	71.3
837.323	73.6
837.496	75.96
837.669	77.59
837.842	77.82
838.015	80.29
838.188	79.75
838.361	80.29
838.533	79.02
838.706	81.7
838.879	81.16
839.052	80.23
839.225	80.2
839.398	76.79
839.57	76.6
839.743	77.32
839.916	74.89
840.088	75.91
840.261	79.55
840.434	82.77
840.607	82.54
840.779	83.56
840.952	84.96
841.124	84.89
841.297	86.59
841.47	86.87
841.642	88.39
841.815	90.67
841.987	92.61
842.16	91.51
842.332	93.59
842.505	94.4
842.677	93.71
842.85	92.24
843.022	93.11
843.194	97.25
843.367	102.55
843.539	103.18
843.712	103.4
843.884	103.75
844.056	110.07
844.229	108.96
844.401	109.35
844.573	113.32
844.745	117.23
844.918	118.9
845.09	121.87
845.262	123.92
845.434	129.32
845.606	134.8
845.779	139.29
845.951	134.85
846.123	136.04
846.295	142.85
846.467	141.86
846.639	140
846.811	143.25
846.983	139.12
847.155	139.84
847.327	136.8
847.499	137.99
847.671	134.82
847.843	140.34
848.015	140.95
848.187	141.19
848.359	140.92
848.531	138.84
848.703	135.89
848.875	143.42
849.047	138.08
849.218	135.07
849.39	133.97
849.562	133.43
849.734	129.42
849.905	131.25
850.077	130.35
850.249	132.31
850.421	138
850.592	140.5
850.764	139.06
850.936	144.58
851.107	149.24
851.279	149.91
851.451	153.27
851.622	151.81
851.794	154.59
851.965	154.21
852.137	155.08
852.308	161.43
852.48	158.95
852.651	153.3
852.823	147.02
852.994	141.56
853.166	142.07
853.337	134.9
853.509	136.38
853.68	128.62
853.851	124.93
854.023	123.82
854.194	120.56
854.365	126.13
854.537	129.12
854.708	126.32
854.879	128.16
855.05	130.1
855.222	132.03
855.393	131.18
855.564	135.09
855.735	137
855.906	138.26
856.078	133.57
856.249	123.01
856.42	120.8
856.591	123.69
856.762	120.93
856.933	117.93
857.104	122.49
857.275	125.04
857.446	128.65
857.617	130.87
857.788	128.22
857.959	129.59
858.13	139.37
858.301	147.94
858.472	145.57
858.643	156.09
858.814	158.91
858.985	151.94
859.155	156.08
859.326	156.73
859.497	154.78
859.668	163.53
859.839	177.08
860.009	180.76
860.18	172.72
860.351	173.18
860.522	178.84
860.692	170.59
860.863	177.54
861.034	172.76
861.204	171.31
861.375	177.56
861.546	165.13
861.716	154.93
861.887	151.31
862.057	152.58
862.228	152.09
862.398	151.1
862.569	156.35
862.739	151.19
862.91	144.95
863.08	143.53
863.251	140.59
863.421	139.34
863.592	137.78
863.762	132.64
863.932	132.58
864.103	130.08
864.273	128.12
864.443	128.83
864.614	128.5
864.784	126.38
864.954	127.39
865.125	131.54
865.295	133.98
865.465	133.51
865.635	136.29
865.805	142.49
865.976	152.31
866.146	155.06
866.316	155.47
866.486	155.97
866.656	172.95
866.826	176.46
866.996	173.11
867.166	174.41
867.336	172.42
867.506	177.44
867.676	166.22
867.846	157.96
868.016	157.46
868.186	159.8
868.356	161.64
868.526	156.69
868.696	156.38
868.866	152.12
869.036	150.21
869.206	148
869.376	138.61
869.545	142.01
869.715	146.63
869.885	132.8
870.055	130.12
870.224	135.14
870.394	130.6
870.564	128.6
870.734	126.62
870.903	130.59
871.073	133.64
871.243	139.92
871.412	132.08
871.582	131.67
871.751	138.19
871.921	139
872.091	133.54
872.26	131.8
872.43	131.44
872.599	133.67
872.769	130.16
872.938	129.42
873.108	128.8
873.277	132.77
873.446	123.83
873.616	124.4
873.785	122.77
873.955	126.49
874.124	133.01
874.293	129.15
874.463	127.67
874.632	128.42
874.801	127.15
874.971	130.24
875.14	136.83
875.309	142.83
875.478	143.7
875.647	139.27
875.817	137.67
875.986	132.82
876.155	134.08
876.324	142.4
876.493	148.26
876.662	145.71
876.831	138.78
877	135.21
877.17	134.38
877.339	135.04
877.508	135.41
877.677	140.67
877.846	134.18
878.015	136.94
878.184	126.23
878.352	124.11
878.521	119.94
878.69	117.88
878.859	117.21
879.028	118.9
879.197	114.86
879.366	112.82
879.534	102.52
879.703	100.84
879.872	94.71
880.041	89.69
880.21	81.94
880.378	77.2
880.547	71.94
880.716	64.08
880.884	57.45
881.053	53.81
881.222	50.59
881.39	47.35
881.559	44.04
881.727	41.13
881.896	40.07
882.065	38.7
882.233	38.09
882.402	37.53
882.57	37.17
882.739	37.42
882.907	36.27
883.076	36.25
883.244	36.69
883.412	39.18
883.581	39.92
883.749	41.47
883.918	43.33
884.086	44.56
884.254	46.53
884.423	49.47
884.591	51.92
884.759	55.74
884.927	60.11
885.096	64.69
885.264	67.47
885.432	74.07
885.6	78.04
885.769	82.66
885.937	85.64
886.105	88.46
886.273	91.02
886.441	91.9
886.609	94.51
886.777	96.82
886.945	100.92
887.113	101.55
887.281	105.5
887.449	105.79
887.617	107.72
887.785	111.51
887.953	111.26
888.121	117.32
888.289	124.72
888.457	121.55
888.625	118.2
888.793	121.33
888.961	116.75
889.129	114.44
889.296	116.82
889.464	114.67
889.632	113.58
889.8	118.57
889.967	118.12
890.135	111.61
