Data from 2938709__Reflection_02.txt Node
Date: Tue Mar 17 19:37:46 EDT 2015
User: robert
Spectrometer: USB4E03002
Autoset integration time: false
Trigger mode: 4
Integration Time (sec): 1.000000E-1
Scans to average: 10
Electric dark correction enabled: false
Nonlinearity correction enabled: false
Boxcar width: 5
Stray light correction enabled: false
XAxis mode: Wavelengths
Stop averaging: false
Number of Pixels in Spectrum: 3648
>>>>>Begin Spectral Data<<<<<
177.575	130.79
177.794	107.08
178.014	125.26
178.233	138.85
178.452	113.15
178.672	113.25
178.891	145.02
179.11	127.24
179.33	120
179.549	176.54
179.768	234.16
179.987	312.38
180.207	-2904.35
180.426	433.54
180.645	242.51
180.864	183.9
181.084	175.34
181.303	135.96
181.522	179.57
181.741	175.15
181.96	163.03
182.179	113.47
182.398	96.28
182.618	73.52
182.837	106.43
183.056	118.82
183.275	160.53
183.494	180.52
183.713	166.57
183.932	122.86
184.151	199.32
184.37	171.22
184.589	172.51
184.808	205.46
185.027	241.87
185.246	182.06
185.465	187.42
185.684	153.33
185.903	121.18
186.122	168.46
186.341	177.27
186.56	159.63
186.779	247.45
186.998	302.83
187.216	308.05
187.435	298.41
187.654	231.71
187.873	284.01
188.092	331.86
188.311	1222.37
188.53	592.05
188.748	472.04
188.967	268.27
189.186	222.15
189.405	195.18
189.623	174.63
189.842	171.29
190.061	253.66
190.28	160.7
190.498	272.51
190.717	140.82
190.936	126.78
191.154	275.76
191.373	-313.56
191.592	237.96
191.81	712.5
192.029	772.73
192.248	10233.33
192.466	-321.05
192.685	-52.89
192.904	-144.44
193.122	-413.85
193.341	-978.57
193.559	6166.67
193.778	718.52
193.996	-328.3
194.215	-213.58
194.433	-33.12
194.652	-290.63
194.87	546
195.089	401.87
195.307	597.47
195.526	987.1
195.744	1307.69
195.963	354.84
196.181	478.95
196.399	352
196.618	1054.55
196.836	390.91
197.055	192.08
197.273	143.01
197.491	145.61
197.71	161.95
197.928	203.49
198.146	193.35
198.365	187
198.583	225.53
198.801	225.33
199.019	183.95
199.238	200.15
199.456	220.4
199.674	245.77
199.892	229.53
200.111	212.36
200.329	243.43
200.547	330.99
200.765	3326.32
200.983	1603.03
201.202	-371.43
201.42	-131.87
201.638	-52.02
201.856	-29.33
202.074	11.81
202.292	-19.26
202.51	-18.44
202.728	1.03
202.946	-23.23
203.165	591.67
203.383	5080
203.601	-193.75
203.819	-196.55
204.037	1048.65
204.255	-1135.9
204.473	1248
204.691	1302.17
204.909	547.75
205.127	417.47
205.345	699.01
205.562	-1411.11
205.78	467.94
205.998	219.4
206.216	153.09
206.434	177.32
206.652	159.5
206.87	133.62
207.088	153.35
207.306	142.23
207.523	130.85
207.741	114.26
207.959	93.53
208.177	120.71
208.395	92.88
208.612	95.7
208.83	87.66
209.048	58.4
209.266	67.61
209.483	85.37
209.701	105.9
209.919	141.09
210.136	66.02
210.354	-47.73
210.572	-18.08
210.79	-927.27
211.007	221.5
211.225	267.05
211.442	164.86
211.66	98.23
211.878	98.44
212.095	108.12
212.313	137.34
212.53	152.61
212.748	173.05
212.966	155.43
213.183	119.02
213.401	103.04
213.618	88.2
213.836	86.75
214.053	138.74
214.271	138.86
214.488	91.37
214.705	72.51
214.923	78.75
215.14	89.61
215.358	100.44
215.575	99.39
215.793	125.28
216.01	106.85
216.227	145.61
216.445	105.94
216.662	77.35
216.879	126.68
217.097	96.19
217.314	99.72
217.531	27.84
217.749	37.29
217.966	34.4
218.183	24.34
218.4	20.83
218.618	13.66
218.835	-8.72
219.052	7.06
219.269	5.39
219.487	13.94
219.704	23.35
219.921	20.47
220.138	18.8
220.355	13.45
220.572	25.41
220.79	37.2
221.007	25.84
221.224	38.27
221.441	21.62
221.658	12.91
221.875	13.63
222.092	13.09
222.309	17.67
222.526	17.04
222.743	20.03
222.96	14.02
223.177	12.21
223.394	14.55
223.611	14.41
223.828	24.18
224.045	27.19
224.262	25.43
224.479	23.65
224.696	30.67
224.913	31.89
225.13	30.34
225.347	32.42
225.564	27.87
225.781	25.92
225.997	25.79
226.214	21.47
226.431	16.07
226.648	9.48
226.865	9.01
227.082	4.84
227.298	2.1
227.515	0.13
227.732	1.23
227.949	2.73
228.165	2.49
228.382	2.99
228.599	2.5
228.816	4.59
229.032	5.34
229.249	5.23
229.466	5.2
229.682	5.81
229.899	6.55
230.116	6.37
230.332	5.45
230.549	5.72
230.765	4.35
230.982	4.19
231.199	2.76
231.415	2.89
231.632	3.95
231.848	3.82
232.065	3.53
232.281	4.46
232.498	3.86
232.714	5.8
232.931	6.86
233.147	6.83
233.364	6.59
233.58	8.84
233.797	10.1
234.013	7.83
234.23	9.48
234.446	9.93
234.662	9.81
234.879	9.57
235.095	8.8
235.312	8.09
235.528	10.96
235.744	11.05
235.961	8.12
236.177	7.78
236.393	9.32
236.61	7.67
236.826	6.9
237.042	8.06
237.258	8.26
237.475	5.9
237.691	5.99
237.907	4.96
238.123	5.8
238.339	6.44
238.556	5.97
238.772	5.04
238.988	6.39
239.204	6.28
239.42	6.9
239.636	7.17
239.853	7.86
240.069	7.06
240.285	5.21
240.501	4.84
240.717	4.62
240.933	5.74
241.149	5.57
241.365	4.76
241.581	4.87
241.797	4.34
242.013	3.5
242.229	3.5
242.445	3.29
242.661	3.73
242.877	3.39
243.093	3.57
243.309	2.34
243.525	2.08
243.741	2.35
243.957	2.38
244.173	2.18
244.388	3.49
244.604	3.81
244.82	4.44
245.036	4.09
245.252	4.53
245.468	4.43
245.683	4.58
245.899	4.33
246.115	4.56
246.331	4.4
246.547	4.26
246.762	3.25
246.978	3.32
247.194	3.4
247.409	3.22
247.625	3.14
247.841	2.99
248.057	3.14
248.272	3.32
248.488	2.76
248.703	2.76
248.919	2.78
249.135	3.86
249.35	3.85
249.566	3.18
249.782	3.51
249.997	3.3
250.213	3.32
250.428	3.31
250.644	3.38
250.859	3.88
251.075	4.11
251.29	3.56
251.506	2.54
251.721	2.34
251.937	2.98
252.152	3.18
252.368	3.46
252.583	3.91
252.798	3.96
253.014	3.25
253.229	3.18
253.445	2.57
253.66	2.41
253.875	2.52
254.091	2.81
254.306	2.98
254.521	3.2
254.737	3.21
254.952	2.96
255.167	1.93
255.383	3.44
255.598	4.24
255.813	4.36
256.028	4.37
256.244	5.48
256.459	3.87
256.674	3.14
256.889	2.62
257.104	1.94
257.32	1.95
257.535	2.66
257.75	2.44
257.965	2.46
258.18	2.72
258.395	2.91
258.61	2.39
258.826	2.84
259.041	2.96
259.256	2.98
259.471	3.13
259.686	2.91
259.901	2.76
260.116	2.49
260.331	2.41
260.546	2.22
260.761	2.26
260.976	2.17
261.191	2.23
261.406	2.33
261.621	2.49
261.836	2.71
262.05	2.47
262.265	2.02
262.48	2.16
262.695	2.44
262.91	2.83
263.125	2.79
263.34	2.83
263.555	3.5
263.769	3.08
263.984	3.18
264.199	3
264.414	3.22
264.629	4.23
264.843	3.88
265.058	3.51
265.273	3.34
265.488	3.21
265.702	3.51
265.917	2.98
266.132	3.43
266.346	2.48
266.561	2.32
266.776	2.74
266.99	2.73
267.205	3.12
267.42	2.46
267.634	3
267.849	2.71
268.063	2.65
268.278	1.79
268.492	1.12
268.707	1.62
268.922	1.21
269.136	1.03
269.351	0.88
269.565	0.69
269.78	0.79
269.994	-0.09
270.209	0.17
270.423	0.08
270.637	0.56
270.852	1.06
271.066	1.31
271.281	1.64
271.495	1.43
271.709	1.44
271.924	1.74
272.138	2.14
272.353	2.27
272.567	2.32
272.781	2.21
272.996	2.14
273.21	2.5
273.424	2.4
273.638	2.24
273.853	2.54
274.067	2.5
274.281	2.35
274.495	2.12
274.71	2.23
274.924	2.02
275.138	2.07
275.352	2.64
275.566	2.24
275.781	1.87
275.995	1.99
276.209	1.69
276.423	1.24
276.637	0.96
276.851	1.04
277.065	1.08
277.279	1.48
277.493	1.37
277.707	1.07
277.921	0.74
278.135	1.07
278.349	0.83
278.563	1.13
278.777	1.45
278.991	1.72
279.205	1.83
279.419	1.55
279.633	1.23
279.847	1.23
280.061	1.11
280.275	1.3
280.489	1.23
280.703	1.95
280.917	2.04
281.131	2.05
281.344	2.25
281.558	1.71
281.772	2.02
281.986	2.06
282.2	1.93
282.414	2.09
282.627	1.98
282.841	1.73
283.055	1.3
283.269	0.9
283.482	1.18
283.696	0.97
283.91	1.55
284.123	1.41
284.337	1.65
284.551	2.22
284.764	2.1
284.978	2.03
285.192	2.34
285.405	2.45
285.619	2.55
285.833	2.31
286.046	2.47
286.26	2.59
286.473	2.75
286.687	2.56
286.9	2.4
287.114	2.36
287.327	2.62
287.541	2.34
287.754	2.15
287.968	2.29
288.181	2.34
288.395	2.3
288.608	2.08
288.822	2
289.035	2.16
289.248	2.14
289.462	2.67
289.675	2.53
289.889	3.05
290.102	2.98
290.315	3.05
290.529	3.26
290.742	2.98
290.955	3
291.169	2.85
291.382	3
291.595	2.8
291.808	2.47
292.022	2.43
292.235	2.22
292.448	2.2
292.661	2.26
292.875	1.92
293.088	2.24
293.301	2.21
293.514	2
293.727	1.33
293.94	1.76
294.153	1.6
294.367	1.9
294.58	1.88
294.793	2.31
295.006	2.45
295.219	2.63
295.432	2.29
295.645	2.29
295.858	2.57
296.071	2.95
296.284	2.92
296.497	2.88
296.71	2.73
296.923	2.52
297.136	2.56
297.349	2.44
297.562	2.38
297.775	2.87
297.988	3
298.201	3.2
298.414	3.29
298.626	3.32
298.839	3.28
299.052	3.21
299.265	3.3
299.478	3.08
299.691	3.46
299.903	3.37
300.116	3.14
300.329	3.04
300.542	2.84
300.755	2.81
300.967	2.32
301.18	2.45
301.393	2.72
301.605	2.61
301.818	2.61
302.031	2.1
302.243	2.29
302.456	2.1
302.669	2.11
302.881	1.87
303.094	1.94
303.307	2
303.519	2.19
303.732	2.01
303.944	2.51
304.157	2.86
304.37	2.84
304.582	3.08
304.795	3.4
305.007	3.4
305.22	3.29
305.432	2.83
305.645	3.24
305.857	3.24
306.069	3.36
306.282	3.02
306.494	2.67
306.707	3.06
306.919	2.7
307.132	2.62
307.344	2.56
307.556	3.07
307.769	3.6
307.981	3.44
308.193	3.64
308.406	3.77
308.618	4.12
308.83	4.13
309.043	3.9
309.255	4.13
309.467	4.13
309.679	4.18
309.892	4.35
310.104	4.33
310.316	4.28
310.528	4.12
310.74	4.16
310.953	4.07
311.165	4.12
311.377	4.24
311.589	4.11
311.801	3.86
312.013	3.7
312.225	3.67
312.437	3.42
312.649	3.55
312.862	3.42
313.074	2.98
313.286	3.02
313.498	2.84
313.71	2.78
313.922	2.97
314.134	3.14
314.346	3.45
314.558	3.1
314.77	3.54
314.982	3.27
315.193	3.56
315.405	3.82
315.617	3.78
315.829	3.93
316.041	3.56
316.253	3.89
316.465	3.73
316.677	3.95
316.888	3.84
317.1	3.94
317.312	4.15
317.524	3.92
317.736	3.79
317.947	3.89
318.159	4.49
318.371	5.15
318.583	4.67
318.794	5.01
319.006	4.59
319.218	4.45
319.43	4.74
319.641	4.87
319.853	5.22
320.064	5.92
320.276	5.77
320.488	5.22
320.699	4.96
320.911	5.33
321.123	5.54
321.334	5.73
321.546	6.2
321.757	5.38
321.969	5.84
322.18	5.82
322.392	5.31
322.603	5.25
322.815	5.34
323.026	5.52
323.238	5.36
323.449	5.13
323.661	5.2
323.872	5.54
324.083	5.86
324.295	5.79
324.506	5.83
324.718	6.01
324.929	6.1
325.14	6.47
325.352	7.03
325.563	7.33
325.774	7.52
325.986	7.58
326.197	7.66
326.408	7.98
326.62	8.08
326.831	8.1
327.042	8.26
327.253	8.45
327.464	8.51
327.676	8.19
327.887	8.48
328.098	8.55
328.309	8.91
328.52	8.95
328.732	9.08
328.943	9.23
329.154	9.71
329.365	9.96
329.576	10.08
329.787	9.9
329.998	10.19
330.209	10
330.42	9.97
330.631	10.19
330.842	10.65
331.053	10.53
331.264	10.6
331.475	10.14
331.686	10.08
331.897	10.14
332.108	10.87
332.319	11.03
332.53	10.77
332.741	10.87
332.952	10.74
333.163	10.75
333.374	10.94
333.585	11.16
333.795	11.29
334.006	11.27
334.217	11.86
334.428	11.58
334.639	11.62
334.849	12.15
335.06	12.52
335.271	12.43
335.482	12.53
335.692	12.91
335.903	12.77
336.114	13.04
336.325	12.97
336.535	12.92
336.746	12.87
336.957	12.43
337.167	12.16
337.378	12.34
337.589	12.49
337.799	12.36
338.01	12.47
338.22	12.4
338.431	12.45
338.642	12.81
338.852	12.57
339.063	12.97
339.273	13.44
339.484	13.63
339.694	13.14
339.905	13.13
340.115	13.19
340.326	12.77
340.536	12.97
340.746	12.78
340.957	12.67
341.167	12.87
341.378	12.54
341.588	12.23
341.799	12.22
342.009	12.24
342.219	12.01
342.43	11.97
342.64	11.76
342.85	11.74
343.061	11.97
343.271	11.96
343.481	11.86
343.691	11.68
343.902	11.68
344.112	11.9
344.322	11.98
344.532	12.2
344.743	12.05
344.953	12.04
345.163	11.71
345.373	11.33
345.583	11.41
345.793	11.45
346.004	11.73
346.214	11.88
346.424	11.29
346.634	11.76
346.844	11.88
347.054	11.78
347.264	12.16
347.474	12.32
347.684	12.76
347.894	12.62
348.104	12.74
348.314	12.51
348.524	12.44
348.734	12.9
348.944	12.57
349.154	12.33
349.364	12.58
349.574	12.32
349.784	12.44
349.994	12.3
350.204	12.32
350.413	12.1
350.623	12
350.833	12.09
351.043	11.99
351.253	11.82
351.463	12.02
351.672	11.91
351.882	12.18
352.092	11.79
352.302	11.8
352.511	11.99
352.721	11.66
352.931	11.61
353.141	11.61
353.35	11.68
353.56	11.83
353.77	11.25
353.979	11.23
354.189	11.3
354.399	11.57
354.608	11.68
354.818	11.62
355.027	11.95
355.237	12.24
355.447	12.2
355.656	11.89
355.866	11.68
356.075	11.89
356.285	11.95
356.494	11.56
356.704	11.6
356.913	11.47
357.123	11.43
357.332	11.15
357.542	10.94
357.751	10.99
357.96	11.11
358.17	11.22
358.379	11.36
358.589	11.39
358.798	11.51
359.007	11.65
359.217	11.65
359.426	11.41
359.635	11.72
359.845	12.02
360.054	11.99
360.263	11.81
360.472	11.72
360.682	11.89
360.891	11.69
361.1	11.65
361.309	11.4
361.519	11.19
361.728	11.21
361.937	10.98
362.146	10.6
362.355	10.42
362.564	10.61
362.774	10.56
362.983	10.54
363.192	10.51
363.401	10.57
363.61	10.43
363.819	10.73
364.028	10.73
364.237	10.73
364.446	10.87
364.655	10.81
364.864	10.77
365.073	10.61
365.282	10.28
365.491	10.27
365.7	10.15
365.909	10.23
366.118	10.17
366.327	10.24
366.536	10.43
366.745	10.55
366.954	10.74
367.162	10.67
367.371	10.9
367.58	11.04
367.789	10.99
367.998	10.95
368.207	10.86
368.415	11
368.624	10.98
368.833	10.92
369.042	10.97
369.25	10.94
369.459	11.19
369.668	11.12
369.877	11.2
370.085	11.27
370.294	11.54
370.503	11.6
370.711	11.37
370.92	11.51
371.129	11.38
371.337	11.12
371.546	11.02
371.754	10.91
371.963	10.98
372.171	10.77
372.38	10.88
372.589	10.57
372.797	10.54
373.006	10.25
373.214	10.02
373.423	10.09
373.631	10.09
373.84	9.97
374.048	9.91
374.256	9.93
374.465	9.97
374.673	9.85
374.882	9.82
375.09	9.73
375.298	9.9
375.507	9.7
375.715	9.65
375.923	9.79
376.132	10.09
376.34	9.84
376.548	9.83
376.757	9.74
376.965	9.74
377.173	9.64
377.381	9.85
377.59	9.94
377.798	10.03
378.006	10.09
378.214	10.15
378.423	10.07
378.631	10.27
378.839	10.12
379.047	10.2
379.255	10.28
379.463	10.38
379.671	10.2
379.879	9.99
380.088	9.97
380.296	9.94
380.504	9.71
380.712	9.37
380.92	9.19
381.128	9.21
381.336	9.18
381.544	9.07
381.752	8.87
381.96	8.93
382.168	9.24
382.376	9.32
382.584	9.15
382.791	9.29
382.999	9.52
383.207	9.58
383.415	9.87
383.623	9.82
383.831	9.78
384.039	9.99
384.247	10.08
384.454	9.94
384.662	9.74
384.87	10.01
385.078	9.81
385.285	9.78
385.493	9.63
385.701	9.48
385.909	9.54
386.116	9.54
386.324	9.7
386.532	9.62
386.739	9.45
386.947	9.51
387.155	9.29
387.362	9.33
387.57	9.04
387.778	9.17
387.985	9.02
388.193	8.92
388.4	9.03
388.608	8.94
388.816	8.62
389.023	8.89
389.231	8.95
389.438	9
389.646	9.12
389.853	9.51
390.061	9.45
390.268	9.41
390.475	9.47
390.683	9.22
390.89	9.1
391.098	9.47
391.305	9.35
391.512	9.4
391.72	9.46
391.927	9.49
392.135	9.37
392.342	9.43
392.549	9.44
392.756	9.37
392.964	9.36
393.171	9.25
393.378	9.02
393.586	8.93
393.793	8.79
394	8.6
394.207	8.66
394.414	8.63
394.622	8.39
394.829	8.36
395.036	8.15
395.243	8.19
395.45	8.14
395.657	8.33
395.864	8.42
396.072	8.47
396.279	8.49
396.486	8.18
396.693	7.98
396.9	8.19
397.107	7.99
397.314	8.14
397.521	8.24
397.728	8.19
397.935	7.82
398.142	7.67
398.349	7.76
398.556	7.8
398.763	8.05
398.97	8.1
399.177	8.01
399.383	8.11
399.59	8.16
399.797	7.96
400.004	8.03
400.211	8.34
400.418	8.43
400.625	8.27
400.831	8.23
401.038	8.03
401.245	8.18
401.452	8.19
401.658	8.28
401.865	8.34
402.072	8.48
402.279	8.59
402.485	8.34
402.692	8.44
402.899	8.48
403.105	8.39
403.312	8.35
403.519	8.33
403.725	8.26
403.932	8.18
404.138	8.17
404.345	8.1
404.552	8
404.758	8.15
404.965	8.11
405.171	8.17
405.378	8.21
405.584	8.23
405.791	8.23
405.997	8.38
406.204	8.52
406.41	8.49
406.617	8.57
406.823	8.67
407.029	8.58
407.236	8.44
407.442	8.51
407.649	8.52
407.855	8.4
408.061	8.27
408.268	8.19
408.474	8.12
408.68	8.04
408.887	8
409.093	7.94
409.299	8.14
409.505	8.13
409.712	7.94
409.918	7.78
410.124	7.98
410.33	8.06
410.537	8.05
410.743	8.24
410.949	8.36
411.155	8.18
411.361	8.02
411.567	7.91
411.773	7.87
411.98	7.95
412.186	8.16
412.392	8.09
412.598	8.07
412.804	8.11
413.01	7.9
413.216	7.92
413.422	7.98
413.628	8.26
413.834	8.25
414.04	8.35
414.246	8.38
414.452	8.3
414.658	8.24
414.864	8.17
415.07	8.26
415.275	8.29
415.481	8.24
415.687	8.37
415.893	8.32
416.099	8.27
416.305	8.28
416.511	8.28
416.716	8.4
416.922	8.4
417.128	8.46
417.334	8.38
417.539	8.3
417.745	8.2
417.951	8.12
418.157	8.1
418.362	8.08
418.568	7.97
418.774	7.92
418.979	7.91
419.185	7.91
419.391	7.91
419.596	7.96
419.802	7.95
420.008	7.99
420.213	8.73
420.419	8.69
420.624	8.72
420.83	8.67
421.035	8.69
421.241	8.65
421.446	8.72
421.652	8.74
421.857	8.7
422.063	8.82
422.268	8.85
422.474	8.24
422.679	8.25
422.885	8.19
423.09	8.26
423.295	8.32
423.501	8.26
423.706	8.24
423.911	8.19
424.117	8.13
424.322	7.96
424.527	7.99
424.733	7.9
424.938	7.89
425.143	7.96
425.349	7.97
425.554	7.87
425.759	7.93
425.964	7.93
426.169	7.99
426.375	7.97
426.58	8.11
426.785	8.06
426.99	8.13
427.195	8.09
427.4	8.04
427.605	8.07
427.811	8.2
428.016	8.06
428.221	7.99
428.426	7.97
428.631	8.06
428.836	8.02
429.041	8.04
429.246	8.09
429.451	8.23
429.656	8.26
429.861	8.3
430.066	8.26
430.271	8.45
430.476	8.42
430.681	8.43
430.886	8.29
431.09	8.26
431.295	8.23
431.5	8.14
431.705	8.1
431.91	8.06
432.115	8
432.32	7.97
432.524	7.93
432.729	7.95
432.934	7.89
433.139	8.03
433.343	8.07
433.548	7.99
433.753	8.01
433.958	7.92
434.162	8.02
434.367	8
434.572	8.04
434.776	8.08
434.981	8.16
435.186	8.22
435.39	8.23
435.595	8.26
435.799	8.36
436.004	8.47
436.209	8.5
436.413	8.54
436.618	8.63
436.822	8.58
437.027	8.42
437.231	8.44
437.436	8.35
437.64	8.32
437.845	8.27
438.049	8.26
438.253	8.21
438.458	8.34
438.662	8.29
438.867	8.22
439.071	8.22
439.275	8.26
439.48	8.21
439.684	8.23
439.888	8.21
440.093	8.19
440.297	8.15
440.501	8.09
440.706	8.08
440.91	8.13
441.114	8.18
441.318	8.2
441.523	8.26
441.727	8.28
441.931	8.34
442.135	8.43
442.339	8.54
442.543	8.6
442.748	8.69
442.952	8.62
443.156	8.54
443.36	8.51
443.564	8.46
443.768	8.46
443.972	8.46
444.176	8.48
444.38	8.42
444.584	8.37
444.788	8.36
444.992	8.29
445.196	8.32
445.4	8.38
445.604	8.4
445.808	8.47
446.012	8.45
446.216	8.48
446.42	8.46
446.624	8.52
446.828	8.49
447.032	8.49
447.235	8.47
447.439	8.52
447.643	8.45
447.847	8.36
448.051	8.3
448.254	8.25
448.458	8.16
448.662	8.14
448.866	8.14
449.069	8.13
449.273	8.11
449.477	8.15
449.681	8.08
449.884	8.12
450.088	8.19
450.292	8.23
450.495	8.25
450.699	8.32
450.902	8.32
451.106	8.3
451.31	8.31
451.513	8.23
451.717	8.19
451.92	8.26
452.124	8.17
452.327	8.15
452.531	8.1
452.734	8.15
452.938	8.06
453.141	7.99
453.345	7.88
453.548	7.86
453.752	7.85
453.955	7.88
454.158	7.79
454.362	7.81
454.565	7.83
454.769	7.88
454.972	7.75
455.175	7.9
455.379	7.97
455.582	8.11
455.785	8.18
455.988	8.29
456.192	8.32
456.395	8.32
456.598	8.39
456.801	8.38
457.005	8.43
457.208	8.58
457.411	8.53
457.614	8.51
457.817	8.44
458.021	8.39
458.224	8.28
458.427	8.24
458.63	8.2
458.833	8.16
459.036	8.16
459.239	8.23
459.442	8.17
459.645	8.21
459.848	8.18
460.051	8.16
460.254	8.23
460.457	8.28
460.66	8.38
460.863	8.4
461.066	8.37
461.269	8.39
461.472	8.28
461.675	8.36
461.878	8.26
462.081	8.27
462.284	8.32
462.486	8.22
462.689	8.26
462.892	8.21
463.095	8.25
463.298	8.26
463.5	8.3
463.703	8.33
463.906	8.27
464.109	8.37
464.311	8.46
464.514	8.48
464.717	8.56
464.92	8.43
465.122	8.43
465.325	8.43
465.528	8.52
465.73	8.61
465.933	8.63
466.135	8.58
466.338	8.45
466.541	8.4
466.743	8.3
466.946	8.37
467.148	8.48
467.351	8.42
467.553	8.44
467.756	8.4
467.958	8.27
468.161	8.25
468.363	8.29
468.566	8.39
468.768	8.37
468.971	8.47
469.173	8.37
469.375	8.38
469.578	8.41
469.78	8.38
469.983	8.42
470.185	8.53
470.387	8.54
470.59	8.48
470.792	8.38
470.994	8.4
471.196	8.39
471.399	8.45
471.601	8.41
471.803	8.44
472.005	8.42
472.208	8.37
472.41	8.32
472.612	8.35
472.814	8.43
473.016	8.48
473.218	8.48
473.421	8.58
473.623	8.58
473.825	8.66
474.027	8.62
474.229	8.63
474.431	8.68
474.633	8.68
474.835	8.7
475.037	8.73
475.239	8.84
475.441	8.83
475.643	8.72
475.845	8.63
476.047	8.6
476.249	8.64
476.451	8.65
476.653	8.55
476.855	8.49
477.057	8.49
477.258	8.48
477.46	8.39
477.662	8.33
477.864	8.3
478.066	8.38
478.268	8.38
478.469	8.38
478.671	8.37
478.873	8.41
479.075	8.5
479.276	8.5
479.478	8.47
479.68	8.53
479.882	8.61
480.083	8.64
480.285	8.54
480.487	8.54
480.688	8.53
480.89	8.57
481.091	8.63
481.293	8.59
481.495	8.54
481.696	8.5
481.898	8.43
482.099	8.4
482.301	8.36
482.502	8.35
482.704	8.33
482.905	8.31
483.107	8.3
483.308	8.3
483.51	8.3
483.711	8.3
483.913	8.32
484.114	8.33
484.315	8.36
484.517	8.41
484.718	8.47
484.92	8.48
485.121	8.52
485.322	8.56
485.524	8.57
485.725	8.59
485.926	8.62
486.127	8.62
486.329	8.65
486.53	8.64
486.731	8.63
486.932	8.6
487.134	8.58
487.335	8.56
487.536	8.54
487.737	8.57
487.938	8.55
488.139	8.57
488.341	8.61
488.542	8.62
488.743	8.68
488.944	8.68
489.145	8.73
489.346	8.75
489.547	8.76
489.748	8.74
489.949	8.73
490.15	8.79
490.351	8.77
490.552	8.74
490.753	8.7
490.954	8.66
491.155	8.68
491.356	8.66
491.557	8.68
491.758	8.73
491.959	8.78
492.159	8.75
492.36	8.74
492.561	8.74
492.762	8.78
492.963	8.8
493.164	8.85
493.364	8.86
493.565	8.85
493.766	8.86
493.967	8.84
494.167	8.92
494.368	8.92
494.569	8.87
494.769	8.98
494.97	8.95
495.171	9
495.371	8.95
495.572	8.96
495.773	8.99
495.973	9.05
496.174	9.06
496.375	8.96
496.575	9.1
496.776	9.17
496.976	9.11
497.177	9.11
497.377	9.15
497.578	9.18
497.778	9.17
497.979	9.21
498.179	9.3
498.38	9.39
498.58	9.4
498.78	9.37
498.981	9.42
499.181	9.51
499.382	9.55
499.582	9.55
499.782	9.51
499.983	9.6
500.183	9.6
500.383	9.56
500.584	9.49
500.784	9.56
500.984	9.61
501.184	9.63
501.385	9.61
501.585	9.63
501.785	9.63
501.985	9.7
502.185	9.73
502.386	9.79
502.586	9.81
502.786	9.85
502.986	9.82
503.186	9.77
503.386	9.75
503.586	9.76
503.786	9.84
503.987	9.94
504.187	9.93
504.387	9.98
504.587	10.01
504.787	10.06
504.987	10.09
505.187	10.16
505.387	10.32
505.587	10.37
505.786	10.45
505.986	10.55
506.186	10.54
506.386	10.64
506.586	10.68
506.786	10.72
506.986	10.73
507.186	10.8
507.386	10.84
507.585	10.85
507.785	10.85
507.985	10.94
508.185	10.91
508.384	10.92
508.584	11.01
508.784	11.08
508.984	11.05
509.183	11.16
509.383	11.22
509.583	11.38
509.782	11.42
509.982	11.56
510.182	11.59
510.381	11.68
510.581	11.79
510.781	11.75
510.98	11.76
511.18	11.93
511.379	11.95
511.579	11.98
511.778	11.98
511.978	12.05
512.177	12.06
512.377	12.03
512.576	12.06
512.776	12.09
512.975	12.21
513.175	12.21
513.374	12.27
513.573	12.31
513.773	12.34
513.972	12.28
514.172	12.36
514.371	12.44
514.57	12.53
514.77	12.61
514.969	12.7
515.168	12.8
515.367	12.89
515.567	12.87
515.766	12.97
515.965	12.99
516.164	13.08
516.364	13.05
516.563	13.07
516.762	13.28
516.961	13.33
517.16	13.41
517.359	13.41
517.559	13.52
517.758	13.64
517.957	13.71
518.156	13.8
518.355	13.89
518.554	13.95
518.753	14.02
518.952	13.97
519.151	14.07
519.35	14.12
519.549	14.22
519.748	14.27
519.947	14.32
520.146	14.34
520.345	14.44
520.544	14.51
520.743	14.6
520.942	14.73
521.141	14.89
521.339	14.97
521.538	14.95
521.737	14.97
521.936	15.01
522.135	15.05
522.333	15.2
522.532	15.23
522.731	15.36
522.93	15.46
523.129	15.48
523.327	15.47
523.526	15.44
523.725	15.63
523.923	15.72
524.122	15.8
524.321	15.85
524.519	15.87
524.718	15.94
524.917	15.97
525.115	16.01
525.314	16.07
525.512	16.07
525.711	16.15
525.909	16.2
526.108	16.23
526.306	16.23
526.505	16.26
526.703	16.28
526.902	16.34
527.1	16.36
527.299	16.47
527.497	16.52
527.696	16.57
527.894	16.62
528.092	16.66
528.291	16.69
528.489	16.76
528.688	16.85
528.886	16.91
529.084	16.92
529.283	17
529.481	17.02
529.679	17.08
529.877	17.17
530.076	17.21
530.274	17.27
530.472	17.37
530.67	17.43
530.869	17.51
531.067	17.6
531.265	17.72
531.463	17.78
531.661	17.85
531.859	17.91
532.057	17.95
532.255	18.01
532.454	18.07
532.652	18.14
532.85	18.17
533.048	18.18
533.246	18.19
533.444	18.25
533.642	18.25
533.84	18.31
534.038	18.36
534.236	18.45
534.434	18.54
534.632	18.55
534.83	18.58
535.027	18.68
535.225	18.74
535.423	18.83
535.621	18.79
535.819	18.94
536.017	18.99
536.215	19.03
536.412	19.06
536.61	19.08
536.808	19.15
537.006	19.26
537.203	19.32
537.401	19.38
537.599	19.46
537.797	19.66
537.994	19.69
538.192	19.79
538.39	19.88
538.587	20.03
538.785	20.12
538.983	20.2
539.18	20.3
539.378	20.36
539.575	20.52
539.773	20.61
539.97	20.64
540.168	20.66
540.366	20.72
540.563	20.76
540.761	20.8
540.958	20.83
541.155	20.89
541.353	20.9
541.55	20.98
541.748	21.01
541.945	21.06
542.143	21.13
542.34	21.24
542.537	21.28
542.735	21.4
542.932	21.45
543.129	21.61
543.327	21.7
543.524	21.83
543.721	21.94
543.919	22.09
544.116	22.27
544.313	22.48
544.51	22.67
544.708	22.89
544.905	23.05
545.102	23.26
545.299	23.39
545.496	23.56
545.693	23.65
545.891	23.71
546.088	23.69
546.285	23.63
546.482	23.52
546.679	23.46
546.876	23.4
547.073	23.39
547.27	23.3
547.467	23.23
547.664	23.15
547.861	23.15
548.058	23.15
548.255	23.15
548.452	23.24
548.649	23.25
548.846	23.27
549.043	23.22
549.24	23.13
549.437	23.16
549.633	23.15
549.83	23.15
550.027	23.12
550.224	23.11
550.421	23.06
550.618	23
550.814	23.01
551.011	23.01
551.208	23.05
551.405	23.03
551.601	23.03
551.798	22.96
551.995	22.96
552.191	22.99
552.388	22.99
552.585	22.93
552.781	22.86
552.978	22.89
553.175	22.85
553.371	22.88
553.568	22.93
553.764	22.89
553.961	22.94
554.157	22.98
554.354	22.91
554.55	22.84
554.747	22.85
554.943	22.89
555.14	22.9
555.336	22.84
555.533	22.88
555.729	22.84
555.926	22.84
556.122	22.95
556.318	22.95
556.515	23
556.711	23.13
556.907	23.32
557.104	23.38
557.3	23.28
557.496	23.39
557.693	23.35
557.889	23.46
558.085	23.45
558.281	23.36
558.478	23.36
558.674	23.44
558.87	23.43
559.066	23.33
559.262	23.29
559.459	23.48
559.655	23.53
559.851	23.61
560.047	23.6
560.243	23.76
560.439	23.81
560.635	23.83
560.831	23.72
561.027	23.73
561.223	23.88
561.419	23.98
561.615	23.89
561.811	23.97
562.007	23.91
562.203	23.94
562.399	23.85
562.595	23.87
562.791	23.89
562.987	24
563.183	24.04
563.379	24.07
563.575	24.15
563.771	24.24
563.966	24.3
564.162	24.33
564.358	24.28
564.554	24.36
564.75	24.43
564.945	24.59
565.141	24.55
565.337	24.5
565.533	24.52
565.728	24.51
565.924	24.52
566.12	24.45
566.315	24.43
566.511	24.44
566.707	24.42
566.902	24.41
567.098	24.41
567.293	24.52
567.489	24.49
567.684	24.51
567.88	24.47
568.076	24.46
568.271	24.55
568.467	24.69
568.662	24.77
568.858	24.87
569.053	24.88
569.248	24.78
569.444	24.77
569.639	24.89
569.835	24.85
570.03	24.95
570.225	25.04
570.421	24.96
570.616	24.8
570.812	24.82
571.007	24.75
571.202	24.81
571.397	24.83
571.593	24.85
571.788	24.95
571.983	24.92
572.178	24.89
572.374	24.9
572.569	24.95
572.764	25.19
572.959	25.19
573.154	25.25
573.35	25.2
573.545	25.3
573.74	25.34
573.935	25.39
574.13	25.44
574.325	25.46
574.52	25.5
574.715	25.5
574.91	25.43
575.105	25.54
575.3	25.57
575.495	25.74
575.69	25.84
575.885	25.95
576.08	25.93
576.275	26.03
576.47	26.17
576.665	26.29
576.86	26.44
577.055	26.55
577.25	26.65
577.444	26.84
577.639	26.86
577.834	26.86
578.029	26.87
578.224	26.94
578.418	26.96
578.613	26.97
578.808	26.9
579.003	26.9
579.197	26.97
579.392	26.94
579.587	27
579.781	26.97
579.976	27.05
580.171	27.12
580.365	27.06
580.56	27.05
580.755	27.11
580.949	27.12
581.144	27.26
581.338	27.32
581.533	27.29
581.727	27.21
581.922	27.15
582.116	27.19
582.311	27.16
582.505	27.25
582.7	27.24
582.894	27.24
583.089	27.38
583.283	27.3
583.478	27.28
583.672	27.24
583.866	27.33
584.061	27.63
584.255	27.59
584.449	27.54
584.644	27.7
584.838	27.95
585.032	27.89
585.226	27.94
585.421	27.92
585.615	28.01
585.809	28.09
586.003	28.11
586.198	28.05
586.392	28.13
586.586	28.27
586.78	28.22
586.974	28.12
587.168	28.16
587.363	28
587.557	28.06
587.751	27.92
587.945	27.9
588.139	27.86
588.333	27.81
588.527	27.76
588.721	27.64
588.915	27.57
589.109	27.44
589.303	27.58
589.497	27.72
589.691	27.75
589.885	27.75
590.079	27.96
590.273	27.94
590.466	28.03
590.66	28.03
590.854	28.21
591.048	28.35
591.242	28.66
591.436	28.75
591.629	28.73
591.823	28.75
592.017	28.78
592.211	28.81
592.404	28.91
592.598	28.82
592.792	28.84
592.986	28.84
593.179	28.81
593.373	28.72
593.567	28.58
593.76	28.55
593.954	28.67
594.147	28.67
594.341	28.54
594.535	28.41
594.728	28.37
594.922	28.38
595.115	28.21
595.309	28.17
595.502	28.1
595.696	28.04
595.889	27.97
596.083	27.92
596.276	28.01
596.47	27.96
596.663	27.89
596.856	27.98
597.05	27.91
597.243	28.04
597.437	28.02
597.63	28.13
597.823	28.17
598.017	28.25
598.21	28.25
598.403	28.19
598.596	28.23
598.79	28.49
598.983	28.55
599.176	28.72
599.369	28.64
599.563	28.75
599.756	28.66
599.949	28.69
600.142	28.64
600.335	28.6
600.528	28.49
600.722	28.5
600.915	28.3
601.108	28.11
601.301	27.96
601.494	28.04
601.687	27.88
601.88	27.84
602.073	27.78
602.266	27.82
602.459	27.84
602.652	27.83
602.845	27.72
603.038	27.73
603.231	27.74
603.424	27.81
603.617	27.79
603.809	27.9
604.002	27.97
604.195	27.99
604.388	27.96
604.581	27.96
604.774	27.99
604.966	28.11
605.159	28.22
605.352	28.25
605.545	28.33
605.737	28.3
605.93	28.31
606.123	28.35
606.316	28.45
606.508	28.36
606.701	28.48
606.894	28.82
607.086	28.87
607.279	28.97
607.471	29.24
607.664	29.39
607.857	29.67
608.049	29.94
608.242	30.24
608.434	30.79
608.627	31.65
608.819	32.3
609.012	33.07
609.204	34.02
609.397	34.98
609.589	36.01
609.782	37.21
609.974	38.45
610.166	39.62
610.359	40.84
610.551	41.99
610.743	42.81
610.936	43.69
611.128	44.42
611.32	45.03
611.513	45.35
611.705	45.48
611.897	45.23
612.09	44.93
612.282	44.52
612.474	43.97
612.666	43.2
612.858	42.64
613.051	41.93
613.243	41
613.435	40.27
613.627	39.73
613.819	39.28
614.011	38.96
614.203	38.36
614.395	37.82
614.588	37.24
614.78	36.53
614.972	35.95
615.164	35.53
615.356	35.22
615.548	34.86
615.74	34.55
615.932	33.89
616.124	33.32
616.315	33.1
616.507	32.87
616.699	32.65
616.891	32.58
617.083	32.32
617.275	31.98
617.467	31.68
617.659	31.35
617.85	30.98
618.042	30.91
618.234	30.88
618.426	30.68
618.618	30.49
618.809	30.35
619.001	30.42
619.193	30.48
619.384	30.42
619.576	30.41
619.768	30.34
619.959	30.44
620.151	30.49
620.343	30.54
620.534	30.63
620.726	30.57
620.917	30.65
621.109	30.51
621.301	30.58
621.492	30.62
621.684	30.65
621.875	30.81
622.067	30.7
622.258	30.68
622.45	30.67
622.641	30.67
622.832	30.95
623.024	31.05
623.215	31.1
623.407	31.14
623.598	31.27
623.789	31.23
623.981	31.14
624.172	31.14
624.363	31.29
624.555	31.18
624.746	31.05
624.937	30.8
625.129	30.74
625.32	30.71
625.511	30.52
625.702	30.37
625.893	30.38
626.085	30.41
626.276	30.49
626.467	30.39
626.658	30.54
626.849	30.5
627.04	30.72
627.231	30.77
627.422	30.82
627.614	31.01
627.805	31.2
627.996	31.28
628.187	31.44
628.378	31.48
628.569	31.56
628.76	31.5
628.951	31.71
629.142	31.75
629.332	31.82
629.523	32.01
629.714	31.93
629.905	32.04
630.096	32.11
630.287	32.11
630.478	32.18
630.669	32.16
630.859	32.05
631.05	32
631.241	31.84
631.432	31.63
631.623	31.55
631.813	31.45
632.004	31.16
632.195	30.95
632.385	30.63
632.576	30.51
632.767	30.29
632.957	30.28
633.148	30.05
633.339	29.93
633.529	29.87
633.72	29.7
633.91	29.6
634.101	29.57
634.292	29.58
634.482	29.59
634.673	29.49
634.863	29.4
635.054	29.24
635.244	29.27
635.435	29.21
635.625	29.02
635.815	28.75
636.006	28.77
636.196	28.72
636.387	28.68
636.577	28.72
636.767	28.89
636.958	28.92
637.148	28.89
637.338	28.78
637.529	28.8
637.719	29.01
637.909	29.14
638.099	29.25
638.29	29.2
638.48	29.11
638.67	29.09
638.86	28.86
639.05	28.81
639.241	28.87
639.431	28.91
639.621	29.02
639.811	29.17
640.001	29.26
640.191	29.02
640.381	29.04
640.571	28.98
640.761	29
640.951	28.95
641.141	29.1
641.331	29.25
641.521	29.27
641.711	29.23
641.901	28.8
642.091	28.9
642.281	29
642.471	29.04
642.661	29.16
642.851	29.23
643.041	29.18
643.231	29.1
643.42	29
643.61	29.12
643.8	29
643.99	29.24
644.18	29.07
644.369	29.06
644.559	28.99
644.749	28.92
644.939	28.92
645.128	28.97
645.318	29.16
645.508	29.27
645.697	29.24
645.887	29.34
646.076	29.24
646.266	29.21
646.456	29.48
646.645	29.52
646.835	29.71
647.024	29.71
647.214	29.81
647.403	29.8
647.593	29.69
647.782	29.77
647.972	29.81
648.161	29.92
648.351	30.09
648.54	29.93
648.73	29.96
648.919	29.91
649.108	29.81
649.298	29.84
649.487	29.95
649.677	30.18
649.866	30.36
650.055	30.23
650.244	30.38
650.434	30.31
650.623	30.29
650.812	30.38
651.002	30.05
651.191	30.02
651.38	29.88
651.569	29.6
651.758	29.34
651.947	29.12
652.137	29.2
652.326	28.98
652.515	28.85
652.704	28.73
652.893	28.76
653.082	29.07
653.271	29.25
653.46	29.13
653.649	29.17
653.838	29.39
654.027	29.51
654.216	29.51
654.405	29.51
654.594	29.53
654.783	29.84
654.972	29.75
655.161	29.77
655.35	29.72
655.539	29.9
655.728	29.79
655.916	29.62
656.105	29.35
656.294	29.25
656.483	29.46
656.672	29.58
656.86	29.47
657.049	29.32
657.238	29.35
657.427	29.38
657.615	29.44
657.804	29.7
657.993	29.53
658.181	29.61
658.37	29.7
658.559	29.57
658.747	29.55
658.936	29.55
659.125	29.93
659.313	29.98
659.502	29.87
659.69	29.78
659.879	29.6
660.067	29.83
660.256	29.86
660.444	29.9
660.633	29.96
660.821	30.03
661.01	30.11
661.198	30.02
661.387	30.09
661.575	30.07
661.763	30.3
661.952	30.58
662.14	30.71
662.328	30.72
662.517	30.78
662.705	30.8
662.893	30.8
663.082	30.78
663.27	30.68
663.458	30.44
663.646	30.5
663.834	30.15
664.023	30.03
664.211	29.83
664.399	29.74
664.587	29.64
664.775	29.49
664.963	29.72
665.152	29.43
665.34	29.65
665.528	29.88
665.716	29.87
665.904	30.11
666.092	29.76
666.28	29.65
666.468	29.76
666.656	29.88
666.844	29.96
667.032	29.72
667.22	30.12
667.408	29.9
667.596	29.49
667.784	29.5
667.971	29.28
668.159	29.44
668.347	29.53
668.535	29.46
668.723	29.13
668.911	29.12
669.098	29.05
669.286	28.85
669.474	28.77
669.662	28.86
669.849	28.99
670.037	29.31
670.225	29.21
670.413	29.11
670.6	29
670.788	29.18
670.976	29.1
671.163	29.29
671.351	29.27
671.538	29.09
671.726	29
671.913	28.88
672.101	28.88
672.289	29.28
672.476	29.25
672.664	29.36
672.851	29.22
673.039	29.4
673.226	29.14
673.413	29.18
673.601	29.39
673.788	29.57
673.976	29.29
674.163	29.13
674.35	28.85
674.538	28.67
674.725	28.8
674.912	28.97
675.1	29.01
675.287	29.16
675.474	28.89
675.662	28.89
675.849	29.05
676.036	29.54
676.223	29.59
676.411	29.75
676.598	29.91
676.785	29.85
676.972	29.82
677.159	29.66
677.346	29.58
677.533	29.82
677.721	29.71
677.908	29.55
678.095	29.22
678.282	29.05
678.469	28.9
678.656	29.24
678.843	29.25
679.03	29.08
679.217	29.19
679.404	29.42
679.591	29.34
679.778	29.5
679.964	29.53
680.151	29.71
680.338	29.92
680.525	30.09
680.712	29.78
680.899	29.64
681.086	29.92
681.272	29.73
681.459	29.31
681.646	29.54
681.833	29.49
682.02	29.51
682.206	29.44
682.393	29.34
682.58	29.34
682.766	29.43
682.953	29.57
683.14	29.55
683.326	29.77
683.513	29.82
683.7	29.46
683.886	29.36
684.073	29.14
684.259	29.11
684.446	29.22
684.632	29.19
684.819	29.4
685.005	29.21
685.192	29.16
685.378	29.18
685.565	29.64
685.751	29.83
685.938	30.05
686.124	30.37
686.31	30.29
686.497	30.28
686.683	30.35
686.87	30.25
687.056	30.31
687.242	30.32
687.429	30.42
687.615	30.15
687.801	30.22
687.987	29.9
688.174	29.85
688.36	30.12
688.546	30.14
688.732	29.99
688.918	30.07
689.105	30.2
689.291	30.02
689.477	29.86
689.663	29.99
689.849	29.83
690.035	30.07
690.221	29.98
690.407	29.79
690.593	29.73
690.779	29.65
690.965	29.17
691.151	28.79
691.337	28.83
691.523	28.97
691.709	28.82
691.895	28.94
692.081	28.8
692.267	28.68
692.453	28.9
692.639	29.01
692.825	29.26
693.011	29.52
693.196	29.74
693.382	29.94
693.568	29.87
693.754	29.68
693.94	29.75
694.125	29.9
694.311	29.89
694.497	29.89
694.682	29.55
694.868	29.25
695.054	29.55
695.239	29.87
695.425	29.62
695.611	29.65
695.796	29.8
695.982	29.71
696.168	29.56
696.353	29.74
696.539	29.25
696.724	29.3
696.91	29.3
697.095	29.16
697.281	29.03
697.466	29.22
697.652	29.1
697.837	28.95
698.023	28.89
698.208	28.92
698.393	28.76
698.579	28.87
698.764	28.79
698.949	28.94
699.135	28.88
699.32	28.7
699.505	28.7
699.691	28.65
699.876	28.81
700.061	28.7
700.246	28.78
700.432	28.88
700.617	29.11
700.802	29.06
700.987	28.79
701.172	28.82
701.358	29.04
701.543	28.87
701.728	28.98
701.913	28.74
702.098	28.79
702.283	28.6
702.468	28.56
702.653	28.37
702.838	28.37
703.023	28.77
703.208	29.17
703.393	29.31
703.578	29.79
703.763	29.7
703.948	29.97
704.133	30.36
704.318	30.89
704.503	31.01
704.688	31.44
704.873	31.89
705.057	31.98
705.242	32.12
705.427	32.32
705.612	32.22
705.797	32.74
705.981	33.06
706.166	33.25
706.351	33.5
706.536	33.76
706.72	33.77
706.905	34.13
707.09	34.26
707.274	34.38
707.459	34.52
707.644	34.46
707.828	34.41
708.013	34.62
708.197	34.77
708.382	34.87
708.567	34.91
708.751	34.81
708.936	34.55
709.12	34.57
709.305	34.45
709.489	34.27
709.673	33.86
709.858	33.98
710.042	33.83
710.227	33.69
710.411	32.81
710.596	33
710.78	33.24
710.964	33.37
711.149	33.17
711.333	32.85
711.517	32.76
711.702	33.16
711.886	33.05
712.07	33.07
712.254	32.97
712.438	33.31
712.623	33.18
712.807	32.55
712.991	32.2
713.175	31.9
713.359	31.88
713.544	31.62
713.728	31.22
713.912	30.74
714.096	30.37
714.28	30.09
714.464	29.39
714.648	28.84
714.832	28.72
715.016	28.95
715.2	28.73
715.384	28.48
715.568	28.73
715.752	28.69
715.936	28.47
716.12	28.38
716.304	28.18
716.488	28.54
716.671	28.64
716.855	28.82
717.039	28.58
717.223	28.8
717.407	28.53
717.59	27.95
717.774	27.82
717.958	28.03
718.142	28.02
718.325	28.16
718.509	28.01
718.693	27.81
718.877	27.61
719.06	27.54
719.244	27.33
719.428	27.54
719.611	27.85
719.795	28.31
719.978	28.43
720.162	28.21
720.345	28.18
720.529	27.83
720.713	27.48
720.896	27.29
721.08	27.41
721.263	27.56
721.446	28.09
721.63	28.36
721.813	28.22
721.997	28.38
722.18	28.79
722.364	28.81
722.547	29.11
722.73	29.58
722.914	29.95
723.097	29.73
723.28	29.6
723.464	29.24
723.647	28.95
723.83	28.54
724.013	28.36
724.197	27.59
724.38	27.27
724.563	27.61
724.746	27.82
724.929	27.75
725.112	27.7
725.296	28.02
725.479	27.89
725.662	27.76
725.845	28.19
726.028	28.4
726.211	29.19
726.394	29.77
726.577	29.89
726.76	29.82
726.943	29.73
727.126	29.4
727.309	28.83
727.492	29.08
727.675	29.47
727.858	29.27
728.041	29.03
728.224	28.97
728.407	28.58
728.589	28.18
728.772	27.97
728.955	28.09
729.138	28.51
729.321	29.08
729.503	28.92
729.686	28.62
729.869	28.58
730.052	28.64
730.234	28.52
730.417	28.43
730.6	28.22
730.782	28.44
730.965	28.47
731.148	28.51
731.33	27.94
731.513	27.77
731.695	27.77
731.878	28
732.061	28.03
732.243	27.93
732.426	28.25
732.608	28.53
732.791	28.56
732.973	28.56
733.156	28.62
733.338	28.71
733.52	28.86
733.703	28.74
733.885	28.45
734.068	28.38
734.25	28.45
734.432	28.38
734.615	28.63
734.797	28.56
734.979	28.96
735.162	28.64
735.344	28.81
735.526	28.8
735.708	29.04
735.891	28.89
736.073	29.08
736.255	29.42
736.437	29.23
736.619	29.26
736.802	29.33
736.984	28.89
737.166	28.81
737.348	28.73
737.53	28.99
737.712	29.21
737.894	29.54
738.076	29.32
738.258	28.67
738.44	29.19
738.622	29.18
738.804	29.13
738.986	28.93
739.168	29.11
739.35	29.63
739.532	29.1
739.714	29.47
739.896	29.42
740.078	29.57
740.259	29.52
740.441	29.05
740.623	28.76
740.805	28.62
740.987	28.85
741.168	29.1
741.35	28.74
741.532	29.11
741.714	28.4
741.895	28.26
742.077	28.49
742.259	28.69
742.44	28.7
742.622	29.37
742.804	29.8
742.985	29.03
743.167	28.85
743.348	29.08
743.53	28.96
743.711	29.38
743.893	29.57
744.075	29.13
744.256	28.74
744.438	29.01
744.619	28.35
744.8	27.64
744.982	28.52
745.163	28.05
745.345	28.66
745.526	28.69
745.707	27.75
745.889	27.21
746.07	27.37
746.252	27.53
746.433	27.87
746.614	27.71
746.795	27.72
746.977	27.22
747.158	28.4
747.339	27.59
747.52	27.39
747.702	27.88
747.883	28.55
748.064	28.21
748.245	28.15
748.426	27.56
748.607	27.92
748.788	28.14
748.97	27.69
749.151	26.56
749.332	26.6
749.513	26.92
749.694	27.17
749.875	27.34
750.056	27.43
750.237	27.76
750.418	27.95
750.599	27.6
750.78	27.51
750.96	28.68
751.141	28.71
751.322	29.01
751.503	28.61
751.684	28.45
751.865	28.08
752.046	27.94
752.226	28.46
752.407	28.12
752.588	27.92
752.769	27.35
752.949	26.77
753.13	26.85
753.311	26.63
753.492	26.36
753.672	26.34
753.853	26.57
754.034	26.46
754.214	26.71
754.395	26.38
754.575	26.81
754.756	27.72
754.937	27.54
755.117	27.97
755.298	27.46
755.478	27.81
755.659	27.61
755.839	27.68
756.02	27.61
756.2	26.74
756.381	26.89
756.561	26.93
756.741	26.41
756.922	26.52
757.102	26.35
757.283	26.84
757.463	26.67
757.643	27.24
757.823	26.94
758.004	26.96
758.184	26.93
758.364	27.66
758.545	27.6
758.725	28.11
758.905	28.25
759.085	28.13
759.265	27.82
759.446	27.99
759.626	27.53
759.806	28.01
759.986	28.3
760.166	27.72
760.346	26.95
760.526	27.08
760.706	27.12
760.886	27.25
761.066	27.6
761.246	28.26
761.426	28.67
761.606	28.61
761.786	28.13
761.966	27.56
762.146	28.17
762.326	28.31
762.506	27.99
762.686	27.89
762.866	27.89
763.046	27.9
763.225	27.62
763.405	26.84
763.585	26.9
763.765	26.76
763.945	27.2
764.124	27.23
764.304	27.18
764.484	27.35
764.664	27.32
764.843	27.44
765.023	27.36
765.203	26.96
765.382	27.31
765.562	27.44
765.741	27.65
765.921	27.92
766.101	27.53
766.28	27.88
766.46	27.82
766.639	27.79
766.819	27.2
766.998	27.39
767.178	27.68
767.357	28.71
767.537	28.44
767.716	28.3
767.896	27.83
768.075	28.73
768.254	28.03
768.434	28.92
768.613	28.44
768.792	28.55
768.972	27.92
769.151	28.53
769.33	27.32
769.51	27.94
769.689	28.15
769.868	28.94
770.047	28.2
770.226	28.45
770.406	27.36
770.585	27.54
770.764	27.84
770.943	28.53
771.122	27.48
771.301	27.84
771.48	27.23
771.66	27.47
771.839	26.34
772.018	26.54
772.197	26.19
772.376	26.32
772.555	26.91
772.734	26.31
772.913	25.98
773.092	25.95
773.271	26.28
773.449	26.54
773.628	26.14
773.807	26.71
773.986	26.24
774.165	27.01
774.344	27.18
774.523	26.61
774.701	26.68
774.88	26.91
775.059	27.75
775.238	27.49
775.417	26.76
775.595	27.62
775.774	28.26
775.953	28.85
776.131	28.42
776.31	27.85
776.489	27.76
776.667	28.66
776.846	27.81
777.025	27.09
777.203	26.49
777.382	27.17
777.56	26.37
777.739	25.08
777.917	24.14
778.096	24.69
778.274	24.19
778.453	24.77
778.631	24.32
778.81	23.77
778.988	24.63
779.166	24.72
779.345	23.9
779.523	23.59
779.702	24.2
779.88	24.74
780.058	24.65
780.237	25.68
780.415	25.5
780.593	25.7
780.771	26.34
780.95	25.63
781.128	25.36
781.306	26.2
781.484	26.4
781.662	26.25
781.841	25.83
782.019	25.11
782.197	25.26
782.375	25.13
782.553	25
782.731	24.6
782.909	25.34
783.087	26.05
783.265	24.92
783.443	25.29
783.621	25.41
783.799	25.63
783.977	25.93
784.155	26.26
784.333	26.46
784.511	26.52
784.689	26.65
784.867	26.88
785.045	26.82
785.223	28.25
785.4	27.84
785.578	27.54
785.756	28.06
785.934	28.54
786.112	27.97
786.289	27.51
786.467	26.47
786.645	27.98
786.823	27.51
787	28.42
787.178	27.63
787.356	27.2
787.533	27.14
787.711	27.22
787.889	26.48
788.066	25.55
788.244	25.59
788.421	25.74
788.599	24.32
788.776	25.27
788.954	23.97
789.131	24.66
789.309	24.08
789.486	23.56
789.664	23.7
789.841	23.78
790.019	24.33
790.196	24.01
790.373	24.35
790.551	25.2
790.728	24.12
790.906	23.95
791.083	23.48
791.26	24.58
791.437	25.72
791.615	25.51
791.792	25.88
791.969	26.77
792.146	26.56
792.324	27.38
792.501	27.4
792.678	26.76
792.855	27.43
793.032	27.95
793.209	27.29
793.387	27.61
793.564	28.06
793.741	28.07
793.918	27.06
794.095	27.76
794.272	27.5
794.449	27.41
794.626	27.45
794.803	26.96
794.98	26.62
795.157	27.3
795.334	26.58
795.511	25.87
795.688	25.37
795.864	25.89
796.041	25.49
796.218	25.15
796.395	24.49
796.572	24.16
796.749	23.77
796.925	23.78
797.102	24.12
797.279	24.67
797.456	24.04
797.632	24.15
797.809	24.34
797.986	25.37
798.162	24.17
798.339	24.2
798.516	25.41
798.692	27.03
798.869	27.68
799.046	27.64
799.222	27.15
799.399	27.55
799.575	27.66
799.752	27.32
799.928	26.51
800.105	27.3
800.281	26.73
800.458	26.75
800.634	26.6
800.811	25.63
800.987	24.84
801.163	24.08
801.34	24.98
801.516	25.23
801.692	25.26
801.869	25.01
802.045	26.87
802.221	27.17
802.398	26.17
802.574	26.48
802.75	26
802.926	26.3
803.103	27.76
803.279	27.59
803.455	27.06
803.631	26.87
803.807	27.9
803.983	27.44
804.16	26.9
804.336	27.71
804.512	26.76
804.688	27.13
804.864	27.64
805.04	26.18
805.216	25.73
805.392	26.09
805.568	26.63
805.744	26.56
805.92	26.43
806.096	28.1
806.272	28.04
806.448	27.39
806.623	27.31
806.799	26.75
806.975	28.41
807.151	27.87
807.327	26.46
807.503	26.48
807.678	25.66
807.854	25.32
808.03	24.72
808.206	25.34
808.381	26.12
808.557	26.9
808.733	26.79
808.908	25.71
809.084	26.75
809.26	27.33
809.435	26.92
809.611	27.5
809.787	27.11
809.962	27.64
810.138	26.85
810.313	27.8
810.489	28.61
810.664	29.09
810.84	28.44
811.015	28.01
811.191	28.45
811.366	29.98
811.542	29.73
811.717	28.08
811.892	27.84
812.068	27.82
812.243	25.43
812.419	24.05
812.594	24.05
812.769	24.32
812.944	23.9
813.12	25.06
813.295	23.56
813.47	23.46
813.645	24.48
813.821	23.74
813.996	25.38
814.171	26.69
814.346	27.3
814.521	27.98
814.697	28.62
814.872	29.57
815.047	28.17
815.222	27.87
815.397	28.15
815.572	28.49
815.747	29.24
815.922	27.83
816.097	27.89
816.272	27.31
816.447	25.07
816.622	25.69
816.797	24.73
816.972	25.22
817.147	24.75
817.322	24.38
817.496	23.65
817.671	23.69
817.846	23.03
818.021	24.25
818.196	23.8
818.371	24.65
818.545	24.31
818.72	25.13
818.895	25.53
819.069	25.6
819.244	25.84
819.419	26.19
819.594	25.9
819.768	25.8
819.943	24.76
820.117	24.77
820.292	24.93
820.467	24.96
820.641	24.2
820.816	23.92
820.99	24.09
821.165	24.41
821.339	24.15
821.514	23.81
821.688	23.85
821.863	23.57
822.037	23.48
822.212	23.18
822.386	22.77
822.56	22.9
822.735	22.7
822.909	22.74
823.084	22.56
823.258	22.4
823.432	22.48
823.606	22.48
823.781	22.52
823.955	22.62
824.129	22.62
824.303	22.95
824.478	22.59
824.652	22.9
824.826	22.88
825	23.02
825.174	23.57
825.348	23.92
825.523	24.22
825.697	24.74
825.871	24.56
826.045	24.74
826.219	24.71
826.393	25.27
826.567	25.28
826.741	24.67
826.915	24.25
827.089	23.96
827.263	23.91
827.437	23.59
827.611	23.39
827.784	23.86
827.958	23.86
828.132	23.8
828.306	24.13
828.48	23.64
828.654	24.09
828.827	24.24
829.001	24.43
829.175	24.63
829.349	24.76
829.522	25.3
829.696	24.05
829.87	24.32
830.044	24.21
830.217	23.7
830.391	24.72
830.565	24.82
830.738	25.01
830.912	25.38
831.085	24.66
831.259	24.56
831.432	23.42
831.606	24.67
831.779	24.43
831.953	25.83
832.126	24.59
832.3	24.99
832.473	24.35
832.647	23.96
832.82	23.36
832.994	23.69
833.167	24.49
833.34	24.63
833.514	24.34
833.687	23.95
833.86	23.28
834.034	23.39
834.207	22.7
834.38	23.27
834.553	23.77
834.727	24.24
834.9	23.91
835.073	23.43
835.246	23.3
835.419	24.02
835.593	24.35
835.766	24.8
835.939	24.06
836.112	24.26
836.285	23.53
836.458	23.07
836.631	23.42
836.804	24.08
836.977	23.28
837.15	23.13
837.323	22.78
837.496	24.15
837.669	23.04
837.842	27.66
838.015	28.63
838.188	28.91
838.361	27.49
838.533	27.84
838.706	27.91
838.879	29.81
839.052	29.8
839.225	29.32
839.398	28.58
839.57	28.92
839.743	27.29
839.916	26.69
840.088	27.73
840.261	29.54
840.434	28.44
840.607	27.53
840.779	26.23
840.952	25.73
841.124	26.2
841.297	26.27
841.47	25.2
841.642	23.91
841.815	24.19
841.987	24.23
842.16	23.2
842.332	22.94
842.505	23.35
842.677	24.11
842.85	22.92
843.022	21.68
843.194	21.7
843.367	21.7
843.539	21.21
843.712	22.28
843.884	23.5
844.056	23.75
844.229	25.18
844.401	27.1
844.573	27.95
844.745	28.58
844.918	34.38
845.09	34.82
845.262	34.96
845.434	35.89
845.606	33.53
845.779	30.51
845.951	27.31
846.123	24.12
846.295	19.03
846.467	17.22
846.639	20.6
846.811	16.48
846.983	13.66
847.155	15.76
847.327	16.34
847.499	18.38
847.671	15.88
847.843	17.19
848.015	21.43
848.187	22.87
848.359	24.58
848.531	28.04
848.703	28.82
848.875	30.73
849.047	30.23
849.218	29.89
849.39	30.94
849.562	36.28
849.734	37.4
849.905	37.48
850.077	40.14
850.249	39.56
850.421	33.97
850.592	31.33
850.764	32.01
850.936	33.97
851.107	34.85
851.279	32.11
851.451	28.91
851.622	26.46
851.794	21.18
851.965	18.54
852.137	20.47
852.308	19.31
852.48	21.67
852.651	20.78
852.823	22.85
852.994	23.82
853.166	25.27
853.337	24.79
853.509	27.14
853.68	26.78
853.851	26.69
854.023	23.89
854.194	24.83
854.365	20.86
854.537	17.11
854.708	14.58
854.879	13.63
855.05	15.06
855.222	17.26
855.393	16.79
855.564	22.15
855.735	21.58
855.906	22.45
856.078	24.73
856.249	23.42
856.42	24.8
856.591	26.76
856.762	27.34
856.933	29.34
857.104	25.61
857.275	28.74
857.446	28.54
857.617	32.05
857.788	31.92
857.959	35.33
858.13	38.57
858.301	42.19
858.472	38.08
858.643	35
858.814	31.66
858.985	30.2
859.155	27.07
859.326	26.71
859.497	25.29
859.668	30.58
859.839	24.27
860.009	22.7
860.18	22.37
860.351	24.15
860.522	27.45
860.692	28.75
860.863	33.12
861.034	34.49
861.204	33.08
861.375	34.62
861.546	30.56
861.716	30.61
861.887	32.37
862.057	32.08
862.228	27.29
862.398	27.84
862.569	28.24
862.739	29.07
862.91	25.84
863.08	28.27
863.251	24.7
863.421	23.63
863.592	25.76
863.762	26.42
863.932	26.44
864.103	29.03
864.273	28.16
864.443	27.23
864.614	25.4
864.784	25.25
864.954	22.26
865.125	22.94
865.295	25.91
865.465	24.72
865.635	26.01
865.805	24.38
865.976	23.45
866.146	25.93
866.316	24.14
866.486	25.62
866.656	26.29
866.826	26.78
866.996	25.66
867.166	25.45
867.336	27.75
867.506	29.14
867.676	28.55
867.846	29.4
868.016	26.11
868.186	25.67
868.356	28.46
868.526	28.5
868.696	28.09
868.866	31.95
869.036	30.74
869.206	27.14
869.376	24.73
869.545	26.59
869.715	27.68
869.885	29.23
870.055	29.02
870.224	25.83
870.394	25.95
870.564	26.71
870.734	28.4
870.903	22.9
871.073	29.55
871.243	31.56
871.412	35.33
871.582	30.58
871.751	28.78
871.921	32.81
872.091	30.28
872.26	28.85
872.43	26.34
872.599	20.28
872.769	24.74
872.938	21.17
873.108	16.53
873.277	12.93
873.446	16.56
873.616	15.43
873.785	12.3
873.955	14.78
874.124	18.49
874.293	25.04
874.463	28.6
874.632	26.19
874.801	24.58
874.971	28.09
875.14	26.33
875.309	25.05
875.478	28.18
875.647	30.66
875.817	30.56
875.986	30.55
876.155	27.06
876.324	28.6
876.493	32.49
876.662	33.06
876.831	29.81
877	26.57
877.17	34.19
877.339	32.52
877.508	29.21
877.677	33.68
877.846	31.92
878.015	32.63
878.184	32.68
878.352	31.06
878.521	33.52
878.69	35.97
878.859	42.12
879.028	36.19
879.197	37.32
879.366	38.06
879.534	33.32
879.703	31.8
879.872	28.41
880.041	26.66
880.21	23.63
880.378	21.52
880.547	21.68
880.716	20.25
880.884	20.17
881.053	19.72
881.222	19.9
881.39	19.46
881.559	19.32
881.727	20.37
881.896	19.45
882.065	20.43
882.233	20.51
882.402	20.18
882.57	20.17
882.739	20.42
882.907	20.32
883.076	20.48
883.244	21.15
883.412	21.89
883.581	21.55
883.749	22.24
883.918	22.01
884.086	22.52
884.254	22.85
884.423	22.97
884.591	23.53
884.759	23.86
884.927	23.63
885.096	22.65
885.264	21.68
885.432	23.19
885.6	23.7
885.769	23.99
885.937	22.9
886.105	24.54
886.273	25.83
886.441	24.13
886.609	23.33
886.777	25.36
886.945	27.27
887.113	27.78
887.281	24.36
887.449	22.75
887.617	24.86
887.785	27.6
887.953	29.11
888.121	29.09
888.289	31.39
888.457	33.03
888.625	32.02
888.793	29.63
888.961	33.92
889.129	35.16
889.296	39.77
889.464	40.22
889.632	40.56
889.8	35.45
889.967	32.92
890.135	32.63
