Data from 2938736__Reflection_04.txt Node
Date: Sun Mar 15 18:19:41 EDT 2015
User: robert
Spectrometer: USB4E03002
Autoset integration time: false
Trigger mode: 4
Integration Time (sec): 1.000000E-1
Scans to average: 10
Electric dark correction enabled: false
Nonlinearity correction enabled: false
Boxcar width: 5
Stray light correction enabled: false
XAxis mode: Wavelengths
Stop averaging: false
Number of Pixels in Spectrum: 3648
>>>>>Begin Spectral Data<<<<<
177.575	374.55
177.794	353.39
178.014	268.38
178.233	344.61
178.452	399.38
178.672	434.6
178.891	424.46
179.11	628.86
179.33	-2049.15
179.549	-2003.51
179.768	-30620
179.987	-4435.48
180.207	-7050
180.426	-1019.86
180.645	-2073.53
180.864	8737.5
181.084	1876.81
181.303	1709.3
181.522	818.95
181.741	378.28
181.96	526.32
182.179	418.82
182.398	389.53
182.618	520.21
182.837	631.22
183.056	806.21
183.275	1137.6
183.494	3200
183.713	6525
183.932	-1441.24
184.151	-998.57
184.37	-1067.65
184.589	-1185.16
184.808	-550.8
185.027	-1828
185.246	5053.13
185.465	6904.55
185.684	2273.77
185.903	473.78
186.122	368.7
186.341	236.72
186.56	233.02
186.779	142.25
186.998	146.03
187.216	146.15
187.435	163.75
187.654	143.44
187.873	141.55
188.092	151.28
188.311	169.19
188.53	181.57
188.748	270.68
188.967	193.43
189.186	221.14
189.405	315.58
189.623	340.52
189.842	305.43
190.061	258.47
190.28	251.39
190.498	302.73
190.717	328.75
190.936	257.56
191.154	240.13
191.373	380.66
191.592	541.33
191.81	409.52
192.029	351.15
192.248	401.3
192.466	452.75
192.685	404.47
192.904	411.61
193.122	632.02
193.341	442.61
193.559	313.2
193.778	288.12
193.996	282.62
194.215	246.73
194.433	252.25
194.652	204.32
194.87	251.75
195.089	256.66
195.307	302.41
195.526	298.57
195.744	545.42
195.963	600.38
196.181	2952
196.399	22957.14
196.618	-10506.25
196.836	-25271.43
197.055	-1812.5
197.273	-769.61
197.491	-408.01
197.71	-339.15
197.928	-549.77
198.146	-840.69
198.365	-1954.24
198.583	2273.47
198.801	534.48
199.019	467.84
199.238	409.82
199.456	312.06
199.674	189.18
199.892	157.2
200.111	151.42
200.329	300.65
200.547	302.68
200.765	380.81
200.983	495.8
201.202	1113.56
201.42	833.82
201.638	-13800
201.856	-697.37
202.074	-23166.67
202.292	2514.71
202.51	1134.78
202.728	1806.25
202.946	-2063.27
203.165	-2476.19
203.383	2551.16
203.601	-2157.45
203.819	-1105.26
204.037	-1219.1
204.255	-551.32
204.473	-307.34
204.691	-328.15
204.909	-259.21
205.127	-236.87
205.345	-378.75
205.562	-335.99
205.78	-302.26
205.998	-685.19
206.216	-958.77
206.434	-2019.64
206.652	-2171.15
206.87	-1958.93
207.088	-777.55
207.306	-1748.39
207.523	2706.38
207.741	1267.44
207.959	525.88
208.177	577.88
208.395	512.93
208.612	434.75
208.83	417.86
209.048	321.33
209.266	229.74
209.483	173.23
209.701	245.39
209.919	209.76
210.136	228.4
210.354	260.22
210.572	279.87
210.79	338.29
211.007	344.82
211.225	293.08
211.442	280.78
211.66	255.47
211.878	254.91
212.095	238.31
212.313	258.72
212.53	330.24
212.748	293.3
212.966	271.63
213.183	276.59
213.401	254.46
213.618	279.26
213.836	280.7
214.053	308.01
214.271	364.32
214.488	389.34
214.705	386.27
214.923	369.21
215.14	306.34
215.358	371.8
215.575	262.6
215.793	276.45
216.01	294.31
216.227	308.02
216.445	266.79
216.662	246.84
216.879	220.77
217.097	230.82
217.314	216.24
217.531	173.07
217.749	151.97
217.966	167.65
218.183	139.12
218.4	126.01
218.618	101.02
218.835	134.9
219.052	113.51
219.269	111.21
219.487	105.41
219.704	100.41
219.921	104.8
220.138	102.21
220.355	90.49
220.572	104.94
220.79	104.75
221.007	111.89
221.224	95.63
221.441	99.15
221.658	90.58
221.875	85.78
222.092	82.25
222.309	81.96
222.526	77.61
222.743	79.16
222.96	74.67
223.177	70.87
223.394	70.46
223.611	69.91
223.828	67.3
224.045	60.31
224.262	65.1
224.479	60.18
224.696	56.38
224.913	55.08
225.13	53.84
225.347	54.55
225.564	52.7
225.781	45.67
225.997	44.45
226.214	39.48
226.431	38.41
226.648	31.05
226.865	27.31
227.082	27.33
227.298	27.12
227.515	22.35
227.732	17.79
227.949	15.81
228.165	13.19
228.382	10.98
228.599	11.12
228.816	9.56
229.032	8.5
229.249	8.6
229.466	8.8
229.682	7
229.899	6.99
230.116	6.48
230.332	6.61
230.549	7.89
230.765	8.64
230.982	8.3
231.199	8.45
231.415	9.99
231.632	10.08
231.848	9.62
232.065	8.89
232.281	9.95
232.498	12.41
232.714	13.37
232.931	12.19
233.147	13.89
233.364	13.91
233.58	16.96
233.797	15.92
234.013	13.16
234.23	13.48
234.446	13.83
234.662	13.74
234.879	11.41
235.095	9.92
235.312	8.75
235.528	6.73
235.744	7.82
235.961	6.94
236.177	7.83
236.393	11.02
236.61	11.66
236.826	12.43
237.042	12.46
237.258	14.75
237.475	17.54
237.691	19.73
237.907	21.16
238.123	19.4
238.339	17.15
238.556	17.59
238.772	17.21
238.988	16.33
239.204	16.1
239.42	16.45
239.636	14.7
239.853	12.24
240.069	11.96
240.285	10.18
240.501	9
240.717	8.48
240.933	7.08
241.149	6.65
241.365	6.11
241.581	5.44
241.797	5.63
242.013	5.07
242.229	5.1
242.445	4.9
242.661	4
242.877	4.27
243.093	4.59
243.309	4.98
243.525	5.2
243.741	5.33
243.957	6.3
244.173	4.88
244.388	6.78
244.604	7.41
244.82	7.36
245.036	8.21
245.252	7.86
245.468	7.07
245.683	6.44
245.899	5.45
246.115	4.92
246.331	4.07
246.547	3.99
246.762	3.3
246.978	3.16
247.194	3.24
247.409	3.28
247.625	3.4
247.841	3.43
248.057	3.88
248.272	4.38
248.488	4.67
248.703	5.07
248.919	5.63
249.135	5.99
249.35	5.83
249.566	6.36
249.782	6.88
249.997	6.96
250.213	7.48
250.428	7
250.644	6.81
250.859	5.97
251.075	6.31
251.29	6.45
251.506	6.29
251.721	7.02
251.937	6.69
252.152	6.68
252.368	6.79
252.583	6.28
252.798	7.02
253.014	6.83
253.229	8.45
253.445	9
253.66	9.13
253.875	9.69
254.091	8.91
254.306	9.38
254.521	9.68
254.737	10.57
254.952	10.77
255.167	10.15
255.383	10.94
255.598	10.55
255.813	10.15
256.028	9.22
256.244	8.5
256.459	9.24
256.674	8.43
256.889	8.55
257.104	8.6
257.32	8.9
257.535	8.15
257.75	7.48
257.965	6.99
258.18	5.69
258.395	6.01
258.61	5.55
258.826	4.85
259.041	4.72
259.256	4.47
259.471	3.9
259.686	3.69
259.901	3.63
260.116	3.36
260.331	3.12
260.546	3.4
260.761	2.98
260.976	3.05
261.191	3.29
261.406	3.29
261.621	3.4
261.836	3.33
262.05	3.48
262.265	3.8
262.48	4.65
262.695	4.58
262.91	4.32
263.125	4.84
263.34	5.08
263.555	5.82
263.769	5.81
263.984	5.34
264.199	5.81
264.414	5.43
264.629	5.17
264.843	4.76
265.058	5.5
265.273	5.44
265.488	5.33
265.702	5.06
265.917	4.16
266.132	4.61
266.346	4.67
266.561	4.48
266.776	5.06
266.99	5.1
267.205	4.87
267.42	4.04
267.634	4.14
267.849	3.91
268.063	3.76
268.278	4.12
268.492	3.89
268.707	4.12
268.922	4.01
269.136	3.25
269.351	2.75
269.565	2.51
269.78	3.25
269.994	3.56
270.209	3.62
270.423	3.74
270.637	3.37
270.852	3.48
271.066	3.27
271.281	3.23
271.495	3.45
271.709	3.52
271.924	3.58
272.138	3.12
272.353	2.82
272.567	2.98
272.781	3.12
272.996	2.92
273.21	2.59
273.424	2.18
273.638	2.13
273.853	1.99
274.067	2.33
274.281	2.56
274.495	2.82
274.71	3.02
274.924	3.4
275.138	3.25
275.352	3.83
275.566	3.73
275.781	3.89
275.995	3.84
276.209	3.9
276.423	3.47
276.637	3.49
276.851	3.54
277.065	3.6
277.279	3.26
277.493	3.6
277.707	3.47
277.921	3.63
278.135	4.17
278.349	4.6
278.563	5.08
278.777	5.18
278.991	5.17
279.205	5.76
279.419	5.52
279.633	5.8
279.847	4.92
280.061	4.41
280.275	4.68
280.489	4.69
280.703	4.37
280.917	4.03
281.131	4.27
281.344	4.59
281.558	3.9
281.772	3.8
281.986	3.32
282.2	3.36
282.414	3.42
282.627	3.13
282.841	2.68
283.055	2.79
283.269	2.54
283.482	2.84
283.696	2.53
283.91	2.55
284.123	2.19
284.337	2.19
284.551	2.61
284.764	2.87
284.978	2.97
285.192	3.16
285.405	3.11
285.619	2.95
285.833	2.42
286.046	2.25
286.26	2.33
286.473	2.72
286.687	2.92
286.9	3.08
287.114	3.25
287.327	3.41
287.541	3.35
287.754	3.21
287.968	3.74
288.181	3.69
288.395	3.82
288.608	3.52
288.822	3.3
289.035	3.48
289.248	3.06
289.462	2.89
289.675	2.63
289.889	2.71
290.102	2.62
290.315	2.2
290.529	2.49
290.742	2.57
290.955	2.8
291.169	2.97
291.382	2.83
291.595	3.05
291.808	3.15
292.022	3.16
292.235	3
292.448	3.53
292.661	3.6
292.875	3.57
293.088	3.24
293.301	2.92
293.514	2.64
293.727	2.78
293.94	2.44
294.153	2.31
294.367	2.07
294.58	2.13
294.793	1.82
295.006	2.33
295.219	2.44
295.432	2.92
295.645	3.41
295.858	3.5
296.071	3.07
296.284	3.28
296.497	3.22
296.71	3.38
296.923	3.48
297.136	3.33
297.349	3.14
297.562	3.06
297.775	2.9
297.988	2.87
298.201	2.78
298.414	2.84
298.626	2.71
298.839	3.06
299.052	3.19
299.265	2.76
299.478	3.18
299.691	3.14
299.903	3.19
300.116	3.02
300.329	3.04
300.542	3.32
300.755	3.52
300.967	4.18
301.18	3.87
301.393	3.84
301.605	4.39
301.818	3.59
302.031	3.59
302.243	3.7
302.456	4.05
302.669	4.2
302.881	4.13
303.094	4.43
303.307	3.83
303.519	3.83
303.732	4.12
303.944	4.09
304.157	5.27
304.37	5.39
304.582	5.32
304.795	5.37
305.007	5.33
305.22	5.44
305.432	4.88
305.645	4.69
305.857	4.8
306.069	4.68
306.282	4.47
306.494	3.93
306.707	3.88
306.919	4
307.132	3.44
307.344	3.47
307.556	3.74
307.769	4.01
307.981	4.21
308.193	4.01
308.406	3.66
308.618	4.28
308.83	4.25
309.043	4.43
309.255	4.13
309.467	4.48
309.679	4.51
309.892	4.41
310.104	4.16
310.316	4.36
310.528	4.4
310.74	4.27
310.953	4.11
311.165	4.23
311.377	4.26
311.589	4.54
311.801	4.89
312.013	4.79
312.225	4.61
312.437	4.87
312.649	4.99
312.862	5.4
313.074	5.73
313.286	5.54
313.498	5.52
313.71	5.19
313.922	5.09
314.134	4.33
314.346	4.22
314.558	4.17
314.77	5.11
314.982	4.67
315.193	4.21
315.405	4.86
315.617	5.21
315.829	4.8
316.041	5.01
316.253	5.11
316.465	5.65
316.677	5.93
316.888	6.48
317.1	5.54
317.312	5.76
317.524	6.09
317.736	5.87
317.947	5.96
318.159	6.44
318.371	6.74
318.583	7.03
318.794	7.11
319.006	6.98
319.218	7.01
319.43	7.09
319.641	7.03
319.853	6.81
320.064	6.46
320.276	6.6
320.488	7.22
320.699	7.44
320.911	7.57
321.123	7.48
321.334	7.33
321.546	7.27
321.757	7.43
321.969	8.18
322.18	8.56
322.392	8.84
322.603	8.69
322.815	8.7
323.026	8.83
323.238	8.39
323.449	8.84
323.661	9.47
323.872	9.44
324.083	9.91
324.295	9.62
324.506	9.75
324.718	9.67
324.929	9.87
325.14	9.88
325.352	9.87
325.563	10.67
325.774	10.62
325.986	10.85
326.197	11.34
326.408	11.06
326.62	11.65
326.831	11.93
327.042	12.39
327.253	12.77
327.464	13.33
327.676	13.84
327.887	14.31
328.098	14.66
328.309	15.12
328.52	15.54
328.732	16.38
328.943	16.39
329.154	17.11
329.365	17.97
329.576	18.27
329.787	18.36
329.998	19.02
330.209	18.98
330.42	19.27
330.631	19.25
330.842	19.53
331.053	19.82
331.264	20.86
331.475	20.79
331.686	20.97
331.897	20.86
332.108	21.18
332.319	21.09
332.53	21.18
332.741	21.75
332.952	22.57
333.163	22.62
333.374	22.93
333.585	22.72
333.795	22.95
334.006	23.09
334.217	23.68
334.428	23.38
334.639	23.81
334.849	24.08
335.06	24.18
335.271	23.6
335.482	23.99
335.692	23.86
335.903	24.09
336.114	24.04
336.325	24.11
336.535	24.05
336.746	24.22
336.957	24.19
337.167	24.49
337.378	24.16
337.589	24.76
337.799	24.77
338.01	25.33
338.22	25.37
338.431	25.57
338.642	25.38
338.852	25.83
339.063	26.2
339.273	26.17
339.484	26.4
339.694	27.05
339.905	26.69
340.115	26.87
340.326	26.63
340.536	26.65
340.746	26.74
340.957	26.56
341.167	26.3
341.378	26.16
341.588	25.93
341.799	25.35
342.009	25.22
342.219	24.99
342.43	25.03
342.64	24.74
342.85	24.98
343.061	25.15
343.271	25.22
343.481	25.28
343.691	25.32
343.902	25.33
344.112	25.91
344.322	25.79
344.532	26.08
344.743	25.85
344.953	25.76
345.163	25.6
345.373	25.48
345.583	25.8
345.793	25.67
346.004	25.89
346.214	25.91
346.424	25.77
346.634	25.7
346.844	25.8
347.054	25.87
347.264	26.12
347.474	25.9
347.684	25.98
347.894	26
348.104	26.33
348.314	25.84
348.524	25.95
348.734	25.72
348.944	25.8
349.154	25.88
349.364	25.72
349.574	25.59
349.784	25.7
349.994	25.62
350.204	25.19
350.413	25.13
350.623	25.46
350.833	25.53
351.043	25.48
351.253	25.33
351.463	24.87
351.672	24.99
351.882	25.12
352.092	24.82
352.302	24.68
352.511	25.05
352.721	24.84
352.931	24.55
353.141	24.5
353.35	24.6
353.56	24.75
353.77	24.68
353.979	24.57
354.189	24.38
354.399	24.24
354.608	24.11
354.818	24.3
355.027	24.48
355.237	25
355.447	24.78
355.656	24.37
355.866	24.19
356.075	24.44
356.285	24.36
356.494	24.25
356.704	24.39
356.913	24.46
357.123	24.03
357.332	23.88
357.542	23.63
357.751	23.76
357.96	24.05
358.17	24.13
358.379	24.16
358.589	24.17
358.798	24.29
359.007	24.43
359.217	24.43
359.426	24.46
359.635	24.45
359.845	24.21
360.054	24.23
360.263	24.06
360.472	24
360.682	24.04
360.891	23.88
361.1	23.87
361.309	23.66
361.519	23.58
361.728	23.5
361.937	23.52
362.146	23.52
362.355	23.36
362.564	23.36
362.774	23.35
362.983	23.22
363.192	23.41
363.401	23.49
363.61	23.54
363.819	23.82
364.028	23.89
364.237	23.72
364.446	23.83
364.655	23.87
364.864	23.98
365.073	23.94
365.282	24.01
365.491	24.14
365.7	24.07
365.909	24.12
366.118	23.96
366.327	23.9
366.536	24.04
366.745	23.76
366.954	23.79
367.162	23.5
367.371	23.48
367.58	23.45
367.789	23.23
367.998	23.41
368.207	23.46
368.415	23.36
368.624	23.34
368.833	23.31
369.042	23.36
369.25	23.31
369.459	23.49
369.668	23.62
369.877	23.27
370.085	23.33
370.294	22.86
370.503	22.76
370.711	22.7
370.92	23.04
371.129	23.06
371.337	23.15
371.546	23.12
371.754	23.21
371.963	23.13
372.171	23.23
372.38	23.24
372.589	23.28
372.797	23.63
373.006	23.61
373.214	23.28
373.423	23.19
373.631	22.95
373.84	23.13
374.048	22.9
374.256	22.57
374.465	22.6
374.673	22.4
374.882	22.48
375.09	22.17
375.298	22.1
375.507	22.03
375.715	22.01
375.923	22.3
376.132	22.19
376.34	21.98
376.548	22.29
376.757	22.22
376.965	22.12
377.173	22.14
377.381	22.17
377.59	22.22
377.798	22.21
378.006	22.2
378.214	22.1
378.423	21.68
378.631	21.99
378.839	21.82
379.047	22.04
379.255	21.87
379.463	21.84
379.671	21.82
379.879	21.96
380.088	22.16
380.296	22.05
380.504	21.92
380.712	22.14
380.92	22.01
381.128	21.9
381.336	21.66
381.544	21.84
381.752	21.6
381.96	21.39
382.168	21.18
382.376	21.07
382.584	21.36
382.791	21.34
382.999	21.48
383.207	21.41
383.415	21.62
383.623	21.87
383.831	21.91
384.039	22.2
384.247	22.47
384.454	22.52
384.662	22.42
384.87	22.01
385.078	22.07
385.285	21.99
385.493	22.21
385.701	21.9
385.909	21.52
386.116	21.76
386.324	21.79
386.532	21.65
386.739	21.63
386.947	21.76
387.155	21.85
387.362	21.72
387.57	21.71
387.778	21.84
387.985	22.08
388.193	22.39
388.4	22.21
388.608	22.02
388.816	21.85
389.023	21.62
389.231	21.37
389.438	21.34
389.646	21.68
389.853	21.71
390.061	21.51
390.268	21.49
390.475	21.5
390.683	21.51
390.89	21.45
391.098	21.46
391.305	21.59
391.512	21.74
391.72	21.75
391.927	21.58
392.135	21.71
392.342	21.54
392.549	21.3
392.756	21.32
392.964	21.05
393.171	21.33
393.378	21.46
393.586	21.31
393.793	21.15
394	21.25
394.207	21.24
394.414	21.25
394.622	21.25
394.829	21.52
395.036	21.26
395.243	21.32
395.45	21.22
395.657	21.07
395.864	21.37
396.072	21.63
396.279	21.29
396.486	21.47
396.693	21.29
396.9	21.33
397.107	20.9
397.314	20.95
397.521	20.88
397.728	20.82
397.935	20.98
398.142	21.12
398.349	20.88
398.556	21.06
398.763	20.97
398.97	21.18
399.177	21.26
399.383	21.62
399.59	21.72
399.797	21.94
400.004	22.02
400.211	21.75
400.418	21.43
400.625	21.67
400.831	21.74
401.038	21.63
401.245	21.47
401.452	21.37
401.658	21.45
401.865	21.65
402.072	21.8
402.279	21.71
402.485	21.87
402.692	21.93
402.899	21.54
403.105	21.36
403.312	21.26
403.519	21.18
403.725	21.17
403.932	21.05
404.138	20.83
404.345	20.69
404.552	20.68
404.758	20.81
404.965	20.87
405.171	21.04
405.378	21.28
405.584	21.39
405.791	21.56
405.997	21.61
406.204	21.74
406.41	21.75
406.617	21.84
406.823	21.78
407.029	21.68
407.236	21.68
407.442	21.78
407.649	21.64
407.855	21.74
408.061	21.67
408.268	21.6
408.474	21.59
408.68	21.54
408.887	21.57
409.093	21.65
409.299	21.58
409.505	21.55
409.712	21.58
409.918	21.68
410.124	21.69
410.33	21.73
410.537	21.91
410.743	21.93
410.949	22.03
411.155	21.91
411.361	21.96
411.567	22.15
411.773	22.15
411.98	22.19
412.186	22.2
412.392	22.01
412.598	21.9
412.804	21.98
413.01	21.88
413.216	21.92
413.422	21.97
413.628	21.91
413.834	21.75
414.04	21.75
414.246	21.7
414.452	21.73
414.658	21.83
414.864	22.03
415.07	21.77
415.275	21.86
415.481	21.84
415.687	21.76
415.893	21.72
416.099	21.73
416.305	21.68
416.511	21.82
416.716	21.74
416.922	21.65
417.128	21.54
417.334	21.61
417.539	21.53
417.745	21.6
417.951	21.63
418.157	21.57
418.362	21.63
418.568	21.58
418.774	21.45
418.979	21.42
419.185	21.46
419.391	21.44
419.596	21.49
419.802	21.46
420.008	21.29
420.213	20.81
420.419	20.77
420.624	20.67
420.83	20.73
421.035	20.66
421.241	20.73
421.446	20.72
421.652	20.7
421.857	20.64
422.063	20.62
422.268	20.63
422.474	21.11
422.679	21.24
422.885	21.2
423.09	21.22
423.295	21.3
423.501	21.17
423.706	21.27
423.911	21.31
424.117	21.28
424.322	21.31
424.527	21.41
424.733	21.43
424.938	21.34
425.143	21.51
425.349	21.43
425.554	21.39
425.759	21.56
425.964	21.55
426.169	21.5
426.375	21.6
426.58	21.59
426.785	21.51
426.99	21.55
427.195	21.59
427.4	21.52
427.605	21.55
427.811	21.61
428.016	21.55
428.221	21.57
428.426	21.59
428.631	21.52
428.836	21.65
429.041	21.78
429.246	21.66
429.451	21.63
429.656	21.65
429.861	21.64
430.066	21.7
430.271	21.63
430.476	21.49
430.681	21.54
430.886	21.61
431.09	21.43
431.295	21.38
431.5	21.39
431.705	21.29
431.91	21.28
432.115	21.32
432.32	21.23
432.524	21.3
432.729	21.47
432.934	21.54
433.139	21.47
433.343	21.68
433.548	21.78
433.753	21.74
433.958	21.89
434.162	21.96
434.367	22.05
434.572	22.18
434.776	22.18
434.981	22.15
435.186	22.15
435.39	22.14
435.595	22.09
435.799	21.96
436.004	22.01
436.209	21.97
436.413	21.94
436.618	21.95
436.822	21.9
437.027	21.84
437.231	21.76
437.436	21.64
437.64	21.67
437.845	21.66
438.049	21.75
438.253	21.72
438.458	21.75
438.662	21.6
438.867	21.54
439.071	21.56
439.275	21.58
439.48	21.61
439.684	21.63
439.888	21.64
440.093	21.57
440.297	21.49
440.501	21.46
440.706	21.47
440.91	21.62
441.114	21.63
441.318	21.58
441.523	21.63
441.727	21.62
441.931	21.58
442.135	21.67
442.339	21.68
442.543	21.75
442.748	21.84
442.952	21.9
443.156	21.68
443.36	21.73
443.564	21.77
443.768	21.79
443.972	21.68
444.176	21.68
444.38	21.59
444.584	21.62
444.788	21.57
444.992	21.52
445.196	21.48
445.4	21.54
445.604	21.52
445.808	21.48
446.012	21.34
446.216	21.33
446.42	21.32
446.624	21.38
446.828	21.36
447.032	21.43
447.235	21.49
447.439	21.44
447.643	21.46
447.847	21.4
448.051	21.45
448.254	21.48
448.458	21.53
448.662	21.6
448.866	21.5
449.069	21.41
449.273	21.31
449.477	21.33
449.681	21.35
449.884	21.48
450.088	21.52
450.292	21.49
450.495	21.51
450.699	21.56
450.902	21.48
451.106	21.49
451.31	21.56
451.513	21.57
451.717	21.53
451.92	21.53
452.124	21.4
452.327	21.48
452.531	21.46
452.734	21.46
452.938	21.43
453.141	21.42
453.345	21.35
453.548	21.43
453.752	21.48
453.955	21.41
454.158	21.41
454.362	21.44
454.565	21.31
454.769	21.39
454.972	21.49
455.175	21.5
455.379	21.5
455.582	21.71
455.785	21.63
455.988	21.55
456.192	21.41
456.395	21.47
456.598	21.48
456.801	21.52
457.005	21.45
457.208	21.35
457.411	21.3
457.614	21.4
457.817	21.18
458.021	21.2
458.224	21.17
458.427	21.22
458.63	21.27
458.833	21.24
459.036	21.26
459.239	21.19
459.442	21.17
459.645	21.22
459.848	21.2
460.051	21.21
460.254	21.2
460.457	21.21
460.66	21.29
460.863	21.18
461.066	21.08
461.269	21.04
461.472	21.07
461.675	21.1
461.878	21.07
462.081	21.02
462.284	20.96
462.486	21.07
462.689	21.06
462.892	20.95
463.095	21.05
463.298	21.28
463.5	21.34
463.703	21.37
463.906	21.53
464.109	21.62
464.311	21.72
464.514	21.9
464.717	21.9
464.92	21.98
465.122	22.15
465.325	22.16
465.528	22.11
465.73	22.12
465.933	22.17
466.135	22.11
466.338	22.04
466.541	21.91
466.743	21.83
466.946	21.83
467.148	21.92
467.351	21.77
467.553	21.66
467.756	21.6
467.958	21.59
468.161	21.52
468.363	21.47
468.566	21.56
468.768	21.7
468.971	21.78
469.173	21.83
469.375	21.8
469.578	21.9
469.78	22.04
469.983	22.04
470.185	22.11
470.387	22.12
470.59	22.1
470.792	21.99
470.994	21.95
471.196	22.08
471.399	21.98
471.601	22
471.803	21.98
472.005	22.06
472.208	22.13
472.41	22.11
472.612	22.13
472.814	22.15
473.016	22.25
473.218	22.3
473.421	22.25
473.623	22.32
473.825	22.3
474.027	22.35
474.229	22.14
474.431	22.13
474.633	21.98
474.835	22.05
475.037	22.06
475.239	22.11
475.441	22.1
475.643	22.06
475.845	22.1
476.047	21.98
476.249	22.01
476.451	22.03
476.653	22
476.855	22.05
477.057	22.01
477.258	22.07
477.46	21.94
477.662	21.94
477.864	21.82
478.066	21.75
478.268	21.75
478.469	21.77
478.671	21.71
478.873	21.78
479.075	21.82
479.276	21.75
479.478	21.67
479.68	21.75
479.882	21.7
480.083	21.79
480.285	21.73
480.487	21.73
480.688	21.63
480.89	21.74
481.091	21.69
481.293	21.75
481.495	21.78
481.696	21.78
481.898	21.72
482.099	21.69
482.301	21.72
482.502	21.72
482.704	21.68
482.905	21.64
483.107	21.56
483.308	21.55
483.51	21.54
483.711	21.53
483.913	21.51
484.114	21.5
484.315	21.48
484.517	21.47
484.718	21.5
484.92	21.52
485.121	21.54
485.322	21.55
485.524	21.52
485.725	21.5
485.926	21.51
486.127	21.54
486.329	21.56
486.53	21.62
486.731	21.62
486.932	21.58
487.134	21.57
487.335	21.56
487.536	21.62
487.737	21.68
487.938	21.68
488.139	21.66
488.341	21.64
488.542	21.6
488.743	21.59
488.944	21.57
489.145	21.59
489.346	21.62
489.547	21.64
489.748	21.67
489.949	21.71
490.15	21.74
490.351	21.76
490.552	21.81
490.753	21.87
490.954	21.87
491.155	21.89
491.356	21.92
491.557	21.97
491.758	21.95
491.959	21.95
492.159	21.93
492.36	21.94
492.561	21.97
492.762	21.98
492.963	21.98
493.164	22
493.364	22.01
493.565	21.98
493.766	21.99
493.967	22.07
494.167	22.11
494.368	22.16
494.569	22.27
494.769	22.37
494.97	22.43
495.171	22.48
495.371	22.49
495.572	22.52
495.773	22.56
495.973	22.58
496.174	22.68
496.375	22.62
496.575	22.56
496.776	22.56
496.976	22.54
497.177	22.51
497.377	22.52
497.578	22.68
497.778	22.75
497.979	22.82
498.179	22.85
498.38	22.77
498.58	22.78
498.78	22.75
498.981	22.77
499.181	22.79
499.382	22.88
499.582	22.88
499.782	22.79
499.983	22.78
500.183	22.87
500.383	22.86
500.584	22.96
500.784	23.13
500.984	23.31
501.184	23.26
501.385	23.32
501.585	23.32
501.785	23.48
501.985	23.67
502.185	23.66
502.386	23.67
502.586	23.66
502.786	23.72
502.986	23.71
503.186	23.73
503.386	23.83
503.586	23.86
503.786	23.95
503.987	23.94
504.187	23.91
504.387	24.01
504.587	24
504.787	24.05
504.987	24.09
505.187	24.16
505.387	24.18
505.587	24.39
505.786	24.45
505.986	24.41
506.186	24.48
506.386	24.5
506.586	24.62
506.786	24.67
506.986	24.79
507.186	24.84
507.386	24.85
507.585	24.9
507.785	24.76
507.985	24.74
508.185	24.83
508.384	24.81
508.584	24.86
508.784	24.81
508.984	24.85
509.183	24.83
509.383	24.86
509.583	24.89
509.782	25
509.982	25
510.182	25.02
510.381	25.02
510.581	25.15
510.781	25.26
510.98	25.34
511.18	25.4
511.379	25.52
511.579	25.55
511.778	25.68
511.978	25.71
512.177	25.9
512.377	26.03
512.576	26.09
512.776	26.05
512.975	25.98
513.175	26.06
513.374	26.05
513.573	26.11
513.773	26.15
513.972	26.07
514.172	26
514.371	25.9
514.57	25.93
514.77	26.04
514.969	26.17
515.168	26.31
515.367	26.29
515.567	26.33
515.766	26.33
515.965	26.4
516.164	26.5
516.364	26.69
516.563	26.81
516.762	26.81
516.961	26.87
517.16	26.85
517.359	26.83
517.559	26.93
517.758	26.98
517.957	27
518.156	27.09
518.355	27.15
518.554	27.18
518.753	27.26
518.952	27.32
519.151	27.34
519.35	27.37
519.549	27.43
519.748	27.37
519.947	27.47
520.146	27.54
520.345	27.5
520.544	27.47
520.743	27.48
520.942	27.42
521.141	27.45
521.339	27.47
521.538	27.48
521.737	27.59
521.936	27.71
522.135	27.7
522.333	27.8
522.532	27.94
522.731	28.07
522.93	28.12
523.129	28.26
523.327	28.4
523.526	28.48
523.725	28.62
523.923	28.64
524.122	28.65
524.321	28.81
524.519	28.8
524.718	28.82
524.917	28.83
525.115	28.85
525.314	28.9
525.512	28.9
525.711	28.87
525.909	28.95
526.108	29
526.306	29.1
526.505	29.03
526.703	29.07
526.902	29.07
527.1	29.06
527.299	29.06
527.497	29.06
527.696	29.05
527.894	29.11
528.092	29.07
528.291	29.05
528.489	29.12
528.688	29.14
528.886	29.17
529.084	29.21
529.283	29.27
529.481	29.29
529.679	29.32
529.877	29.35
530.076	29.39
530.274	29.47
530.472	29.57
530.67	29.51
530.869	29.56
531.067	29.58
531.265	29.64
531.463	29.72
531.661	29.8
531.859	29.87
532.057	29.91
532.255	29.99
532.454	30.03
532.652	29.99
532.85	30.04
533.048	30.08
533.246	30.08
533.444	30.15
533.642	30.17
533.84	30.25
534.038	30.27
534.236	30.34
534.434	30.31
534.632	30.34
534.83	30.4
535.027	30.46
535.225	30.56
535.423	30.65
535.621	30.71
535.819	30.78
536.017	30.83
536.215	30.91
536.412	31.02
536.61	31.09
536.808	31.13
537.006	31.25
537.203	31.32
537.401	31.44
537.599	31.49
537.797	31.56
537.994	31.66
538.192	31.79
538.39	31.93
538.587	32.03
538.785	32.23
538.983	32.36
539.18	32.51
539.378	32.7
539.575	32.84
539.773	33.05
539.97	33.15
540.168	33.24
540.366	33.29
540.563	33.29
540.761	33.28
540.958	33.29
541.155	33.34
541.353	33.35
541.55	33.36
541.748	33.34
541.945	33.32
542.143	33.42
542.34	33.46
542.537	33.49
542.735	33.55
542.932	33.6
543.129	33.68
543.327	33.81
543.524	34
543.721	34.21
543.919	34.48
544.116	34.79
544.313	34.96
544.51	35.25
544.708	35.56
544.905	35.94
545.102	36.32
545.299	36.63
545.496	36.79
545.693	36.97
545.891	37.03
546.088	37.06
546.285	37.01
546.482	36.97
546.679	36.9
546.876	36.83
547.073	36.64
547.27	36.51
547.467	36.43
547.664	36.36
547.861	36.24
548.058	36.24
548.255	36.16
548.452	36.1
548.649	35.98
548.846	35.9
549.043	35.84
549.24	35.86
549.437	35.88
549.633	35.75
549.83	35.68
550.027	35.63
550.224	35.46
550.421	35.47
550.618	35.49
550.814	35.62
551.011	35.52
551.208	35.53
551.405	35.55
551.601	35.4
551.798	35.27
551.995	35.26
552.191	35.13
552.388	35.07
552.585	35.01
552.781	34.91
552.978	34.87
553.175	35.04
553.371	35
553.568	34.88
553.764	34.96
553.961	35.14
554.157	35.27
554.354	35.36
554.55	35.53
554.747	35.53
554.943	35.6
555.14	35.52
555.336	35.34
555.533	35.26
555.729	35.2
555.926	35.29
556.122	35.32
556.318	35.17
556.515	35.22
556.711	35.15
556.907	35.19
557.104	35.1
557.3	35.01
557.496	35.02
557.693	35.01
557.889	35
558.085	34.88
558.281	34.91
558.478	34.99
558.674	34.91
558.87	34.87
559.066	34.78
559.262	34.73
559.459	34.72
559.655	34.84
559.851	35.03
560.047	35.23
560.243	35.34
560.439	35.21
560.635	35.26
560.831	35.28
561.027	35.34
561.223	35.38
561.419	35.53
561.615	35.85
561.811	35.82
562.007	35.82
562.203	35.81
562.399	35.84
562.595	35.88
562.791	35.92
562.987	35.92
563.183	36.04
563.379	36.16
563.575	36.13
563.771	36.03
563.966	35.97
564.162	35.92
564.358	35.96
564.554	35.77
564.75	35.7
564.945	35.66
565.141	35.76
565.337	35.68
565.533	35.54
565.728	35.66
565.924	35.54
566.12	35.62
566.315	35.68
566.511	35.54
566.707	35.61
566.902	35.67
567.098	35.7
567.293	35.65
567.489	35.62
567.684	35.74
567.88	35.85
568.076	35.9
568.271	35.77
568.467	35.71
568.662	35.87
568.858	35.78
569.053	35.92
569.248	35.92
569.444	36.02
569.639	36.06
569.835	36.05
570.03	35.85
570.225	35.88
570.421	35.95
570.616	35.84
570.812	35.84
571.007	35.95
571.202	35.78
571.397	35.77
571.593	35.75
571.788	35.76
571.983	35.75
572.178	35.71
572.374	35.69
572.569	35.81
572.764	35.86
572.959	35.85
573.154	35.82
573.35	35.93
573.545	35.97
573.74	35.92
573.935	35.9
574.13	35.8
574.325	35.89
574.52	36.05
574.715	36.03
574.91	36.13
575.105	36.25
575.3	36.4
575.495	36.4
575.69	36.47
575.885	36.54
576.08	36.66
576.275	36.88
576.47	37.12
576.665	37.14
576.86	37.21
577.055	37.37
577.25	37.38
577.444	37.47
577.639	37.73
577.834	37.85
578.029	37.99
578.224	38.16
578.418	38.28
578.613	38.22
578.808	38.25
579.003	38.34
579.197	38.38
579.392	38.52
579.587	38.57
579.781	38.46
579.976	38.55
580.171	38.64
580.365	38.58
580.56	38.37
580.755	38.33
580.949	38.46
581.144	38.43
581.338	38.46
581.533	38.34
581.727	38.36
581.922	38.48
582.116	38.4
582.311	38.26
582.505	38.35
582.7	38.57
582.894	38.57
583.089	38.68
583.283	38.78
583.478	38.71
583.672	38.83
583.866	38.78
584.061	38.61
584.255	38.59
584.449	38.77
584.644	38.73
584.838	38.81
585.032	38.99
585.226	38.79
585.421	38.81
585.615	39.05
585.809	39.17
586.003	39.4
586.198	39.68
586.392	39.68
586.586	39.78
586.78	39.73
586.974	39.63
587.168	39.7
587.363	39.85
587.557	39.82
587.751	39.77
587.945	39.58
588.139	39.41
588.333	39.31
588.527	39.38
588.721	39.17
588.915	39.25
589.109	39.25
589.303	39.14
589.497	38.98
589.691	38.93
589.885	38.81
590.079	38.89
590.273	38.95
590.466	39
590.66	39.04
590.854	39.26
591.048	39.26
591.242	39.43
591.436	39.52
591.629	39.72
591.823	39.68
592.017	39.86
592.211	39.9
592.404	39.88
592.598	39.8
592.792	39.9
592.986	39.81
593.179	39.76
593.373	39.57
593.567	39.45
593.76	39.5
593.954	39.69
594.147	39.47
594.341	39.41
594.535	39.36
594.728	39.28
594.922	39.2
595.115	39.2
595.309	39.24
595.502	39.22
595.696	39.18
595.889	39
596.083	38.71
596.276	38.7
596.47	38.66
596.663	38.68
596.856	38.82
597.05	38.95
597.243	39.05
597.437	39.18
597.63	39.28
597.823	39.41
598.017	39.49
598.21	39.63
598.403	39.85
598.596	40.01
598.79	40.15
598.983	40.2
599.176	40.17
599.369	40.11
599.563	40.09
599.756	40.19
599.949	40.15
600.142	40.06
600.335	40.28
600.528	40.23
600.722	40.21
600.915	40.19
601.108	40.1
601.301	40.11
601.494	40.05
601.687	39.98
601.88	39.77
602.073	39.65
602.266	39.75
602.459	39.52
602.652	39.54
602.845	39.64
603.038	39.47
603.231	39.41
603.424	39.32
603.617	39.16
603.809	39.07
604.002	39.12
604.195	39.24
604.388	39.18
604.581	39.28
604.774	39.29
604.966	39.15
605.159	39.22
605.352	39.33
605.545	39.34
605.737	39.52
605.93	39.69
606.123	39.73
606.316	39.86
606.508	40.17
606.701	40.15
606.894	40.21
607.086	40.38
607.279	40.7
607.471	40.81
607.664	41.12
607.857	41.65
608.049	42.01
608.242	42.6
608.434	43.2
608.627	43.87
608.819	44.94
609.012	45.97
609.204	47.15
609.397	48.47
609.589	50
609.782	51.51
609.974	52.91
610.166	54.48
610.359	56.18
610.551	57.63
610.743	58.84
610.936	59.82
611.128	60.73
611.32	61.45
611.513	61.62
611.705	61.66
611.897	61.71
612.09	61.27
612.282	60.75
612.474	59.9
612.666	59.18
612.858	58.33
613.051	57.61
613.243	56.75
613.435	55.86
613.627	55.18
613.819	54.45
614.011	53.56
614.203	53.03
614.395	52.39
614.588	51.71
614.78	50.81
614.972	50.35
615.164	49.65
615.356	49.03
615.548	48.47
615.74	47.82
615.932	47.25
616.124	46.66
616.315	46.32
616.507	45.67
616.699	45.25
616.891	45.02
617.083	44.49
617.275	44.32
617.467	43.98
617.659	43.87
617.85	43.81
618.042	43.9
618.234	43.89
618.426	43.51
618.618	43.6
618.809	43.4
619.001	43.36
619.193	43.26
619.384	43.15
619.576	43.17
619.768	43.01
619.959	43.04
620.151	42.93
620.343	42.87
620.534	42.92
620.726	42.96
620.917	43.02
621.109	43.03
621.301	43.33
621.492	43.58
621.684	43.78
621.875	43.87
622.067	43.65
622.258	43.67
622.45	43.86
622.641	44.09
622.832	43.93
623.024	44.03
623.215	44.07
623.407	43.89
623.598	43.87
623.789	43.78
623.981	43.88
624.172	44.11
624.363	44.02
624.555	43.91
624.746	43.7
624.937	43.99
625.129	43.99
625.32	44.17
625.511	44.18
625.702	43.91
625.893	43.88
626.085	43.89
626.276	43.9
626.467	44.08
626.658	43.95
626.849	43.99
627.04	44.08
627.231	44.19
627.422	44.01
627.614	44.11
627.805	44.28
627.996	44.39
628.187	44.42
628.378	44.51
628.569	44.33
628.76	44.67
628.951	44.77
629.142	44.81
629.332	45.1
629.523	45.44
629.714	45.52
629.905	45.66
630.096	45.87
630.287	46.17
630.478	46.09
630.669	46.18
630.859	46.18
631.05	46
631.241	45.97
631.432	45.68
631.623	45.27
631.813	45.03
632.004	45.05
632.195	44.63
632.385	44.2
632.576	44.03
632.767	43.85
632.957	43.67
633.148	43.84
633.339	43.26
633.529	43.27
633.72	43.18
633.91	43.19
634.101	42.77
634.292	42.63
634.482	42.71
634.673	42.78
634.863	42.88
635.054	42.88
635.244	42.57
635.435	42.74
635.625	42.61
635.815	42.59
636.006	42.77
636.196	42.88
636.387	43.1
636.577	43.05
636.767	42.94
636.958	43.06
637.148	43.07
637.338	43.4
637.529	43.37
637.719	43.3
637.909	43.42
638.099	43.4
638.29	43.67
638.48	43.81
638.67	43.9
638.86	44.07
639.05	44.06
639.241	44.02
639.431	43.86
639.621	44.09
639.811	44.2
640.001	44.36
640.191	44.45
640.381	44.13
640.571	44.12
640.761	44.06
640.951	43.84
641.141	43.65
641.331	43.51
641.521	43.54
641.711	43.64
641.901	43.36
642.091	43.26
642.281	42.96
642.471	42.83
642.661	42.76
642.851	42.94
643.041	43.17
643.231	43.27
643.42	43.47
643.61	43.64
643.8	43.75
643.99	44.1
644.18	43.9
644.369	44.24
644.559	44.43
644.749	44.37
644.939	44.26
645.128	44.16
645.318	44.25
645.508	44.56
645.697	44.52
645.887	44.26
646.076	44.2
646.266	44.33
646.456	43.9
646.645	43.99
646.835	44.07
647.024	43.78
647.214	43.62
647.403	43.53
647.593	43.07
647.782	43.09
647.972	43.32
648.161	43.32
648.351	43.58
648.54	44.07
648.73	44.45
648.919	44.57
649.108	44.85
649.298	45.24
649.487	45.6
649.677	45.77
649.866	45.7
650.055	45.63
650.244	45.92
650.434	45.76
650.623	45.63
650.812	45.39
651.002	45.09
651.191	45.24
651.38	45.27
651.569	44.95
651.758	44.87
651.947	44.92
652.137	44.92
652.326	44.62
652.515	44.67
652.704	44.7
652.893	44.64
653.082	44.9
653.271	44.84
653.46	44.66
653.649	44.56
653.838	44.83
654.027	44.62
654.216	44.78
654.405	44.81
654.594	44.66
654.783	44.55
654.972	44.76
655.161	44.87
655.35	44.9
655.539	45.14
655.728	45.33
655.916	45.39
656.105	45.62
656.294	45.48
656.483	45.45
656.672	45.53
656.86	45.67
657.049	45.42
657.238	45.18
657.427	45.02
657.615	44.69
657.804	44.76
657.993	44.48
658.181	44.23
658.37	44.33
658.559	44.35
658.747	44.48
658.936	44.24
659.125	44.12
659.313	44.19
659.502	44.21
659.69	44.36
659.879	44.33
660.067	44.31
660.256	44.48
660.444	44.47
660.633	44.37
660.821	44.16
661.01	44.43
661.198	44.84
661.387	44.91
661.575	45.05
661.763	45.08
661.952	45.28
662.14	45.36
662.328	45.48
662.517	45.37
662.705	45.6
662.893	45.86
663.082	45.75
663.27	45.54
663.458	45.64
663.646	45.75
663.834	45.69
664.023	45.53
664.211	45.58
664.399	45.71
664.587	45.98
664.775	46.11
664.963	46.07
665.152	46.4
665.34	46.45
665.528	46.57
665.716	46.47
665.904	46.61
666.092	46.57
666.28	46.76
666.468	46.6
666.656	46.39
666.844	46.46
667.032	46.51
667.22	46.33
667.408	46.47
667.596	46.32
667.784	46.15
667.971	46.36
668.159	46.63
668.347	46.5
668.535	46.61
668.723	46.66
668.911	46.65
669.098	46.57
669.286	46.68
669.474	46.68
669.662	46.45
669.849	46.48
670.037	46.29
670.225	45.99
670.413	46.04
670.6	46.1
670.788	46.17
670.976	45.86
671.163	45.74
671.351	45.6
671.538	45.84
671.726	46.22
671.913	46.33
672.101	46.28
672.289	46.16
672.476	46.32
672.664	46.22
672.851	46.16
673.039	46.38
673.226	46.5
673.413	46.32
673.601	45.92
673.788	45.91
673.976	45.67
674.163	45.75
674.35	45.96
674.538	45.5
674.725	45.72
674.912	45.88
675.1	45.65
675.287	45.82
675.474	46.04
675.662	46.3
675.849	46.35
676.036	46.85
676.223	46.66
676.411	46.53
676.598	46.64
676.785	46.44
676.972	46.16
677.159	46.47
677.346	46.53
677.533	46.18
677.721	46.04
677.908	46.09
678.095	45.82
678.282	46.02
678.469	46.15
678.656	46.25
678.843	46.38
679.03	46.62
679.217	46.72
679.404	46.48
679.591	46.74
679.778	46.67
679.964	46.5
680.151	46.34
680.338	46.23
680.525	46.1
680.712	46.09
680.899	45.92
681.086	45.93
681.272	45.74
681.459	45.58
681.646	45.59
681.833	45.59
682.02	45.49
682.206	45.91
682.393	46.01
682.58	46.32
682.766	46.66
682.953	46.88
683.14	46.83
683.326	47.14
683.513	47.77
683.7	47.49
683.886	47.48
684.073	47.62
684.259	47.41
684.446	47.36
684.632	47.4
684.819	47.23
685.005	47.1
685.192	47.11
685.378	46.94
685.565	46.94
685.751	47.47
685.938	47.68
686.124	48.06
686.31	48.21
686.497	48.5
686.683	48.31
686.87	48.19
687.056	48.08
687.242	48.22
687.429	48.04
687.615	47.63
687.801	47.29
687.987	47.44
688.174	47.07
688.36	46.73
688.546	46.55
688.732	46.63
688.918	47.05
689.105	47.23
689.291	46.93
689.477	46.9
689.663	47.31
689.849	47.73
690.035	47.62
690.221	47.45
690.407	47.4
690.593	47.34
690.779	47.31
690.965	46.99
691.151	47.17
691.337	47.4
691.523	47.59
691.709	47.54
691.895	47.21
692.081	47.22
692.267	47.62
692.453	48.17
692.639	48.02
692.825	48.12
693.011	47.89
693.196	47.61
693.382	47.58
693.568	47.79
693.754	47.65
693.94	47.86
694.125	47.72
694.311	47.84
694.497	47.52
694.682	47.87
694.868	47.84
695.054	48.01
695.239	48.17
695.425	48.04
695.611	47.96
695.796	47.76
695.982	47.63
696.168	47.53
696.353	47.37
696.539	47.53
696.724	47.18
696.91	46.98
697.095	46.94
697.281	46.87
697.466	46.88
697.652	46.68
697.837	46.88
698.023	46.79
698.208	46.63
698.393	46.57
698.579	46.61
698.764	46.74
698.949	46.61
699.135	46.43
699.32	46.37
699.505	46.25
699.691	46.35
699.876	45.95
700.061	46.08
700.246	46.42
700.432	46.25
700.617	45.87
700.802	45.94
700.987	46.19
701.172	45.96
701.358	45.78
701.543	45.98
701.728	46.3
701.913	46.83
702.098	46.81
702.283	46.98
702.468	46.93
702.653	47.43
702.838	47.5
703.023	47.86
703.208	48.48
703.393	49.02
703.578	49.2
703.763	49.16
703.948	49.71
704.133	49.91
704.318	49.83
704.503	50.37
704.688	50.36
704.873	50.82
705.057	51.33
705.242	51.79
705.427	52.23
705.612	52.52
705.797	52.59
705.981	52.91
706.166	53.5
706.351	53.95
706.536	54.4
706.72	54.82
706.905	55.06
707.09	54.96
707.274	55
707.459	55.51
707.644	55.79
707.828	56.05
708.013	55.35
708.197	55.38
708.382	55.13
708.567	55.11
708.751	55.31
708.936	54.92
709.12	54.78
709.305	54.55
709.489	53.94
709.673	53.48
709.858	53.01
710.042	53.06
710.227	53.02
710.411	52.73
710.596	52.71
710.78	52.57
710.964	52.55
711.149	52.46
711.333	52.55
711.517	52.69
711.702	52.8
711.886	52.8
712.07	52.46
712.254	52.03
712.438	52.16
712.623	52
712.807	51.43
712.991	51.37
713.175	51.18
713.359	51.25
713.544	50.86
713.728	50.5
713.912	50.33
714.096	50.24
714.28	50.07
714.464	50.03
714.648	49.73
714.832	49.63
715.016	49.36
715.2	48.91
715.384	48.71
715.568	48.34
715.752	47.9
715.936	47.97
716.12	47.68
716.304	47.44
716.488	47.33
716.671	47.15
716.855	46.96
717.039	47.33
717.223	47.11
717.407	46.88
717.59	46.88
717.774	47.47
717.958	47.5
718.142	47.64
718.325	47.8
718.509	47.81
718.693	48.04
718.877	48.47
719.06	47.94
719.244	48.34
719.428	48.37
719.611	48.6
719.795	48.34
719.978	48.2
720.162	48.91
720.345	49.16
720.529	49.17
720.713	49.13
720.896	48.98
721.08	49.13
721.263	49.1
721.446	49.53
721.63	49.27
721.813	49.49
721.997	49.79
722.18	49.56
722.364	49.54
722.547	49.5
722.73	49.45
722.914	49.89
723.097	50.13
723.28	50.98
723.464	50.55
723.647	51.08
723.83	50.8
724.013	50.22
724.197	50.37
724.38	50.44
724.563	50.14
724.746	50.37
724.929	50.06
725.112	50.23
725.296	49.91
725.479	50.37
725.662	50.44
725.845	50.15
726.028	50.16
726.211	49.92
726.394	49.69
726.577	49.82
726.76	49.58
726.943	49.04
727.126	48.51
727.309	48.18
727.492	47.61
727.675	47.01
727.858	47.17
728.041	47.43
728.224	47.37
728.407	46.93
728.589	47.17
728.772	47.16
728.955	47.65
729.138	47.33
729.321	47.61
729.503	47.55
729.686	47.36
729.869	47.17
730.052	47.35
730.234	47.05
730.417	47.47
730.6	46.93
730.782	47.01
730.965	47.19
731.148	47.27
731.33	46.87
731.513	47.13
731.695	47.37
731.878	47.46
732.061	47.53
732.243	47.84
732.426	48.09
732.608	48.07
732.791	48.03
732.973	47.65
733.156	48.09
733.338	47.87
733.52	47.66
733.703	48.01
733.885	48.56
734.068	48.13
734.25	48.14
734.432	47.85
734.615	48.54
734.797	49.04
734.979	48.96
735.162	48.87
735.344	49.69
735.526	50
735.708	49.85
735.891	49.34
736.073	49.5
736.255	49.43
736.437	48.93
736.619	48.81
736.802	48.9
736.984	48.57
737.166	48.65
737.348	48.75
737.53	48.89
737.712	48.45
737.894	48.8
738.076	48.03
738.258	48.48
738.44	48.07
738.622	47.95
738.804	47.63
738.986	48.4
739.168	48.39
739.35	48.53
739.532	48.56
739.714	48.62
739.896	48.33
740.078	49.08
740.259	48.79
740.441	49.74
740.623	49.6
740.805	49.77
740.987	49.53
741.168	49.63
741.35	49.32
741.532	49.57
741.714	50.38
741.895	50.34
742.077	50.96
742.259	50.95
742.44	51.32
742.622	51.7
742.804	51.21
742.985	51.64
743.167	50.87
743.348	50.76
743.53	50.45
743.711	50.57
743.893	51.15
744.075	50.43
744.256	50.57
744.438	50.55
744.619	51.21
744.8	52.33
744.982	51.89
745.163	52.43
745.345	52.52
745.526	52.86
745.707	52.23
745.889	52.09
746.07	52.85
746.252	53.17
746.433	52.46
746.614	51.5
746.795	50.87
746.977	51.54
747.158	52.1
747.339	51.8
747.52	51.71
747.702	51.62
747.883	52.11
748.064	52.09
748.245	51.87
748.426	52.76
748.607	53.06
748.788	52.57
748.97	52.57
749.151	52.15
749.332	52.63
749.513	52.18
749.694	52.58
749.875	52.43
750.056	51.81
750.237	51.29
750.418	51.01
750.599	50.94
750.78	51.51
750.96	50.93
751.141	50.67
751.322	50.5
751.503	50.51
751.684	50.4
751.865	49.9
752.046	50.21
752.226	50.5
752.407	50.35
752.588	50.23
752.769	49.39
752.949	49.49
753.13	49.68
753.311	48.88
753.492	48.97
753.672	49.54
753.853	49.31
754.034	49.13
754.214	49.53
754.395	49.19
754.575	49.61
754.756	50.78
754.937	51.25
755.117	51.47
755.298	51.82
755.478	51.43
755.659	50.79
755.839	51.37
756.02	51.26
756.2	50.54
756.381	50.44
756.561	49.68
756.741	49.49
756.922	49.24
757.102	48.8
757.283	48.74
757.463	49.47
757.643	49.51
757.823	49.86
758.004	50.05
758.184	50.11
758.364	49.49
758.545	50.57
758.725	49.94
758.905	49.44
759.085	49.29
759.265	49.3
759.446	49.03
759.626	48.73
759.806	48.51
759.986	48.47
760.166	48.21
760.346	48.59
760.526	47.13
760.706	46.26
760.886	46.02
761.066	46.1
761.246	46.4
761.426	46.22
761.606	46.18
761.786	45.19
761.966	45.58
762.146	45.71
762.326	46.45
762.506	46.81
762.686	47.25
762.866	47.56
763.046	47.2
763.225	46.95
763.405	46.7
763.585	46.77
763.765	47.08
763.945	46.87
764.124	47.1
764.304	47.13
764.484	47.11
764.664	46.98
764.843	46.7
765.023	47.62
765.203	47.5
765.382	47.44
765.562	47.62
765.741	47.68
765.921	47.6
766.101	47.12
766.28	46.92
766.46	47.38
766.639	48.03
766.819	48.19
766.998	47.98
767.178	48.27
767.357	48.1
767.537	48.13
767.716	49.22
767.896	50.07
768.075	50.48
768.254	50.03
768.434	49.57
768.613	48.94
768.792	49.01
768.972	48.84
769.151	49.75
769.33	50.63
769.51	50.74
769.689	50.53
769.868	49.69
770.047	49.93
770.226	49.78
770.406	49.95
770.585	50.94
770.764	51.4
770.943	51.09
771.122	50.12
771.301	50.49
771.48	50.52
771.66	50.42
771.839	50.87
772.018	51.45
772.197	52.49
772.376	53.77
772.555	53.94
772.734	54.11
772.913	54.33
773.092	54.41
773.271	54.57
773.449	54.36
773.628	54.24
773.807	54.34
773.986	53.37
774.165	52.91
774.344	52.08
774.523	52
774.701	52.06
774.88	52.65
775.059	52.94
775.238	52.85
775.417	53.52
775.595	53.81
775.774	53.84
775.953	54.37
776.131	54.72
776.31	54.93
776.489	54.27
776.667	53.3
776.846	52.92
777.025	52.45
777.203	51.45
777.382	51.38
777.56	50.38
777.739	50.67
777.917	50.53
778.096	48.83
778.274	49.17
778.453	49.37
778.631	50.13
778.81	50.43
778.988	51.03
779.166	51.58
779.345	51.06
779.523	51.35
779.702	50.75
779.88	50.68
780.058	51.34
780.237	49.87
780.415	50.12
780.593	48.66
780.771	48.89
780.95	49.2
781.128	49.12
781.306	49.19
781.484	49.29
781.662	48.67
781.841	48.2
782.019	49.07
782.197	49.58
782.375	50.17
782.553	51.08
782.731	49.92
782.909	49.75
783.087	50.16
783.265	50.64
783.443	50.2
783.621	51.28
783.799	51.71
783.977	51.48
784.155	51.5
784.333	49.45
784.511	51.24
784.689	52.6
784.867	52.47
785.045	51.84
785.223	51.29
785.4	50.84
785.578	50.37
785.756	49.5
785.934	48.81
786.112	49.43
786.289	50.15
786.467	48.57
786.645	46.66
786.823	45.93
787	46.95
787.178	46.94
787.356	46.94
787.533	47.05
787.711	47.95
787.889	48.67
788.066	47.1
788.244	47.48
788.421	47.44
788.599	47.84
788.776	47.15
788.954	47.07
789.131	47.41
789.309	48.1
789.486	47.93
789.664	47.97
789.841	47.81
790.019	49.4
790.196	50.06
790.373	50.27
790.551	50.51
790.728	51.67
790.906	50.95
791.083	51.34
791.26	52.67
791.437	52.43
791.615	52.75
791.792	53.66
791.969	53.21
792.146	52.35
792.324	52.77
792.501	53.97
792.678	53.6
792.855	53.27
793.032	52.92
793.209	52.55
793.387	53.64
793.564	52.17
793.741	51.52
793.918	50.33
794.095	50.69
794.272	50.97
794.449	50.62
794.626	51.5
794.803	52.31
794.98	51.57
795.157	50.2
795.334	50.28
795.511	51.1
795.688	50.94
795.864	51.56
796.041	50.75
796.218	50.97
796.395	49.78
796.572	49.02
796.749	48.49
796.925	48.77
797.102	48.87
797.279	47.91
797.456	48.61
797.632	48.64
797.809	48.98
797.986	49.43
798.162	48.17
798.339	49.02
798.516	50.09
798.692	50.61
798.869	50.05
799.046	51.01
799.222	51.34
799.399	51.87
799.575	51.37
799.752	51.86
799.928	52.3
800.105	53.06
800.281	52.89
800.458	51.65
800.634	51.92
800.811	52.47
800.987	50.99
801.163	51.25
801.34	49.75
801.516	51.8
801.692	51.53
801.869	52.24
802.045	52.4
802.221	52.1
802.398	52.24
802.574	51.22
802.75	51.51
802.926	51.84
803.103	51.35
803.279	51.89
803.455	48.51
803.631	48.85
803.807	48.09
803.983	47.95
804.16	48.3
804.336	49.03
804.512	49.42
804.688	48.86
804.864	49.41
805.04	49.7
805.216	49.61
805.392	51.93
805.568	52.69
805.744	53.07
805.92	53.52
806.096	55.51
806.272	55.44
806.448	55.05
806.623	56.02
806.799	55.7
806.975	54.94
807.151	55.22
807.327	54.79
807.503	53.63
807.678	52.45
807.854	52.81
808.03	50.57
808.206	50.54
808.381	50.72
808.557	50.92
808.733	50.86
808.908	51.28
809.084	51.86
809.26	52.37
809.435	52.11
809.611	52.9
809.787	50.77
809.962	52.45
810.138	53.86
810.313	54.03
810.489	53.82
810.664	53.89
810.84	53.87
811.015	52.52
811.191	51.34
811.366	51.85
811.542	51.6
811.717	52.79
811.892	53.35
812.068	51
812.243	50.54
812.419	49.75
812.594	49.61
812.769	48.25
812.944	48.87
813.12	49.57
813.295	49.84
813.47	49.87
813.645	49.58
813.821	49.67
813.996	49.04
814.171	50.09
814.346	49.91
814.521	51.23
814.697	52.25
814.872	52.22
815.047	51.25
815.222	50.04
815.397	50.13
815.572	50.26
815.747	48.14
815.922	49.16
816.097	47.81
816.272	47.47
816.447	46.02
816.622	46.64
816.797	46.96
816.972	48.34
817.147	49.97
817.322	49.65
817.496	49.4
817.671	49.62
817.846	47.94
818.021	46.93
818.196	46.67
818.371	47.05
818.545	47.03
818.72	46.97
818.895	46.71
819.069	46.63
819.244	46.43
819.419	45.62
819.594	45.21
819.768	46.51
819.943	46.57
820.117	47.11
820.292	45.64
820.467	44.33
820.641	43.06
820.816	41.98
820.99	40.28
821.165	39.74
821.339	39.8
821.514	39.79
821.688	39.22
821.863	39.34
822.037	39
822.212	38.93
822.386	38.82
822.56	38.54
822.735	38.4
822.909	38.6
823.084	38.39
823.258	38.05
823.432	37.64
823.606	37.55
823.781	37.34
823.955	37.14
824.129	37.08
824.303	36.82
824.478	36.97
824.652	37.11
824.826	36.36
825	37.02
825.174	37.69
825.348	38.12
825.523	38.92
825.697	39.07
825.871	38.72
826.045	39.07
826.219	39.88
826.393	39.96
826.567	39.92
826.741	40.6
826.915	40.34
827.089	39.8
827.263	39.38
827.437	38.87
827.611	39.16
827.784	39.89
827.958	39.38
828.132	39.66
828.306	39.77
828.48	39.87
828.654	40.28
828.827	39.96
829.001	40.69
829.175	41.7
829.349	42.4
829.522	41.97
829.696	42.36
829.87	44.07
830.044	43.19
830.217	43.67
830.391	43.9
830.565	44.08
830.738	45.12
830.912	44.21
831.085	44.22
831.259	44.32
831.432	43.5
831.606	44.14
831.779	44.39
831.953	44.22
832.126	43.66
832.3	43.94
832.473	44.69
832.647	44.4
832.82	45.58
832.994	44.72
833.167	43.99
833.34	44.23
833.514	43.43
833.687	42.31
833.86	43.11
834.034	43
834.207	42.85
834.38	41.81
834.553	41.55
834.727	41.01
834.9	40.71
835.073	40.69
835.246	41.64
835.419	42.34
835.593	42.48
835.766	41.87
835.939	42.66
836.112	42.54
836.285	43.39
836.458	44.48
836.631	44.56
836.804	46.17
836.977	45.58
837.15	45.16
837.323	43.9
837.496	44.41
837.669	44.85
837.842	46.77
838.015	48.28
838.188	50.41
838.361	50.87
838.533	50.87
838.706	52.48
838.879	56.75
839.052	57.06
839.225	59.03
839.398	58.73
839.57	58.85
839.743	56.86
839.916	57.12
840.088	56.47
840.261	55.21
840.434	54.41
840.607	53.39
840.779	53.87
840.952	53.73
841.124	53.31
841.297	55.08
841.47	55
841.642	56.55
841.815	56.37
841.987	57.34
842.16	58.34
842.332	58.6
842.505	59.21
842.677	58.81
842.85	57.01
843.022	59.6
843.194	58.04
843.367	61.3
843.539	59.42
843.712	58.83
843.884	57.24
844.056	57.36
844.229	63.18
844.401	64.37
844.573	62.3
844.745	67.21
844.918	65.81
845.09	66.66
845.262	65.68
845.434	69.35
845.606	69.45
845.779	71.52
845.951	71.96
846.123	67.96
846.295	68.34
846.467	71.48
846.639	72
846.811	72.53
846.983	77.14
847.155	73.96
847.327	71.72
847.499	72.89
847.671	67.84
847.843	70.85
848.015	76.77
848.187	75.86
848.359	70.06
848.531	72.47
848.703	73.59
848.875	70.69
849.047	72.54
849.218	70.9
849.39	73.4
849.562	78.75
849.734	80.44
849.905	77.21
850.077	76.53
850.249	80.98
850.421	80.93
850.592	83.86
850.764	83.34
850.936	83.62
851.107	82.35
851.279	82.21
851.451	79.72
851.622	70.85
851.794	75.71
851.965	76.21
852.137	81.73
852.308	80.01
852.48	70.16
852.651	71.31
852.823	72.85
852.994	76.75
853.166	77.56
853.337	77.43
853.509	78.59
853.68	75.05
853.851	75.23
854.023	68.37
854.194	67.43
854.365	71.49
854.537	69.33
854.708	70.67
854.879	72.86
855.05	73.88
855.222	77.99
855.393	80.89
855.564	85.68
855.735	82.88
855.906	86.32
856.078	88.53
856.249	85.79
856.42	85.54
856.591	83.05
856.762	77.84
856.933	76.85
857.104	75.41
857.275	75.48
857.446	68.91
857.617	74.83
857.788	80.6
857.959	84.7
858.13	86.26
858.301	88.61
858.472	88.6
858.643	90.49
858.814	85.27
858.985	83.15
859.155	79.82
859.326	78.03
859.497	78.36
859.668	72.42
859.839	69.35
860.009	69.11
860.18	65.39
860.351	69.77
860.522	72.96
860.692	76.28
860.863	76.48
861.034	86.23
861.204	87
861.375	82.72
861.546	85.08
861.716	83.41
861.887	84.12
862.057	88.27
862.228	83.26
862.398	80.44
862.569	82.45
862.739	88.2
862.91	86.72
863.08	87.22
863.251	88.66
863.421	85.67
863.592	83.38
863.762	82.32
863.932	75.65
864.103	78.61
864.273	79.74
864.443	75.57
864.614	71.47
864.784	66.87
864.954	74.12
865.125	72.74
865.295	75.38
865.465	81.47
865.635	81.29
865.805	87.67
865.976	82.56
866.146	83.23
866.316	84.4
866.486	79.72
866.656	80.24
866.826	77.92
866.996	77.23
867.166	72.58
867.336	66.29
867.506	67.95
867.676	62.63
867.846	63.78
868.016	63.82
868.186	66.84
868.356	70.35
868.526	65.29
868.696	62.71
868.866	60.85
869.036	62.25
869.206	62.25
869.376	61.23
869.545	63.35
869.715	63.8
869.885	60.47
870.055	55.4
870.224	55.77
870.394	60.83
870.564	61.16
870.734	68.35
870.903	70.37
871.073	73.32
871.243	74.02
871.412	74.07
871.582	72.72
871.751	81.3
871.921	83.84
872.091	83.82
872.26	82.09
872.43	81.57
872.599	76.61
872.769	76.41
872.938	75.84
873.108	78.3
873.277	78.65
873.446	79.15
873.616	70.9
873.785	73.46
873.955	69.77
874.124	73.04
874.293	75.67
874.463	77.47
874.632	83
874.801	82.9
874.971	77.57
875.14	76.3
875.309	76.89
875.478	76.98
875.647	81.33
875.817	84.62
875.986	83.37
876.155	76.44
876.324	70.91
876.493	67.17
876.662	66.38
876.831	66.84
877	70.23
877.17	68.14
877.339	69.56
877.508	66.88
877.677	69.27
877.846	61.43
878.015	64.5
878.184	65.64
878.352	64.62
878.521	61.37
878.69	62.91
878.859	62.76
879.028	60.91
879.197	57.97
879.366	52.68
879.534	47.77
879.703	47.62
879.872	47.05
880.041	43.69
880.21	41.57
880.378	42.12
880.547	38.62
880.716	35.92
880.884	35.37
881.053	35.98
881.222	37.67
881.39	37.08
881.559	37.17
881.727	36.46
881.896	36.11
882.065	35.24
882.233	34.08
882.402	34.81
882.57	34.77
882.739	35.01
882.907	34.64
883.076	33.76
883.244	33.23
883.412	33.73
883.581	33.44
883.749	34.26
883.918	34.07
884.086	34.42
884.254	34.06
884.423	34.19
884.591	34.21
884.759	33.87
884.927	32.4
885.096	33.47
885.264	34.08
885.432	35.28
885.6	36.13
885.769	38.68
885.937	40.96
886.105	42.43
886.273	43.8
886.441	42.35
886.609	47.69
886.777	53.6
886.945	56.69
887.113	54.75
887.281	54.83
887.449	53.91
887.617	52.62
887.785	54.67
887.953	56.37
888.121	57.9
888.289	64.88
888.457	63.38
888.625	58.51
888.793	54.57
888.961	58.74
889.129	61.5
889.296	69.18
889.464	73.33
889.632	70.39
889.8	70.39
889.967	71.44
890.135	68.43
