Data from 2938771__Reflection_06.txt Node
Date: Fri Mar 13 15:14:00 EDT 2015
User: robert
Spectrometer: USB4E03002
Autoset integration time: false
Trigger mode: 4
Integration Time (sec): 1.000000E-1
Scans to average: 10
Electric dark correction enabled: false
Nonlinearity correction enabled: false
Boxcar width: 5
Stray light correction enabled: false
XAxis mode: Wavelengths
Stop averaging: false
Number of Pixels in Spectrum: 3648
>>>>>Begin Spectral Data<<<<<
177.575	-350
177.794	-824.66
178.014	-2633.33
178.233	1285.07
178.452	2162.16
178.672	547.16
178.891	574.39
179.11	3265.22
179.33	-934.33
179.549	-438.89
179.768	-1680
179.987	773.13
180.207	2177.78
180.426	892.31
180.645	-1531.43
180.864	-1164.52
181.084	-203.15
181.303	-255.14
181.522	-1346.81
181.741	4540
181.96	313.33
182.179	266.58
182.398	185.35
182.618	157.95
182.837	246.86
183.056	217.24
183.275	160.2
183.494	159.38
183.713	196.82
183.932	213.31
184.151	179.03
184.37	175.48
184.589	228.09
184.808	501.11
185.027	173.68
185.246	143.44
185.465	117.49
185.684	121.61
185.903	104.09
186.122	97.63
186.341	98.78
186.56	105.36
186.779	114.89
186.998	126.26
187.216	202.83
187.435	547.46
187.654	224.54
187.873	182.71
188.092	204.93
188.311	408.09
188.53	326.44
188.748	903.12
188.967	-2295.83
189.186	621.01
189.405	735.25
189.623	379.71
189.842	320.53
190.061	337.98
190.28	429.97
190.498	286.63
190.717	227.18
190.936	229.17
191.154	212.96
191.373	243.85
191.592	233.08
191.81	168.85
192.029	153.28
192.248	116.57
192.466	132.74
192.685	135.24
192.904	159.02
193.122	148.06
193.341	225.45
193.559	391.88
193.778	226.88
193.996	260.2
194.215	2480
194.433	598.13
194.652	568.24
194.87	1002.13
195.089	17560
195.307	3392.31
195.526	-794.39
195.744	2089.36
195.963	524.04
196.181	411.16
196.399	292.27
196.618	265.87
196.836	322.74
197.055	610.39
197.273	849.45
197.491	2394.12
197.71	1270.37
197.928	468.16
198.146	678.81
198.365	1130.67
198.583	1274.24
198.801	-355.46
199.019	-313.79
199.238	-247.77
199.456	-188.29
199.674	-243.71
199.892	-266.67
200.111	-253.48
200.329	-163.55
200.547	-124.25
200.765	-247.87
200.983	-248.97
201.202	-422.43
201.42	-922.92
201.638	1543.48
201.856	445.36
202.074	1114.63
202.292	318.42
202.51	349.61
202.728	223.83
202.946	440.27
203.165	934.92
203.383	29600
203.601	426.76
203.819	482.18
204.037	245.45
204.255	249.77
204.473	148.66
204.691	286.74
204.909	154.77
205.127	211.3
205.345	136.98
205.562	116.72
205.78	132.37
205.998	92.82
206.216	101.09
206.434	129.01
206.652	143.4
206.87	187.08
207.088	146.45
207.306	202.51
207.523	190
207.741	178.33
207.959	175.66
208.177	163.64
208.395	190.28
208.612	243.08
208.83	210.22
209.048	234.98
209.266	1216.67
209.483	-808.82
209.701	-1212
209.919	468.75
210.136	6740
210.354	-880.56
210.572	-121.31
210.79	477.57
211.007	186.79
211.225	600
211.442	173.86
211.66	110.16
211.878	99.82
212.095	234.76
212.313	251.95
212.53	222.78
212.748	199.19
212.966	163.55
213.183	165.62
213.401	166.83
213.618	135.03
213.836	127.63
214.053	150.82
214.271	163.05
214.488	52.42
214.705	46.19
214.923	40.87
215.14	45.4
215.358	42.07
215.575	44.24
215.793	47.48
216.01	56.53
216.227	69.94
216.445	82.16
216.662	82.45
216.879	80.73
217.097	90.03
217.314	113.48
217.531	123.81
217.749	112.18
217.966	128.65
218.183	132.41
218.4	104.24
218.618	97.72
218.835	62.88
219.052	56.68
219.269	56.19
219.487	27.09
219.704	13.21
219.921	10.92
220.138	22.93
220.355	19.83
220.572	13.28
220.79	16.68
221.007	4.33
221.224	10.02
221.441	13.49
221.658	24.38
221.875	38.83
222.092	45.18
222.309	44.76
222.526	34.65
222.743	31.34
222.96	34.43
223.177	44.65
223.394	42.35
223.611	42.89
223.828	44.04
224.045	42.16
224.262	43.99
224.479	39.28
224.696	38.16
224.913	37.83
225.13	39.51
225.347	41.46
225.564	37.06
225.781	40.17
225.997	35
226.214	30.82
226.431	26.84
226.648	18.92
226.865	18.14
227.082	15.26
227.298	14.5
227.515	12.82
227.732	10.62
227.949	8.99
228.165	7.16
228.382	7.27
228.599	6.39
228.816	6.25
229.032	6.35
229.249	6.06
229.466	6.88
229.682	6.98
229.899	6.15
230.116	5.97
230.332	6.6
230.549	6.68
230.765	6.68
230.982	6.96
231.199	7.84
231.415	9.43
231.632	10.06
231.848	11.6
232.065	10.62
232.281	11.05
232.498	11.96
232.714	12.77
232.931	12.95
233.147	13.49
233.364	13.89
233.58	13.02
233.797	11.56
234.013	9.56
234.23	7.18
234.446	8.28
234.662	8.08
234.879	7.71
235.095	7.52
235.312	9.62
235.528	9.17
235.744	6.52
235.961	7.92
236.177	8.14
236.393	9.86
236.61	10.18
236.826	9.52
237.042	11.03
237.258	10.69
237.475	11.45
237.691	9.77
237.907	10.16
238.123	13.07
238.339	11.5
238.556	11.04
238.772	10.99
238.988	9.53
239.204	9.56
239.42	9.47
239.636	10.57
239.853	8.67
240.069	9.18
240.285	7.79
240.501	7.02
240.717	8.29
240.933	8.24
241.149	7.66
241.365	8.3
241.581	7.74
241.797	7.32
242.013	6.84
242.229	7.22
242.445	7.04
242.661	7.74
242.877	7.78
243.093	7.21
243.309	6.94
243.525	7.07
243.741	6.82
243.957	8.16
244.173	7.97
244.388	7.91
244.604	7.79
244.82	7.44
245.036	6.81
245.252	6.28
245.468	6.41
245.683	7.15
245.899	6.98
246.115	6.87
246.331	6.41
246.547	6.69
246.762	6.67
246.978	6.84
247.194	7.01
247.409	7.26
247.625	7.56
247.841	7.69
248.057	7.49
248.272	7.58
248.488	7.71
248.703	7.84
248.919	8.06
249.135	8.38
249.35	8.14
249.566	8.32
249.782	8.3
249.997	8.42
250.213	8.51
250.428	8.57
250.644	8.09
250.859	8.4
251.075	8.55
251.29	8.43
251.506	9.12
251.721	9.2
251.937	8.93
252.152	8.98
252.368	9.3
252.583	9.24
252.798	9.22
253.014	9.92
253.229	9.52
253.445	8.72
253.66	8.33
253.875	6.89
254.091	6.55
254.306	6.16
254.521	5.75
254.737	5.34
254.952	4.29
255.167	3.65
255.383	3.6
255.598	3.64
255.813	4.91
256.028	4.98
256.244	5.61
256.459	6.23
256.674	6.2
256.889	6.48
257.104	5.89
257.32	6.66
257.535	6.78
257.75	6.5
257.965	6.12
258.18	5.76
258.395	5.88
258.61	6.33
258.826	6.03
259.041	6.13
259.256	6.13
259.471	5.96
259.686	5.68
259.901	5.83
260.116	5.69
260.331	6.01
260.546	5.83
260.761	5.81
260.976	5.49
261.191	5.58
261.406	5.38
261.621	5.35
261.836	5.6
262.05	5.41
262.265	5.3
262.48	5.21
262.695	4.75
262.91	4.91
263.125	4.41
263.34	4.6
263.555	4.64
263.769	4.81
263.984	4.33
264.199	3.52
264.414	3.86
264.629	4.04
264.843	4.81
265.058	5.07
265.273	5.4
265.488	6.35
265.702	6.9
265.917	6.89
266.132	6.83
266.346	6.76
266.561	7.51
266.776	7.5
266.99	7.13
267.205	6.8
267.42	6.7
267.634	6.47
267.849	6.21
268.063	5.6
268.278	5.3
268.492	5.26
268.707	5.05
268.922	4.72
269.136	5.47
269.351	5.4
269.565	5.37
269.78	5.47
269.994	5.91
270.209	5.37
270.423	5.51
270.637	5.35
270.852	5.21
271.066	5.64
271.281	5.9
271.495	5.34
271.709	5.44
271.924	5.38
272.138	5.39
272.353	4.88
272.567	5.47
272.781	5.25
272.996	5.63
273.21	6.13
273.424	6.05
273.638	5.85
273.853	5.7
274.067	5.71
274.281	5.51
274.495	5.06
274.71	5.53
274.924	5.33
275.138	5.53
275.352	5.11
275.566	4.46
275.781	4.3
275.995	4.52
276.209	4.64
276.423	4.29
276.637	4.66
276.851	5.4
277.065	5.42
277.279	5.32
277.493	5.47
277.707	5.7
277.921	5.7
278.135	5.62
278.349	5.03
278.563	5.09
278.777	5.69
278.991	5.85
279.205	5.36
279.419	4.96
279.633	4.62
279.847	4.31
280.061	3.97
280.275	4.3
280.489	4.65
280.703	4.64
280.917	4.44
281.131	4.05
281.344	3.68
281.558	3.69
281.772	3.88
281.986	3.87
282.2	3.92
282.414	4.34
282.627	4.29
282.841	4.36
283.055	4.8
283.269	4.54
283.482	4.66
283.696	4.73
283.91	4.62
284.123	4.7
284.337	4.97
284.551	5.14
284.764	5.14
284.978	4.82
285.192	4.54
285.405	4.37
285.619	4.3
285.833	4.15
286.046	4.12
286.26	4.22
286.473	4.21
286.687	4.25
286.9	4.12
287.114	4.05
287.327	4.2
287.541	4.37
287.754	4.65
287.968	5.24
288.181	5.65
288.395	5.94
288.608	6.16
288.822	6.02
289.035	5.84
289.248	5.61
289.462	5.74
289.675	5.93
289.889	5.98
290.102	5.9
290.315	5.85
290.529	6.02
290.742	5.74
290.955	5.51
291.169	5.83
291.382	6.02
291.595	6.47
291.808	6.44
292.022	6.34
292.235	6.03
292.448	6
292.661	5.45
292.875	4.89
293.088	5.34
293.301	5.36
293.514	5.37
293.727	5.44
293.94	5.2
294.153	5.23
294.367	5.12
294.58	5.31
294.793	5.24
295.006	5.44
295.219	5.61
295.432	5.28
295.645	5.73
295.858	5.29
296.071	5.28
296.284	5.18
296.497	4.95
296.71	5.15
296.923	5.43
297.136	5.35
297.349	5.51
297.562	5.42
297.775	5.6
297.988	5.58
298.201	5.79
298.414	5.8
298.626	5.88
298.839	5.91
299.052	5.74
299.265	5.46
299.478	5.68
299.691	5.64
299.903	5.71
300.116	5.71
300.329	5.63
300.542	5.73
300.755	5.51
300.967	5.56
301.18	5.94
301.393	6.2
301.605	6.45
301.818	6.56
302.031	6.69
302.243	6.58
302.456	6.53
302.669	6.23
302.881	6.32
303.094	6.25
303.307	6.46
303.519	6.23
303.732	6.3
303.944	6.01
304.157	5.99
304.37	6.35
304.582	6.68
304.795	6.54
305.007	7.01
305.22	6.83
305.432	7.18
305.645	7.04
305.857	7.45
306.069	7.45
306.282	7.6
306.494	7.28
306.707	6.87
306.919	6.44
307.132	6.6
307.344	6.42
307.556	6.79
307.769	6.86
307.981	7.14
308.193	6.75
308.406	6.7
308.618	6.67
308.83	6.92
309.043	7.1
309.255	7.44
309.467	7.52
309.679	7.39
309.892	7.34
310.104	7.46
310.316	7.01
310.528	7.27
310.74	7.54
310.953	7.7
311.165	7.7
311.377	7.47
311.589	7.52
311.801	7.44
312.013	7.35
312.225	7.25
312.437	7.18
312.649	7.53
312.862	7.54
313.074	7.02
313.286	7.25
313.498	6.98
313.71	7.58
313.922	7.64
314.134	8.01
314.346	8.21
314.558	8.7
314.77	8.6
314.982	8.76
315.193	8.83
315.405	9.58
315.617	9.12
315.829	9.51
316.041	9.37
316.253	9.13
316.465	9.48
316.677	9.62
316.888	9.55
317.1	9.55
317.312	9.74
317.524	9.45
317.736	9.45
317.947	9.94
318.159	10.77
318.371	10.54
318.583	10.86
318.794	10.67
319.006	10.84
319.218	10.39
319.43	10.29
319.641	10.41
319.853	11.09
320.064	10.56
320.276	10.72
320.488	9.89
320.699	10.37
320.911	10.89
321.123	10.95
321.334	10.86
321.546	11.3
321.757	11.45
321.969	11.01
322.18	11.16
322.392	11.71
322.603	11.5
322.815	11.58
323.026	11.99
323.238	11.8
323.449	11.97
323.661	12.17
323.872	12.2
324.083	12.69
324.295	13.1
324.506	12.89
324.718	12.81
324.929	12.96
325.14	13.26
325.352	13.08
325.563	13.25
325.774	13.19
325.986	13.52
326.197	13.95
326.408	14.36
326.62	14.72
326.831	15.06
327.042	15.43
327.253	15.73
327.464	16.31
327.676	16.63
327.887	16.91
328.098	17.32
328.309	17.49
328.52	18.14
328.732	18.61
328.943	19.1
329.154	19.62
329.365	20.3
329.576	20.65
329.787	20.86
329.998	21.04
330.209	21.84
330.42	22.56
330.631	23.09
330.842	23.16
331.053	23.65
331.264	23.92
331.475	24.03
331.686	24.19
331.897	24.87
332.108	25.35
332.319	26.23
332.53	26.53
332.741	26.96
332.952	27.38
333.163	27.28
333.374	26.87
333.585	27.05
333.795	27.42
334.006	27.82
334.217	27.85
334.428	28.17
334.639	28.34
334.849	28.25
335.06	28.05
335.271	28.27
335.482	28.82
335.692	29.62
335.903	29.67
336.114	29.94
336.325	29.95
336.535	30.27
336.746	30.28
336.957	30.28
337.167	30.33
337.378	30.66
337.589	30.93
337.799	30.83
338.01	30.69
338.22	31.01
338.431	31.25
338.642	31.28
338.852	31.23
339.063	31.46
339.273	31.44
339.484	31.68
339.694	31.36
339.905	31.33
340.115	31.62
340.326	31.58
340.536	31.87
340.746	31.77
340.957	32.06
341.167	32.02
341.378	31.72
341.588	31.59
341.799	31.66
342.009	31.83
342.219	31.5
342.43	31.47
342.64	31.9
342.85	31.83
343.061	31.64
343.271	31.42
343.481	31.2
343.691	31.23
343.902	31.51
344.112	31.58
344.322	31.57
344.532	31.7
344.743	31.93
344.953	31.56
345.163	31.35
345.373	31.39
345.583	31.58
345.793	31.71
346.004	31.74
346.214	31.71
346.424	31.62
346.634	31.8
346.844	31.96
347.054	31.61
347.264	31.62
347.474	31.7
347.684	31.75
347.894	31.69
348.104	31.93
348.314	31.93
348.524	31.65
348.734	31.54
348.944	31.66
349.154	31.6
349.364	31.7
349.574	31.84
349.784	32.18
349.994	32.29
350.204	32.22
350.413	32.25
350.623	32.34
350.833	32.25
351.043	32.17
351.253	31.9
351.463	31.97
351.672	31.74
351.882	31.79
352.092	31.67
352.302	31.75
352.511	31.74
352.721	31.68
352.931	31.9
353.141	31.96
353.35	31.88
353.56	31.94
353.77	31.54
353.979	31.51
354.189	31.34
354.399	31.12
354.608	31.07
354.818	31.18
355.027	31.43
355.237	31.1
355.447	31.24
355.656	31.51
355.866	31.56
356.075	31.64
356.285	31.72
356.494	31.72
356.704	31.54
356.913	31.52
357.123	31.37
357.332	31.02
357.542	31.06
357.751	31.11
357.96	30.94
358.17	30.85
358.379	30.89
358.589	30.78
358.798	30.85
359.007	30.74
359.217	30.63
359.426	30.56
359.635	30.56
359.845	30.45
360.054	30.06
360.263	30.1
360.472	30.14
360.682	30.1
360.891	30.16
361.1	30.07
361.309	30.21
361.519	30.09
361.728	30.2
361.937	30.08
362.146	30.02
362.355	30.2
362.564	30.12
362.774	29.96
362.983	30.03
363.192	30.13
363.401	30.01
363.61	30
363.819	30.09
364.028	29.78
364.237	29.82
364.446	29.78
364.655	29.76
364.864	29.78
365.073	29.8
365.282	29.6
365.491	29.38
365.7	29.56
365.909	29.76
366.118	29.91
366.327	29.89
366.536	29.91
366.745	30.08
366.954	29.84
367.162	30
367.371	29.92
367.58	29.85
367.789	29.69
367.998	29.62
368.207	29.23
368.415	28.78
368.624	29.07
368.833	29.1
369.042	29.16
369.25	29.39
369.459	29.16
369.668	29.36
369.877	29.44
370.085	29.48
370.294	29.38
370.503	29.62
370.711	29.75
370.92	29.67
371.129	29.66
371.337	29.44
371.546	29.67
371.754	29.87
371.963	29.82
372.171	30.04
372.38	30.07
372.589	30.12
372.797	29.75
373.006	29.57
373.214	29.41
373.423	29.36
373.631	29.48
373.84	29.38
374.048	29.05
374.256	29.11
374.465	29.03
374.673	29.32
374.882	29.34
375.09	29.64
375.298	29.89
375.507	29.89
375.715	29.61
375.923	29.47
376.132	29.18
376.34	29.32
376.548	29.29
376.757	29.17
376.965	28.85
377.173	28.56
377.381	28.44
377.59	28.25
377.798	28.5
378.006	28.62
378.214	28.66
378.423	28.69
378.631	28.49
378.839	28.29
379.047	28.18
379.255	28.45
379.463	28.56
379.671	28.33
379.879	28.63
380.088	28.46
380.296	28.6
380.504	28.41
380.712	28.61
380.92	28.77
381.128	28.81
381.336	28.96
381.544	28.76
381.752	28.66
381.96	28.97
382.168	28.85
382.376	28.76
382.584	28.94
382.791	28.98
382.999	28.79
383.207	28.69
383.415	28.74
383.623	28.53
383.831	28.44
384.039	28.58
384.247	28.31
384.454	28.24
384.662	28.22
384.87	27.72
385.078	27.63
385.285	27.75
385.493	27.7
385.701	27.46
385.909	27.4
386.116	27.64
386.324	27.66
386.532	27.76
386.739	27.68
386.947	27.68
387.155	28.02
387.362	28.02
387.57	27.65
387.778	27.84
387.985	28.04
388.193	28.03
388.4	27.95
388.608	27.9
388.816	27.88
389.023	27.93
389.231	27.8
389.438	27.47
389.646	27.42
389.853	27.72
390.061	27.57
390.268	27.38
390.475	27.31
390.683	27.09
390.89	26.98
391.098	26.95
391.305	26.73
391.512	26.71
391.72	26.77
391.927	26.98
392.135	26.88
392.342	26.76
392.549	26.9
392.756	26.74
392.964	26.69
393.171	26.55
393.378	26.37
393.586	26.45
393.793	26.52
394	26.63
394.207	26.46
394.414	26.34
394.622	26.15
394.829	25.95
395.036	26.15
395.243	26.12
395.45	26.25
395.657	26.27
395.864	26.17
396.072	26.13
396.279	25.9
396.486	25.79
396.693	25.89
396.9	26
397.107	25.98
397.314	25.87
397.521	25.81
397.728	25.72
397.935	25.79
398.142	25.95
398.349	25.97
398.556	25.79
398.763	25.89
398.97	25.81
399.177	25.81
399.383	25.77
399.59	25.84
399.797	26.09
400.004	25.97
400.211	26.02
400.418	25.93
400.625	25.93
400.831	26.17
401.038	26.17
401.245	26.23
401.452	26.27
401.658	26.3
401.865	26.13
402.072	25.88
402.279	25.87
402.485	25.73
402.692	25.59
402.899	25.57
403.105	25.7
403.312	25.52
403.519	25.3
403.725	25.3
403.932	25.27
404.138	25.4
404.345	25.32
404.552	25.38
404.758	25.35
404.965	25.33
405.171	25.25
405.378	25.02
405.584	25.03
405.791	25.02
405.997	24.84
406.204	24.86
406.41	24.97
406.617	25.1
406.823	25.28
407.029	25.25
407.236	25.18
407.442	25.21
407.649	25.36
407.855	25.31
408.061	25.28
408.268	25.29
408.474	25.26
408.68	24.9
408.887	25.01
409.093	24.82
409.299	24.85
409.505	25
409.712	25.02
409.918	24.87
410.124	25.03
410.33	25.35
410.537	25.41
410.743	25.36
410.949	25.31
411.155	25.11
411.361	25.22
411.567	25.23
411.773	25.24
411.98	25.06
412.186	25.01
412.392	24.88
412.598	24.6
412.804	24.62
413.01	24.59
413.216	24.94
413.422	24.97
413.628	24.95
413.834	24.95
414.04	24.8
414.246	24.87
414.452	24.81
414.658	24.78
414.864	24.82
415.07	24.96
415.275	25.04
415.481	24.85
415.687	24.85
415.893	24.73
416.099	24.61
416.305	24.55
416.511	24.56
416.716	24.62
416.922	24.61
417.128	24.6
417.334	24.46
417.539	24.36
417.745	24.38
417.951	24.46
418.157	24.5
418.362	24.48
418.568	24.51
418.774	24.45
418.979	24.46
419.185	24.46
419.391	24.39
419.596	24.46
419.802	24.42
420.008	24.35
420.213	24.16
420.419	24.06
420.624	24.05
420.83	24.07
421.035	24.06
421.241	23.96
421.446	23.95
421.652	23.95
421.857	23.94
422.063	23.93
422.268	23.97
422.474	24.05
422.679	24.12
422.885	24.12
423.09	24.04
423.295	24.08
423.501	24.2
423.706	24.14
423.911	24.13
424.117	24.1
424.322	24.08
424.527	24.09
424.733	24.19
424.938	24.12
425.143	24.12
425.349	24.17
425.554	24.19
425.759	24.16
425.964	24.27
426.169	24.37
426.375	24.34
426.58	24.43
426.785	24.48
426.99	24.37
427.195	24.51
427.4	24.57
427.605	24.64
427.811	24.66
428.016	24.59
428.221	24.55
428.426	24.55
428.631	24.59
428.836	24.59
429.041	24.52
429.246	24.52
429.451	24.53
429.656	24.59
429.861	24.62
430.066	24.65
430.271	24.77
430.476	24.69
430.681	24.58
430.886	24.43
431.09	24.57
431.295	24.64
431.5	24.74
431.705	24.75
431.91	24.77
432.115	24.74
432.32	24.82
432.524	24.81
432.729	24.91
432.934	24.9
433.139	25.08
433.343	25
433.548	24.99
433.753	25.05
433.958	24.96
434.162	25.01
434.367	25.07
434.572	24.96
434.776	24.94
434.981	25.02
435.186	25.18
435.39	25.2
435.595	25.26
435.799	25.26
436.004	25.12
436.209	25.18
436.413	25.32
436.618	25.26
436.822	25.36
437.027	25.39
437.231	25.32
437.436	25.33
437.64	25.37
437.845	25.35
438.049	25.35
438.253	25.39
438.458	25.43
438.662	25.23
438.867	25.38
439.071	25.24
439.275	25.37
439.48	25.38
439.684	25.41
439.888	25.35
440.093	25.41
440.297	25.44
440.501	25.39
440.706	25.41
440.91	25.48
441.114	25.44
441.318	25.47
441.523	25.46
441.727	25.54
441.931	25.51
442.135	25.54
442.339	25.54
442.543	25.54
442.748	25.56
442.952	25.51
443.156	25.56
443.36	25.61
443.564	25.68
443.768	25.6
443.972	25.56
444.176	25.57
444.38	25.52
444.584	25.57
444.788	25.59
444.992	25.62
445.196	25.56
445.4	25.55
445.604	25.43
445.808	25.52
446.012	25.48
446.216	25.51
446.42	25.52
446.624	25.48
446.828	25.46
447.032	25.44
447.235	25.49
447.439	25.54
447.643	25.5
447.847	25.55
448.051	25.47
448.254	25.53
448.458	25.49
448.662	25.51
448.866	25.69
449.069	25.66
449.273	25.63
449.477	25.65
449.681	25.66
449.884	25.66
450.088	25.7
450.292	25.75
450.495	25.73
450.699	25.69
450.902	25.62
451.106	25.4
451.31	25.49
451.513	25.61
451.717	25.54
451.92	25.53
452.124	25.5
452.327	25.46
452.531	25.47
452.734	25.49
452.938	25.52
453.141	25.56
453.345	25.59
453.548	25.46
453.752	25.37
453.955	25.41
454.158	25.36
454.362	25.41
454.565	25.42
454.769	25.33
454.972	25.36
455.175	25.48
455.379	25.49
455.582	25.59
455.785	25.61
455.988	25.63
456.192	25.71
456.395	25.76
456.598	25.8
456.801	25.73
457.005	25.88
457.208	25.89
457.411	25.84
457.614	25.78
457.817	25.71
458.021	25.65
458.224	25.63
458.427	25.51
458.63	25.49
458.833	25.53
459.036	25.49
459.239	25.5
459.442	25.47
459.645	25.48
459.848	25.5
460.051	25.54
460.254	25.62
460.457	25.74
460.66	25.84
460.863	25.94
461.066	25.89
461.269	26.02
461.472	25.94
461.675	25.98
461.878	26
462.081	25.98
462.284	26
462.486	26.06
462.689	25.94
462.892	25.92
463.095	25.87
463.298	26.02
463.5	25.96
463.703	25.93
463.906	26.1
464.109	26.15
464.311	26.25
464.514	26.23
464.717	26.16
464.92	26.31
465.122	26.19
465.325	26.24
465.528	26.1
465.73	26.15
465.933	26.34
466.135	26.33
466.338	26.24
466.541	26.26
466.743	26.2
466.946	26.31
467.148	26.32
467.351	26.5
467.553	26.58
467.756	26.62
467.958	26.6
468.161	26.56
468.363	26.43
468.566	26.53
468.768	26.47
468.971	26.51
469.173	26.42
469.375	26.41
469.578	26.37
469.78	26.38
469.983	26.44
470.185	26.46
470.387	26.52
470.59	26.63
470.792	26.67
470.994	26.76
471.196	26.87
471.399	27.02
471.601	27.01
471.803	26.94
472.005	26.91
472.208	26.92
472.41	27.04
472.612	27.04
472.814	26.93
473.016	26.96
473.218	26.91
473.421	26.84
473.623	26.74
473.825	26.71
474.027	26.87
474.229	26.86
474.431	26.81
474.633	26.77
474.835	26.75
475.037	26.9
475.239	26.97
475.441	26.93
475.643	26.99
475.845	26.92
476.047	26.9
476.249	26.84
476.451	26.8
476.653	26.85
476.855	26.83
477.057	26.77
477.258	26.73
477.46	26.55
477.662	26.6
477.864	26.61
478.066	26.58
478.268	26.57
478.469	26.61
478.671	26.58
478.873	26.6
479.075	26.5
479.276	26.53
479.478	26.5
479.68	26.58
479.882	26.58
480.083	26.55
480.285	26.6
480.487	26.54
480.688	26.43
480.89	26.47
481.091	26.4
481.293	26.45
481.495	26.37
481.696	26.37
481.898	26.34
482.099	26.3
482.301	26.26
482.502	26.23
482.704	26.21
482.905	26.18
483.107	26.15
483.308	26.14
483.51	26.13
483.711	26.12
483.913	26.07
484.114	26.06
484.315	26.07
484.517	26.08
484.718	26.1
484.92	26.15
485.121	26.18
485.322	26.23
485.524	26.25
485.725	26.23
485.926	26.23
486.127	26.26
486.329	26.24
486.53	26.25
486.731	26.26
486.932	26.29
487.134	26.25
487.335	26.29
487.536	26.25
487.737	26.27
487.938	26.29
488.139	26.37
488.341	26.38
488.542	26.4
488.743	26.41
488.944	26.43
489.145	26.38
489.346	26.45
489.547	26.42
489.748	26.44
489.949	26.43
490.15	26.45
490.351	26.44
490.552	26.5
490.753	26.53
490.954	26.56
491.155	26.57
491.356	26.55
491.557	26.53
491.758	26.55
491.959	26.53
492.159	26.57
492.36	26.57
492.561	26.63
492.762	26.66
492.963	26.67
493.164	26.69
493.364	26.72
493.565	26.8
493.766	26.89
493.967	26.94
494.167	27.03
494.368	27.03
494.569	27.25
494.769	27.24
494.97	27.34
495.171	27.39
495.371	27.41
495.572	27.52
495.773	27.59
495.973	27.58
496.174	27.68
496.375	27.76
496.575	27.89
496.776	27.92
496.976	27.98
497.177	27.88
497.377	28.06
497.578	28.12
497.778	28.19
497.979	28.19
498.179	28.29
498.38	28.33
498.58	28.33
498.78	28.4
498.981	28.32
499.181	28.3
499.382	28.45
499.582	28.24
499.782	28.31
499.983	28.28
500.183	28.46
500.383	28.45
500.584	28.59
500.784	28.64
500.984	28.69
501.184	28.8
501.385	28.96
501.585	29.06
501.785	29.33
501.985	29.32
502.185	29.43
502.386	29.55
502.586	29.71
502.786	29.67
502.986	29.93
503.186	29.92
503.386	29.92
503.586	29.98
503.786	30.07
503.987	30.12
504.187	30.34
504.387	30.39
504.587	30.35
504.787	30.5
504.987	30.56
505.187	30.62
505.387	30.76
505.587	30.92
505.786	31.04
505.986	31.05
506.186	31.15
506.386	31.24
506.586	31.4
506.786	31.55
506.986	31.61
507.186	31.78
507.386	31.82
507.585	31.88
507.785	31.9
507.985	32.01
508.185	32.19
508.384	32.28
508.584	32.25
508.784	32.26
508.984	32.34
509.183	32.37
509.383	32.48
509.583	32.59
509.782	32.53
509.982	32.67
510.182	32.75
510.381	32.86
510.581	32.92
510.781	33.06
510.98	33.21
511.18	33.28
511.379	33.4
511.579	33.45
511.778	33.48
511.978	33.73
512.177	33.8
512.377	33.89
512.576	33.95
512.776	34.11
512.975	34.18
513.175	34.32
513.374	34.33
513.573	34.43
513.773	34.61
513.972	34.72
514.172	34.79
514.371	34.93
514.57	34.99
514.77	34.98
514.969	34.99
515.168	35.17
515.367	35.24
515.567	35.44
515.766	35.49
515.965	35.42
516.164	35.61
516.364	35.68
516.563	35.73
516.762	35.84
516.961	35.94
517.16	36.05
517.359	36.1
517.559	36.15
517.758	36.23
517.957	36.37
518.156	36.5
518.355	36.49
518.554	36.6
518.753	36.73
518.952	36.8
519.151	36.94
519.35	36.95
519.549	37.05
519.748	37.08
519.947	37.14
520.146	37.21
520.345	37.31
520.544	37.43
520.743	37.47
520.942	37.58
521.141	37.72
521.339	37.73
521.538	37.91
521.737	38.04
521.936	38.18
522.135	38.31
522.333	38.41
522.532	38.46
522.731	38.5
522.93	38.61
523.129	38.7
523.327	38.74
523.526	38.79
523.725	38.83
523.923	38.92
524.122	38.97
524.321	39
524.519	39.04
524.718	39.07
524.917	39.2
525.115	39.26
525.314	39.25
525.512	39.31
525.711	39.46
525.909	39.47
526.108	39.5
526.306	39.56
526.505	39.6
526.703	39.65
526.902	39.7
527.1	39.72
527.299	39.74
527.497	39.81
527.696	39.86
527.894	39.86
528.092	39.93
528.291	39.93
528.489	39.95
528.688	40.02
528.886	40.05
529.084	40.14
529.283	40.18
529.481	40.26
529.679	40.3
529.877	40.33
530.076	40.39
530.274	40.47
530.472	40.59
530.67	40.7
530.869	40.77
531.067	40.86
531.265	40.88
531.463	40.93
531.661	40.99
531.859	41.02
532.057	41.12
532.255	41.17
532.454	41.15
532.652	41.14
532.85	41.22
533.048	41.17
533.246	41.21
533.444	41.21
533.642	41.32
533.84	41.35
534.038	41.38
534.236	41.4
534.434	41.51
534.632	41.59
534.83	41.6
535.027	41.56
535.225	41.71
535.423	41.78
535.621	41.87
535.819	41.87
536.017	41.86
536.215	41.92
536.412	41.97
536.61	42.01
536.808	42.09
537.006	42.16
537.203	42.29
537.401	42.25
537.599	42.24
537.797	42.33
537.994	42.43
538.192	42.62
538.39	42.76
538.587	42.78
538.785	42.73
538.983	42.84
539.18	42.91
539.378	42.86
539.575	42.94
539.773	42.93
539.97	42.91
540.168	42.87
540.366	42.79
540.563	42.78
540.761	42.82
540.958	42.85
541.155	42.8
541.353	42.84
541.55	42.89
541.748	42.94
541.945	42.98
542.143	43.04
542.34	43.07
542.537	43.16
542.735	43.21
542.932	43.29
543.129	43.42
543.327	43.52
543.524	43.55
543.721	43.68
543.919	43.81
544.116	44.02
544.313	44.17
544.51	44.31
544.708	44.48
544.905	44.66
545.102	44.77
545.299	44.79
545.496	44.91
545.693	44.96
545.891	44.92
546.088	44.88
546.285	44.74
546.482	44.66
546.679	44.6
546.876	44.59
547.073	44.51
547.27	44.47
547.467	44.48
547.664	44.35
547.861	44.34
548.058	44.37
548.255	44.38
548.452	44.41
548.649	44.4
548.846	44.46
549.043	44.35
549.24	44.3
549.437	44.28
549.633	44.21
549.83	44.2
550.027	44.26
550.224	44.32
550.421	44.29
550.618	44.23
550.814	44.27
551.011	44.19
551.208	44.21
551.405	44.12
551.601	44.13
551.798	44.09
551.995	44.06
552.191	44.05
552.388	44
552.585	44.02
552.781	44.07
552.978	44.08
553.175	44.07
553.371	43.99
553.568	44.02
553.764	43.97
553.961	44.04
554.157	44.11
554.354	44.11
554.55	44.03
554.747	43.98
554.943	43.89
555.14	43.75
555.336	43.82
555.533	43.97
555.729	44.09
555.926	44.01
556.122	44.1
556.318	44.15
556.515	44.07
556.711	44.01
556.907	43.94
557.104	44.06
557.3	44.07
557.496	43.92
557.693	43.85
557.889	43.75
558.085	43.76
558.281	43.61
558.478	43.62
558.674	43.72
558.87	43.82
559.066	44.02
559.262	43.98
559.459	43.96
559.655	44.17
559.851	44.13
560.047	44.18
560.243	44.35
560.439	44.34
560.635	44.3
560.831	44.26
561.027	44.22
561.223	44.17
561.419	44.13
561.615	44.33
561.811	44.29
562.007	44.3
562.203	44.3
562.399	44.17
562.595	44.17
562.791	44.25
562.987	44.32
563.183	44.43
563.379	44.51
563.575	44.49
563.771	44.38
563.966	44.32
564.162	44.34
564.358	44.32
564.554	44.26
564.75	44.37
564.945	44.27
565.141	44.25
565.337	44.22
565.533	44.01
565.728	44.02
565.924	44.16
566.12	44.18
566.315	44.25
566.511	44.28
566.707	44.31
566.902	44.28
567.098	44.28
567.293	44.23
567.489	44.27
567.684	44.44
567.88	44.49
568.076	44.42
568.271	44.6
568.467	44.57
568.662	44.59
568.858	44.7
569.053	44.65
569.248	44.82
569.444	44.87
569.639	44.8
569.835	44.89
570.03	45.01
570.225	44.97
570.421	44.77
570.616	44.72
570.812	44.78
571.007	44.76
571.202	44.85
571.397	44.64
571.593	44.67
571.788	44.73
571.983	44.69
572.178	44.69
572.374	44.84
572.569	44.95
572.764	45.05
572.959	44.98
573.154	45.03
573.35	45.11
573.545	45.3
573.74	45.28
573.935	45.29
574.13	45.22
574.325	45.21
574.52	45.15
574.715	45.19
574.91	45.23
575.105	45.34
575.3	45.49
575.495	45.47
575.69	45.49
575.885	45.67
576.08	45.81
576.275	45.86
576.47	45.95
576.665	46.1
576.86	46.15
577.055	46.33
577.25	46.35
577.444	46.39
577.639	46.47
577.834	46.58
578.029	46.61
578.224	46.55
578.418	46.67
578.613	46.78
578.808	46.71
579.003	46.8
579.197	46.53
579.392	46.56
579.587	46.46
579.781	46.41
579.976	46.4
580.171	46.28
580.365	46.36
580.56	46.41
580.755	46.3
580.949	46.25
581.144	46.21
581.338	46.48
581.533	46.49
581.727	46.57
581.922	46.65
582.116	46.59
582.311	46.61
582.505	46.7
582.7	46.74
582.894	46.81
583.089	47.03
583.283	46.99
583.478	46.87
583.672	46.98
583.866	46.91
584.061	46.94
584.255	47.14
584.449	47.29
584.644	47.32
584.838	47.46
585.032	47.5
585.226	47.47
585.421	47.46
585.615	47.47
585.809	47.43
586.003	47.54
586.198	47.57
586.392	47.59
586.586	47.72
586.78	47.67
586.974	47.54
587.168	47.5
587.363	47.33
587.557	47.37
587.751	47.51
587.945	47.52
588.139	47.55
588.333	47.48
588.527	47.38
588.721	47.04
588.915	46.98
589.109	46.91
589.303	47.04
589.497	47.23
589.691	47.37
589.885	47.32
590.079	47.45
590.273	47.4
590.466	47.37
590.66	47.45
590.854	47.71
591.048	47.72
591.242	47.77
591.436	47.69
591.629	47.65
591.823	47.66
592.017	47.57
592.211	47.68
592.404	47.7
592.598	47.72
592.792	47.78
592.986	47.71
593.179	47.81
593.373	47.92
593.567	47.87
593.76	48.02
593.954	48.02
594.147	48.21
594.341	47.95
594.535	47.91
594.728	47.76
594.922	47.73
595.115	47.62
595.309	47.56
595.502	47.48
595.696	47.48
595.889	47.29
596.083	47.25
596.276	47.18
596.47	47.27
596.663	47.35
596.856	47.47
597.05	47.44
597.243	47.65
597.437	47.78
597.63	47.84
597.823	47.94
598.017	48.01
598.21	48.09
598.403	48.23
598.596	48.21
598.79	48.25
598.983	48.45
599.176	48.52
599.369	48.52
599.563	48.51
599.756	48.55
599.949	48.63
600.142	48.65
600.335	48.63
600.528	48.53
600.722	48.55
600.915	48.46
601.108	48.41
601.301	48.45
601.494	48.36
601.687	48.32
601.88	48.36
602.073	48.47
602.266	48.66
602.459	48.59
602.652	48.46
602.845	48.49
603.038	48.53
603.231	48.5
603.424	48.46
603.617	48.56
603.809	48.51
604.002	48.56
604.195	48.43
604.388	48.37
604.581	48.38
604.774	48.61
604.966	48.59
605.159	48.75
605.352	48.72
605.545	48.82
605.737	48.89
605.93	49.09
606.123	49.1
606.316	49.31
606.508	49.4
606.701	49.53
606.894	49.61
607.086	49.85
607.279	49.93
607.471	50.13
607.664	50.21
607.857	50.34
608.049	50.49
608.242	50.75
608.434	50.97
608.627	51.45
608.819	52.01
609.012	52.73
609.204	53.53
609.397	54.27
609.589	55.09
609.782	56
609.974	56.94
610.166	57.8
610.359	58.72
610.551	59.51
610.743	60.02
610.936	60.64
611.128	60.91
611.32	61.09
611.513	61.29
611.705	61.61
611.897	61.48
612.09	61.23
612.282	61.1
612.474	60.61
612.666	60.25
612.858	60.08
613.051	59.64
613.243	59.16
613.435	58.73
613.627	58.34
613.819	57.76
614.011	57.5
614.203	57.07
614.395	56.82
614.588	56.56
614.78	56.32
614.972	55.66
615.164	55.18
615.356	54.92
615.548	54.39
615.74	54.15
615.932	53.94
616.124	53.39
616.315	53.28
616.507	52.83
616.699	52.58
616.891	52.17
617.083	52.13
617.275	52.22
617.467	52.11
617.659	52.14
617.85	51.98
618.042	51.77
618.234	51.87
618.426	51.96
618.618	51.94
618.809	51.84
619.001	51.97
619.193	52.08
619.384	52.13
619.576	51.89
619.768	51.97
619.959	51.86
620.151	51.76
620.343	52.07
620.534	51.9
620.726	51.8
620.917	52.07
621.109	52.26
621.301	52.34
621.492	52.14
621.684	52.44
621.875	52.41
622.067	52.35
622.258	52.35
622.45	52.2
622.641	52.06
622.832	52.33
623.024	52.12
623.215	51.97
623.407	51.8
623.598	51.7
623.789	51.57
623.981	51.68
624.172	51.7
624.363	51.8
624.555	51.53
624.746	51.56
624.937	51.36
625.129	51.44
625.32	51.31
625.511	51.35
625.702	51.41
625.893	51.56
626.085	51.45
626.276	51.43
626.467	51.41
626.658	51.43
626.849	51.4
627.04	51.37
627.231	51.32
627.422	51.52
627.614	51.57
627.805	51.61
627.996	51.64
628.187	51.8
628.378	52.07
628.569	52.29
628.76	52.52
628.951	52.92
629.142	53.17
629.332	53.5
629.523	53.58
629.714	53.68
629.905	53.88
630.096	53.91
630.287	54.03
630.478	53.85
630.669	53.74
630.859	53.68
631.05	53.37
631.241	53.36
631.432	52.94
631.623	52.78
631.813	52.58
632.004	52.33
632.195	52.16
632.385	51.95
632.576	51.99
632.767	51.81
632.957	51.63
633.148	51.59
633.339	51.48
633.529	51.6
633.72	51.61
633.91	51.5
634.101	51.46
634.292	51.4
634.482	51.42
634.673	51.23
634.863	51.42
635.054	51.56
635.244	51.54
635.435	51.44
635.625	51.49
635.815	51.47
636.006	51.63
636.196	51.81
636.387	51.84
636.577	51.58
636.767	51.55
636.958	51.47
637.148	51.31
637.338	51.34
637.529	51.42
637.719	51.45
637.909	51.3
638.099	51.39
638.29	51.34
638.48	51.4
638.67	51.76
638.86	51.95
639.05	51.83
639.241	51.86
639.431	51.81
639.621	51.93
639.811	51.82
640.001	51.97
640.191	51.96
640.381	51.89
640.571	52.04
640.761	51.78
640.951	51.73
641.141	51.9
641.331	52.11
641.521	52.13
641.711	52.16
641.901	52.17
642.091	52.16
642.281	52.08
642.471	52.11
642.661	51.98
642.851	52.18
643.041	52.25
643.231	52.14
643.42	52.12
643.61	52
643.8	51.72
643.99	51.63
644.18	51.64
644.369	51.52
644.559	51.53
644.749	51.57
644.939	51.57
645.128	51.4
645.318	51.44
645.508	51.23
645.697	51.58
645.887	51.64
646.076	52.01
646.266	51.85
646.456	51.84
646.645	51.95
646.835	51.79
647.024	51.43
647.214	51.48
647.403	51.41
647.593	51.56
647.782	51.33
647.972	51.66
648.161	51.48
648.351	51.46
648.54	51.68
648.73	51.63
648.919	51.76
649.108	51.91
649.298	52.07
649.487	52.26
649.677	52.2
649.866	52.38
650.055	52.16
650.244	52.04
650.434	52.27
650.623	52.1
650.812	52
651.002	51.83
651.191	52.07
651.38	51.98
651.569	51.96
651.758	52.06
651.947	51.97
652.137	51.99
652.326	52.07
652.515	51.93
652.704	52.15
652.893	52.3
653.082	52.55
653.271	52.42
653.46	52.59
653.649	52.29
653.838	52.4
654.027	52.4
654.216	52.1
654.405	52.04
654.594	52.13
654.783	51.97
654.972	51.91
655.161	51.89
655.35	51.81
655.539	51.86
655.728	51.89
655.916	51.51
656.105	51.24
656.294	51.7
656.483	51.94
656.672	51.8
656.86	51.75
657.049	51.82
657.238	51.7
657.427	51.62
657.615	51.27
657.804	51.49
657.993	51.44
658.181	51.32
658.37	51.15
658.559	50.84
658.747	51.04
658.936	51.13
659.125	51.05
659.313	51.18
659.502	51.18
659.69	51.28
659.879	51.26
660.067	51.41
660.256	51.64
660.444	51.63
660.633	51.82
660.821	51.7
661.01	51.69
661.198	51.69
661.387	51.69
661.575	51.85
661.763	52.09
661.952	52.18
662.14	52.23
662.328	52.32
662.517	52.29
662.705	52.22
662.893	52.24
663.082	52.05
663.27	52.04
663.458	52.09
663.646	52.13
663.834	51.91
664.023	51.75
664.211	51.67
664.399	51.5
664.587	51.71
664.775	51.85
664.963	51.87
665.152	52.22
665.34	52.38
665.528	52.02
665.716	52.08
665.904	52.23
666.092	52.23
666.28	52.32
666.468	52.48
666.656	52.49
666.844	52.41
667.032	52.37
667.22	52.31
667.408	52.28
667.596	52.68
667.784	52.49
667.971	52.56
668.159	52.68
668.347	52.78
668.535	52.76
668.723	52.58
668.911	52.66
669.098	52.82
669.286	52.62
669.474	52.67
669.662	52.52
669.849	52.56
670.037	52.22
670.225	52.13
670.413	52.21
670.6	52.56
670.788	52.71
670.976	52.8
671.163	52.82
671.351	52.82
671.538	52.64
671.726	52.67
671.913	52.78
672.101	53.06
672.289	53.16
672.476	52.96
672.664	52.7
672.851	52.52
673.039	52.46
673.226	52.4
673.413	52.35
673.601	52.41
673.788	52.44
673.976	52.22
674.163	52.07
674.35	52
674.538	51.95
674.725	51.87
674.912	52.02
675.1	52.02
675.287	52.09
675.474	52.28
675.662	52.35
675.849	52.51
676.036	52.73
676.223	52.88
676.411	52.85
676.598	53.06
676.785	53.09
676.972	53.06
677.159	53.01
677.346	53.14
677.533	53.01
677.721	53.06
677.908	52.83
678.095	52.72
678.282	52.56
678.469	52.2
678.656	52.18
678.843	52.25
679.03	52.37
679.217	52.27
679.404	52.03
679.591	52.19
679.778	52.07
679.964	51.82
680.151	52
680.338	52
680.525	52.1
680.712	52.02
680.899	52.06
681.086	51.94
681.272	51.82
681.459	52.15
681.646	52.12
681.833	52.27
682.02	52.64
682.206	52.44
682.393	52.43
682.58	52.67
682.766	52.62
682.953	52.61
683.14	52.65
683.326	52.9
683.513	52.64
683.7	52.7
683.886	52.44
684.073	52.46
684.259	52.4
684.446	52.61
684.632	52.88
684.819	53.04
685.005	53.17
685.192	53.19
685.378	53.15
685.565	53.44
685.751	53.41
685.938	53.52
686.124	53.75
686.31	53.71
686.497	53.64
686.683	53.46
686.87	53.61
687.056	53.38
687.242	52.94
687.429	52.96
687.615	52.64
687.801	52.78
687.987	52.77
688.174	52.44
688.36	52.67
688.546	52.62
688.732	52.73
688.918	52.68
689.105	52.47
689.291	52.93
689.477	53.21
689.663	53.34
689.849	53.02
690.035	53.13
690.221	53.39
690.407	53.38
690.593	53.45
690.779	53.45
690.965	53.28
691.151	53.46
691.337	53.36
691.523	52.96
691.709	53.1
691.895	53.29
692.081	53.29
692.267	52.93
692.453	52.86
692.639	52.76
692.825	52.77
693.011	52.82
693.196	52.97
693.382	52.98
693.568	53.11
693.754	52.83
693.94	53.1
694.125	53.12
694.311	53.23
694.497	53.22
694.682	53.12
694.868	52.81
695.054	52.63
695.239	52.41
695.425	52.77
695.611	52.91
695.796	52.98
695.982	52.71
696.168	52.45
696.353	52.66
696.539	52.5
696.724	52.56
696.91	52.29
697.095	52.07
697.281	52.08
697.466	51.93
697.652	51.48
697.837	51.54
698.023	51.42
698.208	51.16
698.393	50.95
698.579	51.06
698.764	51.05
698.949	51.1
699.135	51.13
699.32	51.17
699.505	50.98
699.691	51.34
699.876	50.94
700.061	50.88
700.246	51.12
700.432	51.03
700.617	50.99
700.802	51
700.987	51.44
701.172	51.64
701.358	51.81
701.543	51.79
701.728	51.83
701.913	52.29
702.098	52.48
702.283	52.94
702.468	52.99
702.653	53.38
702.838	53.45
703.023	53.46
703.208	53.84
703.393	53.71
703.578	54.17
703.763	54.4
703.948	54.7
704.133	54.88
704.318	54.91
704.503	55.49
704.688	55.68
704.873	56.13
705.057	56.15
705.242	55.92
705.427	56.13
705.612	55.96
705.797	56.22
705.981	55.95
706.166	56.09
706.351	56.4
706.536	56.49
706.72	56.45
706.905	56.2
707.09	56.32
707.274	56.62
707.459	56.74
707.644	57.14
707.828	56.64
708.013	56.75
708.197	56.76
708.382	56.52
708.567	56.25
708.751	55.98
708.936	56.13
709.12	56.12
709.305	55.81
709.489	55.39
709.673	54.87
709.858	54.8
710.042	54.53
710.227	54.8
710.411	54.83
710.596	54.66
710.78	54.76
710.964	54.47
711.149	54.29
711.333	54.52
711.517	54.77
711.702	55
711.886	55.41
712.07	55.53
712.254	55.54
712.438	55.45
712.623	55.52
712.807	55.27
712.991	55.35
713.175	55.35
713.359	55.14
713.544	55.08
713.728	54.89
713.912	54.77
714.096	54.9
714.28	54.5
714.464	54.28
714.648	54.15
714.832	54.43
715.016	54.27
715.2	54.13
715.384	54.09
715.568	54
715.752	53.72
715.936	53.54
716.12	53.19
716.304	53.12
716.488	52.96
716.671	52.92
716.855	52.68
717.039	52.87
717.223	53.15
717.407	53.27
717.59	53.39
717.774	53.84
717.958	53.62
718.142	53.7
718.325	53.57
718.509	54.06
718.693	54.02
718.877	53.75
719.06	53.4
719.244	53.14
719.428	53.01
719.611	52.88
719.795	52.63
719.978	52.39
720.162	52.38
720.345	52.04
720.529	51.68
720.713	51.66
720.896	52.01
721.08	52.5
721.263	52.12
721.446	51.62
721.63	51.91
721.813	52.61
721.997	52.95
722.18	53.13
722.364	53.79
722.547	53.69
722.73	53.95
722.914	53.83
723.097	53.57
723.28	53.89
723.464	54.44
723.647	54.29
723.83	53.3
724.013	53.62
724.197	53.56
724.38	53.18
724.563	53.25
724.746	53.24
724.929	53.09
725.112	53.67
725.296	53.81
725.479	53.52
725.662	53.25
725.845	53.46
726.028	53.5
726.211	53.86
726.394	54.13
726.577	54.2
726.76	53.89
726.943	54.43
727.126	53.76
727.309	53.72
727.492	53.96
727.675	53.77
727.858	54.26
728.041	53.9
728.224	53.68
728.407	53.76
728.589	53.9
728.772	54.03
728.955	53.8
729.138	53.73
729.321	53.22
729.503	53.44
729.686	53.64
729.869	53.48
730.052	53.54
730.234	53.43
730.417	53.46
730.6	53.28
730.782	53.14
730.965	52.75
731.148	53.06
731.33	53.54
731.513	52.98
731.695	52.93
731.878	52.81
732.061	53.07
732.243	53.59
732.426	53.37
732.608	53.03
732.791	53.41
732.973	53.65
733.156	53.63
733.338	53.62
733.52	54.04
733.703	54.38
733.885	54.38
734.068	54.07
734.25	53.92
734.432	54.21
734.615	54.5
734.797	54.55
734.979	54.57
735.162	54.28
735.344	54.22
735.526	54.01
735.708	53.82
735.891	53.9
736.073	54.06
736.255	53.5
736.437	53.66
736.619	53.98
736.802	54.11
736.984	54.4
737.166	54.7
737.348	54.91
737.53	54.96
737.712	55.22
737.894	55.14
738.076	54.86
738.258	55.02
738.44	54.9
738.622	54.99
738.804	54.59
738.986	54.39
739.168	54.19
739.35	53.86
739.532	54.2
739.714	53.83
739.896	54.08
740.078	54.5
740.259	54.68
740.441	54.45
740.623	54.18
740.805	54.13
740.987	54.05
741.168	54.15
741.35	54.62
741.532	54.76
741.714	55.28
741.895	55.11
742.077	55.24
742.259	55.54
742.44	55.52
742.622	55.73
742.804	55.49
742.985	55.59
743.167	55.34
743.348	55.08
743.53	54.94
743.711	54.95
743.893	55.43
744.075	54.95
744.256	54.58
744.438	54.46
744.619	54.08
744.8	54.68
744.982	54.62
745.163	55.58
745.345	55.66
745.526	55.75
745.707	55.29
745.889	55.02
746.07	55.38
746.252	55.48
746.433	56.2
746.614	56.93
746.795	57.56
746.977	58.06
747.158	56.9
747.339	56.72
747.52	56.54
747.702	56.46
747.883	56.87
748.064	57.44
748.245	57.29
748.426	56.65
748.607	56.95
748.788	56.19
748.97	55.62
749.151	56.26
749.332	56.87
749.513	56.49
749.694	56.76
749.875	56.16
750.056	55.44
750.237	55.88
750.418	56.28
750.599	54.98
750.78	54.5
750.96	54.9
751.141	55.27
751.322	55.12
751.503	55.35
751.684	54.7
751.865	54.69
752.046	54.49
752.226	54.02
752.407	53.6
752.588	54.18
752.769	54.74
752.949	54.03
753.13	53.12
753.311	52.39
753.492	51.92
753.672	51.98
753.853	52.1
754.034	52.69
754.214	52.93
754.395	53.46
754.575	53.35
754.756	53.45
754.937	53.61
755.117	54.3
755.298	55.05
755.478	55.88
755.659	55.95
755.839	55.68
756.02	54.85
756.2	54.59
756.381	54.01
756.561	53.63
756.741	53.42
756.922	53.77
757.102	53.27
757.283	53.12
757.463	52.48
757.643	53.04
757.823	52.53
758.004	52.22
758.184	52.88
758.364	52.89
758.545	53.61
758.725	53.11
758.905	52.72
759.085	52.33
759.265	51.89
759.446	51.97
759.626	51.34
759.806	51.37
759.986	52.08
760.166	51.02
760.346	50.55
760.526	49.89
760.706	50.36
760.886	50.21
761.066	50.46
761.246	50.59
761.426	50.2
761.606	50.3
761.786	50.63
761.966	50.26
762.146	50.23
762.326	50.09
762.506	50.17
762.686	49.68
762.866	50.13
763.046	50
763.225	50.07
763.405	49.63
763.585	50.13
763.765	50.16
763.945	50.05
764.124	50.47
764.304	51.13
764.484	51.35
764.664	51.81
764.843	51.85
765.023	52.22
765.203	52.4
765.382	53.32
765.562	53.24
765.741	53.45
765.921	54.03
766.101	54.23
766.28	53.88
766.46	53.64
766.639	53.45
766.819	53.65
766.998	53.78
767.178	53.44
767.357	53.43
767.537	52.91
767.716	53.06
767.896	53.43
768.075	52.91
768.254	53.34
768.434	53.38
768.613	53.74
768.792	53.17
768.972	53.2
769.151	53.27
769.33	52.96
769.51	54.1
769.689	54.14
769.868	54.24
770.047	54.07
770.226	53.99
770.406	53.96
770.585	54.07
770.764	54.84
770.943	54.41
771.122	54.47
771.301	55.4
771.48	54.89
771.66	54.44
771.839	54.26
772.018	54.89
772.197	54.71
772.376	55.19
772.555	55.15
772.734	55.31
772.913	55.74
773.092	56.22
773.271	55.84
773.449	55.82
773.628	55.88
773.807	55.52
773.986	55.57
774.165	55.93
774.344	56.37
774.523	56.45
774.701	56.01
774.88	56.2
775.059	56.08
775.238	56.22
775.417	55.73
775.595	56.36
775.774	56.94
775.953	56.32
776.131	55.65
776.31	55.94
776.489	56.55
776.667	56.67
776.846	56.51
777.025	56.91
777.203	56.41
777.382	57.17
777.56	56.56
777.739	57.4
777.917	57.74
778.096	58.05
778.274	57.2
778.453	55.99
778.631	55.71
778.81	55.94
778.988	55.91
779.166	55.2
779.345	55.46
779.523	55.62
779.702	54.76
779.88	54.96
780.058	55.21
780.237	54.77
780.415	55.74
780.593	56.31
780.771	55.9
780.95	55.34
781.128	56.68
781.306	55.33
781.484	55.38
781.662	55.2
781.841	54.98
782.019	54.51
782.197	55.07
782.375	54.29
782.553	53.24
782.731	53.8
782.909	54.14
783.087	53.4
783.265	54.7
783.443	54.72
783.621	53.76
783.799	54.6
783.977	54.28
784.155	54.2
784.333	54.83
784.511	54.37
784.689	53.9
784.867	53.49
785.045	54.34
785.223	52.99
785.4	52.6
785.578	54.26
785.756	54.42
785.934	54.94
786.112	54.21
786.289	54.46
786.467	54.95
786.645	54.5
786.823	54.55
787	53.67
787.178	54.6
787.356	54.65
787.533	52.92
787.711	52.49
787.889	52.93
788.066	52.82
788.244	51.99
788.421	51.31
788.599	52.2
788.776	51.86
788.954	53.34
789.131	52.81
789.309	53.13
789.486	53.49
789.664	53.58
789.841	53.99
790.019	54.82
790.196	56.03
790.373	57.12
790.551	56.36
790.728	57.17
790.906	56.85
791.083	56.6
791.26	55.66
791.437	55.39
791.615	54.78
791.792	52.75
791.969	53.21
792.146	51.96
792.324	51.91
792.501	52.19
792.678	51.73
792.855	50.73
793.032	50.23
793.209	50.58
793.387	51.08
793.564	51.69
793.741	52.96
793.918	52.21
794.095	53.04
794.272	53.63
794.449	52.67
794.626	53.36
794.803	54.56
794.98	55.86
795.157	56.61
795.334	56.77
795.511	56.39
795.688	55.8
795.864	55.13
796.041	54.44
796.218	53.62
796.395	53.97
796.572	53.87
796.749	53.05
796.925	52.42
797.102	52.73
797.279	52.19
797.456	52.39
797.632	52.33
797.809	52.67
797.986	53.47
798.162	53.07
798.339	53.55
798.516	52.67
798.692	53.13
798.869	53.65
799.046	52.6
799.222	52.99
799.399	53.72
799.575	54.81
799.752	55.89
799.928	56.81
800.105	57.19
800.281	57.67
800.458	57.94
800.634	57.38
800.811	57.32
800.987	59.17
801.163	58.97
801.34	58.34
801.516	56.62
801.692	56.03
801.869	54.93
802.045	54.6
802.221	54.72
802.398	54.92
802.574	54.63
802.75	54.8
802.926	53.08
803.103	53.97
803.279	53.69
803.455	54.48
803.631	54.75
803.807	55.15
803.983	56.69
804.16	56.88
804.336	56.58
804.512	56.87
804.688	57.53
804.864	57.87
805.04	58.56
805.216	58.12
805.392	59.64
805.568	58.94
805.744	58
805.92	55.93
806.096	55.6
806.272	56.28
806.448	55.49
806.623	55.07
806.799	55.17
806.975	54.75
807.151	55.2
807.327	54.41
807.503	53.84
807.678	54.28
807.854	55.1
808.03	54.35
808.206	53.31
808.381	55.33
808.557	55.04
808.733	54.19
808.908	53.2
809.084	51.49
809.26	51.06
809.435	52.27
809.611	51.62
809.787	53.39
809.962	53.19
810.138	52.84
810.313	50.95
810.489	51.57
810.664	51.82
810.84	52.27
811.015	54.89
811.191	55.07
811.366	53.95
811.542	54.11
811.717	53.65
811.892	53.9
812.068	54.89
812.243	55.76
812.419	55.91
812.594	55.14
812.769	54.79
812.944	54.17
813.12	54.55
813.295	54.74
813.47	54.22
813.645	53.07
813.821	53.56
813.996	53.64
814.171	54.71
814.346	53.4
814.521	55.17
814.697	53.99
814.872	54.55
815.047	54.2
815.222	55.99
815.397	56.35
815.572	54.98
815.747	54.46
815.922	54.83
816.097	53.47
816.272	53.87
816.447	52.93
816.622	54.97
816.797	53.82
816.972	54.36
817.147	53.84
817.322	53.44
817.496	54.76
817.671	54.5
817.846	54.29
818.021	53.41
818.196	53.61
818.371	52.9
818.545	52.45
818.72	52.73
818.895	52.15
819.069	50.78
819.244	50.72
819.419	48.69
819.594	49.17
819.768	48.9
819.943	50.29
820.117	49.6
820.292	49.06
820.467	49.46
820.641	48.78
820.816	47.65
820.99	47.03
821.165	46.4
821.339	46.58
821.514	45.83
821.688	45.4
821.863	44.98
822.037	44.88
822.212	44.89
822.386	44.75
822.56	44.64
822.735	44.81
822.909	44.8
823.084	45.02
823.258	45.1
823.432	45.29
823.606	45.52
823.781	45.35
823.955	45.33
824.129	45.4
824.303	45.34
824.478	45.54
824.652	45.65
824.826	46.13
825	45.86
825.174	46.17
825.348	46.74
825.523	46.97
825.697	47.06
825.871	47.23
826.045	47.48
826.219	46.85
826.393	46.91
826.567	46.86
826.741	46.39
826.915	46.97
827.089	46.41
827.263	45.69
827.437	45.02
827.611	45.6
827.784	45.69
827.958	45.45
828.132	46
828.306	46.08
828.48	46.19
828.654	46.67
828.827	46.73
829.001	47.04
829.175	47.39
829.349	48.31
829.522	48.26
829.696	48.44
829.87	49.03
830.044	49.83
830.217	49.18
830.391	49.97
830.565	50.74
830.738	50.58
830.912	50.64
831.085	51.34
831.259	52.89
831.432	51.73
831.606	52.38
831.779	52.29
831.953	50.5
832.126	51.32
832.3	50.73
832.473	49.88
832.647	49.83
832.82	50.53
832.994	49.5
833.167	48.08
833.34	48.62
833.514	47.42
833.687	46.95
833.86	46.83
834.034	46.73
834.207	46.37
834.38	46.65
834.553	46.41
834.727	46.2
834.9	46.66
835.073	46.61
835.246	46.6
835.419	47.21
835.593	47.29
835.766	48.38
835.939	48.81
836.112	49.36
836.285	49.82
836.458	50.04
836.631	49.62
836.804	50.32
836.977	52.07
837.15	52.93
837.323	54.46
837.496	56.81
837.669	56.57
837.842	56.41
838.015	56.17
838.188	54.84
838.361	56.29
838.533	56.44
838.706	57.87
838.879	55.76
839.052	53.74
839.225	51.99
839.398	51.41
839.57	50.56
839.743	51.09
839.916	51.82
840.088	54.23
840.261	53.42
840.434	53.43
840.607	52.18
840.779	52.71
840.952	54.09
841.124	55.65
841.297	54.73
841.47	54.31
841.642	52.29
841.815	51.81
841.987	51.82
842.16	52.03
842.332	52.28
842.505	52.77
842.677	53.82
842.85	55.43
843.022	53.27
843.194	56.22
843.367	58.65
843.539	62.61
843.712	61.95
843.884	61.29
844.056	61.23
844.229	64.15
844.401	63.96
844.573	63.58
844.745	62.75
844.918	66.33
845.09	64.56
845.262	62.02
845.434	59.02
845.606	61.82
845.779	59.25
845.951	59.82
846.123	59.86
846.295	59.42
846.467	56.34
846.639	57
846.811	55.11
846.983	52.09
847.155	54.53
847.327	55.11
847.499	52.14
847.671	57.18
847.843	56.72
848.015	57.3
848.187	57.49
848.359	58.84
848.531	57.31
848.703	57.31
848.875	58.24
849.047	58.26
849.218	60.15
849.39	60.86
849.562	55.7
849.734	53.55
849.905	51.8
850.077	55.63
850.249	57.38
850.421	58.48
850.592	61.05
850.764	64.24
850.936	66.01
851.107	66.86
851.279	68.16
851.451	73.57
851.622	77.54
851.794	77.4
851.965	72.52
852.137	70.59
852.308	66.97
852.48	68.6
852.651	69.41
852.823	68.06
852.994	64.75
853.166	63.42
853.337	60.85
853.509	62.85
853.68	63.44
853.851	66.55
854.023	71.04
854.194	74.52
854.365	73.69
854.537	71.69
854.708	73.49
854.879	70.68
855.05	76.6
855.222	76.63
855.393	78.96
855.564	79.05
855.735	73.28
855.906	74.12
856.078	74.68
856.249	75.2
856.42	74.09
856.591	73.33
856.762	77.36
856.933	69.86
857.104	68.25
857.275	66.42
857.446	66.14
857.617	68.84
857.788	68.16
857.959	67.11
858.13	64.77
858.301	68.98
858.472	66.32
858.643	68.03
858.814	69.61
858.985	69.62
859.155	65.85
859.326	66.75
859.497	64.89
859.668	59.9
859.839	61.06
860.009	59.97
860.18	54.75
860.351	55.45
860.522	53.02
860.692	57.28
860.863	56.92
861.034	54.81
861.204	51.72
861.375	56.42
861.546	59.6
861.716	58.31
861.887	57.94
862.057	62.5
862.228	64.15
862.398	66.28
862.569	64.59
862.739	68.01
862.91	72.37
863.08	74.91
863.251	76.6
863.421	78.12
863.592	78.39
863.762	80.48
863.932	79.65
864.103	77.37
864.273	74.81
864.443	74.76
864.614	73.54
864.784	67.73
864.954	67.04
865.125	66.19
865.295	61.75
865.465	61.06
865.635	61.36
865.805	55.78
865.976	54.67
866.146	57.6
866.316	60.28
866.486	61.38
866.656	64.06
866.826	63.32
866.996	59.42
867.166	64.38
867.336	64.17
867.506	60.18
867.676	62.13
867.846	63.62
868.016	64.33
868.186	58.53
868.356	52
868.526	54.57
868.696	48.57
868.866	46.81
869.036	44.7
869.206	44.62
869.376	49.39
869.545	49.88
869.715	53.05
869.885	51.56
870.055	55.49
870.224	59.68
870.394	57.27
870.564	63.45
870.734	68.19
870.903	68.78
871.073	69.99
871.243	68.63
871.412	67.47
871.582	66.88
871.751	64.42
871.921	62.75
872.091	64.13
872.26	66.15
872.43	64.67
872.599	59.03
872.769	54.59
872.938	51.84
873.108	51.33
873.277	51.93
873.446	49.04
873.616	49.2
873.785	46.88
873.955	46.25
874.124	41.57
874.293	39.8
874.463	39.15
874.632	40.17
874.801	42.23
874.971	40.87
875.14	39.99
875.309	42.45
875.478	43.67
875.647	44.86
875.817	45.89
875.986	53.56
876.155	51.65
876.324	54.11
876.493	55.64
876.662	57.23
876.831	58.06
877	59.97
877.17	58.77
877.339	56.4
877.508	60.53
877.677	64.57
877.846	56.76
878.015	61.13
878.184	62.3
878.352	62.61
878.521	57.97
878.69	58.31
878.859	54.77
879.028	56.78
879.197	59.01
879.366	54.73
879.534	52.32
879.703	52.44
879.872	51.14
880.041	50.75
880.21	50.02
880.378	50.08
880.547	49.43
880.716	48.47
880.884	46.37
881.053	44.75
881.222	44.97
881.39	44.43
881.559	44.98
881.727	44.18
881.896	43.17
882.065	42.62
882.233	43.62
882.402	42.97
882.57	42.92
882.739	42.97
882.907	43.51
883.076	43.55
883.244	42.86
883.412	42.83
883.581	43.23
883.749	43.79
883.918	44.53
884.086	43.14
884.254	44.3
884.423	44.63
884.591	44.52
884.759	44.41
884.927	44.62
885.096	45.02
885.264	45.82
885.432	46.47
885.6	45.29
885.769	45.65
885.937	47.21
886.105	46.51
886.273	48.2
886.441	50.31
886.609	51.23
886.777	50.37
886.945	52.55
887.113	54.67
887.281	54.46
887.449	55.84
887.617	55.91
887.785	55.09
887.953	52.16
888.121	52.51
888.289	50.55
888.457	49.79
888.625	49.63
888.793	50.53
888.961	44.53
889.129	47.76
889.296	52.28
889.464	50.57
889.632	50.88
889.8	56.87
889.967	54.61
890.135	59.46
