Data from 2938844__Reflection_02.txt Node
Date: Wed Mar 11 14:28:12 EDT 2015
User: robert
Spectrometer: USB4E03002
Autoset integration time: false
Trigger mode: 4
Integration Time (sec): 1.000000E-1
Scans to average: 10
Electric dark correction enabled: false
Nonlinearity correction enabled: false
Boxcar width: 5
Stray light correction enabled: false
XAxis mode: Wavelengths
Stop averaging: false
Number of Pixels in Spectrum: 3648
>>>>>Begin Spectral Data<<<<<
177.575	-14.29
177.794	-13.88
178.014	-167.03
178.233	-144.3
178.452	-1070
178.672	340.96
178.891	155
179.11	97.03
179.33	54.29
179.549	40.08
179.768	40.63
179.987	47.27
180.207	36.62
180.426	46
180.645	80.47
180.864	51.74
181.084	65.05
181.303	80.45
181.522	163.46
181.741	145.71
181.96	209.22
182.179	309.09
182.398	314.57
182.618	170.66
182.837	155.6
183.056	77.89
183.275	128.7
183.494	92.4
183.713	95.35
183.932	84.42
184.151	112.86
184.37	82.4
184.589	92.89
184.808	58.66
185.027	108.43
185.246	176.74
185.465	176.08
185.684	132.74
185.903	111.81
186.122	112.4
186.341	104.03
186.56	100.69
186.779	74.1
186.998	60.84
187.216	57.25
187.435	54.07
187.654	53.27
187.873	47.38
188.092	64.7
188.311	82.53
188.53	33.94
188.748	21.91
188.967	41.34
189.186	101.92
189.405	81.96
189.623	96.43
189.842	129.83
190.061	-59.35
190.28	-98.94
190.498	368.49
190.717	-696.15
190.936	-120.73
191.154	1120
191.373	34.78
191.592	-22.68
191.81	-277.45
192.029	1117.39
192.248	-239.74
192.466	-45.87
192.685	26.12
192.904	-8.72
193.122	21.59
193.341	53.94
193.559	40.51
193.778	23.34
193.996	47.48
194.215	50.59
194.433	68.48
194.652	59.35
194.87	62.72
195.089	38.29
195.307	54.34
195.526	46.03
195.744	20.55
195.963	30.69
196.181	30.59
196.399	13.82
196.618	30.33
196.836	-2.56
197.055	30.86
197.273	19.94
197.491	51.2
197.71	144
197.928	55.41
198.146	73.51
198.365	28.8
198.583	81.53
198.801	76.87
199.019	85.35
199.238	94.56
199.456	82.4
199.674	78.37
199.892	86.16
200.111	52.84
200.329	53.74
200.547	68.18
200.765	90.37
200.983	79.97
201.202	90.23
201.42	76.88
201.638	53.02
201.856	64.76
202.074	79.32
202.292	56.25
202.51	80.03
202.728	90.21
202.946	66.06
203.165	56.31
203.383	45.83
203.601	37.3
203.819	34.58
204.037	43.43
204.255	33.83
204.473	27.82
204.691	32.71
204.909	20.86
205.127	23.38
205.345	10.09
205.562	7.66
205.78	4.09
205.998	-17.13
206.216	-8.14
206.434	2.61
206.652	6.23
206.87	9.69
207.088	8.95
207.306	-3.34
207.523	2.02
207.741	13.44
207.959	2.69
208.177	0.56
208.395	18.05
208.612	19.91
208.83	4.38
209.048	-10.69
209.266	-35.17
209.483	-16.27
209.701	2.67
209.919	-38.49
210.136	-67.81
210.354	-57.43
210.572	-14.1
210.79	-5.58
211.007	-5.02
211.225	-41.74
211.442	-35.65
211.66	-23.31
211.878	-5.06
212.095	-17.87
212.313	6.32
212.53	26.92
212.748	28.18
212.966	18.84
213.183	7.53
213.401	14.06
213.618	26.51
213.836	20.84
214.053	17.12
214.271	-5.14
214.488	-4.79
214.705	3.58
214.923	-4.28
215.14	-11.28
215.358	-8.42
215.575	1.28
215.793	-6.82
216.01	6.8
216.227	8.51
216.445	6.92
216.662	6.89
216.879	12.11
217.097	-2.47
217.314	2.15
217.531	10.89
217.749	1.69
217.966	0.35
218.183	9.25
218.4	6.08
218.618	10.38
218.835	12.99
219.052	19.35
219.269	16.97
219.487	13.8
219.704	8.8
219.921	9.75
220.138	9.82
220.355	10.63
220.572	4.55
220.79	2.11
221.007	-1.24
221.224	0.59
221.441	-8.09
221.658	-11.08
221.875	-5.63
222.092	-1.83
222.309	-12.74
222.526	-15.31
222.743	-15.77
222.96	-14.08
223.177	-17.65
223.394	-16.74
223.611	-13.75
223.828	-9.14
224.045	-4.75
224.262	0.71
224.479	2.63
224.696	6.61
224.913	11.16
225.13	16.01
225.347	13.9
225.564	14.19
225.781	14.21
225.997	13.36
226.214	10.23
226.431	8.83
226.648	7.41
226.865	9.17
227.082	8.29
227.298	6.67
227.515	5.63
227.732	4.89
227.949	4.73
228.165	4.07
228.382	3.4
228.599	3.95
228.816	4.03
229.032	3.19
229.249	2.28
229.466	3.07
229.682	3.01
229.899	2.55
230.116	2.9
230.332	3.09
230.549	3.63
230.765	3.8
230.982	4.09
231.199	4.36
231.415	5.38
231.632	6
231.848	5.33
232.065	5.89
232.281	6.93
232.498	6.74
232.714	6.29
232.931	5.5
233.147	6.02
233.364	7.45
233.58	7.35
233.797	6.2
234.013	5.89
234.23	5.78
234.446	6.8
234.662	7.02
234.879	7.41
235.095	7.24
235.312	8.39
235.528	8.11
235.744	7.96
235.961	9.51
236.177	10.24
236.393	9.75
236.61	9.86
236.826	7.24
237.042	6.11
237.258	5.31
237.475	6.82
237.691	7.5
237.907	6.94
238.123	6.92
238.339	5.76
238.556	6.48
238.772	8.18
238.988	6.68
239.204	8.58
239.42	8.24
239.636	8.97
239.853	7.56
240.069	6.92
240.285	6.13
240.501	5.29
240.717	4.96
240.933	4.16
241.149	3.55
241.365	4.11
241.581	3.59
241.797	3.53
242.013	3.46
242.229	4.03
242.445	3.83
242.661	4.36
242.877	4.01
243.093	3.99
243.309	4.18
243.525	3.96
243.741	4.09
243.957	3.94
244.173	4.28
244.388	4.4
244.604	4.17
244.82	4.18
245.036	4.16
245.252	4.06
245.468	4.15
245.683	4.3
245.899	3.95
246.115	4.01
246.331	3.98
246.547	3.9
246.762	4.05
246.978	3.9
247.194	3.99
247.409	3.97
247.625	4.22
247.841	3.97
248.057	3.96
248.272	4.23
248.488	4.13
248.703	4.6
248.919	4.83
249.135	4.16
249.35	4.68
249.566	5.11
249.782	5.35
249.997	5.57
250.213	6.07
250.428	6.51
250.644	6.33
250.859	6.74
251.075	5.68
251.29	5.23
251.506	5.92
251.721	5.56
251.937	4.44
252.152	4.48
252.368	4.41
252.583	4.49
252.798	4.61
253.014	4.03
253.229	3.97
253.445	4.7
253.66	5.17
253.875	5.02
254.091	5.24
254.306	6.28
254.521	6.95
254.737	6.58
254.952	7.14
255.167	6.28
255.383	7.64
255.598	7.33
255.813	7.7
256.028	7.39
256.244	8.07
256.459	7.34
256.674	6.87
256.889	6.16
257.104	6.52
257.32	6.35
257.535	6.05
257.75	5.89
257.965	5.64
258.18	5.14
258.395	4.6
258.61	3.87
258.826	3.73
259.041	3.5
259.256	3.22
259.471	3.08
259.686	2.75
259.901	2.8
260.116	2.55
260.331	2.52
260.546	2.51
260.761	2.52
260.976	2.64
261.191	2.64
261.406	2.91
261.621	2.87
261.836	2.61
262.05	2.59
262.265	2.49
262.48	2.56
262.695	2.03
262.91	1.79
263.125	2
263.34	2.05
263.555	1.9
263.769	1.94
263.984	2.25
264.199	2.42
264.414	3.14
264.629	3.78
264.843	3.97
265.058	5.17
265.273	5.02
265.488	5.04
265.702	4.6
265.917	4.75
266.132	3.92
266.346	4.03
266.561	4.14
266.776	3.56
266.99	3.11
267.205	3.02
267.42	2.41
267.634	2.68
267.849	2.87
268.063	2.94
268.278	3.22
268.492	3.58
268.707	3.24
268.922	3.07
269.136	3.12
269.351	3.14
269.565	3.3
269.78	3.56
269.994	3.25
270.209	3.35
270.423	3.62
270.637	3.05
270.852	2.92
271.066	3.16
271.281	3.11
271.495	3.22
271.709	3.51
271.924	3.48
272.138	3.64
272.353	3.83
272.567	3.49
272.781	3.45
272.996	3.62
273.21	4.09
273.424	3.92
273.638	3.89
273.853	4.01
274.067	3.62
274.281	3.28
274.495	3.13
274.71	2.93
274.924	2.96
275.138	2.61
275.352	2.77
275.566	1.89
275.781	1.97
275.995	1.63
276.209	1.71
276.423	1.96
276.637	2.23
276.851	2.18
277.065	2.5
277.279	2.18
277.493	2.49
277.707	2.34
277.921	2.65
278.135	2.6
278.349	3.08
278.563	2.81
278.777	2.78
278.991	2.89
279.205	3.21
279.419	2.72
279.633	2.92
279.847	2.34
280.061	2.65
280.275	2.73
280.489	2.79
280.703	2.86
280.917	2.85
281.131	2.77
281.344	2.68
281.558	2.59
281.772	2.62
281.986	2.72
282.2	2.85
282.414	2.79
282.627	2.95
282.841	2.73
283.055	2.86
283.269	2.94
283.482	3.04
283.696	3.15
283.91	2.92
284.123	3.17
284.337	2.95
284.551	3.23
284.764	3.04
284.978	3.16
285.192	3.12
285.405	3.09
285.619	2.81
285.833	2.99
286.046	2.8
286.26	2.81
286.473	2.75
286.687	2.72
286.9	2.9
287.114	2.81
287.327	2.58
287.541	2.92
287.754	2.76
287.968	3.07
288.181	2.64
288.395	2.6
288.608	2.54
288.822	2.59
289.035	2.87
289.248	2.68
289.462	2.86
289.675	2.82
289.889	2.33
290.102	2.22
290.315	2.35
290.529	2.56
290.742	2.73
290.955	2.7
291.169	2.75
291.382	2.46
291.595	2.5
291.808	2.48
292.022	2.31
292.235	2.62
292.448	2.64
292.661	2.43
292.875	2.35
293.088	2.37
293.301	2.34
293.514	2.33
293.727	2.49
293.94	2.6
294.153	2.35
294.367	2.42
294.58	2.62
294.793	2.88
295.006	2.87
295.219	2.88
295.432	2.95
295.645	3.26
295.858	2.87
296.071	3.14
296.284	3.11
296.497	3.17
296.71	3.45
296.923	3.31
297.136	3.29
297.349	3.32
297.562	3.33
297.775	3.28
297.988	3.1
298.201	3.22
298.414	3.08
298.626	2.87
298.839	2.98
299.052	2.74
299.265	2.77
299.478	2.78
299.691	2.73
299.903	2.45
300.116	2.41
300.329	2.53
300.542	2.9
300.755	2.65
300.967	3.02
301.18	3.29
301.393	3.32
301.605	3.24
301.818	3.05
302.031	3.53
302.243	3.98
302.456	4.13
302.669	4.07
302.881	3.94
303.094	4.3
303.307	4.26
303.519	3.88
303.732	3.88
303.944	3.76
304.157	3.89
304.37	3.26
304.582	3.21
304.795	3.08
305.007	3
305.22	3.07
305.432	2.97
305.645	2.58
305.857	2.36
306.069	2.32
306.282	2.74
306.494	3.04
306.707	3.39
306.919	3.36
307.132	3.22
307.344	3.35
307.556	2.96
307.769	2.94
307.981	3.37
308.193	3.69
308.406	3.67
308.618	3.61
308.83	3.11
309.043	3.22
309.255	3.13
309.467	3.34
309.679	3.52
309.892	3.72
310.104	3.67
310.316	3.48
310.528	3.46
310.74	3.63
310.953	3.52
311.165	3.87
311.377	3.57
311.589	3.62
311.801	3.55
312.013	3.51
312.225	3.35
312.437	3.37
312.649	3.38
312.862	3.16
313.074	3.21
313.286	3.15
313.498	2.98
313.71	3.26
313.922	3.26
314.134	3.31
314.346	3.4
314.558	3.51
314.77	3.74
314.982	4.12
315.193	4.43
315.405	4.38
315.617	4.6
315.829	4.57
316.041	4.62
316.253	4.64
316.465	4.56
316.677	4.05
316.888	4.47
317.1	4.51
317.312	4.45
317.524	4.46
317.736	4.38
317.947	4.33
318.159	4.57
318.371	4.48
318.583	4.51
318.794	4.88
319.006	5.02
319.218	5.11
319.43	5.21
319.641	4.97
319.853	5.23
320.064	5.24
320.276	5.16
320.488	5.15
320.699	5.34
320.911	6.15
321.123	6.04
321.334	6.32
321.546	6.12
321.757	5.87
321.969	5.73
322.18	5.82
322.392	6.36
322.603	6.92
322.815	6.93
323.026	6.76
323.238	5.99
323.449	6.04
323.661	5.77
323.872	5.82
324.083	5.76
324.295	5.96
324.506	5.72
324.718	5.17
324.929	5.25
325.14	5.42
325.352	5.36
325.563	5.32
325.774	5.23
325.986	5.52
326.197	5.75
326.408	5.99
326.62	6.14
326.831	6.18
327.042	6.27
327.253	6.02
327.464	5.95
327.676	6.37
327.887	6.7
328.098	6.87
328.309	6.86
328.52	6.81
328.732	6.66
328.943	6.8
329.154	7.05
329.365	7.29
329.576	7.17
329.787	7.14
329.998	7.12
330.209	7.32
330.42	7.45
330.631	7.24
330.842	7.2
331.053	7.28
331.264	7.32
331.475	7.63
331.686	7.72
331.897	7.97
332.108	8.16
332.319	8.17
332.53	8.21
332.741	8.14
332.952	8.66
333.163	8.48
333.374	8.6
333.585	8.59
333.795	8.32
334.006	8.33
334.217	8.42
334.428	8.21
334.639	8.11
334.849	7.79
335.06	7.82
335.271	7.47
335.482	7.6
335.692	7.93
335.903	8.36
336.114	8.26
336.325	8.35
336.535	8.31
336.746	8.59
336.957	8.63
337.167	8.7
337.378	8.3
337.589	8.51
337.799	8.54
338.01	8.1
338.22	7.76
338.431	7.87
338.642	7.79
338.852	7.89
339.063	7.74
339.273	7.49
339.484	7.76
339.694	8.34
339.905	8.03
340.115	7.95
340.326	8.35
340.536	8.29
340.746	7.8
340.957	7.5
341.167	7.3
341.378	7.26
341.588	7.28
341.799	6.85
342.009	6.67
342.219	6.79
342.43	6.72
342.64	6.35
342.85	6.13
343.061	6.52
343.271	6.72
343.481	6.88
343.691	6.75
343.902	7
344.112	7.27
344.322	7.24
344.532	7.29
344.743	7.36
344.953	7.4
345.163	7.42
345.373	7.44
345.583	7.27
345.793	7.27
346.004	7.18
346.214	7.04
346.424	6.98
346.634	6.87
346.844	6.88
347.054	6.81
347.264	6.8
347.474	6.59
347.684	6.42
347.894	6.9
348.104	6.89
348.314	7.01
348.524	7.12
348.734	7.07
348.944	7.07
349.154	6.98
349.364	7.15
349.574	7.29
349.784	7.6
349.994	7.83
350.204	7.76
350.413	7.57
350.623	7.75
350.833	7.72
351.043	7.66
351.253	7.98
351.463	8.1
351.672	7.86
351.882	7.87
352.092	7.74
352.302	7.53
352.511	7.5
352.721	7.6
352.931	7.74
353.141	7.72
353.35	7.76
353.56	7.69
353.77	7.79
353.979	7.83
354.189	7.84
354.399	8.01
354.608	8.06
354.818	7.7
355.027	7.69
355.237	7.44
355.447	7.39
355.656	7.47
355.866	7.27
356.075	7.13
356.285	7.07
356.494	6.95
356.704	6.91
356.913	6.93
357.123	7.12
357.332	7.08
357.542	7.02
357.751	6.96
357.96	6.96
358.17	7.09
358.379	7.08
358.589	7.07
358.798	7.04
359.007	7.1
359.217	7.09
359.426	7.03
359.635	7.17
359.845	7.05
360.054	7.21
360.263	7.23
360.472	7.11
360.682	7.17
360.891	7.23
361.1	7.29
361.309	7.2
361.519	7.18
361.728	7.12
361.937	7.13
362.146	7.18
362.355	7.03
362.564	7.06
362.774	7.05
362.983	6.99
363.192	7.04
363.401	7.08
363.61	7.06
363.819	7.18
364.028	7.24
364.237	6.95
364.446	7.14
364.655	7.1
364.864	6.94
365.073	6.93
365.282	7.01
365.491	6.92
365.7	6.67
365.909	6.71
366.118	6.47
366.327	6.52
366.536	6.45
366.745	6.45
366.954	6.58
367.162	6.57
367.371	6.71
367.58	6.59
367.789	6.55
367.998	6.6
368.207	6.77
368.415	6.72
368.624	6.78
368.833	6.9
369.042	6.76
369.25	6.83
369.459	7.07
369.668	7.12
369.877	7.04
370.085	7.13
370.294	7.29
370.503	7
370.711	7.08
370.92	7.07
371.129	7.1
371.337	7.19
371.546	7.17
371.754	7.03
371.963	6.86
372.171	6.96
372.38	6.89
372.589	6.73
372.797	6.77
373.006	6.84
373.214	6.88
373.423	6.8
373.631	6.72
373.84	6.67
374.048	6.73
374.256	6.77
374.465	6.73
374.673	6.73
374.882	6.83
375.09	6.79
375.298	6.73
375.507	6.48
375.715	6.71
375.923	6.56
376.132	6.73
376.34	6.55
376.548	6.47
376.757	6.39
376.965	6.3
377.173	5.98
377.381	5.88
377.59	5.78
377.798	5.8
378.006	5.69
378.214	5.7
378.423	5.34
378.631	5.33
378.839	5.21
379.047	5.41
379.255	5.4
379.463	5.68
379.671	5.68
379.879	5.7
380.088	5.78
380.296	5.85
380.504	5.69
380.712	5.83
380.92	5.81
381.128	5.86
381.336	5.53
381.544	5.58
381.752	5.49
381.96	5.44
382.168	5.52
382.376	5.46
382.584	5.28
382.791	5.44
382.999	5.42
383.207	5.41
383.415	5.42
383.623	5.4
383.831	5.08
384.039	5.11
384.247	5.21
384.454	5.22
384.662	5.15
384.87	5.17
385.078	5.14
385.285	5.22
385.493	5.15
385.701	5.15
385.909	5.19
386.116	5.54
386.324	5.24
386.532	5.16
386.739	5.19
386.947	5.17
387.155	5.21
387.362	5.21
387.57	5.01
387.778	4.86
387.985	4.74
388.193	4.75
388.4	4.71
388.608	5.08
388.816	5.09
389.023	4.96
389.231	4.97
389.438	4.99
389.646	4.85
389.853	4.9
390.061	5.02
390.268	4.98
390.475	4.8
390.683	4.6
390.89	4.28
391.098	4.16
391.305	4.12
391.512	4.12
391.72	4.04
391.927	4.05
392.135	3.97
392.342	3.82
392.549	3.72
392.756	3.8
392.964	3.74
393.171	3.86
393.378	3.98
393.586	4
393.793	3.99
394	3.98
394.207	3.97
394.414	4.03
394.622	4.27
394.829	4.39
395.036	4.48
395.243	4.62
395.45	4.69
395.657	4.47
395.864	4.62
396.072	4.68
396.279	4.55
396.486	4.48
396.693	4.51
396.9	4.29
397.107	4.23
397.314	4.31
397.521	4.39
397.728	4.26
397.935	4.33
398.142	4.27
398.349	4.26
398.556	4.33
398.763	4.48
398.97	4.21
399.177	4.31
399.383	4.31
399.59	4.15
399.797	3.95
400.004	4.06
400.211	4.31
400.418	4.09
400.625	3.97
400.831	3.96
401.038	4.01
401.245	4.27
401.452	4.1
401.658	4.14
401.865	4.21
402.072	4.26
402.279	4.32
402.485	4.15
402.692	4.24
402.899	4.15
403.105	4.15
403.312	4.11
403.519	4.03
403.725	4.01
403.932	4.07
404.138	3.79
404.345	3.74
404.552	3.61
404.758	3.58
404.965	3.51
405.171	3.48
405.378	3.48
405.584	3.49
405.791	3.31
405.997	3.38
406.204	3.39
406.41	3.6
406.617	3.58
406.823	3.46
407.029	3.33
407.236	3.39
407.442	3.42
407.649	3.47
407.855	3.28
408.061	3.34
408.268	3.39
408.474	3.35
408.68	3.34
408.887	3.24
409.093	3.35
409.299	3.42
409.505	3.53
409.712	3.56
409.918	3.45
410.124	3.32
410.33	3.31
410.537	3.23
410.743	3.18
410.949	3.14
411.155	3.25
411.361	3.29
411.567	3.37
411.773	3.26
411.98	3.14
412.186	2.95
412.392	3.05
412.598	2.97
412.804	3.06
413.01	2.92
413.216	3.01
413.422	3.08
413.628	3.05
413.834	3.04
414.04	2.99
414.246	3.27
414.452	3.28
414.658	3.3
414.864	3.33
415.07	3.29
415.275	3.52
415.481	3.49
415.687	3.38
415.893	3.35
416.099	3.27
416.305	3.25
416.511	3.09
416.716	3.19
416.922	3.16
417.128	3.23
417.334	3.18
417.539	3.04
417.745	2.95
417.951	2.83
418.157	2.85
418.362	2.75
418.568	2.77
418.774	2.72
418.979	2.7
419.185	2.72
419.391	2.69
419.596	2.7
419.802	2.72
420.008	2.78
420.213	3.49
420.419	3.4
420.624	3.44
420.83	3.42
421.035	3.45
421.241	3.48
421.446	3.48
421.652	3.51
421.857	3.51
422.063	3.52
422.268	3.52
422.474	2.98
422.679	3.06
422.885	3.1
423.09	3.14
423.295	3.04
423.501	2.96
423.706	2.93
423.911	2.86
424.117	2.9
424.322	2.84
424.527	2.78
424.733	2.78
424.938	2.7
425.143	2.69
425.349	2.59
425.554	2.68
425.759	2.68
425.964	2.7
426.169	2.76
426.375	2.75
426.58	2.83
426.785	2.83
426.99	2.78
427.195	2.84
427.4	2.85
427.605	2.95
427.811	3.02
428.016	3.15
428.221	3.17
428.426	3.11
428.631	3.04
428.836	2.96
429.041	2.87
429.246	2.9
429.451	2.87
429.656	2.84
429.861	2.75
430.066	2.65
430.271	2.65
430.476	2.67
430.681	2.69
430.886	2.71
431.09	2.71
431.295	2.8
431.5	2.85
431.705	2.85
431.91	2.91
432.115	2.86
432.32	2.91
432.524	2.83
432.729	2.89
432.934	2.82
433.139	2.81
433.343	2.88
433.548	2.93
433.753	2.92
433.958	2.99
434.162	2.86
434.367	2.97
434.572	2.98
434.776	3.01
434.981	2.97
435.186	3.12
435.39	3.19
435.595	3.21
435.799	3.17
436.004	3.09
436.209	3.01
436.413	3.09
436.618	2.98
436.822	2.97
437.027	2.98
437.231	2.94
437.436	2.91
437.64	2.91
437.845	2.85
438.049	2.89
438.253	2.92
438.458	2.94
438.662	3.05
438.867	3.15
439.071	3.01
439.275	2.97
439.48	3.01
439.684	2.99
439.888	2.92
440.093	2.9
440.297	2.89
440.501	2.9
440.706	2.9
440.91	2.9
441.114	2.83
441.318	3.02
441.523	3
441.727	2.97
441.931	2.9
442.135	2.87
442.339	2.86
442.543	2.93
442.748	2.98
442.952	2.96
443.156	2.89
443.36	2.94
443.564	2.8
443.768	2.81
443.972	2.82
444.176	2.89
444.38	2.94
444.584	2.92
444.788	2.78
444.992	2.69
445.196	2.74
445.4	2.68
445.604	2.68
445.808	2.78
446.012	2.82
446.216	2.8
446.42	2.77
446.624	2.73
446.828	2.8
447.032	2.86
447.235	2.94
447.439	2.94
447.643	3
447.847	3.01
448.051	2.94
448.254	2.91
448.458	2.9
448.662	2.98
448.866	3.07
449.069	3.03
449.273	3.01
449.477	2.98
449.681	2.98
449.884	2.97
450.088	2.93
450.292	3
450.495	3.03
450.699	3.11
450.902	2.98
451.106	2.97
451.31	2.93
451.513	2.96
451.717	2.98
451.92	2.93
452.124	2.83
452.327	2.83
452.531	2.73
452.734	2.63
452.938	2.6
453.141	2.65
453.345	2.63
453.548	2.63
453.752	2.62
453.955	2.64
454.158	2.62
454.362	2.72
454.565	2.76
454.769	2.86
454.972	2.94
455.175	3.03
455.379	3.15
455.582	3.14
455.785	3.16
455.988	3.08
456.192	3
456.395	3.02
456.598	3.05
456.801	3.04
457.005	2.94
457.208	2.94
457.411	2.76
457.614	2.68
457.817	2.65
458.021	2.72
458.224	2.76
458.427	2.69
458.63	2.71
458.833	2.64
459.036	2.64
459.239	2.69
459.442	2.66
459.645	2.74
459.848	2.72
460.051	2.74
460.254	2.74
460.457	2.73
460.66	2.78
460.863	2.7
461.066	2.76
461.269	2.78
461.472	2.76
461.675	2.75
461.878	2.76
462.081	2.71
462.284	2.67
462.486	2.6
462.689	2.67
462.892	2.7
463.095	2.83
463.298	2.78
463.5	2.78
463.703	2.79
463.906	2.89
464.109	2.8
464.311	2.82
464.514	2.88
464.717	2.86
464.92	2.76
465.122	2.73
465.325	2.76
465.528	2.75
465.73	2.64
465.933	2.66
466.135	2.56
466.338	2.75
466.541	2.89
466.743	2.93
466.946	3.03
467.148	3.11
467.351	3.18
467.553	3.18
467.756	3.22
467.958	3.27
468.161	3.23
468.363	3.34
468.566	3.19
468.768	3.13
468.971	3.04
469.173	2.97
469.375	2.96
469.578	3.01
469.78	2.91
469.983	2.99
470.185	3.06
470.387	3.06
470.59	3.01
470.792	3.02
470.994	3.05
471.196	3.12
471.399	3.15
471.601	3.2
471.803	3.1
472.005	3.11
472.208	3.12
472.41	3.07
472.612	3.02
472.814	3
473.016	2.98
473.218	2.93
473.421	2.96
473.623	2.91
473.825	2.89
474.027	2.8
474.229	2.77
474.431	2.62
474.633	2.62
474.835	2.68
475.037	2.69
475.239	2.72
475.441	2.78
475.643	2.73
475.845	2.76
476.047	2.58
476.249	2.75
476.451	2.85
476.653	2.87
476.855	2.85
477.057	2.95
477.258	2.91
477.46	2.85
477.662	2.76
477.864	2.8
478.066	2.79
478.268	2.9
478.469	2.91
478.671	2.9
478.873	2.91
479.075	2.98
479.276	2.92
479.478	2.89
479.68	2.96
479.882	3.04
480.083	2.99
480.285	3.03
480.487	3.04
480.688	2.96
480.89	2.93
481.091	2.98
481.293	2.96
481.495	2.96
481.696	3.01
481.898	2.98
482.099	2.96
482.301	2.94
482.502	2.92
482.704	2.92
482.905	2.93
483.107	2.92
483.308	2.89
483.51	2.83
483.711	2.8
483.913	2.79
484.114	2.79
484.315	2.78
484.517	2.77
484.718	2.77
484.92	2.75
485.121	2.75
485.322	2.75
485.524	2.73
485.725	2.78
485.926	2.77
486.127	2.75
486.329	2.77
486.53	2.77
486.731	2.82
486.932	2.82
487.134	2.85
487.335	2.83
487.536	2.83
487.737	2.83
487.938	2.84
488.139	2.88
488.341	2.91
488.542	2.86
488.743	2.86
488.944	2.89
489.145	2.89
489.346	2.89
489.547	2.9
489.748	2.87
489.949	2.91
490.15	2.92
490.351	2.95
490.552	2.93
490.753	2.95
490.954	2.91
491.155	2.86
491.356	2.87
491.557	2.85
491.758	2.93
491.959	2.95
492.159	2.95
492.36	2.92
492.561	2.88
492.762	2.91
492.963	2.98
493.164	3.02
493.364	3.06
493.565	3.06
493.766	3.13
493.967	3.06
494.167	3.09
494.368	3.12
494.569	3.13
494.769	3.13
494.97	3.13
495.171	3.08
495.371	3.16
495.572	3.16
495.773	3.18
495.973	3.09
496.174	3.02
496.375	3
496.575	2.99
496.776	3.1
496.976	3.16
497.177	3.14
497.377	3.18
497.578	3.11
497.778	3.12
497.979	3.13
498.179	3.24
498.38	3.33
498.58	3.37
498.78	3.34
498.981	3.27
499.181	3.32
499.382	3.33
499.582	3.33
499.782	3.43
499.983	3.46
500.183	3.45
500.383	3.42
500.584	3.43
500.784	3.46
500.984	3.56
501.184	3.65
501.385	3.63
501.585	3.68
501.785	3.69
501.985	3.71
502.185	3.71
502.386	3.74
502.586	3.79
502.786	3.79
502.986	3.86
503.186	3.87
503.386	3.92
503.586	3.95
503.786	3.99
503.987	3.98
504.187	3.96
504.387	4
504.587	4.05
504.787	4.09
504.987	4.12
505.187	4.19
505.387	4.18
505.587	4.14
505.786	4.14
505.986	4.16
506.186	4.18
506.386	4.25
506.586	4.27
506.786	4.28
506.986	4.21
507.186	4.27
507.386	4.27
507.585	4.42
507.785	4.44
507.985	4.54
508.185	4.55
508.384	4.62
508.584	4.67
508.784	4.66
508.984	4.69
509.183	4.79
509.383	4.82
509.583	4.84
509.782	4.79
509.982	4.9
510.182	4.86
510.381	4.86
510.581	4.91
510.781	4.97
510.98	5.07
511.18	5.17
511.379	5.2
511.579	5.2
511.778	5.26
511.978	5.34
512.177	5.38
512.377	5.47
512.576	5.62
512.776	5.71
512.975	5.71
513.175	5.69
513.374	5.64
513.573	5.68
513.773	5.74
513.972	5.74
514.172	5.71
514.371	5.72
514.57	5.82
514.77	5.81
514.969	5.84
515.168	5.86
515.367	5.99
515.567	6.1
515.766	6.27
515.965	6.41
516.164	6.43
516.364	6.54
516.563	6.52
516.762	6.5
516.961	6.54
517.16	6.59
517.359	6.69
517.559	6.7
517.758	6.69
517.957	6.63
518.156	6.67
518.355	6.77
518.554	6.78
518.753	6.87
518.952	6.92
519.151	6.98
519.35	7.03
519.549	7.04
519.748	7.08
519.947	7.14
520.146	7.24
520.345	7.19
520.544	7.31
520.743	7.37
520.942	7.46
521.141	7.5
521.339	7.61
521.538	7.63
521.737	7.71
521.936	7.73
522.135	7.85
522.333	7.85
522.532	7.96
522.731	7.98
522.93	8.05
523.129	8.07
523.327	8.15
523.526	8.13
523.725	8.21
523.923	8.28
524.122	8.33
524.321	8.34
524.519	8.47
524.718	8.5
524.917	8.47
525.115	8.56
525.314	8.62
525.512	8.65
525.711	8.74
525.909	8.71
526.108	8.81
526.306	8.89
526.505	8.92
526.703	8.98
526.902	9.09
527.1	9.19
527.299	9.17
527.497	9.2
527.696	9.23
527.894	9.27
528.092	9.32
528.291	9.31
528.489	9.33
528.688	9.36
528.886	9.36
529.084	9.34
529.283	9.3
529.481	9.38
529.679	9.41
529.877	9.44
530.076	9.45
530.274	9.49
530.472	9.53
530.67	9.61
530.869	9.65
531.067	9.72
531.265	9.81
531.463	9.95
531.661	9.98
531.859	10.09
532.057	10.17
532.255	10.21
532.454	10.31
532.652	10.4
532.85	10.46
533.048	10.54
533.246	10.55
533.444	10.63
533.642	10.64
533.84	10.7
534.038	10.68
534.236	10.76
534.434	10.85
534.632	10.85
534.83	10.89
535.027	10.92
535.225	10.96
535.423	11.03
535.621	10.99
535.819	11.05
536.017	11.11
536.215	11.18
536.412	11.16
536.61	11.2
536.808	11.25
537.006	11.25
537.203	11.31
537.401	11.36
537.599	11.44
537.797	11.54
537.994	11.61
538.192	11.64
538.39	11.8
538.587	11.9
538.785	12.02
538.983	12.14
539.18	12.37
539.378	12.51
539.575	12.75
539.773	12.95
539.97	13.12
540.168	13.22
540.366	13.32
540.563	13.38
540.761	13.49
540.958	13.58
541.155	13.7
541.353	13.77
541.55	13.81
541.748	13.84
541.945	13.86
542.143	13.91
542.34	14.02
542.537	14.13
542.735	14.21
542.932	14.32
543.129	14.39
543.327	14.53
543.524	14.73
543.721	14.99
543.919	15.29
544.116	15.59
544.313	15.96
544.51	16.29
544.708	16.51
544.905	16.86
545.102	17.13
545.299	17.47
545.496	17.6
545.693	17.75
545.891	17.79
546.088	17.76
546.285	17.72
546.482	17.59
546.679	17.39
546.876	17.35
547.073	17.16
547.27	17.05
547.467	16.9
547.664	16.86
547.861	16.71
548.058	16.65
548.255	16.58
548.452	16.52
548.649	16.49
548.846	16.52
549.043	16.49
549.24	16.62
549.437	16.59
549.633	16.58
549.83	16.6
550.027	16.62
550.224	16.52
550.421	16.47
550.618	16.43
550.814	16.44
551.011	16.47
551.208	16.53
551.405	16.48
551.601	16.47
551.798	16.43
551.995	16.41
552.191	16.44
552.388	16.46
552.585	16.51
552.781	16.53
552.978	16.49
553.175	16.52
553.371	16.51
553.568	16.53
553.764	16.52
553.961	16.69
554.157	16.7
554.354	16.73
554.55	16.75
554.747	16.8
554.943	16.92
555.14	16.99
555.336	17.08
555.533	17.1
555.729	17.14
555.926	17.19
556.122	17.15
556.318	17.12
556.515	17
556.711	17.11
556.907	17.04
557.104	16.95
557.3	16.93
557.496	16.89
557.693	16.91
557.889	16.94
558.085	17.08
558.281	17.23
558.478	17.32
558.674	17.54
558.87	17.54
559.066	17.67
559.262	17.73
559.459	17.75
559.655	17.84
559.851	17.86
560.047	17.91
560.243	18
560.439	17.97
560.635	18.06
560.831	18.13
561.027	18.2
561.223	18.22
561.419	18.35
561.615	18.55
561.811	18.62
562.007	18.66
562.203	18.8
562.399	18.69
562.595	18.7
562.791	18.73
562.987	18.76
563.183	18.78
563.379	18.92
563.575	18.99
563.771	18.93
563.966	19.04
564.162	19.19
564.358	19.2
564.554	19.27
564.75	19.18
564.945	19.33
565.141	19.4
565.337	19.5
565.533	19.58
565.728	19.63
565.924	19.74
566.12	19.8
566.315	19.8
566.511	19.87
566.707	19.94
566.902	20.1
567.098	20.04
567.293	20.07
567.489	20.19
567.684	20.19
567.88	20.13
568.076	20.16
568.271	20.15
568.467	20.24
568.662	20.26
568.858	20.41
569.053	20.4
569.248	20.54
569.444	20.62
569.639	20.56
569.835	20.5
570.03	20.65
570.225	20.64
570.421	20.55
570.616	20.61
570.812	20.57
571.007	20.53
571.202	20.58
571.397	20.59
571.593	20.56
571.788	20.64
571.983	20.73
572.178	20.85
572.374	20.96
572.569	21.21
572.764	21.17
572.959	21.26
573.154	21.3
573.35	21.39
573.545	21.34
573.74	21.36
573.935	21.43
574.13	21.56
574.325	21.55
574.52	21.69
574.715	21.69
574.91	21.83
575.105	22.01
575.3	22.31
575.495	22.51
575.69	22.74
575.885	22.96
576.08	23.13
576.275	23.27
576.47	23.56
576.665	23.7
576.86	23.84
577.055	23.98
577.25	24.11
577.444	24
577.639	24.06
577.834	24.28
578.029	24.48
578.224	24.64
578.418	24.79
578.613	24.72
578.808	24.8
579.003	24.92
579.197	25.09
579.392	25.03
579.587	25.16
579.781	25.26
579.976	25.12
580.171	25.03
580.365	24.91
580.56	24.99
580.755	24.98
580.949	24.92
581.144	24.95
581.338	24.88
581.533	25.01
581.727	25.15
581.922	25.18
582.116	25.27
582.311	25.34
582.505	25.51
582.7	25.57
582.894	25.64
583.089	25.67
583.283	25.68
583.478	25.76
583.672	25.91
583.866	25.91
584.061	25.89
584.255	25.91
584.449	26.1
584.644	26.03
584.838	26.01
585.032	26.25
585.226	26.36
585.421	26.56
585.615	26.65
585.809	26.66
586.003	26.74
586.198	26.96
586.392	27.18
586.586	27.15
586.78	27.25
586.974	27.32
587.168	27.08
587.363	27.07
587.557	27.01
587.751	26.95
587.945	26.75
588.139	26.58
588.333	26.39
588.527	26.15
588.721	25.96
588.915	25.78
589.109	25.58
589.303	25.55
589.497	25.63
589.691	25.49
589.885	25.51
590.079	25.75
590.273	25.96
590.466	25.97
590.66	26.13
590.854	26.32
591.048	26.58
591.242	26.75
591.436	27.03
591.629	27.06
591.823	27.26
592.017	27.45
592.211	27.42
592.404	27.31
592.598	27.39
592.792	27.45
592.986	27.42
593.179	27.29
593.373	27.32
593.567	27.01
593.76	26.84
593.954	26.73
594.147	26.45
594.341	26.31
594.535	26.29
594.728	26.23
594.922	26.08
595.115	25.87
595.309	25.8
595.502	25.56
595.696	25.63
595.889	25.6
596.083	25.53
596.276	25.52
596.47	25.44
596.663	25.41
596.856	25.45
597.05	25.47
597.243	25.51
597.437	25.57
597.63	25.66
597.823	25.82
598.017	25.86
598.21	26.03
598.403	26.33
598.596	26.57
598.79	26.69
598.983	26.72
599.176	26.79
599.369	27.09
599.563	27.15
599.756	27.18
599.949	27.05
600.142	27.16
600.335	27.11
600.528	26.92
600.722	26.79
600.915	26.63
601.108	26.55
601.301	26.41
601.494	26.24
601.687	26.22
601.88	26.25
602.073	26.11
602.266	26
602.459	25.84
602.652	25.65
602.845	25.76
603.038	25.72
603.231	25.7
603.424	25.75
603.617	25.64
603.809	25.62
604.002	25.45
604.195	25.46
604.388	25.51
604.581	25.49
604.774	25.53
604.966	25.41
605.159	25.56
605.352	25.61
605.545	25.65
605.737	25.78
605.93	25.87
606.123	26.11
606.316	26.36
606.508	26.54
606.701	26.73
606.894	27
607.086	27.38
607.279	27.53
607.471	27.8
607.664	28.2
607.857	28.57
608.049	28.98
608.242	29.75
608.434	30.54
608.627	31.54
608.819	32.76
609.012	34.25
609.204	35.89
609.397	37.64
609.589	39.46
609.782	41.44
609.974	43.54
610.166	45.65
610.359	47.61
610.551	49.46
610.743	51.03
610.936	52.5
611.128	53.45
611.32	54.01
611.513	54.41
611.705	54.57
611.897	54.19
612.09	53.49
612.282	52.74
612.474	51.61
612.666	50.44
612.858	49.32
613.051	48.13
613.243	47.07
613.435	46.13
613.627	45.27
613.819	44.28
614.011	43.35
614.203	42.65
614.395	41.74
614.588	40.97
614.78	40.19
614.972	39.45
615.164	38.51
615.356	37.64
615.548	36.92
615.74	35.86
615.932	35.24
616.124	34.79
616.315	34.07
616.507	33.28
616.699	32.78
616.891	32.45
617.083	31.88
617.275	31.59
617.467	31.21
617.659	30.62
617.85	30.34
618.042	30.04
618.234	29.71
618.426	29.59
618.618	29.53
618.809	29.39
619.001	29.27
619.193	29.15
619.384	29.11
619.576	29.14
619.768	29.12
619.959	29.15
620.151	29.07
620.343	29.11
620.534	29.12
620.726	29.24
620.917	29.32
621.109	29.27
621.301	29.53
621.492	29.68
621.684	29.9
621.875	30.13
622.067	30.17
622.258	30.34
622.45	30.43
622.641	30.36
622.832	30.41
623.024	30.5
623.215	30.55
623.407	30.66
623.598	30.61
623.789	30.44
623.981	30.25
624.172	30.36
624.363	30.43
624.555	30.49
624.746	30.61
624.937	30.6
625.129	30.4
625.32	30.33
625.511	30.09
625.702	29.85
625.893	29.81
626.085	29.78
626.276	29.8
626.467	29.64
626.658	29.51
626.849	29.52
627.04	29.51
627.231	29.57
627.422	29.41
627.614	29.51
627.805	29.73
627.996	29.78
628.187	29.94
628.378	29.98
628.569	30.22
628.76	30.48
628.951	30.69
629.142	30.96
629.332	31.17
629.523	31.61
629.714	31.83
629.905	32.11
630.096	32.3
630.287	32.41
630.478	32.47
630.669	32.38
630.859	32.19
631.05	32.17
631.241	31.9
631.432	31.68
631.623	31.42
631.813	31.1
632.004	30.57
632.195	30.24
632.385	29.91
632.576	29.75
632.767	29.53
632.957	29.21
633.148	28.81
633.339	28.56
633.529	28.32
633.72	28.09
633.91	27.91
634.101	27.85
634.292	27.98
634.482	27.96
634.673	27.73
634.863	27.63
635.054	27.72
635.244	27.74
635.435	27.78
635.625	27.75
635.815	27.82
636.006	27.8
636.196	27.78
636.387	27.48
636.577	27.37
636.767	27.44
636.958	27.44
637.148	27.49
637.338	27.44
637.529	27.46
637.719	27.57
637.909	27.49
638.099	27.55
638.29	27.71
638.48	27.88
638.67	27.85
638.86	27.68
639.05	27.76
639.241	27.6
639.431	27.54
639.621	27.51
639.811	27.38
640.001	27.44
640.191	27.4
640.381	27.32
640.571	27.43
640.761	27.56
640.951	27.76
641.141	27.5
641.331	27.71
641.521	27.88
641.711	27.99
641.901	28.01
642.091	28.04
642.281	28.14
642.471	28.07
642.661	27.92
642.851	28.04
643.041	28.08
643.231	28.31
643.42	28.18
643.61	28.1
643.8	28.08
643.99	28.23
644.18	28.32
644.369	28.23
644.559	28.2
644.749	28.33
644.939	28.28
645.128	28.15
645.318	28.17
645.508	28.23
645.697	28.24
645.887	28.24
646.076	28.14
646.266	28.17
646.456	28.29
646.645	28.59
646.835	28.32
647.024	28.25
647.214	28.32
647.403	28.18
647.593	28.15
647.782	28.28
647.972	28.26
648.161	28.46
648.351	28.43
648.54	28.51
648.73	28.46
648.919	28.78
649.108	28.98
649.298	29.13
649.487	29.31
649.677	29.36
649.866	29.53
650.055	29.59
650.244	29.65
650.434	29.71
650.623	29.65
650.812	29.56
651.002	29.42
651.191	29.28
651.38	29.3
651.569	29.31
651.758	29.2
651.947	29
652.137	29.15
652.326	29.1
652.515	29.12
652.704	29.17
652.893	29.16
653.082	29.41
653.271	29.29
653.46	29.22
653.649	29.28
653.838	29.51
654.027	29.45
654.216	29.29
654.405	29.09
654.594	28.86
654.783	28.67
654.972	28.69
655.161	28.29
655.35	28.44
655.539	28.34
655.728	28.32
655.916	28.35
656.105	28.25
656.294	27.99
656.483	28.14
656.672	28.28
656.86	28.32
657.049	28.41
657.238	28.41
657.427	28.45
657.615	28.23
657.804	28
657.993	27.71
658.181	27.71
658.37	27.71
658.559	27.6
658.747	27.35
658.936	27.21
659.125	26.68
659.313	26.66
659.502	26.54
659.69	26.83
659.879	26.9
660.067	27.01
660.256	27
660.444	27.04
660.633	27.09
660.821	27.38
661.01	27.76
661.198	28.34
661.387	28.69
661.575	28.87
661.763	29.02
661.952	29.04
662.14	29.23
662.328	29.42
662.517	29.55
662.705	29.65
662.893	29.71
663.082	29.41
663.27	29.45
663.458	29.3
663.646	29.33
663.834	29.06
664.023	29.31
664.211	29.27
664.399	29.24
664.587	29.27
664.775	29.27
664.963	29.12
665.152	29.48
665.34	29.68
665.528	29.65
665.716	29.75
665.904	29.8
666.092	29.37
666.28	29.5
666.468	29.38
666.656	29.47
666.844	29.36
667.032	29.34
667.22	29.15
667.408	28.87
667.596	28.97
667.784	28.7
667.971	28.65
668.159	29.1
668.347	28.95
668.535	28.95
668.723	28.81
668.911	28.92
669.098	29.1
669.286	29.08
669.474	29.06
669.662	28.92
669.849	28.95
670.037	28.97
670.225	28.62
670.413	28.37
670.6	28.49
670.788	28.44
670.976	28.36
671.163	28.26
671.351	28.1
671.538	28.3
671.726	28.34
671.913	28.4
672.101	28.48
672.289	28.65
672.476	29.04
672.664	29.2
672.851	29.49
673.039	29.59
673.226	29.55
673.413	29.91
673.601	29.91
673.788	29.95
673.976	30.08
674.163	30.02
674.35	30.23
674.538	30.2
674.725	30.17
674.912	30.19
675.1	30.22
675.287	30.39
675.474	30.39
675.662	29.96
675.849	30.16
676.036	30.04
676.223	30.04
676.411	29.74
676.598	29.73
676.785	29.35
676.972	29.13
677.159	28.98
677.346	28.77
677.533	28.64
677.721	28.77
677.908	28.73
678.095	28.85
678.282	28.76
678.469	28.96
678.656	28.74
678.843	28.76
679.03	28.64
679.217	28.69
679.404	28.86
679.591	28.83
679.778	28.78
679.964	28.49
680.151	28.2
680.338	28.33
680.525	28.38
680.712	28.48
680.899	28.59
681.086	28.78
681.272	28.67
681.459	28.53
681.646	28.37
681.833	28.5
682.02	28.61
682.206	28.9
682.393	28.91
682.58	28.78
682.766	28.89
682.953	28.92
683.14	28.93
683.326	29.07
683.513	29.25
683.7	29.48
683.886	29.7
684.073	29.8
684.259	29.6
684.446	29.4
684.632	29.51
684.819	29.53
685.005	29.98
685.192	30.07
685.378	29.95
685.565	30.07
685.751	30.12
685.938	29.88
686.124	30.15
686.31	30.72
686.497	30.97
686.683	31.05
686.87	31.1
687.056	30.82
687.242	30.97
687.429	31.11
687.615	30.9
687.801	30.98
687.987	31.26
688.174	30.99
688.36	30.62
688.546	30.4
688.732	30.58
688.918	30.6
689.105	30.77
689.291	30.67
689.477	30.53
689.663	30.36
689.849	30.37
690.035	30.39
690.221	30.68
690.407	30.72
690.593	30.82
690.779	30.46
690.965	30.11
691.151	29.71
691.337	29.74
691.523	29.93
691.709	30.01
691.895	29.92
692.081	29.72
692.267	29.43
692.453	29.29
692.639	29.33
692.825	29.38
693.011	29.8
693.196	30.24
693.382	30.29
693.568	30.59
693.754	30.83
693.94	30.79
694.125	31.06
694.311	31.2
694.497	31.48
694.682	31.56
694.868	31.59
695.054	31.56
695.239	31.23
695.425	31.48
695.611	30.84
695.796	30.39
695.982	30.49
696.168	30.17
696.353	29.93
696.539	29.87
696.724	29.85
696.91	29.84
697.095	29.65
697.281	29.66
697.466	29.23
697.652	29.25
697.837	29.26
698.023	29.06
698.208	29.05
698.393	28.98
698.579	28.79
698.764	28.68
698.949	28.59
699.135	28.62
699.32	28.54
699.505	28.62
699.691	28.84
699.876	29.16
700.061	29.21
700.246	29.09
700.432	29.14
700.617	29.32
700.802	29.16
700.987	29.15
701.172	29.31
701.358	29.39
701.543	29.46
701.728	29.31
701.913	29.4
702.098	29.57
702.283	29.84
702.468	30.38
702.653	30.52
702.838	31.37
703.023	31.93
703.208	32.06
703.393	32.34
703.578	32.49
703.763	32.92
703.948	33.37
704.133	33.96
704.318	34.52
704.503	35.02
704.688	35.02
704.873	35.22
705.057	35.14
705.242	35.16
705.427	35.81
705.612	36.26
705.797	36.62
705.981	36.63
706.166	37.07
706.351	37.59
706.536	37.83
706.72	38.57
706.905	38.65
707.09	39.44
707.274	39.9
707.459	39.7
707.644	39.88
707.828	40.01
708.013	40.16
708.197	39.81
708.382	39.53
708.567	39.07
708.751	38.72
708.936	38.43
709.12	37.82
709.305	37.75
709.489	37.79
709.673	37.04
709.858	36.79
710.042	36.6
710.227	36.43
710.411	36.15
710.596	35.97
710.78	35.95
710.964	35.98
711.149	36.27
711.333	36.09
711.517	35.91
711.702	36.01
711.886	36.24
712.07	36.12
712.254	35.79
712.438	35.84
712.623	35.89
712.807	35.41
712.991	35.11
713.175	34.63
713.359	34.26
713.544	34.02
713.728	34.09
713.912	33.26
714.096	32.55
714.28	32.53
714.464	32.19
714.648	31.88
714.832	31.73
715.016	31.56
715.2	31.33
715.384	31.42
715.568	30.96
715.752	30.5
715.936	30.5
716.12	30.91
716.304	30.68
716.488	29.97
716.671	29.71
716.855	29.7
717.039	29.74
717.223	29.35
717.407	29.13
717.59	29.18
717.774	29.31
717.958	29.24
718.142	28.8
718.325	28.75
718.509	29.24
718.693	29.13
718.877	29.13
719.06	29.53
719.244	29.91
719.428	30.02
719.611	30.49
719.795	30.52
719.978	31.04
720.162	31.48
720.345	31.86
720.529	32.17
720.713	32.65
720.896	33.08
721.08	32.51
721.263	32.82
721.446	32.72
721.63	32.43
721.813	32.57
721.997	32.22
722.18	32.1
722.364	32.06
722.547	32.08
722.73	31.78
722.914	31.39
723.097	31.79
723.28	31.2
723.464	31.26
723.647	31.34
723.83	31.31
724.013	31.5
724.197	31.47
724.38	31.24
724.563	31.19
724.746	31.35
724.929	31.31
725.112	30.75
725.296	31.08
725.479	30.89
725.662	30.37
725.845	30.25
726.028	30.01
726.211	30.02
726.394	30.05
726.577	29.62
726.76	29.47
726.943	29.53
727.126	29.7
727.309	29.8
727.492	30.22
727.675	30.33
727.858	30.32
728.041	30.39
728.224	30.29
728.407	30.59
728.589	30.85
728.772	31.16
728.955	31.35
729.138	31.74
729.321	31.39
729.503	30.93
729.686	31.47
729.869	31.45
730.052	31.53
730.234	31.3
730.417	30.75
730.6	30.66
730.782	30.42
730.965	30.19
731.148	29.74
731.33	30.14
731.513	30.28
731.695	30.11
731.878	30.06
732.061	30.26
732.243	30.62
732.426	30.96
732.608	31.3
732.791	31.2
732.973	31.41
733.156	31.89
733.338	32.16
733.52	32.29
733.703	32.78
733.885	33.17
734.068	32.73
734.25	32.48
734.432	33.03
734.615	32.79
734.797	33.3
734.979	33.36
735.162	32.86
735.344	32.74
735.526	32.79
735.708	32.1
735.891	32.1
736.073	32.3
736.255	32.7
736.437	32.53
736.619	33.39
736.802	33.71
736.984	33.69
737.166	34.49
737.348	34.34
737.53	34.52
737.712	34.68
737.894	34.6
738.076	35.08
738.258	35.34
738.44	34.86
738.622	34.95
738.804	34.6
738.986	34.55
739.168	34.69
739.35	34.59
739.532	34.74
739.714	34.76
739.896	34.5
740.078	34.61
740.259	34.28
740.441	34.1
740.623	33.54
740.805	33.44
740.987	33.79
741.168	33.22
741.35	33.29
741.532	33.53
741.714	33.02
741.895	33.52
742.077	33.25
742.259	33.54
742.44	34.02
742.622	34.31
742.804	34.7
742.985	35
743.167	35.24
743.348	35.34
743.53	35.05
743.711	36.12
743.893	36.9
744.075	37.41
744.256	37.55
744.438	37.54
744.619	37.34
744.8	37.46
744.982	37.42
745.163	37.9
745.345	37.94
745.526	38.4
745.707	38.07
745.889	37.07
746.07	36.77
746.252	36.59
746.433	36.61
746.614	36.55
746.795	35.97
746.977	35.24
747.158	34.48
747.339	34.17
747.52	34.04
747.702	34.19
747.883	34.65
748.064	34.64
748.245	34.44
748.426	34.93
748.607	34.93
748.788	35.21
748.97	35.16
749.151	35.86
749.332	36.52
749.513	36.31
749.694	36.16
749.875	35.57
750.056	35.47
750.237	35.91
750.418	35.35
750.599	35.19
750.78	35.08
750.96	35.02
751.141	34.51
751.322	34.72
751.503	34.98
751.684	34.65
751.865	34.62
752.046	34.65
752.226	34.54
752.407	34.57
752.588	35.06
752.769	34.66
752.949	35.14
753.13	35.31
753.311	35.07
753.492	34.28
753.672	34.77
753.853	34.82
754.034	34.73
754.214	34.71
754.395	34.83
754.575	34.26
754.756	34.17
754.937	34.33
755.117	34.05
755.298	33.5
755.478	33.66
755.659	33.57
755.839	34.2
756.02	33.97
756.2	33.96
756.381	34.06
756.561	34.54
756.741	34.6
756.922	34.43
757.102	34.5
757.283	35.08
757.463	34.83
757.643	34.58
757.823	34.75
758.004	34.56
758.184	34.12
758.364	33.56
758.545	33.22
758.725	32.94
758.905	32.66
759.085	31.96
759.265	31.41
759.446	31.07
759.626	30.85
759.806	30.04
759.986	29.94
760.166	29.38
760.346	29.7
760.526	29.36
760.706	30.11
760.886	30.04
761.066	30.64
761.246	30.56
761.426	31.24
761.606	30.92
761.786	30.82
761.966	30.92
762.146	31.36
762.326	30.78
762.506	30.54
762.686	30.34
762.866	30.08
763.046	30.11
763.225	29.69
763.405	29.4
763.585	29.15
763.765	29.02
763.945	29.07
764.124	28.92
764.304	29.11
764.484	29.38
764.664	29.39
764.843	30.18
765.023	30.04
765.203	30.49
765.382	30.79
765.562	31.65
765.741	31.96
765.921	32.55
766.101	32.79
766.28	33.52
766.46	33.5
766.639	33.95
766.819	33.62
766.998	33.84
767.178	34.05
767.357	34.44
767.537	34.5
767.716	35.02
767.896	34.91
768.075	35.36
768.254	35.07
768.434	35.28
768.613	35.2
768.792	35.72
768.972	36.18
769.151	36.63
769.33	36.63
769.51	37.56
769.689	38.56
769.868	39.62
770.047	39.77
770.226	40.28
770.406	40.98
770.585	41.08
770.764	40.9
770.943	41.13
771.122	41.31
771.301	41.92
771.48	41.57
771.66	40.83
771.839	40.08
772.018	40.12
772.197	39.85
772.376	39.65
772.555	39.84
772.734	40.58
772.913	40.24
773.092	40.47
773.271	40.15
773.449	40.5
773.628	39.79
773.807	39.16
773.986	39.4
774.165	39.59
774.344	40.23
774.523	39.83
774.701	39.54
774.88	39.92
775.059	39.08
775.238	39.12
775.417	38.8
775.595	39.92
775.774	40.49
775.953	40.55
776.131	40.04
776.31	39.87
776.489	39.5
776.667	39.35
776.846	39.07
777.025	39.73
777.203	39.89
777.382	39.58
777.56	39.25
777.739	39.52
777.917	39.71
778.096	39.9
778.274	38.63
778.453	39.71
778.631	40
778.81	40.08
778.988	39.76
779.166	39.46
779.345	40.13
779.523	40.23
779.702	39.17
779.88	39.11
780.058	39.44
780.237	39.9
780.415	39.17
780.593	38.96
780.771	39.23
780.95	38.66
781.128	38.54
781.306	37.86
781.484	37.47
781.662	38.4
781.841	38.69
782.019	39.09
782.197	39.91
782.375	40.35
782.553	40.54
782.731	40.45
782.909	40.42
783.087	40.5
783.265	40.95
783.443	40.21
783.621	39.48
783.799	38.27
783.977	38.17
784.155	37.83
784.333	37.8
784.511	37.34
784.689	38
784.867	38.78
785.045	38.06
785.223	38.98
785.4	40.08
785.578	40.61
785.756	41.77
785.934	42.75
786.112	42.78
786.289	42.19
786.467	41.89
786.645	40.66
786.823	40.23
787	40.34
787.178	38.63
787.356	38.54
787.533	38.09
787.711	37.39
787.889	35.75
788.066	34.85
788.244	35.48
788.421	35.81
788.599	35.63
788.776	35.4
788.954	35.75
789.131	36.26
789.309	35.19
789.486	35.43
789.664	36.06
789.841	36.71
790.019	36.9
790.196	36.75
790.373	35.89
790.551	37.28
790.728	37.15
790.906	36.46
791.083	35.7
791.26	36.75
791.437	36.93
791.615	36.58
791.792	35.42
791.969	36.87
792.146	36.87
792.324	37.22
792.501	36.49
792.678	36.84
792.855	37.38
793.032	37.75
793.209	38.69
793.387	38.12
793.564	38.12
793.741	38.43
793.918	38.01
794.095	38.62
794.272	38.41
794.449	37.78
794.626	39.12
794.803	39.63
794.98	39.86
795.157	39.15
795.334	39.38
795.511	38.71
795.688	38.72
795.864	37.91
796.041	37.65
796.218	38.95
796.395	39.48
796.572	38.18
796.749	37.98
796.925	37.69
797.102	37.13
797.279	37.21
797.456	36.82
797.632	37.71
797.809	37.73
797.986	36.89
798.162	35.14
798.339	35.15
798.516	35.13
798.692	34.86
798.869	34.99
799.046	36.24
799.222	36.18
799.399	36.48
799.575	35.78
799.752	36.3
799.928	35.55
800.105	36.47
800.281	35.92
800.458	35.53
800.634	34.57
800.811	34.23
800.987	33.54
801.163	34
801.34	35.35
801.516	35.56
801.692	35.33
801.869	36.85
802.045	37.45
802.221	37.94
802.398	38.65
802.574	39.63
802.75	40.45
802.926	40.4
803.103	40.02
803.279	38.58
803.455	38.25
803.631	39.1
803.807	38.66
803.983	37.91
804.16	38.04
804.336	38.06
804.512	38.37
804.688	37.42
804.864	36.9
805.04	37.19
805.216	37.55
805.392	37.47
805.568	37.67
805.744	37.66
805.92	38.61
806.096	37.73
806.272	38.19
806.448	37.97
806.623	37.66
806.799	38.45
806.975	37.73
807.151	37.44
807.327	37.45
807.503	36.46
807.678	36.59
807.854	34.8
808.03	35.4
808.206	35.76
808.381	35.39
808.557	34.49
808.733	33.59
808.908	34.71
809.084	34.74
809.26	35.44
809.435	35.97
809.611	35.48
809.787	35.97
809.962	35.93
810.138	35.66
810.313	35.58
810.489	36.18
810.664	35.97
810.84	34.94
811.015	35.74
811.191	34.65
811.366	34.73
811.542	35.39
811.717	35.24
811.892	35.6
812.068	34.88
812.243	34.62
812.419	35.14
812.594	35.88
812.769	35.97
812.944	35.07
813.12	35.97
813.295	34.92
813.47	34.43
813.645	33.75
813.821	33.44
813.996	33.29
814.171	34.08
814.346	34.09
814.521	33.54
814.697	34
814.872	33.31
815.047	32.04
815.222	32.03
815.397	31.95
815.572	33.05
815.747	32
815.922	32.96
816.097	32.53
816.272	31.64
816.447	31
816.622	31.38
816.797	32.25
816.972	33.62
817.147	32.82
817.322	33.79
817.496	32.62
817.671	33.41
817.846	31.98
818.021	31.38
818.196	31.68
818.371	32.03
818.545	30.35
818.72	29.97
818.895	28.55
819.069	30.12
819.244	29.26
819.419	30.13
819.594	29.5
819.768	29.85
819.943	30.11
820.117	29.88
820.292	29.5
820.467	29.3
820.641	28.92
820.816	27.97
820.99	26.86
821.165	26.45
821.339	25.82
821.514	25.54
821.688	25.1
821.863	24.79
822.037	24.84
822.212	24.69
822.386	24.48
822.56	24.43
822.735	24.62
822.909	24.89
823.084	24.83
823.258	25.08
823.432	24.98
823.606	24.98
823.781	25.03
823.955	25.17
824.129	25.1
824.303	25.37
824.478	25.44
824.652	25.41
824.826	25.14
825	25.5
825.174	25.27
825.348	25.73
825.523	25.93
825.697	25.96
825.871	25.57
826.045	25.82
826.219	25.72
826.393	25.95
826.567	26.46
826.741	26.46
826.915	26.04
827.089	25.95
827.263	25.86
827.437	26
827.611	26.38
827.784	26.27
827.958	26.31
828.132	26.62
828.306	26.55
828.48	26.54
828.654	26.58
828.827	26.91
829.001	26.94
829.175	27.31
829.349	27.56
829.522	27.24
829.696	28.07
829.87	28.15
830.044	27.91
830.217	28.52
830.391	28.82
830.565	29.37
830.738	29.94
830.912	30.82
831.085	30.04
831.259	29.86
831.432	30
831.606	29.31
831.779	30.98
831.953	32.12
832.126	32.11
832.3	31.44
832.473	31.62
832.647	30.48
832.82	30.07
832.994	30.17
833.167	29.89
833.34	29.89
833.514	29.99
833.687	28.89
833.86	28.03
834.034	27.76
834.207	27.52
834.38	27.38
834.553	27.98
834.727	28.07
834.9	27.63
835.073	27.91
835.246	27.55
835.419	27.7
835.593	28.34
835.766	28.8
835.939	29.28
836.112	29.78
836.285	29.42
836.458	28.6
836.631	28.31
836.804	27.91
836.977	28.22
837.15	29.92
837.323	30.33
837.496	30.17
837.669	30.8
837.842	29.29
838.015	29.15
838.188	27.83
838.361	29.34
838.533	29.57
838.706	32.85
838.879	33.43
839.052	32.58
839.225	30.82
839.398	30.98
839.57	31.35
839.743	33.41
839.916	35.97
840.088	39.12
840.261	38.75
840.434	38.46
840.607	38.42
840.779	37.14
840.952	35.84
841.124	37.17
841.297	37.22
841.47	36.74
841.642	35.21
841.815	34.02
841.987	32.55
842.16	32.49
842.332	32.27
842.505	32.24
842.677	32.5
842.85	32.94
843.022	33.18
843.194	34.21
843.367	32.4
843.539	33.91
843.712	33.95
843.884	34.58
844.056	36.48
844.229	37.99
844.401	38.19
844.573	37.69
844.745	40.06
844.918	41.24
845.09	42.35
845.262	43.76
845.434	42.4
845.606	39.02
845.779	40.39
845.951	38.62
846.123	42.07
846.295	39.56
846.467	39.27
846.639	39.34
846.811	36.47
846.983	36.79
847.155	39.9
847.327	38.79
847.499	41.87
847.671	41.45
847.843	42.2
848.015	40.26
848.187	41.83
848.359	42.11
848.531	41.43
848.703	43.86
848.875	42.53
849.047	39.35
849.218	41.38
849.39	40.86
849.562	41.27
849.734	41.31
849.905	43.92
850.077	42.77
850.249	44.98
850.421	45.28
850.592	47.15
850.764	44.72
850.936	48.01
851.107	48.02
851.279	50.29
851.451	48.55
851.622	51.52
851.794	48.13
851.965	49.46
852.137	49.81
852.308	51.86
852.48	49.84
852.651	48.56
852.823	44.34
852.994	43.17
853.166	41.73
853.337	40.61
853.509	40.21
853.68	37.91
853.851	38.2
854.023	34.84
854.194	32.97
854.365	34.1
854.537	36.19
854.708	37.07
854.879	39.34
855.05	40.33
855.222	41.9
855.393	35.49
855.564	34.92
855.735	38.88
855.906	39.95
856.078	41.96
856.249	40.3
856.42	41.29
856.591	43.55
856.762	41.89
856.933	43.09
857.104	41.34
857.275	42.89
857.446	42.86
857.617	41.02
857.788	41.55
857.959	41.41
858.13	42.95
858.301	43.44
858.472	43.28
858.643	39.67
858.814	36.48
858.985	37.21
859.155	37.66
859.326	39.33
859.497	38.72
859.668	40.13
859.839	37.6
860.009	37.11
860.18	36.74
860.351	35.14
860.522	35.08
860.692	34.72
860.863	34.66
861.034	34.22
861.204	34.52
861.375	34.93
861.546	34.06
861.716	35
861.887	35.22
862.057	32.46
862.228	34.02
862.398	37.93
862.569	39.51
862.739	41.7
862.91	41.14
863.08	41.78
863.251	40.14
863.421	40.09
863.592	42.21
863.762	38.36
863.932	38.04
864.103	40.5
864.273	39.48
864.443	39.3
864.614	32.49
864.784	36.81
864.954	38.43
865.125	36.26
865.295	35.8
865.465	31.37
865.635	34.84
865.805	38.37
865.976	35.44
866.146	35.05
866.316	32.33
866.486	35.56
866.656	33.84
866.826	30.45
866.996	35.29
867.166	35.74
867.336	39.24
867.506	38.66
867.676	34.58
867.846	36.35
868.016	32.73
868.186	34.42
868.356	35.35
868.526	33.67
868.696	36.05
868.866	35.14
869.036	33.54
869.206	30.01
869.376	29.76
869.545	28.91
869.715	27.51
869.885	29.29
870.055	32.37
870.224	34.22
870.394	35.09
870.564	31.39
870.734	31.53
870.903	33.47
871.073	35.86
871.243	36.65
871.412	38.53
871.582	39.08
871.751	44.07
871.921	37.99
872.091	35.03
872.26	31.5
872.43	33.55
872.599	31.97
872.769	28.85
872.938	27.48
873.108	27.69
873.277	30.12
873.446	26.92
873.616	20.7
873.785	24.21
873.955	22.54
874.124	24.07
874.293	23.68
874.463	23.62
874.632	24.56
874.801	24.38
874.971	23.26
875.14	19.51
875.309	22.78
875.478	24.83
875.647	20.95
875.817	24.87
875.986	28.06
876.155	30.42
876.324	32.13
876.493	34.6
876.662	35.27
876.831	34.36
877	33.85
877.17	34.87
877.339	36.94
877.508	39.44
877.677	41.3
877.846	41.84
878.015	42.36
878.184	38.6
878.352	39.63
878.521	38.81
878.69	40.22
878.859	41.55
879.028	41.78
879.197	38.95
879.366	38.58
879.534	36.56
879.703	33.91
879.872	31.77
880.041	32.71
880.21	29.92
880.378	29.52
880.547	27.51
880.716	25.53
880.884	23.69
881.053	23.24
881.222	21.91
881.39	21.51
881.559	21.77
881.727	21.22
881.896	20.75
882.065	21.5
882.233	21.37
882.402	22.21
882.57	22.39
882.739	22.61
882.907	22.93
883.076	23.11
883.244	23.39
883.412	23.38
883.581	23.95
883.749	24.56
883.918	23.87
884.086	23.49
884.254	22.64
884.423	23.14
884.591	23.08
884.759	23.26
884.927	24.68
885.096	25.27
885.264	25.88
885.432	24.96
885.6	24.53
885.769	25.73
885.937	27.52
886.105	28.72
886.273	29.39
886.441	30.34
886.609	31.89
886.777	32.89
886.945	30.4
887.113	28.99
887.281	31.7
887.449	31.44
887.617	32.65
887.785	33.24
887.953	32.92
888.121	34.61
888.289	32.68
888.457	29.49
888.625	24.22
888.793	25.08
888.961	25.54
889.129	25.26
889.296	24.93
889.464	20.8
889.632	18.03
889.8	18.57
889.967	12.06
890.135	13.04
