Data from 2938822__Reflection_03.txt Node
Date: Thu Mar 12 14:22:33 EDT 2015
User: robert
Spectrometer: USB4E03002
Autoset integration time: false
Trigger mode: 4
Integration Time (sec): 1.000000E-1
Scans to average: 10
Electric dark correction enabled: false
Nonlinearity correction enabled: false
Boxcar width: 5
Stray light correction enabled: false
XAxis mode: Wavelengths
Stop averaging: false
Number of Pixels in Spectrum: 3648
>>>>>Begin Spectral Data<<<<<
177.575	69.34
177.794	129.59
178.014	97.59
178.233	94.41
178.452	85.05
178.672	91.55
178.891	83.09
179.11	81.5
179.33	83.15
179.549	75.47
179.768	72.98
179.987	74.83
180.207	39.92
180.426	10.59
180.645	-81.95
180.864	-185.44
181.084	-939.02
181.303	337.1
181.522	3327.27
181.741	-1152.63
181.96	-303.21
182.179	-775.36
182.398	-2208
182.618	-1446.87
182.837	1015
183.056	384.35
183.275	204.17
183.494	155.6
183.713	188.75
183.932	107.14
184.151	110.58
184.37	94.34
184.589	50.27
184.808	61.35
185.027	66.95
185.246	79.04
185.465	115.33
185.684	40
185.903	48.45
186.122	17.38
186.341	33.78
186.56	24.37
186.779	5.57
186.998	33.07
187.216	32.74
187.435	60.83
187.654	45.36
187.873	27.13
188.092	38.39
188.311	28.73
188.53	75.15
188.748	92.84
188.967	92.14
189.186	82.36
189.405	101.14
189.623	120.38
189.842	31.3
190.061	-6.31
190.28	20.85
190.498	52.76
190.717	69.9
190.936	43.38
191.154	-1.31
191.373	32.43
191.592	-19.4
191.81	1.27
192.029	-6.41
192.248	15.42
192.466	34.62
192.685	5.97
192.904	0
193.122	-15.28
193.341	-9.52
193.559	-9.39
193.778	-243.01
193.996	353.1
194.215	202.87
194.433	1423.53
194.652	-119.65
194.87	-295.4
195.089	-107.28
195.307	-188.99
195.526	-148.28
195.744	-58.65
195.963	-239.6
196.181	28.93
196.399	119.83
196.618	42.2
196.836	-76.36
197.055	111.11
197.273	-60.42
197.491	86.21
197.71	313.33
197.928	173.17
198.146	-24.59
198.365	103.72
198.583	23.2
198.801	40.95
199.019	98.06
199.238	106.02
199.456	115.63
199.674	160.64
199.892	170.47
200.111	142.01
200.329	162.87
200.547	95.02
200.765	3300
200.983	131.58
201.202	-177.78
201.42	492.86
201.638	63.21
201.856	575
202.074	-506.67
202.292	254.41
202.51	542.86
202.728	129.03
202.946	275
203.165	195.27
203.383	199.6
203.601	115.29
203.819	66.19
204.037	93.58
204.255	56.88
204.473	-13.64
204.691	-257.89
204.909	-208.51
205.127	-339
205.345	-222.92
205.562	6187.5
205.78	-419.53
205.998	-187.45
206.216	-120.85
206.434	-38.84
206.652	-26.52
206.87	17.74
207.088	17.55
207.306	-1.63
207.523	19.24
207.741	20.53
207.959	39.76
208.177	41.06
208.395	41.62
208.612	59.76
208.83	50.08
209.048	68.9
209.266	33.12
209.483	61.84
209.701	93.66
209.919	67.16
210.136	68.29
210.354	41.58
210.572	51.6
210.79	50.26
211.007	31.55
211.225	34.48
211.442	45.93
211.66	47.42
211.878	39.27
212.095	35.84
212.313	34.96
212.53	19.22
212.748	32.49
212.966	23.69
213.183	32.16
213.401	35.29
213.618	41.03
213.836	41.84
214.053	45.21
214.271	36.29
214.488	40.69
214.705	40.24
214.923	76.5
215.14	55.52
215.358	65.65
215.575	53.48
215.793	69.49
216.01	46.27
216.227	31.69
216.445	50.79
216.662	64.52
216.879	55.35
217.097	53.12
217.314	36.88
217.531	57.14
217.749	69.76
217.966	59.4
218.183	53.03
218.4	53.8
218.618	61.78
218.835	45.74
219.052	44.11
219.269	44.77
219.487	53.31
219.704	51.34
219.921	42.56
220.138	38.89
220.355	41.63
220.572	34.87
220.79	33.37
221.007	16.81
221.224	29.69
221.441	28.35
221.658	18.17
221.875	12.38
222.092	15.05
222.309	20.61
222.526	17.63
222.743	17.31
222.96	13.25
223.177	16.77
223.394	18.32
223.611	8.91
223.828	3.13
224.045	17.9
224.262	20.05
224.479	16.53
224.696	15.81
224.913	15
225.13	16.57
225.347	21.87
225.564	14.7
225.781	17.42
225.997	21.63
226.214	17.34
226.431	11.77
226.648	8.77
226.865	7.74
227.082	6.25
227.298	6.45
227.515	5.86
227.732	5.33
227.949	6.36
228.165	5.87
228.382	5.04
228.599	5.34
228.816	5.74
229.032	5.37
229.249	4.78
229.466	4.49
229.682	4.77
229.899	4.31
230.116	4.29
230.332	3.97
230.549	4.77
230.765	3.42
230.982	3.88
231.199	3.24
231.415	3.1
231.632	4.33
231.848	5.09
232.065	4.47
232.281	5.98
232.498	6.45
232.714	7.13
232.931	7.25
233.147	8.72
233.364	7.56
233.58	8.72
233.797	8.99
234.013	8.7
234.23	8.68
234.446	7.63
234.662	6.38
234.879	6.15
235.095	5.5
235.312	3.42
235.528	3.11
235.744	3.74
235.961	4.42
236.177	5.79
236.393	5.44
236.61	4.8
236.826	5.11
237.042	5.09
237.258	5.26
237.475	5.62
237.691	7.62
237.907	7.54
238.123	8.21
238.339	7.31
238.556	5.95
238.772	6.26
238.988	7.13
239.204	7.01
239.42	7.68
239.636	8.35
239.853	8.08
240.069	6.8
240.285	6.99
240.501	6.45
240.717	6.38
240.933	6.61
241.149	6.64
241.365	6.07
241.581	6.58
241.797	6.55
242.013	5.77
242.229	5.42
242.445	5.65
242.661	5.61
242.877	5.1
243.093	4.61
243.309	5.41
243.525	4.72
243.741	4.85
243.957	5.01
244.173	4.02
244.388	3.88
244.604	4.57
244.82	4
245.036	4.17
245.252	4.83
245.468	4.86
245.683	4.46
245.899	5.07
246.115	4.98
246.331	4.44
246.547	4.78
246.762	4.83
246.978	4.6
247.194	4.78
247.409	4.38
247.625	4.63
247.841	4.85
248.057	4.73
248.272	4.69
248.488	4.85
248.703	4.85
248.919	5.17
249.135	5.33
249.35	5.19
249.566	5.1
249.782	5.6
249.997	4.96
250.213	4.91
250.428	4.23
250.644	3.78
250.859	2.99
251.075	3.25
251.29	3.16
251.506	2.85
251.721	2.77
251.937	3.02
252.152	3.98
252.368	4.49
252.583	4.18
252.798	4.78
253.014	4.6
253.229	4.7
253.445	5.26
253.66	4.49
253.875	4.95
254.091	5.61
254.306	5.27
254.521	4.03
254.737	3.88
254.952	3.66
255.167	3.39
255.383	3.78
255.598	4.31
255.813	3.43
256.028	4.08
256.244	3.85
256.459	3.51
256.674	3.18
256.889	4.36
257.104	3.74
257.32	4.06
257.535	3.65
257.75	4.17
257.965	4.36
258.18	4.14
258.395	3.73
258.61	3.48
258.826	3.65
259.041	3.75
259.256	3.51
259.471	3.62
259.686	3.54
259.901	3.56
260.116	3.51
260.331	3.6
260.546	3.72
260.761	3.8
260.976	3.95
261.191	3.79
261.406	3.97
261.621	3.83
261.836	3.53
262.05	3.61
262.265	3.85
262.48	3.42
262.695	3.1
262.91	3.12
263.125	3.4
263.34	3.21
263.555	3.06
263.769	3.56
263.984	3.07
264.199	3.37
264.414	3.29
264.629	3.08
264.843	2.93
265.058	2.67
265.273	2.46
265.488	2.64
265.702	2.7
265.917	2.28
266.132	1.97
266.346	2.29
266.561	3.1
266.776	3.13
266.99	3.19
267.205	3.31
267.42	3.92
267.634	4.48
267.849	4.12
268.063	4.11
268.278	4.98
268.492	5.14
268.707	5.26
268.922	4.44
269.136	4.45
269.351	4.55
269.565	4.27
269.78	3.86
269.994	3.56
270.209	3.46
270.423	3.48
270.637	3.51
270.852	3.17
271.066	3.23
271.281	3.17
271.495	2.91
271.709	2.73
271.924	3.04
272.138	2.85
272.353	2.57
272.567	2.92
272.781	2.99
272.996	2.82
273.21	2.8
273.424	2.69
273.638	3
273.853	3.27
274.067	3.26
274.281	3.51
274.495	3.38
274.71	3.83
274.924	3.61
275.138	3.36
275.352	3.42
275.566	3.19
275.781	3.34
275.995	3.43
276.209	3.2
276.423	3.34
276.637	2.93
276.851	3.14
277.065	3.09
277.279	3.13
277.493	3.38
277.707	2.92
277.921	3.19
278.135	3.31
278.349	2.9
278.563	2.92
278.777	2.96
278.991	3.06
279.205	3.45
279.419	3.56
279.633	3.5
279.847	4.07
280.061	4.15
280.275	4.17
280.489	3.79
280.703	3.89
280.917	3.93
281.131	3.5
281.344	3.69
281.558	3.44
281.772	2.78
281.986	2.32
282.2	1.39
282.414	1.66
282.627	1.37
282.841	1.62
283.055	2.02
283.269	2.36
283.482	2.77
283.696	2.81
283.91	2.8
284.123	3.13
284.337	3.53
284.551	3.73
284.764	3.5
284.978	3.77
285.192	3.83
285.405	3.27
285.619	2.95
285.833	2.86
286.046	2.79
286.26	2.68
286.473	2.48
286.687	2.45
286.9	2.64
287.114	2.88
287.327	2.57
287.541	2.32
287.754	2.98
287.968	2.93
288.181	2.92
288.395	3.03
288.608	3.38
288.822	3.42
289.035	3.44
289.248	3.75
289.462	3.81
289.675	4.04
289.889	4.03
290.102	3.45
290.315	3.63
290.529	3.51
290.742	3.34
290.955	3.15
291.169	3.34
291.382	3.24
291.595	3.07
291.808	2.79
292.022	3.1
292.235	3.15
292.448	3.45
292.661	3.52
292.875	3.78
293.088	3.87
293.301	4.04
293.514	4.3
293.727	4.89
293.94	4.81
294.153	5.38
294.367	5.15
294.58	5.38
294.793	5.43
295.006	5.38
295.219	5.48
295.432	5.54
295.645	5.43
295.858	5.37
296.071	5.27
296.284	5.61
296.497	5.3
296.71	4.93
296.923	4.92
297.136	5.05
297.349	5.28
297.562	5.41
297.775	5.41
297.988	5.37
298.201	5.3
298.414	5.34
298.626	4.97
298.839	5.29
299.052	5.8
299.265	5.72
299.478	5.51
299.691	5.53
299.903	5.49
300.116	5.9
300.329	6.18
300.542	6.19
300.755	6.1
300.967	6.41
301.18	6.08
301.393	5.97
301.605	5.65
301.818	6.08
302.031	6.29
302.243	6.29
302.456	6.28
302.669	6.06
302.881	6.22
303.094	6.43
303.307	5.9
303.519	5.75
303.732	6.07
303.944	6.7
304.157	6.58
304.37	6.41
304.582	6.25
304.795	6.08
305.007	6.39
305.22	6.64
305.432	6.36
305.645	6.9
305.857	6.89
306.069	7.12
306.282	6.98
306.494	7
306.707	6.99
306.919	7.35
307.132	7.43
307.344	7.34
307.556	7.06
307.769	7.13
307.981	7.43
308.193	7.74
308.406	7.55
308.618	7.96
308.83	8.11
309.043	8.13
309.255	7.85
309.467	7.89
309.679	7.83
309.892	8.04
310.104	8.13
310.316	8.32
310.528	8.7
310.74	8.87
310.953	8.73
311.165	8.68
311.377	8.58
311.589	8.71
311.801	8.92
312.013	8.93
312.225	8.91
312.437	8.99
312.649	8.66
312.862	8.33
313.074	8.03
313.286	7.77
313.498	7.64
313.71	7.88
313.922	7.81
314.134	7.42
314.346	7.39
314.558	7.41
314.77	7.33
314.982	7.42
315.193	7.81
315.405	7.69
315.617	7.98
315.829	8.11
316.041	7.63
316.253	7.8
316.465	7.44
316.677	8.04
316.888	8.33
317.1	8.31
317.312	8.61
317.524	8.03
317.736	8.78
317.947	8.95
318.159	9.3
318.371	10.04
318.583	10.18
318.794	10.79
319.006	10.22
319.218	9.84
319.43	9.68
319.641	9.67
319.853	10.13
320.064	9.33
320.276	8.96
320.488	8.87
320.699	8.54
320.911	8.24
321.123	8.38
321.334	8.77
321.546	9.31
321.757	9.26
321.969	9.18
322.18	8.75
322.392	9.2
322.603	9.39
322.815	9.13
323.026	9.33
323.238	9.59
323.449	9.47
323.661	9.51
323.872	9.18
324.083	9.65
324.295	9.19
324.506	9.44
324.718	9.61
324.929	9.75
325.14	9.91
325.352	9.73
325.563	9.52
325.774	9.39
325.986	9.56
326.197	9.66
326.408	9.67
326.62	9.81
326.831	9.64
327.042	9.54
327.253	9.48
327.464	9.82
327.676	10.03
327.887	10.16
328.098	10.28
328.309	9.74
328.52	9.93
328.732	10.27
328.943	10.51
329.154	10.46
329.365	10.5
329.576	9.92
329.787	9.59
329.998	9.29
330.209	9.67
330.42	9.48
330.631	10.09
330.842	9.81
331.053	9.34
331.264	9.09
331.475	9.51
331.686	9.14
331.897	9.56
332.108	9.61
332.319	9.68
332.53	9.29
332.741	9.29
332.952	8.93
333.163	8.81
333.374	8.64
333.585	8.74
333.795	8.6
334.006	8.74
334.217	8.89
334.428	8.52
334.639	8.18
334.849	7.71
335.06	7.76
335.271	7.96
335.482	7.9
335.692	7.88
335.903	8.33
336.114	8.65
336.325	9.11
336.535	9.03
336.746	8.81
336.957	9.05
337.167	9.3
337.378	9.24
337.589	9.19
337.799	9.26
338.01	9.41
338.22	9.13
338.431	9.07
338.642	8.53
338.852	8.54
339.063	8.95
339.273	9.02
339.484	9.37
339.694	9.44
339.905	9.42
340.115	9.23
340.326	9.35
340.536	9.45
340.746	8.9
340.957	8.61
341.167	8.63
341.378	8.7
341.588	8.77
341.799	8.79
342.009	9.21
342.219	9.33
342.43	9.47
342.64	9.15
342.85	8.81
343.061	8.97
343.271	8.86
343.481	8.6
343.691	8.16
343.902	8.27
344.112	7.84
344.322	7.48
344.532	7.32
344.743	7.39
344.953	7.52
345.163	7.63
345.373	7.35
345.583	7.83
345.793	8.19
346.004	8.66
346.214	8.55
346.424	8.85
346.634	8.82
346.844	8.79
347.054	8.75
347.264	8.54
347.474	8.2
347.684	8.6
347.894	8.36
348.104	7.99
348.314	7.78
348.524	7.64
348.734	7.82
348.944	7.93
349.154	8.35
349.364	8.11
349.574	8.29
349.784	8.76
349.994	8.68
350.204	8.82
350.413	9.05
350.623	8.96
350.833	8.87
351.043	8.7
351.253	8.55
351.463	8.27
351.672	8.47
351.882	8.47
352.092	8.27
352.302	8.15
352.511	8.04
352.721	8.08
352.931	8.22
353.141	8.09
353.35	7.91
353.56	8.11
353.77	8.11
353.979	8.19
354.189	8.21
354.399	8.06
354.608	8.21
354.818	8.16
355.027	7.94
355.237	7.82
355.447	8.06
355.656	8.13
355.866	7.91
356.075	7.73
356.285	7.88
356.494	7.72
356.704	7.77
356.913	7.61
357.123	7.78
357.332	7.79
357.542	7.92
357.751	7.94
357.96	7.74
358.17	7.75
358.379	7.8
358.589	7.59
358.798	7.34
359.007	7.31
359.217	7.56
359.426	7.6
359.635	7.52
359.845	7.24
360.054	7.12
360.263	7.45
360.472	7.39
360.682	7.26
360.891	7.26
361.1	7.32
361.309	7.17
361.519	6.99
361.728	7
361.937	7.12
362.146	7.18
362.355	7.17
362.564	6.85
362.774	6.95
362.983	7.07
363.192	7.17
363.401	7.42
363.61	7.67
363.819	7.63
364.028	7.66
364.237	7.53
364.446	7.54
364.655	7.34
364.864	7.63
365.073	7.71
365.282	7.63
365.491	7.47
365.7	7.58
365.909	7.62
366.118	7.61
366.327	7.47
366.536	7.39
366.745	7.33
366.954	7.65
367.162	7.64
367.371	7.55
367.58	7.68
367.789	7.6
367.998	7.25
368.207	7.12
368.415	6.94
368.624	6.89
368.833	6.98
369.042	7.01
369.25	6.89
369.459	6.48
369.668	6.22
369.877	6.36
370.085	6.34
370.294	6.47
370.503	6.3
370.711	6.46
370.92	6.16
371.129	6.18
371.337	6.04
371.546	6.02
371.754	6.34
371.963	6.2
372.171	5.64
372.38	5.46
372.589	5.66
372.797	5.78
373.006	5.83
373.214	6.24
373.423	6.09
373.631	6.46
373.84	6.46
374.048	6.31
374.256	6.51
374.465	6.62
374.673	6.83
374.882	6.69
375.09	6.38
375.298	6.29
375.507	6.3
375.715	6.28
375.923	5.94
376.132	5.92
376.34	6
376.548	5.93
376.757	5.84
376.965	5.65
377.173	5.46
377.381	5.61
377.59	5.64
377.798	5.43
378.006	5.47
378.214	5.6
378.423	5.39
378.631	5.23
378.839	5.13
379.047	5.32
379.255	5.5
379.463	5.85
379.671	5.78
379.879	5.8
380.088	5.83
380.296	5.76
380.504	5.66
380.712	5.74
380.92	5.55
381.128	5.55
381.336	5.47
381.544	5.19
381.752	4.78
381.96	4.6
382.168	4.53
382.376	4.57
382.584	4.51
382.791	4.59
382.999	4.76
383.207	4.89
383.415	5.14
383.623	5.14
383.831	5.27
384.039	5.39
384.247	5.6
384.454	5.46
384.662	5.23
384.87	5.21
385.078	5.12
385.285	4.91
385.493	4.89
385.701	4.8
385.909	4.78
386.116	4.66
386.324	4.54
386.532	4.4
386.739	4.57
386.947	4.59
387.155	4.52
387.362	4.48
387.57	4.38
387.778	4.36
387.985	4.27
388.193	4.4
388.4	4.53
388.608	4.59
388.816	4.79
389.023	4.7
389.231	4.69
389.438	4.87
389.646	4.81
389.853	4.97
390.061	4.93
390.268	4.79
390.475	4.65
390.683	4.47
390.89	4.27
391.098	4.16
391.305	3.86
391.512	3.87
391.72	3.86
391.927	3.72
392.135	3.54
392.342	3.53
392.549	3.55
392.756	3.67
392.964	3.94
393.171	4.1
393.378	4.13
393.586	4.38
393.793	4.29
394	4.31
394.207	4.35
394.414	4.39
394.622	4.41
394.829	4.37
395.036	4.1
395.243	4.06
395.45	3.96
395.657	3.97
395.864	3.96
396.072	4.02
396.279	3.92
396.486	3.89
396.693	3.86
396.9	3.81
397.107	3.7
397.314	3.67
397.521	3.68
397.728	3.73
397.935	3.55
398.142	3.53
398.349	3.67
398.556	3.45
398.763	3.58
398.97	3.51
399.177	3.65
399.383	3.82
399.59	3.83
399.797	3.68
400.004	3.52
400.211	3.64
400.418	3.58
400.625	3.4
400.831	3.52
401.038	3.49
401.245	3.52
401.452	3.26
401.658	3.14
401.865	3.24
402.072	3.25
402.279	3.3
402.485	3.3
402.692	3.32
402.899	3.43
403.105	3.45
403.312	3.6
403.519	3.63
403.725	3.82
403.932	3.84
404.138	3.84
404.345	3.9
404.552	3.81
404.758	3.85
404.965	3.71
405.171	3.61
405.378	3.76
405.584	3.63
405.791	3.61
405.997	3.41
406.204	3.51
406.41	3.44
406.617	3.5
406.823	3.49
407.029	3.57
407.236	3.74
407.442	3.81
407.649	3.68
407.855	3.56
408.061	3.79
408.268	3.82
408.474	3.6
408.68	3.67
408.887	3.42
409.093	3.5
409.299	3.2
409.505	3.05
409.712	3.08
409.918	3.12
410.124	3.13
410.33	3
410.537	3.03
410.743	2.94
410.949	2.97
411.155	3.18
411.361	3.2
411.567	3.2
411.773	3.22
411.98	3.16
412.186	2.92
412.392	2.89
412.598	2.82
412.804	2.88
413.01	2.95
413.216	2.83
413.422	2.45
413.628	2.43
413.834	2.49
414.04	2.65
414.246	2.72
414.452	2.93
414.658	2.93
414.864	2.94
415.07	3.06
415.275	3.09
415.481	3.14
415.687	3.26
415.893	3.19
416.099	3.19
416.305	3.06
416.511	2.95
416.716	2.82
416.922	2.83
417.128	2.88
417.334	2.86
417.539	2.85
417.745	2.8
417.951	2.82
418.157	2.87
418.362	2.91
418.568	2.9
418.774	2.9
418.979	2.78
419.185	2.78
419.391	2.71
419.596	2.68
419.802	2.79
420.008	2.85
420.213	2.19
420.419	2.19
420.624	2.18
420.83	2.17
421.035	2.18
421.241	2.29
421.446	2.29
421.652	2.26
421.857	2.25
422.063	2.13
422.268	2.13
422.474	2.7
422.679	2.66
422.885	2.7
423.09	2.67
423.295	2.59
423.501	2.57
423.706	2.61
423.911	2.6
424.117	2.54
424.322	2.58
424.527	2.53
424.733	2.52
424.938	2.56
425.143	2.5
425.349	2.55
425.554	2.68
425.759	2.73
425.964	2.65
426.169	2.68
426.375	2.66
426.58	2.68
426.785	2.72
426.99	2.72
427.195	2.68
427.4	2.73
427.605	2.62
427.811	2.49
428.016	2.49
428.221	2.49
428.426	2.53
428.631	2.6
428.836	2.64
429.041	2.53
429.246	2.61
429.451	2.53
429.656	2.39
429.861	2.56
430.066	2.63
430.271	2.62
430.476	2.62
430.681	2.63
430.886	2.66
431.09	2.62
431.295	2.61
431.5	2.54
431.705	2.66
431.91	2.64
432.115	2.58
432.32	2.54
432.524	2.56
432.729	2.6
432.934	2.48
433.139	2.41
433.343	2.38
433.548	2.38
433.753	2.37
433.958	2.32
434.162	2.47
434.367	2.47
434.572	2.51
434.776	2.52
434.981	2.48
435.186	2.6
435.39	2.63
435.595	2.68
435.799	2.63
436.004	2.58
436.209	2.58
436.413	2.56
436.618	2.52
436.822	2.44
437.027	2.34
437.231	2.39
437.436	2.32
437.64	2.34
437.845	2.23
438.049	2.32
438.253	2.41
438.458	2.47
438.662	2.38
438.867	2.43
439.071	2.43
439.275	2.39
439.48	2.36
439.684	2.4
439.888	2.38
440.093	2.43
440.297	2.39
440.501	2.42
440.706	2.41
440.91	2.36
441.114	2.29
441.318	2.28
441.523	2.38
441.727	2.39
441.931	2.41
442.135	2.37
442.339	2.36
442.543	2.34
442.748	2.24
442.952	2.19
443.156	2.33
443.36	2.34
443.564	2.37
443.768	2.28
443.972	2.26
444.176	2.3
444.38	2.31
444.584	2.37
444.788	2.48
444.992	2.56
445.196	2.56
445.4	2.52
445.604	2.55
445.808	2.52
446.012	2.5
446.216	2.42
446.42	2.34
446.624	2.34
446.828	2.32
447.032	2.24
447.235	2.2
447.439	2.14
447.643	2.15
447.847	2.09
448.051	2.06
448.254	2.08
448.458	2.13
448.662	2.19
448.866	2.13
449.069	2.07
449.273	2.16
449.477	2.15
449.681	2.18
449.884	2.1
450.088	2.12
450.292	2.17
450.495	2.14
450.699	2.25
450.902	2.19
451.106	2.18
451.31	2.2
451.513	2.12
451.717	2.03
451.92	2.02
452.124	2.06
452.327	2.13
452.531	2.13
452.734	2.2
452.938	2.1
453.141	2.09
453.345	2.19
453.548	2.24
453.752	2.33
453.955	2.48
454.158	2.49
454.362	2.51
454.565	2.45
454.769	2.5
454.972	2.49
455.175	2.55
455.379	2.57
455.582	2.52
455.785	2.4
455.988	2.26
456.192	2.09
456.395	2.06
456.598	2.22
456.801	2.23
457.005	2.11
457.208	2.1
457.411	2.04
457.614	1.87
457.817	1.91
458.021	1.97
458.224	2.04
458.427	2.12
458.63	2.21
458.833	2.22
459.036	2.21
459.239	2.27
459.442	2.33
459.645	2.36
459.848	2.42
460.051	2.41
460.254	2.39
460.457	2.38
460.66	2.36
460.863	2.25
461.066	2.18
461.269	2.18
461.472	2.21
461.675	2.16
461.878	2.03
462.081	2.14
462.284	2.16
462.486	2.24
462.689	2.24
462.892	2.27
463.095	2.35
463.298	2.29
463.5	2.43
463.703	2.37
463.906	2.41
464.109	2.63
464.311	2.65
464.514	2.67
464.717	2.59
464.92	2.62
465.122	2.64
465.325	2.73
465.528	2.72
465.73	2.64
465.933	2.61
466.135	2.65
466.338	2.55
466.541	2.51
466.743	2.53
466.946	2.51
467.148	2.51
467.351	2.52
467.553	2.62
467.756	2.64
467.958	2.56
468.161	2.62
468.363	2.45
468.566	2.52
468.768	2.44
468.971	2.34
469.173	2.22
469.375	2.18
469.578	2.21
469.78	2.07
469.983	2.18
470.185	2.27
470.387	2.3
470.59	2.34
470.792	2.26
470.994	2.34
471.196	2.35
471.399	2.52
471.601	2.6
471.803	2.44
472.005	2.47
472.208	2.3
472.41	2.2
472.612	2.22
472.814	2.13
473.016	2.07
473.218	2.01
473.421	2.05
473.623	2.05
473.825	1.98
474.027	2.1
474.229	2.02
474.431	2.05
474.633	2.12
474.835	2.02
475.037	2.12
475.239	2.26
475.441	2.27
475.643	2.26
475.845	2.26
476.047	2.26
476.249	2.15
476.451	2.11
476.653	2.17
476.855	2.13
477.057	2.16
477.258	2.05
477.46	1.99
477.662	2.02
477.864	2.04
478.066	1.99
478.268	2.01
478.469	2.08
478.671	2.11
478.873	2.13
479.075	2.13
479.276	2.08
479.478	2.19
479.68	2.25
479.882	2.27
480.083	2.23
480.285	2.25
480.487	2.15
480.688	2.13
480.89	2.17
481.091	2.13
481.293	2.17
481.495	2.21
481.696	2.22
481.898	2.16
482.099	2.13
482.301	2.1
482.502	2.08
482.704	2.12
482.905	2.13
483.107	2.11
483.308	2.11
483.51	2.07
483.711	2.04
483.913	2.03
484.114	2.03
484.315	2.05
484.517	2.07
484.718	2.09
484.92	2.08
485.121	2.08
485.322	2.07
485.524	2.06
485.725	2.08
485.926	2.09
486.127	2.08
486.329	2.08
486.53	2.08
486.731	2.06
486.932	2.06
487.134	2.09
487.335	2.11
487.536	2.11
487.737	2.09
487.938	2.12
488.139	2.12
488.341	2.18
488.542	2.19
488.743	2.15
488.944	2.21
489.145	2.2
489.346	2.19
489.547	2.24
489.748	2.24
489.949	2.29
490.15	2.25
490.351	2.28
490.552	2.24
490.753	2.22
490.954	2.26
491.155	2.22
491.356	2.23
491.557	2.21
491.758	2.17
491.959	2.16
492.159	2.16
492.36	2.18
492.561	2.16
492.762	2.17
492.963	2.19
493.164	2.18
493.364	2.19
493.565	2.2
493.766	2.26
493.967	2.17
494.167	2.19
494.368	2.21
494.569	2.23
494.769	2.28
494.97	2.25
495.171	2.31
495.371	2.38
495.572	2.46
495.773	2.45
495.973	2.45
496.174	2.57
496.375	2.6
496.575	2.58
496.776	2.53
496.976	2.53
497.177	2.52
497.377	2.53
497.578	2.5
497.778	2.47
497.979	2.54
498.179	2.5
498.38	2.44
498.58	2.44
498.78	2.43
498.981	2.42
499.181	2.43
499.382	2.44
499.582	2.4
499.782	2.37
499.983	2.36
500.183	2.33
500.383	2.34
500.584	2.35
500.784	2.27
500.984	2.34
501.184	2.49
501.385	2.53
501.585	2.54
501.785	2.57
501.985	2.63
502.185	2.67
502.386	2.67
502.586	2.71
502.786	2.7
502.986	2.76
503.186	2.81
503.386	2.75
503.586	2.76
503.786	2.79
503.987	2.81
504.187	2.81
504.387	2.82
504.587	2.76
504.787	2.8
504.987	2.94
505.187	3.02
505.387	2.96
505.587	2.96
505.786	2.94
505.986	2.97
506.186	2.99
506.386	3.07
506.586	2.99
506.786	3.07
506.986	3.09
507.186	3.07
507.386	3.09
507.585	3.21
507.785	3.3
507.985	3.3
508.185	3.28
508.384	3.28
508.584	3.29
508.784	3.39
508.984	3.43
509.183	3.44
509.383	3.49
509.583	3.54
509.782	3.46
509.982	3.4
510.182	3.45
510.381	3.52
510.581	3.62
510.781	3.64
510.98	3.69
511.18	3.73
511.379	3.76
511.579	3.75
511.778	3.74
511.978	3.84
512.177	3.97
512.377	4
512.576	4.03
512.776	3.95
512.975	4.03
513.175	4.09
513.374	4.04
513.573	4.1
513.773	4.16
513.972	4.24
514.172	4.27
514.371	4.26
514.57	4.2
514.77	4.28
514.969	4.32
515.168	4.39
515.367	4.35
515.567	4.46
515.766	4.47
515.965	4.54
516.164	4.6
516.364	4.64
516.563	4.74
516.762	4.9
516.961	4.98
517.16	5.02
517.359	5.08
517.559	5.25
517.758	5.36
517.957	5.42
518.156	5.41
518.355	5.49
518.554	5.51
518.753	5.55
518.952	5.54
519.151	5.52
519.35	5.62
519.549	5.59
519.748	5.56
519.947	5.53
520.146	5.54
520.345	5.56
520.544	5.57
520.743	5.66
520.942	5.62
521.141	5.76
521.339	5.81
521.538	5.9
521.737	5.99
521.936	6.05
522.135	6.12
522.333	6.31
522.532	6.43
522.731	6.46
522.93	6.46
523.129	6.63
523.327	6.65
523.526	6.73
523.725	6.78
523.923	6.8
524.122	6.92
524.321	6.91
524.519	6.83
524.718	6.89
524.917	6.95
525.115	7.03
525.314	7.03
525.512	7.1
525.711	7.16
525.909	7.17
526.108	7.24
526.306	7.23
526.505	7.34
526.703	7.43
526.902	7.46
527.1	7.49
527.299	7.52
527.497	7.55
527.696	7.56
527.894	7.57
528.092	7.61
528.291	7.64
528.489	7.64
528.688	7.63
528.886	7.65
529.084	7.68
529.283	7.69
529.481	7.7
529.679	7.77
529.877	7.8
530.076	7.86
530.274	7.91
530.472	7.94
530.67	8.02
530.869	8.08
531.067	8.12
531.265	8.13
531.463	8.19
531.661	8.28
531.859	8.29
532.057	8.38
532.255	8.41
532.454	8.44
532.652	8.47
532.85	8.51
533.048	8.55
533.246	8.64
533.444	8.73
533.642	8.75
533.84	8.78
534.038	8.85
534.236	8.81
534.434	8.83
534.632	8.86
534.83	8.89
535.027	8.95
535.225	9
535.423	8.98
535.621	9.04
535.819	9.1
536.017	9.18
536.215	9.17
536.412	9.27
536.61	9.34
536.808	9.35
537.006	9.45
537.203	9.48
537.401	9.56
537.599	9.63
537.797	9.65
537.994	9.72
538.192	9.7
538.39	9.81
538.587	9.87
538.785	9.92
538.983	10.08
539.18	10.1
539.378	10.18
539.575	10.18
539.773	10.24
539.97	10.26
540.168	10.29
540.366	10.33
540.563	10.35
540.761	10.37
540.958	10.38
541.155	10.37
541.353	10.39
541.55	10.41
541.748	10.49
541.945	10.49
542.143	10.54
542.34	10.56
542.537	10.6
542.735	10.66
542.932	10.7
543.129	10.79
543.327	10.84
543.524	10.98
543.721	11.12
543.919	11.15
544.116	11.3
544.313	11.45
544.51	11.55
544.708	11.76
544.905	11.91
545.102	12.11
545.299	12.24
545.496	12.33
545.693	12.3
545.891	12.32
546.088	12.36
546.285	12.35
546.482	12.28
546.679	12.26
546.876	12.09
547.073	12.01
547.27	11.89
547.467	11.78
547.664	11.81
547.861	11.77
548.058	11.8
548.255	11.73
548.452	11.65
548.649	11.7
548.846	11.81
549.043	11.97
549.24	11.98
549.437	12
549.633	11.99
549.83	11.87
550.027	11.93
550.224	11.8
550.421	11.83
550.618	11.81
550.814	11.69
551.011	11.68
551.208	11.58
551.405	11.52
551.601	11.52
551.798	11.62
551.995	11.76
552.191	11.74
552.388	11.78
552.585	11.8
552.781	11.92
552.978	11.96
553.175	11.93
553.371	12.04
553.568	12.09
553.764	12.03
553.961	12.01
554.157	11.94
554.354	11.89
554.55	11.89
554.747	11.88
554.943	11.91
555.14	11.98
555.336	12
555.533	11.91
555.729	11.99
555.926	12.13
556.122	12.15
556.318	12.17
556.515	12.14
556.711	12.12
556.907	12.14
557.104	12.11
557.3	12.1
557.496	12.16
557.693	12.16
557.889	12.09
558.085	12.05
558.281	12.1
558.478	12.08
558.674	12.11
558.87	12.2
559.066	12.17
559.262	12.08
559.459	12.02
559.655	11.92
559.851	12
560.047	11.95
560.243	12.06
560.439	11.98
560.635	11.96
560.831	12
561.027	12.14
561.223	12.19
561.419	12.31
561.615	12.37
561.811	12.4
562.007	12.3
562.203	12.42
562.399	12.4
562.595	12.62
562.791	12.64
562.987	12.7
563.183	12.44
563.379	12.56
563.575	12.48
563.771	12.51
563.966	12.54
564.162	12.71
564.358	12.64
564.554	12.54
564.75	12.41
564.945	12.4
565.141	12.32
565.337	12.44
565.533	12.45
565.728	12.48
565.924	12.46
566.12	12.46
566.315	12.46
566.511	12.58
566.707	12.59
566.902	12.64
567.098	12.74
567.293	12.74
567.489	12.79
567.684	12.73
567.88	12.79
568.076	12.8
568.271	12.67
568.467	12.54
568.662	12.54
568.858	12.56
569.053	12.63
569.248	12.65
569.444	12.68
569.639	12.63
569.835	12.66
570.03	12.67
570.225	12.73
570.421	12.95
570.616	13.09
570.812	13.02
571.007	13.02
571.202	12.94
571.397	12.84
571.593	12.85
571.788	12.87
571.983	12.92
572.178	12.87
572.374	12.89
572.569	12.78
572.764	12.7
572.959	12.7
573.154	12.7
573.35	12.63
573.545	12.7
573.74	12.8
573.935	12.8
574.13	12.77
574.325	12.82
574.52	12.8
574.715	12.85
574.91	12.89
575.105	13
575.3	13.04
575.495	13.19
575.69	13.41
575.885	13.48
576.08	13.51
576.275	13.57
576.47	13.66
576.665	13.72
576.86	13.72
577.055	13.86
577.25	13.91
577.444	14.03
577.639	14.19
577.834	14.13
578.029	14.29
578.224	14.42
578.418	14.4
578.613	14.45
578.808	14.53
579.003	14.64
579.197	14.66
579.392	14.65
579.587	14.7
579.781	14.56
579.976	14.52
580.171	14.4
580.365	14.38
580.56	14.43
580.755	14.4
580.949	14.27
581.144	14.49
581.338	14.43
581.533	14.44
581.727	14.44
581.922	14.51
582.116	14.58
582.311	14.56
582.505	14.54
582.7	14.6
582.894	14.66
583.089	14.9
583.283	14.58
583.478	14.67
583.672	14.71
583.866	14.84
584.061	14.82
584.255	14.83
584.449	14.86
584.644	14.97
584.838	15.06
585.032	15.02
585.226	14.84
585.421	15.1
585.615	15.12
585.809	15.1
586.003	14.95
586.198	15.01
586.392	15.05
586.586	15.07
586.78	15.05
586.974	14.93
587.168	14.92
587.363	15.05
587.557	14.88
587.751	14.79
587.945	14.76
588.139	14.8
588.333	14.62
588.527	14.63
588.721	14.54
588.915	14.54
589.109	14.57
589.303	14.67
589.497	14.62
589.691	14.56
589.885	14.56
590.079	14.6
590.273	14.58
590.466	14.79
590.66	14.75
590.854	14.73
591.048	14.74
591.242	14.74
591.436	14.85
591.629	14.93
591.823	15.07
592.017	15.02
592.211	15.1
592.404	15.1
592.598	15
592.792	15.03
592.986	15.14
593.179	15.1
593.373	15.07
593.567	14.92
593.76	14.9
593.954	14.82
594.147	14.94
594.341	14.82
594.535	14.67
594.728	14.61
594.922	14.6
595.115	14.42
595.309	14.41
595.502	14.29
595.696	14.26
595.889	14.27
596.083	14.31
596.276	14.31
596.47	14.38
596.663	14.49
596.856	14.54
597.05	14.44
597.243	14.63
597.437	14.77
597.63	14.92
597.823	15.02
598.017	15.05
598.21	15.1
598.403	15.18
598.596	15.21
598.79	15.27
598.983	15.31
599.176	15.36
599.369	15.4
599.563	15.26
599.756	15.14
599.949	15.11
600.142	15.11
600.335	15.16
600.528	14.94
600.722	14.81
600.915	14.92
601.108	14.92
601.301	14.8
601.494	14.59
601.687	14.55
601.88	14.71
602.073	14.71
602.266	14.64
602.459	14.61
602.652	14.74
602.845	14.85
603.038	14.76
603.231	14.66
603.424	14.71
603.617	14.68
603.809	14.69
604.002	14.66
604.195	14.77
604.388	14.8
604.581	14.73
604.774	14.69
604.966	14.79
605.159	14.84
605.352	15.01
605.545	15.18
605.737	15.41
605.93	15.58
606.123	15.6
606.316	15.56
606.508	15.68
606.701	15.96
606.894	16.03
607.086	15.89
607.279	15.86
607.471	15.92
607.664	15.93
607.857	16.07
608.049	16.25
608.242	16.64
608.434	16.89
608.627	17.32
608.819	17.67
609.012	18.27
609.204	18.93
609.397	19.61
609.589	20.26
609.782	21.02
609.974	21.74
610.166	22.49
610.359	23.23
610.551	24.04
610.743	24.64
610.936	25.21
611.128	25.6
611.32	25.99
611.513	26.3
611.705	26.3
611.897	26.31
612.09	26.04
612.282	25.82
612.474	25.4
612.666	25.05
612.858	24.61
613.051	24.23
613.243	23.94
613.435	23.51
613.627	23.03
613.819	22.8
614.011	22.51
614.203	22.48
614.395	22.12
614.588	21.75
614.78	21.24
614.972	20.84
615.164	20.59
615.356	20.18
615.548	19.74
615.74	19.35
615.932	19.18
616.124	18.9
616.315	18.36
616.507	17.9
616.699	17.62
616.891	17.6
617.083	17.53
617.275	17.38
617.467	17.27
617.659	17.13
617.85	17.22
618.042	17.05
618.234	17.04
618.426	17.14
618.618	17.21
618.809	17.32
619.001	17.21
619.193	17.06
619.384	16.89
619.576	16.91
619.768	17.1
619.959	17.15
620.151	17.24
620.343	17.24
620.534	17.19
620.726	17.32
620.917	17.21
621.109	17.23
621.301	17.29
621.492	17.46
621.684	17.47
621.875	17.22
622.067	17.06
622.258	17
622.45	16.88
622.641	16.91
622.832	17.04
623.024	17.19
623.215	17.29
623.407	17.45
623.598	17.46
623.789	17.39
623.981	17.66
624.172	17.68
624.363	17.71
624.555	17.67
624.746	17.65
624.937	17.45
625.129	17.36
625.32	17.25
625.511	17.14
625.702	16.99
625.893	16.86
626.085	16.81
626.276	16.88
626.467	16.8
626.658	16.82
626.849	16.82
627.04	16.73
627.231	16.79
627.422	16.81
627.614	16.81
627.805	16.96
627.996	17.16
628.187	17.25
628.378	17.36
628.569	17.37
628.76	17.58
628.951	17.58
629.142	17.83
629.332	17.87
629.523	17.82
629.714	18.02
629.905	18.01
630.096	18.24
630.287	18.16
630.478	18.16
630.669	18.35
630.859	18.48
631.05	18.38
631.241	18.29
631.432	18.25
631.623	18.3
631.813	17.98
632.004	17.77
632.195	17.36
632.385	17.31
632.576	17.15
632.767	16.88
632.957	16.58
633.148	16.57
633.339	16.6
633.529	16.43
633.72	16.48
633.91	16.48
634.101	16.42
634.292	16.58
634.482	16.41
634.673	16.35
634.863	16.42
635.054	16.55
635.244	16.6
635.435	16.51
635.625	16.65
635.815	16.56
636.006	16.66
636.196	16.83
636.387	16.59
636.577	16.89
636.767	16.8
636.958	16.72
637.148	16.53
637.338	16.68
637.529	16.67
637.719	16.62
637.909	16.69
638.099	16.69
638.29	16.72
638.48	16.75
638.67	16.72
638.86	16.78
639.05	16.86
639.241	16.97
639.431	16.83
639.621	17.02
639.811	17.15
640.001	17.08
640.191	17.01
640.381	17.07
640.571	17.25
640.761	17.32
640.951	17.55
641.141	17.54
641.331	17.34
641.521	17.27
641.711	17.41
641.901	17.39
642.091	17.52
642.281	17.65
642.471	17.54
642.661	17.63
642.851	17.36
643.041	17.12
643.231	17.05
643.42	17.35
643.61	17.37
643.8	17.11
643.99	17.07
644.18	16.95
644.369	17
644.559	17.03
644.749	16.9
644.939	17.15
645.128	17.37
645.318	17.4
645.508	17.09
645.697	17.11
645.887	17.2
646.076	17.41
646.266	17.6
646.456	17.65
646.645	17.61
646.835	17.4
647.024	17.21
647.214	17.18
647.403	17.41
647.593	17.78
647.782	17.97
647.972	17.91
648.161	17.77
648.351	17.47
648.54	17.42
648.73	17.26
648.919	17.6
649.108	17.54
649.298	17.52
649.487	17.42
649.677	17.21
649.866	17.23
650.055	17.15
650.244	17.01
650.434	17.23
650.623	17.13
650.812	17.23
651.002	17.15
651.191	17.12
651.38	16.97
651.569	17.01
651.758	17.14
651.947	16.84
652.137	16.78
652.326	16.74
652.515	16.54
652.704	16.84
652.893	16.75
653.082	16.61
653.271	16.98
653.46	17.15
653.649	17.07
653.838	16.98
654.027	17.22
654.216	17.35
654.405	17.51
654.594	17.51
654.783	17.21
654.972	17.37
655.161	17.41
655.35	17.36
655.539	17.24
655.728	17.17
655.916	17.27
656.105	17.23
656.294	17.26
656.483	17.37
656.672	17.24
656.86	17.4
657.049	17.5
657.238	17.53
657.427	17.36
657.615	17.33
657.804	17.5
657.993	17.24
658.181	17.29
658.37	17.06
658.559	16.94
658.747	17.23
658.936	16.97
659.125	17
659.313	16.99
659.502	16.96
659.69	17.01
659.879	16.92
660.067	17.18
660.256	17.16
660.444	17.37
660.633	17.51
660.821	17.53
661.01	17.87
661.198	17.88
661.387	17.94
661.575	18.22
661.763	18.32
661.952	18.56
662.14	18.54
662.328	18.83
662.517	18.99
662.705	19.1
662.893	19.16
663.082	19.03
663.27	19
663.458	19.17
663.646	19.03
663.834	19.12
664.023	18.83
664.211	19.04
664.399	18.68
664.587	18.88
664.775	18.78
664.963	18.72
665.152	18.87
665.34	19.05
665.528	18.96
665.716	18.89
665.904	18.75
666.092	18.91
666.28	18.67
666.468	18.78
666.656	18.61
666.844	18.54
667.032	18.36
667.22	18.23
667.408	18.03
667.596	17.98
667.784	18.16
667.971	18.13
668.159	18.12
668.347	18.09
668.535	17.87
668.723	17.78
668.911	17.89
669.098	17.81
669.286	17.89
669.474	17.93
669.662	17.95
669.849	17.84
670.037	17.86
670.225	17.79
670.413	17.89
670.6	18.43
670.788	18.34
670.976	18.22
671.163	18.39
671.351	18.1
671.538	18.03
671.726	18.02
671.913	17.9
672.101	17.99
672.289	17.76
672.476	17.77
672.664	17.54
672.851	17.95
673.039	17.99
673.226	17.95
673.413	18.17
673.601	18.16
673.788	18.05
673.976	18.38
674.163	18.32
674.35	18.62
674.538	18.5
674.725	18.39
674.912	18.34
675.1	18.22
675.287	18.32
675.474	18.42
675.662	18.53
675.849	18.54
676.036	18.4
676.223	18.56
676.411	18.5
676.598	18.69
676.785	18.86
676.972	18.66
677.159	18.94
677.346	19.02
677.533	19
677.721	18.89
677.908	18.91
678.095	18.68
678.282	18.49
678.469	18.6
678.656	18.62
678.843	18.53
679.03	18.77
679.217	18.55
679.404	18.44
679.591	18.33
679.778	18.42
679.964	18.41
680.151	18.67
680.338	18.74
680.525	18.74
680.712	18.37
680.899	18.39
681.086	18.16
681.272	18.42
681.459	18.61
681.646	18.86
681.833	18.78
682.02	18.93
682.206	18.78
682.393	18.85
682.58	18.77
682.766	19.13
682.953	19.15
683.14	19.12
683.326	19.09
683.513	19.09
683.7	19.17
683.886	19.29
684.073	19.52
684.259	19.73
684.446	19.91
684.632	20.25
684.819	20.27
685.005	20.47
685.192	20.6
685.378	20.55
685.565	20.21
685.751	20.25
685.938	20.32
686.124	20.12
686.31	20.09
686.497	20.02
686.683	19.94
686.87	19.78
687.056	19.56
687.242	19.49
687.429	19.5
687.615	19.95
687.801	19.82
687.987	19.91
688.174	19.97
688.36	19.75
688.546	19.69
688.732	19.5
688.918	19.66
689.105	19.71
689.291	19.85
689.477	19.81
689.663	19.5
689.849	19.47
690.035	19.39
690.221	19.55
690.407	19.75
690.593	19.72
690.779	19.89
690.965	19.67
691.151	19.61
691.337	19.63
691.523	19.81
691.709	20.09
691.895	19.96
692.081	20.07
692.267	19.92
692.453	20.21
692.639	20.3
692.825	20.21
693.011	20.3
693.196	20.21
693.382	19.8
693.568	19.21
693.754	19.05
693.94	19.09
694.125	19.1
694.311	19.14
694.497	18.77
694.682	18.56
694.868	18.73
695.054	18.97
695.239	19.12
695.425	19.55
695.611	19.52
695.796	19.43
695.982	19.55
696.168	19.54
696.353	19.32
696.539	19.12
696.724	19.35
696.91	19.12
697.095	18.78
697.281	18.79
697.466	18.58
697.652	18.83
697.837	18.84
698.023	18.74
698.208	18.49
698.393	18.57
698.579	18.56
698.764	18.35
698.949	18.26
699.135	18.61
699.32	18.51
699.505	18.48
699.691	18.77
699.876	18.71
700.061	18.82
700.246	19.07
700.432	19.04
700.617	19.29
700.802	19.58
700.987	19.96
701.172	19.87
701.358	20.07
701.543	20.56
701.728	20.42
701.913	20.74
702.098	20.79
702.283	20.8
702.468	20.9
702.653	21.21
702.838	21.07
703.023	21
703.208	20.83
703.393	20.72
703.578	20.56
703.763	20.6
703.948	20.7
704.133	20.76
704.318	20.79
704.503	20.82
704.688	20.92
704.873	21.22
705.057	21.35
705.242	21.97
705.427	22.38
705.612	22.64
705.797	22.74
705.981	22.9
706.166	23.04
706.351	23.39
706.536	23.82
706.72	23.61
706.905	23.65
707.09	23.55
707.274	23.74
707.459	23.81
707.644	23.82
707.828	24.03
708.013	23.8
708.197	23.61
708.382	23.48
708.567	23.44
708.751	23.12
708.936	22.85
709.12	23.04
709.305	22.6
709.489	22.68
709.673	22.55
709.858	22.69
710.042	23.19
710.227	23.42
710.411	23.65
710.596	23.7
710.78	23.97
710.964	24.42
711.149	24.08
711.333	23.8
711.517	23.85
711.702	23.97
711.886	23.46
712.07	23.3
712.254	23.39
712.438	23.28
712.623	23.21
712.807	23.54
712.991	23.39
713.175	23.67
713.359	23.96
713.544	23.7
713.728	23.45
713.912	23.29
714.096	22.56
714.28	22.3
714.464	22.16
714.648	21.84
714.832	21.06
715.016	20.59
715.2	20.46
715.384	20.3
715.568	20.05
715.752	19.91
715.936	19.66
716.12	19.79
716.304	19.83
716.488	19.5
716.671	19.39
716.855	19.53
717.039	19.51
717.223	19.5
717.407	19.62
717.59	19.61
717.774	19.6
717.958	20.13
718.142	20.21
718.325	20.44
718.509	20.42
718.693	20.56
718.877	20.79
719.06	21.29
719.244	20.96
719.428	21.03
719.611	20.7
719.795	20.81
719.978	20.77
720.162	20.81
720.345	20.29
720.529	20.65
720.713	21.07
720.896	21.55
721.08	21.55
721.263	22.28
721.446	22.46
721.63	22.96
721.813	23.27
721.997	23.41
722.18	23.76
722.364	23.86
722.547	23.3
722.73	22.79
722.914	22.62
723.097	22.57
723.28	21.45
723.464	21.64
723.647	21.51
723.83	21.19
724.013	21.15
724.197	21.3
724.38	21.52
724.563	22.15
724.746	22.3
724.929	22.42
725.112	22.91
725.296	23.92
725.479	23.03
725.662	22.91
725.845	23.04
726.028	23.31
726.211	23.26
726.394	23.3
726.577	22.76
726.76	22.71
726.943	22.34
727.126	21.46
727.309	20.76
727.492	21.15
727.675	21.45
727.858	21.4
728.041	21.11
728.224	21.04
728.407	20.8
728.589	20.96
728.772	20.88
728.955	21.09
729.138	21.24
729.321	21.8
729.503	21.84
729.686	21.92
729.869	22.04
730.052	22.22
730.234	22.41
730.417	22.38
730.6	22.37
730.782	22.72
730.965	22.8
731.148	23.04
731.33	23.05
731.513	23.43
731.695	23.37
731.878	22.88
732.061	22.67
732.243	22.23
732.426	22.72
732.608	23.14
732.791	23.05
732.973	22.68
733.156	22.24
733.338	22.19
733.52	21.65
733.703	21.37
733.885	21.58
734.068	21.66
734.25	21.81
734.432	21.44
734.615	21.03
734.797	21.27
734.979	21.78
735.162	21.88
735.344	22.19
735.526	22.34
735.708	22.78
735.891	22.88
736.073	23.01
736.255	23.28
736.437	23.32
736.619	23.63
736.802	23.47
736.984	23.33
737.166	23.88
737.348	23.53
737.53	23.76
737.712	24.05
737.894	24.33
738.076	24.24
738.258	24.23
738.44	24.37
738.622	24.65
738.804	24.04
738.986	23.44
739.168	23.58
739.35	23.72
739.532	23.05
739.714	23.01
739.896	22.93
740.078	23.23
740.259	22.85
740.441	22.67
740.623	22.48
740.805	22.75
740.987	23.66
741.168	23.82
741.35	23.75
741.532	24.4
741.714	24.05
741.895	23.71
742.077	23.48
742.259	23.98
742.44	24.18
742.622	24.33
742.804	24.85
742.985	24.51
743.167	24.26
743.348	24.33
743.53	24.49
743.711	24.94
743.893	25.55
744.075	25.16
744.256	24.97
744.438	25.26
744.619	25.51
744.8	25.49
744.982	25.75
745.163	25.6
745.345	25.48
745.526	26.05
745.707	25.95
745.889	25.89
746.07	26.23
746.252	26.46
746.433	25.64
746.614	25.51
746.795	25.5
746.977	25.25
747.158	24.91
747.339	25.03
747.52	24.39
747.702	24.28
747.883	23.77
748.064	23.42
748.245	23.05
748.426	22.49
748.607	21.97
748.788	22.04
748.97	22.13
749.151	22.62
749.332	22.08
749.513	21.55
749.694	21.28
749.875	22.02
750.056	22.41
750.237	22.85
750.418	23.64
750.599	23.55
750.78	23.02
750.96	22.67
751.141	22.29
751.322	22.36
751.503	22.69
751.684	22.75
751.865	22.87
752.046	22.59
752.226	22.27
752.407	22.44
752.588	22.31
752.769	23.18
752.949	23.58
753.13	23.67
753.311	24.35
753.492	24.23
753.672	24.85
753.853	24.73
754.034	25.32
754.214	25.75
754.395	26.43
754.575	26.96
754.756	26.61
754.937	26.24
755.117	27.11
755.298	26.93
755.478	27.03
755.659	26.92
755.839	26.35
756.02	25.95
756.2	26.14
756.381	25.73
756.561	26.18
756.741	26.57
756.922	26.28
757.102	25.28
757.283	25.24
757.463	25.49
757.643	24.35
757.823	24.97
758.004	24.68
758.184	23.72
758.364	23.94
758.545	23
758.725	22.51
758.905	22.51
759.085	22.14
759.265	21.72
759.446	21.47
759.626	21.95
759.806	21.2
759.986	21.39
760.166	21.77
760.346	21.83
760.526	22.12
760.706	21.54
760.886	21.1
761.066	21.29
761.246	21.21
761.426	21.49
761.606	21.73
761.786	22.1
761.966	21.96
762.146	21.39
762.326	20.5
762.506	20.18
762.686	20.54
762.866	21.15
763.046	21.38
763.225	21.82
763.405	21.97
763.585	21.72
763.765	21.21
763.945	21.24
764.124	21.45
764.304	21.54
764.484	21.54
764.664	21.58
764.843	21.92
765.023	21.77
765.203	21.67
765.382	21.22
765.562	21.71
765.741	22.28
765.921	22.83
766.101	23.44
766.28	23.88
766.46	24.67
766.639	25.09
766.819	25.02
766.998	25.66
767.178	25.94
767.357	26.45
767.537	26.99
767.716	27.44
767.896	27.27
768.075	26.86
768.254	26.93
768.434	27.22
768.613	27.81
768.792	28.44
768.972	28.77
769.151	29.18
769.33	28.77
769.51	28.35
769.689	28.96
769.868	28.49
770.047	29.1
770.226	29.31
770.406	29.82
770.585	28.7
770.764	27.93
770.943	27.4
771.122	27.26
771.301	27.94
771.48	27.83
771.66	27.33
771.839	28.5
772.018	28.79
772.197	29.02
772.376	28.58
772.555	29.4
772.734	30.42
772.913	30.53
773.092	30.42
773.271	30
773.449	30.44
773.628	30.24
773.807	30.28
773.986	30.27
774.165	31.29
774.344	31.2
774.523	32.02
774.701	32.13
774.88	32.86
775.059	32.71
775.238	32.98
775.417	32.71
775.595	33.7
775.774	33.08
775.953	33.36
776.131	32.07
776.31	31.62
776.489	30.38
776.667	29.65
776.846	29.59
777.025	30.36
777.203	31.17
777.382	31.18
777.56	30.52
777.739	30.4
777.917	29.49
778.096	30.2
778.274	29.95
778.453	29.62
778.631	29.63
778.81	28.86
778.988	28.35
779.166	28.22
779.345	28.19
779.523	28.01
779.702	28.98
779.88	29.66
780.058	29.44
780.237	29.8
780.415	30.15
780.593	30.26
780.771	31.46
780.95	31.64
781.128	30.89
781.306	30.78
781.484	30.63
781.662	29.62
781.841	29.47
782.019	29.58
782.197	29.99
782.375	30.73
782.553	30.6
782.731	29.32
782.909	28.19
783.087	28.09
783.265	28.4
783.443	28.93
783.621	28.11
783.799	28.12
783.977	27.31
784.155	27.03
784.333	26.99
784.511	27.01
784.689	27.46
784.867	28.67
785.045	28.58
785.223	27.86
785.4	27.78
785.578	29.46
785.756	28.56
785.934	28.74
786.112	28.79
786.289	28.33
786.467	29.06
786.645	28.82
786.823	27.98
787	28.63
787.178	29.12
787.356	29.46
787.533	29.69
787.711	31.32
787.889	31.66
788.066	31.22
788.244	31
788.421	30.43
788.599	31.25
788.776	31.36
788.954	30.94
789.131	30.4
789.309	30.01
789.486	29.81
789.664	29.13
789.841	29.74
790.019	29.78
790.196	30.41
790.373	31.03
790.551	30.45
790.728	30.54
790.906	30.44
791.083	31.96
791.26	31.29
791.437	31.13
791.615	30.36
791.792	30.23
791.969	30.51
792.146	29.88
792.324	29.41
792.501	29.86
792.678	30.29
792.855	31.09
793.032	29.51
793.209	30.35
793.387	30.57
793.564	32.03
793.741	31.01
793.918	31.72
794.095	32.44
794.272	32.28
794.449	31.17
794.626	31.71
794.803	31.44
794.98	32.12
795.157	32.39
795.334	31.76
795.511	30.35
795.688	30.7
795.864	29.73
796.041	30.04
796.218	29.74
796.395	30.37
796.572	29.49
796.749	30.33
796.925	30.89
797.102	30.72
797.279	30.39
797.456	31.11
797.632	30.28
797.809	30.88
797.986	30.68
798.162	30.74
798.339	29.94
798.516	30.26
798.692	29.2
798.869	27.68
799.046	27.65
799.222	28.5
799.399	28.24
799.575	29.69
799.752	29.69
799.928	28.08
800.105	28.08
800.281	29.26
800.458	28.88
800.634	28.69
800.811	29.44
800.987	29.29
801.163	29.22
801.34	29.84
801.516	28.94
801.692	29.26
801.869	30.44
802.045	30.27
802.221	30.6
802.398	31.6
802.574	31.26
802.75	31.61
802.926	31.62
803.103	30.08
803.279	30.06
803.455	29.67
803.631	29.28
803.807	28.52
803.983	28.43
804.16	27.12
804.336	26.18
804.512	25.93
804.688	26.02
804.864	25.61
805.04	26.75
805.216	27.15
805.392	27.44
805.568	27.38
805.744	27.93
805.92	27.69
806.096	29.03
806.272	30.06
806.448	30.44
806.623	29.66
806.799	28.57
806.975	29.87
807.151	29.27
807.327	29.23
807.503	29.18
807.678	28.85
807.854	29.48
808.03	29.7
808.206	28.11
808.381	28.93
808.557	28.82
808.733	30.51
808.908	30.96
809.084	30.96
809.26	30.85
809.435	30.94
809.611	30.56
809.787	30.6
809.962	30.15
810.138	30.97
810.313	30.76
810.489	32.49
810.664	32.14
810.84	30.74
811.015	32.24
811.191	32.61
811.366	32.68
811.542	32.71
811.717	34.03
811.892	34.51
812.068	33.28
812.243	32.43
812.419	31
812.594	30.51
812.769	29.58
812.944	27.82
813.12	27.91
813.295	27.75
813.47	28.54
813.645	27.61
813.821	27.14
813.996	29.06
814.171	30.61
814.346	31.06
814.521	30.73
814.697	32.4
814.872	31.79
815.047	32.17
815.222	31.92
815.397	30.76
815.572	30.83
815.747	29.85
815.922	28.82
816.097	27.26
816.272	27.55
816.447	27.58
816.622	27.93
816.797	27.71
816.972	25.98
817.147	25.87
817.322	26.81
817.496	25.21
817.671	25.78
817.846	26.4
818.021	27.71
818.196	26.78
818.371	26.66
818.545	25.24
818.72	25.21
818.895	25.66
819.069	25.17
819.244	25.41
819.419	26.38
819.594	26.16
819.768	25.84
819.943	25.02
820.117	25.25
820.292	24.7
820.467	23.82
820.641	23.29
820.816	22.73
820.99	22.71
821.165	21.91
821.339	21.78
821.514	21.22
821.688	20.88
821.863	20.89
822.037	20.5
822.212	20.52
822.386	20.53
822.56	20.58
822.735	20.95
822.909	20.79
823.084	20.95
823.258	20.67
823.432	20.75
823.606	20.77
823.781	20.85
823.955	21.09
824.129	21.26
824.303	21.37
824.478	21.48
824.652	21.6
824.826	21.61
825	21.52
825.174	21.89
825.348	22.25
825.523	22.69
825.697	22.27
825.871	22.37
826.045	22.18
826.219	22.46
826.393	22.53
826.567	22.13
826.741	22.42
826.915	22.46
827.089	22.67
827.263	22.63
827.437	22.3
827.611	22.46
827.784	22.03
827.958	21.89
828.132	21.51
828.306	21.22
828.48	21.39
828.654	21.89
828.827	21.71
829.001	21.26
829.175	20.81
829.349	20.64
829.522	20.85
829.696	21.53
829.87	21.67
830.044	22.06
830.217	23.22
830.391	23.02
830.565	21.91
830.738	22
830.912	22.63
831.085	22.78
831.259	22.78
831.432	23.86
831.606	23.63
831.779	22.9
831.953	23.3
832.126	23
832.3	24.38
832.473	24.83
832.647	24.75
832.82	24.2
832.994	24.41
833.167	24.36
833.34	22.87
833.514	22.33
833.687	22.57
833.86	22.34
834.034	21.67
834.207	20.59
834.38	20.48
834.553	20.72
834.727	20.91
834.9	21.55
835.073	22.37
835.246	22.97
835.419	23.74
835.593	24.57
835.766	24.95
835.939	25.69
836.112	25.79
836.285	25.71
836.458	26.73
836.631	26.77
836.804	26.71
836.977	27.43
837.15	29.39
837.323	28.9
837.496	29.36
837.669	29.61
837.842	30.5
838.015	32.23
838.188	32.98
838.361	32.05
838.533	35.62
838.706	36.19
838.879	34.85
839.052	33.5
839.225	35.08
839.398	33.53
839.57	33.44
839.743	31.69
839.916	31.38
840.088	31.2
840.261	32.3
840.434	30.78
840.607	30.1
840.779	30.2
840.952	30.38
841.124	30.17
841.297	32.35
841.47	33.67
841.642	34.91
841.815	35.51
841.987	36.53
842.16	36.1
842.332	35.92
842.505	36.02
842.677	37.61
842.85	38.28
843.022	39.32
843.194	34.57
843.367	34.06
843.539	34.02
843.712	33.96
843.884	35.25
844.056	35.45
844.229	34.88
844.401	39.2
844.573	38.41
844.745	39.07
844.918	37.35
845.09	42.55
845.262	41.96
845.434	42.78
845.606	43.44
845.779	41.77
845.951	41.76
846.123	43.45
846.295	39.64
846.467	36.5
846.639	34.78
846.811	35.01
846.983	35.38
847.155	35.86
847.327	34.64
847.499	36.05
847.671	37.23
847.843	39.39
848.015	38.53
848.187	37.08
848.359	40.88
848.531	39.5
848.703	41.06
848.875	40.61
849.047	41.27
849.218	40.93
849.39	38.26
849.562	41.15
849.734	42.3
849.905	40.28
850.077	42.03
850.249	38.21
850.421	38.21
850.592	38.17
850.764	35.71
850.936	36.95
851.107	39.07
851.279	38.59
851.451	34.94
851.622	32.26
851.794	36.09
851.965	37.75
852.137	39.6
852.308	41.9
852.48	40.24
852.651	41.89
852.823	41.28
852.994	41.42
853.166	42.47
853.337	43.41
853.509	43.98
853.68	39.98
853.851	37.36
854.023	36.53
854.194	38.17
854.365	41.72
854.537	44.79
854.708	47.12
854.879	45.45
855.05	43.29
855.222	38.91
855.393	36.81
855.564	36.94
855.735	37.97
855.906	42.23
856.078	41.8
856.249	38.52
856.42	37.09
856.591	35.05
856.762	37.19
856.933	40.24
857.104	44.99
857.275	46.25
857.446	46.52
857.617	48.62
857.788	44.82
857.959	44.53
858.13	50.05
858.301	46.87
858.472	48.3
858.643	44.84
858.814	47.16
858.985	46.2
859.155	48.37
859.326	50.69
859.497	46.98
859.668	51.38
859.839	47.97
860.009	48.67
860.18	53.23
860.351	52.35
860.522	57.32
860.692	54.94
860.863	54.81
861.034	50.88
861.204	50.75
861.375	52.04
861.546	50.24
861.716	52.25
861.887	47.68
862.057	44.41
862.228	40.71
862.398	37.73
862.569	39.95
862.739	38.34
862.91	39.44
863.08	39.37
863.251	39.67
863.421	39.95
863.592	41.62
863.762	43.19
863.932	44.28
864.103	46.14
864.273	46.71
864.443	43.73
864.614	48.56
864.784	48.89
864.954	43.43
865.125	42.55
865.295	42.74
865.465	39.42
865.635	36.42
865.805	33.3
865.976	35.82
866.146	38.18
866.316	36.69
866.486	35.91
866.656	38.35
866.826	44.3
866.996	43.95
867.166	36.12
867.336	40.75
867.506	40.84
867.676	44.36
867.846	43.5
868.016	39.2
868.186	41.33
868.356	36.55
868.526	36.26
868.696	36.39
868.866	41.35
869.036	50.32
869.206	46.92
869.376	43.77
869.545	48.53
869.715	49.66
869.885	53.76
870.055	56.31
870.224	58.22
870.394	56.16
870.564	54.59
870.734	51.71
870.903	47.43
871.073	47.93
871.243	57.65
871.412	48.91
871.582	46.79
871.751	47.25
871.921	46.23
872.091	47.03
872.26	48.13
872.43	45.18
872.599	43.11
872.769	46.06
872.938	48.06
873.108	41.96
873.277	41.7
873.446	39.73
873.616	35.2
873.785	29.87
873.955	28.27
874.124	28.18
874.293	33.48
874.463	36.07
874.632	34.54
874.801	32.06
874.971	31.63
875.14	36.13
875.309	39.29
875.478	41.66
875.647	40.9
875.817	41.72
875.986	41.74
876.155	42.46
876.324	44.62
876.493	45.83
876.662	47.72
876.831	48.42
877	47
877.17	44.3
877.339	44.9
877.508	47.16
877.677	43.54
877.846	39.7
878.015	35.98
878.184	33.95
878.352	33.26
878.521	29.49
878.69	30.89
878.859	29.03
879.028	29.57
879.197	27.15
879.366	28.62
879.534	29.95
879.703	28.71
879.872	29.03
880.041	27.87
880.21	25.76
880.378	24.79
880.547	23.48
880.716	23.61
880.884	23.29
881.053	22.75
881.222	22.55
881.39	21.73
881.559	22.46
881.727	22.41
881.896	22.5
882.065	22.72
882.233	23.27
882.402	23.15
882.57	23.01
882.739	22.71
882.907	22.72
883.076	22.53
883.244	23.26
883.412	23.12
883.581	22.7
883.749	22.42
883.918	22.51
884.086	22.09
884.254	22.83
884.423	22.65
884.591	22.57
884.759	23.78
884.927	24.16
885.096	22.9
885.264	22.03
885.432	21.92
885.6	23.83
885.769	25.66
885.937	28.1
886.105	26.09
886.273	27.62
886.441	30.23
886.609	28.72
886.777	27.76
886.945	28.33
887.113	31.13
887.281	33.58
887.449	30.89
887.617	31.21
887.785	29.67
887.953	35.53
888.121	36.33
888.289	30.83
888.457	32.24
888.625	35.07
888.793	36
888.961	36.92
889.129	34.77
889.296	33.5
889.464	31.11
889.632	29.6
889.8	24.46
889.967	22.1
890.135	27.8
