Data from 2938760__Reflection_03.txt Node
Date: Fri Mar 13 17:48:06 EDT 2015
User: robert
Spectrometer: USB4E03002
Autoset integration time: false
Trigger mode: 4
Integration Time (sec): 1.000000E-1
Scans to average: 10
Electric dark correction enabled: false
Nonlinearity correction enabled: false
Boxcar width: 5
Stray light correction enabled: false
XAxis mode: Wavelengths
Stop averaging: false
Number of Pixels in Spectrum: 3648
>>>>>Begin Spectral Data<<<<<
177.575	-222.92
177.794	-1507.69
178.014	-330.77
178.233	-226.62
178.452	-199.54
178.672	-183.81
178.891	-115.68
179.11	-90.49
179.33	-155.89
179.549	-362.67
179.768	-300.34
179.987	-401.15
180.207	-324.46
180.426	-336.66
180.645	-1180
180.864	-4990.48
181.084	1233.71
181.303	1157.47
181.522	463.72
181.741	719.86
181.96	944.68
182.179	456.19
182.398	401.24
182.618	320.44
182.837	204.13
183.056	269.36
183.275	255.56
183.494	186.76
183.713	173.7
183.932	118.85
184.151	105.26
184.37	108.29
184.589	80.87
184.808	96.77
185.027	109.06
185.246	107.23
185.465	98.67
185.684	128.49
185.903	158.31
186.122	168.61
186.341	274.77
186.56	1276.6
186.779	417.12
186.998	-200
187.216	-510.61
187.435	300
187.654	-3066.67
187.873	-292.67
188.092	9700
188.311	729.41
188.53	297
188.748	354.9
188.967	327.12
189.186	350.3
189.405	253.56
189.623	297.45
189.842	478.16
190.061	718.95
190.28	456.51
190.498	511.64
190.717	407.44
190.936	521.62
191.154	399.56
191.373	404.87
191.592	412.12
191.81	445.8
192.029	736
192.248	829.91
192.466	314.37
192.685	270.59
192.904	335.99
193.122	326.14
193.341	450
193.559	984.54
193.778	1284.29
193.996	2966.67
194.215	-1904.88
194.433	2793.1
194.652	-939.44
194.87	-292.93
195.089	-2826.32
195.307	1155.36
195.526	-3588.24
195.744	797.03
195.963	425.36
196.181	346.74
196.399	352.02
196.618	334.17
196.836	326.87
197.055	270.94
197.273	240.37
197.491	321.02
197.71	228.02
197.928	180.19
198.146	176.83
198.365	162.92
198.583	141.45
198.801	111.55
199.019	112.18
199.238	130.01
199.456	122.35
199.674	137.32
199.892	124.72
200.111	163.14
200.329	187.87
200.547	233.76
200.765	300
200.983	366.16
201.202	372.41
201.42	339.68
201.638	272.84
201.856	397.97
202.074	271.46
202.292	328.37
202.51	235.91
202.728	280.16
202.946	190.63
203.165	168.91
203.383	153.9
203.601	150.83
203.819	171.87
204.037	214.07
204.255	225.88
204.473	265.05
204.691	179.79
204.909	167.87
205.127	156.82
205.345	181.64
205.562	210.88
205.78	203.81
205.998	242.16
206.216	403.81
206.434	245.56
206.652	233
206.87	432.3
207.088	406.37
207.306	1473.02
207.523	804.35
207.741	679.55
207.959	471.73
208.177	587.6
208.395	216.18
208.612	116.98
208.83	137.74
209.048	155.02
209.266	125.2
209.483	121.61
209.701	112.76
209.919	138.79
210.136	144.02
210.354	182.59
210.572	184.88
210.79	201.69
211.007	218.2
211.225	205.21
211.442	247.2
211.66	224.88
211.878	178.32
212.095	196.94
212.313	162.49
212.53	163.68
212.748	145.78
212.966	162.83
213.183	166.14
213.401	191.48
213.618	164.01
213.836	136.96
214.053	141.64
214.271	206.96
214.488	205.92
214.705	278.17
214.923	284.48
215.14	299.66
215.358	280.19
215.575	207.74
215.793	156.02
216.01	193.39
216.227	180.67
216.445	158.9
216.662	129.06
216.879	119.72
217.097	111.59
217.314	100
217.531	101.48
217.749	92.27
217.966	108.24
218.183	112.79
218.4	106.24
218.618	100.08
218.835	106.11
219.052	116.75
219.269	116.71
219.487	119.1
219.704	113.21
219.921	111.32
220.138	108.49
220.355	90.78
220.572	83.01
220.79	78.07
221.007	73.37
221.224	57.74
221.441	56.77
221.658	52.38
221.875	49.72
222.092	54.65
222.309	53.98
222.526	60.86
222.743	57.16
222.96	55.97
223.177	55.8
223.394	61.36
223.611	60.31
223.828	51.91
224.045	50.8
224.262	44.3
224.479	39.24
224.696	38.01
224.913	37.01
225.13	37.87
225.347	32.06
225.564	30.97
225.781	24.3
225.997	22.51
226.214	21.03
226.431	19.3
226.648	16.92
226.865	16.05
227.082	15.04
227.298	9.96
227.515	9.54
227.732	9.5
227.949	8.53
228.165	8.98
228.382	7.9
228.599	8.18
228.816	7.81
229.032	8.07
229.249	7.45
229.466	7.17
229.682	8.12
229.899	8.28
230.116	7.84
230.332	8.31
230.549	8.49
230.765	9.13
230.982	9.15
231.199	9.94
231.415	11.66
231.632	12.65
231.848	13.97
232.065	15.95
232.281	17.28
232.498	18.93
232.714	19.02
232.931	20.46
233.147	21.84
233.364	21.59
233.58	20.24
233.797	17.34
234.013	16.74
234.23	14.82
234.446	13.49
234.662	12.73
234.879	12.72
235.095	12
235.312	9.54
235.528	7.17
235.744	7.02
235.961	8.34
236.177	9.7
236.393	10.22
236.61	10.58
236.826	10.44
237.042	10.19
237.258	10.06
237.475	11.25
237.691	14.11
237.907	14.67
238.123	15.36
238.339	15.93
238.556	16.38
238.772	16
238.988	15.12
239.204	14.9
239.42	14.07
239.636	13.42
239.853	12.36
240.069	10.36
240.285	10.57
240.501	9.47
240.717	8.99
240.933	8.76
241.149	8.02
241.365	7.54
241.581	7.12
241.797	6.97
242.013	6.56
242.229	6.13
242.445	6.09
242.661	6.1
242.877	6.6
243.093	6.12
243.309	5.36
243.525	5.33
243.741	6.68
243.957	7.32
244.173	7.57
244.388	8.16
244.604	8.77
244.82	9.05
245.036	8.94
245.252	8.09
245.468	8
245.683	8.39
245.899	7.96
246.115	6.99
246.331	6.67
246.547	6.3
246.762	5.77
246.978	5.71
247.194	5.4
247.409	5.27
247.625	5.47
247.841	5.52
248.057	4.92
248.272	5.02
248.488	5
248.703	4.9
248.919	4.92
249.135	4.87
249.35	4.68
249.566	4.98
249.782	4.31
249.997	3.89
250.213	4.03
250.428	5.38
250.644	6.06
250.859	6.17
251.075	5.65
251.29	5.87
251.506	5.97
251.721	5.63
251.937	5.3
252.152	6.09
252.368	5.49
252.583	5.37
252.798	5.16
253.014	5.35
253.229	6.27
253.445	6.53
253.66	7.19
253.875	7.12
254.091	7.77
254.306	8.37
254.521	8.36
254.737	9.84
254.952	8.72
255.167	8.81
255.383	7.96
255.598	6.75
255.813	7.13
256.028	7.4
256.244	7.66
256.459	7.18
256.674	6.43
256.889	6.66
257.104	6.39
257.32	7
257.535	5.65
257.75	5.39
257.965	5.31
258.18	5.18
258.395	4.56
258.61	4.44
258.826	4.14
259.041	3.94
259.256	3.73
259.471	3.57
259.686	3.7
259.901	4.14
260.116	4.26
260.331	3.91
260.546	3.8
260.761	3.74
260.976	4.02
261.191	4.13
261.406	4.59
261.621	4.81
261.836	5.17
262.05	5.16
262.265	5.15
262.48	5.29
262.695	6
262.91	6.47
263.125	6.77
263.34	6.91
263.555	7.36
263.769	7.15
263.984	7.29
264.199	6.81
264.414	7.52
264.629	7.53
264.843	7.27
265.058	7.31
265.273	7.39
265.488	7.21
265.702	6.99
265.917	7.01
266.132	7.38
266.346	7.35
266.561	7.55
266.776	6.96
266.99	6.82
267.205	6.91
267.42	6.73
267.634	6.36
267.849	6.4
268.063	6.23
268.278	5.98
268.492	5.66
268.707	5.28
268.922	5.63
269.136	5.69
269.351	5.75
269.565	5.4
269.78	5.43
269.994	5.26
270.209	4.94
270.423	5.12
270.637	5.24
270.852	5.31
271.066	5.2
271.281	4.75
271.495	4.61
271.709	4.34
271.924	4.06
272.138	4.03
272.353	3.98
272.567	4.25
272.781	4.15
272.996	3.88
273.21	3.89
273.424	3.79
273.638	3.74
273.853	3.6
274.067	3.96
274.281	4.44
274.495	4.32
274.71	4.26
274.924	3.7
275.138	3.75
275.352	3.82
275.566	3.55
275.781	3.86
275.995	3.43
276.209	4.04
276.423	3.73
276.637	3.69
276.851	3.97
277.065	4
277.279	4.32
277.493	3.92
277.707	4.44
277.921	4.15
278.135	3.94
278.349	4.01
278.563	4.04
278.777	4.41
278.991	4.41
279.205	4.19
279.419	4.21
279.633	4.34
279.847	4.29
280.061	4.1
280.275	4.47
280.489	4.54
280.703	5.3
280.917	4.83
281.131	4.47
281.344	4.4
281.558	4.25
281.772	4.19
281.986	4.27
282.2	4.55
282.414	4.23
282.627	4.22
282.841	4.05
283.055	4.07
283.269	3.88
283.482	3.64
283.696	3.71
283.91	3.8
284.123	3.74
284.337	3.45
284.551	3.44
284.764	3.59
284.978	3.69
285.192	3.94
285.405	3.68
285.619	3.84
285.833	4
286.046	4.01
286.26	3.97
286.473	4.19
286.687	4.41
286.9	4.54
287.114	4.65
287.327	4.43
287.541	4.1
287.754	3.87
287.968	4.16
288.181	4.19
288.395	3.76
288.608	3.89
288.822	3.59
289.035	3.3
289.248	2.95
289.462	3.01
289.675	2.78
289.889	3.27
290.102	2.95
290.315	2.49
290.529	2.46
290.742	2.72
290.955	2.7
291.169	2.8
291.382	2.87
291.595	2.79
291.808	2.7
292.022	2.71
292.235	2.53
292.448	3.26
292.661	3.43
292.875	3.62
293.088	3.53
293.301	3.46
293.514	3.61
293.727	3.52
293.94	3.54
294.153	3.62
294.367	3.75
294.58	3.75
294.793	3.49
295.006	3.6
295.219	3.44
295.432	3.56
295.645	3.49
295.858	3.55
296.071	3.47
296.284	3.6
296.497	3.79
296.71	3.94
296.923	3.82
297.136	4
297.349	4.12
297.562	4.11
297.775	3.99
297.988	4.16
298.201	4.12
298.414	4.32
298.626	4.43
298.839	4.31
299.052	4.13
299.265	4.42
299.478	4.27
299.691	4.2
299.903	4.25
300.116	4.29
300.329	4.28
300.542	3.92
300.755	3.78
300.967	3.81
301.18	3.68
301.393	4.02
301.605	3.82
301.818	3.58
302.031	3.33
302.243	3.42
302.456	3.73
302.669	3.35
302.881	3.69
303.094	3.87
303.307	3.88
303.519	3.97
303.732	4.03
303.944	3.89
304.157	4.34
304.37	4.34
304.582	4.5
304.795	4.26
305.007	4.74
305.22	4.72
305.432	4.47
305.645	4.55
305.857	4.49
306.069	4.29
306.282	4.35
306.494	4.54
306.707	4.71
306.919	4.47
307.132	4.64
307.344	4.75
307.556	4.73
307.769	5.16
307.981	4.72
308.193	4.66
308.406	4.65
308.618	4.79
308.83	4.55
309.043	4.5
309.255	4.52
309.467	4.31
309.679	3.95
309.892	4.18
310.104	3.78
310.316	4.35
310.528	4.31
310.74	4.35
310.953	4.48
311.165	4.74
311.377	4.82
311.589	4.73
311.801	5
312.013	5.17
312.225	5.15
312.437	5.63
312.649	5.33
312.862	5.38
313.074	5.39
313.286	5.25
313.498	5.15
313.71	4.97
313.922	5.25
314.134	4.99
314.346	4.91
314.558	4.89
314.77	4.92
314.982	4.82
315.193	4.89
315.405	4.75
315.617	4.76
315.829	4.59
316.041	5.11
316.253	5.08
316.465	5.29
316.677	5.58
316.888	5.66
317.1	5.66
317.312	5.93
317.524	6.13
317.736	5.95
317.947	5.98
318.159	6.35
318.371	6.36
318.583	6.89
318.794	6.91
319.006	7.27
319.218	7.07
319.43	6.94
319.641	7.18
319.853	7.07
320.064	7.95
320.276	8.48
320.488	8.26
320.699	8.23
320.911	8.11
321.123	8.2
321.334	8.02
321.546	8.45
321.757	8.73
321.969	8.51
322.18	8.71
322.392	8.55
322.603	7.97
322.815	8.45
323.026	8.24
323.238	7.88
323.449	8.14
323.661	8.13
323.872	8.08
324.083	8.31
324.295	8.7
324.506	8.58
324.718	8.55
324.929	9.06
325.14	8.89
325.352	9.54
325.563	10.04
325.774	10.38
325.986	10.59
326.197	11.19
326.408	11.39
326.62	11.45
326.831	11.96
327.042	12.86
327.253	13.25
327.464	13.67
327.676	13.86
327.887	14.3
328.098	14.79
328.309	15.44
328.52	15.56
328.732	15.72
328.943	16.43
329.154	16.7
329.365	16.56
329.576	17.13
329.787	17.57
329.998	18.03
330.209	18.4
330.42	18.89
330.631	18.94
330.842	19.33
331.053	20.31
331.264	20.62
331.475	21.29
331.686	21.61
331.897	22.04
332.108	22.4
332.319	22.41
332.53	22.6
332.741	22.68
332.952	23.45
333.163	23.75
333.374	24.07
333.585	24.47
333.795	25.07
334.006	25.36
334.217	25.53
334.428	25.72
334.639	26.39
334.849	26.65
335.06	26.51
335.271	26.44
335.482	26.82
335.692	26.79
335.903	26.95
336.114	27.27
336.325	27.77
336.535	27.7
336.746	27.78
336.957	27.66
337.167	27.84
337.378	28.3
337.589	28.25
337.799	28.35
338.01	28.35
338.22	28.2
338.431	27.81
338.642	27.78
338.852	27.65
339.063	27.88
339.273	28.19
339.484	28.03
339.694	27.99
339.905	28.4
340.115	28.53
340.326	28.5
340.536	28.75
340.746	28.85
340.957	29.16
341.167	29.3
341.378	29.44
341.588	29.14
341.799	29.12
342.009	29.11
342.219	29.08
342.43	28.84
342.64	29
342.85	28.57
343.061	28.6
343.271	28.26
343.481	28.15
343.691	27.99
343.902	27.92
344.112	27.87
344.322	27.83
344.532	27.78
344.743	27.73
344.953	27.49
345.163	27.72
345.373	27.66
345.583	27.6
345.793	27.64
346.004	27.48
346.214	27.52
346.424	27.66
346.634	27.52
346.844	27.37
347.054	27.39
347.264	27.42
347.474	27.42
347.684	27.29
347.894	27.24
348.104	27.61
348.314	27.68
348.524	27.53
348.734	27.43
348.944	27.4
349.154	27.23
349.364	27.15
349.574	27.17
349.784	27.29
349.994	27.25
350.204	27.23
350.413	26.75
350.623	26.84
350.833	27.12
351.043	27.36
351.253	27.5
351.463	27.5
351.672	27.54
351.882	27.76
352.092	27.51
352.302	27.74
352.511	27.81
352.721	28.01
352.931	27.77
353.141	27.76
353.35	27.68
353.56	27.61
353.77	27.59
353.979	27.66
354.189	27.76
354.399	27.83
354.608	27.68
354.818	27.62
355.027	27.47
355.237	27.52
355.447	27.37
355.656	27.23
355.866	27.21
356.075	27.05
356.285	26.83
356.494	26.57
356.704	26.41
356.913	26.42
357.123	26.25
357.332	26.23
357.542	26.15
357.751	26.25
357.96	26.25
358.17	26.19
358.379	26.32
358.589	26.4
358.798	26.29
359.007	26.2
359.217	26.05
359.426	26.03
359.635	26.13
359.845	26.26
360.054	26.11
360.263	26.05
360.472	26.1
360.682	25.98
360.891	25.82
361.1	25.79
361.309	25.9
361.519	25.94
361.728	25.77
361.937	25.63
362.146	25.52
362.355	25.5
362.564	25.41
362.774	25.41
362.983	25.34
363.192	25.23
363.401	25.25
363.61	25.17
363.819	25.07
364.028	25.08
364.237	24.83
364.446	24.81
364.655	24.58
364.864	24.63
365.073	24.43
365.282	24.52
365.491	24.65
365.7	24.54
365.909	24.63
366.118	24.57
366.327	24.61
366.536	25.03
366.745	25
366.954	25.12
367.162	25.13
367.371	25.03
367.58	25.07
367.789	25.11
367.998	25.17
368.207	24.98
368.415	24.91
368.624	24.98
368.833	24.62
369.042	24.7
369.25	24.87
369.459	24.82
369.668	24.91
369.877	24.66
370.085	24.43
370.294	24.23
370.503	24.37
370.711	24.45
370.92	24.44
371.129	24.75
371.337	24.47
371.546	24.46
371.754	24.45
371.963	24.61
372.171	24.66
372.38	24.76
372.589	24.86
372.797	24.71
373.006	24.65
373.214	24.67
373.423	24.68
373.631	24.93
373.84	24.75
374.048	24.73
374.256	24.6
374.465	24.67
374.673	24.88
374.882	24.94
375.09	25.24
375.298	25.31
375.507	25.44
375.715	25.32
375.923	25.33
376.132	25.33
376.34	25.28
376.548	25.25
376.757	25.14
376.965	25.12
377.173	25.02
377.381	24.89
377.59	24.85
377.798	24.95
378.006	24.85
378.214	24.62
378.423	24.42
378.631	24.54
378.839	24.48
379.047	24.67
379.255	24.82
379.463	24.89
379.671	24.86
379.879	24.98
380.088	24.67
380.296	24.52
380.504	24.63
380.712	24.8
380.92	24.47
381.128	24.62
381.336	24.68
381.544	24.55
381.752	24.46
381.96	24.41
382.168	24.29
382.376	24.27
382.584	24.51
382.791	24.38
382.999	24.35
383.207	24.73
383.415	24.53
383.623	24.46
383.831	24.18
384.039	24.23
384.247	24.25
384.454	24.21
384.662	24.27
384.87	24.04
385.078	24.09
385.285	23.97
385.493	23.95
385.701	23.91
385.909	23.77
386.116	23.78
386.324	23.69
386.532	23.52
386.739	23.64
386.947	23.64
387.155	23.65
387.362	23.72
387.57	23.79
387.778	23.48
387.985	23.62
388.193	23.66
388.4	23.7
388.608	23.68
388.816	23.64
389.023	23.68
389.231	23.7
389.438	23.72
389.646	23.64
389.853	23.58
390.061	23.72
390.268	23.56
390.475	23.57
390.683	23.76
390.89	23.75
391.098	23.74
391.305	23.49
391.512	23.63
391.72	23.65
391.927	23.65
392.135	23.51
392.342	23.43
392.549	23.49
392.756	23.42
392.964	23.4
393.171	23.41
393.378	23.49
393.586	23.48
393.793	23.35
394	23.57
394.207	23.71
394.414	23.86
394.622	23.83
394.829	23.98
395.036	24.07
395.243	24
395.45	23.94
395.657	23.95
395.864	24.05
396.072	23.92
396.279	23.78
396.486	23.57
396.693	23.52
396.9	23.77
397.107	23.74
397.314	23.68
397.521	23.5
397.728	23.66
397.935	23.75
398.142	23.83
398.349	23.98
398.556	23.71
398.763	23.85
398.97	23.96
399.177	24.01
399.383	23.93
399.59	23.88
399.797	24.02
400.004	23.94
400.211	23.78
400.418	23.74
400.625	23.55
400.831	23.76
401.038	23.69
401.245	23.7
401.452	23.43
401.658	23.36
401.865	23.48
402.072	23.36
402.279	23.59
402.485	23.5
402.692	23.62
402.899	23.74
403.105	23.9
403.312	24.01
403.519	23.99
403.725	24
403.932	24.14
404.138	24.17
404.345	24.27
404.552	24.08
404.758	24.2
404.965	24.03
405.171	24.09
405.378	23.9
405.584	23.87
405.791	23.84
405.997	23.84
406.204	23.76
406.41	23.68
406.617	23.64
406.823	23.49
407.029	23.43
407.236	23.53
407.442	23.29
407.649	23.48
407.855	23.39
408.061	23.45
408.268	23.67
408.474	23.64
408.68	23.73
408.887	23.84
409.093	24.08
409.299	24.32
409.505	24.26
409.712	24.37
409.918	24.32
410.124	24.38
410.33	24.34
410.537	24.17
410.743	24.29
410.949	24.12
411.155	24.03
411.361	23.97
411.567	23.69
411.773	23.7
411.98	23.79
412.186	23.86
412.392	23.79
412.598	23.67
412.804	23.71
413.01	23.74
413.216	23.85
413.422	24
413.628	23.97
413.834	24.29
414.04	24.3
414.246	24.12
414.452	24.11
414.658	24.08
414.864	24.22
415.07	24.2
415.275	24.15
415.481	24.38
415.687	24.32
415.893	24.24
416.099	24.1
416.305	24.02
416.511	24.17
416.716	23.98
416.922	24.01
417.128	24.07
417.334	23.94
417.539	23.92
417.745	23.74
417.951	23.65
418.157	23.61
418.362	23.5
418.568	23.57
418.774	23.65
418.979	23.83
419.185	23.82
419.391	23.77
419.596	23.85
419.802	23.83
420.008	23.87
420.213	23.89
420.419	23.96
420.624	24.06
420.83	24.07
421.035	23.97
421.241	23.87
421.446	23.95
421.652	23.98
421.857	23.96
422.063	23.99
422.268	23.95
422.474	23.99
422.679	24.03
422.885	23.89
423.09	23.88
423.295	23.87
423.501	23.84
423.706	23.82
423.911	23.78
424.117	23.85
424.322	23.8
424.527	23.83
424.733	23.74
424.938	23.7
425.143	23.76
425.349	23.78
425.554	23.81
425.759	23.83
425.964	23.79
426.169	23.85
426.375	23.83
426.58	23.89
426.785	23.88
426.99	24.04
427.195	24.02
427.4	24.12
427.605	24.09
427.811	24.06
428.016	24.08
428.221	24.16
428.426	24.19
428.631	24.1
428.836	24.13
429.041	24.09
429.246	24.05
429.451	24.06
429.656	24.11
429.861	24.1
430.066	24.16
430.271	24.25
430.476	24.25
430.681	24.22
430.886	24.32
431.09	24.41
431.295	24.45
431.5	24.46
431.705	24.47
431.91	24.35
432.115	24.49
432.32	24.56
432.524	24.46
432.729	24.41
432.934	24.5
433.139	24.55
433.343	24.42
433.548	24.48
433.753	24.53
433.958	24.55
434.162	24.62
434.367	24.59
434.572	24.54
434.776	24.7
434.981	24.74
435.186	24.74
435.39	24.77
435.595	24.91
435.799	24.78
436.004	24.69
436.209	24.75
436.413	24.76
436.618	24.76
436.822	24.76
437.027	24.71
437.231	24.71
437.436	24.56
437.64	24.62
437.845	24.55
438.049	24.67
438.253	24.82
438.458	24.8
438.662	24.85
438.867	24.8
439.071	24.76
439.275	24.76
439.48	24.74
439.684	24.81
439.888	24.73
440.093	24.65
440.297	24.7
440.501	24.66
440.706	24.62
440.91	24.58
441.114	24.67
441.318	24.67
441.523	24.6
441.727	24.61
441.931	24.64
442.135	24.74
442.339	24.87
442.543	24.74
442.748	24.71
442.952	24.8
443.156	24.87
443.36	24.84
443.564	24.9
443.768	24.95
443.972	25.09
444.176	25.1
444.38	25.07
444.584	24.93
444.788	24.88
444.992	24.86
445.196	24.79
445.4	24.77
445.604	24.74
445.808	24.69
446.012	24.66
446.216	24.54
446.42	24.52
446.624	24.52
446.828	24.58
447.032	24.63
447.235	24.63
447.439	24.71
447.643	24.74
447.847	24.75
448.051	24.81
448.254	24.82
448.458	24.87
448.662	24.84
448.866	24.84
449.069	24.86
449.273	24.86
449.477	24.9
449.681	24.83
449.884	24.83
450.088	24.76
450.292	24.69
450.495	24.72
450.699	24.73
450.902	24.9
451.106	24.8
451.31	24.85
451.513	24.95
451.717	25.03
451.92	25.1
452.124	25.08
452.327	25.13
452.531	25.25
452.734	25.3
452.938	25.21
453.141	25.06
453.345	25.1
453.548	25.12
453.752	25.14
453.955	25.03
454.158	25.06
454.362	25.09
454.565	25.09
454.769	25.04
454.972	25.12
455.175	25.3
455.379	25.31
455.582	25.35
455.785	25.26
455.988	25.28
456.192	25.31
456.395	25.23
456.598	25.24
456.801	25.26
457.005	25.25
457.208	25.2
457.411	24.97
457.614	25.08
457.817	25.15
458.021	25.07
458.224	25.06
458.427	25.06
458.63	25.09
458.833	25.16
459.036	25.22
459.239	25.2
459.442	25.09
459.645	25.2
459.848	25.15
460.051	25.04
460.254	25.06
460.457	24.95
460.66	24.95
460.863	24.98
461.066	24.87
461.269	24.82
461.472	24.89
461.675	25
461.878	24.98
462.081	25.01
462.284	25.07
462.486	25.1
462.689	25.24
462.892	25.29
463.095	25.26
463.298	25.23
463.5	25.26
463.703	25.33
463.906	25.2
464.109	25.2
464.311	25.18
464.514	25.12
464.717	25.08
464.92	25.03
465.122	25.03
465.325	25.06
465.528	25.24
465.73	25.3
465.933	25.27
466.135	25.33
466.338	25.29
466.541	25.27
466.743	25.29
466.946	25.43
467.148	25.46
467.351	25.51
467.553	25.43
467.756	25.37
467.958	25.29
468.161	25.2
468.363	25.23
468.566	25.26
468.768	25.41
468.971	25.5
469.173	25.55
469.375	25.56
469.578	25.52
469.78	25.55
469.983	25.48
470.185	25.53
470.387	25.52
470.59	25.54
470.792	25.59
470.994	25.49
471.196	25.42
471.399	25.36
471.601	25.4
471.803	25.4
472.005	25.39
472.208	25.48
472.41	25.49
472.612	25.58
472.814	25.53
473.016	25.48
473.218	25.45
473.421	25.48
473.623	25.4
473.825	25.38
474.027	25.34
474.229	25.48
474.431	25.45
474.633	25.49
474.835	25.47
475.037	25.55
475.239	25.52
475.441	25.55
475.643	25.61
475.845	25.52
476.047	25.43
476.249	25.5
476.451	25.45
476.653	25.44
476.855	25.4
477.057	25.39
477.258	25.43
477.46	25.4
477.662	25.47
477.864	25.41
478.066	25.47
478.268	25.5
478.469	25.41
478.671	25.32
478.873	25.29
479.075	25.32
479.276	25.24
479.478	25.22
479.68	25.25
479.882	25.14
480.083	25.15
480.285	25.15
480.487	25.16
480.688	25.16
480.89	25.11
481.091	25.1
481.293	25.04
481.495	25.03
481.696	25.01
481.898	25.04
482.099	24.96
482.301	24.92
482.502	24.86
482.704	24.82
482.905	24.8
483.107	24.78
483.308	24.73
483.51	24.73
483.711	24.68
483.913	24.67
484.114	24.62
484.315	24.65
484.517	24.64
484.718	24.68
484.92	24.69
485.121	24.69
485.322	24.7
485.524	24.72
485.725	24.74
485.926	24.82
486.127	24.83
486.329	24.85
486.53	24.83
486.731	24.83
486.932	24.81
487.134	24.77
487.335	24.78
487.536	24.77
487.737	24.79
487.938	24.77
488.139	24.78
488.341	24.76
488.542	24.75
488.743	24.82
488.944	24.83
489.145	24.87
489.346	24.88
489.547	24.91
489.748	24.99
489.949	25.03
490.15	24.99
490.351	24.96
490.552	24.92
490.753	24.97
490.954	24.92
491.155	24.94
491.356	24.91
491.557	24.95
491.758	24.98
491.959	24.96
492.159	24.93
492.36	24.97
492.561	25.01
492.762	25.06
492.963	25.09
493.164	25.11
493.364	25.1
493.565	25.09
493.766	25.17
493.967	25.15
494.167	25.22
494.368	25.27
494.569	25.3
494.769	25.28
494.97	25.32
495.171	25.28
495.371	25.39
495.572	25.5
495.773	25.58
495.973	25.59
496.174	25.64
496.375	25.57
496.575	25.56
496.776	25.6
496.976	25.6
497.177	25.58
497.377	25.62
497.578	25.62
497.778	25.56
497.979	25.56
498.179	25.6
498.38	25.59
498.58	25.68
498.78	25.72
498.981	25.72
499.181	25.77
499.382	25.81
499.582	25.82
499.782	25.84
499.983	25.9
500.183	25.94
500.383	25.92
500.584	25.89
500.784	25.84
500.984	25.84
501.184	25.85
501.385	25.81
501.585	25.82
501.785	25.78
501.985	25.74
502.185	25.78
502.386	25.88
502.586	25.85
502.786	25.91
502.986	25.99
503.186	26.05
503.386	26.04
503.586	26.17
503.786	26.16
503.987	26.14
504.187	26.26
504.387	26.26
504.587	26.27
504.787	26.22
504.987	26.24
505.187	26.21
505.387	26.24
505.587	26.26
505.786	26.19
505.986	26.3
506.186	26.44
506.386	26.31
506.586	26.27
506.786	26.29
506.986	26.4
507.186	26.44
507.386	26.52
507.585	26.52
507.785	26.52
507.985	26.56
508.185	26.53
508.384	26.46
508.584	26.54
508.784	26.56
508.984	26.59
509.183	26.59
509.383	26.58
509.583	26.57
509.782	26.54
509.982	26.5
510.182	26.5
510.381	26.53
510.581	26.58
510.781	26.56
510.98	26.54
511.18	26.55
511.379	26.47
511.579	26.48
511.778	26.43
511.978	26.43
512.177	26.46
512.377	26.53
512.576	26.51
512.776	26.47
512.975	26.43
513.175	26.42
513.374	26.37
513.573	26.45
513.773	26.49
513.972	26.5
514.172	26.47
514.371	26.62
514.57	26.6
514.77	26.61
514.969	26.64
515.168	26.7
515.367	26.83
515.567	26.85
515.766	26.91
515.965	26.9
516.164	26.85
516.364	26.93
516.563	26.8
516.762	26.82
516.961	26.77
517.16	26.77
517.359	26.84
517.559	26.74
517.758	26.66
517.957	26.6
518.156	26.6
518.355	26.68
518.554	26.74
518.753	26.8
518.952	26.71
519.151	26.75
519.35	26.8
519.549	26.79
519.748	26.81
519.947	26.89
520.146	26.93
520.345	26.91
520.544	26.88
520.743	26.86
520.942	26.77
521.141	26.85
521.339	26.87
521.538	26.92
521.737	26.91
521.936	26.95
522.135	26.97
522.333	27.03
522.532	27.08
522.731	27.02
522.93	27.05
523.129	27.08
523.327	27.09
523.526	27.09
523.725	26.99
523.923	27.02
524.122	27.06
524.321	26.98
524.519	26.92
524.718	26.92
524.917	27.02
525.115	26.99
525.314	27.06
525.512	27.08
525.711	27.12
525.909	27.16
526.108	27.13
526.306	27.07
526.505	27.15
526.703	27.17
526.902	27.15
527.1	27.07
527.299	27.02
527.497	26.94
527.696	26.92
527.894	26.84
528.092	26.79
528.291	26.76
528.489	26.8
528.688	26.72
528.886	26.7
529.084	26.67
529.283	26.67
529.481	26.67
529.679	26.72
529.877	26.72
530.076	26.76
530.274	26.79
530.472	26.81
530.67	26.77
530.869	26.92
531.067	26.93
531.265	26.96
531.463	27.01
531.661	27.06
531.859	27.06
532.057	27.02
532.255	27.05
532.454	27.03
532.652	27.03
532.85	27.08
533.048	27.1
533.246	27.14
533.444	27.16
533.642	27.17
533.84	27.18
534.038	27.18
534.236	27.25
534.434	27.23
534.632	27.26
534.83	27.3
535.027	27.31
535.225	27.2
535.423	27.24
535.621	27.28
535.819	27.3
536.017	27.32
536.215	27.32
536.412	27.3
536.61	27.33
536.808	27.42
537.006	27.45
537.203	27.48
537.401	27.6
537.599	27.6
537.797	27.63
537.994	27.65
538.192	27.75
538.39	27.75
538.587	27.84
538.785	27.86
538.983	27.86
539.18	27.95
539.378	27.99
539.575	27.96
539.773	27.98
539.97	27.94
540.168	27.98
540.366	27.97
540.563	28.06
540.761	28.1
540.958	28.09
541.155	28.11
541.353	28.08
541.55	28.07
541.748	28.06
541.945	28.06
542.143	28.08
542.34	28.13
542.537	28.16
542.735	28.19
542.932	28.21
543.129	28.32
543.327	28.36
543.524	28.46
543.721	28.56
543.919	28.7
544.116	28.79
544.313	28.96
544.51	29.09
544.708	29.2
544.905	29.29
545.102	29.42
545.299	29.51
545.496	29.63
545.693	29.72
545.891	29.68
546.088	29.67
546.285	29.7
546.482	29.65
546.679	29.59
546.876	29.59
547.073	29.55
547.27	29.46
547.467	29.34
547.664	29.24
547.861	29.13
548.058	29.18
548.255	29.15
548.452	29.12
548.649	29.13
548.846	29.1
549.043	28.99
549.24	28.99
549.437	28.99
549.633	29
549.83	28.94
550.027	28.9
550.224	28.78
550.421	28.81
550.618	28.76
550.814	28.79
551.011	28.73
551.208	28.76
551.405	28.76
551.601	28.66
551.798	28.61
551.995	28.72
552.191	28.67
552.388	28.63
552.585	28.5
552.781	28.56
552.978	28.51
553.175	28.53
553.371	28.45
553.568	28.43
553.764	28.47
553.961	28.53
554.157	28.43
554.354	28.54
554.55	28.65
554.747	28.77
554.943	28.72
555.14	28.69
555.336	28.75
555.533	28.77
555.729	28.73
555.926	28.74
556.122	28.76
556.318	28.77
556.515	28.74
556.711	28.65
556.907	28.68
557.104	28.65
557.3	28.67
557.496	28.6
557.693	28.68
557.889	28.6
558.085	28.7
558.281	28.75
558.478	28.8
558.674	28.76
558.87	28.82
559.066	28.75
559.262	28.72
559.459	28.8
559.655	28.79
559.851	28.76
560.047	28.72
560.243	28.63
560.439	28.48
560.635	28.31
560.831	28.39
561.027	28.42
561.223	28.47
561.419	28.45
561.615	28.39
561.811	28.42
562.007	28.36
562.203	28.57
562.399	28.57
562.595	28.71
562.791	28.91
562.987	28.84
563.183	28.82
563.379	28.85
563.575	28.93
563.771	28.87
563.966	28.81
564.162	28.87
564.358	28.65
564.554	28.61
564.75	28.55
564.945	28.37
565.141	28.42
565.337	28.38
565.533	28.35
565.728	28.26
565.924	28.28
566.12	28.33
566.315	28.43
566.511	28.55
566.707	28.6
566.902	28.59
567.098	28.6
567.293	28.47
567.489	28.5
567.684	28.53
567.88	28.59
568.076	28.62
568.271	28.55
568.467	28.42
568.662	28.41
568.858	28.36
569.053	28.38
569.248	28.36
569.444	28.47
569.639	28.5
569.835	28.41
570.03	28.42
570.225	28.45
570.421	28.53
570.616	28.53
570.812	28.46
571.007	28.51
571.202	28.52
571.397	28.65
571.593	28.56
571.788	28.51
571.983	28.55
572.178	28.5
572.374	28.52
572.569	28.41
572.764	28.43
572.959	28.48
573.154	28.41
573.35	28.39
573.545	28.31
573.74	28.38
573.935	28.37
574.13	28.31
574.325	28.36
574.52	28.22
574.715	28.39
574.91	28.32
575.105	28.4
575.3	28.47
575.495	28.41
575.69	28.41
575.885	28.44
576.08	28.53
576.275	28.57
576.47	28.69
576.665	28.81
576.86	28.86
577.055	28.96
577.25	28.99
577.444	29.1
577.639	29.38
577.834	29.45
578.029	29.6
578.224	29.71
578.418	29.91
578.613	29.85
578.808	29.91
579.003	29.79
579.197	29.75
579.392	29.79
579.587	29.79
579.781	29.64
579.976	29.81
580.171	29.85
580.365	29.68
580.56	29.61
580.755	29.63
580.949	29.6
581.144	29.62
581.338	29.75
581.533	29.75
581.727	29.6
581.922	29.71
582.116	29.58
582.311	29.43
582.505	29.65
582.7	29.65
582.894	29.71
583.089	29.73
583.283	29.95
583.478	29.89
583.672	29.72
583.866	29.93
584.061	29.8
584.255	29.78
584.449	29.85
584.644	29.83
584.838	29.74
585.032	29.84
585.226	29.91
585.421	29.77
585.615	29.84
585.809	30.03
586.003	30.02
586.198	30.15
586.392	30.25
586.586	30.33
586.78	30.37
586.974	30.58
587.168	30.53
587.363	30.56
587.557	30.54
587.751	30.58
587.945	30.54
588.139	30.48
588.333	30.44
588.527	30.51
588.721	30.41
588.915	30.24
589.109	29.99
589.303	30
589.497	30.07
589.691	30.15
589.885	30.06
590.079	30.13
590.273	30.09
590.466	30.18
590.66	30.1
590.854	30.11
591.048	30.28
591.242	30.6
591.436	30.65
591.629	30.67
591.823	30.67
592.017	30.77
592.211	30.78
592.404	30.84
592.598	30.89
592.792	31
592.986	31
593.179	31
593.373	30.71
593.567	30.7
593.76	30.69
593.954	30.69
594.147	30.49
594.341	30.36
594.535	30.38
594.728	30.27
594.922	30.19
595.115	30.19
595.309	30.06
595.502	30.16
595.696	30.12
595.889	30.08
596.083	29.97
596.276	30.06
596.47	30.01
596.663	29.96
596.856	29.96
597.05	30.11
597.243	30.25
597.437	30.27
597.63	30.25
597.823	30.25
598.017	30.17
598.21	30.33
598.403	30.42
598.596	30.6
598.79	30.65
598.983	30.73
599.176	30.63
599.369	30.42
599.563	30.55
599.756	30.63
599.949	30.74
600.142	30.83
600.335	30.83
600.528	30.74
600.722	30.81
600.915	30.79
601.108	30.81
601.301	30.73
601.494	30.86
601.687	30.76
601.88	30.81
602.073	30.64
602.266	30.57
602.459	30.42
602.652	30.33
602.845	30.2
603.038	30.09
603.231	29.96
603.424	30.01
603.617	29.93
603.809	29.86
604.002	29.77
604.195	29.8
604.388	29.9
604.581	29.97
604.774	30.03
604.966	30.18
605.159	30.27
605.352	30.36
605.545	30.35
605.737	30.4
605.93	30.44
606.123	30.49
606.316	30.57
606.508	30.57
606.701	30.68
606.894	30.79
607.086	30.81
607.279	30.93
607.471	31.02
607.664	31.12
607.857	31.5
608.049	31.86
608.242	32.24
608.434	32.85
608.627	33.43
608.819	34.03
609.012	34.81
609.204	35.59
609.397	36.45
609.589	37.41
609.782	38.54
609.974	39.43
610.166	40.53
610.359	41.6
610.551	42.35
610.743	43
610.936	43.6
611.128	44.16
611.32	44.51
611.513	44.81
611.705	44.79
611.897	44.58
612.09	44.43
612.282	43.98
612.474	43.48
612.666	42.95
612.858	42.52
613.051	42.07
613.243	41.45
613.435	40.95
613.627	40.49
613.819	40.2
614.011	39.85
614.203	39.41
614.395	39.13
614.588	38.71
614.78	38.2
614.972	37.93
615.164	37.6
615.356	37.06
615.548	36.68
615.74	36.37
615.932	35.94
616.124	35.34
616.315	34.95
616.507	34.53
616.699	34.18
616.891	34.15
617.083	33.85
617.275	33.56
617.467	33.49
617.659	33.28
617.85	33.21
618.042	33.09
618.234	33.29
618.426	33.33
618.618	33.34
618.809	33.4
619.001	33.14
619.193	33.09
619.384	32.98
619.576	33.05
619.768	33.13
619.959	32.94
620.151	32.87
620.343	32.83
620.534	32.65
620.726	32.58
620.917	32.78
621.109	32.97
621.301	33.14
621.492	33.11
621.684	33.16
621.875	33.22
622.067	33.25
622.258	33.32
622.45	33.4
622.641	33.5
622.832	33.39
623.024	33.05
623.215	33.01
623.407	32.81
623.598	32.95
623.789	32.92
623.981	32.79
624.172	32.71
624.363	32.75
624.555	32.73
624.746	32.7
624.937	32.75
625.129	32.87
625.32	32.77
625.511	32.81
625.702	32.68
625.893	32.68
626.085	32.7
626.276	32.74
626.467	32.67
626.658	32.57
626.849	32.43
627.04	32.52
627.231	32.43
627.422	32.49
627.614	32.41
627.805	32.5
627.996	32.57
628.187	32.64
628.378	32.65
628.569	32.76
628.76	32.87
628.951	33.18
629.142	33.19
629.332	33.52
629.523	33.63
629.714	33.94
629.905	34.21
630.096	34.24
630.287	34.54
630.478	34.72
630.669	34.7
630.859	34.86
631.05	34.7
631.241	34.71
631.432	34.57
631.623	34.39
631.813	34.08
632.004	33.74
632.195	33.42
632.385	32.89
632.576	32.56
632.767	32.43
632.957	32
633.148	32.04
633.339	31.77
633.529	31.45
633.72	31.39
633.91	31.54
634.101	31.52
634.292	31.52
634.482	31.64
634.673	31.66
634.863	31.62
635.054	31.8
635.244	31.58
635.435	31.74
635.625	31.92
635.815	31.96
636.006	31.68
636.196	31.57
636.387	31.71
636.577	31.75
636.767	31.87
636.958	31.97
637.148	32.04
637.338	32.16
637.529	31.9
637.719	31.77
637.909	31.65
638.099	31.62
638.29	31.67
638.48	31.62
638.67	31.49
638.86	31.61
639.05	31.42
639.241	31.49
639.431	31.51
639.621	31.74
639.811	31.75
640.001	32.05
640.191	32.23
640.381	32.41
640.571	32.33
640.761	32.41
640.951	32.17
641.141	32.36
641.331	32.14
641.521	32.27
641.711	32.39
641.901	32.48
642.091	32.29
642.281	32.33
642.471	32.18
642.661	32.15
642.851	32.19
643.041	32.35
643.231	32.14
643.42	32.11
643.61	32.01
643.8	31.81
643.99	31.87
644.18	32.01
644.369	31.91
644.559	32.02
644.749	32.03
644.939	31.91
645.128	31.92
645.318	32.13
645.508	32.3
645.697	32.44
645.887	32.24
646.076	32.11
646.266	32.1
646.456	32.28
646.645	32.35
646.835	32.49
647.024	32.47
647.214	32.25
647.403	32.08
647.593	32.18
647.782	31.81
647.972	32.01
648.161	32.12
648.351	31.96
648.54	31.92
648.73	31.81
648.919	31.88
649.108	32.03
649.298	32.3
649.487	32.41
649.677	32.42
649.866	32.55
650.055	32.65
650.244	32.43
650.434	32.61
650.623	32.53
650.812	32.61
651.002	32.49
651.191	32.68
651.38	32.58
651.569	32.63
651.758	32.5
651.947	32.66
652.137	32.87
652.326	33.36
652.515	33.29
652.704	33.31
652.893	33.26
653.082	33.47
653.271	33.49
653.46	33.51
653.649	33.5
653.838	33.55
654.027	33.63
654.216	33.49
654.405	33.36
654.594	33.57
654.783	33.35
654.972	33.2
655.161	33.08
655.35	32.82
655.539	32.98
655.728	32.99
655.916	33.06
656.105	33.02
656.294	32.78
656.483	32.99
656.672	33.12
656.86	33.39
657.049	33.65
657.238	33.51
657.427	33.35
657.615	33.43
657.804	33.49
657.993	33.35
658.181	33.37
658.37	33.5
658.559	33.05
658.747	32.85
658.936	32.84
659.125	32.61
659.313	32.64
659.502	32.75
659.69	32.46
659.879	32.32
660.067	32.34
660.256	32.2
660.444	32.3
660.633	32.47
660.821	32.54
661.01	32.39
661.198	32.59
661.387	32.63
661.575	32.82
661.763	33.19
661.952	33.23
662.14	33.37
662.328	33.65
662.517	33.67
662.705	33.7
662.893	33.66
663.082	33.87
663.27	34.13
663.458	34.39
663.646	34.39
663.834	34.34
664.023	34.32
664.211	34.46
664.399	34.36
664.587	34.04
664.775	34
664.963	34.13
665.152	34.24
665.34	34.04
665.528	33.5
665.716	33.49
665.904	33.31
666.092	33.58
666.28	33.33
666.468	33.22
666.656	33.29
666.844	33.44
667.032	33.47
667.22	33.27
667.408	33.06
667.596	33.44
667.784	33.46
667.971	33.48
668.159	33.41
668.347	33.59
668.535	33.81
668.723	34.02
668.911	33.92
669.098	33.74
669.286	33.85
669.474	34.11
669.662	34.16
669.849	34.08
670.037	34.23
670.225	34.21
670.413	33.89
670.6	33.8
670.788	33.93
670.976	34.03
671.163	34.12
671.351	34.14
671.538	33.85
671.726	33.84
671.913	34.19
672.101	34.35
672.289	34.32
672.476	34.54
672.664	34.61
672.851	34.52
673.039	34.54
673.226	34.53
673.413	34.58
673.601	35.15
673.788	35.19
673.976	34.77
674.163	34.43
674.35	34.34
674.538	34.63
674.725	34.42
674.912	34.43
675.1	34.63
675.287	34.71
675.474	34.41
675.662	34.32
675.849	34.38
676.036	34.56
676.223	34.67
676.411	35.25
676.598	34.78
676.785	34.87
676.972	35.04
677.159	34.9
677.346	35.03
677.533	35.34
677.721	35.05
677.908	34.86
678.095	34.99
678.282	34.89
678.469	34.51
678.656	34.87
678.843	34.79
679.03	34.41
679.217	34.26
679.404	34.34
679.591	34.31
679.778	34.39
679.964	34.5
680.151	34.36
680.338	34.52
680.525	34.47
680.712	34.32
680.899	34.45
681.086	34.81
681.272	34.75
681.459	34.46
681.646	34.45
681.833	34.64
682.02	34.71
682.206	34.35
682.393	34.21
682.58	34.52
682.766	34.63
682.953	34.55
683.14	34.51
683.326	34.9
683.513	35.12
683.7	35.2
683.886	35.09
684.073	35.08
684.259	35.79
684.446	36.12
684.632	35.99
684.819	36.15
685.005	36.32
685.192	36.5
685.378	36.36
685.565	36.38
685.751	36.21
685.938	36.19
686.124	36.31
686.31	36.18
686.497	36.15
686.683	36.11
686.87	35.97
687.056	35.74
687.242	35.37
687.429	35.22
687.615	35.2
687.801	35.28
687.987	35.3
688.174	35.03
688.36	35.23
688.546	35.33
688.732	35.38
688.918	35.23
689.105	35.65
689.291	35.65
689.477	35.84
689.663	36.01
689.849	36.2
690.035	36.29
690.221	36.45
690.407	36.26
690.593	36.06
690.779	35.92
690.965	36.2
691.151	36.05
691.337	36.29
691.523	36.6
691.709	36.36
691.895	36.73
692.081	36.98
692.267	37.31
692.453	37.42
692.639	37.46
692.825	37.7
693.011	37.6
693.196	37.97
693.382	38.01
693.568	37.79
693.754	37.94
693.94	37.79
694.125	37.44
694.311	37.21
694.497	37.17
694.682	36.87
694.868	36.83
695.054	37.08
695.239	36.79
695.425	36.73
695.611	36.61
695.796	36.52
695.982	36.49
696.168	36.32
696.353	36.19
696.539	36.08
696.724	36.4
696.91	36.46
697.095	36.31
697.281	36.35
697.466	36.25
697.652	36.25
697.837	36.04
698.023	35.69
698.208	36.06
698.393	36.02
698.579	35.85
698.764	35.48
698.949	35.22
699.135	35.24
699.32	35.13
699.505	35.32
699.691	35.33
699.876	35.51
700.061	35.76
700.246	35.61
700.432	35.52
700.617	35.77
700.802	36
700.987	36.34
701.172	36.45
701.358	36.63
701.543	36.6
701.728	36.61
701.913	36.9
702.098	36.97
702.283	37.08
702.468	37.62
702.653	37.54
702.838	37.82
703.023	37.96
703.208	38.22
703.393	38.24
703.578	38.03
703.763	38.37
703.948	38.33
704.133	38.89
704.318	39.08
704.503	39.36
704.688	40.12
704.873	40.63
705.057	40.92
705.242	40.98
705.427	41.39
705.612	42.04
705.797	42.09
705.981	42.55
706.166	42.52
706.351	43.1
706.536	43.32
706.72	43.19
706.905	43.21
707.09	43.47
707.274	43.43
707.459	43.26
707.644	43.52
707.828	43.81
708.013	43.87
708.197	43.55
708.382	42.92
708.567	42.65
708.751	42.3
708.936	42.36
709.12	42.17
709.305	42.33
709.489	42.42
709.673	41.99
709.858	41.78
710.042	41.67
710.227	42.09
710.411	42.33
710.596	42.3
710.78	42.57
710.964	42.64
711.149	42.45
711.333	42.21
711.517	42.25
711.702	42.31
711.886	42.42
712.07	42.34
712.254	42.39
712.438	42.33
712.623	42.25
712.807	42.12
712.991	41.88
713.175	41.62
713.359	41.61
713.544	41.47
713.728	41.2
713.912	40.9
714.096	40.79
714.28	40.2
714.464	39.53
714.648	39.48
714.832	39.46
715.016	39.11
715.2	39.41
715.384	39.3
715.568	39.06
715.752	39.16
715.936	38.99
716.12	38.82
716.304	39.01
716.488	39.38
716.671	39.26
716.855	39.14
717.039	39.39
717.223	39.07
717.407	39.2
717.59	39.55
717.774	39.38
717.958	39.79
718.142	39.49
718.325	39.41
718.509	39.53
718.693	39.57
718.877	39.54
719.06	39.32
719.244	39.39
719.428	39.38
719.611	39.35
719.795	39.55
719.978	39.48
720.162	39.57
720.345	39.7
720.529	39.71
720.713	39.59
720.896	40.09
721.08	40.14
721.263	40.49
721.446	40.8
721.63	40.76
721.813	41.01
721.997	41.01
722.18	41.58
722.364	41.58
722.547	41.53
722.73	41.74
722.914	42.09
723.097	42.54
723.28	42.4
723.464	41.73
723.647	41.66
723.83	41.3
724.013	41.73
724.197	41.74
724.38	41.88
724.563	42.2
724.746	42.19
724.929	42.18
725.112	42.03
725.296	41.96
725.479	42.15
725.662	42.32
725.845	42.44
726.028	41.93
726.211	41.94
726.394	42
726.577	41.32
726.76	41.74
726.943	41.19
727.126	41.05
727.309	41.37
727.492	41.48
727.675	40.91
727.858	40.71
728.041	40.75
728.224	40.63
728.407	40.23
728.589	40.53
728.772	40.35
728.955	40.57
729.138	40.84
729.321	40.75
729.503	41.01
729.686	41.17
729.869	41.57
730.052	41.57
730.234	41.5
730.417	41.5
730.6	41.93
730.782	41.83
730.965	41.37
731.148	41.26
731.33	41.01
731.513	40.66
731.695	40.76
731.878	41.03
732.061	40.9
732.243	41.34
732.426	41.17
732.608	40.89
732.791	40.79
732.973	40.98
733.156	41
733.338	41.38
733.52	41.3
733.703	41.34
733.885	40.88
734.068	41.22
734.25	41.07
734.432	41.58
734.615	41.96
734.797	42.44
734.979	43.01
735.162	43.27
735.344	43.18
735.526	43.59
735.708	43.39
735.891	43.63
736.073	43.67
736.255	43.53
736.437	43.35
736.619	43.12
736.802	42.7
736.984	42.47
737.166	42.06
737.348	42.32
737.53	42.69
737.712	43.26
737.894	42.65
738.076	42.33
738.258	42.37
738.44	42.36
738.622	42.28
738.804	42.27
738.986	42.4
739.168	42.64
739.35	42.42
739.532	42.01
739.714	41.98
739.896	42.49
740.078	43.23
740.259	43.11
740.441	43.72
740.623	44.14
740.805	44.43
740.987	44.11
741.168	44
741.35	44.27
741.532	44.32
741.714	44.67
741.895	44.64
742.077	44.1
742.259	44.11
742.44	43.85
742.622	43.52
742.804	43.61
742.985	43.78
743.167	44.22
743.348	44.08
743.53	44.6
743.711	43.97
743.893	44.73
744.075	44.66
744.256	44.64
744.438	44.96
744.619	45.07
744.8	45.75
744.982	45.9
745.163	45.66
745.345	45.6
745.526	45.09
745.707	45.43
745.889	45.17
746.07	45.72
746.252	45.9
746.433	45.72
746.614	45.82
746.795	45.64
746.977	45.76
747.158	46.23
747.339	46.66
747.52	46.57
747.702	46.98
747.883	47.11
748.064	46.84
748.245	47.25
748.426	47.28
748.607	47.04
748.788	46.74
748.97	46.39
749.151	45.69
749.332	45.39
749.513	45.99
749.694	45.39
749.875	45.45
750.056	45.43
750.237	46.08
750.418	45.91
750.599	45.8
750.78	45.64
750.96	45.99
751.141	46.8
751.322	46.74
751.503	46.23
751.684	46.74
751.865	46.38
752.046	46.22
752.226	45.21
752.407	45.55
752.588	46.01
752.769	46.29
752.949	46.14
753.13	45.82
753.311	45.69
753.492	46.19
753.672	46.14
753.853	46.48
754.034	46.69
754.214	46.83
754.395	46.56
754.575	46.49
754.756	46.05
754.937	46.48
755.117	46.38
755.298	46.11
755.478	45.96
755.659	45.92
755.839	46.02
756.02	46.34
756.2	46.43
756.381	46.4
756.561	46.54
756.741	47.55
756.922	47.13
757.102	46.76
757.283	47.19
757.463	46.93
757.643	47.2
757.823	47.14
758.004	46.3
758.184	45.82
758.364	45.62
758.545	44.75
758.725	44.45
758.905	44.58
759.085	44.71
759.265	44.65
759.446	44.13
759.626	43.69
759.806	43.01
759.986	43.39
760.166	43.64
760.346	44.12
760.526	44.35
760.706	43.78
760.886	43.54
761.066	43.56
761.246	43.42
761.426	43.96
761.606	43.84
761.786	43.7
761.966	43.13
762.146	43.04
762.326	42.5
762.506	42.84
762.686	42.91
762.866	42.68
763.046	42.32
763.225	42.11
763.405	41.9
763.585	41.37
763.765	41.93
763.945	41.93
764.124	41.99
764.304	41.89
764.484	41.84
764.664	41.92
764.843	42.19
765.023	42.48
765.203	42.86
765.382	42.78
765.562	43.62
765.741	42.48
765.921	42.91
766.101	42.48
766.28	43.22
766.46	43.39
766.639	42.64
766.819	43.16
766.998	44.01
767.178	44.42
767.357	45.36
767.537	45.6
767.716	46.89
767.896	46.97
768.075	47.6
768.254	47.63
768.434	47.67
768.613	48.88
768.792	48.5
768.972	48.22
769.151	48.34
769.33	48.21
769.51	48.93
769.689	49.44
769.868	50.01
770.047	50.3
770.226	49.87
770.406	49.4
770.585	49.32
770.764	49.63
770.943	49.64
771.122	49.82
771.301	49.85
771.48	49.44
771.66	49.25
771.839	49.32
772.018	49.16
772.197	49.33
772.376	50.21
772.555	49.8
772.734	49.67
772.913	48.39
773.092	47.42
773.271	46.76
773.449	46.69
773.628	46.92
773.807	46.61
773.986	46.22
774.165	46.55
774.344	46.42
774.523	46.12
774.701	46.22
774.88	48
775.059	49.34
775.238	49.78
775.417	49.52
775.595	49.65
775.774	50.16
775.953	50.93
776.131	51.19
776.31	50.41
776.489	50.51
776.667	50.62
776.846	49.42
777.025	48.45
777.203	48.88
777.382	49.55
777.56	48.99
777.739	47.74
777.917	47.23
778.096	47.23
778.274	48.09
778.453	49.02
778.631	49.56
778.81	49.55
778.988	50.17
779.166	49.72
779.345	48.78
779.523	49.67
779.702	50.03
779.88	50.88
780.058	50.42
780.237	50.51
780.415	50.69
780.593	49.83
780.771	50.15
780.95	49.94
781.128	49.96
781.306	50.11
781.484	49.26
781.662	49.71
781.841	49.42
782.019	48.93
782.197	49.34
782.375	49.07
782.553	48.41
782.731	48.7
782.909	47.82
783.087	48
783.265	48.12
783.443	47.58
783.621	46.75
783.799	46.27
783.977	46.56
784.155	45.97
784.333	45.85
784.511	46.39
784.689	45.74
784.867	46.31
785.045	46.84
785.223	46.92
785.4	46.87
785.578	48.11
785.756	48.53
785.934	48.89
786.112	48.31
786.289	47.68
786.467	47.59
786.645	48.53
786.823	48.35
787	47.75
787.178	47.34
787.356	47.82
787.533	48.18
787.711	47.91
787.889	48.78
788.066	49.25
788.244	49.3
788.421	50.18
788.599	48.84
788.776	48.9
788.954	49.05
789.131	49.07
789.309	49.45
789.486	48.57
789.664	48.46
789.841	47.28
790.019	47.7
790.196	47.74
790.373	46.85
790.551	47.91
790.728	48.51
790.906	48
791.083	47.65
791.26	47.36
791.437	47.46
791.615	48.02
791.792	47.75
791.969	48.32
792.146	48.46
792.324	48.82
792.501	48.99
792.678	48.71
792.855	49.63
793.032	50.41
793.209	51.28
793.387	51.49
793.564	51.81
793.741	52.45
793.918	51.29
794.095	51.22
794.272	51.48
794.449	52.49
794.626	52.08
794.803	51.76
794.98	52.01
795.157	49.98
795.334	51.13
795.511	51.18
795.688	50.25
795.864	50.02
796.041	50.95
796.218	50.86
796.395	49.21
796.572	49.84
796.749	48.68
796.925	48.06
797.102	48.67
797.279	48.72
797.456	48.71
797.632	49.74
797.809	49.5
797.986	49.34
798.162	48.01
798.339	48.94
798.516	49.24
798.692	51.01
798.869	51.87
799.046	52.24
799.222	51.74
799.399	51.65
799.575	52.23
799.752	53.58
799.928	53.62
800.105	54.38
800.281	54.31
800.458	53.45
800.634	52.33
800.811	51.65
800.987	52.18
801.163	51.28
801.34	51.32
801.516	50.79
801.692	49.84
801.869	49.63
802.045	50.46
802.221	50.01
802.398	50.07
802.574	50.89
802.75	50.91
802.926	50.57
803.103	50.63
803.279	50.32
803.455	51.94
803.631	52.36
803.807	52.54
803.983	51.99
804.16	51.13
804.336	49.7
804.512	49.66
804.688	49.78
804.864	49.52
805.04	49.53
805.216	49
805.392	47
805.568	46.83
805.744	45.86
805.92	45.75
806.096	47.16
806.272	49.78
806.448	48.95
806.623	48.85
806.799	49.1
806.975	50.01
807.151	50.12
807.327	50.62
807.503	50.32
807.678	50.63
807.854	50.99
808.03	50.55
808.206	49.27
808.381	49.66
808.557	50.21
808.733	50.85
808.908	49.8
809.084	50.44
809.26	49.28
809.435	49.15
809.611	48.45
809.787	47.32
809.962	47.55
810.138	47.72
810.313	47.38
810.489	47.33
810.664	47.18
810.84	46.76
811.015	46.74
811.191	46.77
811.366	47.51
811.542	48.92
811.717	50.46
811.892	51.12
812.068	51.32
812.243	50.9
812.419	51.22
812.594	50.54
812.769	51.28
812.944	49.62
813.12	49.59
813.295	49.62
813.47	48.45
813.645	47.69
813.821	47.09
813.996	46.99
814.171	48.31
814.346	47.37
814.521	47.73
814.697	48.1
814.872	49.12
815.047	50.4
815.222	48.98
815.397	49.78
815.572	50.72
815.747	49.91
815.922	49.53
816.097	49.83
816.272	50.13
816.447	48.93
816.622	48.59
816.797	49.77
816.972	50.07
817.147	50.17
817.322	49.85
817.496	49.94
817.671	50.27
817.846	50.19
818.021	48.72
818.196	48.33
818.371	48.62
818.545	48.89
818.72	48.57
818.895	47.29
819.069	47.31
819.244	47.35
819.419	46.28
819.594	46.17
819.768	46.02
819.943	45.27
820.117	44.49
820.292	44.36
820.467	43.55
820.641	42.36
820.816	41.95
820.99	41.63
821.165	40.68
821.339	40.22
821.514	39.86
821.688	39.71
821.863	39.88
822.037	39.83
822.212	39.84
822.386	39.69
822.56	39.72
822.735	39.7
822.909	39.7
823.084	40.07
823.258	40.08
823.432	40.2
823.606	40.06
823.781	39.68
823.955	39.77
824.129	39.56
824.303	39.55
824.478	39.6
824.652	39.71
824.826	39.5
825	39.19
825.174	39.36
825.348	39.33
825.523	39.87
825.697	40.5
825.871	40.55
826.045	40.9
826.219	41.17
826.393	41.5
826.567	41.61
826.741	41.55
826.915	41.66
827.089	42.02
827.263	42.01
827.437	41.79
827.611	41.61
827.784	41.73
827.958	41.35
828.132	41.23
828.306	41.1
828.48	40.78
828.654	41.3
828.827	41.24
829.001	41.02
829.175	41.25
829.349	41.55
829.522	42.2
829.696	42.63
829.87	43.9
830.044	44.19
830.217	44.32
830.391	45.25
830.565	45.52
830.738	46.82
830.912	47.59
831.085	47.62
831.259	48.69
831.432	48.92
831.606	49.06
831.779	49.2
831.953	49.15
832.126	49.37
832.3	48.45
832.473	47.65
832.647	46.72
832.82	46
832.994	45.33
833.167	44.25
833.34	43.92
833.514	43.1
833.687	41.64
833.86	41.22
834.034	40.73
834.207	40.91
834.38	40.79
834.553	40.07
834.727	39.54
834.9	39.51
835.073	39.67
835.246	39.64
835.419	40.12
835.593	40.75
835.766	41.79
835.939	42.13
836.112	42.34
836.285	43.52
836.458	43.89
836.631	44.46
836.804	45.93
836.977	45.91
837.15	45.88
837.323	46.34
837.496	47.27
837.669	46.41
837.842	46.7
838.015	47.76
838.188	48.17
838.361	49.59
838.533	49.83
838.706	48.27
838.879	49.17
839.052	50.15
839.225	49.98
839.398	48.54
839.57	47.32
839.743	46.17
839.916	45.83
840.088	44.53
840.261	42.94
840.434	44.21
840.607	46.36
840.779	45.87
840.952	45.56
841.124	46.08
841.297	46.44
841.47	48.38
841.642	50.95
841.815	50.62
841.987	51.47
842.16	51.88
842.332	49.99
842.505	49.25
842.677	50
842.85	49.24
843.022	51
843.194	52.89
843.367	54.57
843.539	51.4
843.712	54.21
843.884	55.93
844.056	61.78
844.229	64.19
844.401	63.66
844.573	66.57
844.745	67.55
844.918	65.05
845.09	63.82
845.262	60.53
845.434	62.56
845.606	56.19
845.779	57.27
845.951	55.61
846.123	57.31
846.295	58.68
846.467	55.18
846.639	53.96
846.811	53.51
846.983	55.04
847.155	58.53
847.327	56.54
847.499	62.76
847.671	58.61
847.843	61.85
848.015	58.45
848.187	60.16
848.359	62.93
848.531	64.96
848.703	67.15
848.875	65.22
849.047	61.65
849.218	65.27
849.39	63.65
849.562	64.5
849.734	63.79
849.905	64.54
850.077	61.88
850.249	61.38
850.421	60.93
850.592	58.85
850.764	61.79
850.936	61.87
851.107	57.85
851.279	59.57
851.451	61.85
851.622	58.53
851.794	60.68
851.965	59.94
852.137	61.45
852.308	60.39
852.48	61.86
852.651	60.4
852.823	63.09
852.994	68.33
853.166	65.85
853.337	65.14
853.509	64.8
853.68	61.99
853.851	65.54
854.023	60.29
854.194	61.82
854.365	60.62
854.537	61.86
854.708	63.61
854.879	59.91
855.05	58.95
855.222	59.96
855.393	61.99
855.564	64.15
855.735	55.38
855.906	55.03
856.078	55.31
856.249	56.89
856.42	52.07
856.591	50.31
856.762	53.24
856.933	55.28
857.104	54.14
857.275	52.68
857.446	54.31
857.617	64.32
857.788	66.79
857.959	70.67
858.13	69.05
858.301	71.92
858.472	75.03
858.643	73.93
858.814	72.41
858.985	72.54
859.155	75.03
859.326	72.62
859.497	71.6
859.668	72.71
859.839	66.8
860.009	66.25
860.18	69.76
860.351	70.39
860.522	65.65
860.692	65.57
860.863	64.57
861.034	68.16
861.204	70.01
861.375	66.64
861.546	66.3
861.716	67.49
861.887	68.51
862.057	61.91
862.228	58.18
862.398	60.84
862.569	59.77
862.739	61.31
862.91	57.52
863.08	53.85
863.251	53.56
863.421	53.4
863.592	54.38
863.762	56.89
863.932	58.31
864.103	54.44
864.273	55.9
864.443	57.83
864.614	56.62
864.784	58.58
864.954	57.53
865.125	57.03
865.295	58.13
865.465	57.63
865.635	52.04
865.805	54.12
865.976	55.97
866.146	53.07
866.316	56.69
866.486	59.38
866.656	58.06
866.826	64.31
866.996	66.47
867.166	64.78
867.336	63.3
867.506	65.72
867.676	69.89
867.846	71.65
868.016	76.55
868.186	71.27
868.356	67.69
868.526	65.54
868.696	66.15
868.866	62.25
869.036	60.35
869.206	59.43
869.376	57.28
869.545	50.58
869.715	49.74
869.885	52.82
870.055	59.22
870.224	64.46
870.394	71.75
870.564	70.06
870.734	72.29
870.903	71.78
871.073	66.16
871.243	69.33
871.412	69.63
871.582	70.27
871.751	68.62
871.921	64.57
872.091	58.22
872.26	50.59
872.43	49.75
872.599	50.5
872.769	56.66
872.938	65.74
873.108	67.39
873.277	71.64
873.446	68.15
873.616	61.86
873.785	63.21
873.955	61.1
874.124	63.84
874.293	63.98
874.463	60.55
874.632	58.48
874.801	56.11
874.971	55.36
875.14	54.86
875.309	55.31
875.478	59.17
875.647	58.27
875.817	64.31
875.986	58.24
876.155	59.64
876.324	62.99
876.493	61.83
876.662	58.23
876.831	56.2
877	54.38
877.17	57.89
877.339	58.45
877.508	57.27
877.677	57
877.846	60.76
878.015	57.96
878.184	56.05
878.352	56.32
878.521	61.64
878.69	59.76
878.859	61.06
879.028	58.81
879.197	56.19
879.366	52.4
879.534	49.7
879.703	47.69
879.872	45.92
880.041	45.92
880.21	41.31
880.378	38.86
880.547	37.91
880.716	36.37
880.884	35.05
881.053	34.48
881.222	34.4
881.39	33.74
881.559	32.84
881.727	32.13
881.896	31.67
882.065	31.87
882.233	31.53
882.402	31.66
882.57	31.13
882.739	31.87
882.907	31.65
883.076	31.78
883.244	31.82
883.412	31.93
883.581	32.03
883.749	31.46
883.918	31.72
884.086	32.47
884.254	32.66
884.423	32.49
884.591	32.2
884.759	32.67
884.927	33.25
885.096	33.37
885.264	35.36
885.432	36.96
885.6	39.05
885.769	39.16
885.937	37.97
886.105	38.84
886.273	40.76
886.441	39.68
886.609	38.76
886.777	39.9
886.945	41.14
887.113	40.79
887.281	39.23
887.449	40.31
887.617	43.63
887.785	46.86
887.953	45.82
888.121	46.63
888.289	47.72
888.457	49.33
888.625	47.96
888.793	50.08
888.961	49.03
889.129	51.69
889.296	51.33
889.464	49.97
889.632	46.67
889.8	48.17
889.967	47.06
890.135	47.96
