Data from 2938819__Reflection_02.txt Node
Date: Thu Mar 12 14:42:49 EDT 2015
User: robert
Spectrometer: USB4E03002
Autoset integration time: false
Trigger mode: 4
Integration Time (sec): 1.000000E-1
Scans to average: 10
Electric dark correction enabled: false
Nonlinearity correction enabled: false
Boxcar width: 5
Stray light correction enabled: false
XAxis mode: Wavelengths
Stop averaging: false
Number of Pixels in Spectrum: 3648
>>>>>Begin Spectral Data<<<<<
177.575	-216.79
177.794	-223.67
178.014	-106.02
178.233	-76.4
178.452	-73.59
178.672	-97.29
178.891	-87.68
179.11	-132.6
179.33	-161.84
179.549	-182.45
179.768	-252.86
179.987	-219.06
180.207	-273.72
180.426	-462.62
180.645	-1264.66
180.864	-1643.69
181.084	-4117.07
181.303	1434.68
181.522	16109.09
181.741	-4286.84
181.96	-1099.36
182.179	-2459.42
182.398	-7096
182.618	-5387.5
182.837	4347.5
183.056	1485.22
183.275	678.47
183.494	846.55
183.713	770.42
183.932	499.11
184.151	521.73
184.37	445.93
184.589	525.41
184.808	522.43
185.027	583.19
185.246	569.7
185.465	799.64
185.684	936.59
185.903	507.51
186.122	504.28
186.341	687.96
186.56	493.28
186.779	594.77
186.998	492.13
187.216	384.62
187.435	394.58
187.654	467.21
187.873	385.98
188.092	395.4
188.311	584.73
188.53	499.42
188.748	433.89
188.967	658.93
189.186	362.93
189.405	439.6
189.623	540.38
189.842	548.37
190.061	680.1
190.28	645.97
190.498	512.76
190.717	405.76
190.936	609.59
191.154	548.03
191.373	285.33
191.592	335.57
191.81	261.89
192.029	324.85
192.248	348.02
192.466	275.17
192.685	334.97
192.904	346.83
193.122	510.63
193.341	511.11
193.559	585.2
193.778	1711.83
193.996	-1421.24
194.215	-895.4
194.433	-8758.82
194.652	682.97
194.87	1934.48
195.089	1174.17
195.307	1562.39
195.526	1496.55
195.744	1380.45
195.963	1825.74
196.181	946.7
196.399	758.65
196.618	1472.48
196.836	2878.18
197.055	-1065.93
197.273	2814.58
197.491	2560.34
197.71	4400
197.928	3082.93
198.146	1983.61
198.365	481.78
198.583	500
198.801	349.3
199.019	442.58
199.238	463.16
199.456	301.84
199.674	511.24
199.892	530.05
200.111	623.67
200.329	532.67
200.547	474.13
200.765	-38750
200.983	2273.68
201.202	-5244.44
201.42	6878.57
201.638	1057.55
201.856	9691.67
202.074	-7453.33
202.292	1861.76
202.51	2969.39
202.728	869.89
202.946	1198.61
203.165	618.92
203.383	672.06
203.601	501.76
203.819	363.32
204.037	523.24
204.255	600.37
204.473	669.83
204.691	1632.63
204.909	967.38
205.127	1321
205.345	900.69
205.562	-15200
205.78	961.72
205.998	514.29
206.216	431.1
206.434	253.98
206.652	221.41
206.87	216.39
207.088	174.97
207.306	152.29
207.523	151.41
207.741	147.05
207.959	147.36
208.177	164.54
208.395	195.42
208.612	218.86
208.83	256.36
209.048	326.07
209.266	227.18
209.483	265.42
209.701	297.99
209.919	271.1
210.136	271.07
210.354	273.47
210.572	262.21
210.79	251.15
211.007	228.22
211.225	186.85
211.442	166.35
211.66	190.69
211.878	168.48
212.095	76.52
212.313	73.2
212.53	79.7
212.748	86.52
212.966	86.69
213.183	84.71
213.401	90.68
213.618	110.54
213.836	109.39
214.053	114.38
214.271	108.98
214.488	239.34
214.705	246.86
214.923	225.71
215.14	231.46
215.358	237.79
215.575	215.82
215.793	326.84
216.01	287.63
216.227	349.42
216.445	285.62
216.662	240.44
216.879	203.62
217.097	246.52
217.314	247.91
217.531	218.13
217.749	264.09
217.966	229.1
218.183	201.45
218.4	205.35
218.618	180.89
218.835	170.32
219.052	149.41
219.269	156.57
219.487	146.35
219.704	148.66
219.921	147.52
220.138	116.97
220.355	126.99
220.572	119.26
220.79	114.04
221.007	107.75
221.224	106.75
221.441	116.29
221.658	106.38
221.875	93.2
222.092	82.09
222.309	76.24
222.526	80.3
222.743	73.9
222.96	62.4
223.177	67.18
223.394	66.38
223.611	67.42
223.828	65.64
224.045	65.64
224.262	69.48
224.479	69.77
224.696	69.52
224.913	62.43
225.13	64.29
225.347	63.88
225.564	53.98
225.781	46.3
225.997	44.09
226.214	38.58
226.431	33.78
226.648	29.82
226.865	26.96
227.082	22.64
227.298	20.91
227.515	17.59
227.732	17.19
227.949	16.81
228.165	16.36
228.382	15.46
228.599	14.7
228.816	14.31
229.032	14.31
229.249	13.35
229.466	13.61
229.682	13.64
229.899	13.96
230.116	14.25
230.332	14.2
230.549	15.95
230.765	15.47
230.982	16.28
231.199	16.2
231.415	17.06
231.632	19.87
231.848	20.37
232.065	20.95
232.281	21.03
232.498	21.08
232.714	21.54
232.931	19.9
233.147	19.71
233.364	19.56
233.58	22.13
233.797	20.06
234.013	18.55
234.23	19.33
234.446	18.42
234.662	18.36
234.879	19.25
235.095	19.49
235.312	18.35
235.528	19.91
235.744	19.11
235.961	18.39
236.177	20.36
236.393	21.27
236.61	20.27
236.826	20.54
237.042	21.73
237.258	20.74
237.475	22.89
237.691	24.47
237.907	23.99
238.123	25.01
238.339	23.9
238.556	23.05
238.772	23.06
238.988	23.54
239.204	23.78
239.42	21.85
239.636	21.21
239.853	18.75
240.069	16.89
240.285	15.86
240.501	15.26
240.717	14.55
240.933	13.64
241.149	12.8
241.365	11.5
241.581	10.89
241.797	11.14
242.013	10.73
242.229	9.97
242.445	9.76
242.661	9.89
242.877	9.31
243.093	9.27
243.309	9.71
243.525	9.44
243.741	10.13
243.957	10.9
244.173	10.99
244.388	12.19
244.604	12.76
244.82	13.44
245.036	12.84
245.252	13.35
245.468	12.88
245.683	12.01
245.899	11.65
246.115	11
246.331	10.18
246.547	9.67
246.762	8.95
246.978	8.98
247.194	8.84
247.409	8.69
247.625	8.68
247.841	8.89
248.057	8.88
248.272	8.8
248.488	8.92
248.703	8.96
248.919	9.48
249.135	9.63
249.35	9.79
249.566	9.97
249.782	10.26
249.997	10.29
250.213	10.77
250.428	11.13
250.644	10.98
250.859	10.87
251.075	10.8
251.29	10.33
251.506	10.16
251.721	9.96
251.937	9.81
252.152	10.55
252.368	10.36
252.583	9.58
252.798	9.55
253.014	9.32
253.229	10.18
253.445	10.57
253.66	11.4
253.875	12.45
254.091	13.16
254.306	13.56
254.521	13.15
254.737	13.78
254.952	13.09
255.167	13.13
255.383	13.77
255.598	12.96
255.813	12.65
256.028	12.05
256.244	11.34
256.459	10.66
256.674	9.72
256.889	10.52
257.104	10.28
257.32	10.63
257.535	9.59
257.75	9.21
257.965	8.87
258.18	8.48
258.395	7.46
258.61	6.64
258.826	6.49
259.041	6.43
259.256	6.03
259.471	5.96
259.686	6.03
259.901	6.23
260.116	6.17
260.331	6.09
260.546	6.16
260.761	6.31
260.976	6.63
261.191	6.91
261.406	7.4
261.621	7.54
261.836	7.66
262.05	8.08
262.265	8.4
262.48	8.69
262.695	8.63
262.91	9.15
263.125	9.46
263.34	9.67
263.555	9.2
263.769	9.14
263.984	9.01
264.199	8.76
264.414	8.76
264.629	8.24
264.843	8.02
265.058	8.06
265.273	7.47
265.488	7.8
265.702	7.63
265.917	7.63
266.132	7.47
266.346	7.42
266.561	7.85
266.776	7.59
266.99	7.62
267.205	7.94
267.42	8.43
267.634	8.81
267.849	8.38
268.063	8.54
268.278	9.19
268.492	9.63
268.707	9.67
268.922	9.56
269.136	9.79
269.351	9.69
269.565	9.21
269.78	8.64
269.994	8.35
270.209	8.15
270.423	7.8
270.637	7.43
270.852	7.28
271.066	7.25
271.281	6.78
271.495	6.31
271.709	6.58
271.924	6.77
272.138	6.88
272.353	6.99
272.567	7.46
272.781	7.88
272.996	7.73
273.21	7.37
273.424	7.66
273.638	8.03
273.853	8.14
274.067	7.97
274.281	8.21
274.495	8.28
274.71	8.15
274.924	7.96
275.138	7.44
275.352	7.36
275.566	7.33
275.781	7.26
275.995	7.27
276.209	7.38
276.423	7.72
276.637	7.47
276.851	7.59
277.065	7.58
277.279	7.35
277.493	7.72
277.707	7.85
277.921	7.6
278.135	7.23
278.349	7.2
278.563	7.48
278.777	7.13
278.991	6.77
279.205	6.56
279.419	6.56
279.633	6.86
279.847	6.99
280.061	7.25
280.275	7.33
280.489	7.19
280.703	7.11
280.917	6.89
281.131	6.44
281.344	6.66
281.558	6.84
281.772	6.99
281.986	6.53
282.2	5.92
282.414	5.64
282.627	5.71
282.841	6.02
283.055	6.16
283.269	6.11
283.482	6.53
283.696	6.66
283.91	6.5
284.123	5.98
284.337	6.39
284.551	6.61
284.764	6.7
284.978	6.85
285.192	6.78
285.405	6.45
285.619	6.4
285.833	6.38
286.046	6.07
286.26	5.89
286.473	5.95
286.687	5.78
286.9	6.01
287.114	6.02
287.327	5.83
287.541	5.63
287.754	6.22
287.968	6.46
288.181	6.46
288.395	6.62
288.608	6.78
288.822	7.09
289.035	7.34
289.248	7.04
289.462	7.09
289.675	7.34
289.889	7.51
290.102	6.77
290.315	6.57
290.529	6.54
290.742	6.62
290.955	6.57
291.169	6.39
291.382	6.08
291.595	6.41
291.808	6.33
292.022	6.33
292.235	6.25
292.448	6.68
292.661	6.78
292.875	6.92
293.088	7.18
293.301	7.27
293.514	7.56
293.727	8.05
293.94	7.74
294.153	7.8
294.367	7.95
294.58	8.16
294.793	8.26
295.006	8.14
295.219	8.11
295.432	8.08
295.645	8.03
295.858	8.28
296.071	8.03
296.284	8.38
296.497	8.23
296.71	7.86
296.923	7.88
297.136	8.02
297.349	8.34
297.562	8.42
297.775	8.36
297.988	8.32
298.201	7.96
298.414	8.14
298.626	7.83
298.839	7.92
299.052	8.38
299.265	8.28
299.478	7.67
299.691	7.46
299.903	7.58
300.116	7.88
300.329	8.16
300.542	8.45
300.755	8.51
300.967	9.08
301.18	9.15
301.393	8.77
301.605	8.67
301.818	9.34
302.031	9.46
302.243	9.25
302.456	9.16
302.669	9.1
302.881	9.29
303.094	9.32
303.307	8.86
303.519	9
303.732	9.32
303.944	9.86
304.157	9.72
304.37	9.6
304.582	9.78
304.795	9.6
305.007	10.08
305.22	9.99
305.432	9.81
305.645	10.09
305.857	9.89
306.069	10.15
306.282	9.97
306.494	10.12
306.707	10.23
306.919	10.54
307.132	10.84
307.344	10.72
307.556	10.63
307.769	10.54
307.981	10.43
308.193	10.48
308.406	10.39
308.618	10.35
308.83	10.17
309.043	9.99
309.255	9.73
309.467	9.69
309.679	9.63
309.892	9.5
310.104	9.71
310.316	9.96
310.528	10.27
310.74	10.31
310.953	10.3
311.165	10.37
311.377	10.53
311.589	10.64
311.801	10.88
312.013	10.88
312.225	11.27
312.437	11.23
312.649	10.9
312.862	10.94
313.074	10.82
313.286	10.96
313.498	11.04
313.71	11.26
313.922	11.33
314.134	10.8
314.346	10.48
314.558	10.24
314.77	10.84
314.982	11.01
315.193	11.06
315.405	10.74
315.617	10.55
315.829	10.16
316.041	10.1
316.253	10.21
316.465	10.3
316.677	10.92
316.888	10.78
317.1	10.24
317.312	10.17
317.524	9.93
317.736	10.71
317.947	11.3
318.159	12.08
318.371	12.56
318.583	12.39
318.794	12.9
319.006	12.42
319.218	12.77
319.43	12.73
319.641	13
319.853	13.21
320.064	12.6
320.276	12.18
320.488	11.96
320.699	11.69
320.911	11.71
321.123	11.49
321.334	12
321.546	12.15
321.757	12.14
321.969	12.07
322.18	11.93
322.392	12.17
322.603	12.18
322.815	12.45
323.026	12.69
323.238	12.83
323.449	13.13
323.661	12.76
323.872	12.36
324.083	12.65
324.295	12.73
324.506	12.65
324.718	12.88
324.929	13.06
325.14	12.56
325.352	12.24
325.563	12.19
325.774	12.1
325.986	12.3
326.197	12.66
326.408	12.61
326.62	12.82
326.831	12.77
327.042	12.61
327.253	12.62
327.464	12.93
327.676	13.18
327.887	13.52
328.098	13.24
328.309	13.52
328.52	13.66
328.732	13.88
328.943	13.75
329.154	14.49
329.365	14.57
329.576	14.36
329.787	14.5
329.998	14.41
330.209	14.31
330.42	14.92
330.631	15.14
330.842	14.91
331.053	14.82
331.264	14.68
331.475	14.42
331.686	14.58
331.897	14.64
332.108	14.73
332.319	14.62
332.53	14.6
332.741	14.49
332.952	14.19
333.163	14.12
333.374	14.24
333.585	14.27
333.795	14.26
334.006	14.2
334.217	14.51
334.428	14.57
334.639	14.53
334.849	14.13
335.06	14.17
335.271	14.17
335.482	14.2
335.692	14.13
335.903	14.45
336.114	14.19
336.325	14.27
336.535	14.3
336.746	14.09
336.957	14.44
337.167	14.51
337.378	14.35
337.589	14.26
337.799	14.34
338.01	14.12
338.22	14.25
338.431	14.77
338.642	14.85
338.852	14.86
339.063	14.58
339.273	14.33
339.484	14.86
339.694	14.62
339.905	14.71
340.115	14.47
340.326	14.56
340.536	14.26
340.746	13.56
340.957	13.27
341.167	13.15
341.378	13.45
341.588	13.49
341.799	13.27
342.009	13.28
342.219	13.28
342.43	13.29
342.64	13.29
342.85	13.05
343.061	13.09
343.271	13.08
343.481	12.76
343.691	12.45
343.902	12.62
344.112	12.38
344.322	12.57
344.532	12.35
344.743	12.57
344.953	12.44
345.163	12.49
345.373	12.45
345.583	12.52
345.793	12.8
346.004	13.08
346.214	12.73
346.424	12.89
346.634	12.89
346.844	13.05
347.054	13.08
347.264	12.98
347.474	12.82
347.684	12.99
347.894	12.66
348.104	12.28
348.314	12.29
348.524	12.54
348.734	12.62
348.944	12.35
349.154	12.28
349.364	12.04
349.574	12.12
349.784	12.61
349.994	12.66
350.204	12.77
350.413	12.91
350.623	12.75
350.833	12.58
351.043	12.58
351.253	12.75
351.463	12.9
351.672	13.07
351.882	13.15
352.092	12.8
352.302	12.65
352.511	12.58
352.721	12.61
352.931	12.72
353.141	12.71
353.35	12.35
353.56	12.48
353.77	12.19
353.979	11.98
354.189	12.12
354.399	12.27
354.608	12.44
354.818	12.7
355.027	12.57
355.237	12.55
355.447	12.61
355.656	12.5
355.866	12.14
356.075	12.11
356.285	12.14
356.494	11.78
356.704	11.78
356.913	11.67
357.123	11.65
357.332	11.74
357.542	11.79
357.751	11.77
357.96	11.64
358.17	11.53
358.379	11.74
358.589	11.71
358.798	11.79
359.007	11.62
359.217	11.54
359.426	11.35
359.635	11.24
359.845	10.86
360.054	10.71
360.263	10.77
360.472	10.97
360.682	10.73
360.891	10.67
361.1	10.51
361.309	10.36
361.519	10.23
361.728	10.12
361.937	10.23
362.146	10.32
362.355	10.32
362.564	10.47
362.774	10.41
362.983	10.39
363.192	10.38
363.401	10.47
363.61	10.64
363.819	10.64
364.028	10.92
364.237	10.76
364.446	10.75
364.655	10.63
364.864	10.61
365.073	10.71
365.282	10.6
365.491	10.55
365.7	10.65
365.909	10.75
366.118	10.76
366.327	10.53
366.536	10.52
366.745	10.67
366.954	10.93
367.162	10.75
367.371	10.68
367.58	10.9
367.789	10.92
367.998	10.75
368.207	10.7
368.415	10.82
368.624	11.11
368.833	11.21
369.042	10.98
369.25	10.8
369.459	10.98
369.668	10.91
369.877	10.94
370.085	11.02
370.294	11.06
370.503	10.66
370.711	10.57
370.92	10.04
371.129	10.23
371.337	10.12
371.546	10.15
371.754	10.01
371.963	9.87
372.171	9.78
372.38	9.76
372.589	9.63
372.797	9.76
373.006	9.78
373.214	10.03
373.423	9.52
373.631	9.93
373.84	9.72
374.048	9.65
374.256	9.58
374.465	9.44
374.673	9.37
374.882	9.47
375.09	9.22
375.298	9.3
375.507	9.43
375.715	9.56
375.923	9.32
376.132	9.34
376.34	9.43
376.548	9.36
376.757	9.35
376.965	9.05
377.173	8.97
377.381	9.03
377.59	8.8
377.798	8.57
378.006	8.24
378.214	8.14
378.423	8.23
378.631	8.14
378.839	8.14
379.047	8.16
379.255	8.48
379.463	8.61
379.671	8.56
379.879	8.49
380.088	8.41
380.296	8.55
380.504	8.65
380.712	8.75
380.92	8.63
381.128	8.83
381.336	8.73
381.544	8.47
381.752	8.57
381.96	8.37
382.168	8.47
382.376	8.55
382.584	8.55
382.791	8.34
382.999	8.08
383.207	8.06
383.415	8.04
383.623	8
383.831	8.09
384.039	7.74
384.247	8.03
384.454	7.85
384.662	7.87
384.87	7.78
385.078	7.75
385.285	7.74
385.493	7.78
385.701	7.59
385.909	7.48
386.116	7.44
386.324	7.49
386.532	7.42
386.739	7.73
386.947	7.63
387.155	7.53
387.362	7.66
387.57	7.54
387.778	7.55
387.985	7.37
388.193	7.58
388.4	7.55
388.608	7.58
388.816	7.63
389.023	7.29
389.231	7.11
389.438	7.27
389.646	7.17
389.853	7.26
390.061	7.09
390.268	7.17
390.475	7.02
390.683	6.9
390.89	6.73
391.098	6.71
391.305	6.54
391.512	6.72
391.72	6.6
391.927	6.54
392.135	6.36
392.342	6.3
392.549	6.39
392.756	6.36
392.964	6.66
393.171	6.78
393.378	6.65
393.586	6.87
393.793	6.78
394	6.86
394.207	6.85
394.414	6.9
394.622	7.14
394.829	6.99
395.036	6.83
395.243	6.73
395.45	6.55
395.657	6.63
395.864	6.66
396.072	6.66
396.279	6.68
396.486	6.65
396.693	6.78
396.9	6.59
397.107	6.53
397.314	6.61
397.521	6.54
397.728	6.82
397.935	6.76
398.142	6.69
398.349	6.62
398.556	6.61
398.763	6.7
398.97	6.72
399.177	6.74
399.383	6.88
399.59	6.87
399.797	6.76
400.004	6.63
400.211	6.58
400.418	6.51
400.625	6.53
400.831	6.44
401.038	6.35
401.245	6.06
401.452	5.95
401.658	5.75
401.865	5.85
402.072	5.87
402.279	5.71
402.485	5.74
402.692	5.74
402.899	5.77
403.105	5.87
403.312	5.86
403.519	5.85
403.725	5.84
403.932	5.87
404.138	5.79
404.345	5.83
404.552	5.84
404.758	5.81
404.965	5.8
405.171	5.66
405.378	5.54
405.584	5.51
405.791	5.63
405.997	5.49
406.204	5.5
406.41	5.57
406.617	5.61
406.823	5.65
407.029	5.67
407.236	5.64
407.442	5.86
407.649	5.91
407.855	5.93
408.061	5.92
408.268	6.15
408.474	6.19
408.68	6.11
408.887	5.89
409.093	5.99
409.299	5.84
409.505	5.95
409.712	5.9
409.918	5.81
410.124	5.76
410.33	5.79
410.537	5.7
410.743	5.79
410.949	5.81
411.155	5.99
411.361	5.93
411.567	6.04
411.773	6.03
411.98	5.97
412.186	6.03
412.392	5.97
412.598	5.8
412.804	6.03
413.01	5.9
413.216	5.93
413.422	5.6
413.628	5.68
413.834	5.67
414.04	5.66
414.246	5.78
414.452	5.93
414.658	5.81
414.864	5.85
415.07	5.83
415.275	5.86
415.481	5.73
415.687	5.8
415.893	5.67
416.099	5.57
416.305	5.5
416.511	5.42
416.716	5.19
416.922	5.25
417.128	5.32
417.334	5.19
417.539	5.14
417.745	5.13
417.951	5.08
418.157	5.09
418.362	5.06
418.568	5.07
418.774	4.99
418.979	4.94
419.185	4.89
419.391	4.79
419.596	4.74
419.802	4.74
420.008	4.71
420.213	4.84
420.419	4.83
420.624	4.83
420.83	4.75
421.035	4.82
421.241	4.85
421.446	4.95
421.652	4.95
421.857	4.99
422.063	5.02
422.268	5.09
422.474	4.98
422.679	4.96
422.885	4.97
423.09	4.97
423.295	4.87
423.501	4.88
423.706	4.82
423.911	4.75
424.117	4.66
424.322	4.63
424.527	4.62
424.733	4.65
424.938	4.62
425.143	4.58
425.349	4.65
425.554	4.68
425.759	4.72
425.964	4.73
426.169	4.86
426.375	4.98
426.58	4.96
426.785	4.92
426.99	4.95
427.195	5.02
427.4	5.05
427.605	5.02
427.811	5.03
428.016	4.99
428.221	5.03
428.426	5.02
428.631	4.99
428.836	5.03
429.041	5.1
429.246	5.06
429.451	5.08
429.656	5.08
429.861	5.11
430.066	5.2
430.271	5.21
430.476	5.24
430.681	5.22
430.886	5.33
431.09	5.3
431.295	5.21
431.5	5.23
431.705	5.17
431.91	5.12
432.115	5.06
432.32	4.97
432.524	4.93
432.729	4.91
432.934	4.82
433.139	4.75
433.343	4.89
433.548	4.86
433.753	4.79
433.958	4.8
434.162	5.01
434.367	5.08
434.572	5.11
434.776	5.27
434.981	5.21
435.186	5.32
435.39	5.28
435.595	5.18
435.799	5.19
436.004	5.25
436.209	5.26
436.413	5.08
436.618	5.04
436.822	5.08
437.027	4.95
437.231	5.01
437.436	4.92
437.64	4.89
437.845	4.89
438.049	4.92
438.253	4.89
438.458	4.94
438.662	4.92
438.867	4.92
439.071	4.82
439.275	4.79
439.48	4.74
439.684	4.8
439.888	4.86
440.093	4.83
440.297	4.84
440.501	4.87
440.706	4.83
440.91	4.8
441.114	4.78
441.318	4.77
441.523	4.86
441.727	4.95
441.931	5
442.135	4.94
442.339	4.97
442.543	4.99
442.748	4.91
442.952	4.97
443.156	5.14
443.36	5.13
443.564	5.2
443.768	5.06
443.972	5.02
444.176	4.95
444.38	5.01
444.584	5.01
444.788	5.02
444.992	5.15
445.196	5.03
445.4	4.93
445.604	4.93
445.808	4.92
446.012	4.91
446.216	4.82
446.42	4.85
446.624	4.77
446.828	4.78
447.032	4.75
447.235	4.67
447.439	4.7
447.643	4.68
447.847	4.61
448.051	4.56
448.254	4.64
448.458	4.75
448.662	4.76
448.866	4.78
449.069	4.69
449.273	4.66
449.477	4.66
449.681	4.69
449.884	4.74
450.088	4.82
450.292	4.91
450.495	4.81
450.699	4.87
450.902	4.8
451.106	4.82
451.31	4.85
451.513	4.9
451.717	4.9
451.92	4.89
452.124	4.9
452.327	4.92
452.531	4.92
452.734	4.89
452.938	4.78
453.141	4.76
453.345	4.87
453.548	4.96
453.752	5.02
453.955	5.08
454.158	5.06
454.362	5.19
454.565	5.19
454.769	5.21
454.972	5.3
455.175	5.38
455.379	5.39
455.582	5.28
455.785	5.28
455.988	5.29
456.192	5.17
456.395	5.16
456.598	5.08
456.801	5.08
457.005	5
457.208	5.02
457.411	4.92
457.614	4.82
457.817	4.85
458.021	4.75
458.224	4.69
458.427	4.79
458.63	4.87
458.833	4.8
459.036	4.7
459.239	4.73
459.442	4.71
459.645	4.69
459.848	4.68
460.051	4.7
460.254	4.69
460.457	4.65
460.66	4.6
460.863	4.54
461.066	4.63
461.269	4.67
461.472	4.71
461.675	4.71
461.878	4.67
462.081	4.79
462.284	4.78
462.486	4.81
462.689	4.74
462.892	4.71
463.095	4.78
463.298	4.78
463.5	4.85
463.703	4.83
463.906	4.9
464.109	5.12
464.311	5.18
464.514	5.22
464.717	5.33
464.92	5.45
465.122	5.5
465.325	5.36
465.528	5.42
465.73	5.39
465.933	5.27
466.135	5.18
466.338	5.09
466.541	5.04
466.743	4.89
466.946	4.81
467.148	4.87
467.351	4.88
467.553	5.08
467.756	4.98
467.958	4.91
468.161	5
468.363	5.04
468.566	5.02
468.768	5.01
468.971	5.15
469.173	5.11
469.375	5.04
469.578	4.99
469.78	4.83
469.983	4.85
470.185	4.98
470.387	5.08
470.59	5.07
470.792	4.92
470.994	4.93
471.196	4.87
471.399	5
471.601	5.04
471.803	5.02
472.005	5.03
472.208	5.04
472.41	4.97
472.612	4.87
472.814	4.73
473.016	4.84
473.218	4.91
473.421	4.94
473.623	4.93
473.825	4.82
474.027	4.9
474.229	4.94
474.431	4.92
474.633	4.99
474.835	5.01
475.037	5.13
475.239	5.25
475.441	5.2
475.643	5.15
475.845	5.06
476.047	5.15
476.249	5.04
476.451	5.1
476.653	5.03
476.855	5.01
477.057	4.91
477.258	4.82
477.46	4.73
477.662	4.67
477.864	4.72
478.066	4.74
478.268	4.71
478.469	4.73
478.671	4.64
478.873	4.65
479.075	4.65
479.276	4.66
479.478	4.73
479.68	4.79
479.882	4.84
480.083	4.86
480.285	4.91
480.487	4.89
480.688	4.9
480.89	4.95
481.091	4.89
481.293	4.93
481.495	4.93
481.696	4.89
481.898	4.78
482.099	4.73
482.301	4.61
482.502	4.52
482.704	4.45
482.905	4.43
483.107	4.38
483.308	4.36
483.51	4.31
483.711	4.27
483.913	4.27
484.114	4.25
484.315	4.25
484.517	4.28
484.718	4.32
484.92	4.35
485.121	4.35
485.322	4.33
485.524	4.32
485.725	4.37
485.926	4.4
486.127	4.38
486.329	4.41
486.53	4.42
486.731	4.41
486.932	4.41
487.134	4.43
487.335	4.46
487.536	4.53
487.737	4.55
487.938	4.5
488.139	4.51
488.341	4.58
488.542	4.62
488.743	4.57
488.944	4.6
489.145	4.56
489.346	4.58
489.547	4.63
489.748	4.6
489.949	4.62
490.15	4.66
490.351	4.64
490.552	4.59
490.753	4.55
490.954	4.56
491.155	4.55
491.356	4.61
491.557	4.61
491.758	4.57
491.959	4.59
492.159	4.62
492.36	4.62
492.561	4.68
492.762	4.75
492.963	4.82
493.164	4.87
493.364	4.94
493.565	4.95
493.766	4.99
493.967	5
494.167	5.05
494.368	5.1
494.569	5.18
494.769	5.2
494.97	5.15
495.171	5.16
495.371	5.22
495.572	5.28
495.773	5.32
495.973	5.35
496.174	5.44
496.375	5.41
496.575	5.34
496.776	5.36
496.976	5.34
497.177	5.34
497.377	5.41
497.578	5.41
497.778	5.41
497.979	5.48
498.179	5.45
498.38	5.3
498.58	5.41
498.78	5.53
498.981	5.45
499.181	5.51
499.382	5.62
499.582	5.62
499.782	5.63
499.983	5.65
500.183	5.63
500.383	5.66
500.584	5.77
500.784	5.65
500.984	5.75
501.184	5.91
501.385	5.96
501.585	5.94
501.785	5.86
501.985	5.9
502.185	5.93
502.386	5.98
502.586	6.08
502.786	6.1
502.986	6.26
503.186	6.2
503.386	6.17
503.586	6.24
503.786	6.31
503.987	6.43
504.187	6.44
504.387	6.43
504.587	6.43
504.787	6.47
504.987	6.6
505.187	6.59
505.387	6.62
505.587	6.64
505.786	6.64
505.986	6.62
506.186	6.62
506.386	6.73
506.586	6.78
506.786	6.85
506.986	6.92
507.186	6.88
507.386	7.03
507.585	7.1
507.785	7.16
507.985	7.18
508.185	7.31
508.384	7.32
508.584	7.33
508.784	7.4
508.984	7.37
509.183	7.36
509.383	7.43
509.583	7.41
509.782	7.46
509.982	7.48
510.182	7.56
510.381	7.55
510.581	7.65
510.781	7.7
510.98	7.79
511.18	7.93
511.379	8.03
511.579	8.09
511.778	8.17
511.978	8.31
512.177	8.49
512.377	8.54
512.576	8.65
512.776	8.63
512.975	8.76
513.175	8.83
513.374	8.82
513.573	8.88
513.773	8.96
513.972	9.01
514.172	8.94
514.371	8.95
514.57	9.02
514.77	9.01
514.969	9.13
515.168	9.22
515.367	9.18
515.567	9.33
515.766	9.44
515.965	9.54
516.164	9.69
516.364	9.85
516.563	9.94
516.762	10.06
516.961	10.21
517.16	10.29
517.359	10.34
517.559	10.48
517.758	10.55
517.957	10.59
518.156	10.64
518.355	10.68
518.554	10.77
518.753	10.79
518.952	10.79
519.151	10.86
519.35	10.95
519.549	11.02
519.748	11.14
519.947	11.15
520.146	11.22
520.345	11.28
520.544	11.36
520.743	11.42
520.942	11.47
521.141	11.68
521.339	11.77
521.538	11.86
521.737	11.92
521.936	12.05
522.135	12.28
522.333	12.46
522.532	12.53
522.731	12.62
522.93	12.67
523.129	12.84
523.327	12.86
523.526	13.02
523.725	13.17
523.923	13.33
524.122	13.33
524.321	13.38
524.519	13.39
524.718	13.51
524.917	13.6
525.115	13.72
525.314	13.85
525.512	13.93
525.711	13.99
525.909	14.01
526.108	14.06
526.306	14.12
526.505	14.15
526.703	14.22
526.902	14.33
527.1	14.35
527.299	14.43
527.497	14.44
527.696	14.45
527.894	14.47
528.092	14.57
528.291	14.58
528.489	14.63
528.688	14.69
528.886	14.73
529.084	14.74
529.283	14.85
529.481	14.87
529.679	14.94
529.877	15.05
530.076	15.14
530.274	15.23
530.472	15.33
530.67	15.43
530.869	15.55
531.067	15.68
531.265	15.78
531.463	15.85
531.661	15.97
531.859	16.05
532.057	16.08
532.255	16.16
532.454	16.12
532.652	16.17
532.85	16.22
533.048	16.27
533.246	16.34
533.444	16.43
533.642	16.47
533.84	16.5
534.038	16.56
534.236	16.63
534.434	16.7
534.632	16.84
534.83	16.96
535.027	17.04
535.225	17.13
535.423	17.16
535.621	17.25
535.819	17.31
536.017	17.38
536.215	17.42
536.412	17.59
536.61	17.63
536.808	17.64
537.006	17.71
537.203	17.77
537.401	17.82
537.599	17.94
537.797	18.01
537.994	18.08
538.192	18.21
538.39	18.34
538.587	18.31
538.785	18.44
538.983	18.63
539.18	18.62
539.378	18.76
539.575	18.81
539.773	18.85
539.97	18.89
540.168	19
540.366	19.01
540.563	19.07
540.761	19.17
540.958	19.18
541.155	19.21
541.353	19.27
541.55	19.28
541.748	19.33
541.945	19.37
542.143	19.43
542.34	19.45
542.537	19.48
542.735	19.52
542.932	19.49
543.129	19.54
543.327	19.67
543.524	19.75
543.721	19.86
543.919	20.01
544.116	20.2
544.313	20.41
544.51	20.49
544.708	20.72
544.905	20.9
545.102	21.16
545.299	21.33
545.496	21.32
545.693	21.44
545.891	21.49
546.088	21.48
546.285	21.44
546.482	21.36
546.679	21.42
546.876	21.37
547.073	21.4
547.27	21.35
547.467	21.39
547.664	21.45
547.861	21.48
548.058	21.52
548.255	21.61
548.452	21.67
548.649	21.66
548.846	21.82
549.043	21.83
549.24	21.75
549.437	21.77
549.633	21.7
549.83	21.71
550.027	21.77
550.224	21.79
550.421	21.66
550.618	21.69
550.814	21.85
551.011	21.88
551.208	21.97
551.405	22.06
551.601	22.16
551.798	22.25
551.995	22.34
552.191	22.44
552.388	22.41
552.585	22.6
552.781	22.54
552.978	22.46
553.175	22.42
553.371	22.45
553.568	22.46
553.764	22.53
553.961	22.49
554.157	22.51
554.354	22.42
554.55	22.58
554.747	22.66
554.943	22.86
555.14	22.99
555.336	22.99
555.533	23.02
555.729	23.16
555.926	23.16
556.122	23.22
556.318	23.12
556.515	23.16
556.711	23.03
556.907	22.89
557.104	22.86
557.3	22.83
557.496	22.84
557.693	22.8
557.889	22.73
558.085	22.78
558.281	22.93
558.478	23.09
558.674	23.13
558.87	23.29
559.066	23.45
559.262	23.41
559.459	23.48
559.655	23.58
559.851	23.7
560.047	23.78
560.243	23.83
560.439	23.75
560.635	23.82
560.831	23.91
561.027	23.92
561.223	23.92
561.419	23.98
561.615	24.03
561.811	24.1
562.007	24.12
562.203	24.12
562.399	24.16
562.595	24.34
562.791	24.25
562.987	24.25
563.183	24.21
563.379	24.38
563.575	24.52
563.771	24.55
563.966	24.46
564.162	24.56
564.358	24.64
564.554	24.54
564.75	24.51
564.945	24.68
565.141	24.66
565.337	24.76
565.533	24.7
565.728	24.61
565.924	24.72
566.12	24.76
566.315	24.77
566.511	24.78
566.707	24.77
566.902	24.78
567.098	24.8
567.293	24.8
567.489	24.78
567.684	24.85
567.88	24.88
568.076	24.86
568.271	24.86
568.467	24.76
568.662	24.83
568.858	25.04
569.053	25.1
569.248	25.1
569.444	25.18
569.639	25.2
569.835	25.17
570.03	25.19
570.225	25.22
570.421	25.26
570.616	25.32
570.812	25.29
571.007	25.2
571.202	25.15
571.397	25.06
571.593	25.11
571.788	25.18
571.983	25.29
572.178	25.38
572.374	25.32
572.569	25.46
572.764	25.45
572.959	25.47
573.154	25.5
573.35	25.51
573.545	25.69
573.74	25.72
573.935	25.73
574.13	25.66
574.325	25.72
574.52	25.85
574.715	25.75
574.91	25.79
575.105	25.85
575.3	25.87
575.495	25.97
575.69	26.07
575.885	26.18
576.08	26.14
576.275	26.33
576.47	26.41
576.665	26.48
576.86	26.56
577.055	26.73
577.25	26.68
577.444	26.81
577.639	26.88
577.834	26.82
578.029	26.87
578.224	27.11
578.418	27.05
578.613	27.09
578.808	27.12
579.003	27.19
579.197	27.12
579.392	27.28
579.587	27.3
579.781	27.19
579.976	27.2
580.171	27.2
580.365	27.27
580.56	27.28
580.755	27.27
580.949	27.27
581.144	27.47
581.338	27.66
581.533	27.71
581.727	27.86
581.922	28.1
582.116	28.13
582.311	28.06
582.505	27.96
582.7	27.95
582.894	27.98
583.089	28.07
583.283	28.01
583.478	27.95
583.672	27.98
583.866	27.97
584.061	27.86
584.255	28.08
584.449	28.15
584.644	28.18
584.838	28.13
585.032	28.22
585.226	28.09
585.421	28.08
585.615	28.1
585.809	28.25
586.003	28.3
586.198	28.3
586.392	28.23
586.586	28.36
586.78	28.37
586.974	28.55
587.168	28.42
587.363	28.44
587.557	28.39
587.751	28.39
587.945	28.2
588.139	28.03
588.333	27.98
588.527	27.87
588.721	27.75
588.915	27.74
589.109	27.59
589.303	27.78
589.497	27.79
589.691	27.8
589.885	27.78
590.079	27.84
590.273	27.9
590.466	28.04
590.66	28.04
590.854	28.12
591.048	28.19
591.242	28.37
591.436	28.45
591.629	28.54
591.823	28.64
592.017	28.73
592.211	28.79
592.404	28.83
592.598	28.76
592.792	28.89
592.986	28.88
593.179	28.89
593.373	28.87
593.567	28.66
593.76	28.67
593.954	28.62
594.147	28.58
594.341	28.44
594.535	28.25
594.728	28.26
594.922	28.09
595.115	28.04
595.309	27.93
595.502	27.82
595.696	27.91
595.889	27.84
596.083	27.86
596.276	27.92
596.47	28.11
596.663	28.21
596.856	28.2
597.05	28.26
597.243	28.31
597.437	28.44
597.63	28.54
597.823	28.49
598.017	28.61
598.21	28.62
598.403	28.63
598.596	28.59
598.79	28.69
598.983	28.81
599.176	28.88
599.369	28.91
599.563	28.95
599.756	28.95
599.949	29.14
600.142	29.06
600.335	29.11
600.528	29.01
600.722	28.81
600.915	28.86
601.108	28.85
601.301	28.84
601.494	28.75
601.687	28.72
601.88	28.66
602.073	28.5
602.266	28.45
602.459	28.41
602.652	28.4
602.845	28.49
603.038	28.46
603.231	28.45
603.424	28.41
603.617	28.32
603.809	28.31
604.002	28.33
604.195	28.35
604.388	28.45
604.581	28.44
604.774	28.49
604.966	28.52
605.159	28.63
605.352	28.69
605.545	28.87
605.737	29.07
605.93	29.14
606.123	29.26
606.316	29.3
606.508	29.4
606.701	29.53
606.894	29.56
607.086	29.53
607.279	29.55
607.471	29.57
607.664	29.46
607.857	29.71
608.049	29.82
608.242	30
608.434	30.21
608.627	30.46
608.819	30.65
609.012	31.06
609.204	31.58
609.397	31.97
609.589	32.47
609.782	33.1
609.974	33.58
610.166	34.12
610.359	34.66
610.551	35.23
610.743	35.65
610.936	36.21
611.128	36.51
611.32	36.75
611.513	36.96
611.705	37.02
611.897	36.75
612.09	36.34
612.282	36.17
612.474	35.92
612.666	35.57
612.858	35.3
613.051	35.04
613.243	34.71
613.435	34.56
613.627	34.18
613.819	33.92
614.011	34.05
614.203	34.1
614.395	33.81
614.588	33.47
614.78	33.03
614.972	32.53
615.164	32.22
615.356	32.09
615.548	31.6
615.74	31.46
615.932	31.13
616.124	30.76
616.315	30.52
616.507	30.19
616.699	29.97
616.891	30.1
617.083	30.25
617.275	30.13
617.467	30.02
617.659	30.09
617.85	30.12
618.042	30.38
618.234	30.51
618.426	30.57
618.618	30.66
618.809	30.86
619.001	30.8
619.193	30.91
619.384	30.81
619.576	30.94
619.768	30.87
619.959	31.01
620.151	30.96
620.343	30.92
620.534	30.77
620.726	30.77
620.917	30.76
621.109	30.72
621.301	30.63
621.492	30.63
621.684	30.43
621.875	30.43
622.067	30.25
622.258	30.04
622.45	30.01
622.641	30.11
622.832	30.23
623.024	30.28
623.215	30.49
623.407	30.5
623.598	30.88
623.789	30.95
623.981	30.82
624.172	30.78
624.363	30.66
624.555	30.84
624.746	30.62
624.937	30.49
625.129	30.28
625.32	30.23
625.511	30.16
625.702	29.75
625.893	29.75
626.085	29.85
626.276	30.06
626.467	30.29
626.658	30.17
626.849	30.2
627.04	30.18
627.231	30.22
627.422	30.22
627.614	30.23
627.805	30.44
627.996	30.47
628.187	30.56
628.378	30.37
628.569	30.34
628.76	30.42
628.951	30.6
629.142	30.75
629.332	30.88
629.523	30.92
629.714	31.24
629.905	31.36
630.096	31.36
630.287	31.39
630.478	31.56
630.669	31.64
630.859	31.6
631.05	31.44
631.241	31.53
631.432	31.42
631.623	31.28
631.813	30.86
632.004	30.69
632.195	30.59
632.385	30.61
632.576	30.33
632.767	30.22
632.957	30.04
633.148	30.07
633.339	29.86
633.529	29.89
633.72	29.98
633.91	29.93
634.101	29.87
634.292	30.03
634.482	29.86
634.673	29.88
634.863	30.04
635.054	30.28
635.244	30.4
635.435	30.49
635.625	30.72
635.815	30.45
636.006	30.62
636.196	30.52
636.387	30.37
636.577	30.4
636.767	30.66
636.958	30.47
637.148	30.26
637.338	30.42
637.529	30.51
637.719	30.41
637.909	30.69
638.099	30.78
638.29	30.84
638.48	30.78
638.67	30.94
638.86	30.88
639.05	30.95
639.241	31.12
639.431	30.85
639.621	30.91
639.811	30.89
640.001	30.7
640.191	30.49
640.381	30.48
640.571	30.56
640.761	30.47
640.951	30.67
641.141	30.56
641.331	30.32
641.521	30.3
641.711	30.35
641.901	30.41
642.091	30.56
642.281	30.72
642.471	30.86
642.661	30.94
642.851	31.05
643.041	30.69
643.231	30.75
643.42	30.99
643.61	31.11
643.8	30.97
643.99	30.98
644.18	30.94
644.369	31.05
644.559	31.06
644.749	31.11
644.939	31.08
645.128	31.11
645.318	31.09
645.508	30.86
645.697	30.59
645.887	30.69
646.076	30.77
646.266	30.82
646.456	30.73
646.645	30.71
646.835	30.53
647.024	30.35
647.214	30.4
647.403	30.54
647.593	30.75
647.782	31.04
647.972	30.79
648.161	30.6
648.351	30.51
648.54	30.6
648.73	30.46
648.919	30.61
649.108	30.57
649.298	30.58
649.487	30.52
649.677	30.41
649.866	30.54
650.055	30.64
650.244	30.65
650.434	30.87
650.623	30.89
650.812	31.15
651.002	31.2
651.191	31.57
651.38	31.57
651.569	31.52
651.758	31.48
651.947	31.15
652.137	31.18
652.326	31.05
652.515	30.9
652.704	30.89
652.893	30.65
653.082	30.64
653.271	30.55
653.46	30.51
653.649	30.69
653.838	30.92
654.027	31.25
654.216	31.13
654.405	31.31
654.594	31.25
654.783	30.95
654.972	31.08
655.161	31.06
655.35	30.89
655.539	30.93
655.728	30.77
655.916	30.6
656.105	30.36
656.294	30.27
656.483	30.16
656.672	30.23
656.86	30.33
657.049	30.29
657.238	30.13
657.427	30.13
657.615	29.97
657.804	29.96
657.993	29.57
658.181	29.61
658.37	29.81
658.559	29.88
658.747	29.93
658.936	29.85
659.125	29.8
659.313	29.88
659.502	29.84
659.69	29.74
659.879	29.73
660.067	30.16
660.256	30.16
660.444	30.12
660.633	30.06
660.821	30
661.01	30.23
661.198	30.28
661.387	30.35
661.575	30.5
661.763	30.74
661.952	31
662.14	30.98
662.328	31.06
662.517	31.28
662.705	31.43
662.893	31.57
663.082	31.48
663.27	31.67
663.458	31.5
663.646	31.48
663.834	31.64
664.023	31.4
664.211	31.35
664.399	31.25
664.587	31.17
664.775	31.03
664.963	31.03
665.152	31.33
665.34	31.25
665.528	31.46
665.716	31.34
665.904	31.17
666.092	31.36
666.28	31.43
666.468	31.38
666.656	31.32
666.844	31.63
667.032	31.57
667.22	31.42
667.408	31.47
667.596	31.48
667.784	31.52
667.971	31.57
668.159	31.36
668.347	31.13
668.535	31.46
668.723	31.33
668.911	31.07
669.098	31.22
669.286	31.17
669.474	31.1
669.662	31
669.849	31.12
670.037	31.21
670.225	31.29
670.413	31.62
670.6	31.75
670.788	31.89
670.976	31.87
671.163	31.75
671.351	31.68
671.538	31.71
671.726	31.79
671.913	31.72
672.101	31.5
672.289	31.46
672.476	31.24
672.664	30.79
672.851	30.77
673.039	30.74
673.226	30.67
673.413	30.72
673.601	30.64
673.788	30.47
673.976	30.53
674.163	30.83
674.35	30.78
674.538	30.74
674.725	30.83
674.912	30.92
675.1	30.95
675.287	31.04
675.474	31.26
675.662	31.36
675.849	31.48
676.036	31.34
676.223	31.38
676.411	31.22
676.598	31.46
676.785	31.62
676.972	31.45
677.159	31.74
677.346	31.76
677.533	31.51
677.721	31.69
677.908	31.52
678.095	31.25
678.282	30.95
678.469	31.35
678.656	31.26
678.843	30.93
679.03	30.91
679.217	30.79
679.404	30.71
679.591	30.51
679.778	30.33
679.964	30.35
680.151	30.71
680.338	30.71
680.525	30.44
680.712	30.53
680.899	30.68
681.086	30.74
681.272	30.64
681.459	30.61
681.646	30.93
681.833	30.84
682.02	31.01
682.206	30.82
682.393	31.02
682.58	31.15
682.766	30.89
682.953	31.02
683.14	30.96
683.326	31.18
683.513	31.06
683.7	31.42
683.886	31.51
684.073	31.35
684.259	31.39
684.446	31.48
684.632	31.46
684.819	31.6
685.005	31.54
685.192	31.96
685.378	31.97
685.565	31.97
685.751	31.5
685.938	31.53
686.124	31.74
686.31	31.86
686.497	31.7
686.683	31.77
686.87	31.89
687.056	31.97
687.242	31.49
687.429	31.56
687.615	31.94
687.801	32.15
687.987	32.31
688.174	32.46
688.36	32.47
688.546	32.46
688.732	32.64
688.918	32.56
689.105	32.41
689.291	32.53
689.477	32.5
689.663	32.22
689.849	32.1
690.035	32.05
690.221	32.21
690.407	32.27
690.593	32.35
690.779	31.92
690.965	31.8
691.151	32.02
691.337	31.91
691.523	31.83
691.709	32.12
691.895	32.19
692.081	32.36
692.267	31.86
692.453	31.8
692.639	31.59
692.825	31.7
693.011	32.2
693.196	31.84
693.382	31.98
693.568	31.63
693.754	31.52
693.94	31.37
694.125	30.94
694.311	31.26
694.497	31.43
694.682	31.65
694.868	31.98
695.054	31.77
695.239	32.21
695.425	32.42
695.611	32.58
695.796	32.36
695.982	32.2
696.168	32.53
696.353	32.43
696.539	32.15
696.724	31.8
696.91	31.33
697.095	30.89
697.281	30.35
697.466	29.95
697.652	29.98
697.837	29.77
698.023	29.63
698.208	29.39
698.393	29.38
698.579	29.31
698.764	29.45
698.949	29.47
699.135	29.91
699.32	29.96
699.505	30.09
699.691	30.06
699.876	30.19
700.061	30.48
700.246	30.64
700.432	30.61
700.617	30.47
700.802	30.75
700.987	31.13
701.172	30.57
701.358	30.93
701.543	31.17
701.728	31.67
701.913	32.13
702.098	32.14
702.283	32.26
702.468	32.36
702.653	32.95
702.838	33.01
703.023	33.33
703.208	33.77
703.393	33.72
703.578	33.84
703.763	33.7
703.948	33.67
704.133	33.73
704.318	33.64
704.503	33.82
704.688	33.82
704.873	33.55
705.057	33.27
705.242	33.2
705.427	33.38
705.612	33.61
705.797	33.6
705.981	33.76
706.166	34.1
706.351	34.1
706.536	34.29
706.72	34.61
706.905	35.24
707.09	35.2
707.274	35.57
707.459	35.44
707.644	35.22
707.828	35.28
708.013	35.41
708.197	35.36
708.382	35.41
708.567	35.37
708.751	34.82
708.936	34.27
709.12	34.39
709.305	34.34
709.489	34.72
709.673	34.71
709.858	34.45
710.042	34.26
710.227	34.37
710.411	34.52
710.596	34.59
710.78	34.96
710.964	35.05
711.149	35.11
711.333	34.79
711.517	34.46
711.702	34.56
711.886	34.75
712.07	34.56
712.254	34.48
712.438	34.42
712.623	34.21
712.807	34.24
712.991	34
713.175	33.92
713.359	34.04
713.544	34.16
713.728	33.72
713.912	33.31
714.096	33.05
714.28	32.66
714.464	32.35
714.648	32.3
714.832	31.92
715.016	31.76
715.2	31.21
715.384	31.01
715.568	30.6
715.752	30.44
715.936	30.13
716.12	30.22
716.304	30.54
716.488	30.64
716.671	30.18
716.855	30.5
717.039	30.67
717.223	30.88
717.407	31.04
717.59	31.55
717.774	31.93
717.958	32.46
718.142	32.51
718.325	32.44
718.509	32.88
718.693	33.29
718.877	33.43
719.06	33.2
719.244	33.17
719.428	33.48
719.611	33.52
719.795	33.63
719.978	33.71
720.162	33.47
720.345	33.38
720.529	33.35
720.713	33.86
720.896	33.2
721.08	33.71
721.263	33.88
721.446	33.98
721.63	33.78
721.813	33.66
721.997	34.13
722.18	34
722.364	34.32
722.547	33.62
722.73	33.04
722.914	33.13
723.097	33.06
723.28	32.72
723.464	32.5
723.647	32.35
723.83	32.31
724.013	31.48
724.197	32.39
724.38	31.93
724.563	31.99
724.746	32.19
724.929	32.95
725.112	32.94
725.296	33.41
725.479	32.53
725.662	32.58
725.845	32.74
726.028	33.05
726.211	32.76
726.394	32.98
726.577	33.01
726.76	33
726.943	32.17
727.126	31.97
727.309	31.64
727.492	32.35
727.675	32.33
727.858	31.85
728.041	32.08
728.224	32.09
728.407	31.92
728.589	31.86
728.772	31.94
728.955	32.19
729.138	31.97
729.321	32
729.503	31.98
729.686	32.28
729.869	32.56
730.052	32.44
730.234	32.66
730.417	32.03
730.6	32.31
730.782	32.35
730.965	32.35
731.148	32.62
731.33	32.67
731.513	32.55
731.695	32.3
731.878	32.16
732.061	31.73
732.243	31.22
732.426	31.9
732.608	31.77
732.791	31.61
732.973	31.5
733.156	31.31
733.338	31.61
733.52	31.67
733.703	31.51
733.885	31.81
734.068	32.03
734.25	32.04
734.432	32.02
734.615	32.17
734.797	32.18
734.979	32.44
735.162	32.69
735.344	32.67
735.526	33.06
735.708	33.4
735.891	33.45
736.073	33.76
736.255	33.91
736.437	33.73
736.619	33.74
736.802	33.39
736.984	33.26
737.166	33.45
737.348	33.48
737.53	33.64
737.712	33.94
737.894	34.11
738.076	33.59
738.258	33.64
738.44	33.81
738.622	33.99
738.804	34.21
738.986	34.13
739.168	34.37
739.35	34.62
739.532	34.07
739.714	33.57
739.896	33.32
740.078	33.75
740.259	33.55
740.441	33.27
740.623	32.75
740.805	33.2
740.987	33.62
741.168	33.1
741.35	32.89
741.532	33.17
741.714	33.23
741.895	33.24
742.077	33.24
742.259	33.61
742.44	34.18
742.622	34.5
742.804	34.19
742.985	33.95
743.167	34
743.348	34.5
743.53	34.38
743.711	34.56
743.893	35.1
744.075	35.17
744.256	35.68
744.438	35.7
744.619	36.28
744.8	36.25
744.982	36.2
745.163	36.49
745.345	36.12
745.526	36.92
745.707	37.07
745.889	36.55
746.07	36.88
746.252	36.56
746.433	35.8
746.614	35.8
746.795	36.23
746.977	36.12
747.158	36.48
747.339	36.12
747.52	35.35
747.702	35.11
747.883	35.32
748.064	34.82
748.245	34.98
748.426	35.3
748.607	34.39
748.788	34.44
748.97	35.19
749.151	34.5
749.332	34.25
749.513	34.36
749.694	34.22
749.875	34.14
750.056	34.24
750.237	33.86
750.418	34.11
750.599	34.3
750.78	33.92
750.96	33.13
751.141	33.63
751.322	34.09
751.503	34.13
751.684	34.24
751.865	34.14
752.046	34.23
752.226	34.25
752.407	34.43
752.588	34.75
752.769	34.96
752.949	35.46
753.13	35.54
753.311	35.41
753.492	35.59
753.672	35.77
753.853	35.35
754.034	35.84
754.214	36.08
754.395	36.3
754.575	36.83
754.756	36.69
754.937	36.62
755.117	35.81
755.298	35.82
755.478	35.92
755.659	35.97
755.839	36.14
756.02	36.15
756.2	36.04
756.381	35.51
756.561	35.13
756.741	34.78
756.922	34.09
757.102	34.14
757.283	34.23
757.463	33.79
757.643	33.67
757.823	34.03
758.004	33.51
758.184	33.17
758.364	33.61
758.545	33.23
758.725	33.68
758.905	33.72
759.085	33.94
759.265	33.26
759.446	33.38
759.626	32.82
759.806	32.29
759.986	31.82
760.166	31.53
760.346	31.35
760.526	31.13
760.706	30.96
760.886	30.88
761.066	30.71
761.246	30.63
761.426	30.01
761.606	30.63
761.786	31.01
761.966	31.1
762.146	31.24
762.326	30.27
762.506	30.02
762.686	29.67
762.866	29.75
763.046	29.93
763.225	30.26
763.405	30.28
763.585	29.69
763.765	29.58
763.945	29.38
764.124	29.13
764.304	29.65
764.484	29.61
764.664	29.66
764.843	29.35
765.023	29.34
765.203	29.07
765.382	29.22
765.562	29.49
765.741	29.49
765.921	30.19
766.101	30.61
766.28	30.3
766.46	31.12
766.639	31.58
766.819	32.31
766.998	32.2
767.178	32.72
767.357	32.23
767.537	33.17
767.716	33.72
767.896	33.1
768.075	33.53
768.254	34.2
768.434	34.21
768.613	34.47
768.792	35.08
768.972	35.55
769.151	36.11
769.33	36.83
769.51	36.39
769.689	36.38
769.868	37.04
770.047	37.57
770.226	38.06
770.406	38.42
770.585	37.73
770.764	36.44
770.943	36.77
771.122	36.54
771.301	37.41
771.48	37.06
771.66	37.14
771.839	37.55
772.018	38.01
772.197	37.4
772.376	37.51
772.555	38.35
772.734	40.11
772.913	39.06
773.092	39.14
773.271	38.34
773.449	38.06
773.628	37.88
773.807	37.61
773.986	36.31
774.165	37.06
774.344	37.43
774.523	37.43
774.701	37.04
774.88	38.71
775.059	38.1
775.238	38.5
775.417	39.4
775.595	39.94
775.774	40.64
775.953	40.73
776.131	40.79
776.31	40.15
776.489	39.91
776.667	39.04
776.846	37.81
777.025	38.23
777.203	38.29
777.382	38.39
777.56	37.64
777.739	36.36
777.917	36.49
778.096	36.7
778.274	36.94
778.453	36.35
778.631	37.54
778.81	37.51
778.988	37.54
779.166	37.53
779.345	37.36
779.523	37.52
779.702	37.99
779.88	38.22
780.058	37.63
780.237	37.4
780.415	37.67
780.593	37.35
780.771	37.31
780.95	37.4
781.128	37.27
781.306	36.03
781.484	35.98
781.662	35.78
781.841	35.56
782.019	35.52
782.197	35.9
782.375	36.64
782.553	35.41
782.731	36.57
782.909	36.41
783.087	36.47
783.265	37.29
783.443	37.88
783.621	38.88
783.799	39.36
783.977	39.15
784.155	38.88
784.333	38.28
784.511	39.47
784.689	38.91
784.867	39.58
785.045	39.42
785.223	39.95
785.4	39.73
785.578	39.29
785.756	38.14
785.934	37.55
786.112	36.83
786.289	35.43
786.467	35.21
786.645	35.68
786.823	34.24
787	34.5
787.178	35.23
787.356	35.38
787.533	35.47
787.711	36.13
787.889	36.47
788.066	36.91
788.244	38.13
788.421	38.5
788.599	38.88
788.776	39.76
788.954	39.3
789.131	38.83
789.309	38.86
789.486	38.72
789.664	38.52
789.841	38.87
790.019	38.46
790.196	38.19
790.373	38.08
790.551	37.28
790.728	37.65
790.906	37.92
791.083	39.38
791.26	39.4
791.437	40
791.615	39.71
791.792	40.99
791.969	41.8
792.146	43.11
792.324	43.32
792.501	43.39
792.678	43.76
792.855	44.24
793.032	42.12
793.209	42.05
793.387	43.21
793.564	44.54
793.741	44.29
793.918	45.31
794.095	44.46
794.272	43.42
794.449	43.36
794.626	42.55
794.803	42.31
794.98	43.18
795.157	43.19
795.334	40.15
795.511	39.58
795.688	38.5
795.864	36.23
796.041	37.4
796.218	37.43
796.395	37.06
796.572	36.46
796.749	36.39
796.925	35.96
797.102	36.23
797.279	36.51
797.456	35.87
797.632	36.13
797.809	38.07
797.986	37.99
798.162	38.62
798.339	38.64
798.516	39.61
798.692	39.87
798.869	38.66
799.046	39.09
799.222	40.17
799.399	40.74
799.575	40.42
799.752	40.04
799.928	38.06
800.105	37.71
800.281	37.34
800.458	37.09
800.634	37.25
800.811	38.12
800.987	36.97
801.163	36.52
801.34	36.71
801.516	36.36
801.692	36.76
801.869	38.69
802.045	38.78
802.221	40.4
802.398	40.13
802.574	39.59
802.75	38.68
802.926	39.64
803.103	40.34
803.279	40.85
803.455	40.94
803.631	39.72
803.807	38.11
803.983	38.6
804.16	37.71
804.336	38.21
804.512	37.59
804.688	39.2
804.864	38.41
805.04	37.55
805.216	37.37
805.392	38.6
805.568	39.04
805.744	40.4
805.92	40.16
806.096	40.07
806.272	41.13
806.448	42.93
806.623	43.88
806.799	44.05
806.975	45
807.151	45.48
807.327	45.18
807.503	45.09
807.678	44.91
807.854	44.98
808.03	44.36
808.206	41.99
808.381	40.84
808.557	40.73
808.733	41.59
808.908	41.85
809.084	41.89
809.26	42.61
809.435	43.51
809.611	42.5
809.787	42.42
809.962	43.61
810.138	45.59
810.313	46.38
810.489	45.74
810.664	45.06
810.84	44.65
811.015	45.03
811.191	43.69
811.366	42.37
811.542	43.06
811.717	43.3
811.892	44.3
812.068	44.46
812.243	43.73
812.419	43.23
812.594	42.63
812.769	42.35
812.944	42.24
813.12	43.05
813.295	44.37
813.47	44.81
813.645	44.6
813.821	41.98
813.996	41.77
814.171	42.19
814.346	41.95
814.521	42.57
814.697	43.26
814.872	41.77
815.047	41.3
815.222	41.09
815.397	40.19
815.572	40.82
815.747	41.58
815.922	40.69
816.097	39.78
816.272	40.73
816.447	39.77
816.622	39.86
816.797	41.16
816.972	40.37
817.147	39.9
817.322	39.02
817.496	37.97
817.671	37.65
817.846	37.07
818.021	37.24
818.196	36.93
818.371	37.09
818.545	36.5
818.72	35.93
818.895	35.17
819.069	34.78
819.244	34.92
819.419	35.8
819.594	34.93
819.768	35.24
819.943	33.54
820.117	33.08
820.292	32.49
820.467	31.01
820.641	29.33
820.816	28.66
820.99	27.85
821.165	27.29
821.339	26.46
821.514	25.98
821.688	25.37
821.863	25.25
822.037	24.55
822.212	24.57
822.386	24.36
822.56	24.23
822.735	24.53
822.909	24.31
823.084	24.36
823.258	24.05
823.432	23.86
823.606	23.9
823.781	24.29
823.955	24.43
824.129	24.27
824.303	24.49
824.478	24.62
824.652	24.71
824.826	25.08
825	24.99
825.174	25.62
825.348	26.4
825.523	27.1
825.697	27.32
825.871	27.9
826.045	27.95
826.219	28.01
826.393	28.51
826.567	28.19
826.741	28.03
826.915	28.49
827.089	28.56
827.263	28.25
827.437	27.74
827.611	27.43
827.784	27.22
827.958	27.25
828.132	27.11
828.306	27.07
828.48	27.37
828.654	28.12
828.827	28.2
829.001	27.78
829.175	28.29
829.349	29
829.522	29.35
829.696	30.22
829.87	31.21
830.044	32.77
830.217	33.58
830.391	34.84
830.565	34.11
830.738	33.87
830.912	35.08
831.085	35.54
831.259	34.87
831.432	34.54
831.606	34.49
831.779	32.51
831.953	32.39
832.126	31.08
832.3	30.24
832.473	30.28
832.647	29.6
832.82	29.38
832.994	29.57
833.167	29.39
833.34	30.2
833.514	29.18
833.687	29.24
833.86	28.2
834.034	28.19
834.207	27.86
834.38	28.26
834.553	28.79
834.727	29.11
834.9	28.8
835.073	29.69
835.246	28.67
835.419	29.58
835.593	30.13
835.766	29.81
835.939	30.41
836.112	31.19
836.285	32.11
836.458	33.19
836.631	34.33
836.804	34.9
836.977	34.86
837.15	35.84
837.323	36.8
837.496	38.52
837.669	41.63
837.842	42.46
838.015	42.29
838.188	41.61
838.361	40.68
838.533	40.55
838.706	43.16
838.879	42.95
839.052	44.63
839.225	43.15
839.398	42.73
839.57	41.93
839.743	42.47
839.916	41.94
840.088	41.46
840.261	43.25
840.434	41.6
840.607	40.22
840.779	40.18
840.952	38.89
841.124	39.44
841.297	39.97
841.47	42.62
841.642	42.68
841.815	45.33
841.987	46.29
842.16	45.94
842.332	47.4
842.505	47.57
842.677	51.36
842.85	54.37
843.022	56.85
843.194	55.71
843.367	53.07
843.539	54.13
843.712	53.52
843.884	55.5
844.056	58.58
844.229	59.39
844.401	62.87
844.573	59.44
844.745	58.77
844.918	57.93
845.09	59.97
845.262	61.25
845.434	61.35
845.606	62.86
845.779	59.84
845.951	58.72
846.123	59.18
846.295	57.98
846.467	56.72
846.639	60.76
846.811	60.99
846.983	65.32
847.155	64.61
847.327	63.93
847.499	60.75
847.671	64.02
847.843	64.43
848.015	66.03
848.187	68.11
848.359	72.87
848.531	67.2
848.703	67.13
848.875	63.61
849.047	65.3
849.218	67.93
849.39	72.18
849.562	74.44
849.734	77.37
849.905	74.5
850.077	72.71
850.249	67.51
850.421	68.4
850.592	71.76
850.764	68.57
850.936	69.71
851.107	67.48
851.279	69.93
851.451	70.47
851.622	65.19
851.794	68.95
851.965	69.03
852.137	75.69
852.308	82.13
852.48	81.26
852.651	84.51
852.823	84.09
852.994	85.87
853.166	80.78
853.337	81.81
853.509	80.78
853.68	75.68
853.851	71.51
854.023	67.59
854.194	63.17
854.365	62.41
854.537	67.24
854.708	70.4
854.879	66.48
855.05	65.81
855.222	60.52
855.393	64.88
855.564	64.64
855.735	65.34
855.906	64.96
856.078	64.73
856.249	65.67
856.42	61.26
856.591	54.48
856.762	58.62
856.933	57.98
857.104	61.02
857.275	61.5
857.446	65.17
857.617	70.89
857.788	72.4
857.959	70.8
858.13	72.7
858.301	71.75
858.472	79.86
858.643	76.18
858.814	81.03
858.985	82.51
859.155	81.4
859.326	81.87
859.497	80.51
859.668	80.28
859.839	85.32
860.009	84.53
860.18	88.93
860.351	82.21
860.522	86.3
860.692	85.88
860.863	85.2
861.034	86.33
861.204	85.24
861.375	85.29
861.546	87.12
861.716	84.96
861.887	82.78
862.057	78.32
862.228	80.11
862.398	78.7
862.569	77.6
862.739	76.01
862.91	74.52
863.08	77.02
863.251	72.51
863.421	69.25
863.592	67.35
863.762	70.84
863.932	72.36
864.103	71.77
864.273	71.54
864.443	70.36
864.614	69.9
864.784	70.27
864.954	68.78
865.125	73.78
865.295	77.92
865.465	77.95
865.635	75.51
865.805	77.76
865.976	78.93
866.146	78.67
866.316	77.52
866.486	76.87
866.656	84.34
866.826	83.55
866.996	83.29
867.166	80.96
867.336	85.1
867.506	87.95
867.676	87.48
867.846	86.76
868.016	89.42
868.186	92.69
868.356	90.21
868.526	78.8
868.696	79.11
868.866	73.38
869.036	73.18
869.206	70.19
869.376	65.07
869.545	63.48
869.715	69.32
869.885	69.79
870.055	69.44
870.224	75.56
870.394	76.4
870.564	74.17
870.734	76.69
870.903	75.72
871.073	78.92
871.243	84.26
871.412	80.94
871.582	74.38
871.751	74.76
871.921	77.26
872.091	75.55
872.26	76.99
872.43	80.08
872.599	80.04
872.769	84.5
872.938	86.41
873.108	82.52
873.277	86.84
873.446	89.56
873.616	87.6
873.785	81.62
873.955	81.32
874.124	82.37
874.293	77.91
874.463	75.73
874.632	73.06
874.801	72.58
874.971	71.92
875.14	70.14
875.309	70.98
875.478	68.63
875.647	68.63
875.817	69.53
875.986	72.4
876.155	75.23
876.324	76.3
876.493	76.83
876.662	70.17
876.831	72.48
877	74.99
877.17	72.65
877.339	74.79
877.508	74.71
877.677	74.03
877.846	67.09
878.015	62.98
878.184	63.67
878.352	62.17
878.521	62.91
878.69	62.2
878.859	57.48
879.028	55.45
879.197	54.09
879.366	55.31
879.534	50.91
879.703	50.51
879.872	48.03
880.041	44.75
880.21	41.08
880.378	37.99
880.547	34.26
880.716	33.04
880.884	32.29
881.053	30.91
881.222	29.16
881.39	28.36
881.559	28.1
881.727	27.48
881.896	27.43
882.065	27.43
882.233	27.88
882.402	28.03
882.57	27.74
882.739	27.81
882.907	27.88
883.076	27.43
883.244	27.34
883.412	27.62
883.581	27.51
883.749	27.38
883.918	28
884.086	27.82
884.254	28.88
884.423	29.93
884.591	30.3
884.759	32.23
884.927	33.6
885.096	35.76
885.264	36.22
885.432	37.87
885.6	39.5
885.769	41.16
885.937	42.64
886.105	41.55
886.273	44.15
886.441	46.09
886.609	43.74
886.777	44.83
886.945	43.91
887.113	47.52
887.281	49.46
887.449	51.65
887.617	53.36
887.785	54.9
887.953	56.33
888.121	56.97
888.289	57.11
888.457	59.05
888.625	62.08
888.793	60.37
888.961	59.22
889.129	59.58
889.296	61.88
889.464	59.47
889.632	60.58
889.8	62.19
889.967	58.59
890.135	59.72
