Data from 2938784__Reflection_01.txt Node
Date: Fri Mar 13 12:12:04 EDT 2015
User: robert
Spectrometer: USB4E03002
Autoset integration time: false
Trigger mode: 4
Integration Time (sec): 1.000000E-1
Scans to average: 10
Electric dark correction enabled: false
Nonlinearity correction enabled: false
Boxcar width: 5
Stray light correction enabled: false
XAxis mode: Wavelengths
Stop averaging: false
Number of Pixels in Spectrum: 3648
>>>>>Begin Spectral Data<<<<<
177.575	125.43
177.794	113.49
178.014	117.78
178.233	112.28
178.452	112.84
178.672	105.64
178.891	104.86
179.11	99.96
179.33	101.56
179.549	99.23
179.768	99.01
179.987	99.63
180.207	102.21
180.426	95.72
180.645	98.33
180.864	97.08
181.084	97.56
181.303	93.58
181.522	97.16
181.741	92.33
181.96	93.59
182.179	93.43
182.398	88.55
182.618	87.69
182.837	86.53
183.056	85.79
183.275	84.35
183.494	86.92
183.713	90.26
183.932	89.04
184.151	89.24
184.37	88.01
184.589	89.81
184.808	91.65
185.027	91.42
185.246	97.59
185.465	96.97
185.684	102.14
185.903	98.77
186.122	96.01
186.341	92.27
186.56	92.25
186.779	94.03
186.998	94.86
187.216	99.65
187.435	97.61
187.654	94.36
187.873	98.26
188.092	93.94
188.311	91.31
188.53	92.79
188.748	94.08
188.967	95.25
189.186	92.24
189.405	91.74
189.623	88.28
189.842	88.47
190.061	91.7
190.28	91.46
190.498	90.24
190.717	94.46
190.936	96.43
191.154	98.76
191.373	100.49
191.592	99.27
191.81	101.48
192.029	102.5
192.248	108.2
192.466	104.05
192.685	98.05
192.904	100.83
193.122	101.42
193.341	98.52
193.559	98.42
193.778	93.5
193.996	96.46
194.215	91.26
194.433	92.6
194.652	90.18
194.87	87.42
195.089	87.96
195.307	88.6
195.526	91.81
195.744	92.85
195.963	92.69
196.181	94.48
196.399	91.44
196.618	94.07
196.836	98.1
197.055	99.43
197.273	101.21
197.491	101.99
197.71	103.28
197.928	101.21
198.146	97.95
198.365	99.9
198.583	104.02
198.801	105.83
199.019	104.78
199.238	97.55
199.456	98.81
199.674	98.4
199.892	98.95
200.111	99.54
200.329	101.02
200.547	97.43
200.765	93.84
200.983	91.76
201.202	89.18
201.42	90.65
201.638	88.96
201.856	83.79
202.074	83.63
202.292	82.72
202.51	78.1
202.728	76.38
202.946	80.6
203.165	83.03
203.383	86.8
203.601	86.67
203.819	86.1
204.037	87.69
204.255	88.02
204.473	90.13
204.691	92.02
204.909	95.91
205.127	96.35
205.345	93.42
205.562	91.22
205.78	90.59
205.998	91.94
206.216	93.58
206.434	95.57
206.652	100.2
206.87	98.45
207.088	101.19
207.306	101.07
207.523	98.83
207.741	100.77
207.959	98.22
208.177	96.43
208.395	100.89
208.612	100.14
208.83	95.14
209.048	90.79
209.266	94.17
209.483	90.24
209.701	85.58
209.919	87.08
210.136	89.01
210.354	89.69
210.572	90.37
210.79	87.09
211.007	88.71
211.225	96.36
211.442	97.9
211.66	95.39
211.878	98.72
212.095	104.95
212.313	105.01
212.53	99.32
212.748	101.22
212.966	100.5
213.183	99.16
213.401	94.97
213.618	89.76
213.836	91.67
214.053	87.86
214.271	85.23
214.488	81.45
214.705	77.47
214.923	76.82
215.14	72.24
215.358	69
215.575	70.11
215.793	71.79
216.01	70.04
216.227	70.97
216.445	71.66
216.662	73.25
216.879	74.72
217.097	78.7
217.314	79.61
217.531	83.67
217.749	85.45
217.966	85.12
218.183	86.53
218.4	85.49
218.618	85.33
218.835	87.01
219.052	83.35
219.269	81.94
219.487	78.77
219.704	81.35
219.921	81.12
220.138	82.38
220.355	78.53
220.572	74.46
220.79	76.74
221.007	74.25
221.224	73.55
221.441	71.57
221.658	71.33
221.875	74.65
222.092	70.28
222.309	65.44
222.526	58.66
222.743	57.9
222.96	57.85
223.177	56.08
223.394	53.32
223.611	50.81
223.828	50.3
224.045	50.6
224.262	45.86
224.479	44.1
224.696	47.46
224.913	48.85
225.13	49.13
225.347	45.86
225.564	44.12
225.781	43.57
225.997	42.24
226.214	40.45
226.431	35.65
226.648	34.42
226.865	34.64
227.082	31.63
227.298	29.3
227.515	27.34
227.732	26.34
227.949	24.77
228.165	23.67
228.382	23.16
228.599	22.76
228.816	22.49
229.032	21.7
229.249	20.46
229.466	20.33
229.682	20.7
229.899	21.43
230.116	21.47
230.332	22.61
230.549	23.14
230.765	23.57
230.982	24.07
231.199	24.5
231.415	26.63
231.632	28.99
231.848	29.22
232.065	30.51
232.281	30.42
232.498	30.31
232.714	29.33
232.931	28.95
233.147	28.87
233.364	27.6
233.58	27.63
233.797	25.7
234.013	25.16
234.23	25.04
234.446	25.01
234.662	24.62
234.879	24.95
235.095	25.21
235.312	25.16
235.528	25.58
235.744	26.33
235.961	26.89
236.177	27.9
236.393	27.23
236.61	27.34
236.826	26.57
237.042	26.92
237.258	27.62
237.475	28.09
237.691	28.18
237.907	29.06
238.123	29.1
238.339	30.1
238.556	29.54
238.772	30.43
238.988	30.34
239.204	29.36
239.42	28.83
239.636	27.86
239.853	27.31
240.069	26.4
240.285	24.88
240.501	23.01
240.717	21.07
240.933	20.67
241.149	19.66
241.365	18.94
241.581	18.41
241.797	17.81
242.013	17.19
242.229	16.8
242.445	16.31
242.661	16.44
242.877	16.54
243.093	16.79
243.309	16.17
243.525	16.45
243.741	16.7
243.957	16.98
244.173	17.46
244.388	17.91
244.604	18.06
244.82	18.24
245.036	17.27
245.252	16.94
245.468	16.2
245.683	16.11
245.899	14.97
246.115	14.42
246.331	13.65
246.547	13.01
246.762	12.39
246.978	11.75
247.194	11.65
247.409	11.59
247.625	11.34
247.841	10.93
248.057	10.83
248.272	10.86
248.488	10.87
248.703	11.28
248.919	11.21
249.135	11.65
249.35	12.34
249.566	12.66
249.782	12.99
249.997	13.37
250.213	14.18
250.428	14.39
250.644	14.97
250.859	14.77
251.075	14.48
251.29	15.17
251.506	14.56
251.721	13.94
251.937	13.72
252.152	13.93
252.368	14.04
252.583	13.92
252.798	14.13
253.014	14.73
253.229	15.27
253.445	15.37
253.66	15.01
253.875	15.98
254.091	17.16
254.306	17.05
254.521	17.97
254.737	19.58
254.952	20.11
255.167	20.36
255.383	19.8
255.598	19.72
255.813	19.62
256.028	19.67
256.244	18.89
256.459	18.71
256.674	18.65
256.889	17.03
257.104	16.03
257.32	15.59
257.535	14.35
257.75	13.28
257.965	12.91
258.18	12.45
258.395	11.9
258.61	11.3
258.826	10.13
259.041	10.3
259.256	9.91
259.471	9.39
259.686	9.1
259.901	9.14
260.116	9.08
260.331	8.57
260.546	8.65
260.761	8.66
260.976	8.81
261.191	8.77
261.406	8.45
261.621	9.02
261.836	9.04
262.05	9.41
262.265	9.49
262.48	9.94
262.695	10.92
262.91	11.71
263.125	12.07
263.34	12.19
263.555	13.28
263.769	13.69
263.984	13.27
264.199	13.68
264.414	13.38
264.629	14.01
264.843	14.07
265.058	14.03
265.273	12.96
265.488	12.46
265.702	12.32
265.917	12.25
266.132	12.27
266.346	11.93
266.561	12.15
266.776	12.43
266.99	12.21
267.205	12.09
267.42	11.86
267.634	11.51
267.849	11.79
268.063	12.01
268.278	11.69
268.492	11.82
268.707	11.92
268.922	11.53
269.136	11.48
269.351	11.04
269.565	10.73
269.78	10.18
269.994	10.03
270.209	9.84
270.423	9.58
270.637	9.54
270.852	8.92
271.066	8.81
271.281	8.97
271.495	8.76
271.709	8.8
271.924	8.85
272.138	8.82
272.353	9.07
272.567	8.98
272.781	9.12
272.996	8.98
273.21	9.17
273.424	9.24
273.638	9.17
273.853	8.91
274.067	8.91
274.281	8.92
274.495	9.56
274.71	9.97
274.924	10.29
275.138	10.41
275.352	10.53
275.566	10.82
275.781	10.97
275.995	11.26
276.209	11.92
276.423	12.28
276.637	12.54
276.851	12.43
277.065	12.04
277.279	11.89
277.493	11.58
277.707	11.93
277.921	11.61
278.135	11.49
278.349	11.01
278.563	10.88
278.777	10.84
278.991	10.8
279.205	10.77
279.419	11.04
279.633	10.91
279.847	10.78
280.061	10.52
280.275	10.24
280.489	10.39
280.703	10.48
280.917	10.01
281.131	9.8
281.344	9.31
281.558	8.85
281.772	9.04
281.986	9.13
282.2	9.58
282.414	9.67
282.627	9.8
282.841	10
283.055	10.17
283.269	10.29
283.482	9.86
283.696	10.04
283.91	10.16
284.123	9.28
284.337	8.99
284.551	8.63
284.764	8.4
284.978	8
285.192	7.51
285.405	7.45
285.619	7.13
285.833	7.31
286.046	7.17
286.26	7.19
286.473	7.57
286.687	7.52
286.9	7.49
287.114	7.43
287.327	7.7
287.541	7.84
287.754	7.84
287.968	8.46
288.181	8.68
288.395	8.8
288.608	9.06
288.822	9.08
289.035	9.13
289.248	9.07
289.462	8.98
289.675	8.86
289.889	8.98
290.102	8.68
290.315	8.31
290.529	8.37
290.742	8.38
290.955	8.29
291.169	8.36
291.382	8.64
291.595	8.9
291.808	9.32
292.022	9.75
292.235	10.11
292.448	10.22
292.661	10.57
292.875	10.44
293.088	10.59
293.301	10.31
293.514	10.49
293.727	10.18
293.94	9.87
294.153	9.55
294.367	9.33
294.58	8.93
294.793	8.84
295.006	8.54
295.219	8.15
295.432	8.28
295.645	8.22
295.858	7.68
296.071	7.43
296.284	7.39
296.497	7.28
296.71	7.04
296.923	7.17
297.136	7.42
297.349	7.39
297.562	7.64
297.775	7.2
297.988	7.38
298.201	7.79
298.414	7.84
298.626	7.86
298.839	7.91
299.052	8.06
299.265	8.29
299.478	7.93
299.691	8.5
299.903	8.81
300.116	9.17
300.329	9.28
300.542	8.9
300.755	9.44
300.967	9.74
301.18	9.87
301.393	9.99
301.605	9.47
301.818	9.83
302.031	9.68
302.243	9.42
302.456	9.33
302.669	9.51
302.881	9.75
303.094	9.81
303.307	9.7
303.519	9.71
303.732	9.89
303.944	9.99
304.157	9.87
304.37	9.28
304.582	9.8
304.795	9.88
305.007	9.63
305.22	9.7
305.432	9.62
305.645	9.79
305.857	9.96
306.069	9.94
306.282	9.94
306.494	9.81
306.707	10.23
306.919	9.79
307.132	9.76
307.344	10.15
307.556	10.02
307.769	10.11
307.981	9.96
308.193	9.89
308.406	9.72
308.618	9.8
308.83	9.82
309.043	9.68
309.255	9.5
309.467	9.52
309.679	9.14
309.892	9.08
310.104	8.81
310.316	8.82
310.528	8.7
310.74	8.82
310.953	8.6
311.165	8.65
311.377	9.05
311.589	9.35
311.801	9.31
312.013	9.48
312.225	9.46
312.437	9.61
312.649	9.84
312.862	10.2
313.074	10.48
313.286	10.88
313.498	11.24
313.71	10.96
313.922	10.79
314.134	11.23
314.346	11.15
314.558	11.53
314.77	11.98
314.982	12.02
315.193	12.31
315.405	12.15
315.617	12.32
315.829	12.55
316.041	12.73
316.253	12.77
316.465	12.6
316.677	13.03
316.888	12.98
317.1	12.84
317.312	12.94
317.524	13.26
317.736	13.41
317.947	13.76
318.159	13.49
318.371	13.53
318.583	13.62
318.794	13.77
319.006	13.64
319.218	13.81
319.43	13.74
319.641	13.75
319.853	13.41
320.064	13.44
320.276	13.17
320.488	13.54
320.699	13.57
320.911	14.06
321.123	13.99
321.334	13.52
321.546	13.71
321.757	13.95
321.969	13.69
322.18	13.51
322.392	13.48
322.603	13.79
322.815	13.4
323.026	13.72
323.238	13.57
323.449	13.49
323.661	13.84
323.872	13.82
324.083	13.47
324.295	13.83
324.506	13.97
324.718	13.85
324.929	13.67
325.14	13.8
325.352	13.43
325.563	13.67
325.774	14.05
325.986	14.29
326.197	14.24
326.408	14.78
326.62	14.96
326.831	15.05
327.042	15.6
327.253	15.96
327.464	16.28
327.676	16.66
327.887	16.84
328.098	17.08
328.309	17.18
328.52	17.48
328.732	17.4
328.943	17.68
329.154	18.07
329.365	18.16
329.576	18.39
329.787	18.67
329.998	19.18
330.209	19.36
330.42	19.72
330.631	20.09
330.842	20.52
331.053	21.17
331.264	20.98
331.475	21.01
331.686	21.41
331.897	21.35
332.108	21.43
332.319	21.21
332.53	21.13
332.741	20.8
332.952	20.75
333.163	20.71
333.374	20.54
333.585	20.68
333.795	20.69
334.006	20.42
334.217	20.58
334.428	20.56
334.639	20.68
334.849	20.62
335.06	20.9
335.271	20.78
335.482	20.86
335.692	20.57
335.903	20.62
336.114	20.26
336.325	20.28
336.535	20.09
336.746	19.69
336.957	19.69
337.167	20.14
337.378	20.2
337.589	20.31
337.799	19.78
338.01	20.02
338.22	20.08
338.431	20.26
338.642	20.32
338.852	20.16
339.063	20.65
339.273	20.63
339.484	20.3
339.694	19.99
339.905	20.3
340.115	20.89
340.326	20.76
340.536	20.67
340.746	20.9
340.957	20.91
341.167	21.07
341.378	20.95
341.588	20.78
341.799	20.62
342.009	20.4
342.219	20.11
342.43	19.84
342.64	19.9
342.85	19.81
343.061	19.63
343.271	19.57
343.481	19.52
343.691	19.3
343.902	19.48
344.112	19.7
344.322	19.91
344.532	19.77
344.743	19.6
344.953	19.52
345.163	19.46
345.373	19.15
345.583	18.99
345.793	19.06
346.004	19.1
346.214	18.98
346.424	18.94
346.634	18.93
346.844	19.19
347.054	19.5
347.264	19.52
347.474	19.39
347.684	19.54
347.894	19.46
348.104	19.34
348.314	19.4
348.524	19.14
348.734	19.01
348.944	19.2
349.154	18.89
349.364	18.58
349.574	18.58
349.784	18.81
349.994	18.81
350.204	18.92
350.413	18.81
350.623	18.57
350.833	18.56
351.043	18.46
351.253	18.26
351.463	18.02
351.672	18.23
351.882	17.99
352.092	17.65
352.302	17.61
352.511	17.6
352.721	17.84
352.931	18.24
353.141	18.38
353.35	18.28
353.56	17.98
353.77	18.11
353.979	17.78
354.189	17.88
354.399	18.04
354.608	18.15
354.818	18.06
355.027	17.94
355.237	17.56
355.447	17.58
355.656	17.45
355.866	17.43
356.075	17.49
356.285	17.67
356.494	17.55
356.704	17.62
356.913	17.56
357.123	17.47
357.332	17.32
357.542	17.42
357.751	17.3
357.96	17.23
358.17	17.23
358.379	17.2
358.589	17.22
358.798	17.3
359.007	17.07
359.217	17.01
359.426	16.81
359.635	16.59
359.845	16.64
360.054	16.72
360.263	16.79
360.472	16.8
360.682	16.7
360.891	16.61
361.1	16.38
361.309	16.2
361.519	16.31
361.728	16.34
361.937	16.35
362.146	16.32
362.355	16.21
362.564	16.37
362.774	16.38
362.983	16.32
363.192	16.22
363.401	16.46
363.61	16.77
363.819	16.69
364.028	16.83
364.237	16.82
364.446	16.69
364.655	16.52
364.864	16.23
365.073	16.15
365.282	16.28
365.491	16.16
365.7	15.94
365.909	15.73
366.118	15.83
366.327	15.83
366.536	16.05
366.745	16.18
366.954	16.48
367.162	16.59
367.371	16.48
367.58	16.51
367.789	16.42
367.998	16.5
368.207	16.59
368.415	16.35
368.624	16.24
368.833	16.14
369.042	16.01
369.25	15.97
369.459	16.08
369.668	16.25
369.877	16.17
370.085	16.19
370.294	16.3
370.503	16.19
370.711	16.08
370.92	15.89
371.129	15.76
371.337	15.64
371.546	15.49
371.754	15.51
371.963	15.37
372.171	15.37
372.38	15.65
372.589	15.47
372.797	15.42
373.006	15.45
373.214	15.54
373.423	15.55
373.631	15.61
373.84	15.57
374.048	15.2
374.256	15.18
374.465	15.19
374.673	14.96
374.882	14.94
375.09	15.02
375.298	14.91
375.507	15
375.715	14.96
375.923	14.82
376.132	14.72
376.34	14.69
376.548	14.54
376.757	14.42
376.965	14.67
377.173	14.53
377.381	14.29
377.59	14.61
377.798	14.41
378.006	14.32
378.214	14.29
378.423	14.47
378.631	14.27
378.839	14.32
379.047	14.07
379.255	13.77
379.463	14.13
379.671	14.12
379.879	13.74
380.088	13.68
380.296	13.78
380.504	13.9
380.712	13.34
380.92	13.73
381.128	13.93
381.336	14.14
381.544	13.92
381.752	13.65
381.96	13.43
382.168	13.45
382.376	13.54
382.584	13.56
382.791	13.56
382.999	13.73
383.207	13.7
383.415	13.75
383.623	13.42
383.831	13.48
384.039	13.19
384.247	13.33
384.454	13.39
384.662	13.25
384.87	13.13
385.078	13
385.285	12.98
385.493	12.86
385.701	12.59
385.909	12.68
386.116	12.63
386.324	12.6
386.532	12.64
386.739	12.43
386.947	12.58
387.155	12.54
387.362	12.44
387.57	12.47
387.778	12.36
387.985	12.28
388.193	12.28
388.4	12.15
388.608	12.29
388.816	12.13
389.023	12.25
389.231	12.07
389.438	12.03
389.646	12.11
389.853	12.02
390.061	11.96
390.268	12.05
390.475	11.84
390.683	11.82
390.89	11.64
391.098	11.79
391.305	11.57
391.512	11.51
391.72	11.44
391.927	11.29
392.135	11.42
392.342	11.35
392.549	11.27
392.756	11.35
392.964	11.27
393.171	11.33
393.378	11.1
393.586	11.16
393.793	11.04
394	10.95
394.207	10.95
394.414	10.75
394.622	10.76
394.829	10.8
395.036	10.87
395.243	10.99
395.45	10.98
395.657	11.02
395.864	11.03
396.072	11.18
396.279	11.36
396.486	11.38
396.693	11.4
396.9	11.5
397.107	11.41
397.314	11.54
397.521	11.46
397.728	11.53
397.935	11.47
398.142	11.36
398.349	11.49
398.556	11.3
398.763	11.06
398.97	11.1
399.177	10.97
399.383	10.77
399.59	10.6
399.797	10.66
400.004	10.62
400.211	10.8
400.418	10.9
400.625	10.69
400.831	10.75
401.038	10.93
401.245	10.9
401.452	10.8
401.658	10.88
401.865	10.96
402.072	10.86
402.279	10.77
402.485	10.53
402.692	10.46
402.899	10.45
403.105	10.34
403.312	10.37
403.519	10.23
403.725	10.39
403.932	10.25
404.138	10.06
404.345	10.12
404.552	10.07
404.758	10.08
404.965	9.91
405.171	9.9
405.378	9.85
405.584	9.75
405.791	9.79
405.997	9.7
406.204	9.84
406.41	9.89
406.617	9.84
406.823	9.81
407.029	9.89
407.236	9.92
407.442	9.8
407.649	9.99
407.855	9.99
408.061	10.1
408.268	10.04
408.474	9.86
408.68	9.99
408.887	10.05
409.093	10.07
409.299	10.06
409.505	10.16
409.712	10.22
409.918	10.11
410.124	9.99
410.33	9.9
410.537	9.81
410.743	9.9
410.949	9.77
411.155	9.71
411.361	9.58
411.567	9.62
411.773	9.48
411.98	9.4
412.186	9.31
412.392	9.4
412.598	9.34
412.804	9.25
413.01	9.24
413.216	9.2
413.422	9.1
413.628	9.21
413.834	9.08
414.04	9.11
414.246	9.28
414.452	9.14
414.658	9.1
414.864	9
415.07	9.13
415.275	8.98
415.481	8.99
415.687	8.85
415.893	8.83
416.099	8.83
416.305	8.76
416.511	8.58
416.716	8.48
416.922	8.38
417.128	8.34
417.334	8.2
417.539	8.26
417.745	8.08
417.951	8.06
418.157	7.92
418.362	7.87
418.568	7.77
418.774	7.62
418.979	7.72
419.185	7.75
419.391	7.69
419.596	7.6
419.802	7.44
420.008	7.43
420.213	7.45
420.419	7.42
420.624	7.32
420.83	7.33
421.035	7.35
421.241	7.28
421.446	7.16
421.652	7.13
421.857	7.15
422.063	7.11
422.268	7.15
422.474	7.09
422.679	7.13
422.885	7.12
423.09	7.1
423.295	7.02
423.501	6.96
423.706	6.97
423.911	6.98
424.117	7.01
424.322	7.06
424.527	6.99
424.733	6.94
424.938	6.93
425.143	6.89
425.349	6.9
425.554	6.97
425.759	7.11
425.964	7.13
426.169	7.22
426.375	7.24
426.58	7.29
426.785	7.35
426.99	7.41
427.195	7.48
427.4	7.52
427.605	7.52
427.811	7.62
428.016	7.58
428.221	7.72
428.426	7.54
428.631	7.52
428.836	7.52
429.041	7.56
429.246	7.63
429.451	7.48
429.656	7.53
429.861	7.6
430.066	7.55
430.271	7.48
430.476	7.3
430.681	7.41
430.886	7.38
431.09	7.31
431.295	7.19
431.5	7.2
431.705	7.29
431.91	7.3
432.115	7.26
432.32	7.3
432.524	7.26
432.729	7.32
432.934	7.33
433.139	7.3
433.343	7.39
433.548	7.46
433.753	7.47
433.958	7.43
434.162	7.52
434.367	7.54
434.572	7.53
434.776	7.58
434.981	7.58
435.186	7.61
435.39	7.75
435.595	7.75
435.799	7.72
436.004	7.66
436.209	7.76
436.413	7.67
436.618	7.57
436.822	7.53
437.027	7.51
437.231	7.43
437.436	7.43
437.64	7.43
437.845	7.3
438.049	7.34
438.253	7.25
438.458	7.15
438.662	7.11
438.867	7.16
439.071	7.18
439.275	7.14
439.48	7.15
439.684	7.08
439.888	6.99
440.093	7
440.297	6.92
440.501	6.9
440.706	6.9
440.91	6.91
441.114	6.91
441.318	6.87
441.523	6.89
441.727	6.9
441.931	6.88
442.135	6.96
442.339	6.97
442.543	7.04
442.748	7.12
442.952	7.16
443.156	7.11
443.36	7.04
443.564	7.04
443.768	7.13
443.972	7.11
444.176	7.12
444.38	7.02
444.584	6.97
444.788	6.86
444.992	6.83
445.196	6.79
445.4	6.7
445.604	6.78
445.808	6.79
446.012	6.68
446.216	6.6
446.42	6.62
446.624	6.61
446.828	6.57
447.032	6.56
447.235	6.52
447.439	6.48
447.643	6.59
447.847	6.51
448.051	6.49
448.254	6.47
448.458	6.55
448.662	6.53
448.866	6.46
449.069	6.6
449.273	6.71
449.477	6.67
449.681	6.79
449.884	6.8
450.088	7.01
450.292	7
450.495	7.03
450.699	7.06
450.902	6.92
451.106	7
451.31	6.92
451.513	6.9
451.717	6.95
451.92	6.88
452.124	6.89
452.327	6.72
452.531	6.71
452.734	6.67
452.938	6.67
453.141	6.9
453.345	6.98
453.548	7.01
453.752	7.01
453.955	7.06
454.158	7.04
454.362	7.06
454.565	7.07
454.769	7.13
454.972	7.2
455.175	7.15
455.379	7.1
455.582	7.12
455.785	7.06
455.988	7.1
456.192	7.13
456.395	7.15
456.598	7.12
456.801	7.05
457.005	6.89
457.208	6.95
457.411	6.99
457.614	6.84
457.817	6.71
458.021	6.68
458.224	6.66
458.427	6.52
458.63	6.46
458.833	6.43
459.036	6.41
459.239	6.47
459.442	6.37
459.645	6.34
459.848	6.4
460.051	6.43
460.254	6.49
460.457	6.45
460.66	6.51
460.863	6.54
461.066	6.54
461.269	6.55
461.472	6.63
461.675	6.65
461.878	6.8
462.081	6.82
462.284	6.78
462.486	6.74
462.689	6.75
462.892	6.85
463.095	6.86
463.298	6.94
463.5	7.08
463.703	7.01
463.906	7.1
464.109	7.05
464.311	7.06
464.514	7.1
464.717	7.14
464.92	7.28
465.122	7.24
465.325	7.24
465.528	7.17
465.73	7.22
465.933	7.19
466.135	7.24
466.338	7.11
466.541	7.11
466.743	7.17
466.946	7.16
467.148	7.06
467.351	7.14
467.553	7.31
467.756	7.3
467.958	7.2
468.161	7.39
468.363	7.25
468.566	7.25
468.768	7.33
468.971	7.29
469.173	7.34
469.375	7.38
469.578	7.35
469.78	7.26
469.983	7.34
470.185	7.32
470.387	7.29
470.59	7.32
470.792	7.37
470.994	7.37
471.196	7.37
471.399	7.3
471.601	7.32
471.803	7.23
472.005	7.2
472.208	7.19
472.41	7.23
472.612	7.15
472.814	7.24
473.016	7.3
473.218	7.32
473.421	7.38
473.623	7.39
473.825	7.43
474.027	7.54
474.229	7.54
474.431	7.54
474.633	7.57
474.835	7.59
475.037	7.64
475.239	7.51
475.441	7.5
475.643	7.41
475.845	7.38
476.047	7.31
476.249	7.23
476.451	7.29
476.653	7.29
476.855	7.27
477.057	7.21
477.258	7.08
477.46	7.11
477.662	7.02
477.864	7.02
478.066	7.05
478.268	7.05
478.469	7.06
478.671	6.89
478.873	6.91
479.075	6.84
479.276	6.83
479.478	6.91
479.68	6.87
479.882	6.91
480.083	6.91
480.285	6.88
480.487	6.89
480.688	6.83
480.89	6.9
481.091	6.81
481.293	6.74
481.495	6.63
481.696	6.5
481.898	6.43
482.099	6.32
482.301	6.18
482.502	6.1
482.704	6.03
482.905	6.01
483.107	5.94
483.308	5.9
483.51	5.87
483.711	5.89
483.913	5.89
484.114	5.91
484.315	5.92
484.517	5.96
484.718	6
484.92	6.02
485.121	6.02
485.322	6.07
485.524	6.07
485.725	6.1
485.926	6.12
486.127	6.12
486.329	6.12
486.53	6.09
486.731	6.08
486.932	6.04
487.134	6.03
487.335	6.04
487.536	5.99
487.737	6.01
487.938	6.01
488.139	6.04
488.341	6.07
488.542	6.13
488.743	6.19
488.944	6.21
489.145	6.27
489.346	6.31
489.547	6.29
489.748	6.36
489.949	6.39
490.15	6.39
490.351	6.36
490.552	6.38
490.753	6.34
490.954	6.34
491.155	6.36
491.356	6.34
491.557	6.34
491.758	6.42
491.959	6.43
492.159	6.47
492.36	6.52
492.561	6.58
492.762	6.61
492.963	6.67
493.164	6.7
493.364	6.73
493.565	6.78
493.766	6.78
493.967	6.79
494.167	6.89
494.368	6.89
494.569	6.92
494.769	6.99
494.97	7.07
495.171	7.1
495.371	7.15
495.572	7.16
495.773	7.19
495.973	7.26
496.174	7.29
496.375	7.28
496.575	7.31
496.776	7.44
496.976	7.43
497.177	7.44
497.377	7.44
497.578	7.46
497.778	7.55
497.979	7.65
498.179	7.69
498.38	7.71
498.58	7.81
498.78	7.9
498.981	7.93
499.181	8
499.382	8.1
499.582	8.18
499.782	8.32
499.983	8.4
500.183	8.49
500.383	8.53
500.584	8.57
500.784	8.55
500.984	8.59
501.184	8.55
501.385	8.6
501.585	8.54
501.785	8.54
501.985	8.51
502.185	8.5
502.386	8.44
502.586	8.55
502.786	8.62
502.986	8.66
503.186	8.73
503.386	8.76
503.586	8.81
503.786	8.88
503.987	8.94
504.187	8.97
504.387	8.99
504.587	9.1
504.787	9.12
504.987	9.16
505.187	9.25
505.387	9.28
505.587	9.36
505.786	9.41
505.986	9.46
506.186	9.61
506.386	9.76
506.586	9.85
506.786	9.85
506.986	9.9
507.186	9.91
507.386	9.9
507.585	9.96
507.785	9.99
507.985	10.07
508.185	10.08
508.384	10.02
508.584	10.04
508.784	10
508.984	10.13
509.183	10.2
509.383	10.26
509.583	10.42
509.782	10.44
509.982	10.49
510.182	10.45
510.381	10.52
510.581	10.65
510.781	10.69
510.98	10.81
511.18	10.77
511.379	10.82
511.579	10.94
511.778	10.93
511.978	10.97
512.177	11.08
512.377	11.2
512.576	11.25
512.776	11.22
512.975	11.3
513.175	11.48
513.374	11.57
513.573	11.63
513.773	11.73
513.972	11.87
514.172	12.04
514.371	12.15
514.57	12.19
514.77	12.31
514.969	12.45
515.168	12.49
515.367	12.48
515.567	12.56
515.766	12.62
515.965	12.67
516.164	12.6
516.364	12.64
516.563	12.58
516.762	12.62
516.961	12.63
517.16	12.67
517.359	12.74
517.559	12.79
517.758	12.87
517.957	12.93
518.156	13.01
518.355	13.1
518.554	13.09
518.753	13.18
518.952	13.24
519.151	13.33
519.35	13.38
519.549	13.44
519.748	13.49
519.947	13.56
520.146	13.68
520.345	13.76
520.544	13.91
520.743	14.1
520.942	14.18
521.141	14.29
521.339	14.41
521.538	14.48
521.737	14.53
521.936	14.66
522.135	14.79
522.333	14.9
522.532	14.92
522.731	14.95
522.93	14.96
523.129	15.08
523.327	15.21
523.526	15.31
523.725	15.44
523.923	15.48
524.122	15.55
524.321	15.56
524.519	15.55
524.718	15.57
524.917	15.6
525.115	15.65
525.314	15.66
525.512	15.68
525.711	15.7
525.909	15.74
526.108	15.86
526.306	15.87
526.505	15.93
526.703	16.01
526.902	16.03
527.1	16.06
527.299	16.13
527.497	16.16
527.696	16.21
527.894	16.22
528.092	16.24
528.291	16.27
528.489	16.34
528.688	16.34
528.886	16.4
529.084	16.5
529.283	16.53
529.481	16.58
529.679	16.66
529.877	16.71
530.076	16.83
530.274	16.93
530.472	16.97
530.67	17.09
530.869	17.25
531.067	17.3
531.265	17.4
531.463	17.53
531.661	17.63
531.859	17.73
532.057	17.85
532.255	17.86
532.454	17.92
532.652	17.97
532.85	17.98
533.048	18.04
533.246	18.13
533.444	18.17
533.642	18.27
533.84	18.31
534.038	18.37
534.236	18.39
534.434	18.55
534.632	18.62
534.83	18.8
535.027	18.9
535.225	18.95
535.423	19.05
535.621	19.12
535.819	19.16
536.017	19.32
536.215	19.37
536.412	19.5
536.61	19.51
536.808	19.65
537.006	19.72
537.203	19.8
537.401	20.01
537.599	20.06
537.797	20.17
537.994	20.39
538.192	20.47
538.39	20.61
538.587	20.8
538.785	20.93
538.983	21.07
539.18	21.19
539.378	21.39
539.575	21.44
539.773	21.63
539.97	21.79
540.168	21.83
540.366	21.87
540.563	21.94
540.761	21.93
540.958	22.01
541.155	22.06
541.353	22.16
541.55	22.18
541.748	22.23
541.945	22.32
542.143	22.38
542.34	22.51
542.537	22.64
542.735	22.77
542.932	22.95
543.129	23.17
543.327	23.35
543.524	23.59
543.721	23.93
543.919	24.29
544.116	24.63
544.313	25.02
544.51	25.36
544.708	25.79
544.905	26.23
545.102	26.6
545.299	26.91
545.496	27.26
545.693	27.43
545.891	27.54
546.088	27.59
546.285	27.52
546.482	27.36
546.679	27.24
546.876	27.05
547.073	26.83
547.27	26.69
547.467	26.45
547.664	26.23
547.861	26.1
548.058	25.97
548.255	25.83
548.452	25.81
548.649	25.9
548.846	25.93
549.043	25.98
549.24	26.01
549.437	25.98
549.633	26.05
549.83	26.03
550.027	25.93
550.224	25.85
550.421	25.77
550.618	25.59
550.814	25.43
551.011	25.32
551.208	25.28
551.405	25.28
551.601	25.19
551.798	25.11
551.995	24.94
552.191	24.99
552.388	24.96
552.585	24.94
552.781	24.9
552.978	24.86
553.175	24.9
553.371	24.84
553.568	24.75
553.764	24.76
553.961	24.76
554.157	24.81
554.354	24.85
554.55	24.91
554.747	25.04
554.943	25.23
555.14	25.4
555.336	25.37
555.533	25.42
555.729	25.49
555.926	25.57
556.122	25.78
556.318	25.96
556.515	25.85
556.711	26.01
556.907	26
557.104	26.01
557.3	26.01
557.496	25.93
557.693	25.93
557.889	25.92
558.085	25.91
558.281	25.75
558.478	25.73
558.674	25.77
558.87	25.7
559.066	25.71
559.262	25.72
559.459	25.68
559.655	25.94
559.851	26.03
560.047	26.05
560.243	26.08
560.439	26.11
560.635	26.12
560.831	26.17
561.027	26.28
561.223	26.3
561.419	26.36
561.615	26.37
561.811	26.32
562.007	26.4
562.203	26.61
562.399	26.73
562.595	26.72
562.791	26.88
562.987	26.95
563.183	26.92
563.379	27
563.575	26.96
563.771	27.12
563.966	27.12
564.162	27.11
564.358	26.99
564.554	26.96
564.75	26.99
564.945	26.97
565.141	27
565.337	26.99
565.533	26.94
565.728	27.03
565.924	27.05
566.12	27.19
566.315	27.18
566.511	27.25
566.707	27.23
566.902	27.26
567.098	27.29
567.293	27.35
567.489	27.41
567.684	27.49
567.88	27.47
568.076	27.45
568.271	27.38
568.467	27.41
568.662	27.46
568.858	27.59
569.053	27.71
569.248	27.64
569.444	27.63
569.639	27.61
569.835	27.68
570.03	27.76
570.225	27.76
570.421	27.79
570.616	27.78
570.812	27.91
571.007	27.87
571.202	27.83
571.397	28.09
571.593	28.02
571.788	28.09
571.983	28.12
572.178	28.15
572.374	28.22
572.569	28.26
572.764	28.44
572.959	28.37
573.154	28.51
573.35	28.66
573.545	28.64
573.74	28.77
573.935	28.85
574.13	28.93
574.325	29.04
574.52	29.16
574.715	29.32
574.91	29.33
575.105	29.57
575.3	29.72
575.495	29.83
575.69	29.87
575.885	30.12
576.08	30.25
576.275	30.43
576.47	30.51
576.665	30.72
576.86	30.81
577.055	30.99
577.25	31.12
577.444	31.19
577.639	31.39
577.834	31.67
578.029	31.92
578.224	32.04
578.418	32.08
578.613	32.39
578.808	32.47
579.003	32.73
579.197	32.8
579.392	32.78
579.587	32.92
579.781	32.93
579.976	32.85
580.171	32.62
580.365	32.78
580.56	32.8
580.755	32.75
580.949	32.8
581.144	32.71
581.338	32.82
581.533	32.95
581.727	33.13
581.922	33.2
582.116	33.29
582.311	33.58
582.505	33.52
582.7	33.68
582.894	33.77
583.089	33.88
583.283	33.96
583.478	33.95
583.672	34.09
583.866	34.11
584.061	34.25
584.255	34.24
584.449	34.21
584.644	34.27
584.838	34.43
585.032	34.48
585.226	34.49
585.421	34.51
585.615	34.72
585.809	34.64
586.003	34.61
586.198	34.69
586.392	34.81
586.586	34.72
586.78	34.78
586.974	34.7
587.168	34.48
587.363	34.44
587.557	34.39
587.751	34.29
587.945	34.15
588.139	34.04
588.333	33.78
588.527	33.62
588.721	33.63
588.915	33.48
589.109	33.46
589.303	33.45
589.497	33.32
589.691	33.18
589.885	33.09
590.079	33.25
590.273	33.12
590.466	33.16
590.66	33.41
590.854	33.61
591.048	33.8
591.242	33.95
591.436	34.25
591.629	34.5
591.823	34.77
592.017	34.93
592.211	34.73
592.404	34.91
592.598	34.94
592.792	34.86
592.986	34.77
593.179	34.69
593.373	34.58
593.567	34.39
593.76	34.12
593.954	33.92
594.147	33.86
594.341	33.92
594.535	33.84
594.728	33.87
594.922	33.66
595.115	33.46
595.309	33.36
595.502	33.14
595.696	32.97
595.889	32.94
596.083	32.98
596.276	32.84
596.47	32.96
596.663	32.97
596.856	32.86
597.05	32.99
597.243	33.1
597.437	33.26
597.63	33.42
597.823	33.58
598.017	33.69
598.21	33.8
598.403	34.02
598.596	34.09
598.79	34.33
598.983	34.6
599.176	34.72
599.369	34.77
599.563	34.81
599.756	34.98
599.949	35.04
600.142	35.01
600.335	35.14
600.528	34.87
600.722	34.73
600.915	34.5
601.108	34.32
601.301	34.22
601.494	34.15
601.687	34.06
601.88	33.84
602.073	33.79
602.266	33.77
602.459	33.51
602.652	33.58
602.845	33.45
603.038	33.46
603.231	33.5
603.424	33.43
603.617	33.39
603.809	33.39
604.002	33.4
604.195	33.26
604.388	33.31
604.581	33.3
604.774	33.31
604.966	33.42
605.159	33.3
605.352	33.27
605.545	33.38
605.737	33.54
605.93	33.58
606.123	33.69
606.316	33.95
606.508	34.16
606.701	34.49
606.894	34.76
607.086	35.02
607.279	35.6
607.471	35.9
607.664	36.28
607.857	36.76
608.049	37.37
608.242	38.08
608.434	39.09
608.627	40.19
608.819	41.49
609.012	42.92
609.204	44.7
609.397	46.53
609.589	48.57
609.782	50.66
609.974	52.87
610.166	55.25
610.359	57.43
610.551	59.45
610.743	61.4
610.936	62.96
611.128	64.26
611.32	65
611.513	65.45
611.705	65.68
611.897	65.58
612.09	65.04
612.282	63.88
612.474	62.91
612.666	61.85
612.858	60.4
613.051	59.21
613.243	58.08
613.435	57.02
613.627	55.92
613.819	54.8
614.011	53.79
614.203	52.86
614.395	52.03
614.588	50.88
614.78	49.77
614.972	49.01
615.164	47.93
615.356	46.99
615.548	45.99
615.74	45.23
615.932	44.44
616.124	43.54
616.315	42.91
616.507	42.31
616.699	41.99
616.891	41.46
617.083	40.96
617.275	40.54
617.467	40.22
617.659	40.03
617.85	39.72
618.042	39.36
618.234	39.4
618.426	39.06
618.618	38.87
618.809	38.64
619.001	38.54
619.193	38.42
619.384	38.59
619.576	38.64
619.768	38.61
619.959	38.51
620.151	38.58
620.343	38.42
620.534	38.47
620.726	38.47
620.917	38.42
621.109	38.53
621.301	38.55
621.492	38.46
621.684	38.36
621.875	38.24
622.067	38.3
622.258	38.49
622.45	38.62
622.641	38.45
622.832	38.44
623.024	38.7
623.215	38.51
623.407	38.38
623.598	38.39
623.789	38.49
623.981	38.51
624.172	38.53
624.363	38.4
624.555	38.26
624.746	38.36
624.937	38.57
625.129	38.37
625.32	38.27
625.511	38.19
625.702	38.04
625.893	37.93
626.085	37.93
626.276	37.84
626.467	37.8
626.658	37.85
626.849	37.8
627.04	37.63
627.231	37.69
627.422	37.93
627.614	38.06
627.805	38.19
627.996	38.12
628.187	38.37
628.378	38.54
628.569	38.78
628.76	39.29
628.951	39.49
629.142	39.84
629.332	40.15
629.523	40.39
629.714	40.69
629.905	40.96
630.096	41.29
630.287	41.36
630.478	41.41
630.669	41.42
630.859	41.07
631.05	41.12
631.241	40.88
631.432	40.57
631.623	40.29
631.813	39.78
632.004	39.21
632.195	38.86
632.385	38.38
632.576	38.08
632.767	37.62
632.957	37.32
633.148	36.88
633.339	36.54
633.529	36.26
633.72	36.08
633.91	35.91
634.101	35.96
634.292	35.83
634.482	35.82
634.673	35.74
634.863	35.88
635.054	35.67
635.244	35.68
635.435	35.81
635.625	35.69
635.815	35.48
636.006	35.63
636.196	35.52
636.387	35.57
636.577	35.64
636.767	35.63
636.958	35.56
637.148	35.7
637.338	35.71
637.529	35.56
637.719	35.76
637.909	35.95
638.099	35.95
638.29	36
638.48	36.16
638.67	36.21
638.86	36.16
639.05	36.18
639.241	36.12
639.431	36.05
639.621	36.1
639.811	36.18
640.001	36.24
640.191	36.2
640.381	36.12
640.571	35.99
640.761	35.9
640.951	35.93
641.141	35.92
641.331	36
641.521	35.99
641.711	36.06
641.901	36.02
642.091	35.95
642.281	36.14
642.471	36.39
642.661	36.3
642.851	36.35
643.041	36.46
643.231	36.46
643.42	36.35
643.61	36.51
643.8	36.63
643.99	36.51
644.18	36.47
644.369	36.48
644.559	36.67
644.749	36.86
644.939	36.73
645.128	36.82
645.318	36.72
645.508	36.84
645.697	36.79
645.887	36.83
646.076	36.95
646.266	37.08
646.456	37.12
646.645	36.69
646.835	36.68
647.024	36.8
647.214	36.66
647.403	36.87
647.593	36.96
647.782	37.07
647.972	37.04
648.161	37.14
648.351	37.22
648.54	37.5
648.73	37.63
648.919	37.67
649.108	37.7
649.298	37.92
649.487	38.02
649.677	38.18
649.866	38.16
650.055	38.15
650.244	37.98
650.434	38.15
650.623	37.86
650.812	38.08
651.002	38.02
651.191	38
651.38	37.9
651.569	37.92
651.758	37.77
651.947	37.81
652.137	37.88
652.326	38.18
652.515	37.87
652.704	37.8
652.893	37.8
653.082	37.93
653.271	37.86
653.46	37.6
653.649	37.74
653.838	37.73
654.027	37.71
654.216	37.69
654.405	37.4
654.594	37.52
654.783	37.46
654.972	37.17
655.161	37.12
655.35	37.07
655.539	37.35
655.728	37.17
655.916	37.16
656.105	36.96
656.294	36.72
656.483	36.68
656.672	36.64
656.86	36.7
657.049	36.59
657.238	36.41
657.427	36.47
657.615	36.39
657.804	36.09
657.993	35.94
658.181	35.9
658.37	35.87
658.559	35.97
658.747	35.68
658.936	35.7
659.125	35.76
659.313	35.89
659.502	35.87
659.69	35.77
659.879	35.87
660.067	36.01
660.256	36.13
660.444	36.19
660.633	36.16
660.821	36.65
661.01	36.78
661.198	36.96
661.387	36.96
661.575	37.15
661.763	37.32
661.952	37.49
662.14	37.68
662.328	37.6
662.517	37.88
662.705	37.97
662.893	37.93
663.082	37.79
663.27	37.74
663.458	37.75
663.646	37.83
663.834	37.72
664.023	37.62
664.211	37.55
664.399	37.81
664.587	37.64
664.775	37.64
664.963	37.53
665.152	37.61
665.34	37.42
665.528	37.54
665.716	37.45
665.904	37.6
666.092	37.89
666.28	37.93
666.468	37.81
666.656	37.86
666.844	38
667.032	38.08
667.22	38.02
667.408	38.4
667.596	38.46
667.784	38.38
667.971	38.12
668.159	37.82
668.347	37.64
668.535	37.59
668.723	37.49
668.911	37.29
669.098	37.14
669.286	37.33
669.474	37.12
669.662	36.81
669.849	36.85
670.037	37.04
670.225	37.27
670.413	37.31
670.6	37.47
670.788	37.46
670.976	37.4
671.163	37.33
671.351	37.19
671.538	37.3
671.726	37.51
671.913	37.42
672.101	37.4
672.289	37.26
672.476	37.39
672.664	37.52
672.851	37.54
673.039	37.72
673.226	37.81
673.413	37.71
673.601	37.69
673.788	37.68
673.976	38.07
674.163	38
674.35	37.95
674.538	38.04
674.725	38.03
674.912	38.13
675.1	38.06
675.287	38.15
675.474	38.26
675.662	38.44
675.849	38.49
676.036	38.12
676.223	38.35
676.411	38.49
676.598	38.4
676.785	38.23
676.972	38.18
677.159	38.05
677.346	38.21
677.533	38.13
677.721	38.09
677.908	37.88
678.095	37.79
678.282	37.78
678.469	37.52
678.656	37.3
678.843	37.24
679.03	37.23
679.217	37.42
679.404	37.2
679.591	37.14
679.778	36.98
679.964	37.09
680.151	37.05
680.338	36.84
680.525	36.99
680.712	36.89
680.899	37.02
681.086	37.15
681.272	37.06
681.459	37.03
681.646	37.17
681.833	37.17
682.02	37.11
682.206	37.47
682.393	37.33
682.58	37.25
682.766	37.56
682.953	37.4
683.14	37.21
683.326	37.42
683.513	37.43
683.7	37.48
683.886	37.58
684.073	37.62
684.259	37.42
684.446	37.83
684.632	37.95
684.819	37.8
685.005	38.08
685.192	38.11
685.378	38.19
685.565	38.38
685.751	38.39
685.938	38.08
686.124	38.31
686.31	38.32
686.497	38.35
686.683	38.7
686.87	38.94
687.056	38.72
687.242	38.67
687.429	38.49
687.615	38.42
687.801	38.38
687.987	38.8
688.174	38.7
688.36	38.69
688.546	38.72
688.732	38.34
688.918	37.99
689.105	37.95
689.291	38.04
689.477	38.15
689.663	38.09
689.849	38.09
690.035	38.07
690.221	38.2
690.407	38.17
690.593	37.98
690.779	38.18
690.965	38.2
691.151	38.35
691.337	38.67
691.523	38.94
691.709	39.13
691.895	39.24
692.081	39.4
692.267	39.53
692.453	39.88
692.639	40.11
692.825	39.9
693.011	40.44
693.196	40.22
693.382	39.99
693.568	39.58
693.754	39.81
693.94	39.95
694.125	39.6
694.311	39.28
694.497	38.99
694.682	38.79
694.868	38.98
695.054	38.75
695.239	39.04
695.425	38.57
695.611	38.78
695.796	38.21
695.982	37.75
696.168	37.79
696.353	37.54
696.539	37.32
696.724	37.1
696.91	36.89
697.095	36.61
697.281	36.41
697.466	36.68
697.652	36.32
697.837	36.19
698.023	36.25
698.208	36.13
698.393	36.08
698.579	36.11
698.764	36.05
698.949	35.91
699.135	35.93
699.32	36.18
699.505	35.88
699.691	35.95
699.876	35.93
700.061	36.15
700.246	36.24
700.432	36.36
700.617	36.31
700.802	36.62
700.987	37.02
701.172	37.01
701.358	37.14
701.543	37.68
701.728	37.99
701.913	38.28
702.098	38.2
702.283	38.39
702.468	38.3
702.653	38.8
702.838	39.23
703.023	39.09
703.208	39.65
703.393	39.78
703.578	39.97
703.763	40.51
703.948	41.03
704.133	41.29
704.318	41.55
704.503	42.16
704.688	42.46
704.873	42.61
705.057	43.29
705.242	43.41
705.427	43.65
705.612	43.96
705.797	43.75
705.981	44.07
706.166	44.55
706.351	45.22
706.536	45.53
706.72	45.9
706.905	46.33
707.09	46.8
707.274	47.22
707.459	46.98
707.644	47.12
707.828	47.5
708.013	47.82
708.197	47.6
708.382	47.29
708.567	47.13
708.751	46.57
708.936	46.32
709.12	45.68
709.305	45.49
709.489	45.41
709.673	45.33
709.858	44.9
710.042	44.76
710.227	45.16
710.411	45.01
710.596	45.19
710.78	45.58
710.964	45.49
711.149	45.59
711.333	45.93
711.517	46.04
711.702	45.83
711.886	45.89
712.07	45.22
712.254	44.86
712.438	44.7
712.623	44.34
712.807	43.82
712.991	43.59
713.175	43.22
713.359	42.52
713.544	41.95
713.728	41.57
713.912	40.74
714.096	40.55
714.28	39.71
714.464	39.48
714.648	39.06
714.832	38.78
715.016	38.28
715.2	38.1
715.384	37.68
715.568	37.7
715.752	37.55
715.936	37.81
716.12	37.99
716.304	38.42
716.488	38.41
716.671	38.57
716.855	38.74
717.039	38.51
717.223	38.71
717.407	38.55
717.59	38.55
717.774	38.51
717.958	38.48
718.142	38.24
718.325	38.11
718.509	38.13
718.693	37.96
718.877	37.76
719.06	38.34
719.244	38.29
719.428	38.84
719.611	38.89
719.795	39.26
719.978	39.47
720.162	39.62
720.345	39.63
720.529	39.78
720.713	39.98
720.896	39.97
721.08	39.98
721.263	40.08
721.446	39.98
721.63	40.09
721.813	40.02
721.997	40.67
722.18	40.98
722.364	41.28
722.547	41.01
722.73	40.92
722.914	41.13
723.097	40.95
723.28	40.97
723.464	40.99
723.647	41.01
723.83	40.71
724.013	40.12
724.197	40.04
724.38	39.41
724.563	39.26
724.746	39.03
724.929	38.98
725.112	38.73
725.296	38.63
725.479	38.67
725.662	39.16
725.845	39.39
726.028	39.39
726.211	38.95
726.394	39.13
726.577	39.1
726.76	39.6
726.943	39.34
727.126	39.27
727.309	39.09
727.492	38.95
727.675	38.49
727.858	38.36
728.041	38.52
728.224	38.48
728.407	38.53
728.589	38.74
728.772	38.45
728.955	38.49
729.138	38.89
729.321	38.92
729.503	39.17
729.686	38.85
729.869	38.94
730.052	38.87
730.234	38.99
730.417	39.45
730.6	38.98
730.782	39.17
730.965	39.23
731.148	38.82
731.33	39.11
731.513	38.94
731.695	39.09
731.878	38.8
732.061	38.76
732.243	38.69
732.426	38.29
732.608	38.87
732.791	38.71
732.973	38.59
733.156	38.92
733.338	38.58
733.52	38.88
733.703	38.79
733.885	39.12
734.068	39.06
734.25	39.34
734.432	39.52
734.615	39.43
734.797	39.64
734.979	40.17
735.162	40.29
735.344	40.38
735.526	40.04
735.708	40.92
735.891	41.17
736.073	41.29
736.255	41.5
736.437	41.35
736.619	41.65
736.802	41.86
736.984	41.41
737.166	42.09
737.348	42.6
737.53	42.63
737.712	42.26
737.894	42.25
738.076	42.18
738.258	41.79
738.44	42.13
738.622	41.9
738.804	41.68
738.986	41.99
739.168	41.08
739.35	41.14
739.532	41.69
739.714	41.56
739.896	41.72
740.078	41.73
740.259	41.47
740.441	41.38
740.623	41.59
740.805	41.61
740.987	41.16
741.168	41.89
741.35	41.25
741.532	40.64
741.714	40.88
741.895	40.63
742.077	40.68
742.259	41.74
742.44	41.77
742.622	42.1
742.804	42.56
742.985	43.2
743.167	42.72
743.348	42.9
743.53	43.02
743.711	43.45
743.893	43.55
744.075	43.84
744.256	43.93
744.438	43.64
744.619	43.7
744.8	43.7
744.982	43.84
745.163	44.05
745.345	44.2
745.526	44.38
745.707	43.59
745.889	43.95
746.07	44.06
746.252	43.66
746.433	44.07
746.614	43.55
746.795	42.78
746.977	42.31
747.158	42.49
747.339	42.87
747.52	43.26
747.702	43.87
747.883	43.54
748.064	43.05
748.245	42.87
748.426	42.57
748.607	42.69
748.788	42.99
748.97	43.22
749.151	43.21
749.332	42.69
749.513	42.44
749.694	41.92
749.875	41.95
750.056	42.49
750.237	42.83
750.418	43.06
750.599	42.95
750.78	43.84
750.96	44.18
751.141	44.09
751.322	44.6
751.503	44.06
751.684	44.1
751.865	43.92
752.046	43.59
752.226	43.17
752.407	42.83
752.588	42.71
752.769	41.77
752.949	41.63
753.13	41.68
753.311	40.9
753.492	41.6
753.672	42.42
753.853	42.32
754.034	42.25
754.214	42.26
754.395	42.33
754.575	42.95
754.756	43.07
754.937	42.97
755.117	42.79
755.298	43.43
755.478	43.56
755.659	43.14
755.839	43.58
756.02	43.66
756.2	44.06
756.381	44.1
756.561	43.68
756.741	43.77
756.922	43.93
757.102	44.04
757.283	43.23
757.463	43.05
757.643	43.12
757.823	42.85
758.004	42.41
758.184	42.08
758.364	42.24
758.545	41.98
758.725	41.9
758.905	41.15
759.085	40.76
759.265	41.2
759.446	40.6
759.626	39.68
759.806	39.75
759.986	39.82
760.166	39.91
760.346	39.37
760.526	39.23
760.706	39.44
760.886	39.99
761.066	39.98
761.246	39.77
761.426	40.27
761.606	40.32
761.786	39.59
761.966	39.36
762.146	38.4
762.326	38.19
762.506	38.17
762.686	37.88
762.866	37.27
763.046	37.15
763.225	37.03
763.405	36.59
763.585	36.84
763.765	37.28
763.945	37.21
764.124	37.67
764.304	37.71
764.484	37.86
764.664	37.97
764.843	38.25
765.023	38.46
765.203	38.72
765.382	39.24
765.562	39.34
765.741	39.49
765.921	39.91
766.101	40.28
766.28	40.68
766.46	40.9
766.639	40.91
766.819	41.51
766.998	41.66
767.178	41.64
767.357	41.82
767.537	42.25
767.716	42.77
767.896	43.48
768.075	43.75
768.254	43.72
768.434	43.71
768.613	44.14
768.792	43.75
768.972	44.37
769.151	44.77
769.33	44.55
769.51	43.89
769.689	43.69
769.868	43.28
770.047	43.31
770.226	43.82
770.406	43.23
770.585	43.54
770.764	43.9
770.943	43.24
771.122	43.59
771.301	43.87
771.48	44.69
771.66	44.6
771.839	44.27
772.018	44.38
772.197	44.38
772.376	45.16
772.555	45.09
772.734	44.96
772.913	44.97
773.092	44.82
773.271	44.87
773.449	44.98
773.628	45.31
773.807	45.76
773.986	45.9
774.165	46.41
774.344	46.18
774.523	46.14
774.701	46.39
774.88	47.12
775.059	46.82
775.238	46.61
775.417	46.02
775.595	45.94
775.774	46.22
775.953	45.99
776.131	45.39
776.31	45.93
776.489	45.78
776.667	45.98
776.846	45.11
777.025	44.55
777.203	45.06
777.382	45.24
777.56	44.85
777.739	44.92
777.917	44.17
778.096	44.6
778.274	44.65
778.453	45.01
778.631	45.87
778.81	46.19
778.988	46.04
779.166	45.46
779.345	45.42
779.523	45.69
779.702	45.3
779.88	45.68
780.058	46.01
780.237	46.07
780.415	46.29
780.593	44.89
780.771	45.34
780.95	46.05
781.128	46.12
781.306	46.09
781.484	46
781.662	46.17
781.841	46.78
782.019	46.47
782.197	46.18
782.375	45.2
782.553	45.71
782.731	44.93
782.909	45.15
783.087	45.08
783.265	45.17
783.443	45.19
783.621	45.2
783.799	45.87
783.977	45.46
784.155	45.55
784.333	45.74
784.511	45.22
784.689	45.66
784.867	46.15
785.045	46.8
785.223	46.57
785.4	47.04
785.578	47.3
785.756	46.45
785.934	46
786.112	45.8
786.289	46.37
786.467	46.48
786.645	46.3
786.823	45.5
787	44.35
787.178	44.66
787.356	43.41
787.533	43.08
787.711	42.57
787.889	43.6
788.066	42.95
788.244	41.95
788.421	41.69
788.599	41.89
788.776	41.93
788.954	42.68
789.131	42.27
789.309	42.17
789.486	42.72
789.664	43.74
789.841	42.9
790.019	43.65
790.196	44.66
790.373	44.49
790.551	44.73
790.728	44.6
790.906	44.09
791.083	45.11
791.26	45.32
791.437	45.09
791.615	44.98
791.792	45.23
791.969	45.66
792.146	45.21
792.324	45.95
792.501	46.11
792.678	47.1
792.855	47.61
793.032	46.98
793.209	48.31
793.387	47.96
793.564	47.59
793.741	47.75
793.918	47.2
794.095	47.08
794.272	46.99
794.449	47.03
794.626	46.07
794.803	45.7
794.98	46.01
795.157	46.03
795.334	46.34
795.511	45.93
795.688	45.74
795.864	44.93
796.041	45.68
796.218	45.9
796.395	45.38
796.572	45.18
796.749	45.3
796.925	45.41
797.102	45
797.279	45.22
797.456	45.56
797.632	46.36
797.809	47.08
797.986	46.5
798.162	46.86
798.339	46.74
798.516	47.55
798.692	48.27
798.869	48.77
799.046	47.84
799.222	47.25
799.399	46.98
799.575	46.39
799.752	46.55
799.928	46.42
800.105	46.07
800.281	46.5
800.458	46.58
800.634	45.89
800.811	45.79
800.987	46.74
801.163	46.91
801.34	47.64
801.516	46.74
801.692	46.39
801.869	47.01
802.045	47.63
802.221	47.4
802.398	47.71
802.574	47.74
802.75	47.2
802.926	46.89
803.103	47.31
803.279	47.19
803.455	48.67
803.631	50.04
803.807	49.88
803.983	49.14
804.16	49.33
804.336	48.84
804.512	48.96
804.688	49.37
804.864	49.51
805.04	49.26
805.216	48.4
805.392	47.91
805.568	47.39
805.744	47.16
805.92	47.61
806.096	47.77
806.272	48.71
806.448	48.64
806.623	49.45
806.799	49.27
806.975	49.47
807.151	49.97
807.327	51.82
807.503	51.7
807.678	51.85
807.854	51.86
808.03	52.75
808.206	52.22
808.381	51.69
808.557	50.37
808.733	51.48
808.908	51.61
809.084	52.02
809.26	50.13
809.435	50.86
809.611	50.99
809.787	50.81
809.962	50.02
810.138	50.45
810.313	50.87
810.489	50.6
810.664	50.39
810.84	49.16
811.015	49.03
811.191	50.21
811.366	49.24
811.542	49.75
811.717	49.41
811.892	50.2
812.068	49.68
812.243	49.6
812.419	49.91
812.594	48.77
812.769	49.08
812.944	48.48
813.12	47.85
813.295	48.16
813.47	47.53
813.645	47.58
813.821	46.52
813.996	46.12
814.171	46.52
814.346	47.5
814.521	49.31
814.697	49.96
814.872	49.84
815.047	50.16
815.222	49.9
815.397	48.59
815.572	48.75
815.747	48.85
815.922	48.72
816.097	48.84
816.272	47.87
816.447	47.73
816.622	47.14
816.797	47.25
816.972	46.6
817.147	46.18
817.322	47.61
817.496	46.57
817.671	46.53
817.846	47.14
818.021	46.57
818.196	45.48
818.371	44.65
818.545	44.91
818.72	44.61
818.895	44.77
819.069	44.49
819.244	44.33
819.419	44.08
819.594	43.24
819.768	42.13
819.943	42.25
820.117	42.03
820.292	40.75
820.467	39.09
820.641	38.66
820.816	36.88
820.99	36.47
821.165	35.25
821.339	34.65
821.514	34.07
821.688	33.78
821.863	32.84
822.037	32.31
822.212	31.78
822.386	31.57
822.56	31.21
822.735	31.44
822.909	31.21
823.084	31.29
823.258	31.43
823.432	31.29
823.606	31.24
823.781	31.74
823.955	31.84
824.129	32.29
824.303	32.72
824.478	32.97
824.652	33.12
824.826	33.36
825	33.85
825.174	34.02
825.348	34.42
825.523	34.48
825.697	34.49
825.871	34.86
826.045	34.83
826.219	35
826.393	35.33
826.567	35.77
826.741	35.92
826.915	35.39
827.089	35.36
827.263	35.19
827.437	35.29
827.611	35.46
827.784	35.75
827.958	35.83
828.132	35.79
828.306	35.94
828.48	35.88
828.654	36.26
828.827	37.38
829.001	37.67
829.175	38.49
829.349	39.55
829.522	39.82
829.696	40.43
829.87	41.37
830.044	42.11
830.217	42.5
830.391	42.41
830.565	42.33
830.738	41.47
830.912	42.19
831.085	42.2
831.259	42.8
831.432	42.81
831.606	43.03
831.779	43.1
831.953	43.26
832.126	42.54
832.3	42.01
832.473	42
832.647	41.86
832.82	41.87
832.994	41.52
833.167	40.63
833.34	40.71
833.514	39.76
833.687	39.6
833.86	39
834.034	38.57
834.207	38.48
834.38	38.25
834.553	38.4
834.727	38.11
834.9	38.39
835.073	38.07
835.246	37.7
835.419	38.25
835.593	38.73
835.766	39.21
835.939	40.02
836.112	41.36
836.285	41.96
836.458	42.74
836.631	43.63
836.804	44.05
836.977	45.2
837.15	45.1
837.323	45.94
837.496	46.27
837.669	46.67
837.842	47.36
838.015	47
838.188	48.69
838.361	48.54
838.533	47.79
838.706	48.85
838.879	50.09
839.052	51.43
839.225	50.65
839.398	49.79
839.57	49.91
839.743	51.01
839.916	50.82
840.088	49.78
840.261	50.59
840.434	51.18
840.607	50.68
840.779	48.95
840.952	48.82
841.124	50.45
841.297	50.43
841.47	51.05
841.642	50.81
841.815	51.18
841.987	51.88
842.16	51.3
842.332	52.26
842.505	53.75
842.677	54.33
842.85	55.61
843.022	56.08
843.194	56.62
843.367	57.57
843.539	57.37
843.712	57.31
843.884	57.45
844.056	57.34
844.229	57.39
844.401	57.65
844.573	59.21
844.745	59.56
844.918	57.95
845.09	59
845.262	58.23
845.434	58.95
845.606	61.27
845.779	61.17
845.951	61.72
846.123	59.72
846.295	57.42
846.467	57.13
846.639	58.25
846.811	58.89
846.983	58.84
847.155	59.61
847.327	59.9
847.499	58.91
847.671	60.34
847.843	60.82
848.015	62.59
848.187	65.16
848.359	66.68
848.531	64.75
848.703	64.52
848.875	64.74
849.047	66.49
849.218	66.93
849.39	66.45
849.562	64.48
849.734	64.18
849.905	65.19
850.077	62.48
850.249	60.88
850.421	61.32
850.592	63.04
850.764	62.82
850.936	61.57
851.107	61.9
851.279	63.87
851.451	63.7
851.622	64.46
851.794	64.59
851.965	67.1
852.137	69.04
852.308	70.16
852.48	70.47
852.651	73.17
852.823	71.73
852.994	70.93
853.166	68.89
853.337	73.46
853.509	72.1
853.68	71.18
853.851	69.64
854.023	67.38
854.194	68.09
854.365	64.86
854.537	63.36
854.708	62.14
854.879	62.6
855.05	63.48
855.222	61.04
855.393	62.05
855.564	63.3
855.735	63.52
855.906	64.37
856.078	62.7
856.249	64.62
856.42	65.21
856.591	65.9
856.762	65.44
856.933	66.07
857.104	65.75
857.275	65.97
857.446	65.38
857.617	67.52
857.788	67.15
857.959	69.36
858.13	69.06
858.301	67.85
858.472	69.66
858.643	69.09
858.814	67.93
858.985	66.82
859.155	66.89
859.326	67.88
859.497	67.75
859.668	66.62
859.839	62.56
860.009	64.04
860.18	64.96
860.351	64.02
860.522	64.18
860.692	64.81
860.863	65.36
861.034	65.38
861.204	65.07
861.375	68.04
861.546	69.1
861.716	71.63
861.887	71.64
862.057	72.29
862.228	73.55
862.398	72.76
862.569	70.92
862.739	70.44
862.91	71.83
863.08	69.22
863.251	63.96
863.421	64.37
863.592	63.6
863.762	62.05
863.932	62.46
864.103	61.39
864.273	61.91
864.443	62.65
864.614	61.21
864.784	60.13
864.954	62.02
865.125	63.7
865.295	64.59
865.465	64.7
865.635	63.52
865.805	62.88
865.976	62.86
866.146	64.21
866.316	66.49
866.486	70.56
866.656	70.28
866.826	70.62
866.996	69.4
867.166	68.45
867.336	69.57
867.506	70.59
867.676	73.83
867.846	74.94
868.016	73.43
868.186	70.72
868.356	67.63
868.526	66.06
868.696	63.14
868.866	65.33
869.036	61.36
869.206	61.89
869.376	62.56
869.545	57.97
869.715	57.98
869.885	58.4
870.055	59.55
870.224	59.7
870.394	61.03
870.564	63.88
870.734	63.83
870.903	67.62
871.073	67.1
871.243	65.2
871.412	66.9
871.582	66.18
871.751	67.6
871.921	68.04
872.091	69.53
872.26	67.55
872.43	66.45
872.599	65.8
872.769	66.67
872.938	65.74
873.108	68.59
873.277	67.43
873.446	67.84
873.616	68.24
873.785	68.82
873.955	69.22
874.124	70.98
874.293	69.51
874.463	68.14
874.632	67.17
874.801	67.47
874.971	65.89
875.14	65.44
875.309	65.19
875.478	62.76
875.647	60.91
875.817	58.24
875.986	59.07
876.155	61.57
876.324	61.8
876.493	61.8
876.662	60.9
876.831	61.99
877	62.68
877.17	60.68
877.339	60.7
877.508	60.98
877.677	63.23
877.846	63.16
878.015	60.31
878.184	60.34
878.352	61.16
878.521	60.89
878.69	59.93
878.859	59.59
879.028	59.27
879.197	58.52
879.366	57.47
879.534	54.85
879.703	53.22
879.872	52.4
880.041	50.59
880.21	48.91
880.378	47.25
880.547	45.28
880.716	43.98
880.884	42.23
881.053	41.1
881.222	39.55
881.39	38.62
881.559	36.99
881.727	36.19
881.896	36
882.065	35.38
882.233	34.94
882.402	34.66
882.57	34.5
882.739	34.67
882.907	34.33
883.076	35.04
883.244	35.7
883.412	36.09
883.581	36.87
883.749	36.87
883.918	36.09
884.086	37.39
884.254	38.59
884.423	39.07
884.591	40.13
884.759	41.31
884.927	41.36
885.096	41.83
885.264	42.5
885.432	42.56
885.6	43.31
885.769	46.14
885.937	45.18
886.105	45.28
886.273	46.22
886.441	47.79
886.609	48.23
886.777	50.1
886.945	50.44
887.113	50.85
887.281	51.53
887.449	52.88
887.617	52.02
887.785	54.13
887.953	55.24
888.121	56.54
888.289	56.69
888.457	59.9
888.625	59.39
888.793	59.38
888.961	60.37
889.129	62.85
889.296	61.69
889.464	63.89
889.632	63.81
889.8	63.25
889.967	62.64
890.135	60.47
