Data from 2938755__Reflection_01.txt Node
Date: Fri Mar 13 19:06:56 EDT 2015
User: robert
Spectrometer: USB4E03002
Autoset integration time: false
Trigger mode: 4
Integration Time (sec): 1.000000E-1
Scans to average: 10
Electric dark correction enabled: false
Nonlinearity correction enabled: false
Boxcar width: 5
Stray light correction enabled: false
XAxis mode: Wavelengths
Stop averaging: false
Number of Pixels in Spectrum: 3648
>>>>>Begin Spectral Data<<<<<
177.575	-34.09
177.794	-564.29
178.014	-20.69
178.233	-45.95
178.452	21300
178.672	130.06
178.891	40.86
179.11	-39.33
179.33	-47.15
179.549	40.96
179.768	78.33
179.987	106.45
180.207	177.27
180.426	87.73
180.645	290
180.864	241.9
181.084	117.67
181.303	95.7
181.522	72.27
181.741	95.91
181.96	104.97
182.179	107.19
182.398	120.61
182.618	133.05
182.837	125.33
183.056	181.78
183.275	139.13
183.494	107.37
183.713	292.06
183.932	252.5
184.151	-1500
184.37	61.64
184.589	77.7
184.808	94.91
185.027	106.82
185.246	61.93
185.465	54.84
185.684	63.11
185.903	65.18
186.122	157.66
186.341	-29.46
186.56	961.54
186.779	41.53
186.998	72.09
187.216	92.5
187.435	113.5
187.654	78.11
187.873	70.86
188.092	55.15
188.311	63.87
188.53	86.62
188.748	44.19
188.967	44.44
189.186	144.59
189.405	-30.72
189.623	41.44
189.842	72.53
190.061	13.16
190.28	16.47
190.498	17.62
190.717	49.3
190.936	58.39
191.154	40.08
191.373	23.94
191.592	72.02
191.81	-350
192.029	20
192.248	82.8
192.466	62.7
192.685	30.09
192.904	10.65
193.122	110.64
193.341	123.68
193.559	546.15
193.778	-63.64
193.996	38.82
194.215	41.76
194.433	26.17
194.652	169.44
194.87	275
195.089	-9.76
195.307	-38.71
195.526	46.87
195.744	36.08
195.963	15.8
196.181	38.07
196.399	51.59
196.618	53.61
196.836	74.1
197.055	89.06
197.273	-10.47
197.491	47.41
197.71	61.28
197.928	87.97
198.146	109.62
198.365	220.2
198.583	138.54
198.801	110.88
199.019	62.04
199.238	-28.84
199.456	4.64
199.674	38
199.892	17.81
200.111	43.55
200.329	53.42
200.547	43.15
200.765	58.01
200.983	66.02
201.202	27.49
201.42	59.94
201.638	72.91
201.856	70.61
202.074	60.36
202.292	24.4
202.51	29.07
202.728	-8.13
202.946	-10.26
203.165	-26.04
203.383	-274.23
203.601	-257.61
203.819	-75.7
204.037	-26.07
204.255	-10.83
204.473	24.41
204.691	61.87
204.909	81.04
205.127	108.99
205.345	98
205.562	85.49
205.78	133.82
205.998	160.32
206.216	178.37
206.434	102.36
206.652	116.7
206.87	120.18
207.088	109.16
207.306	86.1
207.523	84.27
207.741	113.95
207.959	126.84
208.177	112.52
208.395	130.96
208.612	169.21
208.83	177.45
209.048	126.6
209.266	101.6
209.483	115.25
209.701	148.52
209.919	103.57
210.136	76.09
210.354	31.06
210.572	55.11
210.79	38.66
211.007	63.5
211.225	65.42
211.442	67.07
211.66	74.7
211.878	44.05
212.095	48.86
212.313	66.76
212.53	94.98
212.748	131.82
212.966	70.71
213.183	57.08
213.401	44.95
213.618	45.11
213.836	10.08
214.053	-114.78
214.271	-32.25
214.488	-12.99
214.705	-14.84
214.923	-11.01
215.14	-9.57
215.358	26.12
215.575	49.72
215.793	57.16
216.01	69.32
216.227	67.92
216.445	71.78
216.662	69.26
216.879	59.32
217.097	56.85
217.314	42.93
217.531	41.37
217.749	19.04
217.966	5.61
218.183	2.68
218.4	-16.96
218.618	-6.06
218.835	-10.98
219.052	-2.33
219.269	-6.86
219.487	-2.92
219.704	8.85
219.921	18.42
220.138	16.36
220.355	7.11
220.572	8.49
220.79	15.9
221.007	8.55
221.224	2.85
221.441	4.43
221.658	11.72
221.875	10.86
222.092	20.79
222.309	12.08
222.526	10.39
222.743	11.42
222.96	8.28
223.177	5.09
223.394	10.8
223.611	14.06
223.828	12.29
224.045	7.71
224.262	7.23
224.479	0.87
224.696	3.67
224.913	5.39
225.13	8.43
225.347	10.54
225.564	13.94
225.781	9.89
225.997	10.41
226.214	11.69
226.431	10.24
226.648	11.98
226.865	9.54
227.082	9.07
227.298	6.32
227.515	6.24
227.732	6.66
227.949	4.68
228.165	5.14
228.382	6.17
228.599	5.67
228.816	5.69
229.032	5.37
229.249	5.08
229.466	5.32
229.682	6.49
229.899	6.6
230.116	5.8
230.332	6.15
230.549	5.85
230.765	3.9
230.982	3.31
231.199	4.36
231.415	4.37
231.632	4.61
231.848	3.94
232.065	3.75
232.281	3.57
232.498	4.62
232.714	4.77
232.931	6.16
233.147	7.19
233.364	8.16
233.58	6.71
233.797	5.06
234.013	5.07
234.23	4.67
234.446	2.99
234.662	1.24
234.879	-0.56
235.095	0.09
235.312	-0.82
235.528	-1.88
235.744	-3.29
235.961	-2.25
236.177	-0.23
236.393	-0.13
236.61	0.45
236.826	2.87
237.042	4.3
237.258	5.67
237.475	6.15
237.691	5.77
237.907	5.5
238.123	6.82
238.339	5.93
238.556	4.78
238.772	4.22
238.988	3.17
239.204	3.17
239.42	3.44
239.636	3.62
239.853	4.09
240.069	4.72
240.285	6.11
240.501	6.39
240.717	5.66
240.933	5.75
241.149	6.16
241.365	6.23
241.581	5.33
241.797	5.14
242.013	5.04
242.229	4.41
242.445	3.98
242.661	3.4
242.877	2.97
243.093	3.32
243.309	3.36
243.525	3.28
243.741	2.91
243.957	3.31
244.173	3.54
244.388	4.4
244.604	3.62
244.82	4
245.036	4.27
245.252	3.62
245.468	3.72
245.683	3.74
245.899	3.97
246.115	4.21
246.331	4.19
246.547	4.13
246.762	3.68
246.978	4.14
247.194	3.87
247.409	3.97
247.625	4.24
247.841	4.07
248.057	4.05
248.272	4.13
248.488	4.28
248.703	4.24
248.919	3.82
249.135	3.69
249.35	3.58
249.566	3.87
249.782	3.63
249.997	3.87
250.213	3.97
250.428	3.53
250.644	3.03
250.859	2.99
251.075	2.15
251.29	2.66
251.506	2.6
251.721	3
251.937	3.53
252.152	3.12
252.368	3.21
252.583	3.23
252.798	3.96
253.014	4.13
253.229	3.97
253.445	5.13
253.66	4.83
253.875	5.08
254.091	5.74
254.306	6.07
254.521	6.41
254.737	6.27
254.952	6.56
255.167	6.73
255.383	6.14
255.598	5.68
255.813	4.76
256.028	5.56
256.244	5.53
256.459	4.7
256.674	4.25
256.889	4.75
257.104	5.07
257.32	4.69
257.535	3.05
257.75	3.03
257.965	3.34
258.18	3.51
258.395	3.12
258.61	2.82
258.826	2.3
259.041	1.7
259.256	1.65
259.471	1.45
259.686	1.39
259.901	1.88
260.116	1.78
260.331	1.56
260.546	1.68
260.761	1.67
260.976	1.83
261.191	2.08
261.406	2.21
261.621	2.18
261.836	1.87
262.05	1.74
262.265	1.49
262.48	1.73
262.695	1.76
262.91	1.39
263.125	1.48
263.34	0.99
263.555	1.32
263.769	1.16
263.984	1.17
264.199	1.75
264.414	1.99
264.629	2.12
264.843	1.64
265.058	1.84
265.273	1.91
265.488	1.7
265.702	1.13
265.917	0.6
266.132	1.17
266.346	1.33
266.561	1.88
266.776	2.17
266.99	2.07
267.205	2.24
267.42	2.15
267.634	2.23
267.849	2.73
268.063	3.55
268.278	3.48
268.492	3.18
268.707	3.03
268.922	2.42
269.136	1.98
269.351	1.92
269.565	1.84
269.78	1.91
269.994	2.05
270.209	1.57
270.423	1.67
270.637	1.62
270.852	1.73
271.066	1.5
271.281	1.7
271.495	1.9
271.709	2.22
271.924	2.42
272.138	2.24
272.353	2.25
272.567	2.16
272.781	2.03
272.996	1.95
273.21	1.95
273.424	2.39
273.638	2.48
273.853	2.54
274.067	2.28
274.281	2.17
274.495	2.34
274.71	2.13
274.924	2.42
275.138	2.86
275.352	2.88
275.566	3.1
275.781	3.07
275.995	2.73
276.209	2.92
276.423	2.85
276.637	2.92
276.851	3.33
277.065	3.62
277.279	3.08
277.493	3.11
277.707	2.78
277.921	2.39
278.135	2.42
278.349	2.88
278.563	2.79
278.777	3.26
278.991	2.96
279.205	2.46
279.419	1.93
279.633	2.42
279.847	1.83
280.061	2.15
280.275	2.6
280.489	2.23
280.703	2.33
280.917	2.1
281.131	1.63
281.344	1.79
281.558	1.9
281.772	2.22
281.986	2.41
282.2	2.19
282.414	2.19
282.627	2.4
282.841	2.53
283.055	2.04
283.269	1.87
283.482	1.75
283.696	1.98
283.91	1.4
284.123	1.52
284.337	1.42
284.551	1.65
284.764	1.78
284.978	1.43
285.192	0.92
285.405	0.91
285.619	1.11
285.833	1.5
286.046	1.26
286.26	1.66
286.473	1.55
286.687	1.57
286.9	1.6
287.114	1.64
287.327	1.54
287.541	2.17
287.754	2.45
287.968	2.52
288.181	2.31
288.395	2.42
288.608	2.46
288.822	2.34
289.035	2.38
289.248	2.24
289.462	2.21
289.675	2.15
289.889	1.86
290.102	1.86
290.315	1.73
290.529	1.71
290.742	1.84
290.955	2.07
291.169	2.44
291.382	2.36
291.595	2.9
291.808	2.89
292.022	3.49
292.235	3.88
292.448	3.77
292.661	3.67
292.875	3.82
293.088	3.45
293.301	3.25
293.514	2.77
293.727	2.71
293.94	2.13
294.153	2.39
294.367	1.87
294.58	1.71
294.793	1.79
295.006	1.88
295.219	1.78
295.432	1.99
295.645	2.05
295.858	2.27
296.071	2.24
296.284	2.71
296.497	2.55
296.71	2.87
296.923	3.2
297.136	3.29
297.349	3.43
297.562	3.35
297.775	3.43
297.988	3.75
298.201	3.68
298.414	3.69
298.626	3.5
298.839	3.61
299.052	3.48
299.265	3.15
299.478	2.98
299.691	2.78
299.903	2.71
300.116	3.03
300.329	2.55
300.542	2.43
300.755	2.65
300.967	2.73
301.18	2.71
301.393	2.38
301.605	2.26
301.818	1.94
302.031	2.15
302.243	2.36
302.456	1.97
302.669	1.74
302.881	1.88
303.094	1.78
303.307	1.9
303.519	1.98
303.732	2.48
303.944	2.56
304.157	2.88
304.37	3.05
304.582	3.14
304.795	3.16
305.007	3.47
305.22	3.65
305.432	3.64
305.645	3.17
305.857	3.08
306.069	3.17
306.282	3.3
306.494	3.52
306.707	3.45
306.919	3.77
307.132	3.85
307.344	3.78
307.556	3.47
307.769	3.58
307.981	3.6
308.193	3.72
308.406	3.59
308.618	3.35
308.83	3.29
309.043	3.16
309.255	3
309.467	2.95
309.679	3.14
309.892	3.35
310.104	3.21
310.316	3.18
310.528	3.34
310.74	3.18
310.953	3.21
311.165	3.19
311.377	3.44
311.589	3.55
311.801	3.58
312.013	3.44
312.225	3.21
312.437	3.18
312.649	3.42
312.862	3.42
313.074	3.62
313.286	3.88
313.498	4.12
313.71	4.13
313.922	3.9
314.134	4.24
314.346	4.59
314.558	5.18
314.77	5.89
314.982	6.06
315.193	5.75
315.405	6.02
315.617	6.4
315.829	6.07
316.041	6.35
316.253	6.6
316.465	6.36
316.677	6.2
316.888	5.75
317.1	5.61
317.312	5.61
317.524	5.82
317.736	5.71
317.947	5.53
318.159	6.08
318.371	5.76
318.583	5.71
318.794	5.87
319.006	6.24
319.218	6.62
319.43	6.51
319.641	6.72
319.853	6.73
320.064	7.08
320.276	6.95
320.488	7.04
320.699	7.02
320.911	7.27
321.123	7.68
321.334	7.66
321.546	7.51
321.757	7.21
321.969	7.08
322.18	7.16
322.392	6.84
322.603	6.91
322.815	6.86
323.026	6.75
323.238	7.31
323.449	6.95
323.661	6.88
323.872	7.23
324.083	7.58
324.295	7.77
324.506	8.29
324.718	8.64
324.929	9.2
325.14	9.86
325.352	10.34
325.563	10.04
325.774	10.4
325.986	10.83
326.197	11.17
326.408	11.79
326.62	12.08
326.831	12.11
327.042	12.38
327.253	12.26
327.464	12.56
327.676	12.77
327.887	13.27
328.098	13.65
328.309	13.91
328.52	14.12
328.732	14.2
328.943	14.61
329.154	14.61
329.365	14.23
329.576	14.86
329.787	14.56
329.998	14.83
330.209	14.84
330.42	15.05
330.631	14.88
330.842	15.12
331.053	15.25
331.264	15.04
331.475	15.52
331.686	16.48
331.897	16.26
332.108	16.45
332.319	16.99
332.53	17.48
332.741	17.53
332.952	17.96
333.163	18.03
333.374	18.25
333.585	18.53
333.795	18.84
334.006	18.4
334.217	18.78
334.428	18.75
334.639	19.01
334.849	18.95
335.06	19.07
335.271	19.09
335.482	19
335.692	19.01
335.903	19.3
336.114	19.38
336.325	19.65
336.535	19.69
336.746	19.93
336.957	19.6
337.167	19.72
337.378	19.79
337.589	20.1
337.799	19.93
338.01	19.92
338.22	19.89
338.431	20.01
338.642	20.44
338.852	20.54
339.063	20.35
339.273	20.45
339.484	20.52
339.694	20.74
339.905	20.63
340.115	20.87
340.326	20.96
340.536	20.81
340.746	20.63
340.957	20.74
341.167	20.56
341.378	20.77
341.588	20.57
341.799	20.46
342.009	20.29
342.219	20.33
342.43	20.59
342.64	20.64
342.85	20.77
343.061	20.93
343.271	20.51
343.481	20.64
343.691	20.88
343.902	21.16
344.112	21.2
344.322	21.27
344.532	21.14
344.743	20.91
344.953	20.79
345.163	20.88
345.373	20.72
345.583	20.84
345.793	20.84
346.004	20.34
346.214	19.88
346.424	19.88
346.634	19.91
346.844	20.14
347.054	20.08
347.264	19.87
347.474	20.07
347.684	19.91
347.894	20.05
348.104	20
348.314	20.02
348.524	20.32
348.734	20.09
348.944	19.99
349.154	19.82
349.364	19.79
349.574	19.99
349.784	19.96
349.994	19.98
350.204	19.64
350.413	19.64
350.623	19.76
350.833	19.56
351.043	19.7
351.253	19.74
351.463	19.73
351.672	19.59
351.882	19.35
352.092	19.44
352.302	19.56
352.511	19.87
352.721	19.83
352.931	19.59
353.141	19.75
353.35	19.77
353.56	19.6
353.77	19.62
353.979	19.55
354.189	19.41
354.399	18.99
354.608	18.68
354.818	18.34
355.027	18.2
355.237	18.39
355.447	18.49
355.656	18.52
355.866	18.45
356.075	18.49
356.285	18.88
356.494	19.24
356.704	19.34
356.913	19.59
357.123	19.73
357.332	19.86
357.542	20.01
357.751	19.81
357.96	19.81
358.17	19.8
358.379	19.51
358.589	19.55
358.798	19.49
359.007	19.38
359.217	19.27
359.426	19.26
359.635	19.3
359.845	19.31
360.054	19.16
360.263	19.01
360.472	18.89
360.682	18.86
360.891	18.64
361.1	18.55
361.309	18.41
361.519	18.3
361.728	18.29
361.937	18.03
362.146	17.81
362.355	17.94
362.564	17.75
362.774	17.91
362.983	17.93
363.192	17.83
363.401	17.82
363.61	17.77
363.819	17.86
364.028	17.93
364.237	17.99
364.446	17.87
364.655	17.76
364.864	18.18
365.073	18.08
365.282	18.27
365.491	18.43
365.7	18.4
365.909	18.86
366.118	18.89
366.327	18.65
366.536	18.57
366.745	18.79
366.954	18.94
367.162	18.67
367.371	18.42
367.58	18.16
367.789	17.92
367.998	17.84
368.207	17.49
368.415	17.43
368.624	17.5
368.833	17.46
369.042	17.47
369.25	17.27
369.459	17.34
369.668	17.62
369.877	17.95
370.085	18.12
370.294	18.03
370.503	17.92
370.711	17.89
370.92	17.92
371.129	18.07
371.337	18.01
371.546	18.04
371.754	17.91
371.963	17.86
372.171	17.71
372.38	17.86
372.589	18.1
372.797	18.17
373.006	18.24
373.214	18.17
373.423	18.15
373.631	18.23
373.84	18.29
374.048	18.16
374.256	18.43
374.465	18.35
374.673	18.3
374.882	18.08
375.09	18.14
375.298	18.11
375.507	18.14
375.715	18.08
375.923	18.01
376.132	17.98
376.34	18.23
376.548	17.94
376.757	17.97
376.965	17.77
377.173	17.65
377.381	17.68
377.59	17.55
377.798	17.53
378.006	17.68
378.214	17.59
378.423	17.39
378.631	17.3
378.839	17.32
379.047	17.24
379.255	17.12
379.463	17.35
379.671	17.2
379.879	17.2
380.088	16.98
380.296	16.88
380.504	16.71
380.712	16.68
380.92	16.72
381.128	16.5
381.336	16.49
381.544	16.69
381.752	16.56
381.96	16.35
382.168	16.56
382.376	16.72
382.584	16.78
382.791	16.93
382.999	17.12
383.207	17.08
383.415	16.93
383.623	16.83
383.831	16.7
384.039	16.84
384.247	17.08
384.454	16.95
384.662	16.89
384.87	16.94
385.078	16.76
385.285	16.82
385.493	16.54
385.701	16.77
385.909	16.76
386.116	16.66
386.324	16.57
386.532	16.51
386.739	16.6
386.947	16.49
387.155	16.27
387.362	16.66
387.57	16.57
387.778	16.98
387.985	17.08
388.193	17.2
388.4	17.33
388.608	17.41
388.816	17.5
389.023	17.5
389.231	17.52
389.438	17.67
389.646	17.45
389.853	17.35
390.061	17.04
390.268	17.08
390.475	16.97
390.683	17.02
390.89	16.99
391.098	16.85
391.305	16.58
391.512	16.68
391.72	16.73
391.927	16.8
392.135	16.67
392.342	16.62
392.549	16.48
392.756	16.62
392.964	16.56
393.171	16.52
393.378	16.51
393.586	16.63
393.793	16.72
394	16.6
394.207	16.4
394.414	16.66
394.622	16.78
394.829	16.83
395.036	16.5
395.243	16.51
395.45	16.59
395.657	16.57
395.864	16.64
396.072	16.54
396.279	16.6
396.486	16.64
396.693	16.52
396.9	16.57
397.107	16.55
397.314	16.84
397.521	16.9
397.728	16.94
397.935	16.84
398.142	16.82
398.349	16.79
398.556	16.7
398.763	16.69
398.97	16.6
399.177	16.54
399.383	16.64
399.59	16.5
399.797	16.59
400.004	16.5
400.211	16.7
400.418	16.69
400.625	16.84
400.831	16.81
401.038	16.8
401.245	16.99
401.452	17.01
401.658	17
401.865	17.1
402.072	16.93
402.279	16.86
402.485	16.85
402.692	16.71
402.899	16.68
403.105	16.82
403.312	16.95
403.519	17.04
403.725	17
403.932	16.95
404.138	16.99
404.345	17.08
404.552	17.02
404.758	17.07
404.965	17.24
405.171	17.14
405.378	17.12
405.584	17.1
405.791	16.93
405.997	16.97
406.204	17
406.41	17.02
406.617	17.06
406.823	17.08
407.029	17.1
407.236	17.14
407.442	17.24
407.649	17.28
407.855	17.39
408.061	17.45
408.268	17.49
408.474	17.58
408.68	17.68
408.887	17.68
409.093	17.93
409.299	17.99
409.505	17.89
409.712	18.07
409.918	18.05
410.124	17.85
410.33	18.01
410.537	18.09
410.743	18.03
410.949	17.91
411.155	17.96
411.361	17.88
411.567	17.83
411.773	17.7
411.98	17.53
412.186	17.68
412.392	17.79
412.598	17.69
412.804	17.69
413.01	17.75
413.216	17.63
413.422	17.82
413.628	17.87
413.834	17.94
414.04	18.26
414.246	18.41
414.452	18.35
414.658	18.47
414.864	18.46
415.07	18.48
415.275	18.57
415.481	18.79
415.687	18.69
415.893	18.6
416.099	18.66
416.305	18.49
416.511	18.53
416.716	18.59
416.922	18.64
417.128	18.71
417.334	18.83
417.539	18.86
417.745	18.76
417.951	18.79
418.157	18.88
418.362	18.89
418.568	18.97
418.774	18.94
418.979	18.96
419.185	19.01
419.391	18.99
419.596	18.96
419.802	18.96
420.008	19.04
420.213	18.32
420.419	18.41
420.624	18.39
420.83	18.42
421.035	18.46
421.241	18.37
421.446	18.32
421.652	18.35
421.857	18.34
422.063	18.26
422.268	18.35
422.474	19.06
422.679	19.08
422.885	19.16
423.09	19.2
423.295	19.26
423.501	19.41
423.706	19.4
423.911	19.42
424.117	19.44
424.322	19.6
424.527	19.57
424.733	19.55
424.938	19.56
425.143	19.55
425.349	19.53
425.554	19.48
425.759	19.4
425.964	19.51
426.169	19.58
426.375	19.6
426.58	19.6
426.785	19.66
426.99	19.71
427.195	19.75
427.4	19.73
427.605	19.8
427.811	19.84
428.016	20.02
428.221	20.02
428.426	20.12
428.631	20.24
428.836	20.23
429.041	20.24
429.246	20.09
429.451	20.12
429.656	20.18
429.861	20.32
430.066	20.47
430.271	20.33
430.476	20.37
430.681	20.27
430.886	20.17
431.09	20.17
431.295	20.23
431.5	20.51
431.705	20.49
431.91	20.54
432.115	20.6
432.32	20.61
432.524	20.78
432.729	20.77
432.934	20.86
433.139	20.97
433.343	21.04
433.548	21.06
433.753	21.05
433.958	21.09
434.162	21.14
434.367	21.06
434.572	21.06
434.776	21.07
434.981	21.21
435.186	21.28
435.39	21.27
435.595	21.25
435.799	21.34
436.004	21.3
436.209	21.27
436.413	21.34
436.618	21.39
436.822	21.46
437.027	21.47
437.231	21.44
437.436	21.53
437.64	21.61
437.845	21.7
438.049	21.62
438.253	21.67
438.458	21.74
438.662	21.76
438.867	21.76
439.071	21.73
439.275	21.79
439.48	21.74
439.684	21.71
439.888	21.72
440.093	21.77
440.297	21.77
440.501	21.76
440.706	21.84
440.91	21.92
441.114	21.87
441.318	21.92
441.523	21.85
441.727	21.94
441.931	21.9
442.135	21.92
442.339	21.9
442.543	22.02
442.748	22.02
442.952	21.95
443.156	21.87
443.36	22.03
443.564	22.07
443.768	22.08
443.972	22.07
444.176	22.03
444.38	22.02
444.584	22.04
444.788	22.02
444.992	22.06
445.196	22.1
445.4	22.1
445.604	22.08
445.808	22.04
446.012	22.07
446.216	22.11
446.42	22.21
446.624	22.22
446.828	22.22
447.032	22.2
447.235	22.2
447.439	22.21
447.643	22.21
447.847	22.17
448.051	22.14
448.254	22.15
448.458	22.04
448.662	21.99
448.866	21.97
449.069	21.96
449.273	21.92
449.477	21.99
449.681	21.92
449.884	21.91
450.088	21.96
450.292	22.11
450.495	22.14
450.699	22.27
450.902	22.31
451.106	22.39
451.31	22.3
451.513	22.35
451.717	22.37
451.92	22.39
452.124	22.45
452.327	22.44
452.531	22.37
452.734	22.28
452.938	22.31
453.141	22.25
453.345	22.25
453.548	22.28
453.752	22.3
453.955	22.17
454.158	22.24
454.362	22.08
454.565	22.14
454.769	22.21
454.972	22.28
455.175	22.29
455.379	22.26
455.582	22.14
455.785	22.21
455.988	22.15
456.192	22.25
456.395	22.23
456.598	22.25
456.801	22.18
457.005	22.12
457.208	22.14
457.411	22.13
457.614	22.2
457.817	22.2
458.021	22.28
458.224	22.33
458.427	22.36
458.63	22.4
458.833	22.45
459.036	22.49
459.239	22.44
459.442	22.52
459.645	22.46
459.848	22.46
460.051	22.53
460.254	22.4
460.457	22.47
460.66	22.42
460.863	22.36
461.066	22.42
461.269	22.44
461.472	22.37
461.675	22.32
461.878	22.35
462.081	22.38
462.284	22.4
462.486	22.52
462.689	22.52
462.892	22.63
463.095	22.62
463.298	22.63
463.5	22.72
463.703	22.83
463.906	22.81
464.109	22.77
464.311	22.82
464.514	22.73
464.717	22.74
464.92	22.61
465.122	22.64
465.325	22.77
465.528	22.67
465.73	22.6
465.933	22.59
466.135	22.68
466.338	22.75
466.541	22.75
466.743	22.93
466.946	22.91
467.148	23.04
467.351	22.91
467.553	22.79
467.756	22.86
467.958	22.79
468.161	22.93
468.363	22.85
468.566	22.98
468.768	22.85
468.971	22.76
469.173	22.78
469.375	22.67
469.578	22.73
469.78	22.84
469.983	22.78
470.185	22.79
470.387	22.64
470.59	22.68
470.792	22.54
470.994	22.78
471.196	22.82
471.399	22.81
471.601	22.87
471.803	22.88
472.005	22.88
472.208	23.06
472.41	23.15
472.612	23.17
472.814	23.19
473.016	23.25
473.218	23.07
473.421	23.04
473.623	23.09
473.825	23.16
474.027	23.2
474.229	23.2
474.431	23.08
474.633	23.07
474.835	23.12
475.037	23.06
475.239	23.05
475.441	23.22
475.643	23.29
475.845	23.29
476.047	23.19
476.249	23.19
476.451	23.2
476.653	23.33
476.855	23.24
477.057	23.19
477.258	23.23
477.46	23.14
477.662	23.1
477.864	23.12
478.066	23.11
478.268	23.13
478.469	23.09
478.671	23.08
478.873	23.02
479.075	23.03
479.276	23.04
479.478	22.95
479.68	22.97
479.882	22.85
480.083	22.88
480.285	22.84
480.487	22.91
480.688	22.95
480.89	22.9
481.091	22.82
481.293	22.86
481.495	22.84
481.696	22.86
481.898	22.87
482.099	22.92
482.301	22.86
482.502	22.88
482.704	22.81
482.905	22.8
483.107	22.82
483.308	22.82
483.51	22.8
483.711	22.78
483.913	22.81
484.114	22.79
484.315	22.78
484.517	22.78
484.718	22.78
484.92	22.8
485.121	22.78
485.322	22.77
485.524	22.77
485.725	22.79
485.926	22.81
486.127	22.77
486.329	22.83
486.53	22.82
486.731	22.82
486.932	22.82
487.134	22.84
487.335	22.88
487.536	22.91
487.737	22.91
487.938	22.9
488.139	22.95
488.341	22.97
488.542	22.98
488.743	23.02
488.944	23.06
489.145	23.08
489.346	23.07
489.547	23.07
489.748	23.09
489.949	23.15
490.15	23.21
490.351	23.16
490.552	23.21
490.753	23.22
490.954	23.15
491.155	23.12
491.356	23.15
491.557	23.11
491.758	23.11
491.959	23.08
492.159	23.1
492.36	23.07
492.561	23.13
492.762	23.11
492.963	23.1
493.164	23.16
493.364	23.21
493.565	23.19
493.766	23.31
493.967	23.31
494.167	23.35
494.368	23.37
494.569	23.41
494.769	23.4
494.97	23.48
495.171	23.53
495.371	23.6
495.572	23.63
495.773	23.68
495.973	23.64
496.174	23.67
496.375	23.64
496.575	23.61
496.776	23.61
496.976	23.69
497.177	23.71
497.377	23.74
497.578	23.74
497.778	23.77
497.979	23.85
498.179	23.87
498.38	23.87
498.58	23.94
498.78	23.98
498.981	24.07
499.181	23.99
499.382	23.92
499.582	23.89
499.782	23.9
499.983	23.82
500.183	23.81
500.383	23.94
500.584	24.09
500.784	24.08
500.984	24.1
501.184	24.17
501.385	24.26
501.585	24.37
501.785	24.4
501.985	24.47
502.185	24.58
502.386	24.65
502.586	24.61
502.786	24.67
502.986	24.84
503.186	24.84
503.386	24.83
503.586	24.84
503.786	24.84
503.987	24.91
504.187	24.87
504.387	24.94
504.587	24.87
504.787	24.98
504.987	25.01
505.187	25.09
505.387	25.09
505.587	25.21
505.786	25.29
505.986	25.38
506.186	25.49
506.386	25.51
506.586	25.57
506.786	25.73
506.986	25.73
507.186	25.69
507.386	25.67
507.585	25.77
507.785	25.72
507.985	25.83
508.185	25.85
508.384	25.9
508.584	26.09
508.784	26.08
508.984	26.1
509.183	26.17
509.383	26.27
509.583	26.32
509.782	26.42
509.982	26.5
510.182	26.36
510.381	26.46
510.581	26.41
510.781	26.34
510.98	26.41
511.18	26.43
511.379	26.46
511.579	26.47
511.778	26.52
511.978	26.57
512.177	26.62
512.377	26.76
512.576	26.76
512.776	26.9
512.975	26.95
513.175	27.05
513.374	27.05
513.573	27.14
513.773	27.25
513.972	27.27
514.172	27.28
514.371	27.35
514.57	27.41
514.77	27.45
514.969	27.45
515.168	27.51
515.367	27.57
515.567	27.66
515.766	27.61
515.965	27.6
516.164	27.74
516.364	27.8
516.563	27.88
516.762	27.95
516.961	28.1
517.16	28.19
517.359	28.42
517.559	28.4
517.758	28.57
517.957	28.65
518.156	28.71
518.355	28.61
518.554	28.64
518.753	28.7
518.952	28.75
519.151	28.79
519.35	28.86
519.549	28.88
519.748	28.96
519.947	28.96
520.146	29.05
520.345	29.12
520.544	29.28
520.743	29.39
520.942	29.42
521.141	29.48
521.339	29.57
521.538	29.57
521.737	29.52
521.936	29.55
522.135	29.64
522.333	29.68
522.532	29.72
522.731	29.85
522.93	29.96
523.129	30.09
523.327	30.15
523.526	30.23
523.725	30.36
523.923	30.46
524.122	30.56
524.321	30.67
524.519	30.72
524.718	30.84
524.917	30.93
525.115	30.93
525.314	30.92
525.512	30.97
525.711	30.96
525.909	30.95
526.108	30.97
526.306	31.01
526.505	31.03
526.703	31.05
526.902	31.11
527.1	31.05
527.299	31.09
527.497	31.11
527.696	31.12
527.894	31.17
528.092	31.26
528.291	31.26
528.489	31.25
528.688	31.21
528.886	31.26
529.084	31.24
529.283	31.26
529.481	31.27
529.679	31.26
529.877	31.33
530.076	31.33
530.274	31.32
530.472	31.4
530.67	31.48
530.869	31.54
531.067	31.59
531.265	31.68
531.463	31.77
531.661	31.87
531.859	32.01
532.057	32.08
532.255	32.14
532.454	32.19
532.652	32.25
532.85	32.29
533.048	32.35
533.246	32.36
533.444	32.37
533.642	32.42
533.84	32.42
534.038	32.42
534.236	32.43
534.434	32.47
534.632	32.52
534.83	32.48
535.027	32.56
535.225	32.57
535.423	32.63
535.621	32.73
535.819	32.71
536.017	32.75
536.215	32.83
536.412	32.83
536.61	32.87
536.808	32.94
537.006	32.94
537.203	32.88
537.401	33
537.599	33.02
537.797	32.99
537.994	33.03
538.192	33.07
538.39	33.09
538.587	33.19
538.785	33.22
538.983	33.23
539.18	33.41
539.378	33.61
539.575	33.61
539.773	33.7
539.97	33.69
540.168	33.77
540.366	33.8
540.563	33.81
540.761	33.87
540.958	33.87
541.155	33.9
541.353	33.86
541.55	33.81
541.748	33.82
541.945	33.8
542.143	33.82
542.34	33.87
542.537	33.91
542.735	33.97
542.932	33.92
543.129	33.95
543.327	33.97
543.524	34.05
543.721	34.11
543.919	34.2
544.116	34.29
544.313	34.39
544.51	34.42
544.708	34.47
544.905	34.52
545.102	34.65
545.299	34.8
545.496	34.83
545.693	34.9
545.891	34.96
546.088	34.99
546.285	34.92
546.482	34.94
546.679	34.99
546.876	34.96
547.073	34.94
547.27	34.86
547.467	34.81
547.664	34.74
547.861	34.63
548.058	34.56
548.255	34.44
548.452	34.44
548.649	34.45
548.846	34.36
549.043	34.37
549.24	34.36
549.437	34.54
549.633	34.44
549.83	34.48
550.027	34.5
550.224	34.58
550.421	34.65
550.618	34.85
550.814	34.7
551.011	34.66
551.208	34.67
551.405	34.65
551.601	34.58
551.798	34.72
551.995	34.82
552.191	34.84
552.388	34.88
552.585	34.81
552.781	34.69
552.978	34.8
553.175	34.87
553.371	34.89
553.568	34.91
553.764	34.9
553.961	34.9
554.157	34.8
554.354	34.84
554.55	34.83
554.747	34.96
554.943	34.97
555.14	34.96
555.336	34.91
555.533	34.91
555.729	35
555.926	34.97
556.122	34.93
556.318	34.93
556.515	34.96
556.711	34.92
556.907	34.87
557.104	34.91
557.3	34.82
557.496	34.79
557.693	34.74
557.889	34.65
558.085	34.71
558.281	34.61
558.478	34.53
558.674	34.49
558.87	34.48
559.066	34.58
559.262	34.6
559.459	34.83
559.655	34.89
559.851	35.02
560.047	35.11
560.243	35.12
560.439	35.27
560.635	35.55
560.831	35.7
561.027	35.73
561.223	35.67
561.419	35.7
561.615	35.71
561.811	35.81
562.007	35.73
562.203	35.67
562.399	35.8
562.595	35.82
562.791	35.79
562.987	35.69
563.183	35.59
563.379	35.71
563.575	35.67
563.771	35.57
563.966	35.56
564.162	35.53
564.358	35.54
564.554	35.41
564.75	35.41
564.945	35.3
565.141	35.34
565.337	35.46
565.533	35.37
565.728	35.38
565.924	35.36
566.12	35.37
566.315	35.39
566.511	35.36
566.707	35.4
566.902	35.37
567.098	35.36
567.293	35.28
567.489	35.2
567.684	35.24
567.88	35.2
568.076	35.32
568.271	35.35
568.467	35.42
568.662	35.48
568.858	35.51
569.053	35.55
569.248	35.66
569.444	35.97
569.639	36.13
569.835	36.24
570.03	36.36
570.225	36.29
570.421	36.37
570.616	36.38
570.812	36.38
571.007	36.34
571.202	36.43
571.397	36.47
571.593	36.29
571.788	36.31
571.983	36.28
572.178	36.28
572.374	36.36
572.569	36.29
572.764	36.32
572.959	36.44
573.154	36.46
573.35	36.35
573.545	36.3
573.74	36.38
573.935	36.24
574.13	36.2
574.325	36.26
574.52	36.2
574.715	36.17
574.91	36.19
575.105	36.14
575.3	36.25
575.495	36.24
575.69	36.26
575.885	36.26
576.08	36.32
576.275	36.4
576.47	36.44
576.665	36.52
576.86	36.54
577.055	36.55
577.25	36.6
577.444	36.51
577.639	36.67
577.834	36.82
578.029	36.78
578.224	36.8
578.418	36.68
578.613	36.7
578.808	36.74
579.003	36.88
579.197	36.92
579.392	36.79
579.587	36.99
579.781	36.88
579.976	36.74
580.171	36.83
580.365	36.91
580.56	37.1
580.755	37.04
580.949	36.99
581.144	36.95
581.338	36.97
581.533	37.04
581.727	36.84
581.922	36.94
582.116	36.94
582.311	36.9
582.505	37.03
582.7	36.93
582.894	36.93
583.089	37.1
583.283	37.16
583.478	37.03
583.672	37.13
583.866	37.18
584.061	37.19
584.255	37.27
584.449	37.5
584.644	37.25
584.838	37.24
585.032	37.25
585.226	37.2
585.421	37.21
585.615	37.29
585.809	37.32
586.003	37.54
586.198	37.56
586.392	37.54
586.586	37.55
586.78	37.8
586.974	37.95
587.168	37.99
587.363	37.89
587.557	37.74
587.751	37.85
587.945	37.86
588.139	37.64
588.333	37.6
588.527	37.7
588.721	37.63
588.915	37.57
589.109	37.66
589.303	37.7
589.497	37.74
589.691	37.83
589.885	37.76
590.079	37.84
590.273	38
590.466	38.1
590.66	38.16
590.854	38.15
591.048	38.15
591.242	38.08
591.436	38.14
591.629	38.21
591.823	38.42
592.017	38.52
592.211	38.55
592.404	38.58
592.598	38.55
592.792	38.54
592.986	38.53
593.179	38.52
593.373	38.48
593.567	38.39
593.76	38.32
593.954	38.22
594.147	38.2
594.341	38.09
594.535	37.98
594.728	38
594.922	37.91
595.115	37.94
595.309	38.06
595.502	38.18
595.696	38.34
595.889	38.35
596.083	38.28
596.276	38.27
596.47	38.27
596.663	38.36
596.856	38.34
597.05	38.46
597.243	38.53
597.437	38.58
597.63	38.55
597.823	38.42
598.017	38.48
598.21	38.61
598.403	38.66
598.596	38.71
598.79	38.75
598.983	38.76
599.176	38.66
599.369	38.58
599.563	38.46
599.756	38.55
599.949	38.7
600.142	38.86
600.335	38.75
600.528	38.7
600.722	38.75
600.915	38.72
601.108	38.94
601.301	38.95
601.494	39.02
601.687	39.05
601.88	38.94
602.073	38.82
602.266	38.7
602.459	38.66
602.652	38.64
602.845	38.71
603.038	38.75
603.231	38.62
603.424	38.67
603.617	38.6
603.809	38.6
604.002	38.64
604.195	38.83
604.388	38.91
604.581	39.06
604.774	39.17
604.966	39.08
605.159	39.08
605.352	39.06
605.545	39.01
605.737	39.04
605.93	38.89
606.123	38.95
606.316	38.82
606.508	38.72
606.701	38.68
606.894	38.73
607.086	38.83
607.279	38.78
607.471	39.01
607.664	39.17
607.857	39.35
608.049	39.68
608.242	39.83
608.434	40.06
608.627	40.39
608.819	40.71
609.012	41.02
609.204	41.44
609.397	41.97
609.589	42.47
609.782	43
609.974	43.53
610.166	44.02
610.359	44.47
610.551	44.97
610.743	45.36
610.936	45.7
611.128	46.05
611.32	46.36
611.513	46.48
611.705	46.23
611.897	46.17
612.09	45.96
612.282	45.76
612.474	45.73
612.666	45.44
612.858	45.25
613.051	45.1
613.243	44.68
613.435	44.35
613.627	44.07
613.819	44.02
614.011	43.69
614.203	43.7
614.395	43.66
614.588	43.23
614.78	43.01
614.972	42.68
615.164	42.49
615.356	42.31
615.548	42.2
615.74	42.1
615.932	41.75
616.124	41.73
616.315	41.35
616.507	41.19
616.699	41.04
616.891	40.91
617.083	40.84
617.275	40.82
617.467	40.87
617.659	40.66
617.85	40.67
618.042	41.02
618.234	41.07
618.426	40.98
618.618	40.92
618.809	41.09
619.001	41.22
619.193	41.17
619.384	41.1
619.576	41.02
619.768	41.01
619.959	40.99
620.151	40.94
620.343	40.79
620.534	41.01
620.726	41.32
620.917	41.35
621.109	41.26
621.301	41.48
621.492	41.51
621.684	41.53
621.875	41.71
622.067	41.6
622.258	41.66
622.45	41.72
622.641	41.8
622.832	41.58
623.024	41.25
623.215	41.32
623.407	41.23
623.598	41.33
623.789	41.52
623.981	41.42
624.172	41.48
624.363	41.53
624.555	41.54
624.746	41.49
624.937	41.65
625.129	41.91
625.32	41.92
625.511	41.97
625.702	41.94
625.893	41.9
626.085	42.03
626.276	42.13
626.467	42.05
626.658	42.18
626.849	42.27
627.04	42.32
627.231	42.48
627.422	42.43
627.614	42.46
627.805	42.54
627.996	42.61
628.187	42.57
628.378	42.58
628.569	42.61
628.76	42.58
628.951	42.65
629.142	42.54
629.332	42.43
629.523	42.54
629.714	42.65
629.905	42.79
630.096	42.69
630.287	42.84
630.478	42.78
630.669	42.81
630.859	42.9
631.05	42.65
631.241	42.74
631.432	42.65
631.623	42.65
631.813	42.66
632.004	42.35
632.195	42.47
632.385	42.36
632.576	42.24
632.767	42.21
632.957	42.08
633.148	42.25
633.339	42.27
633.529	42.26
633.72	42.18
633.91	42.11
634.101	42.15
634.292	42.23
634.482	42.19
634.673	42.41
634.863	42.29
635.054	42.36
635.244	42.36
635.435	42.26
635.625	42.3
635.815	42.44
636.006	42.43
636.196	42.41
636.387	42.15
636.577	42.1
636.767	42.06
636.958	42.21
637.148	42.18
637.338	42.31
637.529	42.31
637.719	42.39
637.909	42.26
638.099	42.24
638.29	42.21
638.48	42.16
638.67	42.25
638.86	42.46
639.05	42.59
639.241	42.84
639.431	42.67
639.621	42.76
639.811	42.68
640.001	42.75
640.191	42.83
640.381	42.94
640.571	43.02
640.761	42.99
640.951	42.82
641.141	42.75
641.331	42.57
641.521	42.67
641.711	42.69
641.901	42.87
642.091	43.16
642.281	43.16
642.471	43.45
642.661	43.55
642.851	43.49
643.041	43.37
643.231	43.47
643.42	43.43
643.61	43.61
643.8	43.52
643.99	43.46
644.18	43.39
644.369	43.44
644.559	43.18
644.749	43.29
644.939	43.57
645.128	43.67
645.318	43.59
645.508	43.55
645.697	43.22
645.887	43.21
646.076	43.19
646.266	43.06
646.456	42.98
646.645	43.16
646.835	43.13
647.024	42.92
647.214	43.06
647.403	43.01
647.593	43.22
647.782	43.47
647.972	43.6
648.161	43.58
648.351	43.72
648.54	43.81
648.73	43.8
648.919	43.95
649.108	44.23
649.298	44.35
649.487	44.43
649.677	44.31
649.866	44.35
650.055	44.49
650.244	44.71
650.434	44.83
650.623	45.1
650.812	45.24
651.002	45.28
651.191	45.31
651.38	45.13
651.569	45.26
651.758	45.48
651.947	45.39
652.137	45.41
652.326	45.32
652.515	45.18
652.704	44.9
652.893	44.76
653.082	44.59
653.271	44.76
653.46	44.96
653.649	44.71
653.838	44.6
654.027	44.64
654.216	44.62
654.405	44.78
654.594	44.83
654.783	44.68
654.972	44.64
655.161	44.73
655.35	44.53
655.539	44.53
655.728	44.82
655.916	44.83
656.105	44.97
656.294	44.87
656.483	44.89
656.672	45.04
656.86	45.19
657.049	45.27
657.238	45.26
657.427	45.42
657.615	45.34
657.804	45.36
657.993	45.47
658.181	45.41
658.37	45.35
658.559	45.34
658.747	45.32
658.936	45.4
659.125	45.56
659.313	45.53
659.502	45.42
659.69	45.3
659.879	45.48
660.067	45.48
660.256	45.54
660.444	45.59
660.633	45.55
660.821	45.43
661.01	45.49
661.198	45.38
661.387	45.5
661.575	45.77
661.763	45.9
661.952	45.64
662.14	45.79
662.328	45.78
662.517	46
662.705	45.9
662.893	45.93
663.082	45.92
663.27	46.07
663.458	46.06
663.646	45.74
663.834	45.79
664.023	45.84
664.211	45.8
664.399	45.8
664.587	45.97
664.775	46.1
664.963	46.23
665.152	46.39
665.34	46.23
665.528	46.17
665.716	46.18
665.904	46.2
666.092	46.29
666.28	46.44
666.468	46.41
666.656	46.28
666.844	46.66
667.032	46.76
667.22	46.57
667.408	46.84
667.596	46.88
667.784	46.99
667.971	47.02
668.159	46.89
668.347	46.7
668.535	46.79
668.723	46.64
668.911	46.63
669.098	46.52
669.286	46.71
669.474	46.4
669.662	46.63
669.849	46.74
670.037	47.02
670.225	47.19
670.413	47.26
670.6	47.31
670.788	47.48
670.976	47.38
671.163	47.86
671.351	47.92
671.538	48.11
671.726	48.02
671.913	47.78
672.101	47.8
672.289	47.72
672.476	47.6
672.664	47.67
672.851	47.77
673.039	47.75
673.226	47.47
673.413	47.22
673.601	47.11
673.788	47.28
673.976	47.51
674.163	47.5
674.35	47.59
674.538	47.55
674.725	47.67
674.912	47.25
675.1	46.79
675.287	46.61
675.474	46.95
675.662	47
675.849	46.75
676.036	46.85
676.223	46.71
676.411	46.66
676.598	46.56
676.785	46.3
676.972	46.74
677.159	47.12
677.346	47.23
677.533	47.02
677.721	47.05
677.908	47.49
678.095	47.44
678.282	47.74
678.469	47.7
678.656	48.07
678.843	48.34
679.03	48.07
679.217	48.11
679.404	48.13
679.591	48.45
679.778	48.72
679.964	48.56
680.151	48.7
680.338	48.63
680.525	48.64
680.712	48.62
680.899	48.8
681.086	48.87
681.272	48.83
681.459	48.82
681.646	48.47
681.833	48.31
682.02	48.38
682.206	48.23
682.393	47.95
682.58	48.1
682.766	48.02
682.953	47.81
683.14	47.91
683.326	47.87
683.513	48.09
683.7	48.12
683.886	48.04
684.073	47.82
684.259	48.01
684.446	48.34
684.632	48.2
684.819	48.58
685.005	48.67
685.192	48.6
685.378	49
685.565	49.02
685.751	49.32
685.938	49.62
686.124	49.65
686.31	49.35
686.497	49.33
686.683	49.37
686.87	49.08
687.056	48.94
687.242	49.12
687.429	48.97
687.615	48.66
687.801	48.45
687.987	48.17
688.174	48.34
688.36	48.71
688.546	48.83
688.732	49.07
688.918	49.32
689.105	49.46
689.291	49.3
689.477	49.42
689.663	49.54
689.849	49.69
690.035	49.7
690.221	49.66
690.407	49.37
690.593	49.05
690.779	48.81
690.965	48.45
691.151	48.32
691.337	48.59
691.523	48.58
691.709	48.92
691.895	48.78
692.081	49.16
692.267	49.16
692.453	49.27
692.639	49.42
692.825	49.46
693.011	49.68
693.196	49.71
693.382	49.49
693.568	49.63
693.754	49.4
693.94	49.68
694.125	49.31
694.311	49.31
694.497	49.26
694.682	49.18
694.868	49.49
695.054	49.44
695.239	49.42
695.425	49.53
695.611	49.3
695.796	49.29
695.982	49.13
696.168	49.3
696.353	49.19
696.539	49.18
696.724	49.25
696.91	49.11
697.095	48.99
697.281	49.11
697.466	49.2
697.652	49.11
697.837	49.28
698.023	49.44
698.208	49.41
698.393	49.66
698.579	49.75
698.764	49.57
698.949	49.51
699.135	49.48
699.32	49.58
699.505	49.34
699.691	49.4
699.876	49.29
700.061	49.06
700.246	48.88
700.432	48.55
700.617	48.46
700.802	48.65
700.987	48.88
701.172	49.29
701.358	49.27
701.543	49.63
701.728	49.68
701.913	50.01
702.098	50.24
702.283	50.55
702.468	50.84
702.653	50.92
702.838	51.11
703.023	50.95
703.208	50.45
703.393	50.29
703.578	50.1
703.763	50.37
703.948	50.02
704.133	50.09
704.318	49.83
704.503	49.82
704.688	50.09
704.873	49.65
705.057	50.03
705.242	50.61
705.427	50.72
705.612	50.82
705.797	51
705.981	50.96
706.166	51.06
706.351	51.31
706.536	51.94
706.72	52
706.905	52.69
707.09	52.84
707.274	52.92
707.459	52.88
707.644	53.13
707.828	52.92
708.013	53.35
708.197	53.29
708.382	53.18
708.567	52.67
708.751	52.82
708.936	52.74
709.12	52.16
709.305	51.86
709.489	51.84
709.673	51.96
709.858	51.83
710.042	51.73
710.227	52.04
710.411	51.93
710.596	52.08
710.78	51.82
710.964	51.6
711.149	51.81
711.333	52.07
711.517	52.03
711.702	52.13
711.886	52.07
712.07	51.7
712.254	51.3
712.438	51.46
712.623	51.18
712.807	51.33
712.991	51.52
713.175	51.36
713.359	51.04
713.544	50.77
713.728	50.67
713.912	50.73
714.096	50.85
714.28	50.97
714.464	50.86
714.648	50.99
714.832	50.43
715.016	50.1
715.2	50.12
715.384	49.94
715.568	50.07
715.752	49.62
715.936	49.43
716.12	49.51
716.304	49.38
716.488	49.53
716.671	49.48
716.855	49.83
717.039	50.04
717.223	50.11
717.407	50.27
717.59	50.22
717.774	50.54
717.958	50.65
718.142	50.41
718.325	50.55
718.509	50.38
718.693	50.17
718.877	49.81
719.06	49.73
719.244	49.74
719.428	49.68
719.611	50.43
719.795	50.46
719.978	49.88
720.162	50.07
720.345	49.96
720.529	50.01
720.713	50.32
720.896	50.63
721.08	50.78
721.263	50.47
721.446	50.2
721.63	49.64
721.813	49.53
721.997	50.16
722.18	49.96
722.364	50.38
722.547	50.38
722.73	50.12
722.914	49.93
723.097	49.72
723.28	49.91
723.464	50.04
723.647	49.82
723.83	49.56
724.013	49.6
724.197	49.76
724.38	49.08
724.563	49.38
724.746	49.61
724.929	49.64
725.112	49.79
725.296	50.08
725.479	50.49
725.662	50.82
725.845	50.94
726.028	50.92
726.211	51.05
726.394	51.58
726.577	51.6
726.76	51.43
726.943	51.73
727.126	51.42
727.309	51.27
727.492	51.12
727.675	51.58
727.858	51.5
728.041	51.75
728.224	51.41
728.407	51.06
728.589	51.18
728.772	51.06
728.955	51.11
729.138	51.52
729.321	51.72
729.503	51.84
729.686	51.78
729.869	51.98
730.052	51.91
730.234	52.15
730.417	52.22
730.6	51.9
730.782	52.09
730.965	51.98
731.148	51.62
731.33	51.01
731.513	50.89
731.695	50.71
731.878	50.8
732.061	50.47
732.243	50.09
732.426	50.09
732.608	50
732.791	50.08
732.973	49.94
733.156	50.31
733.338	50.64
733.52	50.36
733.703	49.91
733.885	49.23
734.068	49.68
734.25	50.24
734.432	50.08
734.615	50.47
734.797	50.31
734.979	50.25
735.162	50.01
735.344	50.4
735.526	50.59
735.708	50.73
735.891	51.33
736.073	50.74
736.255	50.5
736.437	50.86
736.619	50.9
736.802	50.67
736.984	50.81
737.166	51.08
737.348	50.74
737.53	51.67
737.712	51.68
737.894	51.53
738.076	52.03
738.258	51.87
738.44	51.75
738.622	51.83
738.804	52.49
738.986	52.56
739.168	52.61
739.35	52.28
739.532	51.6
739.714	51.77
739.896	51.91
740.078	52.15
740.259	52.03
740.441	51.91
740.623	51.59
740.805	51.64
740.987	51.62
741.168	51.48
741.35	52.03
741.532	51.88
741.714	51.75
741.895	52.36
742.077	52.05
742.259	52.21
742.44	51.98
742.622	52.17
742.804	51.46
742.985	51.59
743.167	51.39
743.348	51.08
743.53	51.07
743.711	51.01
743.893	50.05
744.075	49.64
744.256	49.63
744.438	50.4
744.619	49.76
744.8	50.1
744.982	50.06
745.163	49.83
745.345	50.11
745.526	50.75
745.707	51.21
745.889	52.16
746.07	52.1
746.252	52.42
746.433	51.86
746.614	52.57
746.795	52.74
746.977	52.3
747.158	52.82
747.339	52.89
747.52	52.33
747.702	51.91
747.883	52.23
748.064	52.44
748.245	52.09
748.426	52.39
748.607	52.13
748.788	52.06
748.97	52.51
749.151	52.49
749.332	51.97
749.513	52.1
749.694	51.92
749.875	50.94
750.056	50.9
750.237	50.75
750.418	50.94
750.599	50.54
750.78	50.46
750.96	50.33
751.141	50.82
751.322	51.26
751.503	50.98
751.684	51.32
751.865	51.19
752.046	51.25
752.226	52.17
752.407	51.92
752.588	52.02
752.769	52.28
752.949	52.25
753.13	51.51
753.311	51.32
753.492	51.86
753.672	51.89
753.853	52.17
754.034	52.15
754.214	51.56
754.395	52.07
754.575	52.21
754.756	52.07
754.937	51.68
755.117	52.1
755.298	51.68
755.478	51.06
755.659	50.88
755.839	50.72
756.02	51
756.2	51.04
756.381	50.58
756.561	50.19
756.741	49.74
756.922	50.4
757.102	49.77
757.283	50.39
757.463	50.57
757.643	50.33
757.823	50.73
758.004	51.06
758.184	50.67
758.364	50.44
758.545	51.1
758.725	50.74
758.905	50.59
759.085	50.91
759.265	50.26
759.446	50.52
759.626	50.9
759.806	50.95
759.986	50.82
760.166	50.57
760.346	50.88
760.526	50.73
760.706	50.83
760.886	51.07
761.066	50.88
761.246	50.68
761.426	49.75
761.606	49.59
761.786	49.54
761.966	49.27
762.146	49.77
762.326	49.27
762.506	48.81
762.686	49.7
762.866	49.09
763.046	49.26
763.225	50.02
763.405	50.5
763.585	50.89
763.765	50.52
763.945	50.62
764.124	50.6
764.304	51.13
764.484	51.64
764.664	51.44
764.843	51.97
765.023	51.69
765.203	51.41
765.382	51.33
765.562	50.27
765.741	50.63
765.921	50.54
766.101	50.93
766.28	50.52
766.46	50.37
766.639	50.51
766.819	50.27
766.998	50.42
767.178	50.3
767.357	50.82
767.537	51.61
767.716	51.11
767.896	50.88
768.075	50.86
768.254	51.04
768.434	51.29
768.613	51.04
768.792	51.07
768.972	51.09
769.151	51.12
769.33	51.06
769.51	50.49
769.689	51.17
769.868	51.08
770.047	49.82
770.226	50.47
770.406	50.77
770.585	50.66
770.764	50.89
770.943	50.91
771.122	51.43
771.301	51.16
771.48	52.28
771.66	52.14
771.839	52.66
772.018	53.12
772.197	52.64
772.376	52.22
772.555	52.24
772.734	52.44
772.913	52.6
773.092	52.64
773.271	52.76
773.449	51.87
773.628	51.68
773.807	51.21
773.986	51.88
774.165	52.37
774.344	52.25
774.523	52.26
774.701	51.63
774.88	51.86
775.059	51.08
775.238	51.47
775.417	52.75
775.595	53.01
775.774	53.63
775.953	53.16
776.131	52.21
776.31	52.7
776.489	52.68
776.667	53.25
776.846	53.72
777.025	54.05
777.203	52.78
777.382	51.82
777.56	51.34
777.739	51.15
777.917	50.77
778.096	51.44
778.274	50.99
778.453	51.03
778.631	50.54
778.81	49.58
778.988	50.2
779.166	51.03
779.345	51.47
779.523	52.05
779.702	51.56
779.88	51.86
780.058	51.36
780.237	50.66
780.415	51.22
780.593	51.07
780.771	51.2
780.95	50.59
781.128	50.96
781.306	50.03
781.484	49.64
781.662	50.18
781.841	50.29
782.019	49.54
782.197	50.46
782.375	49.18
782.553	49.41
782.731	49.9
782.909	49.55
783.087	48.97
783.265	50.11
783.443	49.94
783.621	49.77
783.799	49.59
783.977	51.2
784.155	50.62
784.333	50.89
784.511	51.04
784.689	51.41
784.867	51.48
785.045	51.48
785.223	51.64
785.4	51.02
785.578	51.65
785.756	51.81
785.934	50.96
786.112	51.34
786.289	51.85
786.467	51.42
786.645	50.45
786.823	50.17
787	50.05
787.178	49.15
787.356	50.38
787.533	49.55
787.711	49.76
787.889	49.55
788.066	49.88
788.244	49.63
788.421	49.95
788.599	49.71
788.776	50.52
788.954	50.56
789.131	50.94
789.309	50.07
789.486	48.64
789.664	48.64
789.841	48.12
790.019	47.29
790.196	47.05
790.373	46.86
790.551	46.8
790.728	46.13
790.906	45.83
791.083	44.97
791.26	45.27
791.437	46.71
791.615	46.63
791.792	47.27
791.969	47.21
792.146	48.1
792.324	48.88
792.501	49.62
792.678	49.43
792.855	49.89
793.032	50.31
793.209	51.03
793.387	51.91
793.564	52.28
793.741	51.49
793.918	51.77
794.095	50.69
794.272	49.54
794.449	50.07
794.626	50.88
794.803	50.12
794.98	51.09
795.157	49.92
795.334	50.23
795.511	49.51
795.688	49.78
795.864	48.7
796.041	49.33
796.218	49.05
796.395	47.5
796.572	46.82
796.749	46.96
796.925	46.55
797.102	47.89
797.279	48
797.456	47.45
797.632	48.01
797.809	49.89
797.986	50.08
798.162	51.5
798.339	52.35
798.516	51.91
798.692	52.53
798.869	51.84
799.046	51.67
799.222	50.61
799.399	51.6
799.575	51.02
799.752	49.85
799.928	49.81
800.105	48.45
800.281	49.04
800.458	50.28
800.634	50.32
800.811	49.55
800.987	48.85
801.163	49.82
801.34	49.65
801.516	49.98
801.692	50.28
801.869	50.07
802.045	50.65
802.221	49.87
802.398	48.52
802.574	48.28
802.75	48.51
802.926	48.96
803.103	48.65
803.279	49.5
803.455	49.69
803.631	49.61
803.807	49.12
803.983	48.61
804.16	47.67
804.336	46.65
804.512	45.8
804.688	48.1
804.864	46.72
805.04	46.03
805.216	42.91
805.392	43.01
805.568	42.74
805.744	42.13
805.92	41.24
806.096	43
806.272	45.88
806.448	46.32
806.623	44.41
806.799	44.88
806.975	44.31
807.151	46.1
807.327	45.93
807.503	46
807.678	47.24
807.854	47.3
808.03	47.25
808.206	46.78
808.381	46.2
808.557	46.61
808.733	47.53
808.908	48.17
809.084	48.25
809.26	49.12
809.435	49.11
809.611	48.93
809.787	49.23
809.962	50.21
810.138	50.32
810.313	50.97
810.489	50
810.664	50.21
810.84	51.2
811.015	51.03
811.191	49.79
811.366	50.56
811.542	49.36
811.717	50.05
811.892	48.38
812.068	47.75
812.243	46.78
812.419	48.04
812.594	46.21
812.769	45.18
812.944	45.55
813.12	45.24
813.295	44.28
813.47	44.93
813.645	44.86
813.821	44.84
813.996	44.32
814.171	44.67
814.346	43.27
814.521	43.91
814.697	43.75
814.872	43.8
815.047	43.44
815.222	43.43
815.397	42.65
815.572	43.29
815.747	42.6
815.922	42.21
816.097	41.89
816.272	43.55
816.447	44.18
816.622	44.15
816.797	44.64
816.972	44.62
817.147	44.12
817.322	45.24
817.496	45.26
817.671	45.52
817.846	45.32
818.021	45.89
818.196	45.21
818.371	44.85
818.545	44.95
818.72	44.16
818.895	44.59
819.069	45.94
819.244	44.94
819.419	44.93
819.594	44.07
819.768	43.52
819.943	42.97
820.117	42.64
820.292	42.56
820.467	43.36
820.641	43.33
820.816	42.75
820.99	42.42
821.165	42.45
821.339	42.51
821.514	42.76
821.688	42.92
821.863	42.81
822.037	42.98
822.212	43.04
822.386	42.66
822.56	42.65
822.735	42.74
822.909	42.64
823.084	42.67
823.258	42.52
823.432	42.4
823.606	42.46
823.781	42.84
823.955	42.86
824.129	42.68
824.303	42.52
824.478	42.51
824.652	42.63
824.826	42.83
825	42.83
825.174	42.81
825.348	43.1
825.523	42.94
825.697	42.27
825.871	42.11
826.045	42.02
826.219	42.69
826.393	42.65
826.567	42.65
826.741	42.61
826.915	42.76
827.089	42.44
827.263	42.61
827.437	42.56
827.611	42.95
827.784	43.29
827.958	43.57
828.132	43.29
828.306	42.91
828.48	43.62
828.654	43.47
828.827	43.38
829.001	43.95
829.175	44.18
829.349	44.66
829.522	44.33
829.696	43.83
829.87	43.63
830.044	43.57
830.217	44.92
830.391	43.6
830.565	43.51
830.738	44.11
830.912	43.21
831.085	42.82
831.259	42.48
831.432	41.82
831.606	42.12
831.779	42.28
831.953	41.86
832.126	39.65
832.3	39.86
832.473	39.97
832.647	39.3
832.82	40.21
832.994	39.51
833.167	39.24
833.34	40.15
833.514	39.93
833.687	39.43
833.86	40.54
834.034	40.89
834.207	40.98
834.38	40.86
834.553	40.65
834.727	40.54
834.9	40.68
835.073	41.1
835.246	41
835.419	41.18
835.593	40.99
835.766	39.53
835.939	40.45
836.112	40.57
836.285	40.35
836.458	40.63
836.631	40.9
836.804	41.08
836.977	41.27
837.15	41.13
837.323	41.41
837.496	42.68
837.669	43.28
837.842	42.88
838.015	41.87
838.188	43.03
838.361	43.1
838.533	41.65
838.706	42.56
838.879	41.43
839.052	42.36
839.225	40.41
839.398	40.35
839.57	41.66
839.743	41.1
839.916	40.88
840.088	41.46
840.261	41.83
840.434	40.85
840.607	40.02
840.779	40.23
840.952	38.68
841.124	39.23
841.297	38.92
841.47	38.21
841.642	37.47
841.815	39.32
841.987	40.58
842.16	40.47
842.332	43.01
842.505	43.72
842.677	44.02
842.85	42.33
843.022	42.36
843.194	43.65
843.367	44.3
843.539	45.49
843.712	43.06
843.884	40.06
844.056	40.79
844.229	39.04
844.401	37.77
844.573	38.57
844.745	42.29
844.918	43.37
845.09	44.25
845.262	43.74
845.434	45.13
845.606	47.25
845.779	47.11
845.951	47.05
846.123	49.23
846.295	47.15
846.467	45.56
846.639	46.23
846.811	47
846.983	44.51
847.155	45.17
847.327	40.79
847.499	40.85
847.671	40.42
847.843	38.17
848.015	39.16
848.187	43.89
848.359	46.49
848.531	44.17
848.703	42.88
848.875	42.5
849.047	42.94
849.218	42.5
849.39	42.41
849.562	43.73
849.734	44.38
849.905	40.59
850.077	39.46
850.249	38.52
850.421	40.29
850.592	40.79
850.764	42.83
850.936	40.47
851.107	45.69
851.279	44.23
851.451	42.68
851.622	42.18
851.794	42.4
851.965	39.3
852.137	38.56
852.308	35.01
852.48	35.91
852.651	35.42
852.823	37.53
852.994	38.08
853.166	38.47
853.337	38.47
853.509	35.33
853.68	33.92
853.851	37.25
854.023	39.18
854.194	43.84
854.365	42.44
854.537	43.69
854.708	43.31
854.879	43.84
855.05	43.91
855.222	44.23
855.393	44.6
855.564	46.5
855.735	46.09
855.906	44.85
856.078	42.6
856.249	42.61
856.42	44.12
856.591	41.01
856.762	38.03
856.933	38.46
857.104	37.89
857.275	40.11
857.446	39.81
857.617	39.52
857.788	41.52
857.959	42.65
858.13	40.14
858.301	33.95
858.472	36.09
858.643	41.13
858.814	42.81
858.985	44.36
859.155	44.21
859.326	42.8
859.497	43.1
859.668	38.93
859.839	38.44
860.009	38.54
860.18	43.07
860.351	41.64
860.522	35.32
860.692	28.57
860.863	26.97
861.034	27.1
861.204	26.76
861.375	24.13
861.546	29.8
861.716	25.54
861.887	24.76
862.057	22.83
862.228	24.97
862.398	25.43
862.569	29.99
862.739	30.7
862.91	33
863.08	36.88
863.251	39.1
863.421	37.29
863.592	39.55
863.762	43.26
863.932	43.06
864.103	46.98
864.273	49.89
864.443	47.08
864.614	47.7
864.784	46.87
864.954	45.38
865.125	45.08
865.295	45.06
865.465	46.29
865.635	45.91
865.805	46.14
865.976	41.32
866.146	34.89
866.316	40.36
866.486	38.7
866.656	40.78
866.826	41.28
866.996	41.1
867.166	38.91
867.336	40.7
867.506	42.41
867.676	38.28
867.846	39.01
868.016	39.47
868.186	40.92
868.356	45.28
868.526	44.83
868.696	44.99
868.866	48.17
869.036	53.52
869.206	50.38
869.376	46.05
869.545	50.42
869.715	50.25
869.885	53.48
870.055	48.76
870.224	43.94
870.394	45.97
870.564	49.16
870.734	47.49
870.903	42.32
871.073	46.57
871.243	49.92
871.412	52.17
871.582	56.78
871.751	59.79
871.921	62.38
872.091	64.84
872.26	59.88
872.43	53.95
872.599	54.91
872.769	58.56
872.938	55.7
873.108	51.62
873.277	52.79
873.446	51.88
873.616	50.71
873.785	51.1
873.955	53.67
874.124	51.95
874.293	53.75
874.463	51.22
874.632	54.86
874.801	54.28
874.971	56.33
875.14	54.36
875.309	53.52
875.478	48.72
875.647	46.79
875.817	43.15
875.986	42.89
876.155	41.42
876.324	43.42
876.493	39.26
876.662	39.11
876.831	38.19
877	34.75
877.17	35.21
877.339	40.78
877.508	42.16
877.677	46.38
877.846	51.15
878.015	52.01
878.184	48.7
878.352	46.56
878.521	47.1
878.69	50.67
878.859	54.3
879.028	50.18
879.197	47.78
879.366	48.56
879.534	47.15
879.703	44.71
879.872	43.01
880.041	44.16
880.21	44.72
880.378	42.75
880.547	39.67
880.716	38.22
880.884	38.17
881.053	37.2
881.222	36.74
881.39	35.98
881.559	34.87
881.727	34.5
881.896	33.67
882.065	32.88
882.233	32.62
882.402	32.61
882.57	32.88
882.739	33.41
882.907	33.2
883.076	32.34
883.244	32.53
883.412	33.43
883.581	33.24
883.749	33.42
883.918	33.41
884.086	33.66
884.254	34.14
884.423	33.72
884.591	33.34
884.759	34.05
884.927	34.23
885.096	33.2
885.264	33.31
885.432	34.13
885.6	34.6
885.769	34.1
885.937	33.84
886.105	32.75
886.273	29.8
886.441	28.56
886.609	27.34
886.777	29.89
886.945	29.97
887.113	28.65
887.281	27.78
887.449	29.34
887.617	32.07
887.785	31.33
887.953	34.2
888.121	36.42
888.289	38.85
888.457	45.13
888.625	41.9
888.793	42.21
888.961	39.25
889.129	38.69
889.296	32.67
889.464	31.61
889.632	34.86
889.8	29.8
889.967	31.94
890.135	28.09
