Data from 2938816__Reflection_02.txt Node
Date: Thu Mar 12 15:25:44 EDT 2015
User: robert
Spectrometer: USB4E03002
Autoset integration time: false
Trigger mode: 4
Integration Time (sec): 1.000000E-1
Scans to average: 10
Electric dark correction enabled: false
Nonlinearity correction enabled: false
Boxcar width: 5
Stray light correction enabled: false
XAxis mode: Wavelengths
Stop averaging: false
Number of Pixels in Spectrum: 3648
>>>>>Begin Spectral Data<<<<<
177.575	-1000
177.794	-746.15
178.014	-480.65
178.233	-2100
178.452	1198.72
178.672	-3593.55
178.891	-592.67
179.11	-637.31
179.33	-765.06
179.549	-943.92
179.768	-7418.18
179.987	-5471.43
180.207	-963.64
180.426	2639.06
180.645	-1682.47
180.864	-1235.59
181.084	2326.56
181.303	904
181.522	4509.37
181.741	0
181.96	39225
182.179	-5759.26
182.398	-3166
182.618	1636.84
182.837	-2020.27
183.056	-2479.66
183.275	-2393.44
183.494	-4515.15
183.713	2357.38
183.932	981.38
184.151	808.05
184.37	341.62
184.589	303.86
184.808	227.16
185.027	177.4
185.246	168.66
185.465	160.47
185.684	180.64
185.903	198.92
186.122	260
186.341	287.85
186.56	301.6
186.779	326.79
186.998	440.75
187.216	437.2
187.435	751.98
187.654	685.67
187.873	948.99
188.092	786.5
188.311	548.8
188.53	443.98
188.748	369.67
188.967	409.85
189.186	754.22
189.405	437.24
189.623	444.87
189.842	446.47
190.061	392.57
190.28	430.7
190.498	459.37
190.717	888.55
190.936	1124.17
191.154	826.82
191.373	662
191.592	1104.27
191.81	-36433.33
192.029	-721.32
192.248	-385.06
192.466	-264.6
192.685	-358.37
192.904	-308.46
193.122	-251.57
193.341	-276.04
193.559	-250
193.778	-231.56
193.996	-1693.85
194.215	3055.26
194.433	475.79
194.652	321.39
194.87	283.97
195.089	369.73
195.307	398.14
195.526	316.22
195.744	287.36
195.963	260.98
196.181	281.14
196.399	302.55
196.618	311.62
196.836	441.22
197.055	712.93
197.273	540.95
197.491	445.16
197.71	285.06
197.928	276.43
198.146	316.54
198.365	525.19
198.583	530.71
198.801	583.43
199.019	734.04
199.238	500.51
199.456	348.78
199.674	426.01
199.892	465.61
200.111	583.73
200.329	481.16
200.547	358.7
200.765	323.21
200.983	341.22
201.202	323.95
201.42	273.94
201.638	329.55
201.856	389.22
202.074	325.2
202.292	294.56
202.51	562.18
202.728	608.25
202.946	845.58
203.165	532.66
203.383	535.95
203.601	527.97
203.819	770.23
204.037	637.68
204.255	465.82
204.473	577.44
204.691	1975.76
204.909	411.28
205.127	467.84
205.345	313.11
205.562	206.92
205.78	210.85
205.998	181.81
206.216	172.81
206.434	150.4
206.652	139.71
206.87	137.7
207.088	151.35
207.306	134.01
207.523	126.3
207.741	136.39
207.959	220.2
208.177	193.91
208.395	205.8
208.612	203.87
208.83	244.52
209.048	334.18
209.266	361.38
209.483	246.57
209.701	261.48
209.919	307.52
210.136	361.73
210.354	274.01
210.572	262.24
210.79	243.66
211.007	268.09
211.225	229.8
211.442	180.4
211.66	156.68
211.878	149.17
212.095	149.67
212.313	134.79
212.53	149.41
212.748	133.79
212.966	128.34
213.183	119.52
213.401	118.99
213.618	123.13
213.836	131.87
214.053	131.02
214.271	148.98
214.488	160.13
214.705	169.36
214.923	149.26
215.14	163.2
215.358	154.54
215.575	174.65
215.793	140.86
216.01	126.81
216.227	108.53
216.445	115.7
216.662	113.03
216.879	105.83
217.097	102.19
217.314	98.27
217.531	98.3
217.749	99.82
217.966	83.28
218.183	98.27
218.4	108.42
218.618	126.38
218.835	118.98
219.052	111.67
219.269	109.21
219.487	101.22
219.704	98.18
219.921	93.66
220.138	87.56
220.355	93.67
220.572	83.49
220.79	81.65
221.007	75.54
221.224	74.92
221.441	69.34
221.658	62.8
221.875	58.37
222.092	54.08
222.309	53.06
222.526	57.84
222.743	54.3
222.96	51.8
223.177	48.6
223.394	46.49
223.611	38.95
223.828	42.68
224.045	47.49
224.262	46.73
224.479	43.57
224.696	43.72
224.913	46.17
225.13	48.11
225.347	46.43
225.564	41.08
225.781	40.16
225.997	42.18
226.214	36.27
226.431	34.1
226.648	31.09
226.865	30.3
227.082	28.08
227.298	23.14
227.515	20.47
227.732	19.01
227.949	19.44
228.165	17.7
228.382	16.61
228.599	15.87
228.816	14.66
229.032	13.95
229.249	13.03
229.466	12.62
229.682	13.16
229.899	13.01
230.116	13.35
230.332	13.22
230.549	13.62
230.765	13.26
230.982	14.52
231.199	14.53
231.415	15.71
231.632	14.83
231.848	15.83
232.065	14.34
232.281	16.51
232.498	16.01
232.714	15.47
232.931	15.51
233.147	17.39
233.364	16.09
233.58	17.54
233.797	17.67
234.013	20.29
234.23	19.84
234.446	20.02
234.662	17.5
234.879	17.94
235.095	17.66
235.312	17.86
235.528	17.65
235.744	18.01
235.961	17.64
236.177	17.46
236.393	16.25
236.61	15.48
236.826	16.52
237.042	18.51
237.258	18.43
237.475	19.21
237.691	20.24
237.907	19.19
238.123	20.66
238.339	20.47
238.556	20.42
238.772	21.13
238.988	23.09
239.204	23.4
239.42	22.88
239.636	22.99
239.853	20.58
240.069	17.82
240.285	16.78
240.501	15.23
240.717	14.64
240.933	14.23
241.149	12.63
241.365	11.26
241.581	10.85
241.797	10.45
242.013	9.19
242.229	9.03
242.445	9.23
242.661	9.34
242.877	9.75
243.093	9.64
243.309	9.11
243.525	9.71
243.741	10.05
243.957	9.58
244.173	9.21
244.388	10.35
244.604	10.88
244.82	10.93
245.036	10.68
245.252	10.23
245.468	9.75
245.683	9.65
245.899	9.4
246.115	8.98
246.331	8.58
246.547	8.49
246.762	8.13
246.978	7.94
247.194	7.71
247.409	7.91
247.625	7.72
247.841	7.72
248.057	7.64
248.272	7.25
248.488	7.06
248.703	7.12
248.919	7.57
249.135	7.63
249.35	7.64
249.566	8.4
249.782	8.09
249.997	8.84
250.213	9.09
250.428	9.49
250.644	9.82
250.859	9.88
251.075	10.78
251.29	10.17
251.506	9.96
251.721	10.37
251.937	10.7
252.152	10.68
252.368	10.04
252.583	9.91
252.798	9.92
253.014	10.6
253.229	10.86
253.445	11.19
253.66	11.76
253.875	12.34
254.091	12.44
254.306	12.45
254.521	13.56
254.737	14.39
254.952	14.87
255.167	14.88
255.383	14.18
255.598	13.81
255.813	13.14
256.028	12.9
256.244	13.37
256.459	13.11
256.674	11.89
256.889	10.77
257.104	9.89
257.32	9.37
257.535	9.22
257.75	9.45
257.965	9.65
258.18	9.22
258.395	8.29
258.61	7.32
258.826	6.71
259.041	6.45
259.256	6.47
259.471	6.45
259.686	6.52
259.901	6.5
260.116	6.27
260.331	5.65
260.546	5.59
260.761	5.99
260.976	6.34
261.191	6.75
261.406	6.77
261.621	6.71
261.836	6.65
262.05	6.4
262.265	6.86
262.48	6.99
262.695	7.71
262.91	8.22
263.125	8.01
263.34	7.5
263.555	7.56
263.769	8.21
263.984	8.45
264.199	8.66
264.414	9.52
264.629	9.12
264.843	9.04
265.058	9.46
265.273	9.19
265.488	9.38
265.702	9.64
265.917	9.31
266.132	8.78
266.346	8.64
266.561	8.68
266.776	7.96
266.99	7.39
267.205	7.78
267.42	7.82
267.634	7.95
267.849	7.56
268.063	7.24
268.278	6.8
268.492	7.08
268.707	7.05
268.922	6.63
269.136	6.43
269.351	7.12
269.565	6.65
269.78	6.23
269.994	5.79
270.209	5.78
270.423	6
270.637	6.42
270.852	5.75
271.066	5.25
271.281	5.45
271.495	5.87
271.709	5.4
271.924	5.43
272.138	5.23
272.353	5.22
272.567	5.18
272.781	5.51
272.996	5.67
273.21	5.56
273.424	6.07
273.638	6.16
273.853	6.45
274.067	6.81
274.281	6.98
274.495	7.64
274.71	7.01
274.924	7.26
275.138	6.6
275.352	6.84
275.566	7.7
275.781	7.54
275.995	7.56
276.209	7.32
276.423	6.79
276.637	6.47
276.851	5.8
277.065	6.73
277.279	6.66
277.493	7.24
277.707	6.61
277.921	6.55
278.135	6.51
278.349	6.37
278.563	6.67
278.777	7.45
278.991	7.8
279.205	8.3
279.419	8.16
279.633	8.27
279.847	8.16
280.061	8.28
280.275	8.07
280.489	7.61
280.703	7.98
280.917	7.55
281.131	7.05
281.344	6.99
281.558	6.83
281.772	6.79
281.986	6.74
282.2	6.57
282.414	6.45
282.627	6.42
282.841	6.67
283.055	6.41
283.269	6.61
283.482	6.59
283.696	6.59
283.91	6.5
284.123	6.19
284.337	6.25
284.551	6.22
284.764	6.27
284.978	6.15
285.192	6.25
285.405	5.97
285.619	5.52
285.833	5.67
286.046	5.47
286.26	5.4
286.473	5.52
286.687	5.45
286.9	5.81
287.114	5.91
287.327	6.34
287.541	6.37
287.754	6.64
287.968	7.17
288.181	6.51
288.395	6.63
288.608	6.58
288.822	6.69
289.035	6.47
289.248	6.01
289.462	5.74
289.675	5.57
289.889	5.65
290.102	5.78
290.315	5.56
290.529	6.12
290.742	5.96
290.955	6.03
291.169	5.96
291.382	6.51
291.595	6.55
291.808	6.73
292.022	6.52
292.235	6.4
292.448	6.52
292.661	6.75
292.875	6.92
293.088	7.39
293.301	7.71
293.514	7.67
293.727	7.09
293.94	7.36
294.153	7.53
294.367	7.63
294.58	7.67
294.793	7.35
295.006	7.21
295.219	7.1
295.432	6.92
295.645	6.96
295.858	6.81
296.071	6.88
296.284	6.85
296.497	6.89
296.71	6.95
296.923	6.9
297.136	6.88
297.349	7.09
297.562	7.06
297.775	7.19
297.988	7.12
298.201	7.44
298.414	7.57
298.626	7.54
298.839	7.4
299.052	7.46
299.265	8.12
299.478	8.49
299.691	8.34
299.903	8.35
300.116	8.41
300.329	8.7
300.542	8.83
300.755	9.01
300.967	9.07
301.18	9.49
301.393	9.46
301.605	9.08
301.818	9.11
302.031	9.12
302.243	9.38
302.456	9.68
302.669	9.61
302.881	9.57
303.094	9.81
303.307	9.94
303.519	9.95
303.732	10.09
303.944	10.07
304.157	9.86
304.37	10.01
304.582	10.12
304.795	10.05
305.007	10.27
305.22	10.22
305.432	10.18
305.645	10
305.857	9.9
306.069	9.81
306.282	10.14
306.494	10.37
306.707	10.62
306.919	10.59
307.132	10.77
307.344	10.55
307.556	10.86
307.769	10.78
307.981	10.75
308.193	10.95
308.406	11.13
308.618	10.7
308.83	10.98
309.043	10.96
309.255	11.03
309.467	10.88
309.679	10.9
309.892	10.64
310.104	10.29
310.316	10.54
310.528	10.36
310.74	10.28
310.953	10.58
311.165	10.41
311.377	10.18
311.589	9.92
311.801	9.81
312.013	9.72
312.225	9.9
312.437	10.44
312.649	10.28
312.862	10.65
313.074	10.67
313.286	10.39
313.498	10.3
313.71	10.38
313.922	10.8
314.134	11.09
314.346	11.15
314.558	11.28
314.77	11.14
314.982	11.28
315.193	10.64
315.405	10.86
315.617	11.11
315.829	10.82
316.041	10.74
316.253	10.7
316.465	10.27
316.677	10.58
316.888	10.26
317.1	10.12
317.312	10.24
317.524	10.76
317.736	10.76
317.947	10.93
318.159	11.38
318.371	12.29
318.583	12.9
318.794	13.65
319.006	13.65
319.218	14.15
319.43	14.49
319.641	14.62
319.853	14.28
320.064	14.27
320.276	14.07
320.488	14.24
320.699	13.93
320.911	13.55
321.123	13.57
321.334	13.76
321.546	13.52
321.757	13.4
321.969	13.14
322.18	13.81
322.392	13.87
322.603	14.14
322.815	14.05
323.026	13.8
323.238	13.76
323.449	13.5
323.661	13.22
323.872	13.35
324.083	13.59
324.295	13.7
324.506	13.16
324.718	12.83
324.929	13.1
325.14	13.54
325.352	13.48
325.563	13.43
325.774	13.4
325.986	13.65
326.197	13.65
326.408	13.67
326.62	13.94
326.831	14.31
327.042	14.89
327.253	14.55
327.464	14.01
327.676	14.43
327.887	14.75
328.098	14.89
328.309	15.17
328.52	15.44
328.732	15.56
328.943	15.46
329.154	15.61
329.365	15.63
329.576	15.76
329.787	16.61
329.998	16.54
330.209	16.73
330.42	17.41
330.631	16.98
330.842	17.44
331.053	17.53
331.264	17.59
331.475	17.84
331.686	17.77
331.897	17.76
332.108	17.54
332.319	17.47
332.53	17.74
332.741	17.11
332.952	17.5
333.163	16.78
333.374	16.81
333.585	16.96
333.795	16.84
334.006	16.95
334.217	17.32
334.428	17.56
334.639	17.69
334.849	17.11
335.06	16.89
335.271	17.03
335.482	17.61
335.692	17.74
335.903	18.04
336.114	17.93
336.325	17.94
336.535	18.2
336.746	18.16
336.957	18.36
337.167	18.77
337.378	19.39
337.589	19.3
337.799	19.38
338.01	19.18
338.22	18.9
338.431	18.99
338.642	18.9
338.852	18.07
339.063	17.78
339.273	17.4
339.484	17.33
339.694	17.08
339.905	17.17
340.115	16.8
340.326	16.95
340.536	17.04
340.746	16.95
340.957	16.99
341.167	17.76
341.378	17.92
341.588	18.03
341.799	17.72
342.009	17.82
342.219	17.74
342.43	17.98
342.64	17.84
342.85	17.69
343.061	17.47
343.271	17.55
343.481	17.31
343.691	17.46
343.902	17.32
344.112	17.58
344.322	17.7
344.532	17.67
344.743	17.3
344.953	17.39
345.163	17.67
345.373	17.98
345.583	17.98
345.793	17.78
346.004	17.89
346.214	18.04
346.424	18.19
346.634	17.91
346.844	17.92
347.054	18.04
347.264	17.86
347.474	17.48
347.684	17.56
347.894	17.39
348.104	17.36
348.314	17.02
348.524	16.96
348.734	16.87
348.944	16.93
349.154	16.49
349.364	16.89
349.574	17.31
349.784	17.71
349.994	17.56
350.204	17.75
350.413	17.9
350.623	18
350.833	18.16
351.043	17.65
351.253	17.69
351.463	18.1
351.672	17.91
351.882	17.93
352.092	17.47
352.302	17.54
352.511	17.53
352.721	17.44
352.931	17.22
353.141	17.01
353.35	17.26
353.56	17.22
353.77	16.86
353.979	16.89
354.189	16.51
354.399	16.88
354.608	16.79
354.818	16.7
355.027	16.68
355.237	16.73
355.447	16.94
355.656	16.95
355.866	16.66
356.075	17.08
356.285	16.68
356.494	16.69
356.704	16.1
356.913	15.91
357.123	15.72
357.332	15.55
357.542	15.65
357.751	15.49
357.96	15.57
358.17	15.84
358.379	15.55
358.589	15.87
358.798	15.98
359.007	16.23
359.217	16.26
359.426	16.47
359.635	16.79
359.845	16.66
360.054	16.49
360.263	16.43
360.472	16.48
360.682	16.32
360.891	16.25
361.1	16.12
361.309	16.04
361.519	15.99
361.728	15.86
361.937	15.63
362.146	15.63
362.355	15.76
362.564	15.67
362.774	15.4
362.983	15.39
363.192	15.02
363.401	14.96
363.61	15.02
363.819	15.34
364.028	15.46
364.237	15.57
364.446	15.63
364.655	15.49
364.864	15.26
365.073	15.4
365.282	15.8
365.491	15.81
365.7	15.92
365.909	16.03
366.118	15.77
366.327	15.83
366.536	15.76
366.745	15.73
366.954	15.6
367.162	15.64
367.371	15.67
367.58	15.43
367.789	15.62
367.998	15.29
368.207	15.26
368.415	15.07
368.624	15.27
368.833	15.38
369.042	15.23
369.25	15.49
369.459	15.57
369.668	15.6
369.877	15.59
370.085	15.58
370.294	15.65
370.503	15.49
370.711	15.33
370.92	14.73
371.129	14.68
371.337	14.47
371.546	14.35
371.754	14.43
371.963	14.23
372.171	14.1
372.38	13.91
372.589	13.76
372.797	13.95
373.006	14.26
373.214	14.29
373.423	14.29
373.631	14.69
373.84	14.66
374.048	14.49
374.256	14.32
374.465	14.1
374.673	14.33
374.882	14.4
375.09	14.24
375.298	14.07
375.507	14.23
375.715	14.12
375.923	13.6
376.132	13.66
376.34	13.62
376.548	13.48
376.757	13.67
376.965	13.67
377.173	13.52
377.381	13.31
377.59	13.38
377.798	13.23
378.006	12.96
378.214	13.05
378.423	12.96
378.631	13.11
378.839	13.16
379.047	12.91
379.255	12.73
379.463	12.9
379.671	12.95
379.879	12.91
380.088	12.91
380.296	12.9
380.504	12.93
380.712	12.51
380.92	12.2
381.128	12.21
381.336	12.4
381.544	12.59
381.752	12.47
381.96	12.29
382.168	12.17
382.376	11.91
382.584	11.89
382.791	11.64
382.999	11.59
383.207	11.89
383.415	12.05
383.623	11.76
383.831	11.53
384.039	11.73
384.247	11.82
384.454	11.88
384.662	11.81
384.87	11.81
385.078	11.74
385.285	12.04
385.493	11.54
385.701	11.57
385.909	11.78
386.116	11.92
386.324	11.76
386.532	11.79
386.739	11.69
386.947	11.64
387.155	11.85
387.362	12.1
387.57	12.02
387.778	12.08
387.985	11.82
388.193	11.83
388.4	11.53
388.608	11.42
388.816	11.18
389.023	11.17
389.231	11.15
389.438	10.87
389.646	10.76
389.853	10.74
390.061	10.86
390.268	10.81
390.475	10.55
390.683	10.51
390.89	10.32
391.098	10.46
391.305	10.38
391.512	10.42
391.72	10.31
391.927	10.13
392.135	9.91
392.342	9.8
392.549	9.67
392.756	9.67
392.964	9.49
393.171	9.7
393.378	9.4
393.586	9.36
393.793	9.43
394	9.54
394.207	9.68
394.414	9.82
394.622	9.79
394.829	9.99
395.036	10.07
395.243	10.21
395.45	10.04
395.657	10.02
395.864	9.99
396.072	9.74
396.279	9.72
396.486	9.62
396.693	9.54
396.9	9.32
397.107	9.05
397.314	9.23
397.521	9.3
397.728	9.11
397.935	9.21
398.142	9.21
398.349	9.24
398.556	9.16
398.763	9.29
398.97	9.27
399.177	9.36
399.383	9.56
399.59	9.37
399.797	9.24
400.004	9.37
400.211	9.28
400.418	9.27
400.625	9.38
400.831	9.47
401.038	9.31
401.245	9.28
401.452	9.35
401.658	9.27
401.865	9.03
402.072	9
402.279	9.11
402.485	9.34
402.692	9.28
402.899	9.2
403.105	9.06
403.312	9
403.519	9.04
403.725	9.16
403.932	9.13
404.138	9.15
404.345	9
404.552	8.81
404.758	8.59
404.965	8.58
405.171	8.68
405.378	8.77
405.584	8.89
405.791	8.86
405.997	8.65
406.204	8.61
406.41	8.62
406.617	8.83
406.823	8.8
407.029	8.86
407.236	8.92
407.442	8.74
407.649	8.48
407.855	8.26
408.061	8.19
408.268	8.27
408.474	8.3
408.68	8.34
408.887	8.3
409.093	8.41
409.299	8.39
409.505	8.39
409.712	8.38
409.918	8.56
410.124	8.68
410.33	8.56
410.537	8.57
410.743	8.52
410.949	8.49
411.155	8.47
411.361	8.47
411.567	8.44
411.773	8.29
411.98	8.41
412.186	8.45
412.392	8.32
412.598	8.54
412.804	8.51
413.01	8.56
413.216	8.59
413.422	8.64
413.628	8.64
413.834	8.55
414.04	8.67
414.246	8.44
414.452	8.44
414.658	8.46
414.864	8.31
415.07	8.37
415.275	8.36
415.481	8.37
415.687	8.36
415.893	8.34
416.099	8.32
416.305	8.19
416.511	8.22
416.716	8.22
416.922	8.2
417.128	8.09
417.334	8.01
417.539	7.84
417.745	7.78
417.951	7.59
418.157	7.48
418.362	7.36
418.568	7.33
418.774	7.3
418.979	7.28
419.185	7.27
419.391	7.28
419.596	7.26
419.802	7.31
420.008	7.29
420.213	7.34
420.419	7.31
420.624	7.34
420.83	7.42
421.035	7.42
421.241	7.3
421.446	7.3
421.652	7.28
421.857	7.22
422.063	7.28
422.268	7.22
422.474	7.16
422.679	7.16
422.885	7.22
423.09	7.16
423.295	7.16
423.501	7.19
423.706	7.15
423.911	7.21
424.117	7.25
424.322	7.2
424.527	7.23
424.733	7.18
424.938	7.22
425.143	7.2
425.349	7.17
425.554	7.08
425.759	7.16
425.964	7.16
426.169	7.13
426.375	7.15
426.58	7.07
426.785	7.14
426.99	7.32
427.195	7.23
427.4	7.3
427.605	7.39
427.811	7.55
428.016	7.46
428.221	7.52
428.426	7.47
428.631	7.46
428.836	7.49
429.041	7.43
429.246	7.51
429.451	7.61
429.656	7.47
429.861	7.37
430.066	7.38
430.271	7.39
430.476	7.22
430.681	7.33
430.886	7.3
431.09	7.28
431.295	7.25
431.5	7.06
431.705	7.11
431.91	7.06
432.115	7.11
432.32	7.08
432.524	7.06
432.729	7.2
432.934	7.18
433.139	7.12
433.343	7.13
433.548	7.12
433.753	7.15
433.958	7.15
434.162	7.15
434.367	7.12
434.572	7.13
434.776	7.01
434.981	6.91
435.186	6.86
435.39	6.92
435.595	7
435.799	6.99
436.004	7.05
436.209	7.04
436.413	7.25
436.618	7.38
436.822	7.42
437.027	7.51
437.231	7.54
437.436	7.57
437.64	7.58
437.845	7.56
438.049	7.57
438.253	7.54
438.458	7.48
438.662	7.41
438.867	7.31
439.071	7.21
439.275	7.21
439.48	7.23
439.684	7.22
439.888	7.15
440.093	7.18
440.297	7.21
440.501	7.24
440.706	7.27
440.91	7.23
441.114	7.13
441.318	7.13
441.523	7.18
441.727	7.21
441.931	7.15
442.135	7.16
442.339	7.02
442.543	7.01
442.748	6.97
442.952	6.91
443.156	6.86
443.36	7.01
443.564	7.13
443.768	7.08
443.972	7.09
444.176	7.13
444.38	7.16
444.584	7.26
444.788	7.29
444.992	7.32
445.196	7.3
445.4	7.31
445.604	7.26
445.808	7.11
446.012	7.1
446.216	7.03
446.42	7
446.624	6.97
446.828	6.92
447.032	6.82
447.235	6.73
447.439	6.73
447.643	6.64
447.847	6.67
448.051	6.77
448.254	6.65
448.458	6.72
448.662	6.76
448.866	6.71
449.069	6.74
449.273	6.79
449.477	6.85
449.681	6.87
449.884	6.98
450.088	6.94
450.292	6.92
450.495	7.13
450.699	7.17
450.902	7.12
451.106	7.26
451.31	7.31
451.513	7.28
451.717	7.25
451.92	7.26
452.124	7.38
452.327	7.33
452.531	7.36
452.734	7.29
452.938	7.11
453.141	7.14
453.345	7.09
453.548	7.04
453.752	6.98
453.955	7
454.158	6.98
454.362	6.84
454.565	6.86
454.769	6.82
454.972	6.74
455.175	6.87
455.379	6.78
455.582	6.84
455.785	6.76
455.988	6.76
456.192	6.7
456.395	6.65
456.598	6.71
456.801	6.77
457.005	6.8
457.208	7
457.411	6.89
457.614	6.93
457.817	6.91
458.021	6.91
458.224	7
458.427	7.07
458.63	7.09
458.833	7.1
459.036	7.04
459.239	6.91
459.442	6.71
459.645	6.73
459.848	6.74
460.051	6.74
460.254	6.82
460.457	6.8
460.66	6.7
460.863	6.7
461.066	6.65
461.269	6.61
461.472	6.74
461.675	6.81
461.878	6.88
462.081	6.93
462.284	6.89
462.486	6.78
462.689	6.75
462.892	6.87
463.095	6.96
463.298	7.01
463.5	7.07
463.703	7.15
463.906	7.22
464.109	7.2
464.311	7.3
464.514	7.21
464.717	7.27
464.92	7.3
465.122	7.27
465.325	7.27
465.528	7.16
465.73	7.2
465.933	7.07
466.135	7.1
466.338	7.17
466.541	7.05
466.743	7.07
466.946	6.98
467.148	6.88
467.351	7
467.553	7.04
467.756	7.16
467.958	7.07
468.161	7.09
468.363	7.07
468.566	6.89
468.768	6.99
468.971	7.04
469.173	7.17
469.375	7.24
469.578	7.11
469.78	7.03
469.983	6.96
470.185	6.99
470.387	7
470.59	6.94
470.792	7.1
470.994	7.15
471.196	7.13
471.399	7.16
471.601	7.19
471.803	7.24
472.005	7.27
472.208	7.34
472.41	7.45
472.612	7.45
472.814	7.52
473.016	7.54
473.218	7.51
473.421	7.53
473.623	7.4
473.825	7.31
474.027	7.25
474.229	7.24
474.431	7.23
474.633	7.27
474.835	7.21
475.037	7.17
475.239	7.19
475.441	7.2
475.643	7.19
475.845	7.27
476.047	7.41
476.249	7.37
476.451	7.33
476.653	7.28
476.855	7.12
477.057	7.17
477.258	7.18
477.46	7.04
477.662	6.91
477.864	6.93
478.066	6.89
478.268	6.78
478.469	6.8
478.671	6.83
478.873	6.87
479.075	6.92
479.276	6.9
479.478	6.91
479.68	6.97
479.882	7.05
480.083	6.96
480.285	6.95
480.487	6.99
480.688	7.03
480.89	7.06
481.091	7.01
481.293	6.95
481.495	6.93
481.696	6.92
481.898	6.84
482.099	6.76
482.301	6.75
482.502	6.72
482.704	6.65
482.905	6.62
483.107	6.53
483.308	6.49
483.51	6.51
483.711	6.49
483.913	6.43
484.114	6.42
484.315	6.38
484.517	6.38
484.718	6.38
484.92	6.4
485.121	6.36
485.322	6.38
485.524	6.39
485.725	6.33
485.926	6.35
486.127	6.39
486.329	6.38
486.53	6.4
486.731	6.4
486.932	6.39
487.134	6.41
487.335	6.4
487.536	6.39
487.737	6.39
487.938	6.4
488.139	6.36
488.341	6.37
488.542	6.41
488.743	6.41
488.944	6.42
489.145	6.45
489.346	6.4
489.547	6.44
489.748	6.44
489.949	6.43
490.15	6.46
490.351	6.42
490.552	6.44
490.753	6.44
490.954	6.46
491.155	6.5
491.356	6.51
491.557	6.53
491.758	6.53
491.959	6.55
492.159	6.61
492.36	6.66
492.561	6.73
492.762	6.77
492.963	6.79
493.164	6.76
493.364	6.75
493.565	6.74
493.766	6.76
493.967	6.85
494.167	6.92
494.368	6.92
494.569	6.89
494.769	6.93
494.97	6.91
495.171	6.96
495.371	7.09
495.572	7.13
495.773	7.14
495.973	7.18
496.174	7.14
496.375	7.17
496.575	7.25
496.776	7.31
496.976	7.34
497.177	7.36
497.377	7.29
497.578	7.29
497.778	7.27
497.979	7.34
498.179	7.4
498.38	7.42
498.58	7.45
498.78	7.4
498.981	7.4
499.181	7.43
499.382	7.51
499.582	7.65
499.782	7.68
499.983	7.71
500.183	7.71
500.383	7.69
500.584	7.73
500.784	7.71
500.984	7.79
501.184	7.74
501.385	7.81
501.585	7.89
501.785	7.92
501.985	7.99
502.185	8.04
502.386	8.11
502.586	8.22
502.786	8.29
502.986	8.34
503.186	8.48
503.386	8.57
503.586	8.51
503.786	8.46
503.987	8.36
504.187	8.34
504.387	8.39
504.587	8.47
504.787	8.39
504.987	8.42
505.187	8.37
505.387	8.27
505.587	8.38
505.786	8.5
505.986	8.53
506.186	8.69
506.386	8.79
506.586	8.79
506.786	8.76
506.986	8.92
507.186	8.97
507.386	9.04
507.585	9.14
507.785	9.11
507.985	9.07
508.185	9.09
508.384	9.18
508.584	9.25
508.784	9.28
508.984	9.33
509.183	9.39
509.383	9.45
509.583	9.55
509.782	9.54
509.982	9.69
510.182	9.85
510.381	9.91
510.581	9.9
510.781	9.99
510.98	10.09
511.18	10.2
511.379	10.26
511.579	10.34
511.778	10.44
511.978	10.59
512.177	10.66
512.377	10.71
512.576	10.85
512.776	10.86
512.975	10.9
513.175	11.04
513.374	11.21
513.573	11.35
513.773	11.42
513.972	11.52
514.172	11.65
514.371	11.69
514.57	11.77
514.77	11.83
514.969	11.97
515.168	12.02
515.367	12.03
515.567	12.02
515.766	12
515.965	12.13
516.164	12.09
516.364	12.19
516.563	12.25
516.762	12.32
516.961	12.43
517.16	12.56
517.359	12.63
517.559	12.77
517.758	12.84
517.957	12.97
518.156	12.99
518.355	13.15
518.554	13.21
518.753	13.24
518.952	13.31
519.151	13.36
519.35	13.42
519.549	13.53
519.748	13.57
519.947	13.7
520.146	13.7
520.345	13.73
520.544	13.79
520.743	13.86
520.942	14.08
521.141	14.23
521.339	14.43
521.538	14.54
521.737	14.62
521.936	14.73
522.135	14.71
522.333	14.83
522.532	15.03
522.731	15.15
522.93	15.21
523.129	15.25
523.327	15.35
523.526	15.36
523.725	15.5
523.923	15.49
524.122	15.63
524.321	15.77
524.519	15.83
524.718	15.87
524.917	15.91
525.115	15.99
525.314	16.05
525.512	16.09
525.711	16.21
525.909	16.23
526.108	16.41
526.306	16.45
526.505	16.47
526.703	16.55
526.902	16.65
527.1	16.69
527.299	16.73
527.497	16.84
527.696	16.89
527.894	16.93
528.092	16.97
528.291	16.97
528.489	16.98
528.688	17.03
528.886	17.06
529.084	17.08
529.283	17.15
529.481	17.23
529.679	17.25
529.877	17.27
530.076	17.26
530.274	17.32
530.472	17.4
530.67	17.51
530.869	17.67
531.067	17.8
531.265	17.93
531.463	18.02
531.661	18.06
531.859	18.14
532.057	18.26
532.255	18.35
532.454	18.44
532.652	18.49
532.85	18.58
533.048	18.58
533.246	18.61
533.444	18.67
533.642	18.7
533.84	18.74
534.038	18.82
534.236	18.9
534.434	18.99
534.632	19.03
534.83	19.13
535.027	19.2
535.225	19.33
535.423	19.4
535.621	19.45
535.819	19.53
536.017	19.6
536.215	19.61
536.412	19.61
536.61	19.66
536.808	19.68
537.006	19.68
537.203	19.71
537.401	19.72
537.599	19.8
537.797	19.87
537.994	19.88
538.192	19.95
538.39	20.05
538.587	20.22
538.785	20.4
538.983	20.54
539.18	20.64
539.378	20.73
539.575	20.73
539.773	20.79
539.97	20.84
540.168	20.96
540.366	21.03
540.563	21.05
540.761	21.02
540.958	21.03
541.155	21.03
541.353	21.08
541.55	21.11
541.748	21.16
541.945	21.17
542.143	21.18
542.34	21.2
542.537	21.2
542.735	21.27
542.932	21.35
543.129	21.34
543.327	21.4
543.524	21.43
543.721	21.55
543.919	21.72
544.116	21.88
544.313	21.97
544.51	22.1
544.708	22.32
544.905	22.4
545.102	22.55
545.299	22.73
545.496	22.84
545.693	23
545.891	23.01
546.088	22.94
546.285	22.88
546.482	22.92
546.679	22.87
546.876	22.78
547.073	22.77
547.27	22.74
547.467	22.7
547.664	22.69
547.861	22.62
548.058	22.56
548.255	22.62
548.452	22.71
548.649	22.78
548.846	22.81
549.043	22.98
549.24	22.96
549.437	22.96
549.633	22.92
549.83	23.06
550.027	23.15
550.224	23.16
550.421	23.1
550.618	23.03
550.814	23.08
551.011	23.17
551.208	23.13
551.405	23.24
551.601	23.34
551.798	23.51
551.995	23.47
552.191	23.5
552.388	23.59
552.585	23.65
552.781	23.75
552.978	23.69
553.175	23.7
553.371	23.71
553.568	23.68
553.764	23.59
553.961	23.61
554.157	23.59
554.354	23.67
554.55	23.75
554.747	23.92
554.943	23.93
555.14	24
555.336	23.98
555.533	23.99
555.729	24.12
555.926	24.21
556.122	24.28
556.318	24.32
556.515	24.23
556.711	24.23
556.907	24.25
557.104	24.28
557.3	24.28
557.496	24.24
557.693	24.32
557.889	24.34
558.085	24.38
558.281	24.42
558.478	24.5
558.674	24.44
558.87	24.48
559.066	24.44
559.262	24.52
559.459	24.6
559.655	24.66
559.851	24.7
560.047	24.57
560.243	24.58
560.439	24.56
560.635	24.5
560.831	24.55
561.027	24.62
561.223	24.7
561.419	24.74
561.615	24.69
561.811	24.79
562.007	24.64
562.203	24.68
562.399	24.61
562.595	24.53
562.791	24.55
562.987	24.66
563.183	24.62
563.379	24.58
563.575	24.55
563.771	24.63
563.966	24.49
564.162	24.61
564.358	24.77
564.554	24.79
564.75	24.76
564.945	24.88
565.141	24.89
565.337	24.98
565.533	24.98
565.728	24.91
565.924	24.84
566.12	24.97
566.315	25.11
566.511	25.03
566.707	25.23
566.902	25.33
567.098	25.27
567.293	25.3
567.489	25.31
567.684	25.35
567.88	25.49
568.076	25.65
568.271	25.74
568.467	25.64
568.662	25.75
568.858	25.64
569.053	25.5
569.248	25.52
569.444	25.47
569.639	25.47
569.835	25.49
570.03	25.44
570.225	25.29
570.421	25.24
570.616	25.24
570.812	25.3
571.007	25.25
571.202	25.44
571.397	25.45
571.593	25.53
571.788	25.54
571.983	25.48
572.178	25.53
572.374	25.58
572.569	25.61
572.764	25.72
572.959	25.58
573.154	25.66
573.35	25.56
573.545	25.52
573.74	25.54
573.935	25.64
574.13	25.71
574.325	25.73
574.52	25.87
574.715	25.86
574.91	25.77
575.105	25.85
575.3	25.76
575.495	25.76
575.69	25.78
575.885	25.74
576.08	25.65
576.275	25.7
576.47	25.71
576.665	25.72
576.86	25.86
577.055	25.83
577.25	25.94
577.444	26.1
577.639	26.18
577.834	26.38
578.029	26.41
578.224	26.38
578.418	26.46
578.613	26.55
578.808	26.57
579.003	26.45
579.197	26.68
579.392	26.65
579.587	26.65
579.781	26.8
579.976	26.66
580.171	26.89
580.365	26.96
580.56	27
580.755	27.05
580.949	27.08
581.144	27.09
581.338	26.89
581.533	26.9
581.727	26.99
581.922	27.03
582.116	27.23
582.311	26.99
582.505	27.22
582.7	27.17
582.894	27.13
583.089	27.23
583.283	27.36
583.478	27.68
583.672	27.92
583.866	27.85
584.061	27.78
584.255	27.74
584.449	27.98
584.644	27.91
584.838	27.79
585.032	27.79
585.226	27.61
585.421	27.65
585.615	27.44
585.809	27.34
586.003	27.39
586.198	27.48
586.392	27.64
586.586	27.49
586.78	27.39
586.974	27.51
587.168	27.51
587.363	27.69
587.557	27.63
587.751	27.82
587.945	27.87
588.139	28.02
588.333	27.8
588.527	27.8
588.721	27.75
588.915	27.85
589.109	27.77
589.303	27.69
589.497	27.64
589.691	27.55
589.885	27.45
590.079	27.38
590.273	27.4
590.466	27.58
590.66	27.44
590.854	27.53
591.048	27.63
591.242	27.69
591.436	27.74
591.629	27.72
591.823	27.88
592.017	28.01
592.211	27.93
592.404	27.95
592.598	27.92
592.792	27.91
592.986	27.97
593.179	27.89
593.373	27.9
593.567	28.04
593.76	28.02
593.954	28.12
594.147	28.06
594.341	28.13
594.535	28.1
594.728	28.05
594.922	28.01
595.115	27.95
595.309	27.85
595.502	27.91
595.696	27.83
595.889	27.88
596.083	27.81
596.276	27.8
596.47	27.86
596.663	27.72
596.856	27.62
597.05	27.67
597.243	27.71
597.437	27.68
597.63	27.6
597.823	27.63
598.017	27.57
598.21	27.55
598.403	27.54
598.596	27.53
598.79	27.52
598.983	27.85
599.176	27.88
599.369	27.9
599.563	28.13
599.756	28.26
599.949	28.24
600.142	28.28
600.335	28.26
600.528	28.35
600.722	28.46
600.915	28.68
601.108	28.73
601.301	28.87
601.494	28.81
601.687	28.66
601.88	28.62
602.073	28.52
602.266	28.49
602.459	28.5
602.652	28.39
602.845	28.22
603.038	28.05
603.231	27.83
603.424	27.72
603.617	27.74
603.809	27.77
604.002	27.83
604.195	27.96
604.388	28.04
604.581	28.02
604.774	28.04
604.966	28.05
605.159	28.15
605.352	28.24
605.545	28.23
605.737	28.26
605.93	28.28
606.123	28.25
606.316	28.25
606.508	28.38
606.701	28.44
606.894	28.48
607.086	28.72
607.279	28.61
607.471	28.86
607.664	28.93
607.857	28.93
608.049	29.07
608.242	29.21
608.434	29.38
608.627	29.44
608.819	29.6
609.012	29.94
609.204	30.16
609.397	30.73
609.589	30.96
609.782	31.33
609.974	31.78
610.166	32.25
610.359	32.71
610.551	33.03
610.743	33.39
610.936	33.82
611.128	33.97
611.32	34.02
611.513	34.03
611.705	34.07
611.897	34.13
612.09	34.02
612.282	33.7
612.474	33.52
612.666	33.3
612.858	32.98
613.051	32.92
613.243	32.67
613.435	32.61
613.627	32.24
613.819	32.13
614.011	32.17
614.203	32.21
614.395	32.22
614.588	31.86
614.78	31.67
614.972	31.6
615.164	31.35
615.356	31.34
615.548	31.15
615.74	31.33
615.932	31.02
616.124	30.77
616.315	30.48
616.507	30.42
616.699	30.39
616.891	30.44
617.083	30.52
617.275	30.37
617.467	30.26
617.659	30.32
617.85	30.18
618.042	30.25
618.234	29.93
618.426	30.09
618.618	30.11
618.809	30.07
619.001	30.06
619.193	29.88
619.384	29.84
619.576	29.83
619.768	29.8
619.959	29.72
620.151	29.9
620.343	30.18
620.534	30.04
620.726	30.1
620.917	30.23
621.109	30.2
621.301	30.38
621.492	30.42
621.684	30.5
621.875	30.54
622.067	30.51
622.258	30.33
622.45	30.3
622.641	30.27
622.832	30.13
623.024	30.19
623.215	30.2
623.407	30.18
623.598	30.16
623.789	29.85
623.981	29.64
624.172	29.72
624.363	29.81
624.555	29.7
624.746	29.88
624.937	29.86
625.129	29.92
625.32	29.74
625.511	29.54
625.702	29.54
625.893	29.75
626.085	29.69
626.276	29.6
626.467	29.48
626.658	29.56
626.849	29.46
627.04	29.35
627.231	29.28
627.422	29.45
627.614	29.65
627.805	29.71
627.996	29.83
628.187	29.95
628.378	29.97
628.569	30.35
628.76	30.36
628.951	30.33
629.142	30.68
629.332	30.72
629.523	30.81
629.714	30.7
629.905	30.8
630.096	30.93
630.287	31.11
630.478	31.2
630.669	30.98
630.859	31.26
631.05	31.49
631.241	31.57
631.432	31.67
631.623	31.58
631.813	31.63
632.004	31.44
632.195	31.24
632.385	31.03
632.576	31.03
632.767	31.01
632.957	30.58
633.148	30.4
633.339	30.02
633.529	29.84
633.72	29.76
633.91	29.69
634.101	29.67
634.292	29.65
634.482	29.76
634.673	29.76
634.863	29.69
635.054	29.66
635.244	29.74
635.435	29.83
635.625	29.84
635.815	29.96
636.006	30.02
636.196	30.27
636.387	30.3
636.577	30.28
636.767	30.14
636.958	30.22
637.148	30.46
637.338	30.53
637.529	30.57
637.719	30.6
637.909	30.51
638.099	30.26
638.29	30.28
638.48	30.24
638.67	30.3
638.86	30.67
639.05	30.29
639.241	30.26
639.431	30.06
639.621	29.94
639.811	29.89
640.001	29.98
640.191	30.36
640.381	30.45
640.571	30.44
640.761	30.59
640.951	30.58
641.141	30.73
641.331	30.81
641.521	30.84
641.711	30.93
641.901	31.01
642.091	31.01
642.281	30.88
642.471	30.67
642.661	30.88
642.851	30.79
643.041	30.73
643.231	30.9
643.42	30.71
643.61	30.8
643.8	30.81
643.99	30.74
644.18	30.82
644.369	30.9
644.559	30.98
644.749	30.77
644.939	30.75
645.128	30.66
645.318	30.56
645.508	30.67
645.697	30.81
645.887	30.64
646.076	30.7
646.266	30.64
646.456	30.78
646.645	30.8
646.835	30.84
647.024	30.73
647.214	30.78
647.403	30.91
647.593	30.95
647.782	31.22
647.972	31.18
648.161	31.33
648.351	31.13
648.54	30.96
648.73	30.83
648.919	30.82
649.108	30.89
649.298	30.95
649.487	30.82
649.677	30.84
649.866	30.53
650.055	30.89
650.244	30.9
650.434	31.12
650.623	31.05
650.812	31.1
651.002	30.89
651.191	30.9
651.38	30.53
651.569	30.76
651.758	30.64
651.947	30.49
652.137	30.38
652.326	30.39
652.515	30.69
652.704	30.43
652.893	30.55
653.082	30.62
653.271	30.36
653.46	30.51
653.649	30.69
653.838	30.91
654.027	31.11
654.216	31.09
654.405	31.06
654.594	30.58
654.783	30.86
654.972	30.84
655.161	31
655.35	31.11
655.539	31.29
655.728	30.87
655.916	30.57
656.105	30.69
656.294	30.63
656.483	30.6
656.672	30.63
656.86	30.75
657.049	30.67
657.238	30.74
657.427	30.79
657.615	30.66
657.804	30.79
657.993	31.02
658.181	30.92
658.37	30.81
658.559	30.68
658.747	30.83
658.936	30.78
659.125	30.93
659.313	30.69
659.502	30.76
659.69	30.91
659.879	30.99
660.067	30.82
660.256	30.85
660.444	31.04
660.633	31.28
660.821	31.34
661.01	31.28
661.198	30.92
661.387	31.35
661.575	31.3
661.763	31.24
661.952	31.26
662.14	31.44
662.328	31.41
662.517	31.41
662.705	31.4
662.893	31.22
663.082	31.5
663.27	31.89
663.458	31.8
663.646	32.01
663.834	32.12
664.023	32.3
664.211	32.25
664.399	32.06
664.587	32.01
664.775	31.88
664.963	32.17
665.152	32.04
665.34	31.97
665.528	31.94
665.716	31.75
665.904	31.83
666.092	31.45
666.28	31.39
666.468	31.64
666.656	31.73
666.844	31.89
667.032	31.57
667.22	31.65
667.408	31.52
667.596	31.27
667.784	31.36
667.971	31.08
668.159	31.46
668.347	31.28
668.535	31.1
668.723	30.96
668.911	30.89
669.098	30.94
669.286	31.02
669.474	30.99
669.662	31.14
669.849	31.2
670.037	31.3
670.225	31.39
670.413	31.72
670.6	31.95
670.788	31.98
670.976	32.04
671.163	32.11
671.351	31.82
671.538	31.69
671.726	31.96
671.913	31.91
672.101	32.2
672.289	32.14
672.476	32.12
672.664	31.84
672.851	32.14
673.039	32.13
673.226	32.18
673.413	32.31
673.601	32.44
673.788	32.12
673.976	32.31
674.163	32.17
674.35	32.07
674.538	31.86
674.725	32.22
674.912	32.19
675.1	31.84
675.287	31.9
675.474	31.9
675.662	32.07
675.849	32.04
676.036	32.01
676.223	32.06
676.411	31.88
676.598	32.02
676.785	31.87
676.972	31.63
677.159	31.88
677.346	31.88
677.533	31.83
677.721	31.77
677.908	31.98
678.095	31.92
678.282	31.99
678.469	31.96
678.656	32.04
678.843	32
679.03	32.09
679.217	32.29
679.404	32.12
679.591	32.25
679.778	32.32
679.964	32.29
680.151	32.14
680.338	32.02
680.525	32.16
680.712	32.11
680.899	32.22
681.086	32.22
681.272	32.01
681.459	31.95
681.646	31.73
681.833	31.67
682.02	31.68
682.206	31.78
682.393	31.77
682.58	31.78
682.766	31.94
682.953	31.91
683.14	31.93
683.326	32.04
683.513	32.36
683.7	32.86
683.886	32.81
684.073	32.67
684.259	32.79
684.446	32.98
684.632	33.12
684.819	33.14
685.005	32.9
685.192	33.04
685.378	33.23
685.565	32.95
685.751	32.7
685.938	32.89
686.124	33.1
686.31	33.16
686.497	32.99
686.683	32.62
686.87	32.3
687.056	32.63
687.242	32.55
687.429	32.32
687.615	32.45
687.801	32.55
687.987	32.53
688.174	32.44
688.36	32.39
688.546	32.38
688.732	32.5
688.918	32.52
689.105	32.4
689.291	32.27
689.477	32.06
689.663	32.27
689.849	32.16
690.035	32.26
690.221	32.28
690.407	32.22
690.593	32.24
690.779	32.33
690.965	32.5
691.151	32.33
691.337	32.59
691.523	32.53
691.709	32.52
691.895	32.74
692.081	32.58
692.267	32.63
692.453	32.66
692.639	32.85
692.825	32.67
693.011	32.71
693.196	33.27
693.382	32.84
693.568	32.93
693.754	32.8
693.94	32.44
694.125	32.58
694.311	32.5
694.497	32.25
694.682	31.95
694.868	32.24
695.054	32.19
695.239	31.98
695.425	32.18
695.611	32.14
695.796	32.19
695.982	32.3
696.168	31.94
696.353	32.16
696.539	32
696.724	31.91
696.91	31.78
697.095	31.92
697.281	31.77
697.466	31.8
697.652	32.01
697.837	31.87
698.023	31.79
698.208	31.89
698.393	31.59
698.579	31.83
698.764	31.94
698.949	32.03
699.135	31.9
699.32	31.95
699.505	31.77
699.691	31.72
699.876	31.83
700.061	31.99
700.246	32.06
700.432	32.24
700.617	32.16
700.802	32.09
700.987	31.86
701.172	31.9
701.358	31.86
701.543	32.19
701.728	32.11
701.913	32.26
702.098	32.51
702.283	32.58
702.468	32.7
702.653	33.05
702.838	33.06
703.023	33.41
703.208	33.21
703.393	33.38
703.578	33.74
703.763	34.13
703.948	34.15
704.133	34.05
704.318	34.38
704.503	34.35
704.688	34.48
704.873	34.46
705.057	34.2
705.242	34.14
705.427	34.32
705.612	34.03
705.797	34.04
705.981	34.27
706.166	34.34
706.351	34.23
706.536	34.46
706.72	34.03
706.905	34.29
707.09	34.44
707.274	34.92
707.459	35.02
707.644	35.42
707.828	35.24
708.013	34.98
708.197	34.62
708.382	34.62
708.567	34.41
708.751	34.97
708.936	34.93
709.12	35.22
709.305	35.01
709.489	35.02
709.673	34.45
709.858	34.37
710.042	34.25
710.227	34.25
710.411	34.17
710.596	34.44
710.78	34.23
710.964	34.26
711.149	34.12
711.333	34.2
711.517	33.91
711.702	33.66
711.886	33.9
712.07	34.08
712.254	34.14
712.438	33.91
712.623	34.05
712.807	34.14
712.991	34.09
713.175	33.81
713.359	33.68
713.544	33.45
713.728	33.89
713.912	33.89
714.096	33.81
714.28	33.69
714.464	33.98
714.648	33.37
714.832	33.14
715.016	33.08
715.2	33.23
715.384	33.42
715.568	33.54
715.752	33.38
715.936	33.46
716.12	33.49
716.304	33.63
716.488	33.19
716.671	33.31
716.855	32.85
717.039	32.81
717.223	32.55
717.407	32.38
717.59	32.51
717.774	32.48
717.958	32.04
718.142	32.2
718.325	32.23
718.509	32.82
718.693	33.02
718.877	33.17
719.06	33.15
719.244	33.4
719.428	33.44
719.611	33.31
719.795	33.72
719.978	33.93
720.162	33.39
720.345	33.43
720.529	33.45
720.713	33.56
720.896	33.73
721.08	33.62
721.263	33.57
721.446	33.47
721.63	33.09
721.813	32.81
721.997	32.5
722.18	32.98
722.364	32.93
722.547	32.68
722.73	32.71
722.914	33.09
723.097	33.4
723.28	33.47
723.464	33.47
723.647	34.17
723.83	33.98
724.013	34.45
724.197	34.54
724.38	34.71
724.563	34.41
724.746	34.46
724.929	34.89
725.112	35.18
725.296	35.54
725.479	36.03
725.662	35.59
725.845	35.26
726.028	35.68
726.211	35.22
726.394	35.25
726.577	35.56
726.76	35.65
726.943	35.26
727.126	34.92
727.309	34.81
727.492	34.84
727.675	35.63
727.858	36.17
728.041	35.66
728.224	35.82
728.407	36.04
728.589	36.54
728.772	36.29
728.955	35.82
729.138	35.79
729.321	35.47
729.503	35.18
729.686	34.73
729.869	34.22
730.052	34
730.234	34.25
730.417	33.44
730.6	32.94
730.782	33.19
730.965	33.31
731.148	33.34
731.33	33.27
731.513	33.26
731.695	32.93
731.878	33.13
732.061	33.43
732.243	33.08
732.426	33.74
732.608	33.88
732.791	33.77
732.973	33.8
733.156	33.97
733.338	34.46
733.52	34.24
733.703	34.17
733.885	34.09
734.068	33.75
734.25	33.93
734.432	33.3
734.615	33.21
734.797	33.2
734.979	33.54
735.162	33.59
735.344	32.96
735.526	33.22
735.708	33.78
735.891	34.67
736.073	34.95
736.255	35.15
736.437	35.52
736.619	35.63
736.802	35.34
736.984	35.61
737.166	35.93
737.348	36.46
737.53	36.75
737.712	36.58
737.894	36.36
738.076	36.95
738.258	36.61
738.44	36.49
738.622	36.4
738.804	37.01
738.986	36.33
739.168	35.79
739.35	35.95
739.532	35.6
739.714	35.77
739.896	35.38
740.078	35.01
740.259	34.99
740.441	35.81
740.623	35.62
740.805	35.02
740.987	35.44
741.168	35.51
741.35	34.58
741.532	34.8
741.714	34.63
741.895	35.08
742.077	35.28
742.259	35.4
742.44	34.51
742.622	35.14
742.804	35.34
742.985	35.07
743.167	35.21
743.348	35.78
743.53	36.22
743.711	36
743.893	35.64
744.075	35.42
744.256	35.19
744.438	35.45
744.619	35.21
744.8	35.7
744.982	35.43
745.163	35.6
745.345	36.05
745.526	35.77
745.707	36.49
745.889	36.44
746.07	37.02
746.252	37.5
746.433	37.61
746.614	37.66
746.795	36.87
746.977	37.35
747.158	36.83
747.339	36.71
747.52	36.07
747.702	35.91
747.883	36.13
748.064	35.16
748.245	35.37
748.426	35.37
748.607	35.42
748.788	35.55
748.97	35.62
749.151	36.04
749.332	36.22
749.513	36.66
749.694	36.38
749.875	35.86
750.056	36.55
750.237	36.14
750.418	36.03
750.599	35.48
750.78	35.39
750.96	35.32
751.141	35.27
751.322	34.87
751.503	35.08
751.684	34.96
751.865	34.84
752.046	33.82
752.226	33.93
752.407	33.89
752.588	34.86
752.769	35.69
752.949	35.77
753.13	36.33
753.311	36.31
753.492	36.21
753.672	36.62
753.853	37.15
754.034	37.54
754.214	38.21
754.395	38.13
754.575	37.81
754.756	37.26
754.937	37.6
755.117	37.6
755.298	37.72
755.478	38.19
755.659	38.26
755.839	38.85
756.02	39.5
756.2	38.96
756.381	39.18
756.561	38.83
756.741	38.75
756.922	38.46
757.102	37.56
757.283	37.55
757.463	36.8
757.643	36.83
757.823	36.02
758.004	35.8
758.184	35.56
758.364	35.8
758.545	35.74
758.725	35.76
758.905	34.91
759.085	35.31
759.265	35.06
759.446	34.5
759.626	34.11
759.806	33.94
759.986	33.98
760.166	34.29
760.346	34.12
760.526	34.16
760.706	34.93
760.886	35.21
761.066	35.13
761.246	34.46
761.426	35.18
761.606	34.83
761.786	34.83
761.966	34.17
762.146	34.21
762.326	33.73
762.506	33.74
762.686	32.9
762.866	33.02
763.046	32.71
763.225	33.12
763.405	32.92
763.585	33.15
763.765	33.64
763.945	33.77
764.124	33.66
764.304	33.87
764.484	33.73
764.664	33.88
764.843	34.23
765.023	34.28
765.203	34.57
765.382	34.33
765.562	34.63
765.741	34.13
765.921	34.33
766.101	34.13
766.28	34.03
766.46	33.8
766.639	33.7
766.819	33.42
766.998	34.07
767.178	34.49
767.357	35.48
767.537	35.16
767.716	36.37
767.896	36.55
768.075	37.15
768.254	37.83
768.434	39.54
768.613	40.06
768.792	40.3
768.972	39.99
769.151	39.68
769.33	39.08
769.51	39.83
769.689	38.94
769.868	38.9
770.047	38.6
770.226	38.51
770.406	37.13
770.585	37.14
770.764	37.39
770.943	38.36
771.122	37.8
771.301	38.46
771.48	37.92
771.66	38.19
771.839	38.3
772.018	38.4
772.197	38.66
772.376	38.89
772.555	39.27
772.734	38.53
772.913	37.56
773.092	38.01
773.271	38.17
773.449	37.6
773.628	36.98
773.807	37.68
773.986	37.86
774.165	38.65
774.344	39.45
774.523	39.35
774.701	39.08
774.88	39.8
775.059	39.41
775.238	38.96
775.417	39.92
775.595	40.77
775.774	40.52
775.953	40.96
776.131	39.75
776.31	38.95
776.489	39.31
776.667	40.38
776.846	39.95
777.025	40.35
777.203	40.61
777.382	40.49
777.56	40.17
777.739	40.75
777.917	40.63
778.096	41.53
778.274	40.92
778.453	40.37
778.631	40.24
778.81	39.98
778.988	41.14
779.166	40.44
779.345	39.39
779.523	39.8
779.702	38.5
779.88	37.77
780.058	36.32
780.237	37.43
780.415	37.56
780.593	37.4
780.771	38
780.95	37.07
781.128	37.85
781.306	39.23
781.484	38.17
781.662	38.89
781.841	39.42
782.019	40.47
782.197	40.82
782.375	39.86
782.553	40.22
782.731	40.12
782.909	40.23
783.087	40.64
783.265	39.77
783.443	41.02
783.621	40.91
783.799	40.43
783.977	39.68
784.155	38.26
784.333	38.87
784.511	38.57
784.689	39.16
784.867	39.11
785.045	38.17
785.223	38.05
785.4	37.35
785.578	37.76
785.756	38.61
785.934	38.04
786.112	39.52
786.289	39.43
786.467	39.97
786.645	39.22
786.823	39.33
787	40.68
787.178	41.01
787.356	40.94
787.533	39.9
787.711	39.4
787.889	40.61
788.066	39.69
788.244	39.69
788.421	39.66
788.599	39.16
788.776	38.58
788.954	36.67
789.131	37.81
789.309	37.76
789.486	38.11
789.664	37.99
789.841	37.46
790.019	36.92
790.196	37.87
790.373	38.16
790.551	38.74
790.728	38.88
790.906	40.24
791.083	40.37
791.26	40.88
791.437	41.02
791.615	41.97
791.792	42.33
791.969	43.85
792.146	42.62
792.324	41.42
792.501	41.06
792.678	42.04
792.855	42.04
793.032	40.11
793.209	40.31
793.387	41.14
793.564	39.58
793.741	39.58
793.918	38.1
794.095	38.5
794.272	39.23
794.449	39.21
794.626	39.44
794.803	39.34
794.98	40.25
795.157	39.92
795.334	39.09
795.511	40.64
795.688	40.46
795.864	41.18
796.041	41.39
796.218	41.11
796.395	42.5
796.572	41.63
796.749	41.59
796.925	41.16
797.102	41.57
797.279	41.94
797.456	41.3
797.632	41.22
797.809	41.29
797.986	41.26
798.162	41.95
798.339	40.44
798.516	40.75
798.692	40.92
798.869	41.81
799.046	41.87
799.222	41.75
799.399	42.56
799.575	42.18
799.752	42.62
799.928	42.45
800.105	42.86
800.281	42.99
800.458	43.58
800.634	43.46
800.811	40.84
800.987	40.63
801.163	39.98
801.34	39.88
801.516	41.18
801.692	40.02
801.869	40.44
802.045	39.78
802.221	40.73
802.398	39.46
802.574	39.61
802.75	41.58
802.926	41.8
803.103	42.13
803.279	42.63
803.455	41.52
803.631	42.13
803.807	42.43
803.983	44.18
804.16	44.5
804.336	45.11
804.512	45.42
804.688	45.31
804.864	44.45
805.04	44.59
805.216	44.26
805.392	44.93
805.568	44.85
805.744	43.6
805.92	41.38
806.096	40.24
806.272	41.13
806.448	41.03
806.623	40.37
806.799	41.49
806.975	41.51
807.151	41.01
807.327	40.54
807.503	39.57
807.678	40.69
807.854	40.84
808.03	40.75
808.206	39.92
808.381	39.59
808.557	40.07
808.733	39.36
808.908	39.56
809.084	40.38
809.26	40.34
809.435	41.55
809.611	42.42
809.787	42.18
809.962	43.51
810.138	44.1
810.313	44.51
810.489	45.22
810.664	45.06
810.84	45.56
811.015	43.94
811.191	44.55
811.366	45.3
811.542	44.75
811.717	44.84
811.892	44.36
812.068	44.48
812.243	44.67
812.419	43.96
812.594	42.62
812.769	41.91
812.944	43.55
813.12	42.36
813.295	42.63
813.47	40.89
813.645	40.96
813.821	39.84
813.996	39.29
814.171	39.14
814.346	40.59
814.521	43.31
814.697	43.36
814.872	41.5
815.047	43
815.222	43.19
815.397	44.43
815.572	45.49
815.747	44.11
815.922	45.08
816.097	44.67
816.272	42.65
816.447	41.14
816.622	41.44
816.797	41.85
816.972	41.38
817.147	41.18
817.322	41.3
817.496	39.51
817.671	41.79
817.846	41.84
818.021	41.26
818.196	42.83
818.371	43.36
818.545	43.48
818.72	42.8
818.895	42.64
819.069	41.04
819.244	40.62
819.419	41.49
819.594	40.19
819.768	38.98
819.943	39.23
820.117	37.64
820.292	36.75
820.467	35.13
820.641	34.09
820.816	33.3
820.99	32.91
821.165	32.72
821.339	31.53
821.514	31.29
821.688	30.95
821.863	30.15
822.037	29.54
822.212	29.35
822.386	29.15
822.56	29.07
822.735	28.79
822.909	28.45
823.084	28.04
823.258	28
823.432	28.04
823.606	27.93
823.781	27.99
823.955	28.35
824.129	28.3
824.303	28.65
824.478	28.73
824.652	29.17
824.826	29.08
825	29.13
825.174	29.8
825.348	29.87
825.523	29.9
825.697	30.81
825.871	30.76
826.045	30.48
826.219	30.44
826.393	30.34
826.567	30.38
826.741	30.77
826.915	30.98
827.089	30.8
827.263	31.03
827.437	31.27
827.611	30.55
827.784	30.64
827.958	30.77
828.132	31.25
828.306	32.05
828.48	31.93
828.654	32.55
828.827	32.5
829.001	33.02
829.175	33.01
829.349	33.52
829.522	33.55
829.696	34.3
829.87	35.53
830.044	35.56
830.217	35.81
830.391	36.84
830.565	37.59
830.738	38.12
830.912	37.78
831.085	38.05
831.259	37.84
831.432	39.03
831.606	38.55
831.779	37.78
831.953	38.22
832.126	37.12
832.3	36.78
832.473	35.97
832.647	35.9
832.82	35.44
832.994	34.48
833.167	34.83
833.34	35.02
833.514	35.16
833.687	35.1
833.86	34.29
834.034	34.65
834.207	33.74
834.38	33.98
834.553	34.17
834.727	34.42
834.9	34.89
835.073	34.15
835.246	33.59
835.419	33.18
835.593	32.98
835.766	33.22
835.939	32.9
836.112	34.29
836.285	34.34
836.458	34.23
836.631	34.06
836.804	34.53
836.977	33.45
837.15	33.46
837.323	34.19
837.496	35.15
837.669	34.85
837.842	37.18
838.015	37.97
838.188	39.34
838.361	40.59
838.533	41.39
838.706	40.85
838.879	43.34
839.052	44.67
839.225	45.36
839.398	46.98
839.57	48.28
839.743	47.35
839.916	44.51
840.088	43.7
840.261	45.51
840.434	45.79
840.607	44.2
840.779	43.44
840.952	42.93
841.124	43.25
841.297	40.74
841.47	39.9
841.642	39.03
841.815	41.2
841.987	38.88
842.16	36.12
842.332	34.67
842.505	38.66
842.677	41.13
842.85	42.84
843.022	44.08
843.194	45.31
843.367	46.77
843.539	45.9
843.712	47.6
843.884	51.65
844.056	53.45
844.229	54.6
844.401	53.69
844.573	52.77
844.745	53.23
844.918	51.26
845.09	53.03
845.262	52.2
845.434	54.51
845.606	50.67
845.779	51.53
845.951	52.97
846.123	55.27
846.295	54.25
846.467	54.11
846.639	52.25
846.811	52.97
846.983	53.57
847.155	53.81
847.327	57.68
847.499	60.97
847.671	58.3
847.843	59.86
848.015	59.21
848.187	59.21
848.359	62.74
848.531	63.87
848.703	65.16
848.875	63.73
849.047	67.97
849.218	67.17
849.39	65.36
849.562	67.12
849.734	67.58
849.905	71.8
850.077	71.65
850.249	73.98
850.421	76.28
850.592	76.03
850.764	73.89
850.936	72.79
851.107	68.37
851.279	70.23
851.451	68.68
851.622	66.25
851.794	64.23
851.965	66.93
852.137	65.94
852.308	65.3
852.48	64.86
852.651	66.91
852.823	64.41
852.994	68.89
853.166	62.2
853.337	63.87
853.509	65.67
853.68	64.5
853.851	67.26
854.023	63.98
854.194	59.75
854.365	61.49
854.537	64.6
854.708	63.91
854.879	62.38
855.05	67.78
855.222	68
855.393	63.69
855.564	61.94
855.735	56.07
855.906	56.37
856.078	61.04
856.249	57.55
856.42	57.3
856.591	64.46
856.762	62.05
856.933	60.75
857.104	59.78
857.275	62.54
857.446	63.85
857.617	66.69
857.788	68.33
857.959	66.92
858.13	68.35
858.301	66.46
858.472	62.05
858.643	62.92
858.814	64.42
858.985	64.14
859.155	64.65
859.326	67.08
859.497	65.45
859.668	65.51
859.839	63.4
860.009	64.18
860.18	67.39
860.351	66.31
860.522	68.04
860.692	68.39
860.863	76.37
861.034	77.77
861.204	76.79
861.375	75.95
861.546	71.58
861.716	75.12
861.887	74.45
862.057	75.36
862.228	72.97
862.398	69.67
862.569	70.97
862.739	68.33
862.91	66.32
863.08	63.17
863.251	61.73
863.421	65.17
863.592	67.4
863.762	65.4
863.932	62.79
864.103	68.84
864.273	67.84
864.443	69.64
864.614	68.41
864.784	68.57
864.954	69.62
865.125	67.16
865.295	66.14
865.465	63.42
865.635	67.79
865.805	68.12
865.976	63.86
866.146	65.53
866.316	63.78
866.486	65.94
866.656	63.09
866.826	66.85
866.996	72.17
867.166	71.85
867.336	70.26
867.506	64.72
867.676	61.81
867.846	65.89
868.016	67.49
868.186	67.48
868.356	65.02
868.526	64.33
868.696	63.78
868.866	59.26
869.036	60.26
869.206	59.5
869.376	66.67
869.545	66.42
869.715	68.21
869.885	67.33
870.055	62.53
870.224	66.16
870.394	65.33
870.564	66.04
870.734	69.4
870.903	70.22
871.073	66.31
871.243	60.6
871.412	62.83
871.582	58.83
871.751	62.03
871.921	65.7
872.091	61.79
872.26	61.31
872.43	57.54
872.599	56.89
872.769	56.22
872.938	61.79
873.108	63.36
873.277	63.55
873.446	65.17
873.616	62.06
873.785	58.71
873.955	61.26
874.124	65.71
874.293	68.76
874.463	68.45
874.632	67.69
874.801	63.3
874.971	64.05
875.14	63.32
875.309	61.77
875.478	63.35
875.647	65.15
875.817	63.96
875.986	62.44
876.155	58.91
876.324	62.79
876.493	59.77
876.662	61.02
876.831	58.51
877	59.28
877.17	61.38
877.339	62.39
877.508	60.63
877.677	60.87
877.846	61.27
878.015	64.73
878.184	60.94
878.352	61.01
878.521	59.36
878.69	62.5
878.859	59.89
879.028	56.74
879.197	52.85
879.366	51.91
879.534	49.78
879.703	46.23
879.872	42.62
880.041	41.39
880.21	40.63
880.378	40.8
880.547	38.04
880.716	37.81
880.884	36.56
881.053	35.73
881.222	34.38
881.39	34.04
881.559	33.36
881.727	32.86
881.896	31.86
882.065	31.3
882.233	30.12
882.402	30.52
882.57	30.09
882.739	29.77
882.907	29.7
883.076	29.9
883.244	30.26
883.412	30.44
883.581	30.84
883.749	31.46
883.918	32.06
884.086	32.97
884.254	33.13
884.423	34.69
884.591	35.9
884.759	37.08
884.927	38.87
885.096	37.37
885.264	38.17
885.432	39.93
885.6	41.42
885.769	42.5
885.937	43.84
886.105	43.1
886.273	43.22
886.441	43.09
886.609	41.1
886.777	40.61
886.945	44.2
887.113	45.48
887.281	44.62
887.449	44.46
887.617	46.04
887.785	47.38
887.953	51.46
888.121	47.35
888.289	48.14
888.457	54.29
888.625	58.35
888.793	59.52
888.961	61.63
889.129	66.69
889.296	66.51
889.464	66.37
889.632	66.02
889.8	65.41
889.967	71.5
890.135	76.22
