Data from 2938829__Reflection_03.txt Node
Date: Thu Mar 12 13:12:32 EDT 2015
User: robert
Spectrometer: USB4E03002
Autoset integration time: false
Trigger mode: 4
Integration Time (sec): 1.000000E-1
Scans to average: 10
Electric dark correction enabled: false
Nonlinearity correction enabled: false
Boxcar width: 5
Stray light correction enabled: false
XAxis mode: Wavelengths
Stop averaging: false
Number of Pixels in Spectrum: 3648
>>>>>Begin Spectral Data<<<<<
177.575	-548.53
177.794	-1277.33
178.014	-2597.67
178.233	-925.22
178.452	-821.48
178.672	-831.65
178.891	-1037.7
179.11	-1543.9
179.33	2033.33
179.549	-1129.41
179.768	-958.73
179.987	984.75
180.207	490.69
180.426	580.84
180.645	503.23
180.864	254.64
181.084	210.24
181.303	242.27
181.522	195.93
181.741	234.01
181.96	228.63
182.179	192.3
182.398	185.77
182.618	246.04
182.837	244.34
183.056	272.07
183.275	424.77
183.494	797.86
183.713	500
183.932	1367.47
184.151	-916.83
184.37	-1161.11
184.589	-512.35
184.808	-502.34
185.027	-2409.76
185.246	1342.17
185.465	792.24
185.684	447.37
185.903	360.79
186.122	299.57
186.341	195.43
186.56	138.79
186.779	178.61
186.998	169.19
187.216	176.58
187.435	209.46
187.654	212.5
187.873	212.08
188.092	214.97
188.311	213.23
188.53	200.13
188.748	229
188.967	294.92
189.186	227.61
189.405	224.34
189.623	245.76
189.842	163.3
190.061	165.37
190.28	132.36
190.498	127.34
190.717	123.16
190.936	138.39
191.154	183.74
191.373	197.1
191.592	153.7
191.81	158.02
192.029	140.55
192.248	260.71
192.466	354.62
192.685	770.16
192.904	-2071.79
193.122	-5382.35
193.341	2373.33
193.559	1162.11
193.778	8092.31
193.996	-972.27
194.215	-534.78
194.433	-282.7
194.652	-317.98
194.87	-532.19
195.089	-442.35
195.307	-338.89
195.526	-270.69
195.744	-258.06
195.963	-255.6
196.181	-304.69
196.399	-351.59
196.618	-711.86
196.836	-811.03
197.055	-568.84
197.273	-291.72
197.491	-487.5
197.71	-683.01
197.928	-542.2
198.146	-744.23
198.365	-644.64
198.583	-7188.89
198.801	1777.14
199.019	643.33
199.238	341.28
199.456	263.24
199.674	219.66
199.892	211.28
200.111	373.4
200.329	185.36
200.547	184.39
200.765	191.5
200.983	238.09
201.202	223.24
201.42	346.41
201.638	593.25
201.856	676.55
202.074	441.9
202.292	436.86
202.51	277.4
202.728	532.74
202.946	520.89
203.165	445.5
203.383	428.57
203.601	372.86
203.819	229.74
204.037	209.42
204.255	206.6
204.473	185.06
204.691	210.28
204.909	228.86
205.127	226.07
205.345	377.89
205.562	397.1
205.78	462.15
205.998	372.22
206.216	802.75
206.434	761.76
206.652	-751.96
206.87	-723.93
207.088	-462.11
207.306	-477.07
207.523	-765
207.741	-1850
207.959	1276.56
208.177	559.17
208.395	430
208.612	297.54
208.83	281.23
209.048	190.52
209.266	183.56
209.483	151.07
209.701	130.66
209.919	125.56
210.136	110.24
210.354	118.07
210.572	134.51
210.79	166.33
211.007	169.01
211.225	173.16
211.442	132.16
211.66	141.76
211.878	143.02
212.095	156.04
212.313	145.52
212.53	144.59
212.748	119.77
212.966	119.31
213.183	125.36
213.401	112.92
213.618	109.08
213.836	168.4
214.053	159.28
214.271	205.54
214.488	229.94
214.705	262.22
214.923	289.37
215.14	369.36
215.358	200.35
215.575	212.47
215.793	169.48
216.01	166.41
216.227	136.5
216.445	126.53
216.662	108.59
216.879	111.2
217.097	109.4
217.314	93.73
217.531	121.37
217.749	144.61
217.966	113.5
218.183	107.2
218.4	102.08
218.618	99.02
218.835	90.79
219.052	93.82
219.269	93.76
219.487	89.66
219.704	85.03
219.921	73.25
220.138	63.02
220.355	60.24
220.572	79.42
220.79	71.22
221.007	72.12
221.224	74.69
221.441	65.1
221.658	58.78
221.875	62.81
222.092	61.42
222.309	58.16
222.526	62.95
222.743	71.58
222.96	64.66
223.177	64.44
223.394	60.2
223.611	58.23
223.828	57.79
224.045	56.94
224.262	48.46
224.479	44.55
224.696	42.28
224.913	37.18
225.13	28.48
225.347	24.34
225.564	23.49
225.781	20.07
225.997	19.71
226.214	18.65
226.431	16.31
226.648	16.14
226.865	16.02
227.082	14.64
227.298	14.85
227.515	14.36
227.732	13.62
227.949	11.77
228.165	12.15
228.382	10.82
228.599	9.96
228.816	9.95
229.032	9.46
229.249	8.62
229.466	9
229.682	8.69
229.899	7.89
230.116	8.13
230.332	8.55
230.549	8.33
230.765	8.98
230.982	9.8
231.199	10.49
231.415	12.37
231.632	13.36
231.848	11.81
232.065	11.92
232.281	15.45
232.498	14.13
232.714	15.31
232.931	15.42
233.147	17.59
233.364	18.16
233.58	17.24
233.797	15.94
234.013	16.95
234.23	17.44
234.446	17.64
234.662	15.64
234.879	17.02
235.095	17.09
235.312	15.54
235.528	14.72
235.744	14.07
235.961	14.34
236.177	14.04
236.393	13.24
236.61	14.9
236.826	15.57
237.042	15.68
237.258	15.84
237.475	16.64
237.691	17.49
237.907	16.17
238.123	15.01
238.339	13.54
238.556	13.38
238.772	13.77
238.988	12.27
239.204	10.92
239.42	9.21
239.636	8.13
239.853	7.89
240.069	7.67
240.285	7.16
240.501	7.62
240.717	7.65
240.933	7.65
241.149	7.44
241.365	7.1
241.581	7.28
241.797	8.06
242.013	8.16
242.229	7.03
242.445	7.6
242.661	7.68
242.877	7.95
243.093	8.01
243.309	8
243.525	7.21
243.741	7.52
243.957	7.66
244.173	7.19
244.388	6.28
244.604	7.04
244.82	6.34
245.036	6.21
245.252	5.33
245.468	5.52
245.683	5.53
245.899	6.01
246.115	5.63
246.331	5.36
246.547	5.11
246.762	5.52
246.978	5.47
247.194	5.34
247.409	5.22
247.625	5.51
247.841	5.32
248.057	5.21
248.272	5
248.488	5.45
248.703	5.48
248.919	5.95
249.135	5.65
249.35	5.49
249.566	5.76
249.782	5.82
249.997	5.49
250.213	5.8
250.428	6.21
250.644	6.39
250.859	6.99
251.075	6.82
251.29	6.27
251.506	6.94
251.721	7.07
251.937	7.11
252.152	7.57
252.368	7.76
252.583	7.95
252.798	7.83
253.014	8.04
253.229	6.97
253.445	6.97
253.66	7.72
253.875	7.58
254.091	8.42
254.306	8.33
254.521	7.4
254.737	7.28
254.952	6.74
255.167	6.23
255.383	6.53
255.598	6.84
255.813	7.85
256.028	7.48
256.244	8.01
256.459	6.95
256.674	6.6
256.889	7.03
257.104	7.24
257.32	6.95
257.535	7.03
257.75	6.38
257.965	5.89
258.18	5.64
258.395	4.96
258.61	4.68
258.826	4.45
259.041	4.38
259.256	4.41
259.471	3.99
259.686	3.8
259.901	3.54
260.116	3.41
260.331	3.52
260.546	3.13
260.761	3.07
260.976	3.14
261.191	3.11
261.406	3.14
261.621	3.14
261.836	3.27
262.05	3.69
262.265	4.27
262.48	4.55
262.695	5.08
262.91	6.05
263.125	6.8
263.34	6.12
263.555	6.7
263.769	6.42
263.984	6.38
264.199	6.22
264.414	6.02
264.629	6.15
264.843	5.75
265.058	5.52
265.273	4.82
265.488	4.6
265.702	5.22
265.917	5.1
266.132	5.54
266.346	5.79
266.561	5.84
266.776	5.89
266.99	5.35
267.205	6.03
267.42	5.74
267.634	5.75
267.849	5.66
268.063	5.63
268.278	5.62
268.492	5.79
268.707	5.19
268.922	5.35
269.136	5.21
269.351	5.16
269.565	4.73
269.78	4.32
269.994	4.37
270.209	4.02
270.423	3.95
270.637	4.21
270.852	3.96
271.066	4.19
271.281	4.37
271.495	4.22
271.709	4.2
271.924	4.26
272.138	4.23
272.353	4.06
272.567	4.31
272.781	4.37
272.996	3.89
273.21	4.12
273.424	4.2
273.638	4
273.853	4.16
274.067	4.07
274.281	4.37
274.495	5.11
274.71	5.32
274.924	5.38
275.138	5.41
275.352	5.46
275.566	5.62
275.781	5.36
275.995	5.34
276.209	5.73
276.423	6.28
276.637	5.86
276.851	5.01
277.065	4.79
277.279	4.6
277.493	4.02
277.707	4.2
277.921	3.45
278.135	3.62
278.349	3.65
278.563	3.51
278.777	3.13
278.991	3.09
279.205	3.84
279.419	3.98
279.633	4.08
279.847	4.57
280.061	4.49
280.275	4.86
280.489	4.77
280.703	4.55
280.917	4.26
281.131	4.37
281.344	4.56
281.558	4.17
281.772	4.12
281.986	4.12
282.2	3.8
282.414	3.8
282.627	3.85
282.841	3.87
283.055	4.16
283.269	4.31
283.482	4.31
283.696	3.76
283.91	3.79
284.123	3.81
284.337	3.78
284.551	4.13
284.764	4.13
284.978	3.76
285.192	3.86
285.405	3.52
285.619	3.48
285.833	3.58
286.046	3.83
286.26	3.96
286.473	4.15
286.687	4.29
286.9	3.94
287.114	3.97
287.327	4.14
287.541	4.23
287.754	4.61
287.968	4.47
288.181	4.2
288.395	4.51
288.608	4.57
288.822	4.53
289.035	4.55
289.248	4.94
289.462	4.84
289.675	4.77
289.889	4.45
290.102	4.35
290.315	4.55
290.529	4.56
290.742	4.53
290.955	4.29
291.169	4.22
291.382	4.47
291.595	4.51
291.808	4.68
292.022	4.92
292.235	5.05
292.448	5.08
292.661	5.13
292.875	5.32
293.088	5.18
293.301	5.83
293.514	5.97
293.727	5.6
293.94	5.64
294.153	5.65
294.367	5.51
294.58	5.39
294.793	5.33
295.006	5.34
295.219	5.48
295.432	5.74
295.645	5.68
295.858	5.46
296.071	5.49
296.284	5.41
296.497	5.35
296.71	5.49
296.923	5.78
297.136	5.92
297.349	6.07
297.562	5.75
297.775	5.71
297.988	5.55
298.201	5.65
298.414	5.8
298.626	5.89
298.839	5.93
299.052	6.08
299.265	5.98
299.478	5.88
299.691	5.86
299.903	6.41
300.116	6.82
300.329	6.79
300.542	7.02
300.755	7.18
300.967	6.9
301.18	6.86
301.393	6.82
301.605	7.22
301.818	7.33
302.031	7.18
302.243	6.98
302.456	6.73
302.669	6.59
302.881	6.64
303.094	6.47
303.307	6.76
303.519	7
303.732	6.83
303.944	6.75
304.157	6.88
304.37	7.15
304.582	7.49
304.795	7.56
305.007	7.59
305.22	7.69
305.432	7.86
305.645	8.09
305.857	8.55
306.069	8.94
306.282	8.67
306.494	8.48
306.707	8.34
306.919	7.83
307.132	7.94
307.344	8.36
307.556	8.47
307.769	8.56
307.981	8.51
308.193	8.29
308.406	8.44
308.618	8.62
308.83	8.57
309.043	8.62
309.255	8.56
309.467	8.06
309.679	8.16
309.892	7.87
310.104	7.6
310.316	7.46
310.528	7.24
310.74	6.87
310.953	6.83
311.165	7.12
311.377	7.3
311.589	7.56
311.801	7.7
312.013	7.64
312.225	7.87
312.437	8.16
312.649	8.27
312.862	8.74
313.074	9.23
313.286	9.36
313.498	9.38
313.71	9.36
313.922	9.63
314.134	9.93
314.346	10.01
314.558	9.92
314.77	10.03
314.982	10.55
315.193	10.51
315.405	10.27
315.617	10.47
315.829	10.65
316.041	10.19
316.253	10.19
316.465	10.19
316.677	10.17
316.888	10.34
317.1	10.23
317.312	10.09
317.524	10.07
317.736	10.26
317.947	10.11
318.159	9.91
318.371	10.22
318.583	10.33
318.794	10.59
319.006	10.58
319.218	10.45
319.43	10.56
319.641	10.66
319.853	10.8
320.064	10.95
320.276	11.16
320.488	11.86
320.699	12.51
320.911	12.73
321.123	13.04
321.334	13.34
321.546	13.61
321.757	14.01
321.969	13.71
322.18	13.74
322.392	13.89
322.603	14.49
322.815	14.15
323.026	14
323.238	14.03
323.449	13.54
323.661	13.68
323.872	13.9
324.083	14.02
324.295	14.5
324.506	14.88
324.718	15.13
324.929	15
325.14	15.61
325.352	16.01
325.563	16.38
325.774	17.21
325.986	17.54
326.197	17.87
326.408	18.11
326.62	18.41
326.831	18.96
327.042	19.37
327.253	19.9
327.464	20.14
327.676	20.4
327.887	20.69
328.098	21.05
328.309	21.65
328.52	22.44
328.732	22.69
328.943	22.91
329.154	22.82
329.365	23.25
329.576	23.97
329.787	24.4
329.998	24.92
330.209	25.61
330.42	26.27
330.631	27
330.842	27.32
331.053	28.38
331.264	28.88
331.475	29.73
331.686	30.07
331.897	30.03
332.108	30.36
332.319	30.78
332.53	31.04
332.741	30.77
332.952	31.02
333.163	30.78
333.374	30.61
333.585	31.01
333.795	31.22
334.006	31.29
334.217	31.54
334.428	31.71
334.639	31.95
334.849	32.34
335.06	32.88
335.271	32.75
335.482	33.28
335.692	33.54
335.903	33.97
336.114	34.03
336.325	34.51
336.535	34.76
336.746	35.06
336.957	34.55
337.167	34.69
337.378	34.9
337.589	35.04
337.799	35.14
338.01	35.23
338.22	35.27
338.431	35.61
338.642	35.44
338.852	35.25
339.063	35.39
339.273	35.95
339.484	35.78
339.694	35.77
339.905	35.82
340.115	35.91
340.326	35.9
340.536	35.7
340.746	35.28
340.957	35.33
341.167	35.34
341.378	35.39
341.588	35.34
341.799	35.27
342.009	35.15
342.219	34.91
342.43	34.87
342.64	34.89
342.85	34.86
343.061	35.05
343.271	35.11
343.481	35.22
343.691	34.94
343.902	35.05
344.112	35.17
344.322	35.28
344.532	35.29
344.743	35.19
344.953	35.24
345.163	35.3
345.373	34.98
345.583	34.99
345.793	35.22
346.004	35.44
346.214	35.31
346.424	35.12
346.634	34.75
346.844	34.9
347.054	34.85
347.264	34.57
347.474	34.85
347.684	35.17
347.894	35.1
348.104	35.1
348.314	34.8
348.524	34.85
348.734	35.07
348.944	35.35
349.154	35.12
349.364	35.25
349.574	35.46
349.784	34.94
349.994	34.52
350.204	34.61
350.413	34.75
350.623	34.71
350.833	34.73
351.043	34.64
351.253	34.34
351.463	34.5
351.672	34.37
351.882	34.63
352.092	35.05
352.302	35.25
352.511	35.09
352.721	34.38
352.931	34.58
353.141	34.72
353.35	34.31
353.56	34.61
353.77	34.33
353.979	34.49
354.189	34.04
354.399	33.62
354.608	33.68
354.818	33.64
355.027	33.69
355.237	33.49
355.447	33.03
355.656	33.61
355.866	33.21
356.075	33.2
356.285	32.99
356.494	33.13
356.704	33.27
356.913	33.26
357.123	33.2
357.332	33.17
357.542	33.33
357.751	33.63
357.96	33.3
358.17	33.59
358.379	33.81
358.589	33.97
358.798	33.74
359.007	33.58
359.217	33.3
359.426	33.25
359.635	33.13
359.845	32.61
360.054	32.36
360.263	32.2
360.472	32.31
360.682	32.3
360.891	32.12
361.1	32.03
361.309	31.98
361.519	32.16
361.728	32.03
361.937	32.17
362.146	32.45
362.355	32.55
362.564	32.59
362.774	32.29
362.983	32.12
363.192	32.11
363.401	32.29
363.61	32.47
363.819	32.49
364.028	32.71
364.237	32.84
364.446	32.73
364.655	32.63
364.864	32.47
365.073	32.53
365.282	32.41
365.491	32.47
365.7	32.34
365.909	32.28
366.118	32.02
366.327	32.07
366.536	31.76
366.745	32
366.954	32.18
367.162	32.11
367.371	32.06
367.58	32.37
367.789	32.33
367.998	32.32
368.207	32.07
368.415	32.13
368.624	31.77
368.833	31.77
369.042	31.36
369.25	31.29
369.459	31.4
369.668	31.28
369.877	31.11
370.085	31.02
370.294	31.05
370.503	31.08
370.711	31.12
370.92	31.42
371.129	31.27
371.337	31.44
371.546	31.41
371.754	31.41
371.963	31.63
372.171	31.64
372.38	31.74
372.589	31.61
372.797	31.76
373.006	31.84
373.214	31.73
373.423	32.09
373.631	31.8
373.84	31.63
374.048	31.6
374.256	31.36
374.465	31.37
374.673	31.17
374.882	31.3
375.09	31.32
375.298	31.12
375.507	31
375.715	30.75
375.923	30.93
376.132	31.01
376.34	31
376.548	31.04
376.757	30.84
376.965	30.86
377.173	30.8
377.381	30.77
377.59	30.63
377.798	30.63
378.006	30.67
378.214	30.76
378.423	30.53
378.631	30.64
378.839	30.42
379.047	30.37
379.255	30.4
379.463	30.5
379.671	30.23
379.879	30.28
380.088	30.18
380.296	30.13
380.504	30.07
380.712	30.21
380.92	30.33
381.128	30.59
381.336	30.84
381.544	30.63
381.752	30.55
381.96	30.65
382.168	30.6
382.376	30.66
382.584	30.73
382.791	30.56
382.999	30.58
383.207	30.36
383.415	30.32
383.623	30.2
383.831	30.42
384.039	30.28
384.247	30.44
384.454	30.7
384.662	30.87
384.87	30.91
385.078	31.11
385.285	31.2
385.493	31.33
385.701	31.43
385.909	31.55
386.116	31.71
386.324	31.99
386.532	32.06
386.739	31.99
386.947	31.8
387.155	31.63
387.362	31.63
387.57	31.54
387.778	31.39
387.985	31.3
388.193	31.27
388.4	31.09
388.608	31.05
388.816	30.9
389.023	30.88
389.231	31.02
389.438	31.27
389.646	31.1
389.853	30.92
390.061	31
390.268	31.25
390.475	31
390.683	31.14
390.89	31.03
391.098	30.97
391.305	31.06
391.512	31.03
391.72	30.95
391.927	30.97
392.135	31.29
392.342	31.28
392.549	31.39
392.756	31.54
392.964	31.44
393.171	31.41
393.378	31.59
393.586	31.57
393.793	31.67
394	31.58
394.207	31.61
394.414	31.46
394.622	31.5
394.829	31.43
395.036	31.55
395.243	31.46
395.45	31.52
395.657	31.31
395.864	31.14
396.072	30.92
396.279	30.9
396.486	30.93
396.693	30.94
396.9	30.72
397.107	30.43
397.314	30.45
397.521	30.51
397.728	30.26
397.935	30.47
398.142	30.62
398.349	30.79
398.556	30.99
398.763	31.04
398.97	30.89
399.177	31.13
399.383	31.05
399.59	30.91
399.797	31
400.004	31.35
400.211	31.39
400.418	31.38
400.625	31.33
400.831	31.27
401.038	31.31
401.245	31.48
401.452	31.61
401.658	31.93
401.865	32.08
402.072	32.11
402.279	31.87
402.485	31.75
402.692	31.76
402.899	31.77
403.105	31.73
403.312	31.58
403.519	31.53
403.725	31.42
403.932	31.31
404.138	31.45
404.345	31.39
404.552	31.58
404.758	31.72
404.965	31.71
405.171	31.68
405.378	31.76
405.584	31.91
405.791	32
405.997	31.93
406.204	32.03
406.41	31.96
406.617	32.11
406.823	32.05
407.029	32.06
407.236	32.13
407.442	32.19
407.649	32.33
407.855	32.19
408.061	32.12
408.268	32.24
408.474	32.23
408.68	32.26
408.887	32.06
409.093	32.33
409.299	32.36
409.505	32.26
409.712	32.44
409.918	32.59
410.124	32.86
410.33	32.7
410.537	32.58
410.743	32.61
410.949	32.34
411.155	32.53
411.361	32.37
411.567	32.4
411.773	32.31
411.98	32.19
412.186	31.83
412.392	31.79
412.598	32.16
412.804	32.35
413.01	32.27
413.216	32.66
413.422	32.7
413.628	32.81
413.834	32.68
414.04	32.85
414.246	32.92
414.452	33.13
414.658	33.04
414.864	32.86
415.07	32.88
415.275	33.03
415.481	33.08
415.687	33
415.893	32.98
416.099	33.03
416.305	33.06
416.511	33.06
416.716	33.09
416.922	33.13
417.128	33.18
417.334	33.08
417.539	32.97
417.745	32.88
417.951	32.81
418.157	32.7
418.362	32.77
418.568	32.74
418.774	32.61
418.979	32.52
419.185	32.36
419.391	32.44
419.596	32.43
419.802	32.5
420.008	32.46
420.213	33.03
420.419	33.06
420.624	33.03
420.83	33.07
421.035	33.16
421.241	33.18
421.446	33.3
421.652	33.18
421.857	33.08
422.063	33.05
422.268	33.1
422.474	32.63
422.679	32.64
422.885	32.61
423.09	32.6
423.295	32.62
423.501	32.63
423.706	32.64
423.911	32.75
424.117	32.89
424.322	32.89
424.527	32.9
424.733	32.82
424.938	32.83
425.143	32.89
425.349	32.89
425.554	32.84
425.759	32.85
425.964	32.91
426.169	32.88
426.375	32.93
426.58	33
426.785	32.95
426.99	32.96
427.195	32.99
427.4	32.83
427.605	32.86
427.811	32.93
428.016	33.06
428.221	33.11
428.426	33.14
428.631	33.1
428.836	33.05
429.041	33.1
429.246	33.32
429.451	33.38
429.656	33.57
429.861	33.57
430.066	33.38
430.271	33.27
430.476	33.24
430.681	33.19
430.886	33.22
431.09	33.34
431.295	33.37
431.5	33.31
431.705	33.33
431.91	33.34
432.115	33.38
432.32	33.56
432.524	33.64
432.729	33.74
432.934	33.78
433.139	33.88
433.343	33.87
433.548	33.94
433.753	34.06
433.958	34.09
434.162	34.2
434.367	34.27
434.572	34.35
434.776	34.37
434.981	34.28
435.186	34.37
435.39	34.33
435.595	34.24
435.799	34.33
436.004	34.26
436.209	34.26
436.413	34.14
436.618	34.14
436.822	34.13
437.027	34.16
437.231	34.27
437.436	34.23
437.64	34.15
437.845	34.23
438.049	34.22
438.253	34.21
438.458	34.18
438.662	34.2
438.867	34.21
439.071	34.18
439.275	34.23
439.48	34.19
439.684	34.3
439.888	34.37
440.093	34.32
440.297	34.35
440.501	34.35
440.706	34.42
440.91	34.48
441.114	34.51
441.318	34.56
441.523	34.44
441.727	34.53
441.931	34.51
442.135	34.56
442.339	34.7
442.543	34.64
442.748	34.74
442.952	34.71
443.156	34.67
443.36	34.66
443.564	34.8
443.768	34.94
443.972	34.78
444.176	34.78
444.38	34.58
444.584	34.52
444.788	34.53
444.992	34.51
445.196	34.51
445.4	34.46
445.604	34.38
445.808	34.26
446.012	34.18
446.216	34.29
446.42	34.28
446.624	34.37
446.828	34.36
447.032	34.35
447.235	34.3
447.439	34.3
447.643	34.31
447.847	34.31
448.051	34.37
448.254	34.44
448.458	34.4
448.662	34.35
448.866	34.39
449.069	34.36
449.273	34.29
449.477	34.33
449.681	34.31
449.884	34.4
450.088	34.49
450.292	34.4
450.495	34.38
450.699	34.34
450.902	34.39
451.106	34.43
451.31	34.5
451.513	34.6
451.717	34.56
451.92	34.61
452.124	34.65
452.327	34.51
452.531	34.63
452.734	34.61
452.938	34.68
453.141	34.7
453.345	34.76
453.548	34.77
453.752	34.62
453.955	34.67
454.158	34.74
454.362	34.72
454.565	34.89
454.769	34.76
454.972	34.8
455.175	34.74
455.379	34.72
455.582	34.64
455.785	34.47
455.988	34.73
456.192	34.71
456.395	34.6
456.598	34.62
456.801	34.6
457.005	34.66
457.208	34.75
457.411	34.7
457.614	34.75
457.817	34.65
458.021	34.78
458.224	34.62
458.427	34.49
458.63	34.58
458.833	34.52
459.036	34.44
459.239	34.37
459.442	34.27
459.645	34.31
459.848	34.34
460.051	34.4
460.254	34.42
460.457	34.36
460.66	34.44
460.863	34.4
461.066	34.41
461.269	34.38
461.472	34.54
461.675	34.5
461.878	34.52
462.081	34.44
462.284	34.54
462.486	34.45
462.689	34.5
462.892	34.53
463.095	34.42
463.298	34.46
463.5	34.55
463.703	34.46
463.906	34.59
464.109	34.56
464.311	34.61
464.514	34.49
464.717	34.63
464.92	34.77
465.122	34.76
465.325	34.87
465.528	34.94
465.73	35.04
465.933	35.07
466.135	35.01
466.338	35.12
466.541	35.14
466.743	35.11
466.946	34.99
467.148	34.84
467.351	34.91
467.553	34.82
467.756	34.72
467.958	34.62
468.161	34.49
468.363	34.57
468.566	34.46
468.768	34.5
468.971	34.54
469.173	34.63
469.375	34.8
469.578	34.77
469.78	34.85
469.983	34.85
470.185	34.96
470.387	35.07
470.59	35.02
470.792	35.01
470.994	34.97
471.196	34.95
471.399	35.06
471.601	35.01
471.803	35.03
472.005	34.98
472.208	35.15
472.41	35.11
472.612	35.13
472.814	35.22
473.016	35.35
473.218	35.17
473.421	35.24
473.623	35.07
473.825	35.1
474.027	35.11
474.229	35.09
474.431	34.91
474.633	34.81
474.835	34.86
475.037	34.71
475.239	34.61
475.441	34.7
475.643	34.72
475.845	34.81
476.047	34.72
476.249	34.74
476.451	34.8
476.653	34.89
476.855	34.95
477.057	34.88
477.258	34.93
477.46	34.91
477.662	34.88
477.864	34.82
478.066	34.74
478.268	34.81
478.469	34.72
478.671	34.72
478.873	34.66
479.075	34.58
479.276	34.48
479.478	34.52
479.68	34.6
479.882	34.67
480.083	34.68
480.285	34.68
480.487	34.63
480.688	34.76
480.89	34.72
481.091	34.71
481.293	34.75
481.495	34.85
481.696	34.8
481.898	34.72
482.099	34.72
482.301	34.65
482.502	34.61
482.704	34.59
482.905	34.52
483.107	34.53
483.308	34.5
483.51	34.49
483.711	34.44
483.913	34.42
484.114	34.37
484.315	34.33
484.517	34.32
484.718	34.34
484.92	34.33
485.121	34.31
485.322	34.31
485.524	34.36
485.725	34.36
485.926	34.38
486.127	34.38
486.329	34.45
486.53	34.45
486.731	34.45
486.932	34.41
487.134	34.46
487.335	34.53
487.536	34.51
487.737	34.49
487.938	34.5
488.139	34.48
488.341	34.47
488.542	34.45
488.743	34.48
488.944	34.49
489.145	34.56
489.346	34.53
489.547	34.45
489.748	34.45
489.949	34.45
490.15	34.41
490.351	34.42
490.552	34.47
490.753	34.51
490.954	34.51
491.155	34.62
491.356	34.54
491.557	34.57
491.758	34.61
491.959	34.57
492.159	34.61
492.36	34.64
492.561	34.68
492.762	34.64
492.963	34.64
493.164	34.65
493.364	34.63
493.565	34.76
493.766	34.74
493.967	34.79
494.167	34.87
494.368	34.89
494.569	34.87
494.769	34.9
494.97	35.07
495.171	35.09
495.371	35.27
495.572	35.22
495.773	35.21
495.973	35.24
496.174	35.24
496.375	35.27
496.575	35.32
496.776	35.36
496.976	35.34
497.177	35.36
497.377	35.37
497.578	35.21
497.778	35.27
497.979	35.32
498.179	35.34
498.38	35.34
498.58	35.44
498.78	35.39
498.981	35.45
499.181	35.49
499.382	35.5
499.582	35.51
499.782	35.67
499.983	35.6
500.183	35.61
500.383	35.67
500.584	35.76
500.784	35.77
500.984	35.85
501.184	35.76
501.385	35.78
501.585	35.86
501.785	35.92
501.985	35.84
502.185	36.03
502.386	35.95
502.586	35.95
502.786	35.9
502.986	35.9
503.186	35.91
503.386	36.12
503.586	36.19
503.786	36.11
503.987	36.18
504.187	36.22
504.387	36.17
504.587	36.26
504.787	36.34
504.987	36.33
505.187	36.33
505.387	36.32
505.587	36.25
505.786	36.29
505.986	36.41
506.186	36.42
506.386	36.41
506.586	36.52
506.786	36.6
506.986	36.56
507.186	36.69
507.386	36.68
507.585	36.68
507.785	36.66
507.985	36.6
508.185	36.62
508.384	36.52
508.584	36.58
508.784	36.5
508.984	36.51
509.183	36.55
509.383	36.43
509.583	36.46
509.782	36.53
509.982	36.61
510.182	36.67
510.381	36.59
510.581	36.63
510.781	36.7
510.98	36.71
511.18	36.71
511.379	36.75
511.579	36.84
511.778	36.85
511.978	36.83
512.177	36.81
512.377	36.76
512.576	36.77
512.776	36.87
512.975	36.83
513.175	36.89
513.374	36.93
513.573	36.87
513.773	36.86
513.972	36.89
514.172	36.97
514.371	37.08
514.57	37.27
514.77	37.27
514.969	37.3
515.168	37.29
515.367	37.33
515.567	37.34
515.766	37.4
515.965	37.57
516.164	37.62
516.364	37.65
516.563	37.58
516.762	37.48
516.961	37.51
517.16	37.6
517.359	37.6
517.559	37.6
517.758	37.62
517.957	37.57
518.156	37.52
518.355	37.41
518.554	37.37
518.753	37.42
518.952	37.52
519.151	37.54
519.35	37.44
519.549	37.45
519.748	37.46
519.947	37.49
520.146	37.59
520.345	37.54
520.544	37.7
520.743	37.77
520.942	37.67
521.141	37.7
521.339	37.69
521.538	37.75
521.737	37.77
521.936	37.74
522.135	37.78
522.333	37.8
522.532	37.83
522.731	37.79
522.93	37.71
523.129	37.76
523.327	37.74
523.526	37.82
523.725	37.91
523.923	38
524.122	38.06
524.321	38.01
524.519	37.98
524.718	38.05
524.917	38.05
525.115	38.06
525.314	38.11
525.512	38.11
525.711	38.09
525.909	38.01
526.108	37.97
526.306	37.93
526.505	37.84
526.703	37.88
526.902	37.82
527.1	37.84
527.299	37.83
527.497	37.81
527.696	37.69
527.894	37.71
528.092	37.74
528.291	37.78
528.489	37.73
528.688	37.76
528.886	37.73
529.084	37.72
529.283	37.66
529.481	37.71
529.679	37.71
529.877	37.78
530.076	37.73
530.274	37.68
530.472	37.57
530.67	37.68
530.869	37.76
531.067	37.81
531.265	37.89
531.463	37.99
531.661	38
531.859	38
532.057	38.05
532.255	38.09
532.454	38.09
532.652	38.18
532.85	38.19
533.048	38.13
533.246	38.1
533.444	38.06
533.642	38.06
533.84	38
534.038	38.04
534.236	37.99
534.434	38
534.632	38.02
534.83	38
535.027	38.01
535.225	38.01
535.423	38.08
535.621	38.1
535.819	38.11
536.017	38.19
536.215	38.17
536.412	38.21
536.61	38.3
536.808	38.36
537.006	38.39
537.203	38.35
537.401	38.45
537.599	38.38
537.797	38.39
537.994	38.44
538.192	38.52
538.39	38.48
538.587	38.59
538.785	38.51
538.983	38.57
539.18	38.62
539.378	38.69
539.575	38.66
539.773	38.68
539.97	38.72
540.168	38.72
540.366	38.65
540.563	38.72
540.761	38.69
540.958	38.73
541.155	38.72
541.353	38.76
541.55	38.8
541.748	38.75
541.945	38.78
542.143	38.82
542.34	38.78
542.537	38.83
542.735	38.85
542.932	38.92
543.129	38.87
543.327	38.91
543.524	38.87
543.721	38.84
543.919	39.05
544.116	39.14
544.313	39.14
544.51	39.31
544.708	39.4
544.905	39.55
545.102	39.58
545.299	39.76
545.496	39.8
545.693	39.8
545.891	39.8
546.088	39.73
546.285	39.69
546.482	39.69
546.679	39.58
546.876	39.56
547.073	39.48
547.27	39.49
547.467	39.37
547.664	39.25
547.861	39.27
548.058	39.33
548.255	39.27
548.452	39.29
548.649	39.23
548.846	39.35
549.043	39.35
549.24	39.33
549.437	39.33
549.633	39.41
549.83	39.5
550.027	39.46
550.224	39.45
550.421	39.55
550.618	39.48
550.814	39.51
551.011	39.41
551.208	39.37
551.405	39.36
551.601	39.35
551.798	39.25
551.995	39.31
552.191	39.25
552.388	39.27
552.585	39.21
552.781	39.31
552.978	39.37
553.175	39.38
553.371	39.35
553.568	39.35
553.764	39.28
553.961	39.37
554.157	39.37
554.354	39.52
554.55	39.54
554.747	39.46
554.943	39.28
555.14	39.26
555.336	39.41
555.533	39.49
555.729	39.41
555.926	39.42
556.122	39.42
556.318	39.3
556.515	39.32
556.711	39.27
556.907	39.43
557.104	39.55
557.3	39.51
557.496	39.45
557.693	39.37
557.889	39.46
558.085	39.45
558.281	39.45
558.478	39.42
558.674	39.32
558.87	39.21
559.066	39.12
559.262	39.16
559.459	39.28
559.655	39.25
559.851	39.34
560.047	39.34
560.243	39.43
560.439	39.53
560.635	39.63
560.831	39.67
561.027	39.78
561.223	39.72
561.419	39.77
561.615	39.78
561.811	39.89
562.007	39.85
562.203	39.73
562.399	39.75
562.595	39.63
562.791	39.68
562.987	39.73
563.183	39.66
563.379	39.72
563.575	39.69
563.771	39.58
563.966	39.55
564.162	39.53
564.358	39.65
564.554	39.49
564.75	39.61
564.945	39.56
565.141	39.49
565.337	39.64
565.533	39.63
565.728	39.66
565.924	39.61
566.12	39.54
566.315	39.52
566.511	39.46
566.707	39.45
566.902	39.38
567.098	39.47
567.293	39.55
567.489	39.49
567.684	39.43
567.88	39.37
568.076	39.54
568.271	39.49
568.467	39.46
568.662	39.43
568.858	39.54
569.053	39.52
569.248	39.41
569.444	39.28
569.639	39.21
569.835	39.14
570.03	39.19
570.225	39.08
570.421	39.09
570.616	39.2
570.812	39.34
571.007	39.31
571.202	39.31
571.397	39.43
571.593	39.49
571.788	39.54
571.983	39.72
572.178	39.72
572.374	39.82
572.569	39.92
572.764	39.91
572.959	39.92
573.154	39.99
573.35	40.13
573.545	40.05
573.74	39.96
573.935	40.09
574.13	40.02
574.325	40
574.52	39.99
574.715	40
574.91	39.97
575.105	39.96
575.3	39.99
575.495	39.87
575.69	39.9
575.885	40.13
576.08	40.08
576.275	40.1
576.47	40.1
576.665	40.03
576.86	40.03
577.055	40.21
577.25	40.15
577.444	40.18
577.639	40.24
577.834	40.29
578.029	40.29
578.224	40.35
578.418	40.42
578.613	40.39
578.808	40.46
579.003	40.42
579.197	40.23
579.392	40.42
579.587	40.32
579.781	40.48
579.976	40.42
580.171	40.33
580.365	40.31
580.56	40.41
580.755	40.55
580.949	40.57
581.144	40.6
581.338	40.75
581.533	40.7
581.727	40.87
581.922	40.73
582.116	40.65
582.311	40.62
582.505	40.6
582.7	40.65
582.894	40.56
583.089	40.57
583.283	40.68
583.478	40.77
583.672	40.74
583.866	40.59
584.061	40.65
584.255	40.8
584.449	40.83
584.644	40.85
584.838	40.87
585.032	40.9
585.226	41.07
585.421	40.99
585.615	40.86
585.809	40.91
586.003	41.02
586.198	41.24
586.392	41.26
586.586	41.3
586.78	41.22
586.974	41.1
587.168	41.27
587.363	41.28
587.557	41.39
587.751	41.38
587.945	41.41
588.139	41.37
588.333	41.22
588.527	41.26
588.721	41.24
588.915	41.35
589.109	41.54
589.303	41.46
589.497	41.37
589.691	41.2
589.885	41.25
590.079	41.13
590.273	41.16
590.466	41.17
590.66	41.18
590.854	41.38
591.048	41.36
591.242	41.31
591.436	41.36
591.629	41.35
591.823	41.56
592.017	41.87
592.211	42.05
592.404	42.15
592.598	42.14
592.792	42.13
592.986	42.1
593.179	42.17
593.373	42.22
593.567	42.18
593.76	42.24
593.954	42.25
594.147	42.08
594.341	42.07
594.535	42.15
594.728	42.07
594.922	41.99
595.115	42
595.309	41.75
595.502	41.56
595.696	41.64
595.889	41.69
596.083	41.58
596.276	41.49
596.47	41.43
596.663	41.34
596.856	41.48
597.05	41.7
597.243	41.64
597.437	41.78
597.63	41.86
597.823	41.81
598.017	41.77
598.21	41.89
598.403	42.03
598.596	42.09
598.79	42.14
598.983	42.08
599.176	42.06
599.369	42.21
599.563	42.32
599.756	42.45
599.949	42.59
600.142	42.52
600.335	42.62
600.528	42.45
600.722	42.61
600.915	42.68
601.108	42.76
601.301	42.63
601.494	42.67
601.687	42.62
601.88	42.47
602.073	42.3
602.266	42.34
602.459	42.28
602.652	42.26
602.845	42.16
603.038	42.02
603.231	41.98
603.424	42.02
603.617	41.85
603.809	41.92
604.002	42.05
604.195	42.14
604.388	42.12
604.581	42.02
604.774	42.08
604.966	42.06
605.159	42.14
605.352	42.17
605.545	41.98
605.737	41.98
605.93	42.08
606.123	42.28
606.316	42.19
606.508	42.25
606.701	42.51
606.894	42.73
607.086	42.8
607.279	42.92
607.471	43.12
607.664	43.45
607.857	43.59
608.049	43.7
608.242	43.8
608.434	44.18
608.627	44.59
608.819	44.88
609.012	45.19
609.204	45.67
609.397	46.22
609.589	46.74
609.782	47.27
609.974	47.99
610.166	48.64
610.359	49.11
610.551	49.67
610.743	50.2
610.936	50.62
611.128	50.92
611.32	51.18
611.513	51.15
611.705	51.17
611.897	51.29
612.09	50.94
612.282	50.57
612.474	50.46
612.666	50.16
612.858	49.94
613.051	49.65
613.243	49.55
613.435	49.09
613.627	48.88
613.819	48.57
614.011	48.26
614.203	48.12
614.395	48
614.588	47.78
614.78	47.55
614.972	47.08
615.164	46.85
615.356	46.44
615.548	46.5
615.74	46.3
615.932	46.02
616.124	45.68
616.315	45.58
616.507	45.5
616.699	45.08
616.891	45.08
617.083	45.1
617.275	45.02
617.467	45.01
617.659	44.82
617.85	44.73
618.042	44.79
618.234	44.79
618.426	45.07
618.618	44.93
618.809	44.94
619.001	44.94
619.193	44.73
619.384	44.56
619.576	44.67
619.768	44.75
619.959	44.93
620.151	44.82
620.343	44.76
620.534	44.4
620.726	44.52
620.917	44.96
621.109	44.69
621.301	44.84
621.492	45
621.684	44.83
621.875	44.9
622.067	44.68
622.258	44.84
622.45	45.17
622.641	45.19
622.832	45.21
623.024	44.95
623.215	45.31
623.407	45.17
623.598	45.08
623.789	45.36
623.981	45.27
624.172	45.41
624.363	45.34
624.555	45.14
624.746	45.21
624.937	45.15
625.129	45.13
625.32	45.02
625.511	45.23
625.702	45.21
625.893	45.09
626.085	45.04
626.276	45.03
626.467	45.21
626.658	45.35
626.849	45.45
627.04	45.43
627.231	45.45
627.422	45.58
627.614	45.63
627.805	45.75
627.996	45.81
628.187	45.95
628.378	46.02
628.569	45.9
628.76	46.04
628.951	45.89
629.142	45.89
629.332	45.89
629.523	45.79
629.714	45.71
629.905	45.88
630.096	45.91
630.287	45.86
630.478	45.94
630.669	46.05
630.859	45.98
631.05	46.11
631.241	46.25
631.432	46.29
631.623	46.31
631.813	46.25
632.004	46.09
632.195	45.93
632.385	45.9
632.576	45.71
632.767	45.57
632.957	45.52
633.148	45.39
633.339	45.38
633.529	45.33
633.72	45.21
633.91	45.26
634.101	45.26
634.292	45.26
634.482	45.26
634.673	45.41
634.863	45.48
635.054	45.33
635.244	45.39
635.435	45.42
635.625	45.48
635.815	45.54
636.006	45.4
636.196	45.5
636.387	45.71
636.577	45.77
636.767	45.51
636.958	45.5
637.148	45.61
637.338	45.66
637.529	45.35
637.719	45.28
637.909	45.32
638.099	45.41
638.29	45.41
638.48	45.24
638.67	45.39
638.86	45.84
639.05	45.96
639.241	46.12
639.431	45.97
639.621	46.16
639.811	46.36
640.001	46.32
640.191	46.35
640.381	46.39
640.571	46.41
640.761	46.31
640.951	46.22
641.141	46.04
641.331	46.01
641.521	46.32
641.711	46.37
641.901	46.1
642.091	46.26
642.281	46.27
642.471	45.95
642.661	46.1
642.851	46.19
643.041	46
643.231	46.08
643.42	46.28
643.61	45.97
643.8	45.98
643.99	46.46
644.18	46.49
644.369	46.54
644.559	46.66
644.749	46.67
644.939	46.53
645.128	46.56
645.318	46.83
645.508	46.39
645.697	46.46
645.887	46.65
646.076	46.31
646.266	46.27
646.456	46.36
646.645	46.79
646.835	46.72
647.024	46.69
647.214	46.75
647.403	46.7
647.593	47.06
647.782	47.17
647.972	47.14
648.161	47.37
648.351	47.48
648.54	47.68
648.73	47.59
648.919	47.9
649.108	48.21
649.298	48.37
649.487	48.26
649.677	48.18
649.866	48.54
650.055	48.62
650.244	48.68
650.434	48.66
650.623	48.38
650.812	48.31
651.002	47.97
651.191	48.02
651.38	48.04
651.569	47.97
651.758	47.9
651.947	47.63
652.137	47.53
652.326	47.48
652.515	47.62
652.704	47.75
652.893	47.83
653.082	48.2
653.271	48.07
653.46	47.97
653.649	48.22
653.838	48.35
654.027	48.61
654.216	48.5
654.405	48.49
654.594	48.42
654.783	48.36
654.972	48.26
655.161	48.05
655.35	47.96
655.539	48.05
655.728	48
655.916	47.88
656.105	47.72
656.294	47.72
656.483	47.62
656.672	47.48
656.86	47.62
657.049	47.71
657.238	47.66
657.427	47.76
657.615	48.01
657.804	48.15
657.993	48.29
658.181	48.47
658.37	48.69
658.559	48.65
658.747	48.74
658.936	48.65
659.125	48.75
659.313	48.68
659.502	48.74
659.69	48.55
659.879	48.36
660.067	48.47
660.256	48.21
660.444	48.21
660.633	48.33
660.821	48.29
661.01	48.29
661.198	48.08
661.387	48.43
661.575	48.37
661.763	48.47
661.952	48.59
662.14	48.57
662.328	48.61
662.517	48.67
662.705	48.81
662.893	48.82
663.082	49.29
663.27	49.58
663.458	49.51
663.646	49.72
663.834	49.87
664.023	50.01
664.211	49.99
664.399	50.3
664.587	50.33
664.775	50.32
664.963	50.71
665.152	50.52
665.34	50.54
665.528	50.49
665.716	50.34
665.904	50.12
666.092	50.35
666.28	50.47
666.468	50.58
666.656	50.56
666.844	50.45
667.032	50.2
667.22	50.12
667.408	50.2
667.596	50.41
667.784	50.46
667.971	50.84
668.159	50.47
668.347	50.65
668.535	50.69
668.723	50.81
668.911	51.08
669.098	50.95
669.286	50.87
669.474	50.72
669.662	50.84
669.849	50.89
670.037	50.77
670.225	50.87
670.413	50.37
670.6	50.38
670.788	50.33
670.976	50.43
671.163	50.64
671.351	50.78
671.538	50.81
671.726	50.77
671.913	50.78
672.101	50.97
672.289	51.04
672.476	51.38
672.664	51.67
672.851	51.66
673.039	51.64
673.226	51.63
673.413	51.59
673.601	51.99
673.788	52.18
673.976	52.1
674.163	51.98
674.35	51.99
674.538	51.56
674.725	51.24
674.912	51.08
675.1	50.72
675.287	50.84
675.474	50.91
675.662	50.64
675.849	50.46
676.036	50.69
676.223	50.72
676.411	51.04
676.598	51.65
676.785	51.8
676.972	52.08
677.159	52.14
677.346	52.15
677.533	52.28
677.721	52.33
677.908	52.36
678.095	52.19
678.282	51.95
678.469	51.76
678.656	51.38
678.843	51.04
679.03	50.78
679.217	50.97
679.404	51.27
679.591	51.25
679.778	51.52
679.964	51.54
680.151	51.52
680.338	51.76
680.525	51.78
680.712	51.98
680.899	51.94
681.086	52.19
681.272	52.23
681.459	52.21
681.646	52.36
681.833	52.16
682.02	52
682.206	52.18
682.393	52.41
682.58	52.49
682.766	52.55
682.953	53.16
683.14	53.29
683.326	53.15
683.513	53.3
683.7	53.02
683.886	53.16
684.073	53.56
684.259	53.71
684.446	53.61
684.632	53.86
684.819	53.95
685.005	53.83
685.192	53.76
685.378	53.97
685.565	53.6
685.751	53.93
685.938	53.71
686.124	53.53
686.31	53.34
686.497	53.42
686.683	53.04
686.87	52.92
687.056	52.53
687.242	52.82
687.429	53.32
687.615	53.5
687.801	53.47
687.987	53.57
688.174	53.68
688.36	53.63
688.546	53.35
688.732	53.67
688.918	53.78
689.105	53.84
689.291	53.39
689.477	53.17
689.663	53.14
689.849	53.27
690.035	53.37
690.221	53.21
690.407	53.59
690.593	53.75
690.779	53.48
690.965	53.52
691.151	53.87
691.337	54.19
691.523	54.09
691.709	54.53
691.895	54.59
692.081	54.14
692.267	54.16
692.453	54.05
692.639	54.07
692.825	54.27
693.011	54.52
693.196	54.44
693.382	54.49
693.568	54.99
693.754	54.83
693.94	54.75
694.125	55.32
694.311	55.42
694.497	55.51
694.682	55.65
694.868	55.77
695.054	55.66
695.239	55.85
695.425	56
695.611	55.5
695.796	55.23
695.982	55.04
696.168	54.97
696.353	55.08
696.539	54.7
696.724	54.77
696.91	54.34
697.095	54.3
697.281	54.09
697.466	53.86
697.652	53.9
697.837	53.76
698.023	53.96
698.208	53.7
698.393	53.64
698.579	53.95
698.764	53.65
698.949	53.79
699.135	53.68
699.32	53.57
699.505	53.52
699.691	53.59
699.876	53.61
700.061	53.38
700.246	53.62
700.432	53.4
700.617	53.35
700.802	53.63
700.987	53.77
701.172	54.13
701.358	54.49
701.543	54.72
701.728	54.54
701.913	55.08
702.098	55.4
702.283	55.35
702.468	55.81
702.653	55.61
702.838	55.47
703.023	55.56
703.208	55.49
703.393	55.14
703.578	55.14
703.763	55.7
703.948	55.47
704.133	55.67
704.318	56.01
704.503	56.16
704.688	56.45
704.873	56.48
705.057	56.34
705.242	56.32
705.427	56.84
705.612	57.73
705.797	57.65
705.981	57.96
706.166	57.94
706.351	58.18
706.536	58.24
706.72	58.41
706.905	58.9
707.09	59.33
707.274	60
707.459	60.19
707.644	59.81
707.828	59.76
708.013	59.41
708.197	59.12
708.382	58.88
708.567	59.21
708.751	59.27
708.936	58.94
709.12	58.71
709.305	58.49
709.489	58.47
709.673	58.26
709.858	58.02
710.042	58.13
710.227	58.25
710.411	58.19
710.596	58.13
710.78	58.34
710.964	58.71
711.149	58.86
711.333	58.51
711.517	58.26
711.702	58.28
711.886	58.74
712.07	58.74
712.254	58.88
712.438	58.99
712.623	58.75
712.807	58.35
712.991	57.98
713.175	57.78
713.359	57.81
713.544	57.78
713.728	57.5
713.912	57.08
714.096	56.71
714.28	56.54
714.464	56.53
714.648	55.93
714.832	55.91
715.016	55.59
715.2	55.49
715.384	55.62
715.568	55.76
715.752	55.7
715.936	55.48
716.12	55.47
716.304	55.47
716.488	55.13
716.671	55.69
716.855	55.61
717.039	55.81
717.223	56.05
717.407	55.64
717.59	55.37
717.774	55.29
717.958	55.76
718.142	55.93
718.325	56.08
718.509	56.15
718.693	56.12
718.877	56.21
719.06	56.23
719.244	56.09
719.428	56.23
719.611	56.83
719.795	57.23
719.978	56.91
720.162	57.22
720.345	56.99
720.529	57.66
720.713	57.66
720.896	57.29
721.08	57.54
721.263	57.49
721.446	57.42
721.63	57.35
721.813	57.49
721.997	57.99
722.18	57.26
722.364	57.63
722.547	57.03
722.73	56.92
722.914	57.88
723.097	57.79
723.28	58.11
723.464	58.57
723.647	58.64
723.83	58.51
724.013	58.33
724.197	59.13
724.38	59.02
724.563	59.24
724.746	59.45
724.929	59.03
725.112	58.8
725.296	58.15
725.479	57.98
725.662	57.55
725.845	57.36
726.028	57.15
726.211	56.7
726.394	56.95
726.577	56.69
726.76	56.31
726.943	56.63
727.126	56.25
727.309	56.49
727.492	56.73
727.675	56.47
727.858	56.59
728.041	56.58
728.224	56.92
728.407	56.38
728.589	56.49
728.772	56.83
728.955	56.27
729.138	57.51
729.321	57.64
729.503	57.16
729.686	57.48
729.869	57.54
730.052	57.47
730.234	57.52
730.417	58.08
730.6	58.15
730.782	58.22
730.965	58.97
731.148	58.34
731.33	58.68
731.513	58.99
731.695	58.82
731.878	58.9
732.061	59.07
732.243	59.41
732.426	59.03
732.608	59.17
732.791	58.99
732.973	58.43
733.156	58.36
733.338	57.72
733.52	57.84
733.703	57.97
733.885	57.9
734.068	57.72
734.25	57.21
734.432	57.15
734.615	56.53
734.797	56.62
734.979	56.66
735.162	56.36
735.344	56.35
735.526	55.72
735.708	55.89
735.891	56.19
736.073	56.06
736.255	56.85
736.437	57.46
736.619	58.02
736.802	57.99
736.984	57.79
737.166	58.25
737.348	58.85
737.53	59.45
737.712	59.17
737.894	58.38
738.076	58.38
738.258	57.88
738.44	57.16
738.622	57.77
738.804	57.91
738.986	57.65
739.168	57.65
739.35	57.06
739.532	56.87
739.714	57.06
739.896	56.99
740.078	56.88
740.259	56
740.441	56.1
740.623	56.2
740.805	55.85
740.987	57.09
741.168	57.08
741.35	58.36
741.532	58.74
741.714	58.71
741.895	59.67
742.077	60.17
742.259	60.84
742.44	61.13
742.622	60.25
742.804	61.19
742.985	61.31
743.167	61.6
743.348	61
743.53	60.9
743.711	60.94
743.893	60.69
744.075	60.69
744.256	61.21
744.438	61.71
744.619	62.1
744.8	61.32
744.982	60.39
745.163	60.11
745.345	59.92
745.526	60.04
745.707	60.24
745.889	60.1
746.07	60.1
746.252	59.78
746.433	58.63
746.614	58.43
746.795	59.12
746.977	59.63
747.158	60.05
747.339	59.95
747.52	59.7
747.702	59.9
747.883	59.79
748.064	59.54
748.245	59.35
748.426	60.44
748.607	60.83
748.788	60.43
748.97	59.99
749.151	59.67
749.332	59.97
749.513	60.47
749.694	59.83
749.875	60.11
750.056	60.16
750.237	60.72
750.418	60.31
750.599	59.81
750.78	60.06
750.96	59.84
751.141	59.61
751.322	59.07
751.503	58.72
751.684	59.82
751.865	59.75
752.046	60.73
752.226	60.1
752.407	59.97
752.588	59.82
752.769	59.34
752.949	59.92
753.13	60.61
753.311	61.62
753.492	61.46
753.672	60.77
753.853	60.62
754.034	59.67
754.214	60.13
754.395	60.18
754.575	61.12
754.756	61.31
754.937	61.87
755.117	61.1
755.298	60.89
755.478	60.68
755.659	60.39
755.839	60.44
756.02	61.43
756.2	61.11
756.381	60.22
756.561	59.79
756.741	59.74
756.922	58.58
757.102	58.87
757.283	58.52
757.463	58.55
757.643	59.16
757.823	59.16
758.004	58.42
758.184	58.17
758.364	59.41
758.545	59.36
758.725	58.76
758.905	58.49
759.085	58.96
759.265	59.05
759.446	59.19
759.626	58.3
759.806	58.41
759.986	58.37
760.166	58.32
760.346	57.36
760.526	58.06
760.706	58.03
760.886	58.61
761.066	57.58
761.246	57.25
761.426	56.45
761.606	56.34
761.786	56.54
761.966	56.9
762.146	56.83
762.326	56.77
762.506	55.68
762.686	56.05
762.866	56
763.046	56.25
763.225	55.88
763.405	56.15
763.585	56.02
763.765	55.67
763.945	55.25
764.124	55.48
764.304	55.65
764.484	55.6
764.664	55.4
764.843	55.5
765.023	55.86
765.203	56.17
765.382	55.94
765.562	55.81
765.741	55.6
765.921	55.41
766.101	55.37
766.28	55.87
766.46	56.52
766.639	56.98
766.819	57.04
766.998	56.48
767.178	56.8
767.357	57.59
767.537	58.63
767.716	59.11
767.896	60.05
768.075	60.03
768.254	59.87
768.434	60.11
768.613	59.02
768.792	59.44
768.972	60.28
769.151	60.08
769.33	60.3
769.51	60.58
769.689	60.71
769.868	59.72
770.047	60.26
770.226	60.16
770.406	59.3
770.585	60.43
770.764	59.37
770.943	58.74
771.122	58.79
771.301	58.98
771.48	59.38
771.66	60.01
771.839	61.06
772.018	60.32
772.197	61.27
772.376	61.67
772.555	62.11
772.734	61.56
772.913	61.45
773.092	62.72
773.271	62.42
773.449	61.9
773.628	62.18
773.807	61.52
773.986	62.05
774.165	61.13
774.344	61.21
774.523	59.59
774.701	61.2
774.88	61.09
775.059	59.26
775.238	59.22
775.417	58.62
775.595	58.16
775.774	57.81
775.953	57.69
776.131	57.29
776.31	57.45
776.489	57.66
776.667	58.26
776.846	58.59
777.025	59.97
777.203	59.13
777.382	60.32
777.56	59.39
777.739	60.55
777.917	61.43
778.096	62.26
778.274	62.88
778.453	63.51
778.631	62.14
778.81	62.18
778.988	60.67
779.166	61.16
779.345	60.69
779.523	61.16
779.702	60.98
779.88	60.37
780.058	60.29
780.237	59.53
780.415	60.22
780.593	60.19
780.771	61.02
780.95	63.13
781.128	62.95
781.306	62.87
781.484	63.04
781.662	62.42
781.841	61.88
782.019	61.91
782.197	62.27
782.375	61.99
782.553	62.21
782.731	61.48
782.909	60.43
783.087	60.6
783.265	60.71
783.443	60.31
783.621	60.77
783.799	61.9
783.977	61.5
784.155	61.6
784.333	60.83
784.511	60.46
784.689	59.85
784.867	59.9
785.045	60.9
785.223	61.42
785.4	61.68
785.578	61.52
785.756	60.86
785.934	60.79
786.112	60.83
786.289	60.92
786.467	60.98
786.645	61.37
786.823	60.81
787	59.72
787.178	59.28
787.356	58.65
787.533	57.88
787.711	57.29
787.889	56.77
788.066	56.47
788.244	57.1
788.421	57.89
788.599	57.85
788.776	58.34
788.954	58.32
789.131	58.14
789.309	58.97
789.486	58.81
789.664	59.28
789.841	61.08
790.019	61.23
790.196	60.67
790.373	59.97
790.551	59.42
790.728	59.07
790.906	59.74
791.083	58.06
791.26	57.39
791.437	58.54
791.615	57
791.792	55.71
791.969	55.58
792.146	55.74
792.324	56
792.501	56.78
792.678	57.08
792.855	57.21
793.032	59.54
793.209	60.07
793.387	59.58
793.564	61.32
793.741	61.81
793.918	61.95
794.095	62.47
794.272	62.36
794.449	62.24
794.626	62.43
794.803	62.18
794.98	60.9
795.157	60.78
795.334	61.2
795.511	60.53
795.688	60.07
795.864	59.53
796.041	59.07
796.218	59.61
796.395	59.63
796.572	58.91
796.749	57.65
796.925	57.92
797.102	57.47
797.279	56.61
797.456	57.02
797.632	55.8
797.809	55.62
797.986	55.36
798.162	54.98
798.339	54.62
798.516	54.64
798.692	55.77
798.869	55.87
799.046	56.82
799.222	58.1
799.399	58.17
799.575	59.05
799.752	59.57
799.928	59.98
800.105	61.14
800.281	61.64
800.458	61.35
800.634	62.45
800.811	62.3
800.987	62.04
801.163	61.96
801.34	61.99
801.516	63.32
801.692	63.42
801.869	63.54
802.045	60.22
802.221	60.12
802.398	60.17
802.574	60.12
802.75	59.05
802.926	58.68
803.103	59.63
803.279	58.53
803.455	57.52
803.631	58.16
803.807	57.78
803.983	59.02
804.16	59.18
804.336	59.59
804.512	58.11
804.688	58.96
804.864	59.04
805.04	56.66
805.216	56.78
805.392	57.05
805.568	56.38
805.744	56.29
805.92	57.19
806.096	56.81
806.272	58.18
806.448	58.88
806.623	58.91
806.799	58.58
806.975	59.41
807.151	60.67
807.327	60.42
807.503	60.2
807.678	60.33
807.854	59.08
808.03	58.26
808.206	58.7
808.381	57.82
808.557	57.86
808.733	57.82
808.908	57.49
809.084	56.16
809.26	55.92
809.435	56.29
809.611	55.98
809.787	55.75
809.962	56.66
810.138	54.62
810.313	54.64
810.489	56.79
810.664	56.12
810.84	57.51
811.015	59.96
811.191	60.14
811.366	60.45
811.542	60.75
811.717	60.52
811.892	61.43
812.068	62.36
812.243	63.49
812.419	63.05
812.594	63.47
812.769	61.32
812.944	59.01
813.12	58.85
813.295	56.64
813.47	56.92
813.645	58.21
813.821	56.66
813.996	55.55
814.171	55.16
814.346	54.86
814.521	56.51
814.697	57.04
814.872	56.83
815.047	56.77
815.222	58.54
815.397	58.63
815.572	58.39
815.747	59.73
815.922	59.02
816.097	58.6
816.272	57.01
816.447	55.93
816.622	56.43
816.797	57.7
816.972	56.52
817.147	56.36
817.322	57
817.496	55.98
817.671	56.04
817.846	57.15
818.021	56.58
818.196	55.9
818.371	55.38
818.545	55.46
818.72	55.51
818.895	57.2
819.069	57.12
819.244	55.65
819.419	55.47
819.594	53.9
819.768	54.18
819.943	53.21
820.117	52.43
820.292	51
820.467	49.62
820.641	48.55
820.816	47.57
820.99	47.12
821.165	47.07
821.339	47.15
821.514	46.41
821.688	45.67
821.863	45.48
822.037	45.53
822.212	45.71
822.386	45.79
822.56	45.57
822.735	45.41
822.909	45.13
823.084	44.93
823.258	44.9
823.432	45.23
823.606	45.26
823.781	45.47
823.955	45.44
824.129	45.36
824.303	45.5
824.478	45.33
824.652	45.15
824.826	45.11
825	45
825.174	44.91
825.348	45.01
825.523	45.15
825.697	45.2
825.871	45.23
826.045	45.63
826.219	45.14
826.393	46
826.567	46.48
826.741	46.73
826.915	46.86
827.089	46.99
827.263	46.5
827.437	46.04
827.611	45.91
827.784	45.99
827.958	45.92
828.132	46.24
828.306	46.46
828.48	46.56
828.654	46.53
828.827	46.54
829.001	46.29
829.175	46.63
829.349	48.05
829.522	48.52
829.696	48.72
829.87	48.78
830.044	48.61
830.217	48.01
830.391	47.01
830.565	47.53
830.738	48.56
830.912	48.53
831.085	49.85
831.259	49.38
831.432	48.43
831.606	48.54
831.779	48.6
831.953	49.42
832.126	49.41
832.3	50.45
832.473	50.98
832.647	50.4
832.82	49.53
832.994	48.63
833.167	47.37
833.34	48.07
833.514	48.11
833.687	47.04
833.86	46.48
834.034	45.91
834.207	46.12
834.38	46.08
834.553	46.35
834.727	47.05
834.9	47.52
835.073	47.8
835.246	47.41
835.419	47.11
835.593	48.24
835.766	48.53
835.939	49.73
836.112	49.4
836.285	49.77
836.458	48.34
836.631	48.87
836.804	48.53
836.977	49.4
837.15	50.19
837.323	51.29
837.496	51.48
837.669	51.5
837.842	50.84
838.015	52.34
838.188	52.1
838.361	53.31
838.533	53.65
838.706	54.43
838.879	55.08
839.052	55.37
839.225	54.23
839.398	53.43
839.57	53.47
839.743	54.41
839.916	53.39
840.088	52.29
840.261	52.01
840.434	49.47
840.607	46.91
840.779	47.23
840.952	45.94
841.124	46.33
841.297	46.03
841.47	46.15
841.642	44.38
841.815	45.13
841.987	46.36
842.16	48.75
842.332	51.3
842.505	54.43
842.677	55.25
842.85	57.76
843.022	56.7
843.194	60.49
843.367	61.5
843.539	63.43
843.712	62.05
843.884	58.74
844.056	59.56
844.229	61.17
844.401	60.61
844.573	59.75
844.745	59.36
844.918	61.63
845.09	58.75
845.262	58.81
845.434	61.18
845.606	60.2
845.779	60.51
845.951	57.79
846.123	54.31
846.295	53.73
846.467	52.7
846.639	55.77
846.811	56.91
846.983	59.62
847.155	60.14
847.327	59
847.499	62.59
847.671	66.88
847.843	66.57
848.015	68.89
848.187	69.4
848.359	71.39
848.531	68.08
848.703	69.71
848.875	64.79
849.047	65.18
849.218	65.84
849.39	66.72
849.562	65.75
849.734	64.94
849.905	64.68
850.077	66.22
850.249	68.54
850.421	65.32
850.592	63.8
850.764	66.38
850.936	66.87
851.107	67.73
851.279	65.25
851.451	66.39
851.622	67.75
851.794	70.53
851.965	67.71
852.137	64.68
852.308	70.27
852.48	73.57
852.651	73.27
852.823	71.52
852.994	62.8
853.166	66.84
853.337	66.14
853.509	64.29
853.68	60.38
853.851	61.24
854.023	61.81
854.194	60.95
854.365	57.4
854.537	59.88
854.708	62
854.879	68.65
855.05	66.67
855.222	63.78
855.393	64.5
855.564	66.49
855.735	63.94
855.906	60.41
856.078	62.35
856.249	61.22
856.42	60.43
856.591	56.88
856.762	56.96
856.933	57.31
857.104	61.53
857.275	62.07
857.446	64.21
857.617	72.62
857.788	77.03
857.959	74.09
858.13	76.74
858.301	79.48
858.472	80.07
858.643	79.31
858.814	80.81
858.985	78.11
859.155	81.43
859.326	77.49
859.497	73.7
859.668	68.27
859.839	69.63
860.009	65.18
860.18	61.58
860.351	66.16
860.522	64.88
860.692	61.91
860.863	64.95
861.034	65.34
861.204	68.22
861.375	67.89
861.546	68.91
861.716	68.96
861.887	73.93
862.057	75.33
862.228	72.2
862.398	69.07
862.569	68.06
862.739	65.12
862.91	61.54
863.08	61.05
863.251	62.01
863.421	65.15
863.592	65.72
863.762	65.76
863.932	66.87
864.103	66.08
864.273	68.51
864.443	68.49
864.614	69
864.784	75.11
864.954	73.51
865.125	70.41
865.295	75.35
865.465	74.04
865.635	74.33
865.805	75.75
865.976	77.28
866.146	75.68
866.316	78.02
866.486	78.81
866.656	81.33
866.826	84.93
866.996	85.88
867.166	84.6
867.336	85.42
867.506	83.59
867.676	78.46
867.846	80.83
868.016	82.82
868.186	85.02
868.356	87.74
868.526	80.74
868.696	77.38
868.866	81.76
869.036	80.16
869.206	80.49
869.376	83.81
869.545	85.96
869.715	83.94
869.885	87.09
870.055	85.67
870.224	87.34
870.394	85.12
870.564	82.33
870.734	78
870.903	77
871.073	77.34
871.243	71.68
871.412	75.03
871.582	74.71
871.751	70.76
871.921	65.58
872.091	65.93
872.26	68.69
872.43	66.27
872.599	66.56
872.769	65.2
872.938	62.74
873.108	63.11
873.277	56.28
873.446	53.33
873.616	54.79
873.785	55.95
873.955	49.35
874.124	46.93
874.293	51.84
874.463	52.15
874.632	49.05
874.801	52.83
874.971	54.73
875.14	60.54
875.309	65.21
875.478	64.55
875.647	66.89
875.817	70.25
875.986	74.28
876.155	75.72
876.324	74.17
876.493	80.52
876.662	76.47
876.831	75.36
877	74.21
877.17	72.43
877.339	74.18
877.508	74.52
877.677	77
877.846	75.51
878.015	73.68
878.184	76.9
878.352	74.59
878.521	73.02
878.69	73.07
878.859	72.52
879.028	72
879.197	72.48
879.366	70.02
879.534	66.02
879.703	60.35
879.872	55.17
880.041	49.6
880.21	46.53
880.378	44.5
880.547	43.82
880.716	41.17
880.884	40.33
881.053	36.87
881.222	36.96
881.39	36.89
881.559	36.75
881.727	37.32
881.896	38.26
882.065	38.03
882.233	38.6
882.402	37.81
882.57	37.89
882.739	37.7
882.907	38.65
883.076	38.36
883.244	38.41
883.412	38.88
883.581	38.23
883.749	37.95
883.918	38.63
884.086	38.18
884.254	39.48
884.423	40.56
884.591	41.44
884.759	41.68
884.927	41.9
885.096	41.7
885.264	43.49
885.432	45.97
885.6	44.74
885.769	46.11
885.937	49.14
886.105	49.68
886.273	48.34
886.441	47.23
886.609	49.9
886.777	50.6
886.945	51.81
887.113	53.67
887.281	54
887.449	59.34
887.617	59.87
887.785	57.08
887.953	60.41
888.121	62
888.289	64.64
888.457	63.42
888.625	63.78
888.793	64.54
888.961	60.56
889.129	58.94
889.296	59.49
889.464	59.16
889.632	60.49
889.8	57.29
889.967	58.92
890.135	56.02
