Data from 2938782__Reflection_02.txt Node
Date: Fri Mar 13 12:35:52 EDT 2015
User: robert
Spectrometer: USB4E03002
Autoset integration time: false
Trigger mode: 4
Integration Time (sec): 1.000000E-1
Scans to average: 10
Electric dark correction enabled: false
Nonlinearity correction enabled: false
Boxcar width: 5
Stray light correction enabled: false
XAxis mode: Wavelengths
Stop averaging: false
Number of Pixels in Spectrum: 3648
>>>>>Begin Spectral Data<<<<<
177.575	97.12
177.794	102.67
178.014	107.01
178.233	100.97
178.452	100.35
178.672	91.6
178.891	93.29
179.11	88.81
179.33	90.83
179.549	91.09
179.768	88.76
179.987	90.79
180.207	87.46
180.426	75.27
180.645	77.52
180.864	75.48
181.084	75.73
181.303	75.9
181.522	78.99
181.741	75.37
181.96	77.06
182.179	79.13
182.398	72.05
182.618	71.27
182.837	77.22
183.056	74.76
183.275	76.97
183.494	79.44
183.713	78.06
183.932	79.06
184.151	77.86
184.37	76.34
184.589	78.58
184.808	86.82
185.027	86.82
185.246	87.63
185.465	88.45
185.684	91.73
185.903	91.19
186.122	90.24
186.341	89.65
186.56	90.67
186.779	91.04
186.998	89.55
187.216	87.15
187.435	86.37
187.654	83.28
187.873	85.04
188.092	80.09
188.311	78.71
188.53	77.18
188.748	75.4
188.967	76.74
189.186	73.94
189.405	73.56
189.623	74.55
189.842	78.23
190.061	80.78
190.28	80.47
190.498	81.42
190.717	85.52
190.936	88.71
191.154	90.95
191.373	88.42
191.592	90.98
191.81	90.78
192.029	88.5
192.248	88.44
192.466	87.57
192.685	86.17
192.904	89.62
193.122	88.58
193.341	85.39
193.559	83.13
193.778	82.5
193.996	84.62
194.215	82.65
194.433	83.82
194.652	81.82
194.87	79.7
195.089	83.21
195.307	79.41
195.526	82.16
195.744	82.92
195.963	85.02
196.181	86.01
196.399	82.86
196.618	84.7
196.836	86.63
197.055	83.3
197.273	86.11
197.491	84.13
197.71	89.39
197.928	85.85
198.146	84.65
198.365	83.29
198.583	84.31
198.801	83.75
199.019	82.29
199.238	78.9
199.456	88.39
199.674	84.47
199.892	85.66
200.111	82.21
200.329	83.31
200.547	81.41
200.765	82.57
200.983	85.09
201.202	83.82
201.42	87.09
201.638	89.43
201.856	84.03
202.074	91.75
202.292	85.74
202.51	84.75
202.728	84.08
202.946	84.38
203.165	82.88
203.383	83.73
203.601	84.16
203.819	79.46
204.037	76.8
204.255	75.93
204.473	72.91
204.691	76.55
204.909	78.33
205.127	80.39
205.345	82.13
205.562	74.27
205.78	74.05
205.998	72.05
206.216	75.28
206.434	74.56
206.652	78.09
206.87	76.39
207.088	74.14
207.306	72.61
207.523	70.08
207.741	70.79
207.959	76.56
208.177	72.24
208.395	74.29
208.612	74.35
208.83	73.52
209.048	69.19
209.266	71.89
209.483	72.75
209.701	73.9
209.919	72.18
210.136	73.74
210.354	71.99
210.572	73.63
210.79	76.86
211.007	75.74
211.225	80.05
211.442	78.86
211.66	77.61
211.878	80.09
212.095	80.38
212.313	81.9
212.53	77.48
212.748	78.8
212.966	79.54
213.183	77.74
213.401	76.5
213.618	72.43
213.836	75.87
214.053	75.24
214.271	74.59
214.488	73.65
214.705	72.56
214.923	74.92
215.14	73.01
215.358	70.12
215.575	69.25
215.793	70.06
216.01	73.4
216.227	70.92
216.445	68.55
216.662	69.49
216.879	70.18
217.097	69.8
217.314	66.03
217.531	66.15
217.749	66.77
217.966	66.33
218.183	70.22
218.4	66.5
218.618	68.78
218.835	66.79
219.052	63.53
219.269	64.56
219.487	67.5
219.704	73.82
219.921	75.35
220.138	77.05
220.355	73.82
220.572	68.05
220.79	68.8
221.007	68.22
221.224	67.12
221.441	66.07
221.658	67.7
221.875	65.03
222.092	60.2
222.309	59.42
222.526	54.74
222.743	55.55
222.96	54.69
223.177	56.58
223.394	52.5
223.611	53.03
223.828	52.42
224.045	47.44
224.262	45.17
224.479	44.33
224.696	43.52
224.913	43.82
225.13	43.1
225.347	40.89
225.564	38.31
225.781	38.91
225.997	38.6
226.214	36.82
226.431	33.51
226.648	31.85
226.865	29.65
227.082	27.17
227.298	25.47
227.515	22.61
227.732	20.91
227.949	19.43
228.165	17.41
228.382	16.29
228.599	16.38
228.816	16.04
229.032	14.96
229.249	14.57
229.466	13.89
229.682	13.7
229.899	14.32
230.116	14.48
230.332	14.68
230.549	15.54
230.765	16.42
230.982	16.19
231.199	16.71
231.415	18.64
231.632	18.65
231.848	19.76
232.065	20.83
232.281	20.57
232.498	21.15
232.714	21.56
232.931	21.53
233.147	20.72
233.364	20.38
233.58	21.49
233.797	21.78
234.013	22.83
234.23	23.41
234.446	22.71
234.662	23.03
234.879	23.26
235.095	22.76
235.312	22.67
235.528	23.94
235.744	23.56
235.961	22.79
236.177	22.7
236.393	22.83
236.61	22.55
236.826	22.6
237.042	22.3
237.258	22.36
237.475	23.35
237.691	23.09
237.907	21.78
238.123	22.82
238.339	23.79
238.556	24.41
238.772	23.75
238.988	23.58
239.204	22.82
239.42	22.87
239.636	23.08
239.853	21.82
240.069	21.43
240.285	20.83
240.501	19.13
240.717	17.93
240.933	16.31
241.149	15.49
241.365	14.23
241.581	13.88
241.797	13.36
242.013	12.35
242.229	12.08
242.445	11.45
242.661	11.35
242.877	11.52
243.093	11.57
243.309	11.53
243.525	12.04
243.741	12.37
243.957	12.71
244.173	13.44
244.388	14.09
244.604	13.9
244.82	14.51
245.036	14.55
245.252	13.9
245.468	13.01
245.683	13.05
245.899	12.05
246.115	11.46
246.331	10.51
246.547	9.72
246.762	8.95
246.978	8.86
247.194	8.52
247.409	8.48
247.625	8.47
247.841	8.22
248.057	7.78
248.272	7.89
248.488	7.94
248.703	8.24
248.919	8.47
249.135	9
249.35	9.61
249.566	9.83
249.782	9.87
249.997	10.26
250.213	10.97
250.428	11.59
250.644	12.09
250.859	12.3
251.075	12.3
251.29	12.32
251.506	11.9
251.721	11.1
251.937	11.1
252.152	10.73
252.368	10.55
252.583	10.32
252.798	10.5
253.014	11.09
253.229	10.65
253.445	11.2
253.66	11.16
253.875	11.77
254.091	12.68
254.306	12.88
254.521	14.2
254.737	15.22
254.952	15.05
255.167	14.69
255.383	13.75
255.598	15.25
255.813	14.71
256.028	14.62
256.244	14.2
256.459	14.51
256.674	14.43
256.889	12.76
257.104	11.99
257.32	12.45
257.535	12.16
257.75	11.28
257.965	10.47
258.18	9.71
258.395	9.34
258.61	8.83
258.826	8
259.041	7.7
259.256	7.52
259.471	6.97
259.686	6.67
259.901	6.26
260.116	6.34
260.331	6.02
260.546	6.19
260.761	6.28
260.976	6.36
261.191	6.14
261.406	6.16
261.621	6.6
261.836	6.79
262.05	7.33
262.265	7.85
262.48	7.99
262.695	8.93
262.91	9.31
263.125	9.22
263.34	9.47
263.555	11.01
263.769	11.11
263.984	10.78
264.199	11.49
264.414	11.22
264.629	11.61
264.843	12.1
265.058	11.46
265.273	11.15
265.488	10.97
265.702	10.77
265.917	10.12
266.132	9.87
266.346	9.93
266.561	9.82
266.776	9.71
266.99	9.15
267.205	8.53
267.42	8.39
267.634	8.15
267.849	8.22
268.063	8.02
268.278	7.82
268.492	8.29
268.707	7.97
268.922	7.44
269.136	7.71
269.351	7.53
269.565	7.91
269.78	7.87
269.994	7.51
270.209	7.49
270.423	7.36
270.637	6.78
270.852	6.53
271.066	6.54
271.281	6.8
271.495	6.39
271.709	6.81
271.924	6.52
272.138	6.73
272.353	7.1
272.567	7.09
272.781	7.36
272.996	7.77
273.21	8.04
273.424	8.08
273.638	8.27
273.853	8.36
274.067	8.33
274.281	8.7
274.495	9.06
274.71	9.46
274.924	9.63
275.138	9.56
275.352	9.1
275.566	9.12
275.781	8.89
275.995	8.86
276.209	9.01
276.423	8.91
276.637	8.83
276.851	8.73
277.065	8.22
277.279	8.02
277.493	8.18
277.707	8.91
277.921	8.58
278.135	8.68
278.349	8.52
278.563	8.59
278.777	8.83
278.991	8.62
279.205	8.44
279.419	8.5
279.633	8.47
279.847	8.16
280.061	8.03
280.275	7.52
280.489	7.86
280.703	8.34
280.917	7.87
281.131	7.56
281.344	7.53
281.558	7.23
281.772	7.36
281.986	7.28
282.2	7.47
282.414	7.51
282.627	7.6
282.841	7.51
283.055	7.28
283.269	7.46
283.482	7.2
283.696	7.04
283.91	7.23
284.123	6.65
284.337	6.51
284.551	6.34
284.764	6.11
284.978	6.18
285.192	6.02
285.405	5.87
285.619	5.63
285.833	5.89
286.046	5.82
286.26	5.81
286.473	6.35
286.687	6.42
286.9	6.69
287.114	6.43
287.327	6.51
287.541	6.57
287.754	6.54
287.968	6.97
288.181	6.93
288.395	7.12
288.608	6.88
288.822	6.51
289.035	6.5
289.248	6.04
289.462	6.16
289.675	6.18
289.889	6.18
290.102	5.97
290.315	5.68
290.529	5.74
290.742	5.77
290.955	5.94
291.169	5.97
291.382	6.11
291.595	6.35
291.808	6.68
292.022	6.87
292.235	7.17
292.448	7.4
292.661	7.68
292.875	7.57
293.088	7.69
293.301	7.41
293.514	7.66
293.727	7.52
293.94	7.45
294.153	7.29
294.367	6.8
294.58	6.43
294.793	6.29
295.006	5.85
295.219	5.52
295.432	5.44
295.645	5.51
295.858	5.15
296.071	4.88
296.284	4.83
296.497	4.53
296.71	4.65
296.923	4.69
297.136	4.74
297.349	4.97
297.562	5.23
297.775	5.06
297.988	5.16
298.201	5.31
298.414	5.61
298.626	5.52
298.839	5.48
299.052	5.58
299.265	5.91
299.478	6.08
299.691	6.25
299.903	6.6
300.116	6.9
300.329	6.78
300.542	6.65
300.755	6.62
300.967	6.93
301.18	7.57
301.393	7.7
301.605	7.38
301.818	7.36
302.031	7.01
302.243	6.74
302.456	6.54
302.669	7.05
302.881	7.09
303.094	7.24
303.307	7.15
303.519	7.01
303.732	7.03
303.944	6.97
304.157	6.95
304.37	6.91
304.582	7.07
304.795	7.24
305.007	6.84
305.22	7.07
305.432	6.95
305.645	7.18
305.857	7.29
306.069	7.22
306.282	7.34
306.494	7.3
306.707	7.58
306.919	7.32
307.132	7.18
307.344	7.23
307.556	7.12
307.769	7.38
307.981	7.15
308.193	6.93
308.406	6.86
308.618	6.79
308.83	6.65
309.043	6.48
309.255	6.41
309.467	6.5
309.679	6.48
309.892	6.58
310.104	6.35
310.316	6.5
310.528	6.44
310.74	6.57
310.953	6.51
311.165	6.75
311.377	7.14
311.589	7.47
311.801	7.37
312.013	7.28
312.225	7.2
312.437	7.19
312.649	7.21
312.862	7.53
313.074	7.54
313.286	7.74
313.498	7.87
313.71	7.4
313.922	7.23
314.134	7.38
314.346	7.57
314.558	7.57
314.77	8.14
314.982	8.27
315.193	8.22
315.405	8.45
315.617	8.7
315.829	8.85
316.041	9.35
316.253	9.07
316.465	9.19
316.677	9.16
316.888	9.19
317.1	8.84
317.312	8.94
317.524	9.43
317.736	9.52
317.947	10.12
318.159	10.19
318.371	10.07
318.583	10.55
318.794	10.73
319.006	10.95
319.218	11.56
319.43	11.7
319.641	11.73
319.853	11.33
320.064	11.45
320.276	10.85
320.488	10.81
320.699	11.03
320.911	11.52
321.123	11.75
321.334	11.74
321.546	11.8
321.757	12.3
321.969	12.51
322.18	12.79
322.392	12.7
322.603	13.22
322.815	12.91
323.026	13.1
323.238	12.83
323.449	12.68
323.661	13.09
323.872	12.85
324.083	12.63
324.295	12.33
324.506	12.23
324.718	12.12
324.929	11.95
325.14	12.57
325.352	12.63
325.563	13.28
325.774	13.69
325.986	14
326.197	14.56
326.408	15.09
326.62	15.73
326.831	16.42
327.042	17.29
327.253	17.96
327.464	18.4
327.676	18.67
327.887	18.96
328.098	19.61
328.309	20.02
328.52	20.39
328.732	20.92
328.943	21.53
329.154	22.17
329.365	22.55
329.576	23.33
329.787	23.87
329.998	24.56
330.209	24.77
330.42	25.15
330.631	25.34
330.842	25.63
331.053	26.12
331.264	26.37
331.475	26.47
331.686	27.1
331.897	27.27
332.108	27.77
332.319	28.13
332.53	28.72
332.741	29.2
332.952	29.87
333.163	30.34
333.374	30.43
333.585	30.91
333.795	31.34
334.006	31.42
334.217	31.45
334.428	31.43
334.639	31.8
334.849	32.08
335.06	31.92
335.271	31.96
335.482	32.54
335.692	32.66
335.903	32.88
336.114	32.83
336.325	32.85
336.535	33.16
336.746	33.54
336.957	33.87
337.167	34.2
337.378	34.8
337.589	35.06
337.799	34.88
338.01	35.29
338.22	35.49
338.431	35.86
338.642	35.97
338.852	36.08
339.063	36.17
339.273	36.18
339.484	35.88
339.694	35.6
339.905	35.87
340.115	36.14
340.326	36.35
340.536	36.17
340.746	36.45
340.957	36.89
341.167	36.87
341.378	36.95
341.588	36.78
341.799	36.83
342.009	36.68
342.219	36.53
342.43	36.42
342.64	36.04
342.85	35.91
343.061	35.57
343.271	35.55
343.481	35.84
343.691	35.35
343.902	35.5
344.112	35.52
344.322	35.7
344.532	35.7
344.743	35.38
344.953	35.31
345.163	35.35
345.373	35.05
345.583	34.55
345.793	34.48
346.004	34.54
346.214	34.47
346.424	34.59
346.634	34.74
346.844	34.68
347.054	35.04
347.264	35.16
347.474	35.03
347.684	35.29
347.894	35.54
348.104	35.31
348.314	35.29
348.524	35.23
348.734	35.04
348.944	35.05
349.154	35.06
349.364	34.88
349.574	35.1
349.784	35.27
349.994	35.33
350.204	35.5
350.413	35.38
350.623	35.59
350.833	35.67
351.043	35.59
351.253	35.44
351.463	35.3
351.672	35.18
351.882	34.98
352.092	34.74
352.302	34.65
352.511	34.42
352.721	34.47
352.931	34.5
353.141	34.28
353.35	34.39
353.56	34.15
353.77	34.2
353.979	34.2
354.189	34.02
354.399	34.08
354.608	34.21
354.818	33.95
355.027	33.98
355.237	33.85
355.447	33.77
355.656	33.46
355.866	33.62
356.075	33.49
356.285	33.71
356.494	33.8
356.704	33.81
356.913	33.76
357.123	33.71
357.332	33.47
357.542	33.36
357.751	33.47
357.96	33.42
358.17	33.11
358.379	32.95
358.589	32.66
358.798	32.46
359.007	32.43
359.217	32.44
359.426	32.31
359.635	32.19
359.845	32.14
360.054	32.01
360.263	32.03
360.472	32.02
360.682	32.01
360.891	31.87
361.1	31.74
361.309	31.54
361.519	31.49
361.728	31.49
361.937	31.63
362.146	31.56
362.355	31.65
362.564	31.87
362.774	31.96
362.983	31.89
363.192	31.96
363.401	32.12
363.61	32.29
363.819	32.27
364.028	32.44
364.237	32.3
364.446	32.41
364.655	32.34
364.864	32.13
365.073	31.99
365.282	32.18
365.491	32.28
365.7	32.06
365.909	31.98
366.118	31.93
366.327	31.96
366.536	32.27
366.745	31.97
366.954	32.03
367.162	32.01
367.371	32.12
367.58	32.2
367.789	32.15
367.998	32.25
368.207	32.4
368.415	32.35
368.624	32.44
368.833	32.11
369.042	32.27
369.25	32.1
369.459	32.31
369.668	32.41
369.877	32.16
370.085	32.09
370.294	32.12
370.503	32.05
370.711	31.88
370.92	31.71
371.129	31.73
371.337	31.44
371.546	31.52
371.754	31.36
371.963	31.36
372.171	31.47
372.38	31.79
372.589	31.78
372.797	31.64
373.006	31.87
373.214	32.02
373.423	31.9
373.631	32.12
373.84	31.92
374.048	31.75
374.256	31.43
374.465	31.46
374.673	31.16
374.882	31.28
375.09	31.46
375.298	31.27
375.507	31.05
375.715	31.03
375.923	31.03
376.132	30.93
376.34	31.08
376.548	31.19
376.757	31.1
376.965	31.08
377.173	30.82
377.381	30.76
377.59	30.96
377.798	31.16
378.006	31.18
378.214	31.12
378.423	31.37
378.631	31.19
378.839	31.18
379.047	31.18
379.255	31.11
379.463	31.27
379.671	31.09
379.879	30.88
380.088	30.54
380.296	30.65
380.504	30.74
380.712	30.58
380.92	30.65
381.128	30.65
381.336	30.71
381.544	30.57
381.752	30.39
381.96	30.32
382.168	30.32
382.376	30.6
382.584	30.52
382.791	30.38
382.999	30.44
383.207	30.5
383.415	30.75
383.623	30.53
383.831	30.6
384.039	30.63
384.247	30.91
384.454	30.89
384.662	30.83
384.87	30.87
385.078	31.14
385.285	31.14
385.493	30.93
385.701	30.51
385.909	30.59
386.116	30.69
386.324	30.68
386.532	30.51
386.739	30.56
386.947	30.47
387.155	30.53
387.362	30.21
387.57	30.13
387.778	30.18
387.985	30.25
388.193	30.11
388.4	30.1
388.608	30.35
388.816	30.23
389.023	30.11
389.231	29.99
389.438	29.91
389.646	30.16
389.853	30.01
390.061	29.97
390.268	30.12
390.475	29.99
390.683	29.85
390.89	29.58
391.098	29.55
391.305	29.44
391.512	29.38
391.72	29.33
391.927	29.2
392.135	29.29
392.342	29.43
392.549	29.28
392.756	29.32
392.964	29.21
393.171	29.27
393.378	29.27
393.586	29.24
393.793	29.28
394	29.21
394.207	29.21
394.414	29.13
394.622	28.88
394.829	28.99
395.036	29.06
395.243	29.21
395.45	29.14
395.657	29.35
395.864	29.34
396.072	29.34
396.279	29.57
396.486	29.46
396.693	29.52
396.9	29.63
397.107	29.71
397.314	29.72
397.521	29.68
397.728	29.73
397.935	29.75
398.142	29.77
398.349	29.91
398.556	29.81
398.763	29.89
398.97	29.65
399.177	29.65
399.383	29.39
399.59	29.57
399.797	29.68
400.004	29.72
400.211	29.71
400.418	29.91
400.625	29.91
400.831	29.89
401.038	29.99
401.245	30.25
401.452	30.24
401.658	30.44
401.865	30.48
402.072	30.49
402.279	30.35
402.485	30.16
402.692	29.93
402.899	29.8
403.105	29.62
403.312	29.56
403.519	29.35
403.725	29.4
403.932	29.17
404.138	28.92
404.345	28.77
404.552	28.78
404.758	28.68
404.965	28.6
405.171	28.76
405.378	28.76
405.584	28.7
405.791	28.9
405.997	28.81
406.204	29.12
406.41	29.14
406.617	29.25
406.823	29.41
407.029	29.55
407.236	29.88
407.442	29.67
407.649	29.88
407.855	29.84
408.061	29.88
408.268	30.06
408.474	29.83
408.68	29.94
408.887	29.93
409.093	29.8
409.299	29.98
409.505	29.84
409.712	29.88
409.918	29.85
410.124	29.85
410.33	29.72
410.537	29.63
410.743	29.62
410.949	29.65
411.155	29.6
411.361	29.54
411.567	29.33
411.773	29.29
411.98	29.3
412.186	29.25
412.392	29.53
412.598	29.56
412.804	29.51
413.01	29.61
413.216	29.61
413.422	29.61
413.628	29.71
413.834	29.76
414.04	29.76
414.246	29.75
414.452	29.63
414.658	29.37
414.864	29.43
415.07	29.47
415.275	29.34
415.481	29.29
415.687	29.26
415.893	29.2
416.099	29.08
416.305	29.1
416.511	28.98
416.716	28.99
416.922	28.85
417.128	28.81
417.334	28.7
417.539	28.7
417.745	28.58
417.951	28.58
418.157	28.62
418.362	28.52
418.568	28.45
418.774	28.38
418.979	28.32
419.185	28.35
419.391	28.28
419.596	28.15
419.802	28.09
420.008	28.09
420.213	27.92
420.419	27.89
420.624	27.95
420.83	27.93
421.035	27.97
421.241	27.96
421.446	27.92
421.652	27.89
421.857	27.93
422.063	27.93
422.268	27.88
422.474	27.87
422.679	27.77
422.885	27.68
423.09	27.65
423.295	27.59
423.501	27.58
423.706	27.57
423.911	27.62
424.117	27.67
424.322	27.67
424.527	27.7
424.733	27.75
424.938	27.81
425.143	27.87
425.349	27.93
425.554	28
425.759	28.11
425.964	28.22
426.169	28.27
426.375	28.34
426.58	28.4
426.785	28.45
426.99	28.54
427.195	28.63
427.4	28.71
427.605	28.83
427.811	28.93
428.016	28.91
428.221	28.89
428.426	28.79
428.631	28.75
428.836	28.78
429.041	28.88
429.246	28.94
429.451	28.86
429.656	28.94
429.861	28.79
430.066	28.73
430.271	28.75
430.476	28.84
430.681	29
430.886	29.07
431.09	29.06
431.295	29.02
431.5	29.06
431.705	29.09
431.91	29.06
432.115	29.23
432.32	29.29
432.524	29.2
432.729	29.19
432.934	29.11
433.139	29.12
433.343	29.22
433.548	29.28
433.753	29.34
433.958	29.37
434.162	29.39
434.367	29.38
434.572	29.38
434.776	29.48
434.981	29.41
435.186	29.5
435.39	29.51
435.595	29.46
435.799	29.42
436.004	29.34
436.209	29.33
436.413	29.31
436.618	29.28
436.822	29.22
437.027	29.19
437.231	29.25
437.436	29.32
437.64	29.29
437.845	29.35
438.049	29.42
438.253	29.33
438.458	29.31
438.662	29.23
438.867	29.27
439.071	29.34
439.275	29.39
439.48	29.34
439.684	29.26
439.888	29.24
440.093	29.07
440.297	28.99
440.501	28.99
440.706	29.08
440.91	29.06
441.114	29
441.318	28.99
441.523	28.98
441.727	29
441.931	29
442.135	29.08
442.339	29.24
442.543	29.35
442.748	29.43
442.952	29.49
443.156	29.53
443.36	29.58
443.564	29.56
443.768	29.63
443.972	29.67
444.176	29.57
444.38	29.51
444.584	29.45
444.788	29.35
444.992	29.33
445.196	29.2
445.4	29.17
445.604	29.17
445.808	29.16
446.012	29.08
446.216	29.04
446.42	29.06
446.624	29.05
446.828	28.93
447.032	28.85
447.235	28.86
447.439	28.87
447.643	28.97
447.847	28.95
448.051	28.99
448.254	28.95
448.458	28.91
448.662	28.96
448.866	28.95
449.069	29.07
449.273	29.19
449.477	29.23
449.681	29.25
449.884	29.25
450.088	29.37
450.292	29.38
450.495	29.43
450.699	29.48
450.902	29.49
451.106	29.5
451.31	29.58
451.513	29.67
451.717	29.69
451.92	29.68
452.124	29.69
452.327	29.6
452.531	29.55
452.734	29.6
452.938	29.68
453.141	29.73
453.345	29.84
453.548	29.82
453.752	29.79
453.955	29.82
454.158	29.8
454.362	29.72
454.565	29.75
454.769	29.82
454.972	29.88
455.175	29.85
455.379	29.86
455.582	29.69
455.785	29.68
455.988	29.64
456.192	29.51
456.395	29.52
456.598	29.61
456.801	29.65
457.005	29.56
457.208	29.5
457.411	29.51
457.614	29.46
457.817	29.48
458.021	29.44
458.224	29.36
458.427	29.36
458.63	29.35
458.833	29.26
459.036	29.13
459.239	29.14
459.442	29.08
459.645	29.03
459.848	29
460.051	28.97
460.254	28.91
460.457	28.95
460.66	29.02
460.863	29.02
461.066	29.07
461.269	29.21
461.472	29.34
461.675	29.38
461.878	29.42
462.081	29.53
462.284	29.67
462.486	29.85
462.689	29.94
462.892	29.94
463.095	30.02
463.298	30.07
463.5	30.03
463.703	29.92
463.906	29.93
464.109	29.98
464.311	29.93
464.514	29.85
464.717	29.82
464.92	29.85
465.122	29.91
465.325	29.92
465.528	29.88
465.73	29.94
465.933	29.93
466.135	30.01
466.338	29.85
466.541	29.85
466.743	29.89
466.946	29.87
467.148	29.87
467.351	29.76
467.553	29.78
467.756	29.83
467.958	29.62
468.161	29.61
468.363	29.56
468.566	29.71
468.768	29.77
468.971	29.86
469.173	29.94
469.375	29.83
469.578	29.86
469.78	29.81
469.983	29.86
470.185	29.94
470.387	30.02
470.59	30.02
470.792	30.03
470.994	29.99
471.196	29.95
471.399	29.94
471.601	29.99
471.803	30.01
472.005	30.02
472.208	29.98
472.41	30.03
472.612	30
472.814	30.13
473.016	30.01
473.218	30.06
473.421	30.01
473.623	29.98
473.825	30
474.027	30.03
474.229	30.07
474.431	30
474.633	30.01
474.835	30.06
475.037	30.03
475.239	30.07
475.441	29.96
475.643	30.01
475.845	29.92
476.047	29.88
476.249	29.87
476.451	29.83
476.653	29.9
476.855	29.81
477.057	29.64
477.258	29.55
477.46	29.6
477.662	29.61
477.864	29.59
478.066	29.72
478.268	29.69
478.469	29.66
478.671	29.63
478.873	29.66
479.075	29.69
479.276	29.72
479.478	29.73
479.68	29.67
479.882	29.75
480.083	29.74
480.285	29.63
480.487	29.66
480.688	29.64
480.89	29.67
481.091	29.61
481.293	29.51
481.495	29.47
481.696	29.39
481.898	29.26
482.099	29.16
482.301	29.06
482.502	28.99
482.704	28.87
482.905	28.8
483.107	28.74
483.308	28.66
483.51	28.62
483.711	28.61
483.913	28.59
484.114	28.62
484.315	28.61
484.517	28.61
484.718	28.58
484.92	28.61
485.121	28.6
485.322	28.58
485.524	28.6
485.725	28.63
485.926	28.66
486.127	28.67
486.329	28.67
486.53	28.68
486.731	28.67
486.932	28.66
487.134	28.68
487.335	28.69
487.536	28.73
487.737	28.72
487.938	28.76
488.139	28.77
488.341	28.79
488.542	28.81
488.743	28.79
488.944	28.8
489.145	28.89
489.346	28.91
489.547	29.03
489.748	29.06
489.949	29.05
490.15	29.02
490.351	28.99
490.552	29.02
490.753	29.01
490.954	29.04
491.155	29.07
491.356	29.02
491.557	29.03
491.758	28.95
491.959	28.97
492.159	29
492.36	29.03
492.561	29.07
492.762	29.08
492.963	29.16
493.164	29.19
493.364	29.29
493.565	29.37
493.766	29.38
493.967	29.46
494.167	29.5
494.368	29.63
494.569	29.7
494.769	29.7
494.97	29.76
495.171	29.77
495.371	29.81
495.572	29.78
495.773	29.79
495.973	29.82
496.174	29.92
496.375	29.89
496.575	29.92
496.776	29.97
496.976	30.02
497.177	29.95
497.377	29.81
497.578	29.83
497.778	29.82
497.979	29.84
498.179	29.88
498.38	29.91
498.58	29.99
498.78	29.99
498.981	30.02
499.181	30.05
499.382	30.21
499.582	30.4
499.782	30.5
499.983	30.6
500.183	30.77
500.383	30.78
500.584	30.73
500.784	30.67
500.984	30.65
501.184	30.63
501.385	30.72
501.585	30.58
501.785	30.58
501.985	30.64
502.185	30.62
502.386	30.56
502.586	30.66
502.786	30.75
502.986	30.74
503.186	30.83
503.386	30.83
503.586	30.8
503.786	30.91
503.987	30.87
504.187	30.68
504.387	30.79
504.587	30.75
504.787	30.72
504.987	30.68
505.187	30.75
505.387	30.72
505.587	30.79
505.786	30.77
505.986	30.82
506.186	30.94
506.386	31.05
506.586	31.08
506.786	31.13
506.986	31.2
507.186	31.16
507.386	31.2
507.585	31.28
507.785	31.23
507.985	31.24
508.185	31.21
508.384	31.19
508.584	31.18
508.784	31.14
508.984	31.16
509.183	31.13
509.383	31.19
509.583	31.24
509.782	31.17
509.982	31.23
510.182	31.32
510.381	31.4
510.581	31.48
510.781	31.57
510.98	31.55
511.18	31.55
511.379	31.65
511.579	31.73
511.778	31.79
511.978	31.93
512.177	31.98
512.377	32.02
512.576	31.98
512.776	31.95
512.975	31.98
513.175	32.09
513.374	32.2
513.573	32.22
513.773	32.22
513.972	32.23
514.172	32.24
514.371	32.35
514.57	32.45
514.77	32.62
514.969	32.67
515.168	32.7
515.367	32.73
515.567	32.73
515.766	32.77
515.965	32.85
516.164	32.89
516.364	32.86
516.563	32.74
516.762	32.71
516.961	32.68
517.16	32.7
517.359	32.8
517.559	32.81
517.758	32.8
517.957	32.8
518.156	32.78
518.355	32.73
518.554	32.7
518.753	32.76
518.952	32.74
519.151	32.71
519.35	32.84
519.549	32.81
519.748	32.81
519.947	32.82
520.146	32.93
520.345	32.97
520.544	33.14
520.743	33.31
520.942	33.41
521.141	33.44
521.339	33.49
521.538	33.45
521.737	33.56
521.936	33.6
522.135	33.83
522.333	33.83
522.532	33.96
522.731	33.95
522.93	33.96
523.129	34
523.327	34.11
523.526	34.19
523.725	34.21
523.923	34.11
524.122	34.12
524.321	33.97
524.519	33.95
524.718	33.84
524.917	33.79
525.115	33.81
525.314	33.75
525.512	33.78
525.711	33.77
525.909	33.81
526.108	33.82
526.306	33.84
526.505	33.96
526.703	33.97
526.902	33.97
527.1	33.96
527.299	33.9
527.497	33.87
527.696	33.88
527.894	33.88
528.092	33.86
528.291	33.88
528.489	33.9
528.688	33.83
528.886	33.86
529.084	33.91
529.283	33.92
529.481	34.01
529.679	34.11
529.877	34.15
530.076	34.22
530.274	34.27
530.472	34.27
530.67	34.35
530.869	34.47
531.067	34.53
531.265	34.6
531.463	34.66
531.661	34.72
531.859	34.68
532.057	34.72
532.255	34.72
532.454	34.75
532.652	34.8
532.85	34.79
533.048	34.85
533.246	34.83
533.444	34.86
533.642	34.9
533.84	34.82
534.038	34.87
534.236	34.92
534.434	34.98
534.632	35.02
534.83	35.06
535.027	35.11
535.225	35.09
535.423	35.19
535.621	35.24
535.819	35.23
536.017	35.38
536.215	35.46
536.412	35.45
536.61	35.49
536.808	35.52
537.006	35.6
537.203	35.68
537.401	35.76
537.599	35.75
537.797	35.81
537.994	35.97
538.192	36.01
538.39	36.05
538.587	36.15
538.785	36.18
538.983	36.24
539.18	36.24
539.378	36.36
539.575	36.39
539.773	36.44
539.97	36.37
540.168	36.35
540.366	36.38
540.563	36.38
540.761	36.32
540.958	36.42
541.155	36.4
541.353	36.46
541.55	36.35
541.748	36.31
541.945	36.29
542.143	36.35
542.34	36.44
542.537	36.44
542.735	36.42
542.932	36.5
543.129	36.55
543.327	36.65
543.524	36.72
543.721	36.88
543.919	37.05
544.116	37.29
544.313	37.45
544.51	37.61
544.708	37.75
544.905	37.97
545.102	38.12
545.299	38.18
545.496	38.24
545.693	38.28
545.891	38.39
546.088	38.38
546.285	38.35
546.482	38.23
546.679	38.14
546.876	38.11
547.073	38.09
547.27	38.03
547.467	38.01
547.664	37.98
547.861	38
548.058	37.91
548.255	37.87
548.452	37.85
548.649	37.89
548.846	37.94
549.043	37.93
549.24	37.93
549.437	37.92
549.633	37.88
549.83	37.8
550.027	37.81
550.224	37.69
550.421	37.7
550.618	37.61
550.814	37.63
551.011	37.57
551.208	37.53
551.405	37.48
551.601	37.45
551.798	37.31
551.995	37.27
552.191	37.28
552.388	37.28
552.585	37.3
552.781	37.29
552.978	37.32
553.175	37.24
553.371	37.26
553.568	37.22
553.764	37.11
553.961	37.22
554.157	37.21
554.354	37.24
554.55	37.24
554.747	37.12
554.943	37.12
555.14	37.12
555.336	37.23
555.533	37.22
555.729	37.29
555.926	37.41
556.122	37.48
556.318	37.64
556.515	37.56
556.711	37.67
556.907	37.6
557.104	37.65
557.3	37.64
557.496	37.59
557.693	37.58
557.889	37.63
558.085	37.66
558.281	37.68
558.478	37.58
558.674	37.49
558.87	37.55
559.066	37.66
559.262	37.76
559.459	37.64
559.655	37.73
559.851	37.77
560.047	37.67
560.243	37.53
560.439	37.36
560.635	37.37
560.831	37.42
561.027	37.43
561.223	37.4
561.419	37.27
561.615	37.34
561.811	37.3
562.007	37.35
562.203	37.48
562.399	37.65
562.595	37.67
562.791	37.85
562.987	37.82
563.183	37.77
563.379	37.88
563.575	37.93
563.771	37.98
563.966	37.87
564.162	37.76
564.358	37.69
564.554	37.58
564.75	37.57
564.945	37.41
565.141	37.43
565.337	37.43
565.533	37.34
565.728	37.32
565.924	37.47
566.12	37.56
566.315	37.57
566.511	37.56
566.707	37.58
566.902	37.61
567.098	37.71
567.293	37.73
567.489	37.7
567.684	37.72
567.88	37.63
568.076	37.42
568.271	37.48
568.467	37.45
568.662	37.4
568.858	37.49
569.053	37.56
569.248	37.58
569.444	37.64
569.639	37.68
569.835	37.73
570.03	37.88
570.225	37.81
570.421	37.74
570.616	37.74
570.812	37.81
571.007	37.68
571.202	37.66
571.397	37.66
571.593	37.57
571.788	37.49
571.983	37.55
572.178	37.51
572.374	37.64
572.569	37.65
572.764	37.73
572.959	37.68
573.154	37.79
573.35	37.86
573.545	37.83
573.74	37.94
573.935	38.09
574.13	38
574.325	37.94
574.52	37.86
574.715	37.87
574.91	37.89
575.105	37.96
575.3	38.01
575.495	38.04
575.69	38.06
575.885	38.11
576.08	38.16
576.275	38.37
576.47	38.47
576.665	38.64
576.86	38.75
577.055	38.71
577.25	38.81
577.444	38.79
577.639	38.95
577.834	39
578.029	39.1
578.224	39.08
578.418	38.99
578.613	39.26
578.808	39.37
579.003	39.4
579.197	39.54
579.392	39.43
579.587	39.51
579.781	39.55
579.976	39.63
580.171	39.53
580.365	39.56
580.56	39.6
580.755	39.41
580.949	39.33
581.144	39.3
581.338	39.35
581.533	39.58
581.727	39.58
581.922	39.38
582.116	39.42
582.311	39.51
582.505	39.51
582.7	39.5
582.894	39.63
583.089	39.64
583.283	39.62
583.478	39.55
583.672	39.43
583.866	39.4
584.061	39.58
584.255	39.55
584.449	39.63
584.644	39.62
584.838	39.78
585.032	39.7
585.226	39.79
585.421	39.86
585.615	39.95
585.809	40.05
586.003	40.09
586.198	40.05
586.392	39.97
586.586	39.74
586.78	39.84
586.974	39.75
587.168	39.68
587.363	39.69
587.557	39.71
587.751	39.67
587.945	39.51
588.139	39.49
588.333	39.38
588.527	39.43
588.721	39.61
588.915	39.47
589.109	39.32
589.303	39.32
589.497	39.27
589.691	39.18
589.885	39.19
590.079	39.42
590.273	39.37
590.466	39.49
590.66	39.64
590.854	39.63
591.048	39.71
591.242	39.88
591.436	39.94
591.629	39.99
591.823	40.14
592.017	40.17
592.211	39.97
592.404	40.07
592.598	40.07
592.792	40.04
592.986	40.23
593.179	40.19
593.373	40.17
593.567	40.25
593.76	40.08
593.954	39.97
594.147	40.02
594.341	40.17
594.535	40.15
594.728	40.1
594.922	39.87
595.115	39.69
595.309	39.7
595.502	39.66
595.696	39.59
595.889	39.57
596.083	39.5
596.276	39.34
596.47	39.33
596.663	39.35
596.856	39.36
597.05	39.31
597.243	39.38
597.437	39.42
597.63	39.54
597.823	39.66
598.017	39.92
598.21	40.12
598.403	40.29
598.596	40.4
598.79	40.5
598.983	40.66
599.176	40.94
599.369	40.76
599.563	40.76
599.756	40.86
599.949	40.8
600.142	40.8
600.335	40.89
600.528	40.77
600.722	40.71
600.915	40.61
601.108	40.53
601.301	40.41
601.494	40.53
601.687	40.59
601.88	40.43
602.073	40.37
602.266	40.21
602.459	39.94
602.652	39.92
602.845	39.83
603.038	39.82
603.231	39.83
603.424	39.87
603.617	39.9
603.809	39.8
604.002	39.8
604.195	39.72
604.388	39.79
604.581	39.9
604.774	39.99
604.966	40.02
605.159	40.12
605.352	40.03
605.545	40.12
605.737	40.28
605.93	40.36
606.123	40.49
606.316	40.67
606.508	40.77
606.701	40.86
606.894	40.96
607.086	41.09
607.279	41.15
607.471	41.36
607.664	41.36
607.857	41.42
608.049	41.72
608.242	42.02
608.434	42.34
608.627	42.7
608.819	43.2
609.012	43.7
609.204	44.38
609.397	45.15
609.589	45.95
609.782	46.79
609.974	47.67
610.166	48.59
610.359	49.27
610.551	50.11
610.743	50.81
610.936	51.44
611.128	52.03
611.32	52.25
611.513	52.46
611.705	52.62
611.897	52.63
612.09	52.41
612.282	51.85
612.474	51.68
612.666	51.31
612.858	50.89
613.051	50.51
613.243	50.14
613.435	49.86
613.627	49.37
613.819	48.76
614.011	48.51
614.203	48.1
614.395	47.78
614.588	47.2
614.78	46.92
614.972	46.6
615.164	46.24
615.356	45.78
615.548	45.42
615.74	45.1
615.932	44.85
616.124	44.54
616.315	44.42
616.507	44.42
616.699	44.34
616.891	43.95
617.083	43.88
617.275	43.59
617.467	43.48
617.659	43.31
617.85	43.4
618.042	43.15
618.234	42.94
618.426	42.78
618.618	42.64
618.809	42.54
619.001	42.55
619.193	42.41
619.384	42.38
619.576	42.48
619.768	42.87
619.959	42.65
620.151	42.85
620.343	43
620.534	42.99
620.726	43.03
620.917	43.07
621.109	42.98
621.301	42.95
621.492	43.06
621.684	42.92
621.875	42.48
622.067	42.67
622.258	42.83
622.45	42.89
622.641	42.78
622.832	42.81
623.024	42.93
623.215	42.94
623.407	43.03
623.598	43.1
623.789	43.26
623.981	43.47
624.172	43.27
624.363	43.12
624.555	42.84
624.746	42.9
624.937	42.95
625.129	42.79
625.32	42.71
625.511	42.52
625.702	42.37
625.893	42.24
626.085	42.27
626.276	42.3
626.467	42.15
626.658	42.38
626.849	42.38
627.04	42.2
627.231	42.14
627.422	42.36
627.614	42.41
627.805	42.48
627.996	42.49
628.187	42.42
628.378	42.29
628.569	42.47
628.76	42.49
628.951	42.54
629.142	42.71
629.332	42.89
629.523	42.92
629.714	43.13
629.905	43.2
630.096	43.25
630.287	43.32
630.478	43.53
630.669	43.59
630.859	43.44
631.05	43.5
631.241	43.42
631.432	43.16
631.623	43.05
631.813	42.79
632.004	42.46
632.195	42.25
632.385	42.15
632.576	42.12
632.767	41.88
632.957	41.8
633.148	41.61
633.339	41.6
633.529	41.71
633.72	41.66
633.91	41.62
634.101	41.75
634.292	41.82
634.482	41.73
634.673	41.61
634.863	41.68
635.054	41.66
635.244	41.59
635.435	41.7
635.625	41.64
635.815	41.41
636.006	41.45
636.196	41.36
636.387	41.37
636.577	41.46
636.767	41.56
636.958	41.57
637.148	41.73
637.338	41.74
637.529	41.55
637.719	41.65
637.909	41.76
638.099	41.61
638.29	41.74
638.48	41.84
638.67	41.77
638.86	41.64
639.05	41.67
639.241	41.59
639.431	41.56
639.621	41.64
639.811	41.57
640.001	41.66
640.191	41.81
640.381	41.72
640.571	41.87
640.761	41.95
640.951	42
641.141	42.01
641.331	42.08
641.521	42.34
641.711	42.27
641.901	42.36
642.091	42.33
642.281	42.26
642.471	42.3
642.661	41.88
642.851	42.04
643.041	42.03
643.231	42.01
643.42	41.81
643.61	41.68
643.8	41.79
643.99	41.67
644.18	41.76
644.369	41.99
644.559	41.93
644.749	42.13
644.939	41.92
645.128	41.92
645.318	41.97
645.508	42.2
645.697	42.25
645.887	42.18
646.076	42.33
646.266	42.3
646.456	42.33
646.645	42.17
646.835	42.02
647.024	42.03
647.214	42.24
647.403	42.25
647.593	42.04
647.782	42.18
647.972	42.05
648.161	42.07
648.351	42.21
648.54	42.15
648.73	42.39
648.919	42.6
649.108	42.62
649.298	42.68
649.487	42.55
649.677	42.85
649.866	42.62
650.055	42.78
650.244	42.83
650.434	42.71
650.623	42.58
650.812	42.75
651.002	42.6
651.191	42.88
651.38	42.61
651.569	42.88
651.758	42.6
651.947	42.81
652.137	42.9
652.326	42.78
652.515	42.67
652.704	42.67
652.893	42.51
653.082	42.41
653.271	42.13
653.46	42.34
653.649	42.27
653.838	42.44
654.027	42.23
654.216	42.07
654.405	42.13
654.594	42.22
654.783	42.28
654.972	42.33
655.161	42.54
655.35	42.47
655.539	42.23
655.728	42.1
655.916	41.9
656.105	41.87
656.294	41.93
656.483	41.72
656.672	41.53
656.86	41.43
657.049	41.42
657.238	41.27
657.427	41.33
657.615	41.37
657.804	41.28
657.993	41.23
658.181	41.3
658.37	41.26
658.559	41.41
658.747	41.52
658.936	41.68
659.125	41.77
659.313	41.94
659.502	41.93
659.69	42
659.879	41.96
660.067	42.16
660.256	42.12
660.444	42.19
660.633	42.21
660.821	42.29
661.01	42.36
661.198	42.18
661.387	42.15
661.575	42.24
661.763	42.24
661.952	42.61
662.14	42.71
662.328	42.81
662.517	42.8
662.705	42.77
662.893	42.87
663.082	42.85
663.27	43.02
663.458	42.92
663.646	43.05
663.834	43
664.023	42.86
664.211	42.89
664.399	43.2
664.587	43.12
664.775	43.19
664.963	43.09
665.152	43.16
665.34	42.98
665.528	43.34
665.716	43.21
665.904	43.35
666.092	43.54
666.28	43.34
666.468	43.03
666.656	43.25
666.844	43.4
667.032	43.59
667.22	43.43
667.408	43.65
667.596	43.54
667.784	43.69
667.971	43.61
668.159	43.39
668.347	43.48
668.535	43.63
668.723	43.41
668.911	43.19
669.098	43.04
669.286	43.29
669.474	43.2
669.662	43.12
669.849	43.13
670.037	43.14
670.225	43.24
670.413	43.27
670.6	43.22
670.788	43.31
670.976	43.24
671.163	43.24
671.351	43.12
671.538	43.1
671.726	43.09
671.913	42.91
672.101	42.84
672.289	42.88
672.476	43.11
672.664	43
672.851	43.07
673.039	43.25
673.226	43.2
673.413	43.17
673.601	43.22
673.788	43.34
673.976	43.29
674.163	43.44
674.35	43.28
674.538	43.01
674.725	43.41
674.912	43.62
675.1	43.85
675.287	43.95
675.474	43.85
675.662	44.12
675.849	44.06
676.036	44.37
676.223	44.2
676.411	44.25
676.598	44.43
676.785	44.27
676.972	44.04
677.159	43.72
677.346	43.7
677.533	43.96
677.721	43.67
677.908	43.55
678.095	43.27
678.282	43.12
678.469	42.85
678.656	42.73
678.843	42.54
679.03	42.52
679.217	42.57
679.404	42.53
679.591	42.4
679.778	42.22
679.964	42.25
680.151	42.13
680.338	42.36
680.525	42.44
680.712	42.38
680.899	42.37
681.086	42.53
681.272	42.56
681.459	42.49
681.646	42.55
681.833	42.8
682.02	42.85
682.206	43.1
682.393	42.96
682.58	42.91
682.766	42.93
682.953	42.95
683.14	42.57
683.326	42.66
683.513	42.95
683.7	42.73
683.886	42.64
684.073	42.5
684.259	42.27
684.446	42.41
684.632	42.65
684.819	42.51
685.005	42.54
685.192	42.78
685.378	42.62
685.565	42.35
685.751	42.34
685.938	42.17
686.124	42.29
686.31	42.71
686.497	42.62
686.683	42.36
686.87	42.53
687.056	42.45
687.242	42.5
687.429	42.5
687.615	42.74
687.801	42.84
687.987	43.15
688.174	43.21
688.36	43
688.546	43.03
688.732	43.2
688.918	43
689.105	43.28
689.291	43.2
689.477	43.28
689.663	43.1
689.849	43.11
690.035	43.2
690.221	43.35
690.407	43.15
690.593	43.15
690.779	43.23
690.965	43.29
691.151	42.98
691.337	43.27
691.523	43.52
691.709	43.61
691.895	43.68
692.081	43.75
692.267	43.77
692.453	44.39
692.639	44.44
692.825	44.53
693.011	44.61
693.196	44.61
693.382	44.21
693.568	44.06
693.754	44.02
693.94	43.97
694.125	43.67
694.311	43.58
694.497	43.09
694.682	43.21
694.868	43.17
695.054	43.32
695.239	43.39
695.425	43.72
695.611	43.56
695.796	43.58
695.982	43.41
696.168	43.56
696.353	43.19
696.539	43.05
696.724	42.75
696.91	42.69
697.095	42.31
697.281	42.13
697.466	41.7
697.652	41.69
697.837	41.44
698.023	41.53
698.208	41.24
698.393	41.18
698.579	41.12
698.764	40.94
698.949	40.91
699.135	41.19
699.32	41.32
699.505	41.26
699.691	41.26
699.876	41.22
700.061	41.17
700.246	41.27
700.432	41.39
700.617	41.39
700.802	41.76
700.987	41.68
701.172	41.39
701.358	41.52
701.543	41.79
701.728	41.92
701.913	42.24
702.098	42.34
702.283	42.44
702.468	42.53
702.653	43.13
702.838	43.33
703.023	43.24
703.208	43.43
703.393	43.61
703.578	43.96
703.763	44.05
703.948	44.23
704.133	44.03
704.318	44.39
704.503	44.91
704.688	44.66
704.873	44.8
705.057	45.26
705.242	45.74
705.427	45.9
705.612	46.07
705.797	46.09
705.981	46.18
706.166	46.81
706.351	46.95
706.536	46.71
706.72	46.78
706.905	47.03
707.09	47.17
707.274	47.02
707.459	46.66
707.644	46.65
707.828	46.77
708.013	46.97
708.197	46.99
708.382	46.73
708.567	47.03
708.751	47
708.936	46.89
709.12	46.73
709.305	46.66
709.489	46.67
709.673	46.79
709.858	46.58
710.042	46.38
710.227	46.5
710.411	46.38
710.596	46.19
710.78	46.19
710.964	46.23
711.149	46.44
711.333	46.43
711.517	46.47
711.702	46.07
711.886	45.81
712.07	45.66
712.254	45.39
712.438	45.49
712.623	45.61
712.807	45.29
712.991	45.4
713.175	44.93
713.359	44.97
713.544	44.81
713.728	44.64
713.912	44.72
714.096	44.39
714.28	43.78
714.464	43.42
714.648	43.02
714.832	43.2
715.016	42.41
715.2	42.33
715.384	42.06
715.568	41.96
715.752	41.95
715.936	41.94
716.12	42.08
716.304	42.46
716.488	42.78
716.671	42.47
716.855	42.61
717.039	42.74
717.223	42.83
717.407	42.77
717.59	42.88
717.774	42.88
717.958	42.78
718.142	42.73
718.325	42.51
718.509	42.27
718.693	42.59
718.877	42.25
719.06	42.34
719.244	42.39
719.428	42.47
719.611	42.51
719.795	42.59
719.978	43
720.162	43.2
720.345	43.3
720.529	43.88
720.713	43.89
720.896	43.56
721.08	43.89
721.263	44.1
721.446	44.71
721.63	44.62
721.813	44.63
721.997	44.53
722.18	44.64
722.364	44.71
722.547	43.9
722.73	43.84
722.914	44.13
723.097	43.73
723.28	43.61
723.464	42.88
723.647	43.14
723.83	43.16
724.013	43.29
724.197	42.92
724.38	42.7
724.563	43
724.746	42.85
724.929	42.89
725.112	42.81
725.296	42.74
725.479	43.35
725.662	43.08
725.845	43.2
726.028	42.73
726.211	42.9
726.394	42.79
726.577	42.61
726.76	42.85
726.943	42.53
727.126	42.26
727.309	42.26
727.492	41.88
727.675	41.86
727.858	41.45
728.041	41.62
728.224	41.56
728.407	41.82
728.589	41.63
728.772	41.37
728.955	41.5
729.138	41.91
729.321	41.82
729.503	41.65
729.686	41.55
729.869	41.59
730.052	41.66
730.234	41.8
730.417	42.08
730.6	42.1
730.782	42.26
730.965	42.34
731.148	42.11
731.33	42.04
731.513	42.17
731.695	42.37
731.878	42.73
732.061	42.7
732.243	42.52
732.426	41.79
732.608	42.21
732.791	41.99
732.973	42.1
733.156	42.11
733.338	42.1
733.52	42.16
733.703	41.88
733.885	41.63
734.068	41.54
734.25	41.85
734.432	42.39
734.615	42.67
734.797	42.52
734.979	42.59
735.162	42.75
735.344	42.3
735.526	42.74
735.708	43.1
735.891	43.14
736.073	43.08
736.255	43.55
736.437	43.42
736.619	43.01
736.802	43.19
736.984	42.8
737.166	43.11
737.348	43.3
737.53	42.77
737.712	42.61
737.894	42.78
738.076	43
738.258	42.14
738.44	42.49
738.622	42.83
738.804	42.78
738.986	43.34
739.168	43.3
739.35	44.02
739.532	44.18
739.714	44.51
739.896	44.35
740.078	44.36
740.259	44.77
740.441	44.41
740.623	44.03
740.805	44.58
740.987	44.22
741.168	43.99
741.35	43.44
741.532	43.47
741.714	43.14
741.895	43.47
742.077	43.56
742.259	44.05
742.44	44.07
742.622	44.01
742.804	44.44
742.985	44.64
743.167	44.39
743.348	44.45
743.53	44.5
743.711	44.61
743.893	44.43
744.075	44.5
744.256	43.79
744.438	44.16
744.619	45.01
744.8	44.94
744.982	45.81
745.163	46.42
745.345	46.92
745.526	46.9
745.707	46.96
745.889	47.49
746.07	47.09
746.252	47.03
746.433	46.83
746.614	46.58
746.795	45.25
746.977	44.45
747.158	44.47
747.339	44.66
747.52	45.12
747.702	45.38
747.883	44.74
748.064	45.06
748.245	45.49
748.426	45.18
748.607	44.89
748.788	45.78
748.97	46
749.151	46.01
749.332	45.58
749.513	45.3
749.694	45.57
749.875	45.91
750.056	45.83
750.237	45.87
750.418	46.53
750.599	46.52
750.78	46.61
750.96	46.58
751.141	46.73
751.322	46.89
751.503	46.49
751.684	46.17
751.865	46.28
752.046	45.97
752.226	45.35
752.407	45.75
752.588	45.97
752.769	46.13
752.949	45.99
753.13	45.75
753.311	45.73
753.492	46.01
753.672	45.99
753.853	45.58
754.034	46.49
754.214	46.74
754.395	45.73
754.575	45.23
754.756	45.12
754.937	44.91
755.117	44.87
755.298	44.8
755.478	44.78
755.659	44.72
755.839	45.42
756.02	45.41
756.2	44.87
756.381	44.43
756.561	44.6
756.741	44.4
756.922	45.22
757.102	45.35
757.283	44.92
757.463	44.97
757.643	45.22
757.823	44.22
758.004	43.82
758.184	44.32
758.364	45.09
758.545	45.03
758.725	44.74
758.905	43.85
759.085	43.42
759.265	43.94
759.446	43.56
759.626	42.8
759.806	43.23
759.986	42.76
760.166	42.49
760.346	42.21
760.526	41.91
760.706	41.98
760.886	41.78
761.066	41.97
761.246	41.58
761.426	41.64
761.606	41.63
761.786	41.3
761.966	41.5
762.146	41.25
762.326	41.03
762.506	41.03
762.686	41.22
762.866	41.19
763.046	40.72
763.225	40.59
763.405	40.54
763.585	40.38
763.765	40.36
763.945	40.16
764.124	40.02
764.304	40.19
764.484	40.66
764.664	40.46
764.843	40.64
765.023	41.07
765.203	41.18
765.382	41.36
765.562	41.71
765.741	42.1
765.921	42.39
766.101	42.86
766.28	42.89
766.46	42.13
766.639	42.53
766.819	43.26
766.998	43.08
767.178	43.47
767.357	43.95
767.537	44.21
767.716	44.6
767.896	44.78
768.075	44.67
768.254	44.11
768.434	44.57
768.613	44.84
768.792	44.39
768.972	44.94
769.151	44.63
769.33	43.63
769.51	43.22
769.689	42.55
769.868	42.29
770.047	42.91
770.226	43.48
770.406	43.13
770.585	42.66
770.764	43.09
770.943	43
771.122	43.42
771.301	44.42
771.48	44.67
771.66	44.87
771.839	45.14
772.018	45.5
772.197	45.6
772.376	46.56
772.555	47.21
772.734	46.26
772.913	45.9
773.092	46.11
773.271	45.26
773.449	46.3
773.628	46.78
773.807	47.05
773.986	46.48
774.165	47.27
774.344	46.74
774.523	46.76
774.701	47.4
774.88	48.17
775.059	48.64
775.238	48.54
775.417	48.01
775.595	48.04
775.774	48.1
775.953	48.46
776.131	48.32
776.31	48.95
776.489	49.25
776.667	49.36
776.846	48.44
777.025	47.58
777.203	48.05
777.382	47.69
777.56	47.15
777.739	46.44
777.917	46.15
778.096	45.72
778.274	46.2
778.453	44.81
778.631	44.72
778.81	44.39
778.988	43.85
779.166	43.93
779.345	44.06
779.523	44.48
779.702	45.07
779.88	45.11
780.058	44.99
780.237	44.07
780.415	45.14
780.593	45.18
780.771	46.55
780.95	46.38
781.128	46.1
781.306	46.37
781.484	46.17
781.662	46.54
781.841	46.11
782.019	46.36
782.197	46.43
782.375	45.88
782.553	46
782.731	46.08
782.909	47.26
783.087	47.52
783.265	47.02
783.443	46.75
783.621	45.46
783.799	46.08
783.977	46.62
784.155	46.83
784.333	47.45
784.511	47.86
784.689	47.31
784.867	47.79
785.045	47.75
785.223	47.67
785.4	48.45
785.578	50.09
785.756	49.36
785.934	48.29
786.112	48.21
786.289	48.02
786.467	47.46
786.645	47.38
786.823	46.71
787	46.3
787.178	46.54
787.356	45.74
787.533	45.21
787.711	45.65
787.889	45.71
788.066	45.33
788.244	44.23
788.421	43.85
788.599	43.89
788.776	43.63
788.954	44.22
789.131	43.94
789.309	44.25
789.486	44.04
789.664	44.27
789.841	44.39
790.019	45.36
790.196	46.55
790.373	46.2
790.551	45.69
790.728	45.8
790.906	45.54
791.083	46.09
791.26	46.05
791.437	46.01
791.615	46.01
791.792	46.55
791.969	45.61
792.146	45.46
792.324	45.89
792.501	46.07
792.678	46.81
792.855	47.39
793.032	46.53
793.209	46.66
793.387	46.57
793.564	46.52
793.741	46.65
793.918	46.21
794.095	45.72
794.272	45.65
794.449	45.48
794.626	44.56
794.803	43.94
794.98	44.27
795.157	44.04
795.334	44.36
795.511	44.2
795.688	42.82
795.864	42.8
796.041	42.97
796.218	43.7
796.395	43.62
796.572	43.97
796.749	44.15
796.925	44.09
797.102	44.1
797.279	43.96
797.456	43.66
797.632	44.6
797.809	45.17
797.986	45.12
798.162	44.66
798.339	44.27
798.516	44.34
798.692	45.1
798.869	45.72
799.046	46.08
799.222	46.22
799.399	46.38
799.575	46.74
799.752	46.59
799.928	45.93
800.105	45.93
800.281	46.85
800.458	47.48
800.634	47.04
800.811	46.88
800.987	47.17
801.163	46.67
801.34	47.1
801.516	46.59
801.692	46.71
801.869	47.22
802.045	48.13
802.221	47.7
802.398	48.02
802.574	47.18
802.75	47.21
802.926	46.97
803.103	47.67
803.279	47
803.455	47.21
803.631	47.86
803.807	47.74
803.983	47.11
804.16	47.63
804.336	46.19
804.512	46.58
804.688	46.58
804.864	46.68
805.04	46.3
805.216	46.39
805.392	46.94
805.568	45.9
805.744	46.8
805.92	46.06
806.096	45.94
806.272	46.8
806.448	46.6
806.623	46.6
806.799	45.77
806.975	44.97
807.151	45.09
807.327	44.39
807.503	45.16
807.678	44.52
807.854	45.67
808.03	46.19
808.206	45.81
808.381	46.38
808.557	46.26
808.733	46.14
808.908	46.47
809.084	47.13
809.26	47.51
809.435	47.55
809.611	48.13
809.787	47.03
809.962	46.17
810.138	47.01
810.313	47.25
810.489	46.63
810.664	47.1
810.84	47.42
811.015	47.34
811.191	48.27
811.366	48.05
811.542	48.7
811.717	48.81
811.892	50
812.068	49.24
812.243	49.11
812.419	48.95
812.594	48.5
812.769	48.38
812.944	47.9
813.12	46.26
813.295	46.58
813.47	45.1
813.645	44.69
813.821	44.04
813.996	43.65
814.171	43.48
814.346	44.31
814.521	45.13
814.697	45.32
814.872	45.14
815.047	46.05
815.222	44.78
815.397	43.93
815.572	45.16
815.747	45.82
815.922	45.55
816.097	46.6
816.272	45.84
816.447	45.99
816.622	45.97
816.797	45.45
816.972	44.36
817.147	45.59
817.322	46.43
817.496	47.01
817.671	46.96
817.846	47.13
818.021	45.6
818.196	45.62
818.371	45.26
818.545	44.88
818.72	45.93
818.895	46.85
819.069	45.57
819.244	45.64
819.419	43.89
819.594	42.66
819.768	41.93
819.943	41.63
820.117	41.72
820.292	40.46
820.467	39.22
820.641	38.36
820.816	37.05
820.99	36.6
821.165	35.4
821.339	34.83
821.514	34.46
821.688	34.28
821.863	33.79
822.037	33.19
822.212	32.79
822.386	32.64
822.56	32.34
822.735	32.47
822.909	32.48
823.084	32.59
823.258	32.54
823.432	32.29
823.606	32.23
823.781	32.41
823.955	32.53
824.129	32.85
824.303	33.28
824.478	33.61
824.652	33.76
824.826	33.83
825	34.15
825.174	34.95
825.348	35.63
825.523	35.65
825.697	36.11
825.871	36.52
826.045	36.57
826.219	36.58
826.393	36.3
826.567	36.01
826.741	36.06
826.915	36.05
827.089	35.63
827.263	35.55
827.437	35.74
827.611	35.74
827.784	35.76
827.958	36.31
828.132	36.05
828.306	36.71
828.48	37.03
828.654	37.44
828.827	37.97
829.001	38.43
829.175	39.33
829.349	40.21
829.522	40.58
829.696	40.81
829.87	41.05
830.044	42.45
830.217	42.04
830.391	42.13
830.565	41.95
830.738	41.7
830.912	41.51
831.085	41.44
831.259	42.09
831.432	41.34
831.606	42.11
831.779	41.87
831.953	41.14
832.126	41.18
832.3	40.79
832.473	40.97
832.647	40.97
832.82	41.4
832.994	39.92
833.167	39.23
833.34	39.4
833.514	38.71
833.687	38.25
833.86	37.56
834.034	37.41
834.207	37.46
834.38	37.22
834.553	37.53
834.727	36.76
834.9	36.94
835.073	36.73
835.246	37.03
835.419	37.79
835.593	38.12
835.766	38.91
835.939	40.01
836.112	40.21
836.285	40.97
836.458	40.97
836.631	42.13
836.804	43.22
836.977	44.41
837.15	45.13
837.323	44.87
837.496	46.71
837.669	46.88
837.842	46.48
838.015	47.14
838.188	47.62
838.361	47.7
838.533	46.91
838.706	47.49
838.879	46.95
839.052	45.46
839.225	45.85
839.398	44.17
839.57	45.05
839.743	44.46
839.916	44.49
840.088	44.75
840.261	46.13
840.434	47.48
840.607	46.46
840.779	46.12
840.952	47.13
841.124	47.7
841.297	47.55
841.47	47.93
841.642	49.27
841.815	50.14
841.987	51.54
842.16	51.25
842.332	51.12
842.505	52.62
842.677	53.39
842.85	52.78
843.022	52.43
843.194	53.91
843.367	53.41
843.539	52.7
843.712	52.89
843.884	52.26
844.056	51.07
844.229	50.88
844.401	52.15
844.573	52.56
844.745	53.27
844.918	54.65
845.09	54.94
845.262	55.1
845.434	57.4
845.606	60.33
845.779	59.64
845.951	60.79
846.123	61.19
846.295	58.99
846.467	58
846.639	59.6
846.811	58.66
846.983	58.37
847.155	58.67
847.327	57.44
847.499	54.02
847.671	55.26
847.843	56.03
848.015	56.57
848.187	58.68
848.359	59.65
848.531	58.92
848.703	58.89
848.875	61.05
849.047	61.65
849.218	61.89
849.39	61.2
849.562	58.56
849.734	56.01
849.905	54.6
850.077	54.1
850.249	56.32
850.421	54.39
850.592	55.03
850.764	52.75
850.936	52.5
851.107	52.61
851.279	54.5
851.451	55.14
851.622	55.66
851.794	56.96
851.965	56.6
852.137	54.89
852.308	56.86
852.48	57.72
852.651	57.86
852.823	56.39
852.994	53.85
853.166	52.02
853.337	52.23
853.509	50.46
853.68	49.46
853.851	48.56
854.023	48.88
854.194	48.93
854.365	45.91
854.537	46.91
854.708	48.92
854.879	52.33
855.05	55.46
855.222	55.3
855.393	57.9
855.564	60.91
855.735	60.64
855.906	61.24
856.078	60.7
856.249	61.75
856.42	61.65
856.591	62.34
856.762	59.81
856.933	59.85
857.104	60.33
857.275	60.04
857.446	57.67
857.617	60.28
857.788	60.33
857.959	61.69
858.13	60.23
858.301	62.01
858.472	60.46
858.643	61.58
858.814	60.26
858.985	60.13
859.155	63.94
859.326	65
859.497	62.69
859.668	60.37
859.839	58.6
860.009	60.28
860.18	58.12
860.351	57.73
860.522	55.87
860.692	55.73
860.863	54.84
861.034	52.47
861.204	53.29
861.375	55.58
861.546	58.85
861.716	60.78
861.887	61.93
862.057	60.76
862.228	63.45
862.398	64.18
862.569	63.6
862.739	63.36
862.91	62.08
863.08	60.38
863.251	60.67
863.421	57.43
863.592	55.08
863.762	53.09
863.932	55.09
864.103	52.19
864.273	52.3
864.443	52.01
864.614	51.71
864.784	52.3
864.954	52.39
865.125	51.97
865.295	53.91
865.465	53.86
865.635	55.25
865.805	56.42
865.976	56.42
866.146	57.67
866.316	58.31
866.486	60.26
866.656	60.2
866.826	59.35
866.996	58.78
867.166	58.41
867.336	61.11
867.506	61.1
867.676	60.51
867.846	62.54
868.016	60.4
868.186	60.23
868.356	60.06
868.526	59.53
868.696	59.57
868.866	60.56
869.036	58.75
869.206	56.37
869.376	55.69
869.545	54.15
869.715	54.47
869.885	56.31
870.055	57.09
870.224	54.7
870.394	55.98
870.564	56.2
870.734	56.2
870.903	56.88
871.073	57.38
871.243	57.86
871.412	58.4
871.582	58.27
871.751	59.26
871.921	57.52
872.091	60.63
872.26	58.78
872.43	59.5
872.599	58.88
872.769	60.38
872.938	61.31
873.108	62.01
873.277	61.64
873.446	60.1
873.616	60.6
873.785	63.42
873.955	61.66
874.124	62.51
874.293	60.21
874.463	59.78
874.632	58.7
874.801	56.45
874.971	55.65
875.14	54.91
875.309	57.13
875.478	55.55
875.647	53.34
875.817	53.7
875.986	55.35
876.155	59.06
876.324	59.78
876.493	60.46
876.662	62.78
876.831	62.34
877	63.94
877.17	62.95
877.339	61.12
877.508	61.57
877.677	62.52
877.846	60.53
878.015	59.64
878.184	57.92
878.352	58.19
878.521	56.3
878.69	55.91
878.859	53.93
879.028	51.34
879.197	51.88
879.366	50.37
879.534	48.63
879.703	46.78
879.872	45.52
880.041	45.14
880.21	43.14
880.378	42.4
880.547	41.39
880.716	40.51
880.884	38.91
881.053	37.73
881.222	37
881.39	36.38
881.559	35.4
881.727	33.8
881.896	33.49
882.065	33.68
882.233	33.31
882.402	32.55
882.57	32.48
882.739	33.63
882.907	33.18
883.076	33.65
883.244	33.23
883.412	33.43
883.581	33.85
883.749	34.18
883.918	33.73
884.086	34.48
884.254	35.11
884.423	34.72
884.591	34.29
884.759	35.54
884.927	35.19
885.096	35.91
885.264	36.93
885.432	38.74
885.6	38.05
885.769	40.53
885.937	41.31
886.105	43.55
886.273	45.26
886.441	46.96
886.609	47.52
886.777	48.36
886.945	48.56
887.113	49.2
887.281	48.73
887.449	50.61
887.617	49.49
887.785	48.64
887.953	48.57
888.121	50.64
888.289	48.78
888.457	50.77
888.625	51.87
888.793	52.67
888.961	52.75
889.129	54.9
889.296	55.74
889.464	55.45
889.632	56.56
889.8	56.22
889.967	56.07
890.135	58.85
