Data from 2938831__Reflection_03.txt Node
Date: Thu Mar 12 12:22:14 EDT 2015
User: robert
Spectrometer: USB4E03002
Autoset integration time: false
Trigger mode: 4
Integration Time (sec): 1.000000E-1
Scans to average: 10
Electric dark correction enabled: false
Nonlinearity correction enabled: false
Boxcar width: 5
Stray light correction enabled: false
XAxis mode: Wavelengths
Stop averaging: false
Number of Pixels in Spectrum: 3648
>>>>>Begin Spectral Data<<<<<
177.575	46.35
177.794	40.15
178.014	45.21
178.233	61.76
178.452	65.81
178.672	53.9
178.891	89.16
179.11	126.49
179.33	287.74
179.549	189.37
179.768	157.46
179.987	117.79
180.207	81.98
180.426	98.06
180.645	82.03
180.864	257.14
181.084	117.91
181.303	10.63
181.522	29.1
181.741	-21.26
181.96	-20.45
182.179	-36.68
182.398	-33.54
182.618	43.72
182.837	-55
183.056	31.23
183.275	49.27
183.494	79.69
183.713	117.67
183.932	85.71
184.151	92.68
184.37	99.81
184.589	104.26
184.808	83.33
185.027	94.46
185.246	94
185.465	97.87
185.684	98.81
185.903	57.16
186.122	46.4
186.341	40.11
186.56	3.85
186.779	31.52
186.998	21.3
187.216	35.2
187.435	27.4
187.654	19.58
187.873	-22.68
188.092	-10.26
188.311	73.73
188.53	78.62
188.748	103.58
188.967	101.24
189.186	53.11
189.405	53.23
189.623	57.77
189.842	55.41
190.061	61.06
190.28	35.45
190.498	32.45
190.717	13.6
190.936	31.32
191.154	8.8
191.373	33.24
191.592	35.02
191.81	65.74
192.029	75.66
192.248	194.85
192.466	166.38
192.685	272.73
192.904	266.83
193.122	160.78
193.341	91.18
193.559	68.32
193.778	44.88
193.996	57.8
194.215	36.9
194.433	33.51
194.652	36.32
194.87	34.65
195.089	31.2
195.307	33.14
195.526	41.69
195.744	60.96
195.963	101.07
196.181	160.24
196.399	270.22
196.618	327.54
196.836	-581.82
197.055	440.26
197.273	180.73
197.491	288.89
197.71	196.03
197.928	110
198.146	54.29
198.365	-15.38
198.583	-12.75
198.801	8.31
199.019	9.94
199.238	6.17
199.456	-16.36
199.674	13.38
199.892	43.8
200.111	39.33
200.329	45.19
200.547	57.12
200.765	111.17
200.983	106.52
201.202	117.69
201.42	106.93
201.638	112.98
201.856	89.66
202.074	85.24
202.292	78.84
202.51	88.65
202.728	47.65
202.946	36.64
203.165	0.63
203.383	50
203.601	41.89
203.819	27.12
204.037	29.29
204.255	16.26
204.473	33.96
204.691	32.26
204.909	50.18
205.127	49.26
205.345	60.66
205.562	41.61
205.78	11.66
205.998	18.92
206.216	15.07
206.434	4.34
206.652	23.9
206.87	-1.93
207.088	5.83
207.306	22.67
207.523	25.88
207.741	23.08
207.959	37.11
208.177	18.95
208.395	20.11
208.612	45.51
208.83	47.42
209.048	33.9
209.266	49.6
209.483	41.11
209.701	19.94
209.919	2.46
210.136	-14.56
210.354	0.62
210.572	17.53
210.79	1.15
211.007	-20.24
211.225	-3.23
211.442	-8.06
211.66	13.65
211.878	12.57
212.095	101.67
212.313	93.93
212.53	86.1
212.748	84.15
212.966	88.78
213.183	92.14
213.401	84.84
213.618	90.06
213.836	93.06
214.053	74.19
214.271	82.69
214.488	12.79
214.705	10.95
214.923	8.37
215.14	20.61
215.358	19.88
215.575	31.82
215.793	40.14
216.01	20.1
216.227	9.67
216.445	9.89
216.662	-1.36
216.879	3.38
217.097	9.57
217.314	11.4
217.531	5.34
217.749	0.84
217.966	-10.57
218.183	-6.86
218.4	-6.31
218.618	9.56
218.835	19.16
219.052	5.74
219.269	-4.95
219.487	-2.56
219.704	9.82
219.921	-9.16
220.138	19.03
220.355	21
220.572	18.21
220.79	32.28
221.007	21.63
221.224	11.16
221.441	22.03
221.658	30.94
221.875	27.67
222.092	20.77
222.309	25.93
222.526	17.6
222.743	16.51
222.96	20.23
223.177	13.7
223.394	16.81
223.611	18.65
223.828	15.22
224.045	6.34
224.262	0.9
224.479	7.18
224.696	1.1
224.913	4.43
225.13	8.06
225.347	4.86
225.564	7.33
225.781	6.91
225.997	7.8
226.214	7.35
226.431	9.23
226.648	12.81
226.865	11.1
227.082	12.89
227.298	10.1
227.515	8.56
227.732	8.08
227.949	7.86
228.165	7.03
228.382	7.14
228.599	7.95
228.816	7.99
229.032	7.44
229.249	7.82
229.466	7.56
229.682	8.3
229.899	9.36
230.116	10
230.332	10.35
230.549	11.34
230.765	11.95
230.982	11.8
231.199	11.91
231.415	11.21
231.632	10.63
231.848	11.01
232.065	11.03
232.281	9.89
232.498	10.05
232.714	10.42
232.931	8.63
233.147	7.86
233.364	7.35
233.58	7.4
233.797	7.47
234.013	7.56
234.23	8.31
234.446	9.45
234.662	8.94
234.879	7.98
235.095	7.99
235.312	9.86
235.528	10.94
235.744	10.4
235.961	11.23
236.177	11.24
236.393	11.88
236.61	11.49
236.826	11.25
237.042	12.79
237.258	12.6
237.475	11.64
237.691	9.14
237.907	7.27
238.123	7.77
238.339	9.02
238.556	10.16
238.772	9.14
238.988	8.72
239.204	7.61
239.42	5.98
239.636	5.79
239.853	5.31
240.069	6.07
240.285	6.4
240.501	6.08
240.717	6.21
240.933	6.4
241.149	6.34
241.365	6.48
241.581	6.31
241.797	6.8
242.013	6.63
242.229	7
242.445	6.93
242.661	7.18
242.877	7.36
243.093	6.5
243.309	6.46
243.525	6.68
243.741	5.82
243.957	5.76
244.173	5.26
244.388	5.33
244.604	5.23
244.82	5.5
245.036	5.11
245.252	5.47
245.468	5.6
245.683	5.01
245.899	4.91
246.115	5.07
246.331	4.98
246.547	5.33
246.762	5.4
246.978	5.6
247.194	5.65
247.409	5.53
247.625	5.39
247.841	5.39
248.057	5.71
248.272	5.72
248.488	5.93
248.703	5.87
248.919	5.92
249.135	5.84
249.35	5.89
249.566	5.61
249.782	5.55
249.997	5.49
250.213	5.44
250.428	4.86
250.644	4.35
250.859	4.98
251.075	5.5
251.29	5.45
251.506	5.67
251.721	5.2
251.937	5.53
252.152	5.95
252.368	6.08
252.583	6.39
252.798	6.44
253.014	7.34
253.229	6.69
253.445	7.36
253.66	6.96
253.875	6.9
254.091	6.92
254.306	6.61
254.521	6.78
254.737	6.68
254.952	5.51
255.167	6.46
255.383	6.24
255.598	6.18
255.813	5.99
256.028	4.85
256.244	5.11
256.459	4.7
256.674	4.43
256.889	4.77
257.104	4.6
257.32	5.58
257.535	5.03
257.75	4.65
257.965	4.74
258.18	4.61
258.395	5.83
258.61	5.28
258.826	5.49
259.041	5.97
259.256	5.59
259.471	5.65
259.686	5.22
259.901	5.31
260.116	5.25
260.331	5.12
260.546	5.13
260.761	4.81
260.976	5.02
261.191	4.89
261.406	4.72
261.621	4.74
261.836	5.07
262.05	5.36
262.265	5.09
262.48	5.07
262.695	5.38
262.91	5.68
263.125	5.53
263.34	5.75
263.555	5.84
263.769	5.63
263.984	5.22
264.199	4.48
264.414	4.27
264.629	5.09
264.843	5.48
265.058	4.94
265.273	4.63
265.488	4.56
265.702	4.21
265.917	4.25
266.132	4.78
266.346	5.55
266.561	5.48
266.776	5.33
266.99	5.52
267.205	5.15
267.42	5.23
267.634	4.93
267.849	4.85
268.063	4.68
268.278	4.65
268.492	4.31
268.707	3.84
268.922	3.86
269.136	4.24
269.351	4.24
269.565	4.51
269.78	4.6
269.994	4.63
270.209	4.95
270.423	4.96
270.637	4.82
270.852	4.77
271.066	4.72
271.281	4.77
271.495	4.4
271.709	3.66
271.924	3.74
272.138	3.63
272.353	3.54
272.567	3.16
272.781	3.23
272.996	3.73
273.21	4.02
273.424	4.14
273.638	3.86
273.853	3.81
274.067	4.37
274.281	4.09
274.495	3.93
274.71	4.37
274.924	4.48
275.138	4.87
275.352	3.93
275.566	3.31
275.781	2.77
275.995	3.38
276.209	3.83
276.423	3.53
276.637	3.46
276.851	3.73
277.065	3.55
277.279	3.22
277.493	3.02
277.707	3.92
277.921	3.75
278.135	3.57
278.349	3
278.563	3.22
278.777	2.96
278.991	3.24
279.205	3.35
279.419	3.63
279.633	3.89
279.847	3.59
280.061	3.32
280.275	3.28
280.489	4.04
280.703	4.25
280.917	4.02
281.131	4.48
281.344	4.61
281.558	4.63
281.772	4.28
281.986	4.66
282.2	4.66
282.414	4.74
282.627	4.67
282.841	4.21
283.055	4.37
283.269	4.3
283.482	4.28
283.696	3.96
283.91	3.89
284.123	4.1
284.337	3.99
284.551	4.01
284.764	3.77
284.978	4.11
285.192	4.28
285.405	4.07
285.619	4.18
285.833	4.03
286.046	4.18
286.26	4.09
286.473	3.9
286.687	3.69
286.9	4.11
287.114	4.27
287.327	4.18
287.541	4.17
287.754	4.48
287.968	4.45
288.181	4.32
288.395	4.34
288.608	4.64
288.822	4.86
289.035	4.84
289.248	4.44
289.462	4.47
289.675	4.67
289.889	5.05
290.102	4.85
290.315	4.71
290.529	4.97
290.742	4.82
290.955	4.71
291.169	4.55
291.382	5.07
291.595	5.54
291.808	5.57
292.022	5.92
292.235	5.54
292.448	5.39
292.661	5.78
292.875	5.73
293.088	6.02
293.301	6.35
293.514	6.19
293.727	6.13
293.94	6.13
294.153	6.17
294.367	5.92
294.58	6.08
294.793	6.46
295.006	6.26
295.219	6.02
295.432	6.04
295.645	5.95
295.858	6.58
296.071	6.78
296.284	6.81
296.497	6.83
296.71	6.91
296.923	7.16
297.136	7.34
297.349	7.55
297.562	7.89
297.775	7.9
297.988	8.11
298.201	8.07
298.414	8.07
298.626	7.86
298.839	7.93
299.052	7.91
299.265	7.99
299.478	7.75
299.691	7.77
299.903	8.02
300.116	8.36
300.329	8.44
300.542	8.1
300.755	8.12
300.967	8.23
301.18	8.41
301.393	8.63
301.605	8.52
301.818	8.9
302.031	8.97
302.243	8.82
302.456	8.81
302.669	8.6
302.881	9.07
303.094	9.01
303.307	9.42
303.519	9.31
303.732	9.29
303.944	9.35
304.157	9.1
304.37	8.94
304.582	9.32
304.795	9.43
305.007	9.34
305.22	9.35
305.432	9.5
305.645	10
305.857	10.14
306.069	10.38
306.282	10.59
306.494	10.66
306.707	10.91
306.919	10.87
307.132	10.78
307.344	10.82
307.556	10.82
307.769	10.54
307.981	10.16
308.193	10.04
308.406	9.93
308.618	9.92
308.83	9.79
309.043	9.65
309.255	9.57
309.467	9.33
309.679	9.56
309.892	9.47
310.104	9.76
310.316	9.55
310.528	9.72
310.74	9.92
310.953	9.62
311.165	9.87
311.377	9.97
311.589	9.86
311.801	10.31
312.013	10.17
312.225	10.41
312.437	10.74
312.649	10.94
312.862	11.29
313.074	11.16
313.286	11.57
313.498	11.75
313.71	12.14
313.922	12.35
314.134	12.58
314.346	13.32
314.558	13.13
314.77	12.53
314.982	12.64
315.193	12.3
315.405	12.36
315.617	12.23
315.829	12
316.041	11.77
316.253	11.63
316.465	11.27
316.677	10.91
316.888	10.98
317.1	11.1
317.312	11.4
317.524	11.37
317.736	11.23
317.947	11.56
318.159	11.79
318.371	11.71
318.583	11.6
318.794	11.42
319.006	11.36
319.218	11.53
319.43	11.44
319.641	11.31
319.853	11.79
320.064	11.84
320.276	11.96
320.488	11.84
320.699	12.38
320.911	13.12
321.123	13.09
321.334	12.94
321.546	13.08
321.757	13.35
321.969	12.98
322.18	12.48
322.392	12.69
322.603	12.51
322.815	12.85
323.026	12.69
323.238	12.37
323.449	12.91
323.661	12.97
323.872	12.91
324.083	12.85
324.295	12.96
324.506	13.42
324.718	13.38
324.929	13.28
325.14	13.24
325.352	13.09
325.563	13.3
325.774	13.1
325.986	12.91
326.197	12.99
326.408	13.34
326.62	13.39
326.831	13.54
327.042	13.71
327.253	13.9
327.464	14.15
327.676	14.26
327.887	14.26
328.098	14.58
328.309	15.27
328.52	15.36
328.732	15.39
328.943	15.83
329.154	15.72
329.365	15.72
329.576	15.8
329.787	15.93
329.998	16.54
330.209	16.26
330.42	16.45
330.631	16.36
330.842	16.41
331.053	16.52
331.264	16.43
331.475	16.29
331.686	16.57
331.897	16.53
332.108	16.34
332.319	15.87
332.53	16.45
332.741	16.16
332.952	16.1
333.163	16.38
333.374	16.52
333.585	16.63
333.795	16.85
334.006	16.72
334.217	17.12
334.428	17.32
334.639	17.67
334.849	17.5
335.06	17.79
335.271	17.94
335.482	17.62
335.692	17.58
335.903	17.8
336.114	17.84
336.325	17.89
336.535	17.67
336.746	17.7
336.957	17.59
337.167	17.66
337.378	17.92
337.589	18.09
337.799	18.19
338.01	18.25
338.22	18.22
338.431	18.48
338.642	18.3
338.852	18.7
339.063	18.56
339.273	18.86
339.484	18.92
339.694	18.57
339.905	18.46
340.115	18.39
340.326	18.22
340.536	18.2
340.746	17.86
340.957	18.27
341.167	18.13
341.378	18.26
341.588	18.02
341.799	17.93
342.009	18.25
342.219	18.3
342.43	18.31
342.64	18.78
342.85	18.69
343.061	18.94
343.271	19.11
343.481	18.91
343.691	18.54
343.902	18.1
344.112	18.18
344.322	18.02
344.532	18.23
344.743	18.47
344.953	18.28
345.163	18.05
345.373	17.68
345.583	17.23
345.793	17.16
346.004	17.32
346.214	17.48
346.424	17.44
346.634	17.3
346.844	17.08
347.054	17.27
347.264	17.12
347.474	17.38
347.684	17.71
347.894	17.59
348.104	17.75
348.314	17.65
348.524	17.87
348.734	17.64
348.944	17.69
349.154	17.74
349.364	17.29
349.574	17.02
349.784	16.82
349.994	16.46
350.204	16.71
350.413	16.77
350.623	16.91
350.833	16.91
351.043	16.74
351.253	16.7
351.463	16.46
351.672	16.74
351.882	16.72
352.092	16.61
352.302	16.96
352.511	16.73
352.721	16.25
352.931	16
353.141	15.98
353.35	15.81
353.56	15.9
353.77	15.99
353.979	15.72
354.189	15.98
354.399	15.73
354.608	15.62
354.818	15.88
355.027	16.12
355.237	16.41
355.447	16.47
355.656	16.96
355.866	16.73
356.075	16.85
356.285	16.98
356.494	16.87
356.704	17.15
356.913	17.16
357.123	17.12
357.332	17.02
357.542	17.1
357.751	17.2
357.96	17.06
358.17	17.14
358.379	16.94
358.589	16.81
358.798	16.84
359.007	16.75
359.217	16.63
359.426	16.5
359.635	16.72
359.845	16.5
360.054	16.41
360.263	16.44
360.472	16.66
360.682	16.97
360.891	17.05
361.1	17.22
361.309	17.37
361.519	17.48
361.728	17.51
361.937	17.42
362.146	17.39
362.355	17.3
362.564	17.47
362.774	17.3
362.983	17.1
363.192	17.06
363.401	16.72
363.61	16.69
363.819	16.75
364.028	16.92
364.237	16.71
364.446	16.76
364.655	16.71
364.864	16.48
365.073	16.47
365.282	16.39
365.491	16.52
365.7	16.77
365.909	16.68
366.118	16.69
366.327	16.33
366.536	16.51
366.745	16.58
366.954	16.65
367.162	16.72
367.371	16.72
367.58	16.63
367.789	16.25
367.998	16.19
368.207	16.19
368.415	16.06
368.624	16.22
368.833	16.31
369.042	16.25
369.25	16.3
369.459	16.3
369.668	16.14
369.877	16.17
370.085	16.47
370.294	16.6
370.503	16.56
370.711	16.53
370.92	16.64
371.129	16.67
371.337	16.72
371.546	16.64
371.754	16.51
371.963	16.53
372.171	16.83
372.38	16.59
372.589	16.33
372.797	16.36
373.006	16.14
373.214	16.07
373.423	16.09
373.631	15.96
373.84	15.94
374.048	15.89
374.256	16.08
374.465	15.53
374.673	15.71
374.882	15.81
375.09	15.63
375.298	15.84
375.507	15.57
375.715	15.4
375.923	15.39
376.132	15.15
376.34	15.08
376.548	14.89
376.757	15.32
376.965	15.3
377.173	15.2
377.381	15.31
377.59	15.08
377.798	15.18
378.006	14.93
378.214	14.96
378.423	15.19
378.631	15.41
378.839	15.23
379.047	14.98
379.255	14.96
379.463	14.87
379.671	14.85
379.879	14.72
380.088	14.71
380.296	14.9
380.504	14.72
380.712	14.6
380.92	14.34
381.128	14.8
381.336	14.41
381.544	14.28
381.752	14.25
381.96	14.2
382.168	14.37
382.376	14.24
382.584	14.1
382.791	14.17
382.999	14.1
383.207	14.18
383.415	13.97
383.623	14.55
383.831	14.61
384.039	14.57
384.247	14.52
384.454	14.62
384.662	14.63
384.87	14.95
385.078	14.86
385.285	14.9
385.493	14.85
385.701	14.72
385.909	14.36
386.116	14.49
386.324	14.55
386.532	14.46
386.739	14.5
386.947	14.39
387.155	14.17
387.362	14.22
387.57	14.41
387.778	14.41
387.985	14.18
388.193	14.13
388.4	13.96
388.608	13.95
388.816	13.95
389.023	13.74
389.231	13.87
389.438	13.91
389.646	14
389.853	13.61
390.061	13.64
390.268	13.87
390.475	13.91
390.683	13.96
390.89	14.04
391.098	14.02
391.305	14.09
391.512	13.95
391.72	13.74
391.927	13.64
392.135	13.92
392.342	13.77
392.549	13.6
392.756	13.68
392.964	13.62
393.171	13.32
393.378	13.23
393.586	13.1
393.793	13.26
394	13.47
394.207	13.38
394.414	13.3
394.622	13.27
394.829	13.48
395.036	13.58
395.243	13.47
395.45	13.68
395.657	13.75
395.864	13.67
396.072	13.75
396.279	13.73
396.486	13.76
396.693	13.92
396.9	14.05
397.107	13.96
397.314	13.97
397.521	14.11
397.728	14.09
397.935	14.08
398.142	14.21
398.349	14.04
398.556	13.89
398.763	13.86
398.97	13.54
399.177	13.33
399.383	13.16
399.59	12.85
399.797	12.85
400.004	12.84
400.211	12.86
400.418	12.74
400.625	12.61
400.831	12.67
401.038	12.89
401.245	12.9
401.452	13.03
401.658	13.1
401.865	13.14
402.072	12.89
402.279	12.9
402.485	13.01
402.692	13.12
402.899	13.32
403.105	13.21
403.312	12.89
403.519	12.95
403.725	12.99
403.932	13.11
404.138	13.14
404.345	13.19
404.552	13.16
404.758	13.02
404.965	13
405.171	12.84
405.378	12.85
405.584	12.99
405.791	13.01
405.997	12.89
406.204	12.88
406.41	13.02
406.617	13.05
406.823	13.07
407.029	13.13
407.236	13.03
407.442	13.27
407.649	13.32
407.855	13.27
408.061	13.25
408.268	13.29
408.474	13.28
408.68	13.03
408.887	12.96
409.093	13.07
409.299	13.06
409.505	13.19
409.712	12.91
409.918	12.91
410.124	12.95
410.33	12.92
410.537	12.98
410.743	12.95
410.949	12.98
411.155	13.01
411.361	12.84
411.567	12.76
411.773	12.53
411.98	12.5
412.186	12.37
412.392	12.21
412.598	12.19
412.804	12.08
413.01	12.05
413.216	12.06
413.422	12.21
413.628	12.17
413.834	12.28
414.04	12.46
414.246	12.5
414.452	12.64
414.658	12.73
414.864	12.79
415.07	12.87
415.275	12.69
415.481	12.76
415.687	12.66
415.893	12.56
416.099	12.48
416.305	12.44
416.511	12.48
416.716	12.32
416.922	12.37
417.128	12.34
417.334	12.34
417.539	12.39
417.745	12.32
417.951	12.24
418.157	12.32
418.362	12.43
418.568	12.37
418.774	12.44
418.979	12.54
419.185	12.48
419.391	12.51
419.596	12.47
419.802	12.57
420.008	12.55
420.213	13.24
420.419	13.28
420.624	13.23
420.83	13.32
421.035	13.35
421.241	13.32
421.446	13.35
421.652	13.23
421.857	13.35
422.063	13.35
422.268	13.39
422.474	12.76
422.679	12.65
422.885	12.62
423.09	12.62
423.295	12.57
423.501	12.5
423.706	12.46
423.911	12.54
424.117	12.45
424.322	12.44
424.527	12.44
424.733	12.44
424.938	12.47
425.143	12.51
425.349	12.44
425.554	12.36
425.759	12.44
425.964	12.46
426.169	12.48
426.375	12.45
426.58	12.39
426.785	12.39
426.99	12.43
427.195	12.48
427.4	12.41
427.605	12.4
427.811	12.47
428.016	12.44
428.221	12.55
428.426	12.49
428.631	12.48
428.836	12.54
429.041	12.52
429.246	12.4
429.451	12.35
429.656	12.34
429.861	12.36
430.066	12.41
430.271	12.31
430.476	12.21
430.681	12.18
430.886	12.18
431.09	12.14
431.295	12.21
431.5	12.25
431.705	12.26
431.91	12.19
432.115	12.22
432.32	12.13
432.524	12.23
432.729	12.28
432.934	12.3
433.139	12.27
433.343	12.35
433.548	12.34
433.753	12.39
433.958	12.46
434.162	12.5
434.367	12.44
434.572	12.48
434.776	12.49
434.981	12.45
435.186	12.54
435.39	12.6
435.595	12.53
435.799	12.47
436.004	12.6
436.209	12.55
436.413	12.63
436.618	12.68
436.822	12.72
437.027	12.71
437.231	12.78
437.436	12.8
437.64	12.77
437.845	12.75
438.049	12.66
438.253	12.49
438.458	12.48
438.662	12.48
438.867	12.49
439.071	12.51
439.275	12.54
439.48	12.43
439.684	12.39
439.888	12.41
440.093	12.49
440.297	12.64
440.501	12.72
440.706	12.63
440.91	12.57
441.114	12.53
441.318	12.42
441.523	12.35
441.727	12.36
441.931	12.34
442.135	12.29
442.339	12.16
442.543	12.11
442.748	12.06
442.952	12.02
443.156	12.06
443.36	12.16
443.564	12.24
443.768	12.32
443.972	12.38
444.176	12.47
444.38	12.49
444.584	12.49
444.788	12.51
444.992	12.49
445.196	12.56
445.4	12.54
445.604	12.53
445.808	12.49
446.012	12.46
446.216	12.43
446.42	12.31
446.624	12.4
446.828	12.39
447.032	12.41
447.235	12.41
447.439	12.42
447.643	12.42
447.847	12.42
448.051	12.45
448.254	12.48
448.458	12.57
448.662	12.55
448.866	12.43
449.069	12.4
449.273	12.27
449.477	12.27
449.681	12.33
449.884	12.27
450.088	12.24
450.292	12.14
450.495	12.07
450.699	11.87
450.902	11.75
451.106	11.76
451.31	11.9
451.513	11.97
451.717	11.88
451.92	11.93
452.124	11.95
452.327	11.86
452.531	11.95
452.734	12.11
452.938	12.31
453.141	12.49
453.345	12.43
453.548	12.25
453.752	12.18
453.955	12.21
454.158	12.19
454.362	12.26
454.565	12.31
454.769	12.29
454.972	12.07
455.175	11.94
455.379	11.83
455.582	11.84
455.785	12.01
455.988	12.14
456.192	12.21
456.395	12.1
456.598	12.05
456.801	12.08
457.005	12.06
457.208	12.16
457.411	12.08
457.614	12.15
457.817	12.27
458.021	12.29
458.224	12.24
458.427	12.22
458.63	12.17
458.833	12.1
459.036	12.06
459.239	12.03
459.442	12.01
459.645	12.08
459.848	12.08
460.051	12.01
460.254	12.01
460.457	12.02
460.66	12
460.863	12.03
461.066	12.04
461.269	12.05
461.472	12.08
461.675	12.1
461.878	12.05
462.081	12.08
462.284	12.05
462.486	11.92
462.689	11.85
462.892	11.85
463.095	11.89
463.298	12.01
463.5	12.06
463.703	12.05
463.906	12.03
464.109	12.05
464.311	12.04
464.514	12.12
464.717	12.18
464.92	12.11
465.122	12.17
465.325	12.16
465.528	12.1
465.73	12.02
465.933	12.08
466.135	12.07
466.338	12.12
466.541	12.17
466.743	12.22
466.946	12.25
467.148	12.29
467.351	12.19
467.553	12.22
467.756	12.16
467.958	12.18
468.161	12.19
468.363	12.24
468.566	12.24
468.768	12.24
468.971	12.09
469.173	12.11
469.375	12.11
469.578	12.2
469.78	12.19
469.983	12.19
470.185	12.34
470.387	12.37
470.59	12.25
470.792	12.29
470.994	12.19
471.196	12.39
471.399	12.36
471.601	12.41
471.803	12.41
472.005	12.42
472.208	12.6
472.41	12.58
472.612	12.49
472.814	12.5
473.016	12.32
473.218	12.41
473.421	12.35
473.623	12.36
473.825	12.36
474.027	12.33
474.229	12.29
474.431	12.22
474.633	12.16
474.835	12.19
475.037	12.25
475.239	12.43
475.441	12.4
475.643	12.39
475.845	12.39
476.047	12.39
476.249	12.33
476.451	12.37
476.653	12.39
476.855	12.41
477.057	12.4
477.258	12.47
477.46	12.36
477.662	12.43
477.864	12.38
478.066	12.41
478.268	12.41
478.469	12.48
478.671	12.47
478.873	12.48
479.075	12.45
479.276	12.44
479.478	12.36
479.68	12.32
479.882	12.25
480.083	12.34
480.285	12.27
480.487	12.3
480.688	12.33
480.89	12.32
481.091	12.32
481.293	12.39
481.495	12.41
481.696	12.39
481.898	12.44
482.099	12.43
482.301	12.41
482.502	12.46
482.704	12.47
482.905	12.44
483.107	12.44
483.308	12.41
483.51	12.41
483.711	12.43
483.913	12.43
484.114	12.47
484.315	12.49
484.517	12.46
484.718	12.44
484.92	12.42
485.121	12.42
485.322	12.43
485.524	12.46
485.725	12.42
485.926	12.39
486.127	12.43
486.329	12.37
486.53	12.33
486.731	12.34
486.932	12.35
487.134	12.29
487.335	12.3
487.536	12.31
487.737	12.27
487.938	12.28
488.139	12.28
488.341	12.27
488.542	12.3
488.743	12.34
488.944	12.35
489.145	12.34
489.346	12.42
489.547	12.37
489.748	12.34
489.949	12.39
490.15	12.4
490.351	12.41
490.552	12.39
490.753	12.39
490.954	12.39
491.155	12.42
491.356	12.4
491.557	12.42
491.758	12.52
491.959	12.54
492.159	12.54
492.36	12.54
492.561	12.54
492.762	12.56
492.963	12.58
493.164	12.6
493.364	12.59
493.565	12.65
493.766	12.63
493.967	12.54
494.167	12.52
494.368	12.46
494.569	12.55
494.769	12.62
494.97	12.58
495.171	12.57
495.371	12.56
495.572	12.6
495.773	12.68
495.973	12.72
496.174	12.87
496.375	12.96
496.575	13.05
496.776	12.95
496.976	12.89
497.177	12.93
497.377	12.9
497.578	12.92
497.778	12.87
497.979	12.83
498.179	12.86
498.38	12.78
498.58	12.76
498.78	12.75
498.981	12.83
499.181	12.9
499.382	12.98
499.582	13.01
499.782	13.09
499.983	13.15
500.183	13.16
500.383	13.16
500.584	13.22
500.784	13.2
500.984	13.21
501.184	13.15
501.385	13.19
501.585	13.17
501.785	13.21
501.985	13.24
502.185	13.23
502.386	13.21
502.586	13.27
502.786	13.36
502.986	13.44
503.186	13.48
503.386	13.56
503.586	13.61
503.786	13.69
503.987	13.75
504.187	13.68
504.387	13.64
504.587	13.7
504.787	13.65
504.987	13.52
505.187	13.57
505.387	13.6
505.587	13.71
505.786	13.71
505.986	13.78
506.186	13.73
506.386	13.84
506.586	14.03
506.786	14.03
506.986	14.08
507.186	14.28
507.386	14.25
507.585	14.29
507.785	14.19
507.985	14.23
508.185	14.25
508.384	14.37
508.584	14.51
508.784	14.59
508.984	14.74
509.183	14.72
509.383	14.74
509.583	14.74
509.782	14.76
509.982	14.91
510.182	14.99
510.381	14.98
510.581	15.07
510.781	15.07
510.98	15.08
511.18	15.15
511.379	15.3
511.579	15.28
511.778	15.44
511.978	15.52
512.177	15.56
512.377	15.59
512.576	15.69
512.776	15.72
512.975	15.72
513.175	15.67
513.374	15.64
513.573	15.66
513.773	15.71
513.972	15.73
514.172	15.82
514.371	15.82
514.57	15.83
514.77	15.88
514.969	15.9
515.168	15.89
515.367	16.11
515.567	16.26
515.766	16.4
515.965	16.44
516.164	16.55
516.364	16.62
516.563	16.75
516.762	16.86
516.961	16.93
517.16	16.96
517.359	17.04
517.559	17.07
517.758	17
517.957	17.01
518.156	17.12
518.355	17.18
518.554	17.21
518.753	17.25
518.952	17.28
519.151	17.34
519.35	17.49
519.549	17.65
519.748	17.62
519.947	17.79
520.146	17.9
520.345	18.05
520.544	17.97
520.743	17.99
520.942	18.03
521.141	18.12
521.339	18.17
521.538	18.19
521.737	18.18
521.936	18.35
522.135	18.37
522.333	18.5
522.532	18.5
522.731	18.78
522.93	18.97
523.129	19.09
523.327	19.09
523.526	19.11
523.725	19.19
523.923	19.36
524.122	19.4
524.321	19.53
524.519	19.56
524.718	19.65
524.917	19.67
525.115	19.75
525.314	19.77
525.512	19.96
525.711	20.07
525.909	20.16
526.108	20.19
526.306	20.29
526.505	20.38
526.703	20.45
526.902	20.56
527.1	20.59
527.299	20.66
527.497	20.77
527.696	20.78
527.894	20.87
528.092	20.95
528.291	21.01
528.489	21.04
528.688	21.09
528.886	21.13
529.084	21.17
529.283	21.22
529.481	21.28
529.679	21.31
529.877	21.35
530.076	21.31
530.274	21.34
530.472	21.38
530.67	21.37
530.869	21.42
531.067	21.49
531.265	21.54
531.463	21.69
531.661	21.71
531.859	21.79
532.057	21.92
532.255	22.1
532.454	22.18
532.652	22.2
532.85	22.31
533.048	22.36
533.246	22.44
533.444	22.51
533.642	22.52
533.84	22.63
534.038	22.67
534.236	22.72
534.434	22.76
534.632	22.78
534.83	22.86
535.027	22.93
535.225	23
535.423	23.06
535.621	23.13
535.819	23.2
536.017	23.16
536.215	23.23
536.412	23.36
536.61	23.37
536.808	23.49
537.006	23.54
537.203	23.61
537.401	23.63
537.599	23.61
537.797	23.65
537.994	23.71
538.192	23.77
538.39	23.85
538.587	23.87
538.785	23.93
538.983	23.97
539.18	24.11
539.378	24.24
539.575	24.35
539.773	24.53
539.97	24.55
540.168	24.62
540.366	24.72
540.563	24.76
540.761	24.81
540.958	24.85
541.155	24.91
541.353	24.97
541.55	25
541.748	25.06
541.945	25.11
542.143	25.19
542.34	25.25
542.537	25.28
542.735	25.28
542.932	25.31
543.129	25.35
543.327	25.39
543.524	25.45
543.721	25.55
543.919	25.58
544.116	25.53
544.313	25.5
544.51	25.59
544.708	25.68
544.905	25.81
545.102	25.87
545.299	26
545.496	26.04
545.693	26.03
545.891	25.92
546.088	26.03
546.285	26.12
546.482	26.22
546.679	26.22
546.876	26.3
547.073	26.33
547.27	26.31
547.467	26.34
547.664	26.33
547.861	26.43
548.058	26.52
548.255	26.52
548.452	26.58
548.649	26.61
548.846	26.69
549.043	26.56
549.24	26.53
549.437	26.6
549.633	26.61
549.83	26.69
550.027	26.64
550.224	26.72
550.421	26.6
550.618	26.63
550.814	26.75
551.011	26.65
551.208	26.82
551.405	26.91
551.601	27.03
551.798	27.02
551.995	27.05
552.191	26.97
552.388	26.95
552.585	27.12
552.781	27.02
552.978	27.02
553.175	27.13
553.371	27.05
553.568	27.15
553.764	27.18
553.961	27.29
554.157	27.31
554.354	27.46
554.55	27.55
554.747	27.47
554.943	27.6
555.14	27.48
555.336	27.52
555.533	27.6
555.729	27.56
555.926	27.59
556.122	27.51
556.318	27.62
556.515	27.71
556.711	27.76
556.907	27.81
557.104	27.79
557.3	27.86
557.496	27.85
557.693	27.94
557.889	27.85
558.085	27.77
558.281	27.85
558.478	27.79
558.674	27.71
558.87	27.63
559.066	27.76
559.262	27.89
559.459	27.87
559.655	27.84
559.851	27.87
560.047	28.1
560.243	28.06
560.439	28.06
560.635	28.11
560.831	28.27
561.027	28.44
561.223	28.38
561.419	28.42
561.615	28.58
561.811	28.76
562.007	28.84
562.203	28.78
562.399	28.98
562.595	29
562.791	29.07
562.987	29
563.183	28.93
563.379	28.93
563.575	28.88
563.771	28.88
563.966	28.93
564.162	28.88
564.358	28.96
564.554	28.87
564.75	28.91
564.945	28.88
565.141	28.93
565.337	28.97
565.533	29.03
565.728	29.02
565.924	29.05
566.12	29.13
566.315	29.16
566.511	29.1
566.707	29.21
566.902	29.32
567.098	29.43
567.293	29.51
567.489	29.63
567.684	29.69
567.88	29.8
568.076	29.75
568.271	29.68
568.467	29.68
568.662	29.76
568.858	29.7
569.053	29.67
569.248	29.51
569.444	29.5
569.639	29.44
569.835	29.52
570.03	29.5
570.225	29.68
570.421	29.6
570.616	29.68
570.812	29.53
571.007	29.57
571.202	29.64
571.397	29.72
571.593	29.7
571.788	29.75
571.983	29.7
572.178	29.8
572.374	29.74
572.569	29.92
572.764	29.97
572.959	30.13
573.154	30.2
573.35	30.21
573.545	30.24
573.74	30.27
573.935	30.26
574.13	30.28
574.325	30.22
574.52	30.38
574.715	30.25
574.91	30.19
575.105	30.15
575.3	30.19
575.495	30.23
575.69	30.23
575.885	30.36
576.08	30.43
576.275	30.54
576.47	30.65
576.665	30.66
576.86	30.73
577.055	30.84
577.25	30.93
577.444	30.88
577.639	30.91
577.834	31.01
578.029	30.94
578.224	30.99
578.418	30.99
578.613	30.88
578.808	30.85
579.003	30.95
579.197	30.91
579.392	30.93
579.587	30.95
579.781	30.95
579.976	30.91
580.171	30.91
580.365	30.77
580.56	30.76
580.755	30.97
580.949	30.93
581.144	30.87
581.338	30.97
581.533	31.06
581.727	31.2
581.922	31.06
582.116	31.28
582.311	31.5
582.505	31.69
582.7	31.87
582.894	31.85
583.089	31.82
583.283	31.76
583.478	31.9
583.672	31.92
583.866	31.87
584.061	31.89
584.255	31.76
584.449	31.6
584.644	31.55
584.838	31.47
585.032	31.43
585.226	31.61
585.421	31.67
585.615	31.46
585.809	31.57
586.003	31.62
586.198	31.83
586.392	31.86
586.586	32.02
586.78	31.92
586.974	32.02
587.168	32.02
587.363	32.04
587.557	32.2
587.751	32.35
587.945	32.34
588.139	32.3
588.333	32.17
588.527	32.17
588.721	32.21
588.915	32.38
589.109	32.28
589.303	32.25
589.497	32.24
589.691	32.13
589.885	31.95
590.079	31.81
590.273	31.81
590.466	31.98
590.66	32.08
590.854	32.1
591.048	32.11
591.242	31.98
591.436	31.97
591.629	31.97
591.823	32.09
592.017	32.35
592.211	32.44
592.404	32.62
592.598	32.57
592.792	32.58
592.986	32.56
593.179	32.45
593.373	32.66
593.567	32.69
593.76	32.74
593.954	32.76
594.147	32.62
594.341	32.59
594.535	32.57
594.728	32.59
594.922	32.59
595.115	32.56
595.309	32.61
595.502	32.63
595.696	32.9
595.889	32.99
596.083	33.03
596.276	33.16
596.47	33.2
596.663	33.17
596.856	33.18
597.05	33.19
597.243	33.35
597.437	33.42
597.63	33.49
597.823	33.34
598.017	33.28
598.21	33.36
598.403	33.23
598.596	33.24
598.79	33.24
598.983	33.18
599.176	33.14
599.369	32.98
599.563	32.93
599.756	32.82
599.949	32.9
600.142	32.9
600.335	32.94
600.528	33.13
600.722	33.39
600.915	33.43
601.108	33.69
601.301	33.79
601.494	33.92
601.687	33.94
601.88	34.01
602.073	34
602.266	34.05
602.459	34.08
602.652	34.06
602.845	33.94
603.038	33.93
603.231	33.93
603.424	33.96
603.617	33.83
603.809	33.84
604.002	33.87
604.195	33.83
604.388	33.8
604.581	33.71
604.774	33.59
604.966	33.71
605.159	33.7
605.352	33.64
605.545	33.56
605.737	33.54
605.93	33.53
606.123	33.57
606.316	33.53
606.508	33.57
606.701	33.56
606.894	33.82
607.086	33.77
607.279	34.08
607.471	34.09
607.664	34.27
607.857	34.56
608.049	34.74
608.242	34.93
608.434	35.2
608.627	35.3
608.819	35.51
609.012	35.69
609.204	36.03
609.397	36.13
609.589	36.36
609.782	36.59
609.974	36.95
610.166	37.43
610.359	37.67
610.551	37.9
610.743	38.14
610.936	38.36
611.128	38.57
611.32	38.59
611.513	38.49
611.705	38.52
611.897	38.49
612.09	38.26
612.282	37.87
612.474	37.67
612.666	37.65
612.858	37.63
613.051	37.34
613.243	37.32
613.435	37.09
613.627	37.09
613.819	37.02
614.011	37.05
614.203	37
614.395	37.06
614.588	36.97
614.78	36.65
614.972	36.45
615.164	36.34
615.356	35.92
615.548	35.91
615.74	35.91
615.932	35.94
616.124	35.87
616.315	35.74
616.507	35.53
616.699	35.42
616.891	35.44
617.083	35.51
617.275	35.4
617.467	35.43
617.659	35.44
617.85	35.33
618.042	35.08
618.234	34.94
618.426	34.92
618.618	34.95
618.809	35.1
619.001	35.12
619.193	35.01
619.384	35.3
619.576	35.44
619.768	35.32
619.959	35.48
620.151	35.56
620.343	35.55
620.534	35.52
620.726	35.65
620.917	35.65
621.109	35.69
621.301	35.74
621.492	35.61
621.684	35.74
621.875	35.76
622.067	35.64
622.258	35.89
622.45	36.04
622.641	36.16
622.832	36.2
623.024	36.01
623.215	36.08
623.407	36.2
623.598	36.22
623.789	36.11
623.981	36.16
624.172	36.2
624.363	36.07
624.555	36.14
624.746	36.19
624.937	36.16
625.129	36.32
625.32	36.35
625.511	36.3
625.702	36.29
625.893	36.09
626.085	36.06
626.276	36.12
626.467	36.14
626.658	36.11
626.849	36.03
627.04	35.95
627.231	35.83
627.422	35.7
627.614	35.71
627.805	35.6
627.996	35.73
628.187	35.73
628.378	35.74
628.569	35.73
628.76	35.64
628.951	35.72
629.142	35.86
629.332	35.93
629.523	36.09
629.714	36.15
629.905	36.45
630.096	36.49
630.287	36.62
630.478	36.71
630.669	36.63
630.859	36.71
631.05	36.66
631.241	36.49
631.432	36.7
631.623	36.46
631.813	36.55
632.004	36.48
632.195	36.44
632.385	36.3
632.576	36.35
632.767	36.32
632.957	36.29
633.148	36.18
633.339	36.22
633.529	36.2
633.72	36.33
633.91	36.32
634.101	36.2
634.292	36.03
634.482	36.22
634.673	36.11
634.863	36.29
635.054	36.36
635.244	36.53
635.435	36.46
635.625	36.37
635.815	36.33
636.006	36.01
636.196	36.01
636.387	36.12
636.577	36.12
636.767	36.15
636.958	36.07
637.148	36.11
637.338	36.13
637.529	36.32
637.719	36.39
637.909	36.47
638.099	36.46
638.29	36.47
638.48	36.44
638.67	36.47
638.86	36.56
639.05	36.63
639.241	36.36
639.431	36.2
639.621	36.22
639.811	36.04
640.001	35.91
640.191	36.13
640.381	36.2
640.571	36.3
640.761	36.1
640.951	35.99
641.141	35.94
641.331	36.23
641.521	36.66
641.711	36.58
641.901	36.66
642.091	36.84
642.281	36.76
642.471	36.84
642.661	36.95
642.851	37.2
643.041	37.25
643.231	37.25
643.42	37.29
643.61	37.23
643.8	37.13
643.99	37.28
644.18	37.27
644.369	37.38
644.559	37.35
644.749	37.24
644.939	37.16
645.128	37.11
645.318	37.38
645.508	37.14
645.697	36.96
645.887	37.19
646.076	37.04
646.266	37.14
646.456	37.2
646.645	37.16
646.835	37.36
647.024	37.37
647.214	37.36
647.403	37.15
647.593	37.3
647.782	37.09
647.972	36.95
648.161	37.05
648.351	36.86
648.54	36.95
648.73	36.9
648.919	36.85
649.108	36.75
649.298	36.75
649.487	36.77
649.677	36.95
649.866	37.07
650.055	37.17
650.244	37.11
650.434	37.13
650.623	37.16
650.812	37.24
651.002	37.12
651.191	37.2
651.38	37.26
651.569	37.62
651.758	37.35
651.947	37.56
652.137	37.5
652.326	37.66
652.515	37.92
652.704	37.77
652.893	38.02
653.082	38.05
653.271	38.15
653.46	38.25
653.649	37.82
653.838	38.03
654.027	37.76
654.216	38.01
654.405	38.19
654.594	37.98
654.783	38.12
654.972	37.94
655.161	38.03
655.35	38.06
655.539	37.78
655.728	38.04
655.916	38.13
656.105	38.19
656.294	38.11
656.483	37.7
656.672	37.85
656.86	37.77
657.049	37.86
657.238	37.85
657.427	37.77
657.615	38.01
657.804	37.86
657.993	37.77
658.181	37.77
658.37	37.72
658.559	37.66
658.747	37.65
658.936	37.64
659.125	37.62
659.313	37.58
659.502	37.77
659.69	37.69
659.879	37.7
660.067	37.67
660.256	37.75
660.444	37.99
660.633	38.27
660.821	38.32
661.01	38.51
661.198	38.33
661.387	38.53
661.575	38.21
661.763	38.17
661.952	38.22
662.14	38.43
662.328	38.3
662.517	37.96
662.705	37.88
662.893	37.87
663.082	37.85
663.27	38.2
663.458	38.14
663.646	38.28
663.834	38.48
664.023	38.41
664.211	38.36
664.399	38.45
664.587	38.31
664.775	38.06
664.963	37.97
665.152	37.98
665.34	38.01
665.528	37.92
665.716	37.82
665.904	37.89
666.092	37.88
666.28	37.89
666.468	38.1
666.656	38.38
666.844	38.67
667.032	38.84
667.22	38.74
667.408	38.77
667.596	38.77
667.784	38.94
667.971	38.89
668.159	39.02
668.347	38.87
668.535	38.64
668.723	38.85
668.911	38.84
669.098	38.92
669.286	38.85
669.474	38.82
669.662	39.02
669.849	39.03
670.037	39.35
670.225	39.53
670.413	39.49
670.6	39.35
670.788	39.26
670.976	39.15
671.163	39
671.351	39.31
671.538	39.17
671.726	39.32
671.913	39.29
672.101	38.79
672.289	38.59
672.476	38.66
672.664	38.91
672.851	38.81
673.039	39.04
673.226	39.01
673.413	38.91
673.601	39.07
673.788	38.71
673.976	38.74
674.163	38.89
674.35	39.09
674.538	39.37
674.725	39.61
674.912	39.54
675.1	39.61
675.287	39.73
675.474	39.54
675.662	39.72
675.849	39.77
676.036	40.06
676.223	40
676.411	39.88
676.598	39.58
676.785	39.63
676.972	39.53
677.159	39.34
677.346	39.4
677.533	39.56
677.721	39.52
677.908	39.57
678.095	39.12
678.282	39.31
678.469	39.64
678.656	39.77
678.843	39.74
679.03	40.13
679.217	40.35
679.404	40.31
679.591	40.22
679.778	39.98
679.964	40.01
680.151	40.32
680.338	40.23
680.525	40.09
680.712	40.29
680.899	40.29
681.086	40.21
681.272	39.88
681.459	39.73
681.646	40.03
681.833	40.13
682.02	40.37
682.206	40.18
682.393	40.08
682.58	39.8
682.766	39.55
682.953	39.37
683.14	39.36
683.326	39.73
683.513	40.01
683.7	39.91
683.886	39.73
684.073	39.3
684.259	39.33
684.446	39.41
684.632	39.54
684.819	39.58
685.005	39.58
685.192	39.25
685.378	39.04
685.565	38.9
685.751	38.81
685.938	39.24
686.124	39.56
686.31	39.61
686.497	39.72
686.683	39.59
686.87	39.62
687.056	39.75
687.242	39.99
687.429	40.04
687.615	39.99
687.801	39.88
687.987	39.84
688.174	39.84
688.36	39.95
688.546	39.74
688.732	40.03
688.918	40.34
689.105	40.23
689.291	40.15
689.477	40.33
689.663	40.53
689.849	40.86
690.035	40.67
690.221	40.82
690.407	40.96
690.593	41.28
690.779	40.9
690.965	40.64
691.151	40.54
691.337	40.36
691.523	40.09
691.709	39.93
691.895	39.77
692.081	39.82
692.267	39.26
692.453	39.13
692.639	39
692.825	39.57
693.011	39.72
693.196	39.98
693.382	40.41
693.568	40.52
693.754	40.46
693.94	40.42
694.125	40.38
694.311	41.17
694.497	41.21
694.682	41.22
694.868	41.27
695.054	40.9
695.239	41.24
695.425	41.08
695.611	41.31
695.796	41.37
695.982	41.27
696.168	41.5
696.353	41.04
696.539	40.94
696.724	40.91
696.91	40.72
697.095	40.91
697.281	40.74
697.466	40.9
697.652	40.88
697.837	41.01
698.023	41.04
698.208	40.86
698.393	41.12
698.579	41
698.764	40.96
698.949	40.99
699.135	40.88
699.32	40.58
699.505	40.43
699.691	40.33
699.876	40.17
700.061	40.3
700.246	40.39
700.432	40.03
700.617	40.12
700.802	39.86
700.987	39.92
701.172	39.77
701.358	40.03
701.543	40.28
701.728	40.42
701.913	40.37
702.098	40.24
702.283	40.16
702.468	40.46
702.653	40.68
702.838	40.92
703.023	40.88
703.208	41.22
703.393	41.39
703.578	41.22
703.763	41.13
703.948	41.22
704.133	41.27
704.318	41.44
704.503	41.6
704.688	41.49
704.873	41.88
705.057	41.76
705.242	41.99
705.427	42.02
705.612	42.43
705.797	42.52
705.981	42.9
706.166	43.14
706.351	43.48
706.536	43.25
706.72	43.57
706.905	43.81
707.09	43.76
707.274	44.17
707.459	44.28
707.644	43.74
707.828	43.92
708.013	43.89
708.197	43.91
708.382	43.5
708.567	43.68
708.751	43.55
708.936	43.31
709.12	43.5
709.305	43.15
709.489	43.18
709.673	43.58
709.858	43.67
710.042	43.57
710.227	43.42
710.411	43.31
710.596	43.11
710.78	42.97
710.964	42.95
711.149	43.21
711.333	43.22
711.517	43.19
711.702	43.05
711.886	42.9
712.07	43.19
712.254	43.34
712.438	43.7
712.623	43.93
712.807	43.71
712.991	43.39
713.175	42.85
713.359	42.32
713.544	42.08
713.728	41.49
713.912	41.05
714.096	40.12
714.28	39.84
714.464	39.56
714.648	39.41
714.832	39.3
715.016	39.23
715.2	39.23
715.384	39.43
715.568	39.25
715.752	39.67
715.936	40.04
716.12	40.49
716.304	40.39
716.488	40.48
716.671	40.13
716.855	40.74
717.039	40.76
717.223	40.95
717.407	40.79
717.59	41.17
717.774	41.18
717.958	41.05
718.142	40.96
718.325	41.07
718.509	41.07
718.693	41.19
718.877	40.56
719.06	40.73
719.244	40.95
719.428	40.83
719.611	40.31
719.795	40.1
719.978	39.83
720.162	40.07
720.345	40.33
720.529	40.06
720.713	40.41
720.896	40.68
721.08	41.07
721.263	40.85
721.446	41.03
721.63	41.45
721.813	41.73
721.997	41.78
722.18	41.74
722.364	41.61
722.547	41.48
722.73	40.81
722.914	40.78
723.097	40.48
723.28	40.48
723.464	40.54
723.647	40.21
723.83	39.91
724.013	40.14
724.197	40.21
724.38	40.38
724.563	40.43
724.746	40.84
724.929	40.75
725.112	40.68
725.296	40.55
725.479	40.92
725.662	40.87
725.845	41.56
726.028	41.47
726.211	41.34
726.394	40.72
726.577	40.71
726.76	40.96
726.943	40.92
727.126	40.81
727.309	40.87
727.492	40.61
727.675	40.52
727.858	40.41
728.041	40.44
728.224	40.26
728.407	40.78
728.589	40.92
728.772	40.73
728.955	40.94
729.138	41.17
729.321	40.92
729.503	41.09
729.686	41.32
729.869	40.88
730.052	41.05
730.234	41.1
730.417	40.82
730.6	41.18
730.782	41.16
730.965	41.19
731.148	41.52
731.33	41.61
731.513	41.15
731.695	41.31
731.878	41.46
732.061	41.53
732.243	41.46
732.426	41.7
732.608	41.34
732.791	41.74
732.973	41.82
733.156	41.72
733.338	41.67
733.52	42.11
733.703	41.92
733.885	42.07
734.068	41.82
734.25	42.19
734.432	41.92
734.615	42.03
734.797	41.84
734.979	41.97
735.162	41.42
735.344	42.02
735.526	41.9
735.708	42.56
735.891	42.63
736.073	42.71
736.255	42.55
736.437	42.36
736.619	42.28
736.802	42.34
736.984	41.83
737.166	42.73
737.348	41.96
737.53	42.52
737.712	41.75
737.894	41.36
738.076	41.58
738.258	41.66
738.44	42.02
738.622	42.08
738.804	41.77
738.986	42.21
739.168	41.87
739.35	42.15
739.532	41.47
739.714	41.62
739.896	41.89
740.078	41.76
740.259	41.46
740.441	41.08
740.623	41.56
740.805	41.71
740.987	41.79
741.168	41.32
741.35	41.64
741.532	42.02
741.714	42.45
741.895	42.44
742.077	42.19
742.259	42.73
742.44	42.97
742.622	42.48
742.804	42.47
742.985	42.27
743.167	42.67
743.348	43.13
743.53	43.27
743.711	43.23
743.893	42.75
744.075	43.55
744.256	43.72
744.438	44
744.619	44.45
744.8	44.71
744.982	44.81
745.163	44.96
745.345	44.55
745.526	44.42
745.707	44.46
745.889	45.14
746.07	44.52
746.252	44.16
746.433	43.6
746.614	43.77
746.795	43.51
746.977	42.72
747.158	42.8
747.339	42.33
747.52	42.45
747.702	42.49
747.883	42.3
748.064	42.79
748.245	42.71
748.426	43.14
748.607	42.8
748.788	42.17
748.97	42.88
749.151	42.18
749.332	42.86
749.513	42.32
749.694	41.89
749.875	42.21
750.056	42.06
750.237	42.97
750.418	43.29
750.599	43.41
750.78	44.14
750.96	44.03
751.141	45.01
751.322	44.55
751.503	45.75
751.684	45.65
751.865	45.9
752.046	45.74
752.226	44.7
752.407	45.54
752.588	46.08
752.769	45.84
752.949	45.91
753.13	45.61
753.311	45.76
753.492	44.24
753.672	44.71
753.853	44.3
754.034	44.36
754.214	44.77
754.395	43.87
754.575	42.66
754.756	43.83
754.937	44.12
755.117	44.1
755.298	43.89
755.478	44.65
755.659	44.65
755.839	44.03
756.02	42.42
756.2	41.47
756.381	41.17
756.561	41.43
756.741	40.37
756.922	39.77
757.102	39.63
757.283	40.1
757.463	40.21
757.643	39.85
757.823	39.99
758.004	41.12
758.184	41.63
758.364	41.72
758.545	41.74
758.725	41.69
758.905	41.2
759.085	40.63
759.265	40.33
759.446	39.93
759.626	39.91
759.806	39.47
759.986	39.18
760.166	39.34
760.346	38.82
760.526	38.15
760.706	38.11
760.886	38.97
761.066	39.61
761.246	39.52
761.426	39.17
761.606	39.09
761.786	39.8
761.966	39.9
762.146	39.84
762.326	40.07
762.506	40.71
762.686	40.61
762.866	40.46
763.046	39.94
763.225	39.82
763.405	40.26
763.585	40.61
763.765	40.14
763.945	40.18
764.124	40.21
764.304	40.45
764.484	40.29
764.664	40.47
764.843	40.72
765.023	41.22
765.203	41.05
765.382	41.26
765.562	40.93
765.741	41.72
765.921	42.04
766.101	41.83
766.28	41.74
766.46	42.02
766.639	41.64
766.819	41.1
766.998	40.38
767.178	40.92
767.357	40.27
767.537	40.88
767.716	40.75
767.896	40.5
768.075	40.21
768.254	40.34
768.434	40.47
768.613	40.92
768.792	40.3
768.972	40.76
769.151	40.77
769.33	41.15
769.51	40.83
769.689	40.79
769.868	40.38
770.047	40.69
770.226	40.45
770.406	40.21
770.585	39.91
770.764	41.06
770.943	41.62
771.122	41.73
771.301	41.37
771.48	41.47
771.66	41.45
771.839	41.76
772.018	42.73
772.197	42.78
772.376	42.34
772.555	42.71
772.734	43.08
772.913	41.92
773.092	41.26
773.271	41.42
773.449	40.56
773.628	40.28
773.807	41.11
773.986	41.05
774.165	40.9
774.344	41.6
774.523	41.51
774.701	41.46
774.88	42.45
775.059	43.25
775.238	43.4
775.417	44.21
775.595	44.13
775.774	44.25
775.953	43.65
776.131	43.64
776.31	43.35
776.489	44.28
776.667	44.06
776.846	43.32
777.025	42.96
777.203	43.32
777.382	43.09
777.56	43.32
777.739	43.54
777.917	42.76
778.096	43.05
778.274	43.44
778.453	42.48
778.631	42.68
778.81	42.8
778.988	42.66
779.166	42.76
779.345	42.61
779.523	43.09
779.702	42.71
779.88	43.68
780.058	43.78
780.237	43.61
780.415	43.41
780.593	42.71
780.771	43.78
780.95	44.35
781.128	44.39
781.306	44.58
781.484	44.63
781.662	44.31
781.841	44.75
782.019	44.69
782.197	45.3
782.375	45.82
782.553	46.38
782.731	46.03
782.909	45.86
783.087	45.45
783.265	45.44
783.443	44.49
783.621	45.12
783.799	44.79
783.977	45.06
784.155	44.26
784.333	44.06
784.511	43.02
784.689	43.49
784.867	43.91
785.045	43.5
785.223	43.45
785.4	43.57
785.578	42.91
785.756	42.98
785.934	43.36
786.112	43.93
786.289	44.35
786.467	44.62
786.645	44.41
786.823	43.47
787	43.61
787.178	43.32
787.356	43.25
787.533	42.95
787.711	42.16
787.889	41.63
788.066	40.94
788.244	40.39
788.421	40.76
788.599	39.13
788.776	38.51
788.954	39.11
789.131	40.83
789.309	41.9
789.486	42.62
789.664	42.8
789.841	42.89
790.019	43.32
790.196	43.88
790.373	43.74
790.551	45.02
790.728	46.24
790.906	46.15
791.083	44.88
791.26	44.2
791.437	43.79
791.615	44.43
791.792	43.9
791.969	43.54
792.146	42.7
792.324	42.78
792.501	42.32
792.678	42.06
792.855	41.23
793.032	41.3
793.209	41.26
793.387	41.15
793.564	40.67
793.741	40.48
793.918	41.54
794.095	40.46
794.272	39.85
794.449	39.65
794.626	40.06
794.803	40.94
794.98	40.73
795.157	40.59
795.334	40.61
795.511	39.32
795.688	39.42
795.864	39.11
796.041	40.92
796.218	41.6
796.395	41.96
796.572	41.49
796.749	41.37
796.925	40.87
797.102	41.12
797.279	40.96
797.456	43.11
797.632	44.16
797.809	43.65
797.986	43.06
798.162	42.11
798.339	41.66
798.516	42.08
798.692	41.51
798.869	42.18
799.046	42.11
799.222	41.11
799.399	40.41
799.575	39.59
799.752	39.84
799.928	40.12
800.105	40.05
800.281	40.66
800.458	41.31
800.634	40.79
800.811	40.21
800.987	40.41
801.163	41.11
801.34	40.82
801.516	40.15
801.692	39.75
801.869	39.4
802.045	40.31
802.221	40.66
802.398	39.18
802.574	40.48
802.75	40.95
802.926	40.79
803.103	41.32
803.279	40.36
803.455	40.52
803.631	40.9
803.807	41.25
803.983	41.87
804.16	41.23
804.336	41.05
804.512	39.48
804.688	39.62
804.864	41.03
805.04	40.21
805.216	40.36
805.392	41.36
805.568	41.13
805.744	41.03
805.92	39.5
806.096	40.21
806.272	40.7
806.448	42.04
806.623	42.14
806.799	40.76
806.975	41.1
807.151	41.3
807.327	40.75
807.503	41.07
807.678	39.58
807.854	39.14
808.03	38.84
808.206	38.26
808.381	37.54
808.557	36.55
808.733	36.5
808.908	37.06
809.084	37.92
809.26	38.26
809.435	37.52
809.611	38.38
809.787	39.57
809.962	39.96
810.138	41.15
810.313	41.32
810.489	43.01
810.664	42.99
810.84	42.26
811.015	40.93
811.191	38.65
811.366	36.9
811.542	36.87
811.717	35.35
811.892	35.56
812.068	34.51
812.243	34.26
812.419	33.06
812.594	31.52
812.769	31.46
812.944	32.83
813.12	34.63
813.295	36.01
813.47	36.19
813.645	37.7
813.821	37.24
813.996	36.6
814.171	37.53
814.346	37.33
814.521	38.29
814.697	38.01
814.872	37.96
815.047	38.57
815.222	39.32
815.397	38.56
815.572	37.92
815.747	37.62
815.922	38.15
816.097	36.66
816.272	36.85
816.447	37.57
816.622	36.57
816.797	35.71
816.972	35.32
817.147	34.92
817.322	35.7
817.496	36.04
817.671	35.35
817.846	35.72
818.021	36.71
818.196	37.33
818.371	36.44
818.545	37.85
818.72	37.53
818.895	37.87
819.069	38.75
819.244	38.01
819.419	38.04
819.594	37.77
819.768	37.03
819.943	37.35
820.117	36.18
820.292	36.2
820.467	36.36
820.641	36.26
820.816	35.35
820.99	35.17
821.165	35.42
821.339	35.02
821.514	35.49
821.688	35.75
821.863	35.56
822.037	35.84
822.212	35.44
822.386	35.48
822.56	35.63
822.735	35.62
822.909	35.51
823.084	35.39
823.258	35.61
823.432	35.41
823.606	35.17
823.781	35.11
823.955	35
824.129	35.46
824.303	35.34
824.478	35.17
824.652	35.51
824.826	35.57
825	35.67
825.174	34.97
825.348	35.01
825.523	35.77
825.697	35.54
825.871	35.86
826.045	35.92
826.219	35.84
826.393	36.13
826.567	35.89
826.741	35.81
826.915	35.42
827.089	36.25
827.263	35.93
827.437	35.62
827.611	35.82
827.784	35.06
827.958	34.78
828.132	34.7
828.306	34.45
828.48	34.26
828.654	34.37
828.827	34.94
829.001	34.87
829.175	34.99
829.349	34.4
829.522	34.45
829.696	35.27
829.87	35.53
830.044	35.28
830.217	35.27
830.391	36.12
830.565	35.26
830.738	35.18
830.912	35.01
831.085	34.79
831.259	36.43
831.432	35.2
831.606	34.78
831.779	34.87
831.953	35.72
832.126	35.74
832.3	34.27
832.473	34.05
832.647	34.26
832.82	33.92
832.994	33.98
833.167	33.69
833.34	35.01
833.514	35.35
833.687	35.02
833.86	34.91
834.034	34.57
834.207	35.47
834.38	35.59
834.553	35.38
834.727	35.53
834.9	35.78
835.073	35.16
835.246	34.5
835.419	33.91
835.593	33.96
835.766	33.43
835.939	33.75
836.112	34.24
836.285	34.47
836.458	33.93
836.631	34.07
836.804	34.36
836.977	35.45
837.15	35.73
837.323	36.81
837.496	38.29
837.669	38.42
837.842	37.5
838.015	35.56
838.188	36.18
838.361	37.03
838.533	36.68
838.706	36.11
838.879	35.58
839.052	35.47
839.225	36.18
839.398	33.48
839.57	35.28
839.743	36.52
839.916	36.86
840.088	37.25
840.261	37.62
840.434	38.25
840.607	39.03
840.779	39.61
840.952	39.17
841.124	39.02
841.297	41.23
841.47	39.22
841.642	39.28
841.815	41
841.987	40.69
842.16	40.77
842.332	39.43
842.505	36.94
842.677	36.82
842.85	36.48
843.022	32.6
843.194	31.79
843.367	34.46
843.539	37.34
843.712	35
843.884	35.44
844.056	36.32
844.229	37.39
844.401	39.96
844.573	40.14
844.745	39.16
844.918	41.63
845.09	42.76
845.262	40.73
845.434	38.71
845.606	40.94
845.779	41.09
845.951	40.75
846.123	40.96
846.295	40.33
846.467	38.56
846.639	39.57
846.811	39.84
846.983	37
847.155	40.01
847.327	38.4
847.499	37
847.671	36.47
847.843	33.42
848.015	32.99
848.187	30.37
848.359	31.18
848.531	32.73
848.703	32.62
848.875	35
849.047	32.84
849.218	35.82
849.39	35.48
849.562	34.63
849.734	35.9
849.905	35.85
850.077	39.11
850.249	41.78
850.421	41.79
850.592	43.5
850.764	41.65
850.936	41.73
851.107	40.04
851.279	40.24
851.451	40.33
851.622	39.88
851.794	40.41
851.965	41.98
852.137	41.25
852.308	42.14
852.48	38.7
852.651	37.8
852.823	38.11
852.994	37.66
853.166	39.25
853.337	38.84
853.509	40.17
853.68	39.79
853.851	39.22
854.023	38.94
854.194	35.79
854.365	38.61
854.537	40.53
854.708	39.09
854.879	39.17
855.05	39.19
855.222	40.14
855.393	38.58
855.564	37.69
855.735	35.83
855.906	32.55
856.078	36
856.249	34.8
856.42	34.07
856.591	34.24
856.762	35.93
856.933	34.51
857.104	33.2
857.275	34.68
857.446	36.31
857.617	37.88
857.788	40.39
857.959	35.12
858.13	35.61
858.301	36.85
858.472	36.92
858.643	34.1
858.814	33.51
858.985	36.87
859.155	36.27
859.326	36.55
859.497	35.31
859.668	35.34
859.839	39.63
860.009	37.42
860.18	36.56
860.351	37.52
860.522	39.54
860.692	41.08
860.863	39.42
861.034	41.47
861.204	39.95
861.375	38.4
861.546	36.84
861.716	38.1
861.887	40.4
862.057	42.37
862.228	46.71
862.398	46.2
862.569	43.16
862.739	44.47
862.91	44.38
863.08	42.57
863.251	42.03
863.421	43.21
863.592	41.61
863.762	45.12
863.932	42.26
864.103	37.41
864.273	37.68
864.443	38.08
864.614	35.2
864.784	32.56
864.954	40.06
865.125	39.45
865.295	38.96
865.465	39.6
865.635	34.73
865.805	34.88
865.976	35.34
866.146	31.85
866.316	37.43
866.486	39.55
866.656	38.88
866.826	36.47
866.996	38.86
867.166	38.99
867.336	40.53
867.506	44.22
867.676	43.57
867.846	40.91
868.016	42.87
868.186	36.09
868.356	33.88
868.526	37.8
868.696	38.85
868.866	39.74
869.036	39.44
869.206	36.62
869.376	34.4
869.545	31.34
869.715	34.31
869.885	37.43
870.055	42.45
870.224	43.99
870.394	43.12
870.564	43.25
870.734	42.34
870.903	43.13
871.073	43.88
871.243	44.88
871.412	48.8
871.582	49.49
871.751	49.44
871.921	48.36
872.091	48.12
872.26	46.13
872.43	43.48
872.599	39.87
872.769	37.32
872.938	37.67
873.108	39.43
873.277	36.4
873.446	34.08
873.616	30.54
873.785	29.76
873.955	25.06
874.124	27.86
874.293	24.67
874.463	27.23
874.632	27.8
874.801	27.74
874.971	26.8
875.14	28.82
875.309	26.91
875.478	30.51
875.647	33.97
875.817	32.89
875.986	30.24
876.155	36.4
876.324	36.98
876.493	39.78
876.662	41.9
876.831	38.92
877	36.7
877.17	40.18
877.339	39.1
877.508	32.81
877.677	40.16
877.846	36.61
878.015	31.03
878.184	30.88
878.352	26.79
878.521	23.88
878.69	24.75
878.859	30.31
879.028	29.3
879.197	28.36
879.366	30.1
879.534	29.74
879.703	32.03
879.872	34.17
880.041	33.16
880.21	33.02
880.378	31.99
880.547	31.22
880.716	28.87
880.884	28.29
881.053	28.41
881.222	28.55
881.39	27.85
881.559	27.6
881.727	27.4
881.896	27.79
882.065	28.32
882.233	28.48
882.402	28.68
882.57	29.26
882.739	29.12
882.907	29.61
883.076	29.82
883.244	29.72
883.412	29.51
883.581	29.01
883.749	28.71
883.918	28.75
884.086	29.05
884.254	28.65
884.423	28.25
884.591	29.01
884.759	27.5
884.927	27.14
885.096	27.72
885.264	29.13
885.432	30.18
885.6	31.06
885.769	30.31
885.937	28.45
886.105	28.55
886.273	30.92
886.441	32.08
886.609	33.47
886.777	33.44
886.945	32.81
887.113	31
887.281	31.88
887.449	32.07
887.617	33.28
887.785	33.15
887.953	34.83
888.121	34.75
888.289	33.72
888.457	32.07
888.625	32.23
888.793	34.37
888.961	36.85
889.129	38.71
889.296	38.32
889.464	37.75
889.632	42.92
889.8	44.92
889.967	42.08
890.135	41.49
