Data from 2938771__Reflection_02.txt Node
Date: Fri Mar 13 15:02:23 EDT 2015
User: robert
Spectrometer: USB4E03002
Autoset integration time: false
Trigger mode: 4
Integration Time (sec): 1.000000E-1
Scans to average: 10
Electric dark correction enabled: false
Nonlinearity correction enabled: false
Boxcar width: 5
Stray light correction enabled: false
XAxis mode: Wavelengths
Stop averaging: false
Number of Pixels in Spectrum: 3648
>>>>>Begin Spectral Data<<<<<
177.575	-317.36
177.794	-710.96
178.014	-2259.26
178.233	1195.52
178.452	2140.54
178.672	530.68
178.891	650
179.11	4321.74
179.33	-1440.3
179.549	-628.57
179.768	-2566.67
179.987	1300
180.207	3740.74
180.426	1695.38
180.645	-2720
180.864	-1664.52
181.084	-325.59
181.303	-314.95
181.522	-1668.09
181.741	6460
181.96	368.57
182.179	327.85
182.398	254.56
182.618	205.03
182.837	266.79
183.056	247.13
183.275	220.41
183.494	182.4
183.713	243.35
183.932	237.46
184.151	144.76
184.37	144.44
184.589	133.71
184.808	270
185.027	157.54
185.246	150
185.465	113.84
185.684	108.65
185.903	111.7
186.122	94.9
186.341	96.02
186.56	119.77
186.779	190.16
186.998	182.83
187.216	218.4
187.435	623.73
187.654	280.3
187.873	217.02
188.092	202.74
188.311	443.93
188.53	399.52
188.748	1385.94
188.967	-3604.17
189.186	702.9
189.405	788.49
189.623	423.19
189.842	315.7
190.061	330.77
190.28	461.89
190.498	323.92
190.717	263.38
190.936	284.87
191.154	252.25
191.373	255.69
191.592	233.99
191.81	171.47
192.029	184.13
192.248	187.5
192.466	203.83
192.685	203.77
192.904	245.9
193.122	222.78
193.341	311.47
193.559	506.88
193.778	346.24
193.996	500
194.215	4424
194.433	1083.18
194.652	775
194.87	1092.55
195.089	17760
195.307	3334.62
195.526	-733.64
195.744	1976.6
195.963	449.18
196.181	379.34
196.399	242.93
196.618	245.81
196.836	278.93
197.055	366.23
197.273	685.71
197.491	1991.18
197.71	1277.78
197.928	462.01
198.146	751.69
198.365	1274.67
198.583	1392.42
198.801	-335.81
199.019	-281.03
199.238	-183.46
199.456	-182.68
199.674	-243.71
199.892	-274.8
200.111	-246.15
200.329	-203.31
200.547	-167.96
200.765	-372.99
200.983	-266.26
201.202	-661.68
201.42	-1493.75
201.638	3660.87
201.856	935.05
202.074	1897.56
202.292	481.05
202.51	613.95
202.728	361.28
202.946	533.56
203.165	1198.41
203.383	69300
203.601	511.97
203.819	515.84
204.037	225.13
204.255	238.25
204.473	142.79
204.691	296.13
204.909	150.5
205.127	178.24
205.345	141.12
205.562	91.3
205.78	115.88
205.998	152.15
206.216	163.87
206.434	175
206.652	212.33
206.87	270.38
207.088	228.6
207.306	316.4
207.523	273.57
207.741	261.33
207.959	270.53
208.177	280.49
208.395	308.1
208.612	380.19
208.83	311.02
209.048	332.1
209.266	2510
209.483	-1491.18
209.701	-1948
209.919	740.63
210.136	9180
210.354	-1116.67
210.572	-199.45
210.79	456.07
211.007	192.83
211.225	1018.64
211.442	214.39
211.66	124.02
211.878	144.96
212.095	143.5
212.313	176.43
212.53	153.3
212.748	120.89
212.966	93.81
213.183	125.12
213.401	134.17
213.618	95.82
213.836	89.08
214.053	116.67
214.271	103.77
214.488	101.53
214.705	110.66
214.923	99.26
215.14	94.09
215.358	79.87
215.575	77.26
215.793	70.16
216.01	80.06
216.227	109.72
216.445	99.49
216.662	100.25
216.879	97.65
217.097	92.01
217.314	109.89
217.531	123.38
217.749	132.14
217.966	136.69
218.183	136.82
218.4	106.3
218.618	88.25
218.835	87.12
219.052	83.39
219.269	77.37
219.487	63.37
219.704	43.29
219.921	36.08
220.138	34.23
220.355	32.03
220.572	39.39
220.79	42.88
221.007	37.84
221.224	32.28
221.441	34.79
221.658	39.45
221.875	42.71
222.092	55.8
222.309	55.3
222.526	54.62
222.743	52.68
222.96	47.29
223.177	52.92
223.394	48.51
223.611	50.65
223.828	45.27
224.045	48.27
224.262	56.01
224.479	47.42
224.696	48.7
224.913	49.14
225.13	48.37
225.347	50.43
225.564	43.16
225.781	42.73
225.997	36.38
226.214	37.98
226.431	35.27
226.648	24.05
226.865	23.24
227.082	20.4
227.298	17.71
227.515	15.79
227.732	12.49
227.949	11.39
228.165	10.58
228.382	10.28
228.599	7.7
228.816	6.82
229.032	7.12
229.249	6.18
229.466	6.07
229.682	5.99
229.899	5.66
230.116	6.08
230.332	7.01
230.549	7.13
230.765	7.9
230.982	9.84
231.199	10.04
231.415	11.53
231.632	12.01
231.848	13.91
232.065	14.24
232.281	14.87
232.498	14.91
232.714	15.19
232.931	16.76
233.147	16.11
233.364	15.18
233.58	14.72
233.797	13.37
234.013	14.61
234.23	12.41
234.446	13.17
234.662	11.84
234.879	12.33
235.095	11.49
235.312	11.75
235.528	9.71
235.744	8.5
235.961	10.08
236.177	9.61
236.393	9.04
236.61	8.49
236.826	7.2
237.042	10.16
237.258	8.11
237.475	9.13
237.691	7.79
237.907	10.24
238.123	11.85
238.339	11.58
238.556	11.28
238.772	10.22
238.988	12.47
239.204	12.13
239.42	10.85
239.636	12.36
239.853	11.18
240.069	10.76
240.285	10.52
240.501	9.73
240.717	9.66
240.933	9.7
241.149	9.98
241.365	9.24
241.581	8.95
241.797	9.39
242.013	8.78
242.229	8.9
242.445	8.52
242.661	8.34
242.877	8.45
243.093	8.32
243.309	7.98
243.525	7.65
243.741	7.74
243.957	8.05
244.173	7.59
244.388	8.06
244.604	7.65
244.82	8.05
245.036	7.66
245.252	7.17
245.468	6.6
245.683	6.96
245.899	6.64
246.115	6.18
246.331	5.8
246.547	5.55
246.762	5.37
246.978	5.43
247.194	5.3
247.409	5.51
247.625	5.16
247.841	5.39
248.057	5.27
248.272	5.41
248.488	5.71
248.703	6.06
248.919	6.29
249.135	6.38
249.35	6.77
249.566	7.16
249.782	7.33
249.997	7.99
250.213	7.79
250.428	8.15
250.644	7.73
250.859	7.15
251.075	7.15
251.29	6.51
251.506	6.75
251.721	6.84
251.937	6.41
252.152	5.93
252.368	6.47
252.583	6.48
252.798	6.41
253.014	7.27
253.229	8.09
253.445	7.77
253.66	8.3
253.875	8.3
254.091	7.76
254.306	8.63
254.521	9.23
254.737	9.37
254.952	9.1
255.167	8.68
255.383	8.27
255.598	6.8
255.813	6.97
256.028	6.14
256.244	5.95
256.459	6.43
256.674	4.85
256.889	4.55
257.104	4
257.32	4.67
257.535	4.92
257.75	4.92
257.965	4.76
258.18	4.48
258.395	4.74
258.61	4.84
258.826	4.6
259.041	4.9
259.256	4.65
259.471	4.75
259.686	4.51
259.901	4.34
260.116	4.16
260.331	4.41
260.546	4.38
260.761	4.34
260.976	4.08
261.191	4.11
261.406	4.1
261.621	4.29
261.836	4
262.05	3.39
262.265	3.58
262.48	3.47
262.695	3.83
262.91	4.35
263.125	4.44
263.34	4.33
263.555	4.27
263.769	4.24
263.984	3.82
264.199	3.47
264.414	4.37
264.629	4.49
264.843	4.69
265.058	3.9
265.273	3.28
265.488	3.52
265.702	4.36
265.917	4.24
266.132	4.5
266.346	5.1
266.561	5.89
266.776	6.06
266.99	5.76
267.205	5.45
267.42	5.55
267.634	5.62
267.849	5.56
268.063	5.56
268.278	5.67
268.492	5.36
268.707	4.56
268.922	3.99
269.136	4.26
269.351	4.01
269.565	4.44
269.78	4.57
269.994	4.93
270.209	4.51
270.423	4.26
270.637	3.98
270.852	3.98
271.066	4.73
271.281	4.94
271.495	4.49
271.709	4.14
271.924	4.2
272.138	4.08
272.353	3.89
272.567	4.27
272.781	4.03
272.996	4.28
273.21	4.64
273.424	4.87
273.638	4.59
273.853	4.79
274.067	5.53
274.281	5.33
274.495	5.18
274.71	5.6
274.924	5.49
275.138	5.83
275.352	5.55
275.566	5.01
275.781	4.31
275.995	4.87
276.209	4.76
276.423	4.34
276.637	4.07
276.851	4.37
277.065	4.2
277.279	3.96
277.493	3.79
277.707	4.29
277.921	4.47
278.135	4.76
278.349	4.17
278.563	4.54
278.777	4.55
278.991	4.88
279.205	4.74
279.419	4.27
279.633	4.37
279.847	4.31
280.061	3.52
280.275	3.49
280.489	3.41
280.703	3.56
280.917	3.06
281.131	3.32
281.344	3.1
281.558	2.71
281.772	2.95
281.986	2.98
282.2	3.15
282.414	3.42
282.627	3.35
282.841	2.99
283.055	2.99
283.269	3.08
283.482	2.66
283.696	3.1
283.91	3.03
284.123	2.68
284.337	2.94
284.551	2.78
284.764	2.93
284.978	2.98
285.192	3.06
285.405	3.19
285.619	3.09
285.833	3.37
286.046	2.79
286.26	3.15
286.473	3.25
286.687	2.86
286.9	2.93
287.114	2.84
287.327	2.71
287.541	2.89
287.754	2.82
287.968	2.81
288.181	2.73
288.395	3.13
288.608	3.24
288.822	3.44
289.035	3.56
289.248	3.43
289.462	3.46
289.675	3.58
289.889	3.54
290.102	3.48
290.315	3.82
290.529	4.14
290.742	3.91
290.955	3.71
291.169	4.01
291.382	4.15
291.595	4.43
291.808	4.54
292.022	4.52
292.235	4.52
292.448	4.39
292.661	4.14
292.875	3.85
293.088	4.27
293.301	4.51
293.514	4.44
293.727	4.55
293.94	4.51
294.153	4.44
294.367	4.15
294.58	4.09
294.793	4.21
295.006	4.15
295.219	4.19
295.432	3.71
295.645	3.89
295.858	3.5
296.071	3.37
296.284	3.27
296.497	3.18
296.71	3.58
296.923	3.71
297.136	3.73
297.349	3.67
297.562	3.71
297.775	3.95
297.988	3.89
298.201	4.12
298.414	4.17
298.626	4.55
298.839	4.53
299.052	4.42
299.265	4.23
299.478	4.36
299.691	4.64
299.903	4.43
300.116	4.46
300.329	4.39
300.542	4.45
300.755	4.32
300.967	3.97
301.18	4
301.393	4.31
301.605	4.72
301.818	4.56
302.031	4.66
302.243	4.71
302.456	5
302.669	4.98
302.881	5.09
303.094	5.11
303.307	4.93
303.519	4.97
303.732	4.78
303.944	4.44
304.157	4.64
304.37	4.62
304.582	4.45
304.795	4.32
305.007	4.45
305.22	4.24
305.432	4.26
305.645	4.55
305.857	5.15
306.069	5.25
306.282	5.34
306.494	5.27
306.707	4.77
306.919	4.91
307.132	4.79
307.344	4.71
307.556	5
307.769	5.16
307.981	5.24
308.193	4.88
308.406	4.8
308.618	4.71
308.83	4.74
309.043	5.03
309.255	5.22
309.467	5.24
309.679	5.03
309.892	4.89
310.104	5.06
310.316	4.64
310.528	4.4
310.74	4.5
310.953	4.55
311.165	4.48
311.377	4.55
311.589	4.78
311.801	4.82
312.013	4.97
312.225	4.91
312.437	4.81
312.649	5.17
312.862	5.64
313.074	5.49
313.286	5.83
313.498	5.81
313.71	6
313.922	6.1
314.134	6.27
314.346	6.11
314.558	6.49
314.77	6.43
314.982	6.31
315.193	6.07
315.405	6.4
315.617	6.21
315.829	6.33
316.041	5.79
316.253	5.39
316.465	5.74
316.677	6.14
316.888	5.89
317.1	5.6
317.312	5.87
317.524	5.68
317.736	6.17
317.947	6.15
318.159	6.57
318.371	7.24
318.583	7.59
318.794	7.22
319.006	7.03
319.218	6.79
319.43	7.11
319.641	7.24
319.853	8.02
320.064	7.47
320.276	8
320.488	7.9
320.699	8
320.911	8.01
321.123	7.68
321.334	7.57
321.546	7.88
321.757	8.02
321.969	7.65
322.18	7.72
322.392	7.84
322.603	7.61
322.815	7.56
323.026	7.72
323.238	7.72
323.449	7.89
323.661	7.83
323.872	8.05
324.083	8.09
324.295	8.7
324.506	8.42
324.718	8.13
324.929	8.03
325.14	8.04
325.352	7.68
325.563	7.7
325.774	7.82
325.986	8.18
326.197	8.01
326.408	8.46
326.62	8.29
326.831	8.09
327.042	8.18
327.253	8.4
327.464	9.04
327.676	9.31
327.887	9.4
328.098	10.07
328.309	10.12
328.52	10.49
328.732	10.29
328.943	10.66
329.154	11.26
329.365	11.44
329.576	11.4
329.787	11.21
329.998	11.09
330.209	11.45
330.42	11.22
330.631	11.56
330.842	11.63
331.053	11.57
331.264	11.21
331.475	11.24
331.686	11.62
331.897	11.9
332.108	11.86
332.319	12.41
332.53	12.17
332.741	12.5
332.952	12.42
333.163	12.01
333.374	12.07
333.585	12.46
333.795	12.38
334.006	12.23
334.217	12.18
334.428	12.29
334.639	12.2
334.849	12.12
335.06	11.64
335.271	11.8
335.482	11.95
335.692	12.1
335.903	11.68
336.114	11.75
336.325	11.4
336.535	11.17
336.746	11.17
336.957	10.72
337.167	10.6
337.378	10.58
337.589	10.52
337.799	10.57
338.01	10.45
338.22	10.75
338.431	10.38
338.642	10.75
338.852	11.03
339.063	11.01
339.273	11.51
339.484	11.73
339.694	11.82
339.905	11.67
340.115	11.99
340.326	12.03
340.536	11.93
340.746	12.1
340.957	12.22
341.167	11.98
341.378	11.66
341.588	11.25
341.799	11.29
342.009	11.29
342.219	11.43
342.43	11.01
342.64	11.02
342.85	10.95
343.061	10.85
343.271	10.76
343.481	10.74
343.691	10.56
343.902	10.66
344.112	10.61
344.322	10.52
344.532	10.53
344.743	10.95
344.953	10.93
345.163	10.88
345.373	10.71
345.583	10.75
345.793	10.91
346.004	11.35
346.214	11.5
346.424	11.54
346.634	11.47
346.844	11.2
347.054	10.88
347.264	11.2
347.474	11.13
347.684	11.24
347.894	10.97
348.104	11.09
348.314	10.8
348.524	10.22
348.734	10.1
348.944	10.49
349.154	10.78
349.364	10.84
349.574	10.47
349.784	10.7
349.994	11.21
350.204	11.36
350.413	11.12
350.623	11.12
350.833	11.34
351.043	11.44
351.253	11.21
351.463	11.21
351.672	10.89
351.882	11.09
352.092	10.93
352.302	10.65
352.511	10.7
352.721	10.66
352.931	10.97
353.141	10.85
353.35	10.85
353.56	10.8
353.77	10.56
353.979	10.56
354.189	10.39
354.399	10.51
354.608	10.23
354.818	10.02
355.027	10.01
355.237	9.88
355.447	10.17
355.656	9.91
355.866	9.79
356.075	9.78
356.285	9.83
356.494	9.8
356.704	9.49
356.913	9.6
357.123	9.45
357.332	9.51
357.542	9.38
357.751	9.31
357.96	9.44
358.17	9.42
358.379	9.28
358.589	9.34
358.798	9.58
359.007	9.62
359.217	9.65
359.426	9.79
359.635	9.62
359.845	9.47
360.054	9.23
360.263	9.11
360.472	9.16
360.682	9.06
360.891	9.04
361.1	8.84
361.309	8.83
361.519	8.61
361.728	8.61
361.937	8.68
362.146	8.7
362.355	8.76
362.564	8.79
362.774	8.79
362.983	8.85
363.192	8.82
363.401	8.53
363.61	8.76
363.819	8.93
364.028	8.74
364.237	8.62
364.446	8.45
364.655	8.68
364.864	8.78
365.073	8.89
365.282	9.2
365.491	9.09
365.7	9.41
365.909	9.42
366.118	9.57
366.327	9.85
366.536	10.08
366.745	10.14
366.954	9.83
367.162	9.83
367.371	9.6
367.58	9.36
367.789	9.51
367.998	9.33
368.207	9.01
368.415	8.92
368.624	8.83
368.833	8.59
369.042	8.9
369.25	9.13
369.459	9.22
369.668	9.29
369.877	9.25
370.085	9.26
370.294	9.5
370.503	9.91
370.711	9.92
370.92	9.88
371.129	9.86
371.337	9.62
371.546	9.52
371.754	9.53
371.963	9.6
372.171	9.82
372.38	9.88
372.589	9.79
372.797	9.55
373.006	9.27
373.214	9.27
373.423	9.39
373.631	9.54
373.84	9.52
374.048	9.18
374.256	9.13
374.465	9.27
374.673	9.22
374.882	9.19
375.09	9.3
375.298	9.83
375.507	9.75
375.715	9.52
375.923	9.24
376.132	9.31
376.34	9.25
376.548	9.53
376.757	9.19
376.965	9.07
377.173	8.98
377.381	8.95
377.59	8.68
377.798	8.9
378.006	9.02
378.214	9.05
378.423	8.95
378.631	9.12
378.839	8.85
379.047	8.91
379.255	8.91
379.463	8.86
379.671	8.68
379.879	8.68
380.088	8.45
380.296	8.32
380.504	8.49
380.712	8.55
380.92	8.53
381.128	8.52
381.336	8.48
381.544	8.35
381.752	8.31
381.96	8.29
382.168	8.16
382.376	8.31
382.584	8.37
382.791	8.24
382.999	8.12
383.207	8.04
383.415	8.04
383.623	7.76
383.831	7.96
384.039	8.07
384.247	8.04
384.454	8.04
384.662	8.02
384.87	7.95
385.078	7.99
385.285	7.97
385.493	7.92
385.701	7.74
385.909	7.98
386.116	8
386.324	8.02
386.532	8.07
386.739	8.03
386.947	7.95
387.155	8.05
387.362	8.11
387.57	8.28
387.778	8.48
387.985	8.67
388.193	8.74
388.4	8.64
388.608	8.69
388.816	8.61
389.023	8.66
389.231	8.63
389.438	8.61
389.646	8.53
389.853	8.59
390.061	8.41
390.268	8.26
390.475	8.17
390.683	8.15
390.89	7.9
391.098	7.89
391.305	7.94
391.512	7.73
391.72	7.64
391.927	7.69
392.135	7.45
392.342	7.44
392.549	7.44
392.756	7.24
392.964	7.25
393.171	7.31
393.378	7.2
393.586	7.14
393.793	7.32
394	7.41
394.207	7.43
394.414	7.52
394.622	7.54
394.829	7.56
395.036	7.68
395.243	7.57
395.45	7.64
395.657	7.73
395.864	7.71
396.072	7.68
396.279	7.81
396.486	7.68
396.693	7.84
396.9	7.99
397.107	8.03
397.314	8.13
397.521	8.26
397.728	8.36
397.935	8.61
398.142	8.83
398.349	8.91
398.556	8.7
398.763	8.82
398.97	8.58
399.177	8.36
399.383	8.23
399.59	8.35
399.797	8.28
400.004	8.11
400.211	7.95
400.418	7.7
400.625	7.76
400.831	7.78
401.038	7.72
401.245	7.89
401.452	8.16
401.658	8.2
401.865	8.07
402.072	8.2
402.279	8.2
402.485	8.15
402.692	8.19
402.899	8.11
403.105	8.12
403.312	8.17
403.519	7.95
403.725	7.73
403.932	7.84
404.138	7.88
404.345	7.75
404.552	7.83
404.758	7.77
404.965	7.66
405.171	7.63
405.378	7.6
405.584	7.48
405.791	7.56
405.997	7.62
406.204	7.56
406.41	7.56
406.617	7.8
406.823	7.7
407.029	7.85
407.236	7.89
407.442	7.83
407.649	7.86
407.855	7.93
408.061	8.08
408.268	8
408.474	8.01
408.68	7.85
408.887	7.65
409.093	7.79
409.299	7.73
409.505	7.71
409.712	7.78
409.918	7.84
410.124	7.91
410.33	7.99
410.537	8.13
410.743	8.13
410.949	8.13
411.155	8.2
411.361	8.15
411.567	8.28
411.773	8.48
411.98	8.35
412.186	8.24
412.392	8.21
412.598	8.03
412.804	7.98
413.01	7.94
413.216	8.19
413.422	7.96
413.628	8
413.834	7.97
414.04	7.87
414.246	7.97
414.452	8.1
414.658	8.16
414.864	8.28
415.07	8.31
415.275	8.27
415.481	8.06
415.687	8.24
415.893	8.02
416.099	7.8
416.305	7.77
416.511	7.64
416.716	7.54
416.922	7.42
417.128	7.22
417.334	7.16
417.539	7.13
417.745	7.02
417.951	6.86
418.157	6.84
418.362	6.78
418.568	6.72
418.774	6.68
418.979	6.68
419.185	6.61
419.391	6.59
419.596	6.51
419.802	6.4
420.008	6.39
420.213	6.46
420.419	6.45
420.624	6.43
420.83	6.39
421.035	6.36
421.241	6.23
421.446	6.21
421.652	6.17
421.857	6.18
422.063	6.25
422.268	6.29
422.474	6.27
422.679	6.32
422.885	6.23
423.09	6.22
423.295	6.23
423.501	6.25
423.706	6.24
423.911	6.22
424.117	6.2
424.322	6.12
424.527	6.06
424.733	6.02
424.938	6.02
425.143	6.16
425.349	6.18
425.554	6.21
425.759	6.22
425.964	6.29
426.169	6.37
426.375	6.38
426.58	6.44
426.785	6.53
426.99	6.56
427.195	6.58
427.4	6.6
427.605	6.65
427.811	6.74
428.016	6.8
428.221	6.74
428.426	6.7
428.631	6.76
428.836	6.78
429.041	6.8
429.246	6.7
429.451	6.71
429.656	6.71
429.861	6.62
430.066	6.56
430.271	6.53
430.476	6.47
430.681	6.48
430.886	6.44
431.09	6.51
431.295	6.66
431.5	6.82
431.705	6.74
431.91	6.67
432.115	6.71
432.32	6.82
432.524	6.82
432.729	6.9
432.934	6.84
433.139	6.78
433.343	6.74
433.548	6.63
433.753	6.69
433.958	6.78
434.162	6.89
434.367	6.85
434.572	6.76
434.776	6.84
434.981	6.9
435.186	7.04
435.39	7.15
435.595	7.26
435.799	7.19
436.004	7.12
436.209	7.08
436.413	7.15
436.618	7.21
436.822	7.16
437.027	7.08
437.231	7.03
437.436	6.95
437.64	6.92
437.845	6.8
438.049	6.91
438.253	6.83
438.458	6.83
438.662	6.61
438.867	6.63
439.071	6.62
439.275	6.7
439.48	6.6
439.684	6.56
439.888	6.57
440.093	6.53
440.297	6.39
440.501	6.34
440.706	6.35
440.91	6.44
441.114	6.43
441.318	6.53
441.523	6.49
441.727	6.53
441.931	6.51
442.135	6.47
442.339	6.54
442.543	6.67
442.748	6.76
442.952	6.73
443.156	6.76
443.36	6.82
443.564	6.69
443.768	6.74
443.972	6.68
444.176	6.73
444.38	6.68
444.584	6.68
444.788	6.63
444.992	6.57
445.196	6.51
445.4	6.5
445.604	6.41
445.808	6.37
446.012	6.27
446.216	6.36
446.42	6.31
446.624	6.24
446.828	6.21
447.032	6.13
447.235	6.12
447.439	6.16
447.643	6.13
447.847	6.08
448.051	6.09
448.254	6.12
448.458	6.14
448.662	6.25
448.866	6.42
449.069	6.46
449.273	6.5
449.477	6.61
449.681	6.6
449.884	6.6
450.088	6.74
450.292	6.99
450.495	7.05
450.699	7.04
450.902	7.04
451.106	6.92
451.31	7.09
451.513	7.27
451.717	7.17
451.92	7.14
452.124	7.1
452.327	7
452.531	6.91
452.734	6.9
452.938	6.93
453.141	6.87
453.345	7
453.548	6.86
453.752	6.73
453.955	6.79
454.158	6.82
454.362	6.9
454.565	7.01
454.769	7
454.972	6.94
455.175	7.02
455.379	7.06
455.582	7.07
455.785	7.01
455.988	7.03
456.192	7.19
456.395	7.23
456.598	7.25
456.801	7.24
457.005	7.26
457.208	7.28
457.411	7.02
457.614	6.86
457.817	6.72
458.021	6.61
458.224	6.64
458.427	6.47
458.63	6.36
458.833	6.31
459.036	6.14
459.239	6.09
459.442	6.02
459.645	6.07
459.848	6.13
460.051	6.18
460.254	6.24
460.457	6.14
460.66	6.17
460.863	6.25
461.066	6.35
461.269	6.52
461.472	6.61
461.675	6.68
461.878	6.73
462.081	6.8
462.284	6.92
462.486	6.97
462.689	7.14
462.892	7.2
463.095	7.22
463.298	7.27
463.5	7.2
463.703	7.12
463.906	7.2
464.109	7.19
464.311	7.19
464.514	7.16
464.717	7.21
464.92	7.23
465.122	7.24
465.325	7.23
465.528	7.07
465.73	7.13
465.933	7.21
466.135	7.2
466.338	7.28
466.541	7.35
466.743	7.2
466.946	7.23
467.148	7.24
467.351	7.15
467.553	7.19
467.756	7.24
467.958	7.18
468.161	7.13
468.363	7.11
468.566	7.1
468.768	6.95
468.971	6.96
469.173	6.88
469.375	6.85
469.578	6.92
469.78	6.96
469.983	6.96
470.185	7.03
470.387	7.1
470.59	7.26
470.792	7.25
470.994	7.3
471.196	7.39
471.399	7.51
471.601	7.54
471.803	7.6
472.005	7.63
472.208	7.69
472.41	7.73
472.612	7.72
472.814	7.58
473.016	7.53
473.218	7.62
473.421	7.55
473.623	7.5
473.825	7.45
474.027	7.57
474.229	7.55
474.431	7.54
474.633	7.6
474.835	7.47
475.037	7.55
475.239	7.72
475.441	7.71
475.643	7.89
475.845	7.79
476.047	7.82
476.249	7.71
476.451	7.68
476.653	7.69
476.855	7.57
477.057	7.7
477.258	7.72
477.46	7.6
477.662	7.59
477.864	7.5
478.066	7.47
478.268	7.49
478.469	7.44
478.671	7.47
478.873	7.44
479.075	7.39
479.276	7.35
479.478	7.23
479.68	7.28
479.882	7.28
480.083	7.26
480.285	7.33
480.487	7.36
480.688	7.29
480.89	7.26
481.091	7.12
481.293	7.05
481.495	6.93
481.696	6.82
481.898	6.68
482.099	6.51
482.301	6.38
482.502	6.2
482.704	6.06
482.905	5.98
483.107	5.88
483.308	5.79
483.51	5.72
483.711	5.67
483.913	5.62
484.114	5.6
484.315	5.59
484.517	5.59
484.718	5.58
484.92	5.59
485.121	5.58
485.322	5.62
485.524	5.7
485.725	5.72
485.926	5.76
486.127	5.81
486.329	5.79
486.53	5.79
486.731	5.81
486.932	5.86
487.134	5.84
487.335	5.89
487.536	5.86
487.737	5.83
487.938	5.87
488.139	5.91
488.341	5.94
488.542	5.99
488.743	6.06
488.944	6.11
489.145	6.16
489.346	6.26
489.547	6.28
489.748	6.36
489.949	6.4
490.15	6.41
490.351	6.35
490.552	6.34
490.753	6.33
490.954	6.28
491.155	6.25
491.356	6.22
491.557	6.21
491.758	6.19
491.959	6.16
492.159	6.2
492.36	6.23
492.561	6.35
492.762	6.44
492.963	6.5
493.164	6.64
493.364	6.71
493.565	6.77
493.766	6.88
493.967	7.05
494.167	7.12
494.368	7.24
494.569	7.35
494.769	7.41
494.97	7.47
495.171	7.48
495.371	7.41
495.572	7.49
495.773	7.53
495.973	7.5
496.174	7.41
496.375	7.48
496.575	7.47
496.776	7.43
496.976	7.4
497.177	7.35
497.377	7.42
497.578	7.54
497.778	7.6
497.979	7.6
498.179	7.67
498.38	7.74
498.58	7.79
498.78	7.77
498.981	7.85
499.181	7.82
499.382	7.9
499.582	7.84
499.782	7.84
499.983	7.78
500.183	7.93
500.383	7.86
500.584	7.91
500.784	7.9
500.984	8.06
501.184	8.1
501.385	8.2
501.585	8.14
501.785	8.3
501.985	8.33
502.185	8.38
502.386	8.45
502.586	8.47
502.786	8.46
502.986	8.41
503.186	8.35
503.386	8.31
503.586	8.35
503.786	8.44
503.987	8.46
504.187	8.39
504.387	8.44
504.587	8.38
504.787	8.48
504.987	8.46
505.187	8.6
505.387	8.58
505.587	8.72
505.786	8.72
505.986	8.68
506.186	8.61
506.386	8.62
506.586	8.6
506.786	8.58
506.986	8.57
507.186	8.58
507.386	8.49
507.585	8.52
507.785	8.4
507.985	8.35
508.185	8.39
508.384	8.36
508.584	8.39
508.784	8.41
508.984	8.46
509.183	8.42
509.383	8.5
509.583	8.56
509.782	8.51
509.982	8.56
510.182	8.69
510.381	8.72
510.581	8.74
510.781	8.73
510.98	8.75
511.18	8.7
511.379	8.78
511.579	8.77
511.778	8.73
511.978	8.82
512.177	8.8
512.377	8.79
512.576	8.84
512.776	8.88
512.975	9.01
513.175	9.15
513.374	9.17
513.573	9.16
513.773	9.25
513.972	9.33
514.172	9.39
514.371	9.52
514.57	9.53
514.77	9.42
514.969	9.48
515.168	9.52
515.367	9.34
515.567	9.4
515.766	9.35
515.965	9.22
516.164	9.23
516.364	9.12
516.563	8.99
516.762	8.98
516.961	8.96
517.16	8.88
517.359	8.71
517.559	8.78
517.758	8.75
517.957	8.82
518.156	8.84
518.355	8.76
518.554	8.8
518.753	8.87
518.952	8.86
519.151	8.92
519.35	9
519.549	9.13
519.748	9.12
519.947	9.16
520.146	9.25
520.345	9.35
520.544	9.49
520.743	9.55
520.942	9.6
521.141	9.69
521.339	9.8
521.538	9.88
521.737	9.99
521.936	10.05
522.135	10.13
522.333	10.13
522.532	10.15
522.731	10.1
522.93	10.09
523.129	10.15
523.327	10.18
523.526	10.08
523.725	10.02
523.923	9.9
524.122	9.88
524.321	9.79
524.519	9.69
524.718	9.65
524.917	9.65
525.115	9.56
525.314	9.46
525.512	9.39
525.711	9.38
525.909	9.35
526.108	9.3
526.306	9.19
526.505	9.13
526.703	9.08
526.902	9
527.1	8.86
527.299	8.81
527.497	8.76
527.696	8.67
527.894	8.57
528.092	8.49
528.291	8.42
528.489	8.4
528.688	8.37
528.886	8.35
529.084	8.33
529.283	8.38
529.481	8.42
529.679	8.47
529.877	8.54
530.076	8.65
530.274	8.78
530.472	8.86
530.67	8.99
530.869	9.11
531.067	9.19
531.265	9.33
531.463	9.36
531.661	9.41
531.859	9.36
532.057	9.36
532.255	9.33
532.454	9.34
532.652	9.35
532.85	9.31
533.048	9.32
533.246	9.34
533.444	9.33
533.642	9.38
533.84	9.43
534.038	9.52
534.236	9.56
534.434	9.63
534.632	9.65
534.83	9.76
535.027	9.87
535.225	9.94
535.423	10.06
535.621	10.14
535.819	10.19
536.017	10.23
536.215	10.21
536.412	10.31
536.61	10.36
536.808	10.45
537.006	10.53
537.203	10.6
537.401	10.66
537.599	10.72
537.797	10.76
537.994	10.91
538.192	11.08
538.39	11.27
538.587	11.33
538.785	11.44
538.983	11.44
539.18	11.39
539.378	11.35
539.575	11.25
539.773	11.18
539.97	11.2
540.168	11.11
540.366	10.98
540.563	10.9
540.761	10.84
540.958	10.78
541.155	10.72
541.353	10.73
541.55	10.76
541.748	10.85
541.945	10.88
542.143	10.9
542.34	10.94
542.537	11.06
542.735	11.14
542.932	11.25
543.129	11.42
543.327	11.61
543.524	11.75
543.721	11.92
543.919	12.12
544.116	12.33
544.313	12.5
544.51	12.68
544.708	12.88
544.905	13.06
545.102	13.27
545.299	13.41
545.496	13.56
545.693	13.69
545.891	13.7
546.088	13.67
546.285	13.69
546.482	13.68
546.679	13.69
546.876	13.61
547.073	13.59
547.27	13.57
547.467	13.54
547.664	13.53
547.861	13.52
548.058	13.6
548.255	13.71
548.452	13.73
548.649	13.82
548.846	13.95
549.043	14.05
549.24	14.2
549.437	14.38
549.633	14.5
549.83	14.59
550.027	14.66
550.224	14.86
550.421	14.76
550.618	14.76
550.814	14.78
551.011	14.76
551.208	14.79
551.405	14.74
551.601	14.53
551.798	14.44
551.995	14.33
552.191	14.32
552.388	14.14
552.585	14.26
552.781	14.23
552.978	14.23
553.175	14.23
553.371	14.13
553.568	14.16
553.764	14.27
553.961	14.4
554.157	14.45
554.354	14.54
554.55	14.71
554.747	14.76
554.943	14.94
555.14	15
555.336	15.08
555.533	15.27
555.729	15.36
555.926	15.4
556.122	15.42
556.318	15.54
556.515	15.56
556.711	15.45
556.907	15.34
557.104	15.33
557.3	15.38
557.496	15.42
557.693	15.48
557.889	15.5
558.085	15.5
558.281	15.49
558.478	15.48
558.674	15.51
558.87	15.62
559.066	15.69
559.262	15.75
559.459	15.69
559.655	15.59
559.851	15.58
560.047	15.61
560.243	15.67
560.439	15.59
560.635	15.61
560.831	15.58
561.027	15.62
561.223	15.61
561.419	15.51
561.615	15.73
561.811	15.83
562.007	15.71
562.203	15.8
562.399	15.73
562.595	15.89
562.791	16.02
562.987	16.06
563.183	16.02
563.379	16.17
563.575	16.15
563.771	15.99
563.966	15.88
564.162	15.84
564.358	15.66
564.554	15.57
564.75	15.43
564.945	15.24
565.141	15.2
565.337	15.17
565.533	15.07
565.728	15.13
565.924	15.08
566.12	15.13
566.315	15.29
566.511	15.4
566.707	15.42
566.902	15.5
567.098	15.51
567.293	15.52
567.489	15.59
567.684	15.58
567.88	15.55
568.076	15.62
568.271	15.74
568.467	15.61
568.662	15.56
568.858	15.54
569.053	15.46
569.248	15.47
569.444	15.48
569.639	15.39
569.835	15.4
570.03	15.4
570.225	15.3
570.421	15.19
570.616	15.1
570.812	15.09
571.007	15.13
571.202	15.08
571.397	15.03
571.593	14.91
571.788	14.99
571.983	14.96
572.178	15.02
572.374	15.16
572.569	15.17
572.764	15.33
572.959	15.24
573.154	15.22
573.35	15.33
573.545	15.35
573.74	15.38
573.935	15.37
574.13	15.4
574.325	15.32
574.52	15.26
574.715	15.26
574.91	15.19
575.105	15.21
575.3	15.37
575.495	15.35
575.69	15.51
575.885	15.69
576.08	15.85
576.275	15.82
576.47	16.03
576.665	16.25
576.86	16.31
577.055	16.44
577.25	16.68
577.444	16.86
577.639	17.05
577.834	17.13
578.029	17.28
578.224	17.44
578.418	17.85
578.613	17.92
578.808	17.66
579.003	17.78
579.197	17.81
579.392	17.9
579.587	17.93
579.781	18.04
579.976	18.08
580.171	18.07
580.365	17.9
580.56	17.85
580.755	17.74
580.949	18.08
581.144	18.31
581.338	18.65
581.533	18.68
581.727	18.73
581.922	18.66
582.116	18.69
582.311	18.63
582.505	18.66
582.7	18.68
582.894	18.91
583.089	18.97
583.283	18.92
583.478	18.79
583.672	18.83
583.866	18.73
584.061	18.9
584.255	18.94
584.449	19.04
584.644	19.19
584.838	19.31
585.032	19.3
585.226	19.34
585.421	19.4
585.615	19.4
585.809	19.44
586.003	19.58
586.198	19.42
586.392	19.42
586.586	19.52
586.78	19.52
586.974	19.25
587.168	19.17
587.363	18.97
587.557	18.91
587.751	18.65
587.945	18.53
588.139	18.35
588.333	18.29
588.527	18.28
588.721	18.07
588.915	17.89
589.109	17.84
589.303	17.8
589.497	17.8
589.691	17.69
589.885	17.77
590.079	17.87
590.273	17.85
590.466	18
590.66	18
590.854	18.14
591.048	18.43
591.242	18.6
591.436	18.72
591.629	18.97
591.823	18.93
592.017	19.13
592.211	19.14
592.404	19.25
592.598	19.12
592.792	18.98
592.986	18.95
593.179	18.81
593.373	18.76
593.567	18.74
593.76	18.49
593.954	18.52
594.147	18.38
594.341	18.2
594.535	18.19
594.728	18.22
594.922	18.19
595.115	17.96
595.309	17.73
595.502	17.54
595.696	17.3
595.889	17.19
596.083	17.15
596.276	16.93
596.47	16.92
596.663	16.72
596.856	16.58
597.05	16.64
597.243	16.75
597.437	16.87
597.63	17.08
597.823	17.23
598.017	17.43
598.21	17.54
598.403	17.87
598.596	18.1
598.79	18.4
598.983	18.75
599.176	18.94
599.369	19.11
599.563	19.23
599.756	19.23
599.949	19.4
600.142	19.32
600.335	19.41
600.528	19.48
600.722	19.41
600.915	19.32
601.108	19.23
601.301	19.09
601.494	19
601.687	18.92
601.88	18.85
602.073	18.79
602.266	18.69
602.459	18.48
602.652	18.17
602.845	17.93
603.038	17.74
603.231	17.52
603.424	17.44
603.617	17.28
603.809	17.17
604.002	17.2
604.195	17.11
604.388	17.01
604.581	17.03
604.774	17.17
604.966	17.27
605.159	17.33
605.352	17.51
605.545	17.58
605.737	17.83
605.93	18.01
606.123	18.1
606.316	18.21
606.508	18.44
606.701	18.62
606.894	18.85
607.086	19.14
607.279	19.37
607.471	19.39
607.664	19.65
607.857	19.73
608.049	19.89
608.242	20.07
608.434	20.36
608.627	20.76
608.819	21.32
609.012	21.81
609.204	22.46
609.397	23.24
609.589	24.15
609.782	25.06
609.974	26.06
610.166	27.12
610.359	28.23
610.551	29.12
610.743	30.02
610.936	30.8
611.128	31.4
611.32	31.75
611.513	32.08
611.705	32.23
611.897	32.08
612.09	31.84
612.282	31.67
612.474	31.12
612.666	30.77
612.858	30.39
613.051	29.81
613.243	29.43
613.435	29.01
613.627	28.39
613.819	27.95
614.011	27.63
614.203	27.17
614.395	26.6
614.588	26.18
614.78	25.73
614.972	25.37
615.164	24.88
615.356	24.4
615.548	24.01
615.74	23.9
615.932	23.74
616.124	23.42
616.315	23.15
616.507	22.7
616.699	22.49
616.891	22.31
617.083	22.04
617.275	22.15
617.467	22.11
617.659	22.19
617.85	22.06
618.042	21.89
618.234	21.86
618.426	21.98
618.618	22.17
618.809	22.24
619.001	22.32
619.193	22.29
619.384	22.1
619.576	21.98
619.768	21.92
619.959	21.85
620.151	21.63
620.343	21.71
620.534	21.56
620.726	21.51
620.917	21.33
621.109	21.6
621.301	21.73
621.492	21.81
621.684	21.8
621.875	21.71
622.067	21.64
622.258	21.91
622.45	21.94
622.641	21.9
622.832	22.14
623.024	22.15
623.215	21.8
623.407	21.71
623.598	21.66
623.789	21.82
623.981	21.86
624.172	21.9
624.363	21.9
624.555	21.55
624.746	21.63
624.937	21.3
625.129	21.28
625.32	21.2
625.511	21.11
625.702	20.99
625.893	20.8
626.085	20.66
626.276	20.65
626.467	20.47
626.658	20.48
626.849	20.38
627.04	20.44
627.231	20.5
627.422	20.53
627.614	20.51
627.805	20.61
627.996	20.76
628.187	20.88
628.378	20.91
628.569	21.18
628.76	21.39
628.951	21.64
629.142	21.86
629.332	22.19
629.523	22.32
629.714	22.48
629.905	22.63
630.096	22.68
630.287	22.7
630.478	22.76
630.669	22.82
630.859	22.82
631.05	22.64
631.241	22.62
631.432	22.32
631.623	22.25
631.813	22.29
632.004	21.99
632.195	21.82
632.385	21.76
632.576	21.6
632.767	21.36
632.957	21.17
633.148	21.1
633.339	20.88
633.529	20.89
633.72	20.88
633.91	20.66
634.101	20.68
634.292	20.57
634.482	20.66
634.673	20.75
634.863	20.75
635.054	21.04
635.244	21.01
635.435	21.03
635.625	20.94
635.815	20.89
636.006	20.9
636.196	20.94
636.387	21.11
636.577	21.04
636.767	21.07
636.958	20.94
637.148	20.88
637.338	21.1
637.529	21.26
637.719	21.33
637.909	21.43
638.099	21.66
638.29	21.85
638.48	21.78
638.67	21.72
638.86	21.81
639.05	21.85
639.241	21.68
639.431	21.79
639.621	21.67
639.811	21.71
640.001	21.81
640.191	21.72
640.381	21.74
640.571	22.05
640.761	22.06
640.951	21.92
641.141	22.29
641.331	22.57
641.521	22.52
641.711	22.71
641.901	22.65
642.091	22.73
642.281	22.8
642.471	22.75
642.661	22.51
642.851	22.88
643.041	23.04
643.231	22.81
643.42	22.64
643.61	22.41
643.8	22.3
643.99	22.46
644.18	22.2
644.369	22.23
644.559	22.22
644.749	22.22
644.939	21.98
645.128	21.83
645.318	21.73
645.508	21.63
645.697	21.81
645.887	21.68
646.076	21.59
646.266	21.44
646.456	21.31
646.645	21.37
646.835	21.54
647.024	21.64
647.214	21.76
647.403	21.81
647.593	21.89
647.782	21.76
647.972	21.91
648.161	22.11
648.351	22.22
648.54	22.25
648.73	22.21
648.919	22.22
649.108	22.06
649.298	21.95
649.487	21.99
649.677	21.92
649.866	22
650.055	21.98
650.244	21.7
650.434	21.97
650.623	21.81
650.812	21.85
651.002	21.6
651.191	21.75
651.38	21.62
651.569	21.67
651.758	21.66
651.947	21.66
652.137	21.63
652.326	21.61
652.515	21.38
652.704	21.64
652.893	21.63
653.082	21.8
653.271	21.73
653.46	21.88
653.649	21.94
653.838	22.16
654.027	22.05
654.216	21.81
654.405	21.71
654.594	21.76
654.783	21.62
654.972	21.48
655.161	21.57
655.35	21.47
655.539	21.48
655.728	21.19
655.916	21.03
656.105	20.98
656.294	21.25
656.483	21.58
656.672	21.35
656.86	21.24
657.049	21.15
657.238	20.89
657.427	20.74
657.615	20.67
657.804	20.75
657.993	20.46
658.181	20.45
658.37	20.19
658.559	19.9
658.747	20.01
658.936	20.16
659.125	20.14
659.313	20.08
659.502	20.18
659.69	20.13
659.879	20.08
660.067	20.27
660.256	20.22
660.444	20.32
660.633	20.6
660.821	20.69
661.01	20.71
661.198	20.9
661.387	21.29
661.575	21.48
661.763	21.61
661.952	21.98
662.14	22.32
662.328	22.62
662.517	23.16
662.705	23.32
662.893	23.34
663.082	23.24
663.27	23.31
663.458	23.37
663.646	23.57
663.834	23.72
664.023	23.67
664.211	23.64
664.399	23.65
664.587	23.27
664.775	23.09
664.963	23.29
665.152	23.39
665.34	23.39
665.528	23.21
665.716	23.13
665.904	23.34
666.092	23.09
666.28	22.81
666.468	22.73
666.656	22.74
666.844	22.81
667.032	22.77
667.22	22.74
667.408	22.84
667.596	22.55
667.784	22.05
667.971	21.84
668.159	21.84
668.347	21.8
668.535	21.63
668.723	21.62
668.911	21.62
669.098	21.56
669.286	21.45
669.474	21.46
669.662	21.66
669.849	22.19
670.037	22.04
670.225	22.28
670.413	22.43
670.6	22.85
670.788	23.05
670.976	23.07
671.163	23.19
671.351	23.4
671.538	23.36
671.726	23.42
671.913	23.19
672.101	23.35
672.289	23.34
672.476	23.34
672.664	23.29
672.851	23.1
673.039	23.19
673.226	23.09
673.413	23.05
673.601	23.16
673.788	23.15
673.976	23.22
674.163	23.24
674.35	23.34
674.538	23.53
674.725	23.59
674.912	23.57
675.1	23.57
675.287	23.7
675.474	23.71
675.662	23.63
675.849	23.79
676.036	23.8
676.223	23.73
676.411	23.53
676.598	23.36
676.785	23.11
676.972	23.3
677.159	23.09
677.346	23.09
677.533	23.11
677.721	22.97
677.908	22.52
678.095	22.23
678.282	22.2
678.469	21.93
678.656	21.84
678.843	21.98
679.03	21.79
679.217	21.65
679.404	21.41
679.591	21.22
679.778	21.27
679.964	21.27
680.151	21.33
680.338	21.24
680.525	21.34
680.712	21.35
680.899	21.33
681.086	21.22
681.272	21.23
681.459	21.39
681.646	21.41
681.833	21.47
682.02	21.65
682.206	21.81
682.393	21.9
682.58	21.9
682.766	21.86
682.953	21.79
683.14	22.03
683.326	22.23
683.513	22.26
683.7	22.65
683.886	22.52
684.073	22.79
684.259	22.86
684.446	23.11
684.632	23.39
684.819	23.45
685.005	23.45
685.192	23.46
685.378	23.46
685.565	23.46
685.751	23.2
685.938	23.2
686.124	23.4
686.31	22.93
686.497	22.52
686.683	22.3
686.87	22.44
687.056	22.52
687.242	22.45
687.429	22.42
687.615	22.16
687.801	21.81
687.987	21.87
688.174	21.53
688.36	21.82
688.546	21.89
688.732	22.13
688.918	22.14
689.105	21.89
689.291	21.78
689.477	22.09
689.663	22.21
689.849	22.58
690.035	22.6
690.221	22.83
690.407	23.03
690.593	23.21
690.779	22.91
690.965	22.89
691.151	23.39
691.337	23.58
691.523	23.33
691.709	23.81
691.895	23.85
692.081	23.89
692.267	23.63
692.453	23.89
692.639	23.7
692.825	23.81
693.011	23.94
693.196	23.79
693.382	23.74
693.568	23.81
693.754	23.85
693.94	24.02
694.125	23.87
694.311	23.58
694.497	23.36
694.682	23.38
694.868	23.5
695.054	23.62
695.239	23.57
695.425	23.84
695.611	23.51
695.796	22.97
695.982	22.58
696.168	22.19
696.353	22.6
696.539	22.36
696.724	22.43
696.91	22.09
697.095	21.54
697.281	21.45
697.466	21.05
697.652	20.98
697.837	20.94
698.023	20.73
698.208	20.79
698.393	20.28
698.579	20.13
698.764	20.17
698.949	20.12
699.135	20.07
699.32	19.9
699.505	20.01
699.691	20.16
699.876	20.14
700.061	20.31
700.246	20.57
700.432	21.06
700.617	21.27
700.802	21.28
700.987	21.75
701.172	22.06
701.358	22.33
701.543	22.65
701.728	22.67
701.913	22.88
702.098	23.14
702.283	23.37
702.468	23.22
702.653	23.81
702.838	24.21
703.023	24.25
703.208	24.63
703.393	25.16
703.578	25.1
703.763	25.36
703.948	25.7
704.133	26.29
704.318	26.35
704.503	27.03
704.688	26.85
704.873	27.05
705.057	27.61
705.242	27.7
705.427	27.76
705.612	27.88
705.797	28.49
705.981	28.69
706.166	28.58
706.351	28.73
706.536	28.56
706.72	28.6
706.905	28.89
707.09	28.54
707.274	28.52
707.459	28.54
707.644	28.73
707.828	28.55
708.013	28.61
708.197	28.56
708.382	28.24
708.567	28.53
708.751	28.59
708.936	27.93
709.12	27.83
709.305	27.79
709.489	27.57
709.673	27.48
709.858	27.29
710.042	26.89
710.227	26.89
710.411	27.11
710.596	26.64
710.78	26.64
710.964	26.82
711.149	27.03
711.333	27.13
711.517	26.91
711.702	26.81
711.886	26.85
712.07	27.24
712.254	27.11
712.438	27.19
712.623	27.29
712.807	27.22
712.991	27.16
713.175	27.18
713.359	26.93
713.544	26.75
713.728	26.64
713.912	26.36
714.096	25.87
714.28	25.59
714.464	25.39
714.648	25.06
714.832	24.56
715.016	24.1
715.2	23.67
715.384	23.28
715.568	22.98
715.752	22.57
715.936	22.36
716.12	22.13
716.304	21.91
716.488	21.67
716.671	21.81
716.855	21.58
717.039	21.58
717.223	21.35
717.407	21.76
717.59	22
717.774	22.22
717.958	22.18
718.142	22.08
718.325	22.34
718.509	22.65
718.693	22.58
718.877	22.68
719.06	23.09
719.244	23.32
719.428	23.52
719.611	23.44
719.795	23.79
719.978	23.74
720.162	23.69
720.345	24.01
720.529	24.19
720.713	24.03
720.896	24.53
721.08	24.44
721.263	24.51
721.446	24.19
721.63	24.6
721.813	24.67
721.997	24.88
722.18	25.31
722.364	25.06
722.547	24.7
722.73	25.09
722.914	25.15
723.097	25.16
723.28	24.99
723.464	24.73
723.647	24.65
723.83	24.07
724.013	24.3
724.197	24.38
724.38	24.77
724.563	24.88
724.746	24.4
724.929	24.26
725.112	24.49
725.296	24.74
725.479	24.76
725.662	24.36
725.845	24.71
726.028	24.54
726.211	24.52
726.394	23.87
726.577	23.77
726.76	24
726.943	24.01
727.126	23.46
727.309	23.52
727.492	23.75
727.675	23.94
727.858	23.85
728.041	23.99
728.224	23.97
728.407	24.01
728.589	23.88
728.772	24.01
728.955	24.09
729.138	23.82
729.321	23.16
729.503	22.92
729.686	22.78
729.869	22.9
730.052	22.63
730.234	22.5
730.417	22.7
730.6	22.91
730.782	22.69
730.965	22.31
731.148	22.78
731.33	23.43
731.513	24.08
731.695	24.47
731.878	24.56
732.061	24.95
732.243	25.32
732.426	25.34
732.608	25.08
732.791	25.31
732.973	25.63
733.156	25.91
733.338	25.65
733.52	25.48
733.703	25.34
733.885	25.29
734.068	25.3
734.25	24.97
734.432	25.47
734.615	25.51
734.797	25.7
734.979	25.99
735.162	25.77
735.344	26.33
735.526	25.93
735.708	26.45
735.891	26.54
736.073	26.8
736.255	27.35
736.437	27.31
736.619	27.74
736.802	28.02
736.984	28.14
737.166	28.17
737.348	28.1
737.53	28.44
737.712	28.24
737.894	28.52
738.076	28.24
738.258	27.8
738.44	27.3
738.622	27.58
738.804	27.71
738.986	26.93
739.168	27.53
739.35	27.13
739.532	27.16
739.714	27.13
739.896	26.91
740.078	26.79
740.259	26.6
740.441	26.8
740.623	26.54
740.805	26.23
740.987	26.88
741.168	26.2
741.35	26.83
741.532	26.95
741.714	27.52
741.895	27.74
742.077	28.31
742.259	28.87
742.44	29.28
742.622	29.41
742.804	29.62
742.985	29.81
743.167	30.35
743.348	30.09
743.53	30.21
743.711	29.65
743.893	29.85
744.075	29.54
744.256	30.03
744.438	29.85
744.619	29.88
744.8	30.16
744.982	29.95
745.163	30.05
745.345	30.44
745.526	30.85
745.707	31.38
745.889	31.57
746.07	31.52
746.252	31.4
746.433	31.54
746.614	32.1
746.795	32.23
746.977	32.98
747.158	32.62
747.339	32.49
747.52	32.42
747.702	31.83
747.883	31.79
748.064	31.92
748.245	31.55
748.426	31.77
748.607	31.12
748.788	30.12
748.97	29.81
749.151	29.51
749.332	29.97
749.513	29.96
749.694	30.24
749.875	29.71
750.056	29.09
750.237	29.76
750.418	29.56
750.599	29.03
750.78	29.54
750.96	29.11
751.141	30.06
751.322	29.86
751.503	30.02
751.684	29.67
751.865	30.2
752.046	30.37
752.226	29.5
752.407	28.72
752.588	29.65
752.769	29.59
752.949	29.82
753.13	29.26
753.311	28.99
753.492	28.19
753.672	28.56
753.853	28.23
754.034	29.33
754.214	30.21
754.395	30.84
754.575	30.13
754.756	30.2
754.937	29.82
755.117	30.31
755.298	30.09
755.478	30.64
755.659	31
755.839	31.37
756.02	30.72
756.2	29.63
756.381	29.57
756.561	29.67
756.741	29.99
756.922	29.95
757.102	28.74
757.283	29.05
757.463	29.1
757.643	28.75
757.823	27.8
758.004	27.19
758.184	27.09
758.364	26.34
758.545	26.35
758.725	24.87
758.905	24.45
759.085	24.13
759.265	22.67
759.446	21.26
759.626	20.78
759.806	20.34
759.986	20.7
760.166	20.82
760.346	20.6
760.526	20.64
760.706	21.26
760.886	21.6
761.066	22.08
761.246	22.63
761.426	22.6
761.606	21.82
761.786	21.4
761.966	21.03
762.146	20.97
762.326	20.91
762.506	20.35
762.686	19.76
762.866	19.23
763.046	19.12
763.225	19.12
763.405	18.73
763.585	18.88
763.765	19.32
763.945	19.29
764.124	19.47
764.304	19.88
764.484	19.89
764.664	20.15
764.843	20.94
765.023	21.48
765.203	21.46
765.382	22.66
765.562	23.42
765.741	23.56
765.921	24.44
766.101	24.3
766.28	24.23
766.46	24.8
766.639	26.02
766.819	25.82
766.998	25.62
767.178	26.53
767.357	26.69
767.537	26.91
767.716	27.73
767.896	28.02
768.075	28.5
768.254	29.24
768.434	30.07
768.613	29.71
768.792	30.24
768.972	31.25
769.151	30.97
769.33	31.26
769.51	32.18
769.689	32.81
769.868	33.24
770.047	33.21
770.226	34.22
770.406	34.17
770.585	34.01
770.764	34.33
770.943	33.26
771.122	33.32
771.301	34.1
771.48	33.99
771.66	32.9
771.839	32.46
772.018	33.45
772.197	32.71
772.376	33.11
772.555	34.25
772.734	33.89
772.913	34.36
773.092	36.04
773.271	35.27
773.449	34.56
773.628	34.73
773.807	35.08
773.986	34.9
774.165	35.81
774.344	35.33
774.523	33.85
774.701	33.88
774.88	34.63
775.059	33.45
775.238	34.19
775.417	34.32
775.595	35.1
775.774	34.53
775.953	33.43
776.131	31.79
776.31	32.67
776.489	34.02
776.667	34.73
776.846	34.54
777.025	34.76
777.203	34.77
777.382	35.29
777.56	34.93
777.739	35.59
777.917	35.49
778.096	36.15
778.274	35.85
778.453	35.05
778.631	34.41
778.81	34.92
778.988	35.09
779.166	34.41
779.345	34.41
779.523	34.82
779.702	34.08
779.88	35.24
780.058	34.94
780.237	34.54
780.415	34.82
780.593	34.11
780.771	32.82
780.95	32.98
781.128	33.24
781.306	33.34
781.484	33.05
781.662	32.72
781.841	32.69
782.019	32.32
782.197	32.12
782.375	31.93
782.553	32.92
782.731	33.33
782.909	33.52
783.087	33.56
783.265	33.05
783.443	33.53
783.621	34.62
783.799	35.54
783.977	36.49
784.155	36.41
784.333	37.36
784.511	37.19
784.689	37.62
784.867	36.59
785.045	36.34
785.223	36.13
785.4	35.48
785.578	35.84
785.756	34.67
785.934	34.71
786.112	33.92
786.289	33.91
786.467	34.38
786.645	34.02
786.823	33.62
787	34.1
787.178	34.66
787.356	34.42
787.533	33.4
787.711	33.2
787.889	33
788.066	33.09
788.244	31.94
788.421	31.26
788.599	31.59
788.776	32.25
788.954	32.74
789.131	32.23
789.309	32.12
789.486	31.87
789.664	31.87
789.841	31.6
790.019	32.27
790.196	32.52
790.373	32.64
790.551	32.58
790.728	32.35
790.906	31.58
791.083	31.27
791.26	31.58
791.437	32.01
791.615	31.62
791.792	31.65
791.969	31.99
792.146	32.63
792.324	33.06
792.501	32.95
792.678	32.93
792.855	32.35
793.032	32.53
793.209	32.03
793.387	32.32
793.564	32.55
793.741	32.63
793.918	32.28
794.095	31.93
794.272	32.22
794.449	32.14
794.626	32.92
794.803	34.6
794.98	34.8
795.157	36.01
795.334	35.54
795.511	35.16
795.688	35.97
795.864	35.68
796.041	35.24
796.218	34.71
796.395	34.69
796.572	33.82
796.749	32.15
796.925	31.98
797.102	30.74
797.279	29.84
797.456	30.09
797.632	29.54
797.809	29.48
797.986	29.32
798.162	29.06
798.339	29.4
798.516	29.2
798.692	29.62
798.869	29.15
799.046	28.87
799.222	29.67
799.399	31.41
799.575	30.88
799.752	32.06
799.928	33.32
800.105	33.7
800.281	33.82
800.458	34.35
800.634	34.74
800.811	35.15
800.987	36.06
801.163	36.57
801.34	34.96
801.516	35.32
801.692	34.96
801.869	34.48
802.045	34.29
802.221	35.16
802.398	35.94
802.574	36.21
802.75	37.14
802.926	37.36
803.103	37.04
803.279	37.49
803.455	36.93
803.631	36.6
803.807	36.51
803.983	37.86
804.16	36.38
804.336	35.22
804.512	34.99
804.688	34.43
804.864	35.69
805.04	36.59
805.216	36.64
805.392	37.58
805.568	37.19
805.744	36.68
805.92	34.66
806.096	35.38
806.272	35.61
806.448	34.86
806.623	35.65
806.799	34.29
806.975	33.75
807.151	34.25
807.327	33.65
807.503	33.62
807.678	34.32
807.854	34.71
808.03	34.44
808.206	34.65
808.381	36.3
808.557	34.46
808.733	33.85
808.908	33.71
809.084	32.91
809.26	32.96
809.435	33.48
809.611	33.44
809.787	35.36
809.962	35.15
810.138	36.06
810.313	35.41
810.489	35.96
810.664	35.08
810.84	35.27
811.015	35.6
811.191	36.03
811.366	36.06
811.542	36.28
811.717	35.24
811.892	34.89
812.068	32.79
812.243	32.75
812.419	33.76
812.594	34.17
812.769	33.96
812.944	33.8
813.12	33.85
813.295	32.41
813.47	30.93
813.645	31.17
813.821	30.18
813.996	31.36
814.171	31.05
814.346	29.52
814.521	30.41
814.697	30.5
814.872	30.51
815.047	29.08
815.222	29.9
815.397	30.07
815.572	28.22
815.747	29.29
815.922	29.85
816.097	29.68
816.272	30.17
816.447	30.34
816.622	31.65
816.797	33.03
816.972	34.35
817.147	34.42
817.322	34.45
817.496	34.48
817.671	34.27
817.846	33.59
818.021	32.95
818.196	32.39
818.371	32.67
818.545	30.66
818.72	28.82
818.895	27.39
819.069	27.1
819.244	26.35
819.419	27.11
819.594	26.34
819.768	24.69
819.943	25.32
820.117	24.31
820.292	22.74
820.467	22.08
820.641	21.16
820.816	20.96
820.99	19.79
821.165	19.37
821.339	18.55
821.514	17.98
821.688	18.16
821.863	17.3
822.037	17.17
822.212	17.08
822.386	17.06
822.56	16.72
822.735	16.44
822.909	16.35
823.084	16.33
823.258	16.07
823.432	16.17
823.606	16.16
823.781	16.51
823.955	16.67
824.129	16.88
824.303	16.92
824.478	17.4
824.652	17.81
824.826	18.35
825	18.23
825.174	19.1
825.348	19.74
825.523	19.66
825.697	19.93
825.871	20.52
826.045	20.83
826.219	20.72
826.393	20.42
826.567	20.41
826.741	20.33
826.915	20.73
827.089	20.55
827.263	19.83
827.437	19.27
827.611	19.06
827.784	18.6
827.958	18.01
828.132	17.62
828.306	17.89
828.48	17.99
828.654	18
828.827	18.08
829.001	18.76
829.175	19.67
829.349	20.39
829.522	20.58
829.696	21.47
829.87	23.11
830.044	24.69
830.217	25.83
830.391	25.95
830.565	26.98
830.738	27.6
830.912	26.41
831.085	26.64
831.259	29.5
831.432	29.28
831.606	29.73
831.779	27.83
831.953	27.66
832.126	25.96
832.3	25.86
832.473	25.31
832.647	25.77
832.82	25.5
832.994	24.64
833.167	23.03
833.34	22.63
833.514	21.23
833.687	21.48
833.86	20.93
834.034	21.27
834.207	21.37
834.38	21.19
834.553	21.04
834.727	21.06
834.9	20.63
835.073	20.76
835.246	20.54
835.419	21.5
835.593	21.85
835.766	22.31
835.939	23.37
836.112	23.85
836.285	24.23
836.458	23.9
836.631	24.84
836.804	25.71
836.977	26.48
837.15	27.67
837.323	28.01
837.496	29.15
837.669	31.93
837.842	32.61
838.015	32.41
838.188	34.26
838.361	35.22
838.533	36.88
838.706	37.56
838.879	36.38
839.052	36.14
839.225	37.07
839.398	36.07
839.57	34.56
839.743	33.86
839.916	34.85
840.088	33.91
840.261	33.4
840.434	32.52
840.607	33.89
840.779	35.34
840.952	37.06
841.124	37.3
841.297	38.2
841.47	37.08
841.642	37.74
841.815	35.58
841.987	36.1
842.16	35.56
842.332	34.37
842.505	35.29
842.677	36.25
842.85	36.83
843.022	35.14
843.194	34.39
843.367	37.17
843.539	36.54
843.712	39.6
843.884	40.68
844.056	43.1
844.229	47.18
844.401	45.17
844.573	43.51
844.745	43.41
844.918	45.86
845.09	49.6
845.262	47.71
845.434	46.86
845.606	48.51
845.779	47.89
845.951	49.43
846.123	50.16
846.295	51.76
846.467	51.08
846.639	50.99
846.811	50.95
846.983	48.42
847.155	50.13
847.327	52.36
847.499	50.45
847.671	53.23
847.843	51.83
848.015	50.13
848.187	49.75
848.359	47.88
848.531	47.11
848.703	47.26
848.875	48.24
849.047	43.75
849.218	44.39
849.39	45.49
849.562	42.77
849.734	41.78
849.905	42.42
850.077	43
850.249	49.2
850.421	50.67
850.592	51.28
850.764	53.82
850.936	60.8
851.107	59.61
851.279	58.86
851.451	59.52
851.622	60.23
851.794	59.22
851.965	55.36
852.137	49.19
852.308	47.41
852.48	48.54
852.651	45.84
852.823	44.25
852.994	48.4
853.166	52.31
853.337	50.66
853.509	53.81
853.68	51.45
853.851	57.65
854.023	62.71
854.194	64.38
854.365	59.66
854.537	58.85
854.708	61.15
854.879	56.12
855.05	53.76
855.222	54.92
855.393	52.3
855.564	52.98
855.735	47.64
855.906	45.04
856.078	44.89
856.249	52.99
856.42	49.28
856.591	47.45
856.762	50.18
856.933	48.92
857.104	48.77
857.275	50.73
857.446	53.96
857.617	54.14
857.788	56.43
857.959	59.11
858.13	55.33
858.301	60.99
858.472	56.61
858.643	51.72
858.814	51.97
858.985	53.18
859.155	47.92
859.326	43.71
859.497	42.87
859.668	44.37
859.839	43.32
860.009	42.53
860.18	38.49
860.351	41.21
860.522	45.22
860.692	47.02
860.863	46.83
861.034	49.56
861.204	51.29
861.375	52.9
861.546	47.85
861.716	44.82
861.887	47.21
862.057	52.23
862.228	51.95
862.398	51.67
862.569	51.34
862.739	53.43
862.91	54.63
863.08	56.73
863.251	59.9
863.421	62.2
863.592	59.32
863.762	54.97
863.932	54.46
864.103	52.88
864.273	46.33
864.443	44.71
864.614	43.24
864.784	39.95
864.954	39.83
865.125	38.39
865.295	38.27
865.465	39.41
865.635	46.57
865.805	42.68
865.976	44.82
866.146	49.39
866.316	51.81
866.486	51.29
866.656	53.18
866.826	49.54
866.996	49.51
867.166	49.93
867.336	55.67
867.506	48.3
867.676	47.73
867.846	45.96
868.016	47.74
868.186	42.11
868.356	39.44
868.526	41.52
868.696	41.83
868.866	40.68
869.036	44.36
869.206	38.59
869.376	43.05
869.545	44.76
869.715	47.63
869.885	50.46
870.055	57.5
870.224	57.8
870.394	55.33
870.564	60.85
870.734	62.65
870.903	60.39
871.073	64.16
871.243	62.15
871.412	64.09
871.582	64.17
871.751	60.53
871.921	56.87
872.091	58.71
872.26	58.8
872.43	53.81
872.599	50.89
872.769	49.44
872.938	46.64
873.108	49.68
873.277	50.7
873.446	50.49
873.616	48.71
873.785	49.64
873.955	46.48
874.124	44.15
874.293	47.06
874.463	47.41
874.632	47.68
874.801	49.71
874.971	46.7
875.14	40.26
875.309	40.57
875.478	42.62
875.647	42.89
875.817	47.44
875.986	50.56
876.155	47.78
876.324	50.29
876.493	47.78
876.662	46.11
876.831	45.87
877	47.29
877.17	46.59
877.339	45.11
877.508	44.32
877.677	45.35
877.846	44.78
878.015	47.68
878.184	45.48
878.352	46.89
878.521	44.65
878.69	43.93
878.859	42.38
879.028	44.68
879.197	44.04
879.366	42.2
879.534	39.89
879.703	35.66
879.872	30.58
880.041	29.96
880.21	27.75
880.378	28.34
880.547	26.9
880.716	26.05
880.884	23.44
881.053	21.33
881.222	20.16
881.39	19.5
881.559	20.51
881.727	20.25
881.896	19.05
882.065	18.5
882.233	17.88
882.402	17.86
882.57	17.96
882.739	18.26
882.907	18.48
883.076	18.94
883.244	18.4
883.412	17.84
883.581	18.19
883.749	18.92
883.918	19.43
884.086	19.57
884.254	20.12
884.423	20.98
884.591	20.43
884.759	20.5
884.927	20.95
885.096	21.71
885.264	22.89
885.432	23.17
885.6	23.34
885.769	24.28
885.937	25.05
886.105	25.01
886.273	24.49
886.441	28.15
886.609	32.5
886.777	33.78
886.945	37.58
887.113	39.73
887.281	41.08
887.449	42.31
887.617	41.24
887.785	43.38
887.953	44.61
888.121	45.29
888.289	44.8
888.457	47.29
888.625	50.35
888.793	47.87
888.961	45.34
889.129	51.21
889.296	52.02
889.464	56.94
889.632	56.68
889.8	60.15
889.967	61.03
890.135	60.26
