Data from 2938711__Reflection_02.txt Node
Date: Tue Mar 17 19:25:58 EDT 2015
User: robert
Spectrometer: USB4E03002
Autoset integration time: false
Trigger mode: 4
Integration Time (sec): 1.000000E-1
Scans to average: 10
Electric dark correction enabled: false
Nonlinearity correction enabled: false
Boxcar width: 5
Stray light correction enabled: false
XAxis mode: Wavelengths
Stop averaging: false
Number of Pixels in Spectrum: 3648
>>>>>Begin Spectral Data<<<<<
177.575	66.51
177.794	79.93
178.014	87.37
178.233	102.21
178.452	125.98
178.672	120.28
178.891	121.66
179.11	161.7
179.33	387.19
179.549	692.31
179.768	-21433.33
179.987	-292.66
180.207	-540.2
180.426	3610.53
180.645	904.17
180.864	367.03
181.084	520.74
181.303	12285.71
181.522	1376.32
181.741	345.2
181.96	250.57
182.179	242.78
182.398	240.63
182.618	169.98
182.837	171.82
183.056	172.46
183.275	192.86
183.494	160.88
183.713	123.6
183.932	94.34
184.151	92.23
184.37	95.7
184.589	97.1
184.808	88.77
185.027	118.42
185.246	110.78
185.465	97.64
185.684	93.71
185.903	143.64
186.122	141.28
186.341	142.54
186.56	149.44
186.779	157.87
186.998	202.13
187.216	191.85
187.435	192
187.654	190.99
187.873	162.56
188.092	147.01
188.311	119.64
188.53	120.07
188.748	132.95
188.967	123.27
189.186	125.82
189.405	94.79
189.623	98.8
189.842	73.33
190.061	69.46
190.28	85.78
190.498	96.33
190.717	105.47
190.936	99.87
191.154	91.29
191.373	90.1
191.592	104.24
191.81	117.79
192.029	136.05
192.248	152.4
192.466	138.24
192.685	156.89
192.904	135.34
193.122	116.03
193.341	108.61
193.559	110.8
193.778	126.99
193.996	117.45
194.215	99.35
194.433	83.68
194.652	86.86
194.87	114.56
195.089	95.99
195.307	96.83
195.526	111.53
195.744	141.15
195.963	152.32
196.181	143.93
196.399	134.76
196.618	148.64
196.836	166.26
197.055	203.49
197.273	209.12
197.491	383.85
197.71	819.18
197.928	296.73
198.146	391.86
198.365	277.78
198.583	316.67
198.801	338.68
199.019	364.35
199.238	309.35
199.456	179.88
199.674	194.63
199.892	171.89
200.111	170.78
200.329	160.96
200.547	146.47
200.765	143.42
200.983	125.56
201.202	123.31
201.42	124.14
201.638	127.2
201.856	135.98
202.074	140.84
202.292	136.33
202.51	138.28
202.728	166.42
202.946	156.47
203.165	150.46
203.383	168.04
203.601	179.32
203.819	174.14
204.037	172.54
204.255	185.18
204.473	142.92
204.691	150.41
204.909	118.85
205.127	116.9
205.345	108.78
205.562	88.35
205.78	81.02
205.998	87.5
206.216	99.46
206.434	106.18
206.652	102.97
206.87	99.28
207.088	80.23
207.306	90.51
207.523	77.6
207.741	73.3
207.959	100.8
208.177	116.57
208.395	93.81
208.612	80.51
208.83	84.02
209.048	84.49
209.266	77.96
209.483	93.5
209.701	113.16
209.919	133.33
210.136	131.22
210.354	108.13
210.572	103.01
210.79	84.82
211.007	71.77
211.225	68.12
211.442	82.9
211.66	95.59
211.878	99.63
212.095	176.09
212.313	164.56
212.53	147.56
212.748	155.89
212.966	160.24
213.183	173.66
213.401	165.38
213.618	145.8
213.836	136.57
214.053	142.87
214.271	126.1
214.488	67.88
214.705	61.87
214.923	73.87
215.14	58.63
215.358	52.65
215.575	67.44
215.793	64.44
216.01	66.73
216.227	73.23
216.445	77.05
216.662	63.66
216.879	56.37
217.097	59.86
217.314	64.01
217.531	67.26
217.749	66.99
217.966	61.84
218.183	72.89
218.4	68.25
218.618	54.81
218.835	54.18
219.052	61.2
219.269	67.55
219.487	60.24
219.704	49.4
219.921	50.7
220.138	51.54
220.355	47.3
220.572	34.22
220.79	39.82
221.007	43.39
221.224	37.68
221.441	35.84
221.658	33.36
221.875	34.58
222.092	34.69
222.309	37.25
222.526	33.5
222.743	30.18
222.96	30.75
223.177	20.37
223.394	21.92
223.611	25.13
223.828	25.95
224.045	28.13
224.262	24.76
224.479	30.03
224.696	25.65
224.913	27.03
225.13	28.89
225.347	32.44
225.564	31.44
225.781	27.34
225.997	23.96
226.214	22.95
226.431	19.71
226.648	20.76
226.865	17.63
227.082	17.25
227.298	15.23
227.515	13.98
227.732	12.03
227.949	12.21
228.165	11.4
228.382	10.82
228.599	9.55
228.816	9.42
229.032	8.78
229.249	8.11
229.466	6.88
229.682	6.25
229.899	5.24
230.116	4.19
230.332	4.4
230.549	3.94
230.765	4.83
230.982	6.15
231.199	6.33
231.415	6.09
231.632	6.36
231.848	7.67
232.065	8.11
232.281	9.21
232.498	10.58
232.714	9.51
232.931	10.17
233.147	8.33
233.364	6.96
233.58	7.21
233.797	6.21
234.013	5.45
234.23	5.44
234.446	4.79
234.662	5.08
234.879	4.62
235.095	6.75
235.312	6.12
235.528	7.71
235.744	8.27
235.961	7.52
236.177	10.5
236.393	11.92
236.61	11.37
236.826	12.02
237.042	11.16
237.258	11.13
237.475	10.55
237.691	10.95
237.907	9.81
238.123	10.1
238.339	9.64
238.556	8.8
238.772	8.07
238.988	10.22
239.204	10.73
239.42	12.29
239.636	11.73
239.853	10.28
240.069	10.22
240.285	10.9
240.501	9.98
240.717	9.79
240.933	8.83
241.149	8.54
241.365	7.46
241.581	6.86
241.797	5.96
242.013	6.3
242.229	6.97
242.445	6.84
242.661	5.73
242.877	5.54
243.093	5.34
243.309	5.35
243.525	5.59
243.741	5.64
243.957	5.75
244.173	6.54
244.388	6.2
244.604	5.33
244.82	4.75
245.036	5.23
245.252	5.66
245.468	5.79
245.683	5.64
245.899	5.36
246.115	5.19
246.331	5.62
246.547	5.1
246.762	4.97
246.978	5.23
247.194	5.57
247.409	5.84
247.625	5.98
247.841	6.14
248.057	6.41
248.272	6.4
248.488	6.48
248.703	5.99
248.919	6.4
249.135	6.76
249.35	6.89
249.566	7.64
249.782	7.66
249.997	7.43
250.213	7.03
250.428	6.07
250.644	6
250.859	6.6
251.075	7.25
251.29	6.82
251.506	6.25
251.721	5.85
251.937	4.5
252.152	4.59
252.368	4.47
252.583	5.39
252.798	5.88
253.014	6.08
253.229	5.94
253.445	5.42
253.66	6.02
253.875	5.82
254.091	6.06
254.306	6.43
254.521	6.11
254.737	6.06
254.952	5.81
255.167	6.57
255.383	6.31
255.598	6.03
255.813	7
256.028	6.45
256.244	7.05
256.459	6.75
256.674	6.32
256.889	6.63
257.104	6.34
257.32	5.98
257.535	4.92
257.75	5.41
257.965	6.08
258.18	5.67
258.395	5.3
258.61	5.39
258.826	5.24
259.041	5.26
259.256	5.11
259.471	5.12
259.686	5.01
259.901	4.79
260.116	4.69
260.331	4.36
260.546	4.04
260.761	3.76
260.976	3.32
261.191	3.37
261.406	3.53
261.621	3.42
261.836	3.16
262.05	2.87
262.265	3.28
262.48	3.12
262.695	2.86
262.91	3.77
263.125	4.69
263.34	5.65
263.555	6.01
263.769	5.77
263.984	6.18
264.199	6.33
264.414	6.07
264.629	6.45
264.843	5.71
265.058	5.29
265.273	4.94
265.488	4.72
265.702	4.19
265.917	3.8
266.132	3.65
266.346	3.35
266.561	3.43
266.776	3.46
266.99	3.32
267.205	3.91
267.42	3.99
267.634	3.65
267.849	3.63
268.063	3.59
268.278	3.57
268.492	3.58
268.707	3.65
268.922	4
269.136	4.53
269.351	4.81
269.565	4.74
269.78	4.62
269.994	4.41
270.209	4.53
270.423	4.31
270.637	4.33
270.852	4.38
271.066	4.34
271.281	4.1
271.495	3.82
271.709	3.3
271.924	3.19
272.138	3.33
272.353	3.31
272.567	3.37
272.781	3.82
272.996	3.68
273.21	3.76
273.424	3.68
273.638	3.46
273.853	3.65
274.067	3.97
274.281	4.06
274.495	3.89
274.71	4.13
274.924	3.96
275.138	4.2
275.352	4.09
275.566	3.75
275.781	4.35
275.995	4.67
276.209	4.76
276.423	4.83
276.637	5.03
276.851	5.1
277.065	5.2
277.279	5.26
277.493	4.66
277.707	4.6
277.921	4.63
278.135	4.68
278.349	4.4
278.563	4.22
278.777	3.99
278.991	3.79
279.205	3.88
279.419	3.51
279.633	3.34
279.847	3.48
280.061	3.32
280.275	3.55
280.489	3.25
280.703	3.16
280.917	3.4
281.131	3.4
281.344	3.14
281.558	2.85
281.772	3.48
281.986	3.37
282.2	3.41
282.414	3.5
282.627	3.61
282.841	3.46
283.055	3.51
283.269	3.22
283.482	3.16
283.696	3.38
283.91	3.78
284.123	3.22
284.337	3.15
284.551	3.21
284.764	3.7
284.978	3.26
285.192	3.12
285.405	3.18
285.619	3.31
285.833	3.36
286.046	3.46
286.26	3.76
286.473	3.98
286.687	4.06
286.9	4.06
287.114	4.05
287.327	4.78
287.541	5
287.754	4.94
287.968	5.07
288.181	4.98
288.395	5.04
288.608	4.75
288.822	4.88
289.035	5.32
289.248	5.56
289.462	5.49
289.675	4.99
289.889	5.15
290.102	5.27
290.315	5.09
290.529	5.2
290.742	4.97
290.955	4.96
291.169	4.86
291.382	4.9
291.595	4.51
291.808	4.63
292.022	4.63
292.235	4.5
292.448	4.81
292.661	4.66
292.875	4.55
293.088	4.58
293.301	4.62
293.514	4.53
293.727	4.48
293.94	4.98
294.153	4.57
294.367	4.67
294.58	4.51
294.793	4.25
295.006	4.66
295.219	4.76
295.432	5.06
295.645	5.11
295.858	5.19
296.071	5.02
296.284	4.85
296.497	4.86
296.71	4.95
296.923	5.17
297.136	5.27
297.349	5.2
297.562	5.17
297.775	4.87
297.988	4.83
298.201	4.83
298.414	4.75
298.626	4.79
298.839	5.1
299.052	4.91
299.265	4.68
299.478	4.72
299.691	4.87
299.903	5
300.116	5.22
300.329	5.29
300.542	5.54
300.755	5.69
300.967	5.46
301.18	5.29
301.393	5.38
301.605	5.37
301.818	5.36
302.031	4.91
302.243	5.34
302.456	5.65
302.669	5.99
302.881	5.61
303.094	5.67
303.307	5.88
303.519	5.89
303.732	6.23
303.944	6.39
304.157	6.2
304.37	6.53
304.582	6.31
304.795	6.21
305.007	5.4
305.22	6.14
305.432	5.96
305.645	6.17
305.857	6.53
306.069	6.22
306.282	6.24
306.494	6.59
306.707	6.66
306.919	6.52
307.132	6.4
307.344	6.76
307.556	6.6
307.769	7.09
307.981	7.16
308.193	6.91
308.406	7.01
308.618	7.18
308.83	6.79
309.043	6.98
309.255	7.41
309.467	7.1
309.679	7.24
309.892	7.02
310.104	6.74
310.316	6.56
310.528	6.58
310.74	6.71
310.953	6.59
311.165	6.83
311.377	6.67
311.589	6.47
311.801	7.1
312.013	6.91
312.225	7.1
312.437	7.12
312.649	7.16
312.862	7.19
313.074	7.22
313.286	7.32
313.498	7.38
313.71	7.67
313.922	7.25
314.134	6.65
314.346	7.02
314.558	6.85
314.77	7.13
314.982	6.84
315.193	7.07
315.405	7.22
315.617	7.14
315.829	6.98
316.041	6.85
316.253	7.18
316.465	7.44
316.677	7.47
316.888	7.47
317.1	7.08
317.312	8.15
317.524	7.76
317.736	7.98
317.947	7.98
318.159	8.6
318.371	8.07
318.583	8.35
318.794	8.29
319.006	8.27
319.218	8.03
319.43	8.42
319.641	7.97
319.853	8.56
320.064	8.64
320.276	8.95
320.488	8.99
320.699	9.78
320.911	9.69
321.123	9.48
321.334	9.53
321.546	10.47
321.757	10.69
321.969	10.73
322.18	10.59
322.392	9.96
322.603	9.76
322.815	9.77
323.026	9.51
323.238	9.5
323.449	9.52
323.661	9.63
323.872	9
324.083	8.82
324.295	8.46
324.506	8.45
324.718	8.76
324.929	9.05
325.14	8.78
325.352	8.66
325.563	8.91
325.774	9.19
325.986	9.07
326.197	9.39
326.408	9.57
326.62	9.83
326.831	10.17
327.042	10.34
327.253	10.48
327.464	10.87
327.676	11.31
327.887	11.25
328.098	11.26
328.309	11.89
328.52	11.88
328.732	12.13
328.943	12.34
329.154	12.53
329.365	13.04
329.576	13.22
329.787	13.39
329.998	13.34
330.209	13.8
330.42	14.12
330.631	13.93
330.842	14.39
331.053	13.84
331.264	14.02
331.475	13.67
331.686	13.41
331.897	13.13
332.108	12.68
332.319	12.56
332.53	12
332.741	12.16
332.952	12.12
333.163	11.89
333.374	12.63
333.585	12.37
333.795	12.45
334.006	12.29
334.217	12.12
334.428	12.36
334.639	12.65
334.849	13.12
335.06	13.09
335.271	13.22
335.482	13.03
335.692	13.07
335.903	13.53
336.114	13.45
336.325	13.73
336.535	13.98
336.746	14.02
336.957	14.18
337.167	14.17
337.378	14.31
337.589	14.3
337.799	14.57
338.01	14.16
338.22	14.2
338.431	14.47
338.642	14.19
338.852	14.03
339.063	14.08
339.273	14.1
339.484	14.11
339.694	14.04
339.905	13.96
340.115	14.03
340.326	13.7
340.536	13.55
340.746	13.46
340.957	13.57
341.167	13.72
341.378	13.74
341.588	13.49
341.799	13.24
342.009	13.17
342.219	12.99
342.43	12.65
342.64	13.07
342.85	12.95
343.061	12.7
343.271	12.86
343.481	13.09
343.691	12.74
343.902	12.71
344.112	12.83
344.322	12.85
344.532	12.83
344.743	13.18
344.953	13.06
345.163	13.08
345.373	13.27
345.583	13.2
345.793	12.87
346.004	12.9
346.214	13.19
346.424	13.23
346.634	13.1
346.844	13.44
347.054	13.15
347.264	13.1
347.474	12.79
347.684	12.75
347.894	12.8
348.104	12.77
348.314	13.04
348.524	12.88
348.734	12.63
348.944	12.51
349.154	12.44
349.364	12.65
349.574	12.86
349.784	13
349.994	13.11
350.204	13.01
350.413	12.94
350.623	12.63
350.833	12.37
351.043	12.31
351.253	12.56
351.463	12.31
351.672	12.14
351.882	11.89
352.092	11.67
352.302	11.59
352.511	11.5
352.721	11.73
352.931	12.14
353.141	12.56
353.35	12.85
353.56	12.82
353.77	12.6
353.979	12.67
354.189	12.76
354.399	12.76
354.608	12.78
354.818	12.74
355.027	12.6
355.237	12.49
355.447	12.19
355.656	12.36
355.866	12.37
356.075	12.62
356.285	12.46
356.494	12.42
356.704	12.43
356.913	12.17
357.123	11.98
357.332	12.07
357.542	12
357.751	11.97
357.96	11.75
358.17	11.62
358.379	11.49
358.589	11.68
358.798	11.81
359.007	11.96
359.217	12.17
359.426	12.32
359.635	12.1
359.845	12.04
360.054	12.01
360.263	11.88
360.472	12.07
360.682	12.31
360.891	12.05
361.1	11.89
361.309	11.92
361.519	11.85
361.728	11.72
361.937	11.84
362.146	11.81
362.355	11.86
362.564	11.89
362.774	11.67
362.983	11.34
363.192	11.43
363.401	11.42
363.61	11.27
363.819	11.16
364.028	11.19
364.237	11.03
364.446	11.19
364.655	11.15
364.864	11.31
365.073	11.44
365.282	11.55
365.491	11.52
365.7	11.55
365.909	11.53
366.118	11.4
366.327	11.36
366.536	11.59
366.745	11.35
366.954	11.29
367.162	10.75
367.371	10.62
367.58	10.69
367.789	10.59
367.998	10.54
368.207	10.68
368.415	10.79
368.624	10.64
368.833	10.58
369.042	10.48
369.25	10.6
369.459	10.93
369.668	11.09
369.877	10.99
370.085	11.02
370.294	10.9
370.503	10.62
370.711	10.68
370.92	10.74
371.129	10.73
371.337	10.74
371.546	10.66
371.754	10.75
371.963	10.62
372.171	10.56
372.38	10.44
372.589	10.76
372.797	10.67
373.006	10.64
373.214	10.6
373.423	10.54
373.631	10.42
373.84	9.94
374.048	9.65
374.256	9.54
374.465	9.48
374.673	9.69
374.882	9.33
375.09	9.46
375.298	9.25
375.507	9.22
375.715	9.05
375.923	9.11
376.132	9.35
376.34	9.45
376.548	9.11
376.757	9.08
376.965	8.9
377.173	9.08
377.381	9.14
377.59	9.2
377.798	9.19
378.006	8.98
378.214	8.99
378.423	8.88
378.631	8.67
378.839	8.82
379.047	8.94
379.255	8.92
379.463	8.62
379.671	8.51
379.879	8.22
380.088	8.23
380.296	8.52
380.504	8.53
380.712	8.56
380.92	8.43
381.128	8.49
381.336	8.55
381.544	8.43
381.752	8.25
381.96	8.02
382.168	8.26
382.376	8.34
382.584	8.29
382.791	8.11
382.999	8.11
383.207	8.37
383.415	8.13
383.623	7.97
383.831	7.97
384.039	8.17
384.247	8.44
384.454	8.34
384.662	7.94
384.87	7.81
385.078	7.8
385.285	7.68
385.493	7.7
385.701	7.77
385.909	7.61
386.116	7.51
386.324	7.44
386.532	7.09
386.739	7.11
386.947	7.37
387.155	7.37
387.362	7.34
387.57	7.52
387.778	7.43
387.985	7.41
388.193	7.58
388.4	7.59
388.608	7.7
388.816	7.69
389.023	7.63
389.231	7.48
389.438	7.41
389.646	7.52
389.853	7.32
390.061	7.37
390.268	7.47
390.475	7.1
390.683	7.09
390.89	6.94
391.098	7.17
391.305	7.16
391.512	7.36
391.72	7.19
391.927	7.02
392.135	6.93
392.342	6.7
392.549	6.49
392.756	6.45
392.964	6.26
393.171	6.11
393.378	6.04
393.586	5.96
393.793	5.74
394	5.87
394.207	5.9
394.414	5.94
394.622	5.82
394.829	5.85
395.036	5.94
395.243	6.08
395.45	6.05
395.657	5.84
395.864	5.8
396.072	5.72
396.279	5.54
396.486	5.47
396.693	5.31
396.9	5.36
397.107	5.43
397.314	5.58
397.521	5.65
397.728	5.66
397.935	5.79
398.142	5.83
398.349	5.95
398.556	6.08
398.763	6
398.97	6.21
399.177	6.16
399.383	5.91
399.59	5.74
399.797	5.76
400.004	5.95
400.211	5.95
400.418	5.88
400.625	5.88
400.831	5.95
401.038	5.94
401.245	5.79
401.452	5.91
401.658	6.25
401.865	6.09
402.072	5.93
402.279	5.69
402.485	5.5
402.692	5.58
402.899	5.39
403.105	5.08
403.312	5.08
403.519	4.98
403.725	5.03
403.932	4.92
404.138	4.98
404.345	4.97
404.552	4.99
404.758	5
404.965	4.87
405.171	4.95
405.378	5.1
405.584	5.13
405.791	5.13
405.997	4.88
406.204	4.78
406.41	4.79
406.617	4.81
406.823	4.85
407.029	4.8
407.236	4.85
407.442	4.7
407.649	4.79
407.855	4.72
408.061	4.72
408.268	4.72
408.474	4.63
408.68	4.76
408.887	4.63
409.093	4.54
409.299	4.66
409.505	4.68
409.712	4.77
409.918	4.51
410.124	4.44
410.33	4.52
410.537	4.54
410.743	4.61
410.949	4.55
411.155	4.53
411.361	4.32
411.567	4.23
411.773	4.01
411.98	4.07
412.186	4.18
412.392	4.14
412.598	4.15
412.804	4.28
413.01	4.36
413.216	4.14
413.422	4.34
413.628	4.57
413.834	4.42
414.04	4.63
414.246	4.44
414.452	4.38
414.658	4.56
414.864	4.6
415.07	4.51
415.275	4.51
415.481	4.65
415.687	4.41
415.893	4.38
416.099	4.5
416.305	4.39
416.511	4.43
416.716	4.21
416.922	4.14
417.128	4.06
417.334	4.06
417.539	3.94
417.745	3.97
417.951	4.03
418.157	4.02
418.362	4.01
418.568	4.08
418.774	4.13
418.979	4.19
419.185	4.17
419.391	4.1
419.596	4.06
419.802	4.05
420.008	3.97
420.213	3.26
420.419	3.27
420.624	3.19
420.83	3.19
421.035	3.17
421.241	3.25
421.446	3.26
421.652	3.3
421.857	3.24
422.063	3.27
422.268	3.24
422.474	3.94
422.679	3.95
422.885	4.02
423.09	3.88
423.295	3.86
423.501	3.85
423.706	3.83
423.911	3.81
424.117	3.85
424.322	3.79
424.527	3.78
424.733	3.68
424.938	3.65
425.143	3.64
425.349	3.75
425.554	3.76
425.759	3.68
425.964	3.69
426.169	3.73
426.375	3.78
426.58	3.87
426.785	3.92
426.99	3.95
427.195	3.92
427.4	3.92
427.605	3.82
427.811	3.83
428.016	3.83
428.221	3.81
428.426	3.75
428.631	3.66
428.836	3.57
429.041	3.52
429.246	3.49
429.451	3.61
429.656	3.66
429.861	3.71
430.066	3.63
430.271	3.82
430.476	3.87
430.681	3.93
430.886	3.98
431.09	4.04
431.295	4.13
431.5	4.17
431.705	4.19
431.91	4.08
432.115	4.01
432.32	3.99
432.524	3.92
432.729	3.91
432.934	3.88
433.139	3.8
433.343	3.75
433.548	3.7
433.753	3.71
433.958	3.64
434.162	3.72
434.367	3.83
434.572	3.87
434.776	3.86
434.981	3.79
435.186	3.89
435.39	3.95
435.595	4.05
435.799	4.03
436.004	4
436.209	3.91
436.413	3.83
436.618	3.81
436.822	3.74
437.027	3.65
437.231	3.64
437.436	3.49
437.64	3.58
437.845	3.43
438.049	3.48
438.253	3.44
438.458	3.57
438.662	3.63
438.867	3.58
439.071	3.53
439.275	3.67
439.48	3.77
439.684	3.76
439.888	3.74
440.093	3.77
440.297	3.67
440.501	3.76
440.706	3.7
440.91	3.62
441.114	3.62
441.318	3.67
441.523	3.63
441.727	3.54
441.931	3.55
442.135	3.49
442.339	3.53
442.543	3.63
442.748	3.57
442.952	3.62
443.156	3.63
443.36	3.67
443.564	3.63
443.768	3.43
443.972	3.46
444.176	3.44
444.38	3.5
444.584	3.41
444.788	3.4
444.992	3.39
445.196	3.42
445.4	3.44
445.604	3.44
445.808	3.56
446.012	3.73
446.216	3.7
446.42	3.76
446.624	3.74
446.828	3.77
447.032	3.72
447.235	3.71
447.439	3.64
447.643	3.65
447.847	3.68
448.051	3.58
448.254	3.54
448.458	3.58
448.662	3.59
448.866	3.54
449.069	3.6
449.273	3.61
449.477	3.67
449.681	3.58
449.884	3.58
450.088	3.5
450.292	3.6
450.495	3.61
450.699	3.58
450.902	3.51
451.106	3.51
451.31	3.45
451.513	3.49
451.717	3.5
451.92	3.52
452.124	3.56
452.327	3.62
452.531	3.59
452.734	3.52
452.938	3.53
453.141	3.42
453.345	3.57
453.548	3.6
453.752	3.59
453.955	3.52
454.158	3.56
454.362	3.48
454.565	3.43
454.769	3.46
454.972	3.55
455.175	3.47
455.379	3.57
455.582	3.37
455.785	3.34
455.988	3.26
456.192	3.33
456.395	3.32
456.598	3.3
456.801	3.35
457.005	3.32
457.208	3.21
457.411	3.19
457.614	3.24
457.817	3.33
458.021	3.3
458.224	3.37
458.427	3.3
458.63	3.35
458.833	3.37
459.036	3.3
459.239	3.25
459.442	3.31
459.645	3.37
459.848	3.34
460.051	3.31
460.254	3.32
460.457	3.29
460.66	3.34
460.863	3.35
461.066	3.34
461.269	3.39
461.472	3.44
461.675	3.44
461.878	3.53
462.081	3.47
462.284	3.47
462.486	3.49
462.689	3.52
462.892	3.48
463.095	3.5
463.298	3.5
463.5	3.43
463.703	3.31
463.906	3.29
464.109	3.25
464.311	3.4
464.514	3.46
464.717	3.59
464.92	3.55
465.122	3.55
465.325	3.57
465.528	3.63
465.73	3.68
465.933	3.76
466.135	3.73
466.338	3.73
466.541	3.76
466.743	3.69
466.946	3.67
467.148	3.77
467.351	3.78
467.553	3.75
467.756	3.69
467.958	3.74
468.161	3.81
468.363	3.89
468.566	3.81
468.768	3.8
468.971	3.85
469.173	3.9
469.375	3.85
469.578	3.82
469.78	3.83
469.983	3.95
470.185	3.97
470.387	3.89
470.59	3.89
470.792	3.9
470.994	3.82
471.196	3.81
471.399	3.79
471.601	3.79
471.803	3.72
472.005	3.69
472.208	3.7
472.41	3.56
472.612	3.54
472.814	3.51
473.016	3.63
473.218	3.66
473.421	3.64
473.623	3.57
473.825	3.65
474.027	3.83
474.229	3.86
474.431	3.84
474.633	3.97
474.835	3.86
475.037	3.95
475.239	3.86
475.441	3.86
475.643	3.86
475.845	3.82
476.047	3.75
476.249	3.68
476.451	3.7
476.653	3.64
476.855	3.56
477.057	3.69
477.258	3.62
477.46	3.66
477.662	3.65
477.864	3.71
478.066	3.75
478.268	3.74
478.469	3.74
478.671	3.69
478.873	3.67
479.075	3.66
479.276	3.6
479.478	3.62
479.68	3.54
479.882	3.51
480.083	3.46
480.285	3.41
480.487	3.41
480.688	3.36
480.89	3.41
481.091	3.5
481.293	3.54
481.495	3.53
481.696	3.5
481.898	3.58
482.099	3.54
482.301	3.54
482.502	3.55
482.704	3.54
482.905	3.54
483.107	3.49
483.308	3.45
483.51	3.44
483.711	3.43
483.913	3.43
484.114	3.38
484.315	3.4
484.517	3.39
484.718	3.37
484.92	3.36
485.121	3.37
485.322	3.4
485.524	3.41
485.725	3.44
485.926	3.48
486.127	3.47
486.329	3.49
486.53	3.49
486.731	3.5
486.932	3.49
487.134	3.49
487.335	3.49
487.536	3.46
487.737	3.45
487.938	3.45
488.139	3.44
488.341	3.45
488.542	3.43
488.743	3.43
488.944	3.43
489.145	3.45
489.346	3.46
489.547	3.49
489.748	3.56
489.949	3.61
490.15	3.57
490.351	3.54
490.552	3.52
490.753	3.55
490.954	3.57
491.155	3.55
491.356	3.57
491.557	3.59
491.758	3.55
491.959	3.55
492.159	3.51
492.36	3.52
492.561	3.59
492.762	3.59
492.963	3.59
493.164	3.59
493.364	3.68
493.565	3.66
493.766	3.67
493.967	3.71
494.167	3.67
494.368	3.62
494.569	3.69
494.769	3.68
494.97	3.78
495.171	3.83
495.371	3.82
495.572	3.77
495.773	3.76
495.973	3.76
496.174	3.81
496.375	3.9
496.575	4.03
496.776	4.05
496.976	4.06
497.177	4.04
497.377	4.07
497.578	4.09
497.778	4.05
497.979	4.12
498.179	4.17
498.38	4.12
498.58	4.12
498.78	4.05
498.981	3.98
499.181	4.05
499.382	4.08
499.582	4.04
499.782	4.13
499.983	4.26
500.183	4.27
500.383	4.3
500.584	4.37
500.784	4.46
500.984	4.58
501.184	4.62
501.385	4.56
501.585	4.61
501.785	4.73
501.985	4.75
502.185	4.72
502.386	4.72
502.586	4.77
502.786	4.89
502.986	4.83
503.186	4.78
503.386	4.78
503.586	4.91
503.786	4.87
503.987	4.93
504.187	4.95
504.387	5.1
504.587	5.16
504.787	5.21
504.987	5.21
505.187	5.26
505.387	5.34
505.587	5.43
505.786	5.36
505.986	5.53
506.186	5.59
506.386	5.66
506.586	5.55
506.786	5.6
506.986	5.66
507.186	5.73
507.386	5.88
507.585	5.98
507.785	6.02
507.985	6.17
508.185	6.13
508.384	6.14
508.584	6.18
508.784	6.38
508.984	6.52
509.183	6.52
509.383	6.5
509.583	6.45
509.782	6.55
509.982	6.66
510.182	6.64
510.381	6.75
510.581	6.8
510.781	6.88
510.98	6.95
511.18	6.95
511.379	7.01
511.579	7.09
511.778	7.19
511.978	7.19
512.177	7.22
512.377	7.4
512.576	7.46
512.776	7.56
512.975	7.66
513.175	7.73
513.374	7.86
513.573	8.02
513.773	8.08
513.972	8.14
514.172	8.33
514.371	8.5
514.57	8.55
514.77	8.65
514.969	8.76
515.168	8.94
515.367	9.04
515.567	9.1
515.766	9.2
515.965	9.37
516.164	9.53
516.364	9.52
516.563	9.62
516.762	9.69
516.961	9.79
517.16	9.9
517.359	9.85
517.559	9.91
517.758	10
517.957	9.97
518.156	10.1
518.355	10.14
518.554	10.25
518.753	10.3
518.952	10.31
519.151	10.37
519.35	10.41
519.549	10.47
519.748	10.57
519.947	10.68
520.146	10.82
520.345	10.88
520.544	10.97
520.743	11.09
520.942	11.17
521.141	11.43
521.339	11.52
521.538	11.64
521.737	11.86
521.936	11.88
522.135	11.96
522.333	12.13
522.532	12.23
522.731	12.4
522.93	12.46
523.129	12.6
523.327	12.65
523.526	12.83
523.725	12.9
523.923	12.93
524.122	13.06
524.321	13.16
524.519	13.23
524.718	13.31
524.917	13.33
525.115	13.46
525.314	13.52
525.512	13.6
525.711	13.7
525.909	13.79
526.108	13.93
526.306	14.07
526.505	14.14
526.703	14.29
526.902	14.38
527.1	14.52
527.299	14.59
527.497	14.68
527.696	14.72
527.894	14.75
528.092	14.8
528.291	14.82
528.489	14.85
528.688	14.91
528.886	14.94
529.084	14.97
529.283	15.01
529.481	15.06
529.679	15.15
529.877	15.25
530.076	15.34
530.274	15.45
530.472	15.56
530.67	15.7
530.869	15.83
531.067	15.96
531.265	16.17
531.463	16.3
531.661	16.48
531.859	16.58
532.057	16.71
532.255	16.81
532.454	16.95
532.652	17.04
532.85	17.08
533.048	17.11
533.246	17.15
533.444	17.19
533.642	17.22
533.84	17.22
534.038	17.26
534.236	17.32
534.434	17.37
534.632	17.37
534.83	17.49
535.027	17.6
535.225	17.7
535.423	17.82
535.621	17.94
535.819	18.05
536.017	18.19
536.215	18.31
536.412	18.41
536.61	18.54
536.808	18.72
537.006	18.76
537.203	18.93
537.401	19.14
537.599	19.22
537.797	19.32
537.994	19.5
538.192	19.62
538.39	19.73
538.587	19.86
538.785	19.97
538.983	20.11
539.18	20.24
539.378	20.32
539.575	20.42
539.773	20.53
539.97	20.63
540.168	20.7
540.366	20.78
540.563	20.88
540.761	20.95
540.958	21.01
541.155	21.02
541.353	21.12
541.55	21.17
541.748	21.22
541.945	21.31
542.143	21.35
542.34	21.46
542.537	21.54
542.735	21.58
542.932	21.69
543.129	21.81
543.327	22.01
543.524	22.16
543.721	22.35
543.919	22.46
544.116	22.65
544.313	22.88
544.51	23.03
544.708	23.25
544.905	23.5
545.102	23.67
545.299	23.86
545.496	23.95
545.693	24
545.891	24.06
546.088	24.21
546.285	24.22
546.482	24.17
546.679	24.16
546.876	24.12
547.073	24.06
547.27	24.01
547.467	23.96
547.664	23.88
547.861	23.93
548.058	23.93
548.255	23.85
548.452	23.84
548.649	23.94
548.846	23.99
549.043	24.02
549.24	24.1
549.437	24.2
549.633	24.24
549.83	24.39
550.027	24.37
550.224	24.38
550.421	24.39
550.618	24.45
550.814	24.36
551.011	24.32
551.208	24.31
551.405	24.3
551.601	24.28
551.798	24.38
551.995	24.41
552.191	24.46
552.388	24.52
552.585	24.58
552.781	24.64
552.978	24.68
553.175	24.74
553.371	24.75
553.568	24.88
553.764	25.01
553.961	24.91
554.157	24.91
554.354	24.97
554.55	24.96
554.747	25.04
554.943	24.95
555.14	25.23
555.336	25.31
555.533	25.42
555.729	25.29
555.926	25.26
556.122	25.4
556.318	25.41
556.515	25.45
556.711	25.51
556.907	25.53
557.104	25.6
557.3	25.45
557.496	25.48
557.693	25.55
557.889	25.85
558.085	25.94
558.281	25.98
558.478	26.04
558.674	25.99
558.87	26.06
559.066	26.07
559.262	26.07
559.459	26.05
559.655	26.07
559.851	25.96
560.047	25.74
560.243	25.78
560.439	25.74
560.635	25.74
560.831	25.88
561.027	26.01
561.223	26.02
561.419	26.15
561.615	26.47
561.811	26.56
562.007	26.76
562.203	26.92
562.399	26.94
562.595	27.02
562.791	27.18
562.987	27.15
563.183	27.05
563.379	27.16
563.575	27.18
563.771	26.99
563.966	26.98
564.162	27.05
564.358	27.11
564.554	27.17
564.75	27.21
564.945	27.25
565.141	27.33
565.337	27.38
565.533	27.35
565.728	27.41
565.924	27.43
566.12	27.52
566.315	27.47
566.511	27.37
566.707	27.39
566.902	27.36
567.098	27.4
567.293	27.36
567.489	27.36
567.684	27.45
567.88	27.53
568.076	27.66
568.271	27.65
568.467	27.69
568.662	27.83
568.858	27.82
569.053	27.9
569.248	27.88
569.444	27.98
569.639	28.07
569.835	28.1
570.03	28.01
570.225	27.95
570.421	27.97
570.616	28.06
570.812	28.09
571.007	28.11
571.202	28.25
571.397	28.22
571.593	28.19
571.788	28.17
571.983	28.21
572.178	28.35
572.374	28.42
572.569	28.48
572.764	28.52
572.959	28.57
573.154	28.64
573.35	28.53
573.545	28.62
573.74	28.73
573.935	28.77
574.13	28.81
574.325	28.89
574.52	28.94
574.715	28.95
574.91	28.97
575.105	29.04
575.3	29.04
575.495	29.15
575.69	29.21
575.885	29.18
576.08	29.28
576.275	29.3
576.47	29.34
576.665	29.47
576.86	29.53
577.055	29.55
577.25	29.64
577.444	29.84
577.639	29.89
577.834	30.09
578.029	30.32
578.224	30.45
578.418	30.59
578.613	30.71
578.808	30.61
579.003	30.65
579.197	30.83
579.392	30.71
579.587	30.61
579.781	30.63
579.976	30.6
580.171	30.55
580.365	30.45
580.56	30.45
580.755	30.38
580.949	30.53
581.144	30.71
581.338	30.66
581.533	30.85
581.727	30.92
581.922	31.14
582.116	31.13
582.311	31.04
582.505	31.07
582.7	31.09
582.894	31.04
583.089	31.09
583.283	31.13
583.478	31.13
583.672	31.18
583.866	31.36
584.061	31.35
584.255	31.21
584.449	31.4
584.644	31.57
584.838	31.56
585.032	31.65
585.226	31.68
585.421	31.8
585.615	31.79
585.809	31.9
586.003	31.94
586.198	31.81
586.392	32.08
586.586	32.09
586.78	32.11
586.974	32.05
587.168	32.12
587.363	32.07
587.557	31.87
587.751	31.99
587.945	31.74
588.139	31.64
588.333	31.67
588.527	31.54
588.721	31.49
588.915	31.34
589.109	31.52
589.303	31.52
589.497	31.53
589.691	31.58
589.885	31.58
590.079	31.73
590.273	31.7
590.466	31.75
590.66	32
590.854	32.07
591.048	32.26
591.242	32.19
591.436	32.32
591.629	32.48
591.823	32.59
592.017	32.6
592.211	32.63
592.404	32.73
592.598	32.73
592.792	32.51
592.986	32.57
593.179	32.58
593.373	32.55
593.567	32.41
593.76	32.29
593.954	32.32
594.147	32.32
594.341	32.35
594.535	32.35
594.728	32.24
594.922	32.34
595.115	32.27
595.309	32.14
595.502	32.27
595.696	32.26
595.889	32.24
596.083	32.15
596.276	32.19
596.47	32.17
596.663	32.19
596.856	32.29
597.05	32.21
597.243	32.26
597.437	32.29
597.63	32.17
597.823	32.2
598.017	32.36
598.21	32.51
598.403	32.55
598.596	32.64
598.79	32.68
598.983	32.64
599.176	32.67
599.369	32.7
599.563	32.77
599.756	32.93
599.949	32.93
600.142	32.94
600.335	32.9
600.528	32.85
600.722	32.64
600.915	32.76
601.108	32.84
601.301	32.91
601.494	32.92
601.687	32.98
601.88	32.97
602.073	33.11
602.266	33.03
602.459	32.96
602.652	32.93
602.845	33.08
603.038	32.9
603.231	32.89
603.424	32.82
603.617	32.8
603.809	32.77
604.002	32.73
604.195	32.63
604.388	32.62
604.581	32.66
604.774	32.62
604.966	32.61
605.159	32.65
605.352	32.64
605.545	32.65
605.737	32.67
605.93	32.76
606.123	32.81
606.316	32.89
606.508	32.85
606.701	32.8
606.894	33.08
607.086	33.09
607.279	33.34
607.471	33.32
607.664	33.55
607.857	33.83
608.049	34.05
608.242	34.58
608.434	34.98
608.627	35.54
608.819	36.24
609.012	36.78
609.204	37.6
609.397	38.27
609.589	39.19
609.782	40.16
609.974	41.12
610.166	42.23
610.359	43.02
610.551	43.85
610.743	44.66
610.936	45.32
611.128	45.69
611.32	45.96
611.513	46.24
611.705	46.21
611.897	45.9
612.09	45.56
612.282	44.76
612.474	44.18
612.666	43.77
612.858	43.25
613.051	42.65
613.243	42.44
613.435	42.14
613.627	41.46
613.819	41.23
614.011	40.98
614.203	40.64
614.395	40.4
614.588	40.12
614.78	39.63
614.972	39.18
615.164	38.65
615.356	38
615.548	37.53
615.74	37.34
615.932	37.15
616.124	36.81
616.315	36.3
616.507	36.16
616.699	35.97
616.891	35.8
617.083	35.6
617.275	35.68
617.467	35.57
617.659	35.45
617.85	35.22
618.042	35.16
618.234	35.04
618.426	35.17
618.618	35.11
618.809	34.93
619.001	35.07
619.193	35.1
619.384	34.9
619.576	35.06
619.768	34.98
619.959	34.87
620.151	34.77
620.343	34.86
620.534	34.76
620.726	34.76
620.917	34.8
621.109	34.63
621.301	34.65
621.492	34.94
621.684	34.74
621.875	35.05
622.067	35.2
622.258	35.33
622.45	35.26
622.641	35.34
622.832	35.4
623.024	35.43
623.215	35.47
623.407	35.16
623.598	34.92
623.789	35.18
623.981	35.11
624.172	35.36
624.363	35.38
624.555	35.44
624.746	35.36
624.937	35.41
625.129	35.51
625.32	35.62
625.511	35.87
625.702	35.93
625.893	35.84
626.085	35.75
626.276	35.64
626.467	35.63
626.658	35.68
626.849	35.71
627.04	35.67
627.231	35.71
627.422	35.63
627.614	35.67
627.805	35.81
627.996	35.84
628.187	35.98
628.378	36.15
628.569	36.19
628.76	36.2
628.951	36.46
629.142	36.57
629.332	36.56
629.523	36.66
629.714	36.85
629.905	36.71
630.096	36.88
630.287	36.89
630.478	36.73
630.669	36.84
630.859	36.98
631.05	36.83
631.241	36.87
631.432	36.8
631.623	36.65
631.813	36.62
632.004	36.63
632.195	36.32
632.385	36.22
632.576	36.07
632.767	35.7
632.957	35.55
633.148	35.56
633.339	35.37
633.529	35.3
633.72	35.22
633.91	34.82
634.101	34.76
634.292	34.68
634.482	34.58
634.673	34.66
634.863	34.82
635.054	34.72
635.244	34.62
635.435	34.62
635.625	34.52
635.815	34.44
636.006	34.47
636.196	34.49
636.387	34.57
636.577	34.6
636.767	34.41
636.958	34.31
637.148	34.34
637.338	34.17
637.529	33.99
637.719	34.16
637.909	34.3
638.099	34.25
638.29	34.16
638.48	34.38
638.67	34.43
638.86	34.48
639.05	34.51
639.241	34.45
639.431	34.77
639.621	34.82
639.811	34.8
640.001	34.7
640.191	34.81
640.381	35.11
640.571	35.06
640.761	34.95
640.951	35.19
641.141	35.16
641.331	35.19
641.521	35.11
641.711	35.33
641.901	35.27
642.091	35.4
642.281	35.44
642.471	35.1
642.661	35.17
642.851	35.07
643.041	34.94
643.231	34.92
643.42	34.86
643.61	34.86
643.8	34.69
643.99	34.56
644.18	34.69
644.369	34.87
644.559	35.01
644.749	34.68
644.939	34.83
645.128	34.81
645.318	34.93
645.508	35.21
645.697	35.23
645.887	35.32
646.076	35.44
646.266	35.43
646.456	35.46
646.645	35.52
646.835	35.64
647.024	35.62
647.214	35.88
647.403	35.9
647.593	36.06
647.782	35.98
647.972	35.93
648.161	36.03
648.351	35.99
648.54	35.91
648.73	35.95
648.919	36.14
649.108	36.29
649.298	36.27
649.487	36.18
649.677	35.85
649.866	36.05
650.055	36.05
650.244	36.23
650.434	36.35
650.623	36.36
650.812	36.31
651.002	36.25
651.191	36.18
651.38	36.06
651.569	36.2
651.758	36.27
651.947	36.05
652.137	36.12
652.326	36.04
652.515	35.76
652.704	35.62
652.893	35.7
653.082	35.6
653.271	35.69
653.46	35.57
653.649	35.47
653.838	35.33
654.027	35.42
654.216	35.54
654.405	35.25
654.594	35.42
654.783	35.55
654.972	35.39
655.161	35.44
655.35	35.4
655.539	35.79
655.728	35.76
655.916	35.93
656.105	36.12
656.294	35.84
656.483	36.14
656.672	36.03
656.86	35.98
657.049	36.02
657.238	36.08
657.427	35.99
657.615	35.9
657.804	35.98
657.993	35.98
658.181	35.97
658.37	36.22
658.559	36.1
658.747	36.27
658.936	36.35
659.125	35.96
659.313	36
659.502	36.1
659.69	35.92
659.879	35.89
660.067	35.9
660.256	35.67
660.444	35.58
660.633	35.62
660.821	35.56
661.01	35.53
661.198	36.06
661.387	36.17
661.575	36.17
661.763	36.4
661.952	36.61
662.14	36.46
662.328	36.7
662.517	36.7
662.705	36.65
662.893	36.33
663.082	36.35
663.27	36.29
663.458	36.13
663.646	36.22
663.834	36.05
664.023	36.09
664.211	36.39
664.399	36.39
664.587	36.49
664.775	36.53
664.963	36.91
665.152	37.06
665.34	37
665.528	37.17
665.716	37.09
665.904	36.97
666.092	36.59
666.28	36.23
666.468	36.23
666.656	36.16
666.844	35.98
667.032	35.86
667.22	35.6
667.408	35.55
667.596	35.4
667.784	35.32
667.971	35.54
668.159	35.91
668.347	36.12
668.535	36.01
668.723	35.91
668.911	36.22
669.098	36.12
669.286	36.28
669.474	36.51
669.662	36.25
669.849	36.23
670.037	36.15
670.225	36
670.413	35.79
670.6	35.9
670.788	35.96
670.976	35.84
671.163	36.19
671.351	35.83
671.538	35.9
671.726	36.09
671.913	36.11
672.101	36.18
672.289	36.33
672.476	36.55
672.664	36.4
672.851	36.65
673.039	36.79
673.226	36.78
673.413	37.18
673.601	37.06
673.788	37.31
673.976	37.07
674.163	37.21
674.35	36.96
674.538	36.85
674.725	37
674.912	36.84
675.1	36.69
675.287	36.6
675.474	36.53
675.662	36.47
675.849	36.29
676.036	36.67
676.223	36.64
676.411	36.7
676.598	36.67
676.785	36.78
676.972	36.66
677.159	36.73
677.346	36.68
677.533	36.68
677.721	36.74
677.908	36.78
678.095	36.74
678.282	36.59
678.469	36.51
678.656	36.61
678.843	36.53
679.03	36.61
679.217	36.62
679.404	36.71
679.591	36.74
679.778	36.83
679.964	36.77
680.151	36.7
680.338	36.71
680.525	36.58
680.712	36.63
680.899	36.64
681.086	36.55
681.272	36.41
681.459	36.2
681.646	36.26
681.833	36.21
682.02	36.12
682.206	35.94
682.393	36.06
682.58	36.33
682.766	36.5
682.953	36.46
683.14	36.53
683.326	36.65
683.513	36.77
683.7	36.55
683.886	36.27
684.073	36.34
684.259	36.6
684.446	36.62
684.632	36.94
684.819	36.85
685.005	37.07
685.192	37.27
685.378	37.3
685.565	37.55
685.751	37.84
685.938	37.87
686.124	38.1
686.31	38.22
686.497	38.3
686.683	37.81
686.87	37.73
687.056	37.4
687.242	37.23
687.429	37.18
687.615	37.14
687.801	36.78
687.987	37.16
688.174	36.91
688.36	37
688.546	36.76
688.732	36.92
688.918	36.95
689.105	37.05
689.291	37.05
689.477	37.04
689.663	36.87
689.849	37.24
690.035	37.11
690.221	37.27
690.407	37.15
690.593	37.24
690.779	37.13
690.965	36.91
691.151	37.27
691.337	37.37
691.523	37.15
691.709	37.36
691.895	37.3
692.081	37.01
692.267	36.81
692.453	36.9
692.639	37.02
692.825	37.14
693.011	37.54
693.196	37.41
693.382	37.59
693.568	37.83
693.754	37.91
693.94	38.02
694.125	38.33
694.311	38.5
694.497	38.45
694.682	38.11
694.868	37.78
695.054	37.58
695.239	37.65
695.425	37.32
695.611	37.36
695.796	37
695.982	36.88
696.168	36.87
696.353	37
696.539	37.16
696.724	37.26
696.91	37.52
697.095	37.48
697.281	37.23
697.466	37.24
697.652	37.24
697.837	37.33
698.023	36.9
698.208	36.76
698.393	36.55
698.579	36.33
698.764	36.32
698.949	36.08
699.135	35.88
699.32	35.77
699.505	35.96
699.691	35.86
699.876	35.93
700.061	36.28
700.246	36.58
700.432	36.82
700.617	36.8
700.802	36.76
700.987	37.03
701.172	37.56
701.358	37.92
701.543	37.81
701.728	38.17
701.913	37.95
702.098	37.93
702.283	37.92
702.468	37.67
702.653	37.99
702.838	38.11
703.023	38.27
703.208	37.8
703.393	37.4
703.578	37.4
703.763	37.12
703.948	37.48
704.133	37.79
704.318	37.88
704.503	37.82
704.688	37.74
704.873	38.3
705.057	38.59
705.242	38.98
705.427	39.4
705.612	39.92
705.797	40.59
705.981	40.66
706.166	40.7
706.351	40.74
706.536	41.38
706.72	41.4
706.905	41.38
707.09	41.22
707.274	41.15
707.459	41.35
707.644	41.11
707.828	40.75
708.013	40.98
708.197	40.97
708.382	40.96
708.567	40.57
708.751	40.68
708.936	40.55
709.12	40.64
709.305	40.69
709.489	40.34
709.673	40
709.858	40.06
710.042	39.89
710.227	39.91
710.411	39.84
710.596	40.26
710.78	39.9
710.964	39.83
711.149	39.66
711.333	39.6
711.517	39.69
711.702	39.83
711.886	39.48
712.07	39.08
712.254	38.84
712.438	38.77
712.623	38.2
712.807	38.18
712.991	38.01
713.175	38.09
713.359	37.87
713.544	37.69
713.728	37.36
713.912	37.47
714.096	37.8
714.28	37.83
714.464	37.79
714.648	37.97
714.832	37.94
715.016	37.83
715.2	37.48
715.384	37.5
715.568	37.53
715.752	37.64
715.936	37.99
716.12	37.72
716.304	37.7
716.488	37.49
716.671	37.48
716.855	37.56
717.039	37.78
717.223	38.1
717.407	37.95
717.59	38
717.774	37.8
717.958	37.33
718.142	37.02
718.325	37.25
718.509	37.2
718.693	37.44
718.877	37.48
719.06	37.09
719.244	36.77
719.428	37.16
719.611	37.22
719.795	37.17
719.978	37.31
720.162	37.32
720.345	37.07
720.529	37.33
720.713	37.06
720.896	36.9
721.08	36.99
721.263	37.33
721.446	37.23
721.63	37.2
721.813	37.65
721.997	37.39
722.18	37.62
722.364	37.29
722.547	37.01
722.73	37.02
722.914	37.28
723.097	37.53
723.28	37.61
723.464	37.57
723.647	37.73
723.83	37.6
724.013	37.77
724.197	37.7
724.38	37.83
724.563	38.08
724.746	37.99
724.929	38.16
725.112	38.13
725.296	37.65
725.479	37.58
725.662	37.56
725.845	37.89
726.028	38.15
726.211	38.37
726.394	38.59
726.577	38.58
726.76	38.77
726.943	38.17
727.126	38.22
727.309	38.44
727.492	38.57
727.675	38.22
727.858	38.14
728.041	37.75
728.224	38.07
728.407	37.7
728.589	37.89
728.772	37.93
728.955	37.96
729.138	37.58
729.321	37.52
729.503	37.14
729.686	37.48
729.869	37.32
730.052	37.29
730.234	37.17
730.417	36.89
730.6	36.35
730.782	36.13
730.965	36.62
731.148	36.88
731.33	36.7
731.513	36.92
731.695	36.6
731.878	36.73
732.061	37.21
732.243	37.03
732.426	37.67
732.608	37.88
732.791	37.88
732.973	37.47
733.156	37.29
733.338	37.42
733.52	37.65
733.703	37.91
733.885	37.8
734.068	37.52
734.25	37.47
734.432	37.23
734.615	37.33
734.797	37.35
734.979	37.12
735.162	37.6
735.344	37.57
735.526	37.4
735.708	37.08
735.891	37.43
736.073	37.11
736.255	37.08
736.437	37.02
736.619	37.08
736.802	37.25
736.984	37.69
737.166	37.07
737.348	37.11
737.53	36.97
737.712	37
737.894	37.08
738.076	37.42
738.258	37.58
738.44	37.8
738.622	37.66
738.804	37.16
738.986	37.15
739.168	37.79
739.35	37.68
739.532	37.8
739.714	37.96
739.896	37.96
740.078	37.79
740.259	38
740.441	38.14
740.623	38.11
740.805	38.95
740.987	39.16
741.168	38.08
741.35	38.22
741.532	37.88
741.714	37.52
741.895	37.16
742.077	37.25
742.259	37.42
742.44	37.64
742.622	37.73
742.804	37.21
742.985	36.97
743.167	37.98
743.348	37.75
743.53	38.4
743.711	38.9
743.893	38.32
744.075	38.48
744.256	38.09
744.438	37.84
744.619	38
744.8	37.95
744.982	37.58
745.163	37.41
745.345	37.84
745.526	37.99
745.707	37.84
745.889	38.39
746.07	38.22
746.252	37.8
746.433	37.5
746.614	37.82
746.795	37.62
746.977	38.27
747.158	38.08
747.339	38.12
747.52	38.57
747.702	38.05
747.883	37.83
748.064	37.96
748.245	38.37
748.426	38.37
748.607	38.48
748.788	39.22
748.97	38.92
749.151	38.81
749.332	38.92
749.513	38.59
749.694	39.57
749.875	39.51
750.056	39.53
750.237	39.57
750.418	40.05
750.599	39.9
750.78	40.02
750.96	40.09
751.141	40.39
751.322	39.77
751.503	39.63
751.684	38.96
751.865	39.14
752.046	39.34
752.226	38.82
752.407	38.68
752.588	38.08
752.769	37.81
752.949	37.82
753.13	37.95
753.311	37.98
753.492	37.78
753.672	38.25
753.853	38.7
754.034	38.83
754.214	39.17
754.395	39.02
754.575	39.55
754.756	39.48
754.937	39.79
755.117	39.64
755.298	39.91
755.478	39.65
755.659	40.05
755.839	39.54
756.02	38.89
756.2	38.75
756.381	38.77
756.561	38.62
756.741	38.81
756.922	38.91
757.102	39.03
757.283	39.26
757.463	39.03
757.643	38.44
757.823	38.61
758.004	38.8
758.184	39.15
758.364	39.18
758.545	39.62
758.725	39.46
758.905	39.47
759.085	39.52
759.265	38.85
759.446	38.64
759.626	38.22
759.806	38.47
759.986	38.94
760.166	38.46
760.346	38.07
760.526	37.8
760.706	37.73
760.886	37.67
761.066	37.41
761.246	37.18
761.426	37.88
761.606	37.84
761.786	37.26
761.966	37.33
762.146	37.47
762.326	37.62
762.506	36.93
762.686	36.48
762.866	36.24
763.046	36.29
763.225	36.73
763.405	36.5
763.585	36.57
763.765	37.08
763.945	36.7
764.124	36.9
764.304	36.86
764.484	37.47
764.664	37.65
764.843	37.42
765.023	37.48
765.203	37.39
765.382	37.07
765.562	36.96
765.741	36.63
765.921	36.68
766.101	36.87
766.28	36.33
766.46	35.74
766.639	36.14
766.819	36.2
766.998	35.97
767.178	36.23
767.357	36.73
767.537	37.22
767.716	37.73
767.896	37.84
768.075	37.54
768.254	37.98
768.434	38.6
768.613	39.17
768.792	39.79
768.972	40.33
769.151	40.11
769.33	39.76
769.51	39.55
769.689	39.09
769.868	39.33
770.047	39.28
770.226	40.14
770.406	40.08
770.585	38.94
770.764	38.95
770.943	38.07
771.122	38.54
771.301	38.94
771.48	38.82
771.66	38.4
771.839	37.95
772.018	37.58
772.197	36.68
772.376	36.06
772.555	35.78
772.734	35.6
772.913	35.34
773.092	35.63
773.271	35.63
773.449	35.16
773.628	35.59
773.807	35.21
773.986	35.24
774.165	35.14
774.344	35.12
774.523	35.99
774.701	36.29
774.88	37.47
775.059	37.16
775.238	37.81
775.417	38.23
775.595	37.78
775.774	38.46
775.953	39.19
776.131	40.13
776.31	40.89
776.489	40.85
776.667	40.07
776.846	40.16
777.025	39.84
777.203	39.01
777.382	39.61
777.56	39.57
777.739	38.83
777.917	39.26
778.096	37.96
778.274	38.1
778.453	37.52
778.631	37.44
778.81	36.84
778.988	37.09
779.166	37.3
779.345	37.28
779.523	37.31
779.702	38.51
779.88	36.92
780.058	37.94
780.237	37.01
780.415	37.44
780.593	37.67
780.771	37.75
780.95	37.95
781.128	37.8
781.306	37.8
781.484	38.29
781.662	37.22
781.841	36.74
782.019	36.07
782.197	36.96
782.375	37.06
782.553	36.94
782.731	37.35
782.909	37.33
783.087	37.37
783.265	37.79
783.443	37.1
783.621	37.26
783.799	38.51
783.977	40.08
784.155	40.6
784.333	40.61
784.511	40.02
784.689	39.88
784.867	39.16
785.045	39.4
785.223	39.22
785.4	39.69
785.578	40.17
785.756	39.77
785.934	39.73
786.112	38.3
786.289	37.92
786.467	38.65
786.645	38.97
786.823	39.15
787	39.2
787.178	38.65
787.356	39.32
787.533	38.76
787.711	38.58
787.889	37.15
788.066	37.44
788.244	37.01
788.421	37.13
788.599	36.09
788.776	35.93
788.954	35.25
789.131	34.69
789.309	33.85
789.486	34.46
789.664	35.23
789.841	36.05
790.019	35.49
790.196	35.45
790.373	35.36
790.551	36.32
790.728	35.95
790.906	37.16
791.083	38.15
791.26	38.6
791.437	38.05
791.615	36.93
791.792	36.75
791.969	37.54
792.146	38.04
792.324	38.4
792.501	38.33
792.678	38.7
792.855	37.68
793.032	37.66
793.209	37.74
793.387	37.86
793.564	38.92
793.741	38.64
793.918	38.17
794.095	38.31
794.272	37.08
794.449	36.69
794.626	37.35
794.803	37.78
794.98	37.18
795.157	37.77
795.334	37.96
795.511	37.93
795.688	38.23
795.864	38.21
796.041	38.05
796.218	38.86
796.395	38.06
796.572	38.17
796.749	37.77
796.925	38.3
797.102	37.67
797.279	36.95
797.456	36.95
797.632	36.46
797.809	35.96
797.986	35.64
798.162	35.1
798.339	35.57
798.516	34.9
798.692	35.23
798.869	34.08
799.046	34.05
799.222	34.62
799.399	34.35
799.575	34.68
799.752	36.34
799.928	37.1
800.105	37.55
800.281	37.45
800.458	38.28
800.634	37.89
800.811	38.66
800.987	37.97
801.163	38.03
801.34	38.19
801.516	37.63
801.692	36.56
801.869	36.5
802.045	35.91
802.221	36.21
802.398	35.15
802.574	34.61
802.75	34.36
802.926	34.76
803.103	34.83
803.279	35.26
803.455	35.77
803.631	36.63
803.807	36.94
803.983	38.81
804.16	39.2
804.336	39.9
804.512	41.14
804.688	41.7
804.864	43.09
805.04	43.62
805.216	41.89
805.392	41.84
805.568	41.68
805.744	39.76
805.92	39.1
806.096	38.69
806.272	37.54
806.448	37.21
806.623	36.87
806.799	36.02
806.975	35.3
807.151	36.98
807.327	38.14
807.503	37.73
807.678	39.49
807.854	39.66
808.03	40.42
808.206	41.71
808.381	42.01
808.557	44.22
808.733	42.89
808.908	44.21
809.084	43.5
809.26	42.96
809.435	42.84
809.611	42.66
809.787	42.29
809.962	43.02
810.138	42
810.313	41.29
810.489	39.13
810.664	40.87
810.84	39.04
811.015	38.56
811.191	38.48
811.366	38.04
811.542	37.89
811.717	37.36
811.892	36.62
812.068	36.57
812.243	37.27
812.419	37.84
812.594	37.28
812.769	37.4
812.944	38.67
813.12	38.15
813.295	40.24
813.47	40.8
813.645	41.29
813.821	40.16
813.996	39.85
814.171	39.26
814.346	39
814.521	38.73
814.697	39.09
814.872	38.49
815.047	37.91
815.222	36.33
815.397	35.34
815.572	34.42
815.747	34.75
815.922	35.02
816.097	34.61
816.272	35.33
816.447	34.6
816.622	33.29
816.797	33.56
816.972	34.88
817.147	35.22
817.322	34.46
817.496	35.05
817.671	34.8
817.846	34.3
818.021	34.4
818.196	32.38
818.371	32.76
818.545	33.73
818.72	34.41
818.895	34.09
819.069	34.3
819.244	34.6
819.419	34.53
819.594	34.73
819.768	35.78
819.943	36.1
820.117	37.02
820.292	37.04
820.467	36.72
820.641	35.33
820.816	34.65
820.99	34.37
821.165	34.46
821.339	34.21
821.514	34.05
821.688	34.04
821.863	33.6
822.037	33.46
822.212	33.22
822.386	33.08
822.56	33.2
822.735	33.19
822.909	33.25
823.084	33.07
823.258	32.94
823.432	32.81
823.606	32.55
823.781	32.75
823.955	32.51
824.129	32.37
824.303	32.13
824.478	32.1
824.652	32.04
824.826	31.7
825	31.57
825.174	32.21
825.348	32.48
825.523	32.3
825.697	32.26
825.871	32.42
826.045	32.87
826.219	33.2
826.393	33.22
826.567	33.41
826.741	33.79
826.915	34.32
827.089	33.68
827.263	33.31
827.437	33.35
827.611	33.41
827.784	33.68
827.958	33.93
828.132	34.05
828.306	34.26
828.48	33.8
828.654	33.46
828.827	32.61
829.001	32.86
829.175	33.45
829.349	33.99
829.522	34.05
829.696	34.46
829.87	34.66
830.044	34.59
830.217	34.29
830.391	34.92
830.565	35.02
830.738	36.19
830.912	35.53
831.085	35.05
831.259	35.02
831.432	34.76
831.606	33.16
831.779	31.91
831.953	33.04
832.126	32.84
832.3	32.5
832.473	32.37
832.647	32.44
832.82	33.23
832.994	32.35
833.167	32.07
833.34	32.46
833.514	32.88
833.687	32.96
833.86	32.69
834.034	32.21
834.207	32.69
834.38	32.33
834.553	32.32
834.727	31.78
834.9	32.87
835.073	32.64
835.246	32.3
835.419	32.15
835.593	32.28
835.766	32.43
835.939	33.2
836.112	33.5
836.285	34.39
836.458	34.29
836.631	35.82
836.804	35.38
836.977	35.43
837.15	36.3
837.323	37.71
837.496	37.25
837.669	36.37
837.842	35.88
838.015	35.7
838.188	34.87
838.361	36.03
838.533	34.4
838.706	34.98
838.879	36.91
839.052	36.79
839.225	34.46
839.398	34.78
839.57	37.23
839.743	38.62
839.916	37.81
840.088	38.06
840.261	36.71
840.434	37.07
840.607	37.04
840.779	36.92
840.952	37.07
841.124	38.09
841.297	39.77
841.47	39.22
841.642	39
841.815	40.56
841.987	41.16
842.16	42.04
842.332	42.48
842.505	42.64
842.677	41.69
842.85	38.94
843.022	40.82
843.194	40.62
843.367	40.62
843.539	42.2
843.712	41.52
843.884	42.36
844.056	43.61
844.229	45.26
844.401	45.97
844.573	47.87
844.745	50.69
844.918	50.45
845.09	49.72
845.262	49.3
845.434	46.56
845.606	45.48
845.779	46.63
845.951	46.1
846.123	43.67
846.295	43.61
846.467	42.18
846.639	41.35
846.811	42.3
846.983	41.48
847.155	41.61
847.327	43.31
847.499	45.99
847.671	45.03
847.843	44.29
848.015	44.54
848.187	43.86
848.359	46.44
848.531	49.63
848.703	44.74
848.875	45.2
849.047	42.85
849.218	40.16
849.39	37.07
849.562	35.94
849.734	38.31
849.905	39.44
850.077	38.16
850.249	36.97
850.421	36.07
850.592	40.31
850.764	38.16
850.936	42.47
851.107	44.34
851.279	46.38
851.451	45.31
851.622	43.24
851.794	40.27
851.965	37.7
852.137	35.42
852.308	33.97
852.48	30.94
852.651	35.51
852.823	35.66
852.994	34.86
853.166	34.47
853.337	38.19
853.509	36.93
853.68	38.04
853.851	40.41
854.023	41.85
854.194	44.58
854.365	50.25
854.537	50.66
854.708	47.55
854.879	49.12
855.05	48.85
855.222	46.41
855.393	47.89
855.564	49.34
855.735	47.81
855.906	48.62
856.078	48.68
856.249	46.69
856.42	45.65
856.591	45.94
856.762	45.08
856.933	43.99
857.104	44.4
857.275	42.87
857.446	45.3
857.617	50.31
857.788	50.71
857.959	46.51
858.13	48.57
858.301	47.67
858.472	47.38
858.643	46.9
858.814	51.41
858.985	49.2
859.155	50.14
859.326	47.92
859.497	46.87
859.668	49.93
859.839	51.38
860.009	49.45
860.18	49.9
860.351	49.85
860.522	50.58
860.692	48.81
860.863	51.4
861.034	51.87
861.204	49.63
861.375	47.73
861.546	40.47
861.716	39.22
861.887	42.95
862.057	41.69
862.228	42.91
862.398	40.66
862.569	41.87
862.739	38.23
862.91	34.56
863.08	38.95
863.251	42.37
863.421	40.62
863.592	41.94
863.762	40.23
863.932	41.32
864.103	37.89
864.273	40.14
864.443	37.6
864.614	39.46
864.784	44.13
864.954	42.03
865.125	41.68
865.295	44.41
865.465	44.15
865.635	43.11
865.805	42.87
865.976	45.53
866.146	48.06
866.316	49.63
866.486	50.77
866.656	50.54
866.826	49.14
866.996	47.75
867.166	46.77
867.336	47.18
867.506	47.68
867.676	46.8
867.846	46.01
868.016	40.69
868.186	38.5
868.356	35.95
868.526	35.5
868.696	40.01
868.866	38.73
869.036	41.28
869.206	40.62
869.376	39.37
869.545	41.84
869.715	40.4
869.885	45.05
870.055	44.36
870.224	46.4
870.394	44.99
870.564	44.21
870.734	47.97
870.903	44.96
871.073	47.27
871.243	47.3
871.412	44.95
871.582	44.4
871.751	40.93
871.921	43.98
872.091	41.16
872.26	40.84
872.43	38.76
872.599	36.91
872.769	41.88
872.938	40.25
873.108	41.11
873.277	39.99
873.446	44.91
873.616	45.54
873.785	44.13
873.955	47.03
874.124	48.94
874.293	48.76
874.463	48.7
874.632	46.79
874.801	47.4
874.971	50.63
875.14	53.5
875.309	51.91
875.478	53.26
875.647	51.85
875.817	50.58
875.986	52.89
876.155	53.43
876.324	50.99
876.493	50.74
876.662	50.57
876.831	47.32
877	47.5
877.17	48.57
877.339	44.58
877.508	48.94
877.677	51.05
877.846	48.55
878.015	46.86
878.184	45.95
878.352	46.32
878.521	48.34
878.69	46
878.859	44.1
879.028	42.82
879.197	41.9
879.366	41.75
879.534	39.89
879.703	37.67
879.872	38.31
880.041	37.92
880.21	36.54
880.378	34.04
880.547	34.18
880.716	32.49
880.884	32.19
881.053	32.7
881.222	31.3
881.39	31.28
881.559	31.49
881.727	31.16
881.896	31.68
882.065	31.12
882.233	31.53
882.402	31.33
882.57	31.84
882.739	31.69
882.907	32.12
883.076	31.52
883.244	31.86
883.412	32.27
883.581	32.11
883.749	31.59
883.918	31.42
884.086	30.81
884.254	31.06
884.423	31.05
884.591	31.05
884.759	30.3
884.927	30.81
885.096	30.27
885.264	31.99
885.432	33.42
885.6	35.38
885.769	36.6
885.937	37.44
886.105	37.63
886.273	39.93
886.441	40.04
886.609	40.01
886.777	43.02
886.945	46.35
887.113	41.57
887.281	41.59
887.449	39.04
887.617	39.89
887.785	39.41
887.953	39.69
888.121	36.1
888.289	38.22
888.457	41.9
888.625	44.02
888.793	39.58
888.961	40.21
889.129	39.73
889.296	41.14
889.464	41.84
889.632	44.14
889.8	45.14
889.967	49.44
890.135	49.84
