Data from 2938726__Reflection_03.txt Node
Date: Sun Mar 15 19:45:45 EDT 2015
User: robert
Spectrometer: USB4E03002
Autoset integration time: false
Trigger mode: 4
Integration Time (sec): 1.000000E-1
Scans to average: 10
Electric dark correction enabled: false
Nonlinearity correction enabled: false
Boxcar width: 5
Stray light correction enabled: false
XAxis mode: Wavelengths
Stop averaging: false
Number of Pixels in Spectrum: 3648
>>>>>Begin Spectral Data<<<<<
177.575	72.5
177.794	3700
178.014	145.31
178.233	-1187.5
178.452	-308
178.672	-151.67
178.891	-89.23
179.11	-48.5
179.33	-68.4
179.549	-85.14
179.768	-76.4
179.987	-755.36
180.207	-602.6
180.426	-548.57
180.645	-525
180.864	-0
181.084	83.33
181.303	93.42
181.522	87.91
181.741	104.31
181.96	152.7
182.179	176.19
182.398	-44.07
182.618	16.22
182.837	-41.9
183.056	-91.67
183.275	-255.07
183.494	-148.78
183.713	-33.43
183.932	-7.67
184.151	-295.51
184.37	-119.75
184.589	-207.05
184.808	-192.21
185.027	-243.64
185.246	-262.59
185.465	-135.19
185.684	-60.28
185.903	-49.18
186.122	-107.14
186.341	-75.77
186.56	-61.52
186.779	-58.74
186.998	-80.83
187.216	-100.7
187.435	-173.76
187.654	-345.65
187.873	-809.86
188.092	1657.14
188.311	-280.53
188.53	-189.02
188.748	-2338.46
188.967	-161.8
189.186	-72.36
189.405	-117.57
189.623	-218.27
189.842	-69.46
190.061	-49.7
190.28	-35.35
190.498	-14.8
190.717	-31.42
190.936	-44.86
191.154	7.21
191.373	10.38
191.592	-120.13
191.81	-43.48
192.029	-102.9
192.248	-52.44
192.466	-42.63
192.685	-29.29
192.904	-87.21
193.122	-128.57
193.341	-98.77
193.559	-78.93
193.778	-114.77
193.996	-1.9
194.215	-25.07
194.433	-5.35
194.652	-65.71
194.87	-147.01
195.089	-151.31
195.307	-147.87
195.526	-213.73
195.744	-343.69
195.963	-850.93
196.181	-2988.89
196.399	-1533.73
196.618	6040
196.836	4933.33
197.055	-1425.76
197.273	-955.79
197.491	-1253.25
197.71	3119.23
197.928	-1845.24
198.146	400
198.365	-5377.78
198.583	-442.39
198.801	-1861.11
199.019	-122.62
199.238	-91.5
199.456	-172
199.674	-98.1
199.892	-87.2
200.111	-507.78
200.329	-136.67
200.547	-85.56
200.765	-111.11
200.983	-134.91
201.202	-94.86
201.42	-126.71
201.638	-99.62
201.856	-86.81
202.074	-107.21
202.292	-82.28
202.51	-42.74
202.728	-49.12
202.946	-54.33
203.165	-88.45
203.383	-98.66
203.601	-135.44
203.819	-132.65
204.037	-182.46
204.255	-152.74
204.473	-137.13
204.691	-140.74
204.909	-123.32
205.127	-104.06
205.345	-98.73
205.562	-32.78
205.78	-28.96
205.998	-18.2
206.216	-14.71
206.434	3.64
206.652	-10.91
206.87	-32.89
207.088	-42.09
207.306	-50
207.523	-51.31
207.741	-118.37
207.959	-165.89
208.177	-195.04
208.395	-301.52
208.612	-377.07
208.83	-629.06
209.048	-321.5
209.266	-244.81
209.483	-387.9
209.701	-192.21
209.919	-287
210.136	-84.68
210.354	-121.12
210.572	-163.93
210.79	-167.76
211.007	-205.32
211.225	-162.83
211.442	-176.72
211.66	-132.98
211.878	-44.98
212.095	-153.93
212.313	-200.84
212.53	-255.81
212.748	-284.58
212.966	-183.79
213.183	-154.91
213.401	-118.1
213.618	-112.18
213.836	-112.61
214.053	-174.02
214.271	-228.6
214.488	-105.35
214.705	-44.05
214.923	-22.54
215.14	-16.92
215.358	-44.12
215.575	-62.29
215.793	-72.37
216.01	-95.75
216.227	-95.83
216.445	-63.99
216.662	-65.42
216.879	-88.74
217.097	-110.49
217.314	-121.04
217.531	-90.11
217.749	-36.52
217.966	-73.36
218.183	-115.85
218.4	-58.7
218.618	-57.28
218.835	-64.96
219.052	-48.98
219.269	-45.78
219.487	-37.68
219.704	-38.53
219.921	-21.26
220.138	-37.78
220.355	-21.19
220.572	-11.08
220.79	-26.93
221.007	-22.78
221.224	-36.07
221.441	-50.31
221.658	-52.8
221.875	-34.5
222.092	-33.31
222.309	-44.4
222.526	-43.65
222.743	-35.2
222.96	-42.11
223.177	-48.16
223.394	-37.36
223.611	-28.94
223.828	-17.88
224.045	-15.76
224.262	-22.82
224.479	-38.69
224.696	-25
224.913	-17.5
225.13	-18.46
225.347	-16.51
225.564	-8.93
225.781	-17.27
225.997	-17.69
226.214	-13.22
226.431	-9.76
226.648	-13.31
226.865	-6.87
227.082	-8.23
227.298	-7.93
227.515	-7.64
227.732	-4.4
227.949	-3.54
228.165	-1.28
228.382	-0.35
228.599	-1.4
228.816	-0.1
229.032	0.72
229.249	-0.03
229.466	-1.07
229.682	-1.8
229.899	-1.91
230.116	-2.97
230.332	-4.7
230.549	-6.94
230.765	-8.74
230.982	-8
231.199	-9.05
231.415	-10.6
231.632	-10.65
231.848	-10.68
232.065	-10.09
232.281	-11.58
232.498	-13.64
232.714	-12.03
232.931	-8.19
233.147	-6.85
233.364	-8.11
233.58	-7.31
233.797	-4.69
234.013	-4.63
234.23	-4.33
234.446	-6
234.662	-4.95
234.879	-4.46
235.095	-5.03
235.312	-5.15
235.528	-5.56
235.744	-5.34
235.961	-6.59
236.177	-9.71
236.393	-9.79
236.61	-8.64
236.826	-7.66
237.042	-6.83
237.258	-4.12
237.475	-2.01
237.691	-2.48
237.907	-2.99
238.123	-4.26
238.339	-3.97
238.556	-1.96
238.772	0.13
238.988	-1.19
239.204	-0.51
239.42	-1.07
239.636	0.28
239.853	-2.32
240.069	-3.63
240.285	-2.53
240.501	-1.33
240.717	-0.6
240.933	-0.15
241.149	-0.73
241.365	0.2
241.581	-0.65
241.797	-0.29
242.013	-1.65
242.229	-1.31
242.445	-0.48
242.661	-0.46
242.877	-0.68
243.093	-1.14
243.309	-1.72
243.525	-1.65
243.741	-2.23
243.957	-1.92
244.173	-1.98
244.388	-1.34
244.604	-0.31
244.82	-0.88
245.036	-0.65
245.252	-0.29
245.468	-1.13
245.683	-0.48
245.899	-0.75
246.115	-0.86
246.331	-0.35
246.547	-0.05
246.762	0.12
246.978	-0.01
247.194	0.24
247.409	0.59
247.625	0.75
247.841	1.19
248.057	0.9
248.272	0.98
248.488	1.4
248.703	1.12
248.919	0.76
249.135	0.48
249.35	-0.17
249.566	0
249.782	-0.67
249.997	-2.23
250.213	-2.21
250.428	-1.94
250.644	-1.54
250.859	-1.75
251.075	-2.57
251.29	-2.85
251.506	-2.83
251.721	-1.79
251.937	-3.01
252.152	-3.48
252.368	-3.05
252.583	-3.23
252.798	-3.31
253.014	-4.43
253.229	-4.59
253.445	-4.09
253.66	-3.45
253.875	-3.97
254.091	-4.89
254.306	-4.44
254.521	-4.38
254.737	-4.18
254.952	-5.87
255.167	-5.32
255.383	-3.8
255.598	-4.31
255.813	-3.5
256.028	-4
256.244	-4.43
256.459	-4.53
256.674	-4.83
256.889	-4.71
257.104	-3.97
257.32	-2.15
257.535	-3.07
257.75	-3.42
257.965	-3.33
258.18	-3.14
258.395	-2.54
258.61	-1.67
258.826	-1.05
259.041	-0.82
259.256	-0.35
259.471	-0.07
259.686	-0.07
259.901	0.15
260.116	0.15
260.331	0.38
260.546	0.37
260.761	0.5
260.976	0.23
261.191	-0.04
261.406	0.26
261.621	-0.04
261.836	-0.29
262.05	-0.51
262.265	-0.89
262.48	-1.07
262.695	-1.4
262.91	-1.08
263.125	-1.27
263.34	-1.51
263.555	-1.12
263.769	-2.02
263.984	-2.77
264.199	-3.02
264.414	-3.23
264.629	-2.52
264.843	-2.39
265.058	-1.69
265.273	-2.04
265.488	-2.64
265.702	-1.84
265.917	-1.73
266.132	-1.08
266.346	-0.33
266.561	0.1
266.776	0.35
266.99	0.56
267.205	0.95
267.42	0.48
267.634	0.22
267.849	0.24
268.063	0.32
268.278	-0.24
268.492	-0.54
268.707	-0.64
268.922	-1.34
269.136	-1.58
269.351	-2.09
269.565	-1.79
269.78	-1.72
269.994	-1.7
270.209	-1.46
270.423	-1.29
270.637	-0.8
270.852	-0.56
271.066	-0.42
271.281	0.01
271.495	-0.18
271.709	0.15
271.924	0.02
272.138	0.1
272.353	0.35
272.567	0.2
272.781	-0.14
272.996	-0.39
273.21	-0.6
273.424	-1.3
273.638	-1.33
273.853	-1.17
274.067	-1.35
274.281	-1.43
274.495	-1.62
274.71	-2.14
274.924	-2.31
275.138	-2.48
275.352	-1.98
275.566	-1.96
275.781	-1.15
275.995	-1.26
276.209	-1.15
276.423	-1.28
276.637	-1.79
276.851	-2.38
277.065	-1.5
277.279	-1.49
277.493	-1.2
277.707	-1.81
277.921	-1.67
278.135	-1.9
278.349	-2.36
278.563	-2.58
278.777	-2.57
278.991	-2.35
279.205	-1.32
279.419	-1.83
279.633	-1.35
279.847	-1.43
280.061	-1.05
280.275	-0.79
280.489	-0.78
280.703	-0.46
280.917	0.01
281.131	-0.02
281.344	0.03
281.558	-0.16
281.772	-0.56
281.986	-0.83
282.2	-0.91
282.414	-0.81
282.627	-0.76
282.841	-0.58
283.055	-1.08
283.269	-1.11
283.482	-1
283.696	-1.22
283.91	-1.44
284.123	-1.39
284.337	-1.13
284.551	-1.08
284.764	-1.37
284.978	-1.72
285.192	-1.63
285.405	-1.23
285.619	-1.76
285.833	-1.85
286.046	-1.7
286.26	-1.93
286.473	-1.84
286.687	-2.29
286.9	-2.33
287.114	-2.34
287.327	-2.26
287.541	-2.57
287.754	-2.62
287.968	-2.34
288.181	-2.65
288.395	-2.55
288.608	-1.77
288.822	-1.65
289.035	-1.31
289.248	-1.27
289.462	-1.31
289.675	-1.33
289.889	-1.08
290.102	-1.09
290.315	-0.68
290.529	-0.31
290.742	-0.43
290.955	-0.28
291.169	0.01
291.382	0.44
291.595	0.16
291.808	0.02
292.022	-0.08
292.235	0.01
292.448	-0.04
292.661	-0.8
292.875	-0.95
293.088	-0.64
293.301	-1.31
293.514	-1.41
293.727	-1.78
293.94	-1.22
294.153	-1.25
294.367	-1.05
294.58	-1
294.793	-0.49
295.006	0.08
295.219	0.26
295.432	0.37
295.645	0.49
295.858	0.68
296.071	0.87
296.284	0.88
296.497	1.58
296.71	1.41
296.923	1.36
297.136	1.22
297.349	0.91
297.562	0.9
297.775	0.59
297.988	0.61
298.201	0.33
298.414	0.16
298.626	0.25
298.839	-0.29
299.052	-0.21
299.265	-0.53
299.478	-0.84
299.691	-0.67
299.903	-0.78
300.116	-0.4
300.329	-0.5
300.542	-0.31
300.755	-0.34
300.967	-0.39
301.18	-0.36
301.393	-0.06
301.605	-0.09
301.818	0.21
302.031	0.07
302.243	0.31
302.456	0.2
302.669	-0.01
302.881	-0.27
303.094	-0.01
303.307	-0.17
303.519	0.05
303.732	-0.32
303.944	-0.48
304.157	-0.73
304.37	-0.34
304.582	-0.71
304.795	-1.26
305.007	-1.11
305.22	-1
305.432	-1.13
305.645	-1.13
305.857	-1.5
306.069	-1.37
306.282	-0.91
306.494	-0.46
306.707	-0.98
306.919	-0.98
307.132	-0.59
307.344	-0.1
307.556	-0
307.769	-0.03
307.981	-0.06
308.193	-0.06
308.406	0.1
308.618	-0
308.83	-0.21
309.043	0.16
309.255	0.39
309.467	0.29
309.679	0.23
309.892	0.32
310.104	0.09
310.316	0.04
310.528	0.44
310.74	0.4
310.953	0.76
311.165	0.55
311.377	0.31
311.589	0.26
311.801	0.44
312.013	0.35
312.225	0.13
312.437	0.37
312.649	0.46
312.862	0.14
313.074	0.29
313.286	0.14
313.498	0.21
313.71	0.43
313.922	0.15
314.134	0.29
314.346	0.31
314.558	0.09
314.77	0.28
314.982	0.43
315.193	0.85
315.405	0.8
315.617	0.76
315.829	0.94
316.041	1.12
316.253	1.38
316.465	1.15
316.677	1.49
316.888	1.7
317.1	1.04
317.312	1.01
317.524	0.6
317.736	0.86
317.947	0.83
318.159	0.8
318.371	-0.11
318.583	0.43
318.794	0.13
319.006	-0.32
319.218	0.11
319.43	0.73
319.641	1.44
319.853	1.68
320.064	1.95
320.276	1.94
320.488	1.83
320.699	2.76
320.911	2.61
321.123	3.27
321.334	3.11
321.546	3.47
321.757	3.21
321.969	2.43
322.18	1.96
322.392	1.73
322.603	1.78
322.815	2.55
323.026	2.31
323.238	2.23
323.449	2.02
323.661	2.55
323.872	2.49
324.083	2.83
324.295	3.31
324.506	3.78
324.718	3.67
324.929	4.45
325.14	4.6
325.352	5.16
325.563	5.5
325.774	5.77
325.986	6.76
326.197	7.04
326.408	7.14
326.62	7.32
326.831	7.74
327.042	7.97
327.253	7.96
327.464	7.77
327.676	7.95
327.887	8.63
328.098	9.09
328.309	8.42
328.52	8.29
328.732	9.13
328.943	8.99
329.154	8.86
329.365	8.93
329.576	8.62
329.787	8.9
329.998	9.15
330.209	8.46
330.42	8.69
330.631	9.2
330.842	9.79
331.053	9.59
331.264	10.19
331.475	10.71
331.686	11.45
331.897	12.01
332.108	12.18
332.319	12.49
332.53	13.01
332.741	13.25
332.952	13.59
333.163	13.38
333.374	13.59
333.585	13.52
333.795	13.68
334.006	13.42
334.217	13.55
334.428	13.85
334.639	13.49
334.849	13.33
335.06	13.58
335.271	13.59
335.482	13.71
335.692	14.13
335.903	14.14
336.114	14.08
336.325	14.36
336.535	14.07
336.746	14.13
336.957	14.32
337.167	14.55
337.378	14.17
337.589	14.1
337.799	14.53
338.01	14.19
338.22	14.14
338.431	14.68
338.642	14.41
338.852	14.45
339.063	14.39
339.273	14.2
339.484	14.13
339.694	14.7
339.905	14.54
340.115	14.28
340.326	14.24
340.536	14.33
340.746	13.89
340.957	13.87
341.167	14.31
341.378	14.61
341.588	15.09
341.799	15.25
342.009	14.91
342.219	14.95
342.43	15.29
342.64	15.42
342.85	15.42
343.061	15.69
343.271	16
343.481	16.3
343.691	16.05
343.902	16.09
344.112	15.96
344.322	16.03
344.532	15.99
344.743	15.83
344.953	15.68
345.163	15.61
345.373	15.48
345.583	15.25
345.793	14.85
346.004	14.8
346.214	14.41
346.424	14.61
346.634	14.19
346.844	14.22
347.054	14.27
347.264	14.76
347.474	14.93
347.684	14.92
347.894	14.92
348.104	14.78
348.314	14.78
348.524	15.21
348.734	15.11
348.944	15.46
349.154	15.35
349.364	15.46
349.574	14.88
349.784	14.97
349.994	15.07
350.204	15.01
350.413	15.04
350.623	15.17
350.833	14.88
351.043	14.89
351.253	14.82
351.463	14.79
351.672	14.33
351.882	14.48
352.092	14.45
352.302	14.29
352.511	14.49
352.721	14.4
352.931	14.08
353.141	13.93
353.35	13.57
353.56	13.66
353.77	13.63
353.979	13.91
354.189	13.97
354.399	13.91
354.608	13.82
354.818	13.69
355.027	14.03
355.237	14.15
355.447	14.12
355.656	14.32
355.866	14.24
356.075	14.07
356.285	14.18
356.494	14.11
356.704	14.07
356.913	14.27
357.123	14.35
357.332	14.34
357.542	14.26
357.751	14.44
357.96	14.62
358.17	14.91
358.379	14.91
358.589	14.6
358.798	14.59
359.007	14.82
359.217	14.57
359.426	14.71
359.635	14.63
359.845	14.71
360.054	14.74
360.263	14.82
360.472	14.48
360.682	14.59
360.891	14.6
361.1	14.6
361.309	14.35
361.519	14.32
361.728	14.17
361.937	14.12
362.146	14.17
362.355	14.19
362.564	14.03
362.774	13.95
362.983	14.03
363.192	14.11
363.401	14.19
363.61	14.24
363.819	14.32
364.028	14.27
364.237	14.23
364.446	14.19
364.655	14.2
364.864	14.06
365.073	14.28
365.282	14.15
365.491	14.08
365.7	13.99
365.909	13.78
366.118	13.95
366.327	13.85
366.536	13.7
366.745	13.97
366.954	13.68
367.162	13.48
367.371	13.15
367.58	13.04
367.789	13.14
367.998	13.16
368.207	13.3
368.415	13.26
368.624	13.14
368.833	13.11
369.042	12.68
369.25	12.77
369.459	12.73
369.668	12.87
369.877	13.01
370.085	12.86
370.294	12.82
370.503	12.76
370.711	12.52
370.92	12.79
371.129	12.89
371.337	13.03
371.546	12.83
371.754	13.01
371.963	12.92
372.171	12.76
372.38	12.68
372.589	12.34
372.797	12.44
373.006	12.62
373.214	12.61
373.423	12.29
373.631	12.13
373.84	12.42
374.048	12.36
374.256	12.34
374.465	12.66
374.673	12.76
374.882	13
375.09	12.9
375.298	12.65
375.507	12.53
375.715	12.86
375.923	12.74
376.132	12.45
376.34	12.54
376.548	12.69
376.757	12.45
376.965	12.62
377.173	12.48
377.381	12.61
377.59	12.76
377.798	12.64
378.006	12.75
378.214	12.81
378.423	12.98
378.631	12.66
378.839	12.68
379.047	12.67
379.255	12.45
379.463	12.79
379.671	12.52
379.879	12.54
380.088	12.88
380.296	12.77
380.504	12.81
380.712	13
380.92	13.44
381.128	13.36
381.336	13.6
381.544	13.79
381.752	13.57
381.96	13.89
382.168	13.73
382.376	13.71
382.584	13.83
382.791	13.99
382.999	13.67
383.207	13.56
383.415	13.48
383.623	13.51
383.831	13.56
384.039	13.7
384.247	13.57
384.454	13.56
384.662	13.56
384.87	13.46
385.078	13.39
385.285	13.6
385.493	13.56
385.701	13.58
385.909	13.52
386.116	13.26
386.324	13.16
386.532	13.08
386.739	13.15
386.947	13
387.155	12.91
387.362	12.92
387.57	12.9
387.778	12.73
387.985	12.62
388.193	12.62
388.4	12.63
388.608	12.57
388.816	12.7
389.023	12.84
389.231	12.62
389.438	12.49
389.646	12.42
389.853	12.4
390.061	12.57
390.268	12.64
390.475	12.73
390.683	12.79
390.89	12.83
391.098	12.89
391.305	12.95
391.512	13.28
391.72	13.42
391.927	13.38
392.135	13.46
392.342	13.39
392.549	13.48
392.756	13.39
392.964	13.32
393.171	13.28
393.378	13.3
393.586	13.18
393.793	13.31
394	13.27
394.207	13.35
394.414	13.22
394.622	13.46
394.829	13.5
395.036	13.31
395.243	13.47
395.45	13.51
395.657	13.48
395.864	13.4
396.072	13.28
396.279	13.34
396.486	13.41
396.693	13.52
396.9	13.31
397.107	13.49
397.314	13.7
397.521	13.55
397.728	13.58
397.935	13.48
398.142	13.45
398.349	13.61
398.556	13.48
398.763	13.5
398.97	13.36
399.177	13.34
399.383	13.01
399.59	12.94
399.797	13.14
400.004	13.09
400.211	13.18
400.418	13.36
400.625	13.03
400.831	13.26
401.038	13.02
401.245	13.24
401.452	13.39
401.658	13.59
401.865	13.78
402.072	13.63
402.279	13.8
402.485	13.68
402.692	13.64
402.899	13.73
403.105	13.72
403.312	13.94
403.519	13.98
403.725	14.12
403.932	14.18
404.138	14.13
404.345	14.13
404.552	13.98
404.758	13.99
404.965	14.02
405.171	14.17
405.378	14.08
405.584	13.86
405.791	13.62
405.997	13.52
406.204	13.48
406.41	13.49
406.617	13.45
406.823	13.67
407.029	13.72
407.236	13.8
407.442	13.76
407.649	14.14
407.855	14.32
408.061	14.4
408.268	14.44
408.474	14.43
408.68	14.32
408.887	14.52
409.093	14.48
409.299	14.54
409.505	14.54
409.712	14.4
409.918	14.02
410.124	13.99
410.33	14.09
410.537	14.16
410.743	14.4
410.949	14.63
411.155	14.5
411.361	14.23
411.567	14.19
411.773	14.17
411.98	14.4
412.186	14.46
412.392	14.62
412.598	14.63
412.804	14.48
413.01	14.33
413.216	14.08
413.422	14.21
413.628	14.35
413.834	14.45
414.04	14.38
414.246	14.33
414.452	14.56
414.658	14.64
414.864	14.56
415.07	14.7
415.275	14.75
415.481	14.74
415.687	14.7
415.893	14.74
416.099	14.61
416.305	14.74
416.511	14.8
416.716	14.68
416.922	14.77
417.128	14.84
417.334	14.98
417.539	14.95
417.745	15.16
417.951	15.25
418.157	15.4
418.362	15.47
418.568	15.54
418.774	15.59
418.979	15.69
419.185	15.61
419.391	15.75
419.596	15.68
419.802	15.74
420.008	15.74
420.213	15.85
420.419	15.87
420.624	15.91
420.83	15.86
421.035	15.82
421.241	15.81
421.446	15.87
421.652	15.86
421.857	15.88
422.063	15.83
422.268	15.89
422.474	15.72
422.679	15.74
422.885	15.74
423.09	15.75
423.295	15.79
423.501	15.73
423.706	15.72
423.911	15.67
424.117	15.62
424.322	15.67
424.527	15.52
424.733	15.6
424.938	15.48
425.143	15.59
425.349	15.53
425.554	15.51
425.759	15.62
425.964	15.61
426.169	15.69
426.375	15.67
426.58	15.63
426.785	15.73
426.99	15.78
427.195	15.92
427.4	15.8
427.605	15.9
427.811	15.99
428.016	15.84
428.221	15.79
428.426	15.81
428.631	15.85
428.836	15.83
429.041	15.8
429.246	15.78
429.451	15.68
429.656	15.55
429.861	15.55
430.066	15.51
430.271	15.53
430.476	15.62
430.681	15.55
430.886	15.72
431.09	15.75
431.295	15.82
431.5	15.88
431.705	15.96
431.91	16.13
432.115	16.23
432.32	16.24
432.524	16.21
432.729	16.26
432.934	16.33
433.139	16.25
433.343	16.46
433.548	16.52
433.753	16.39
433.958	16.4
434.162	16.56
434.367	16.59
434.572	16.71
434.776	16.96
434.981	17.01
435.186	17.12
435.39	17.19
435.595	17.08
435.799	17.05
436.004	17.34
436.209	17.4
436.413	17.28
436.618	17.19
436.822	17.07
437.027	16.93
437.231	16.83
437.436	16.62
437.64	16.59
437.845	16.65
438.049	16.7
438.253	16.49
438.458	16.36
438.662	16.35
438.867	16.41
439.071	16.49
439.275	16.48
439.48	16.5
439.684	16.56
439.888	16.49
440.093	16.42
440.297	16.45
440.501	16.44
440.706	16.52
440.91	16.48
441.114	16.42
441.318	16.42
441.523	16.45
441.727	16.38
441.931	16.35
442.135	16.44
442.339	16.49
442.543	16.44
442.748	16.48
442.952	16.46
443.156	16.52
443.36	16.54
443.564	16.51
443.768	16.53
443.972	16.65
444.176	16.81
444.38	16.76
444.584	16.76
444.788	16.74
444.992	16.78
445.196	16.81
445.4	16.89
445.604	16.9
445.808	16.82
446.012	16.74
446.216	16.72
446.42	16.65
446.624	16.7
446.828	16.7
447.032	16.71
447.235	16.66
447.439	16.58
447.643	16.55
447.847	16.64
448.051	16.74
448.254	16.69
448.458	16.58
448.662	16.63
448.866	16.6
449.069	16.61
449.273	16.68
449.477	16.65
449.681	16.7
449.884	16.66
450.088	16.46
450.292	16.51
450.495	16.65
450.699	16.65
450.902	16.5
451.106	16.6
451.31	16.43
451.513	16.35
451.717	16.42
451.92	16.45
452.124	16.35
452.327	16.42
452.531	16.34
452.734	16.38
452.938	16.49
453.141	16.43
453.345	16.29
453.548	16.44
453.752	16.43
453.955	16.42
454.158	16.39
454.362	16.54
454.565	16.5
454.769	16.52
454.972	16.41
455.175	16.34
455.379	16.4
455.582	16.36
455.785	16.35
455.988	16.25
456.192	16.18
456.395	16.17
456.598	16.05
456.801	16.16
457.005	16.09
457.208	16.21
457.411	16.3
457.614	16.41
457.817	16.56
458.021	16.49
458.224	16.6
458.427	16.77
458.63	16.85
458.833	16.88
459.036	16.84
459.239	16.78
459.442	16.73
459.645	16.82
459.848	16.8
460.051	16.79
460.254	16.94
460.457	16.94
460.66	16.81
460.863	16.8
461.066	16.74
461.269	16.8
461.472	16.83
461.675	16.8
461.878	16.69
462.081	16.65
462.284	16.73
462.486	16.5
462.689	16.39
462.892	16.53
463.095	16.53
463.298	16.49
463.5	16.46
463.703	16.54
463.906	16.59
464.109	16.5
464.311	16.44
464.514	16.35
464.717	16.42
464.92	16.48
465.122	16.33
465.325	16.23
465.528	16.28
465.73	16.25
465.933	16.26
466.135	16.38
466.338	16.51
466.541	16.58
466.743	16.56
466.946	16.57
467.148	16.58
467.351	16.67
467.553	16.83
467.756	17.02
467.958	17.06
468.161	17.13
468.363	17.1
468.566	17.15
468.768	17.11
468.971	17.15
469.173	17.24
469.375	17.35
469.578	17.17
469.78	17.18
469.983	17.08
470.185	16.97
470.387	16.88
470.59	16.78
470.792	16.67
470.994	16.7
471.196	16.72
471.399	16.58
471.601	16.61
471.803	16.8
472.005	16.74
472.208	16.78
472.41	16.84
472.612	16.86
472.814	16.95
473.016	17.05
473.218	17.04
473.421	17.04
473.623	17.06
473.825	17.14
474.027	17.1
474.229	17.18
474.431	17.02
474.633	17
474.835	17.13
475.037	17.14
475.239	17.05
475.441	17.02
475.643	16.91
475.845	17.01
476.047	16.9
476.249	16.93
476.451	16.95
476.653	17.05
476.855	17.03
477.057	17.03
477.258	17.02
477.46	17.1
477.662	17.18
477.864	17.19
478.066	17.21
478.268	17.26
478.469	17.23
478.671	17.17
478.873	17.12
479.075	17.2
479.276	17.19
479.478	17.25
479.68	17.23
479.882	17.32
480.083	17.39
480.285	17.41
480.487	17.4
480.688	17.43
480.89	17.46
481.091	17.55
481.293	17.62
481.495	17.63
481.696	17.62
481.898	17.68
482.099	17.7
482.301	17.71
482.502	17.64
482.704	17.62
482.905	17.65
483.107	17.66
483.308	17.64
483.51	17.64
483.711	17.64
483.913	17.63
484.114	17.61
484.315	17.58
484.517	17.59
484.718	17.65
484.92	17.64
485.121	17.6
485.322	17.61
485.524	17.63
485.725	17.61
485.926	17.65
486.127	17.69
486.329	17.73
486.53	17.74
486.731	17.7
486.932	17.64
487.134	17.7
487.335	17.77
487.536	17.74
487.737	17.79
487.938	17.78
488.139	17.73
488.341	17.74
488.542	17.73
488.743	17.77
488.944	17.83
489.145	17.93
489.346	17.89
489.547	17.91
489.748	17.94
489.949	17.91
490.15	18
490.351	18.06
490.552	18.05
490.753	18.11
490.954	18.11
491.155	18.07
491.356	18.05
491.557	18.08
491.758	18.1
491.959	18.07
492.159	18.07
492.36	17.99
492.561	17.96
492.762	17.94
492.963	17.9
493.164	17.88
493.364	18
493.565	17.92
493.766	17.96
493.967	17.95
494.167	17.94
494.368	17.96
494.569	17.98
494.769	18.01
494.97	17.97
495.171	18.03
495.371	18.08
495.572	18.01
495.773	18.13
495.973	18.06
496.174	18
496.375	18.12
496.575	18.14
496.776	18.14
496.976	18.23
497.177	18.27
497.377	18.21
497.578	18.13
497.778	18.11
497.979	18.08
498.179	18.06
498.38	18.05
498.58	18.09
498.78	18.04
498.981	18.1
499.181	17.93
499.382	17.99
499.582	18.04
499.782	18.03
499.983	18
500.183	17.92
500.383	17.98
500.584	18.08
500.784	17.95
500.984	17.94
501.184	17.95
501.385	18.03
501.585	17.95
501.785	17.95
501.985	18.05
502.185	18.11
502.386	18.3
502.586	18.39
502.786	18.34
502.986	18.48
503.186	18.49
503.386	18.53
503.586	18.53
503.786	18.63
503.987	18.62
504.187	18.59
504.387	18.62
504.587	18.51
504.787	18.5
504.987	18.48
505.187	18.47
505.387	18.55
505.587	18.55
505.786	18.58
505.986	18.58
506.186	18.55
506.386	18.63
506.586	18.65
506.786	18.79
506.986	18.8
507.186	18.97
507.386	18.92
507.585	19.04
507.785	19.06
507.985	19.16
508.185	19.2
508.384	19.26
508.584	19.36
508.784	19.34
508.984	19.31
509.183	19.31
509.383	19.22
509.583	19.39
509.782	19.27
509.982	19.29
510.182	19.25
510.381	19.3
510.581	19.37
510.781	19.26
510.98	19.31
511.18	19.34
511.379	19.28
511.579	19.37
511.778	19.36
511.978	19.45
512.177	19.51
512.377	19.47
512.576	19.43
512.776	19.46
512.975	19.39
513.175	19.43
513.374	19.45
513.573	19.54
513.773	19.55
513.972	19.54
514.172	19.56
514.371	19.66
514.57	19.7
514.77	19.8
514.969	19.81
515.168	19.91
515.367	19.96
515.567	19.94
515.766	20.06
515.965	20.08
516.164	20.12
516.364	20.12
516.563	20.08
516.762	20.21
516.961	20.24
517.16	20.25
517.359	20.32
517.559	20.39
517.758	20.51
517.957	20.5
518.156	20.55
518.355	20.6
518.554	20.64
518.753	20.62
518.952	20.61
519.151	20.62
519.35	20.68
519.549	20.69
519.748	20.65
519.947	20.61
520.146	20.6
520.345	20.66
520.544	20.59
520.743	20.63
520.942	20.76
521.141	20.78
521.339	20.8
521.538	20.88
521.737	20.86
521.936	20.83
522.135	20.91
522.333	21
522.532	21
522.731	21.09
522.93	21.01
523.129	20.97
523.327	21.09
523.526	21.08
523.725	21.07
523.923	21.18
524.122	21.21
524.321	21.26
524.519	21.26
524.718	21.26
524.917	21.29
525.115	21.41
525.314	21.45
525.512	21.45
525.711	21.52
525.909	21.48
526.108	21.54
526.306	21.61
526.505	21.61
526.703	21.66
526.902	21.7
527.1	21.79
527.299	21.8
527.497	21.84
527.696	21.86
527.894	21.91
528.092	21.96
528.291	21.92
528.489	21.94
528.688	21.94
528.886	21.98
529.084	21.98
529.283	21.93
529.481	21.92
529.679	21.9
529.877	21.89
530.076	21.83
530.274	21.84
530.472	21.88
530.67	21.95
530.869	22.01
531.067	21.98
531.265	22.04
531.463	22.13
531.661	22.2
531.859	22.29
532.057	22.41
532.255	22.46
532.454	22.52
532.652	22.59
532.85	22.57
533.048	22.57
533.246	22.57
533.444	22.57
533.642	22.56
533.84	22.51
534.038	22.49
534.236	22.5
534.434	22.54
534.632	22.53
534.83	22.54
535.027	22.57
535.225	22.58
535.423	22.68
535.621	22.78
535.819	22.84
536.017	22.97
536.215	23
536.412	23.01
536.61	23.06
536.808	23.14
537.006	23.14
537.203	23.19
537.401	23.31
537.599	23.5
537.797	23.49
537.994	23.6
538.192	23.7
538.39	23.94
538.587	23.98
538.785	24.09
538.983	24.19
539.18	24.38
539.378	24.57
539.575	24.71
539.773	24.7
539.97	24.82
540.168	24.87
540.366	24.9
540.563	24.92
540.761	25.06
540.958	25.14
541.155	25.22
541.353	25.22
541.55	25.23
541.748	25.21
541.945	25.26
542.143	25.28
542.34	25.3
542.537	25.37
542.735	25.46
542.932	25.52
543.129	25.59
543.327	25.65
543.524	25.91
543.721	26.08
543.919	26.3
544.116	26.57
544.313	26.92
544.51	27.28
544.708	27.63
544.905	27.86
545.102	28.13
545.299	28.43
545.496	28.62
545.693	28.64
545.891	28.66
546.088	28.62
546.285	28.45
546.482	28.3
546.679	28.12
546.876	27.83
547.073	27.65
547.27	27.37
547.467	27.01
547.664	26.87
547.861	26.63
548.058	26.45
548.255	26.4
548.452	26.31
548.649	26.19
548.846	26.14
549.043	26.14
549.24	26.07
549.437	25.94
549.633	25.94
549.83	25.72
550.027	25.77
550.224	25.73
550.421	25.57
550.618	25.45
550.814	25.38
551.011	25.26
551.208	25.07
551.405	24.95
551.601	24.94
551.798	24.92
551.995	24.94
552.191	24.81
552.388	24.7
552.585	24.66
552.781	24.67
552.978	24.6
553.175	24.61
553.371	24.54
553.568	24.54
553.764	24.52
553.961	24.55
554.157	24.55
554.354	24.54
554.55	24.5
554.747	24.53
554.943	24.47
555.14	24.4
555.336	24.28
555.533	24.29
555.729	24.24
555.926	24.14
556.122	24.08
556.318	24.05
556.515	24.02
556.711	23.89
556.907	23.92
557.104	23.97
557.3	24.15
557.496	24.13
557.693	24.16
557.889	24.06
558.085	24.19
558.281	24.12
558.478	24.02
558.674	23.97
558.87	24.17
559.066	24.14
559.262	24.19
559.459	24.16
559.655	24.13
559.851	24.26
560.047	24.37
560.243	24.37
560.439	24.45
560.635	24.58
560.831	24.73
561.027	24.78
561.223	24.75
561.419	24.68
561.615	24.69
561.811	24.84
562.007	24.86
562.203	24.9
562.399	24.85
562.595	24.89
562.791	24.75
562.987	24.67
563.183	24.7
563.379	24.72
563.575	24.58
563.771	24.52
563.966	24.46
564.162	24.4
564.358	24.44
564.554	24.57
564.75	24.47
564.945	24.66
565.141	24.74
565.337	24.78
565.533	24.78
565.728	24.9
565.924	25.02
566.12	25.13
566.315	25.18
566.511	25.27
566.707	25.24
566.902	25.3
567.098	25.25
567.293	25.25
567.489	25.33
567.684	25.38
567.88	25.36
568.076	25.33
568.271	25.24
568.467	25.29
568.662	25.17
568.858	25.19
569.053	25.28
569.248	25.32
569.444	25.33
569.639	25.25
569.835	25.18
570.03	25.28
570.225	25.38
570.421	25.41
570.616	25.35
570.812	25.45
571.007	25.46
571.202	25.4
571.397	25.44
571.593	25.49
571.788	25.54
571.983	25.63
572.178	25.68
572.374	25.52
572.569	25.65
572.764	25.67
572.959	25.56
573.154	25.63
573.35	25.64
573.545	25.63
573.74	25.65
573.935	25.69
574.13	25.77
574.325	25.76
574.52	25.8
574.715	25.74
574.91	25.8
575.105	25.92
575.3	26.08
575.495	26.32
575.69	26.49
575.885	26.41
576.08	26.47
576.275	26.54
576.47	26.62
576.665	26.9
576.86	27.13
577.055	27.33
577.25	27.42
577.444	27.35
577.639	27.33
577.834	27.32
578.029	27.57
578.224	27.76
578.418	27.76
578.613	27.83
578.808	27.79
579.003	27.7
579.197	27.66
579.392	27.7
579.587	27.83
579.781	27.73
579.976	27.63
580.171	27.62
580.365	27.42
580.56	27.45
580.755	27.37
580.949	27.47
581.144	27.44
581.338	27.43
581.533	27.44
581.727	27.36
581.922	27.35
582.116	27.44
582.311	27.58
582.505	27.74
582.7	27.85
582.894	27.99
583.089	27.99
583.283	28.03
583.478	28.04
583.672	27.84
583.866	27.87
584.061	28.11
584.255	28.33
584.449	28.18
584.644	28.18
584.838	28.13
585.032	28.18
585.226	28.29
585.421	28.33
585.615	28.47
585.809	28.95
586.003	28.98
586.198	29.14
586.392	29.21
586.586	29.47
586.78	29.44
586.974	29.56
587.168	29.53
587.363	29.49
587.557	29.58
587.751	29.4
587.945	29.32
588.139	29.18
588.333	29.1
588.527	28.88
588.721	28.73
588.915	28.66
589.109	28.5
589.303	28.49
589.497	28.44
589.691	28.36
589.885	28.45
590.079	28.31
590.273	28.37
590.466	28.39
590.66	28.53
590.854	28.69
591.048	28.8
591.242	28.93
591.436	29.02
591.629	29.14
591.823	29.33
592.017	29.4
592.211	29.63
592.404	29.77
592.598	29.82
592.792	29.77
592.986	29.73
593.179	29.8
593.373	29.83
593.567	29.89
593.76	29.83
593.954	29.78
594.147	29.74
594.341	29.72
594.535	29.79
594.728	29.72
594.922	29.76
595.115	29.63
595.309	29.61
595.502	29.47
595.696	29.44
595.889	29.29
596.083	29.41
596.276	29.39
596.47	29.43
596.663	29.29
596.856	29.24
597.05	29.13
597.243	29.26
597.437	29.28
597.63	29.4
597.823	29.45
598.017	29.7
598.21	29.63
598.403	29.75
598.596	29.79
598.79	29.92
598.983	30.04
599.176	30.07
599.369	30.06
599.563	29.99
599.756	29.95
599.949	29.87
600.142	29.78
600.335	29.6
600.528	29.56
600.722	29.33
600.915	29.33
601.108	29.31
601.301	29.47
601.494	29.46
601.687	29.32
601.88	29.4
602.073	29.57
602.266	29.49
602.459	29.55
602.652	29.37
602.845	29.45
603.038	29.31
603.231	29.2
603.424	29.05
603.617	29.08
603.809	29.18
604.002	29.08
604.195	28.98
604.388	29.02
604.581	29.12
604.774	29.14
604.966	29.13
605.159	29.31
605.352	29.4
605.545	29.59
605.737	29.65
605.93	29.74
606.123	30.03
606.316	30.2
606.508	30.46
606.701	30.64
606.894	30.93
607.086	31.15
607.279	31.29
607.471	31.69
607.664	31.95
607.857	32.18
608.049	32.54
608.242	32.8
608.434	33.44
608.627	34.13
608.819	35.14
609.012	36.37
609.204	37.55
609.397	39.05
609.589	40.4
609.782	42
609.974	43.79
610.166	45.61
610.359	47.38
610.551	48.9
610.743	50.2
610.936	51.21
611.128	52.11
611.32	52.82
611.513	53.03
611.705	53.18
611.897	52.92
612.09	52.21
612.282	51.43
612.474	50.62
612.666	49.5
612.858	48.63
613.051	47.67
613.243	46.47
613.435	45.6
613.627	44.83
613.819	43.91
614.011	43.04
614.203	42.54
614.395	41.88
614.588	41.22
614.78	40.7
614.972	39.99
615.164	39.36
615.356	38.89
615.548	38.24
615.74	37.47
615.932	36.87
616.124	36.57
616.315	36.15
616.507	35.59
616.699	34.99
616.891	34.66
617.083	34.26
617.275	34.12
617.467	33.67
617.659	33.54
617.85	33.37
618.042	33.24
618.234	32.77
618.426	32.52
618.618	32.44
618.809	32.37
619.001	32.29
619.193	32.03
619.384	31.92
619.576	32.18
619.768	32.19
619.959	32.3
620.151	32.53
620.343	32.8
620.534	32.65
620.726	32.75
620.917	33.07
621.109	33.16
621.301	33.47
621.492	33.38
621.684	33.17
621.875	33.06
622.067	33.23
622.258	32.99
622.45	32.8
622.641	33.23
622.832	33.22
623.024	32.86
623.215	32.95
623.407	32.91
623.598	33.01
623.789	33.29
623.981	33.29
624.172	33.28
624.363	33.35
624.555	33.48
624.746	33.52
624.937	33.53
625.129	33.57
625.32	33.43
625.511	33.5
625.702	33.32
625.893	33.17
626.085	33.16
626.276	33.08
626.467	33.14
626.658	33.14
626.849	33.09
627.04	33.02
627.231	33.16
627.422	33.28
627.614	33.24
627.805	33.24
627.996	33.35
628.187	33.6
628.378	33.76
628.569	33.95
628.76	34.11
628.951	34.11
629.142	34.31
629.332	34.61
629.523	34.84
629.714	35.13
629.905	35.49
630.096	35.59
630.287	35.48
630.478	35.45
630.669	35.39
630.859	35.35
631.05	35.2
631.241	35.09
631.432	34.68
631.623	34.39
631.813	34.03
632.004	33.84
632.195	33.49
632.385	33.26
632.576	32.9
632.767	32.59
632.957	32.42
633.148	32.34
633.339	32.16
633.529	32.04
633.72	31.88
633.91	31.76
634.101	31.61
634.292	31.67
634.482	31.57
634.673	31.82
634.863	31.71
635.054	31.49
635.244	31.5
635.435	31.43
635.625	31.69
635.815	31.59
636.006	31.68
636.196	31.46
636.387	31.36
636.577	31.49
636.767	31.35
636.958	31.36
637.148	31.4
637.338	31.27
637.529	31.32
637.719	31.17
637.909	31.36
638.099	31.39
638.29	31.66
638.48	31.63
638.67	31.33
638.86	31.25
639.05	31.08
639.241	31.14
639.431	30.99
639.621	31.12
639.811	31.11
640.001	30.78
640.191	30.68
640.381	30.53
640.571	30.33
640.761	30.66
640.951	30.66
641.141	31.01
641.331	31.17
641.521	31.48
641.711	31.31
641.901	31.25
642.091	31.41
642.281	31.33
642.471	31.46
642.661	31.79
642.851	31.52
643.041	31.41
643.231	31.36
643.42	31.21
643.61	30.95
643.8	31.06
643.99	31
644.18	31.14
644.369	31.19
644.559	31.07
644.749	31.02
644.939	31.37
645.128	31.42
645.318	31.31
645.508	31.28
645.697	31.58
645.887	31.46
646.076	31.5
646.266	31.38
646.456	31.6
646.645	31.83
646.835	31.8
647.024	32
647.214	32.23
647.403	32.39
647.593	32.6
647.782	32.47
647.972	32.54
648.161	32.72
648.351	32.77
648.54	32.52
648.73	32.71
648.919	32.94
649.108	32.81
649.298	33.06
649.487	32.93
649.677	32.81
649.866	33.02
650.055	33.11
650.244	33.03
650.434	33.12
650.623	33.09
650.812	32.82
651.002	32.87
651.191	32.91
651.38	32.56
651.569	32.67
651.758	32.77
651.947	32.54
652.137	32.44
652.326	32.39
652.515	32.34
652.704	32.39
652.893	32.35
653.082	31.97
653.271	31.65
653.46	31.8
653.649	31.82
653.838	31.65
654.027	31.65
654.216	31.63
654.405	31.88
654.594	31.72
654.783	31.56
654.972	31.63
655.161	31.87
655.35	31.89
655.539	32.05
655.728	31.98
655.916	32
656.105	32.09
656.294	32.25
656.483	32.04
656.672	32.11
656.86	32.4
657.049	32.23
657.238	32.33
657.427	32.53
657.615	32.2
657.804	32.26
657.993	32.46
658.181	32.39
658.37	32.33
658.559	32.27
658.747	32.39
658.936	32.47
659.125	32.98
659.313	32.81
659.502	32.73
659.69	32.79
659.879	32.73
660.067	32.74
660.256	32.74
660.444	32.79
660.633	32.93
660.821	32.83
661.01	32.72
661.198	32.3
661.387	32.35
661.575	32.43
661.763	32.56
661.952	32.48
662.14	32.49
662.328	32.55
662.517	32.64
662.705	32.38
662.893	32.63
663.082	32.41
663.27	32.5
663.458	32.37
663.646	32.3
663.834	32.21
664.023	32.27
664.211	32.31
664.399	32.29
664.587	31.92
664.775	31.98
664.963	32.1
665.152	32.2
665.34	31.96
665.528	32.38
665.716	32.45
665.904	32.36
666.092	32.34
666.28	32.37
666.468	32.39
666.656	32.71
666.844	32.79
667.032	32.38
667.22	32.43
667.408	32.61
667.596	32.26
667.784	32.1
667.971	32.26
668.159	32.42
668.347	32.04
668.535	31.7
668.723	31.5
668.911	31.75
669.098	31.71
669.286	31.75
669.474	31.65
669.662	31.7
669.849	31.83
670.037	31.71
670.225	31.58
670.413	31.69
670.6	32
670.788	32.33
670.976	32.22
671.163	32.5
671.351	32.55
671.538	32.68
671.726	32.62
671.913	32.37
672.101	32.35
672.289	32.49
672.476	32.73
672.664	32.58
672.851	32.29
673.039	32.41
673.226	32.21
673.413	32.31
673.601	32.38
673.788	32.36
673.976	32.77
674.163	32.78
674.35	32.57
674.538	32.31
674.725	32.4
674.912	32.47
675.1	31.86
675.287	31.97
675.474	31.86
675.662	31.73
675.849	31.84
676.036	31.76
676.223	32.02
676.411	32.21
676.598	32.06
676.785	32.02
676.972	31.83
677.159	32.12
677.346	31.79
677.533	31.67
677.721	31.7
677.908	31.71
678.095	31.63
678.282	31.15
678.469	31.1
678.656	31.27
678.843	31.55
679.03	32.01
679.217	32.05
679.404	32.38
679.591	32.61
679.778	32.49
679.964	32.46
680.151	32.66
680.338	33.18
680.525	33.12
680.712	33.13
680.899	33.12
681.086	32.94
681.272	32.87
681.459	32.81
681.646	32.64
681.833	32.92
682.02	32.88
682.206	32.42
682.393	31.98
682.58	32.06
682.766	32.1
682.953	31.81
683.14	31.65
683.326	31.51
683.513	31.22
683.7	31.1
683.886	30.73
684.073	30.95
684.259	30.93
684.446	31.06
684.632	30.73
684.819	30.61
685.005	31.21
685.192	31.33
685.378	31.73
685.565	32.18
685.751	32.92
685.938	33.28
686.124	33.09
686.31	33.28
686.497	33.68
686.683	33.79
686.87	34.18
687.056	33.77
687.242	33.92
687.429	34.04
687.615	34.09
687.801	33.24
687.987	33.4
688.174	33.28
688.36	33.4
688.546	33.32
688.732	33.53
688.918	33.15
689.105	33.09
689.291	32.87
689.477	32.55
689.663	32.39
689.849	32.61
690.035	32.57
690.221	32.86
690.407	32.55
690.593	32.13
690.779	32.28
690.965	32.6
691.151	32.44
691.337	32.35
691.523	32.4
691.709	32.62
691.895	32.48
692.081	32.49
692.267	32.13
692.453	32.53
692.639	32.76
692.825	32.26
693.011	31.87
693.196	32.41
693.382	31.92
693.568	31.75
693.754	31.27
693.94	31.57
694.125	31.2
694.311	31.38
694.497	31
694.682	30.81
694.868	30.69
695.054	30.67
695.239	30.36
695.425	31.18
695.611	31.45
695.796	31.91
695.982	31.78
696.168	31.92
696.353	31.97
696.539	32.12
696.724	32.26
696.91	32.7
697.095	32.76
697.281	32.67
697.466	32.57
697.652	32.65
697.837	32.65
698.023	32.75
698.208	32.67
698.393	32.61
698.579	32.84
698.764	32.71
698.949	32.49
699.135	32.6
699.32	32.72
699.505	32.65
699.691	32.64
699.876	32.12
700.061	32.05
700.246	31.98
700.432	32
700.617	31.66
700.802	31.42
700.987	31.45
701.172	31.38
701.358	31.2
701.543	31.01
701.728	30.81
701.913	31.13
702.098	31.06
702.283	31.01
702.468	31.11
702.653	31.31
702.838	31.91
703.023	32.11
703.208	32.11
703.393	32.57
703.578	32.53
703.763	32.77
703.948	33.07
704.133	33.46
704.318	33.75
704.503	33.57
704.688	34.01
704.873	34.17
705.057	34.53
705.242	34.27
705.427	34.74
705.612	35.51
705.797	35.72
705.981	36.18
706.166	36.34
706.351	36.31
706.536	36.36
706.72	36.35
706.905	36.4
707.09	36.34
707.274	37.17
707.459	36.79
707.644	36.9
707.828	36.98
708.013	36.99
708.197	36.71
708.382	36.9
708.567	37.21
708.751	37.03
708.936	36.76
709.12	36.87
709.305	36.5
709.489	36.52
709.673	36.3
709.858	35.99
710.042	35.6
710.227	35.71
710.411	35.64
710.596	35.83
710.78	36.23
710.964	36.4
711.149	36.25
711.333	36
711.517	35.75
711.702	35.85
711.886	36.04
712.07	36.2
712.254	36
712.438	35.87
712.623	35.31
712.807	34.89
712.991	34.45
713.175	34.18
713.359	34.34
713.544	34.31
713.728	34.13
713.912	33.25
714.096	32.98
714.28	32.51
714.464	32.25
714.648	32.25
714.832	31.84
715.016	31.81
715.2	31.71
715.384	31.21
715.568	30.93
715.752	30.36
715.936	30.76
716.12	30.58
716.304	30.6
716.488	30.67
716.671	30.6
716.855	30.55
717.039	30.79
717.223	30.63
717.407	30.6
717.59	30.47
717.774	30.42
717.958	30.41
718.142	29.93
718.325	30.34
718.509	30.4
718.693	30.3
718.877	30.57
719.06	30.4
719.244	30.49
719.428	30.82
719.611	31.17
719.795	31.69
719.978	31.78
720.162	32.1
720.345	31.92
720.529	31.7
720.713	31.99
720.896	31.57
721.08	31.5
721.263	31.52
721.446	31
721.63	30.71
721.813	29.97
721.997	29.88
722.18	29.82
722.364	29.64
722.547	29.57
722.73	29.38
722.914	29.11
723.097	29.13
723.28	28.87
723.464	29.22
723.647	29.47
723.83	29.99
724.013	29.44
724.197	29.43
724.38	29.44
724.563	29.44
724.746	28.87
724.929	28.89
725.112	28.93
725.296	28.93
725.479	28.56
725.662	28.31
725.845	27.81
726.028	28.06
726.211	28.53
726.394	28.02
726.577	27.98
726.76	28.53
726.943	29.08
727.126	28.81
727.309	28.96
727.492	29.44
727.675	28.99
727.858	29.16
728.041	29.65
728.224	29.44
728.407	29.52
728.589	29.61
728.772	29.61
728.955	29.39
729.138	29.25
729.321	29.4
729.503	29.26
729.686	29.78
729.869	29.86
730.052	29.32
730.234	28.67
730.417	28.94
730.6	28.35
730.782	28.28
730.965	27.85
731.148	28.37
731.33	28.64
731.513	28.5
731.695	28.45
731.878	28.35
732.061	28.84
732.243	29.41
732.426	29.56
732.608	30.17
732.791	30.09
732.973	30.68
733.156	30.6
733.338	30.67
733.52	30.73
733.703	30.76
733.885	31.19
734.068	31.13
734.25	30.8
734.432	30.97
734.615	31.29
734.797	31.54
734.979	31.04
735.162	30.93
735.344	30.51
735.526	30.73
735.708	30.59
735.891	29.85
736.073	29.58
736.255	29.6
736.437	28.77
736.619	28.11
736.802	28.15
736.984	28.22
737.166	28.02
737.348	27.72
737.53	27.74
737.712	27.25
737.894	27.08
738.076	27.18
738.258	28.1
738.44	28.57
738.622	28.25
738.804	27.9
738.986	28.67
739.168	28.78
739.35	28.48
739.532	28.33
739.714	28.62
739.896	28.57
740.078	28.65
740.259	28.11
740.441	28.56
740.623	28.77
740.805	28.78
740.987	28.16
741.168	27.5
741.35	28.26
741.532	27.97
741.714	27.97
741.895	28.1
742.077	27.52
742.259	26.98
742.44	26.41
742.622	26.01
742.804	26.11
742.985	26.48
743.167	26.84
743.348	26.47
743.53	26.54
743.711	27.05
743.893	27.69
744.075	28.18
744.256	28.47
744.438	28.35
744.619	29.11
744.8	28.82
744.982	28.24
745.163	28.95
745.345	28.93
745.526	29.57
745.707	29.45
745.889	29.1
746.07	28.75
746.252	29.2
746.433	28.9
746.614	28.04
746.795	27.91
746.977	28.79
747.158	28.26
747.339	28.17
747.52	27.55
747.702	27.43
747.883	27.25
748.064	27.31
748.245	26.71
748.426	27.29
748.607	27.87
748.788	28.13
748.97	26.8
749.151	26.28
749.332	26.17
749.513	26.66
749.694	26.16
749.875	26.51
750.056	26.27
750.237	26.2
750.418	26.19
750.599	26.31
750.78	25.89
750.96	26.13
751.141	27.05
751.322	26.81
751.503	26.61
751.684	26.48
751.865	26.46
752.046	26.22
752.226	25.49
752.407	25.95
752.588	26.15
752.769	25.93
752.949	26.67
753.13	26.66
753.311	27.44
753.492	27.31
753.672	28.07
753.853	27.74
754.034	28.44
754.214	29.02
754.395	28.33
754.575	28.12
754.756	28.53
754.937	27.88
755.117	27.31
755.298	27.31
755.478	27.3
755.659	26.97
755.839	26.62
756.02	26.31
756.2	26.2
756.381	27.04
756.561	26.34
756.741	27.02
756.922	26.98
757.102	26.04
757.283	25.85
757.463	25.79
757.643	25.78
757.823	27.12
758.004	26.87
758.184	27.07
758.364	25.9
758.545	26.76
758.725	26.3
758.905	26.85
759.085	27.66
759.265	27.47
759.446	27.27
759.626	26.99
759.806	26.24
759.986	26.62
760.166	26.91
760.346	27.5
760.526	27.72
760.706	28.02
760.886	27.24
761.066	27.14
761.246	27.27
761.426	27.25
761.606	27.6
761.786	27.67
761.966	28.31
762.146	28.19
762.326	28.44
762.506	28.18
762.686	27.93
762.866	27.92
763.046	27.87
763.225	28.08
763.405	27.93
763.585	27.75
763.765	27.42
763.945	26.74
764.124	27.02
764.304	26.4
764.484	25.96
764.664	26.23
764.843	26.76
765.023	26.71
765.203	26.33
765.382	26.37
765.562	26.19
765.741	26.37
765.921	26.77
766.101	26.72
766.28	26.89
766.46	27.23
766.639	27.07
766.819	26.98
766.998	26.89
767.178	26.62
767.357	26.92
767.537	26.84
767.716	27.18
767.896	26.72
768.075	26.28
768.254	25.95
768.434	26.13
768.613	25.43
768.792	25.24
768.972	25.34
769.151	24.88
769.33	24.54
769.51	24.98
769.689	24.53
769.868	25.39
770.047	25.59
770.226	26.25
770.406	26.06
770.585	25.83
770.764	25.73
770.943	26.36
771.122	27.09
771.301	26.87
771.48	26.01
771.66	26.38
771.839	24.74
772.018	24.18
772.197	24.38
772.376	24.62
772.555	25.43
772.734	25.35
772.913	24.69
773.092	24.37
773.271	24.23
773.449	24.61
773.628	24.39
773.807	25.62
773.986	25.91
774.165	26.24
774.344	25.8
774.523	25.15
774.701	24.81
774.88	24.9
775.059	25.62
775.238	26.65
775.417	27.49
775.595	27.79
775.774	26.65
775.953	27.32
776.131	26.79
776.31	26.65
776.489	26.05
776.667	26.33
776.846	26.5
777.025	26.1
777.203	25.24
777.382	24.17
777.56	23.38
777.739	24.06
777.917	23.6
778.096	23.16
778.274	23.52
778.453	24.55
778.631	24.57
778.81	23.57
778.988	24.17
779.166	24.67
779.345	25.54
779.523	26.38
779.702	26.02
779.88	25.63
780.058	26.03
780.237	25.86
780.415	24.54
780.593	24.45
780.771	24.84
780.95	23.8
781.128	24.04
781.306	23.94
781.484	23.24
781.662	23.7
781.841	23.25
782.019	21.85
782.197	22.25
782.375	23.65
782.553	23.16
782.731	23
782.909	24.1
783.087	24.17
783.265	22.85
783.443	22.49
783.621	21.75
783.799	22.33
783.977	23.15
784.155	22.54
784.333	23.31
784.511	23.63
784.689	24.35
784.867	23.42
785.045	23.7
785.223	24.51
785.4	25.64
785.578	26.22
785.756	26.21
785.934	27.37
786.112	27.5
786.289	26.72
786.467	26.35
786.645	26.1
786.823	26.26
787	24.16
787.178	24.12
787.356	23.42
787.533	23.48
787.711	22.43
787.889	21.2
788.066	20.54
788.244	19.97
788.421	21.09
788.599	20.27
788.776	19.55
788.954	20.61
789.131	20.5
789.309	21.17
789.486	22.2
789.664	22.46
789.841	22.49
790.019	22.56
790.196	23.04
790.373	21.84
790.551	22.28
790.728	22.3
790.906	22.2
791.083	22.2
791.26	21.8
791.437	20.07
791.615	20.19
791.792	20.2
791.969	22.23
792.146	21.72
792.324	23.09
792.501	24.73
792.678	25.81
792.855	25.65
793.032	26.44
793.209	25.52
793.387	26.35
793.564	26.66
793.741	27.64
793.918	25.97
794.095	25.05
794.272	23.01
794.449	22.57
794.626	22.91
794.803	22.75
794.98	20.9
795.157	21.69
795.334	20.27
795.511	19.71
795.688	19.23
795.864	18.6
796.041	19.34
796.218	21.51
796.395	20.9
796.572	20.64
796.749	22.2
796.925	23.75
797.102	23.99
797.279	25.01
797.456	25.29
797.632	24.67
797.809	25.16
797.986	24.68
798.162	22.54
798.339	22.55
798.516	22.11
798.692	21.68
798.869	20.56
799.046	20.69
799.222	20.2
799.399	19.85
799.575	21.22
799.752	22.93
799.928	23.58
800.105	24.35
800.281	23.6
800.458	23.44
800.634	23.39
800.811	24.06
800.987	22.53
801.163	23.48
801.34	23.58
801.516	22.1
801.692	20.41
801.869	20.49
802.045	21.85
802.221	22.7
802.398	21.29
802.574	19.7
802.75	20.18
802.926	20.2
803.103	19.29
803.279	21.08
803.455	20.77
803.631	22.49
803.807	22.56
803.983	21.74
804.16	21.54
804.336	21.95
804.512	22.39
804.688	22.23
804.864	23.73
805.04	22.41
805.216	21.56
805.392	22.41
805.568	21.83
805.744	23.16
805.92	22.24
806.096	22.77
806.272	23.11
806.448	23.22
806.623	22.49
806.799	21.27
806.975	22.88
807.151	22.26
807.327	22.78
807.503	22.33
807.678	22.03
807.854	23.73
808.03	24.08
808.206	24.9
808.381	24.13
808.557	24.41
808.733	25.37
808.908	23.19
809.084	23.07
809.26	22.3
809.435	22.48
809.611	21.84
809.787	21.63
809.962	20.55
810.138	19.87
810.313	19.67
810.489	20.26
810.664	18.78
810.84	20.57
811.015	20.71
811.191	21.01
811.366	20.58
811.542	20.62
811.717	19.66
811.892	20.35
812.068	21.54
812.243	20.92
812.419	20.72
812.594	21.04
812.769	22.05
812.944	22.05
813.12	21.58
813.295	20.2
813.47	18.97
813.645	18.85
813.821	18.29
813.996	17.31
814.171	18.89
814.346	18.82
814.521	19.09
814.697	17.51
814.872	16.95
815.047	16.26
815.222	15.99
815.397	16.77
815.572	17.48
815.747	18.52
815.922	19.22
816.097	20.59
816.272	20.15
816.447	19.12
816.622	18.75
816.797	19.14
816.972	20.82
817.147	22.29
817.322	22.98
817.496	22.66
817.671	22.69
817.846	21.27
818.021	20.3
818.196	20.44
818.371	21.52
818.545	22.76
818.72	21.86
818.895	21.98
819.069	21.54
819.244	21.43
819.419	21.69
819.594	21.76
819.768	22.38
819.943	21.25
820.117	21.7
820.292	22.32
820.467	22.08
820.641	22.77
820.816	22.72
820.99	23.5
821.165	23.35
821.339	22.9
821.514	23
821.688	23.39
821.863	23.77
822.037	24.05
822.212	23.91
822.386	24.13
822.56	24.33
822.735	24.34
822.909	24.47
823.084	24.43
823.258	24.9
823.432	24.98
823.606	25.11
823.781	25.23
823.955	24.93
824.129	24.81
824.303	24.7
824.478	24.64
824.652	24.44
824.826	23.33
825	23.36
825.174	22.74
825.348	22.12
825.523	21.88
825.697	21.72
825.871	21.87
826.045	22.32
826.219	22.17
826.393	22.24
826.567	22.13
826.741	23.32
826.915	22.86
827.089	23.41
827.263	23.25
827.437	22.64
827.611	22.5
827.784	22.31
827.958	22.14
828.132	22.23
828.306	22.03
828.48	22.15
828.654	21.53
828.827	21.99
829.001	21.09
829.175	21.01
829.349	20.97
829.522	20.33
829.696	20.24
829.87	19.85
830.044	19.14
830.217	18.15
830.391	17.92
830.565	19.4
830.738	19.59
830.912	20.58
831.085	20.26
831.259	19.49
831.432	20.68
831.606	21.1
831.779	20.48
831.953	22.25
832.126	23.73
832.3	22.76
832.473	20.6
832.647	19.73
832.82	18.88
832.994	19.54
833.167	20.4
833.34	20.28
833.514	19.98
833.687	20.6
833.86	19.82
834.034	19.6
834.207	20.17
834.38	20.84
834.553	21.37
834.727	21.75
834.9	21.75
835.073	21.69
835.246	21.02
835.419	21.53
835.593	21.51
835.766	20.64
835.939	19.4
836.112	19.68
836.285	18.28
836.458	18.49
836.631	18.49
836.804	18.36
836.977	18.03
837.15	17.43
837.323	15.76
837.496	15.79
837.669	15.03
837.842	14.82
838.015	12.69
838.188	14.38
838.361	10.93
838.533	11.01
838.706	11.54
838.879	10.64
839.052	11.03
839.225	10.05
839.398	9.95
839.57	12.51
839.743	11.95
839.916	14.96
840.088	14.07
840.261	14.71
840.434	12.37
840.607	9.86
840.779	9.77
840.952	11.63
841.124	12.33
841.297	11.29
841.47	13.52
841.642	13.54
841.815	13.47
841.987	14.43
842.16	15.59
842.332	16.99
842.505	14.33
842.677	15.08
842.85	13.91
843.022	14.77
843.194	13.14
843.367	7.81
843.539	8.84
843.712	5.78
843.884	5.06
844.056	4.12
844.229	3.29
844.401	5.96
844.573	4.34
844.745	-0.28
844.918	-6.27
845.09	-0.69
845.262	2.94
845.434	0.27
845.606	-0.63
845.779	-1.56
845.951	1.68
846.123	4.6
846.295	8.76
846.467	11.63
846.639	15.21
846.811	18.2
846.983	17.08
847.155	13.86
847.327	14.38
847.499	18.79
847.671	19.45
847.843	15.35
848.015	8.67
848.187	8.32
848.359	7.52
848.531	10.49
848.703	13.65
848.875	17.39
849.047	17.12
849.218	20.95
849.39	21.08
849.562	20.4
849.734	20.79
849.905	23.78
850.077	24.02
850.249	22.62
850.421	16.85
850.592	12.97
850.764	7.96
850.936	9.76
851.107	13.17
851.279	9.51
851.451	6.71
851.622	5.15
851.794	5.65
851.965	10
852.137	13.37
852.308	18.23
852.48	17.27
852.651	22.5
852.823	19.38
852.994	13.31
853.166	13.03
853.337	15.01
853.509	19.28
853.68	18.26
853.851	21.76
854.023	19
854.194	17.58
854.365	19.58
854.537	8.57
854.708	17.29
854.879	15.35
855.05	16
855.222	10.07
855.393	5.2
855.564	1.72
855.735	-4.69
855.906	-2.37
856.078	-2.38
856.249	-1.76
856.42	0.33
856.591	-9.16
856.762	-8.68
856.933	-6.53
857.104	1.63
857.275	5.39
857.446	10.15
857.617	11.24
857.788	12.28
857.959	16.69
858.13	18.32
858.301	17.49
858.472	23.95
858.643	23.11
858.814	18.85
858.985	20.85
859.155	18.2
859.326	19.66
859.497	16.69
859.668	12.52
859.839	9
860.009	3.16
860.18	5.64
860.351	5.37
860.522	7.45
860.692	14.71
860.863	7.3
861.034	11.44
861.204	8.33
861.375	8.03
861.546	9.75
861.716	13.38
861.887	21.03
862.057	19.94
862.228	20.88
862.398	19.06
862.569	12.98
862.739	18.07
862.91	14.38
863.08	11.58
863.251	16.25
863.421	13.58
863.592	4.45
863.762	1.55
863.932	2.76
864.103	-4.92
864.273	-3.37
864.443	-4.54
864.614	-1.54
864.784	-3.05
864.954	-1.7
865.125	0.12
865.295	3.89
865.465	10.25
865.635	10.35
865.805	8.64
865.976	14.7
866.146	12.22
866.316	16.28
866.486	7.65
866.656	6.06
866.826	11.08
866.996	1.25
867.166	6.14
867.336	4.29
867.506	1.43
867.676	-2.56
867.846	-8.97
868.016	-3.48
868.186	-1.32
868.356	1.79
868.526	2.34
868.696	5.34
868.866	13.58
869.036	12.13
869.206	12.53
869.376	12.53
869.545	20.42
869.715	22.84
869.885	19.3
870.055	11.01
870.224	11.92
870.394	16.26
870.564	11
870.734	7.87
870.903	1.55
871.073	2.84
871.243	7.43
871.412	8.23
871.582	8.8
871.751	8.43
871.921	11.89
872.091	6.74
872.26	2.42
872.43	4.97
872.599	4.26
872.769	9.38
872.938	12.93
873.108	13.77
873.277	5.88
873.446	9.18
873.616	13.73
873.785	11.97
873.955	16.96
874.124	20.19
874.293	18.03
874.463	19.44
874.632	18.99
874.801	14.39
874.971	14.72
875.14	14.76
875.309	11.62
875.478	12
875.647	12.43
875.817	17.89
875.986	15.22
876.155	17.84
876.324	19.74
876.493	14.78
876.662	17.35
876.831	14
877	15.6
877.17	8.15
877.339	4.87
877.508	5.53
877.677	5.19
877.846	5.22
878.015	8.18
878.184	4.87
878.352	2.72
878.521	6.43
878.69	5.09
878.859	8.38
879.028	16.34
879.197	11.1
879.366	14.23
879.534	9.21
879.703	9.74
879.872	7.44
880.041	11
880.21	14.79
880.378	11.93
880.547	11.43
880.716	12.56
880.884	12.81
881.053	15.13
881.222	15.94
881.39	16.79
881.559	16.64
881.727	17.22
881.896	16.17
882.065	15.63
882.233	15.84
882.402	17.16
882.57	16.4
882.739	16.67
882.907	17.03
883.076	16.89
883.244	16.88
883.412	18.12
883.581	17.7
883.749	18.22
883.918	18.09
884.086	18.26
884.254	16.84
884.423	17.52
884.591	17.44
884.759	17.07
884.927	17.1
885.096	15.61
885.264	13.29
885.432	12.09
885.6	11.06
885.769	11.52
885.937	10.02
886.105	8.74
886.273	6.51
886.441	2.51
886.609	1.7
886.777	-0.11
886.945	0.96
887.113	0.13
887.281	5.1
887.449	3.5
887.617	5.55
887.785	9.78
887.953	15.81
888.121	14.36
888.289	15.04
888.457	12.98
888.625	13.71
888.793	14.55
888.961	13.39
889.129	10.39
889.296	15.08
889.464	11.46
889.632	8.98
889.8	0.96
889.967	8.03
890.135	11.46
