Data from 2938799__Reflection_03.txt Node
Date: Thu Mar 12 22:59:22 EDT 2015
User: robert
Spectrometer: USB4E03002
Autoset integration time: false
Trigger mode: 4
Integration Time (sec): 1.000000E-1
Scans to average: 10
Electric dark correction enabled: false
Nonlinearity correction enabled: false
Boxcar width: 5
Stray light correction enabled: false
XAxis mode: Wavelengths
Stop averaging: false
Number of Pixels in Spectrum: 3648
>>>>>Begin Spectral Data<<<<<
177.575	890.65
177.794	2827.78
178.014	833.33
178.233	980
178.452	468.62
178.672	458.84
178.891	500
179.11	438.48
179.33	416.44
179.549	424.24
179.768	346.26
179.987	311.28
180.207	275.25
180.426	292.66
180.645	310.14
180.864	310.49
181.084	366.02
181.303	252.26
181.522	227.66
181.741	177.9
181.96	182.69
182.179	189.14
182.398	186.04
182.618	176.42
182.837	178.84
183.056	179.83
183.275	172.83
183.494	155.42
183.713	161.37
183.932	163.83
184.151	190.52
184.37	173.23
184.589	172.2
184.808	178.06
185.027	174.42
185.246	173.63
185.465	140.99
185.684	155.61
185.903	156.08
186.122	160.13
186.341	174.84
186.56	165.61
186.779	162.98
186.998	168.48
187.216	170.46
187.435	170.22
187.654	162.4
187.873	187.43
188.092	187.44
188.311	198.16
188.53	201.04
188.748	188.43
188.967	193.91
189.186	213.68
189.405	209.91
189.623	202.06
189.842	192.05
190.061	179.3
190.28	181.65
190.498	177.12
190.717	171.23
190.936	161.37
191.154	147.52
191.373	148.41
191.592	134.49
191.81	144.91
192.029	145.62
192.248	153.43
192.466	156.18
192.685	144.38
192.904	151.84
193.122	146.86
193.341	159.52
193.559	185.89
193.778	188.61
193.996	210.87
194.215	189.44
194.433	214.19
194.652	239.83
194.87	271.69
195.089	313.59
195.307	268.52
195.526	250.79
195.744	262.92
195.963	229.5
196.181	249.85
196.399	249.37
196.618	220.13
196.836	206.11
197.055	185.99
197.273	178.36
197.491	163.12
197.71	170.5
197.928	187.39
198.146	164.87
198.365	146.83
198.583	139.51
198.801	137.47
199.019	174.57
199.238	154.63
199.456	167.8
199.674	178.12
199.892	175.82
200.111	179.76
200.329	177.8
200.547	206.78
200.765	234.58
200.983	208.55
201.202	191.42
201.42	169.48
201.638	182.43
201.856	185.31
202.074	176.46
202.292	167
202.51	147.81
202.728	156.13
202.946	134.3
203.165	141.61
203.383	159.96
203.601	168.91
203.819	173.6
204.037	183.5
204.255	184.69
204.473	172.79
204.691	185.64
204.909	181.58
205.127	157.34
205.345	171.07
205.562	147.64
205.78	136.09
205.998	150.28
206.216	140.53
206.434	144.14
206.652	133.94
206.87	134.3
207.088	123.67
207.306	138.78
207.523	139.23
207.741	135.31
207.959	159.65
208.177	164.46
208.395	141.23
208.612	142.34
208.83	130.59
209.048	126.08
209.266	126.9
209.483	138.43
209.701	117.37
209.919	119.25
210.136	121.84
210.354	111.86
210.572	112.98
210.79	120.67
211.007	125.56
211.225	123.28
211.442	128.24
211.66	131.49
211.878	123.98
212.095	129.91
212.313	127.32
212.53	129.76
212.748	130.05
212.966	132.38
213.183	124.52
213.401	129.74
213.618	136.19
213.836	137.24
214.053	137.66
214.271	143.09
214.488	149.28
214.705	147.19
214.923	150.64
215.14	146.74
215.358	153.9
215.575	170.47
215.793	145.99
216.01	134.54
216.227	129.72
216.445	137.08
216.662	150.12
216.879	132.71
217.097	142.38
217.314	119.57
217.531	127.29
217.749	122.14
217.966	120.04
218.183	126.82
218.4	116.1
218.618	119.22
218.835	105.91
219.052	100.65
219.269	102.87
219.487	99.73
219.704	104.09
219.921	95.83
220.138	95.38
220.355	91.33
220.572	92.57
220.79	95.79
221.007	85.92
221.224	85.74
221.441	79.94
221.658	76.67
221.875	71.28
222.092	67.79
222.309	66.84
222.526	62.73
222.743	62.29
222.96	60.93
223.177	58.32
223.394	65.59
223.611	65.95
223.828	66.52
224.045	68.8
224.262	69.39
224.479	68.27
224.696	65.52
224.913	61.39
225.13	59.42
225.347	53.84
225.564	49.52
225.781	44.06
225.997	40.9
226.214	39.03
226.431	35.22
226.648	29.12
226.865	27.87
227.082	26.32
227.298	23.71
227.515	21.69
227.732	20.95
227.949	19.9
228.165	17.39
228.382	16.45
228.599	15.74
228.816	15.07
229.032	15.36
229.249	14.36
229.466	13.08
229.682	13.23
229.899	13.01
230.116	12.93
230.332	13.43
230.549	14.37
230.765	15.43
230.982	16.54
231.199	16.64
231.415	17.85
231.632	19.15
231.848	20.63
232.065	21.38
232.281	23.26
232.498	23.31
232.714	24.11
232.931	26.26
233.147	25.35
233.364	23.84
233.58	24.03
233.797	24.28
234.013	24.8
234.23	24.94
234.446	25.62
234.662	25.12
234.879	25.82
235.095	25.55
235.312	24.57
235.528	25.26
235.744	26.15
235.961	25.14
236.177	24.17
236.393	22.54
236.61	23.91
236.826	24.11
237.042	24.16
237.258	23.2
237.475	22.75
237.691	22.5
237.907	21.22
238.123	19.97
238.339	19.85
238.556	20.39
238.772	21.07
238.988	19.86
239.204	20.03
239.42	19.79
239.636	19.13
239.853	18.89
240.069	18.41
240.285	17.43
240.501	16.28
240.717	16.45
240.933	14.37
241.149	13.22
241.365	12.16
241.581	11.36
241.797	10.78
242.013	10.8
242.229	10.62
242.445	10.5
242.661	10.46
242.877	10.85
243.093	10.93
243.309	11.86
243.525	12.15
243.741	12.78
243.957	12.83
244.173	12.55
244.388	12.55
244.604	12.01
244.82	11.85
245.036	11.8
245.252	11.72
245.468	10.97
245.683	10.64
245.899	10.61
246.115	10.17
246.331	9.9
246.547	9.89
246.762	9.49
246.978	9.44
247.194	9.11
247.409	9.13
247.625	9.02
247.841	9.03
248.057	8.75
248.272	8.56
248.488	8.27
248.703	8.57
248.919	8.61
249.135	9.24
249.35	9.56
249.566	10.29
249.782	10.8
249.997	11.34
250.213	11.82
250.428	12.86
250.644	13.07
250.859	13.74
251.075	13.22
251.29	12.49
251.506	11.85
251.721	11.58
251.937	11.13
252.152	10.71
252.368	10.32
252.583	10.63
252.798	10.29
253.014	10.18
253.229	10.28
253.445	10.76
253.66	11.35
253.875	11.67
254.091	12.26
254.306	12.94
254.521	13.07
254.737	13.33
254.952	12.62
255.167	12.98
255.383	12.51
255.598	12.83
255.813	11.94
256.028	12.36
256.244	12.46
256.459	12.24
256.674	12.09
256.889	11.76
257.104	11.24
257.32	11.51
257.535	10.61
257.75	10.71
257.965	10.38
258.18	10.26
258.395	9.8
258.61	8.81
258.826	8.3
259.041	7.54
259.256	7.19
259.471	7.31
259.686	6.95
259.901	7.06
260.116	6.69
260.331	6.43
260.546	6.21
260.761	6.17
260.976	6.53
261.191	6.49
261.406	6.79
261.621	7.19
261.836	7.17
262.05	7.37
262.265	7.26
262.48	7.75
262.695	7.64
262.91	8.09
263.125	8.5
263.34	8.78
263.555	9.51
263.769	9.63
263.984	9.15
264.199	9.31
264.414	9.65
264.629	9.76
264.843	10.16
265.058	10.73
265.273	10.34
265.488	10.46
265.702	9.96
265.917	9.73
266.132	9.96
266.346	10.19
266.561	10.03
266.776	10.04
266.99	9.71
267.205	9.52
267.42	9.15
267.634	9.27
267.849	9.02
268.063	8.99
268.278	8.82
268.492	8.29
268.707	8.66
268.922	9.01
269.136	8.39
269.351	8.89
269.565	8.51
269.78	8.34
269.994	8.19
270.209	8.04
270.423	7.85
270.637	7.63
270.852	7.59
271.066	7.11
271.281	6.41
271.495	6.38
271.709	6.39
271.924	6.31
272.138	6.3
272.353	6.24
272.567	6.05
272.781	6.23
272.996	6.33
273.21	6.59
273.424	6.44
273.638	6.97
273.853	7.37
274.067	7.11
274.281	7.69
274.495	8.04
274.71	8.17
274.924	8.5
275.138	8.31
275.352	8.53
275.566	8.38
275.781	8.78
275.995	8.5
276.209	8.44
276.423	8.69
276.637	8.73
276.851	8.83
277.065	8.87
277.279	8.89
277.493	9.31
277.707	8.73
277.921	9.07
278.135	9.23
278.349	9.16
278.563	9.12
278.777	9.15
278.991	8.5
279.205	8.31
279.419	8.28
279.633	8.36
279.847	8.21
280.061	8.56
280.275	8.32
280.489	8.13
280.703	8.05
280.917	7.74
281.131	7.82
281.344	7.72
281.558	7.57
281.772	7.28
281.986	6.7
282.2	6.32
282.414	6.38
282.627	6.45
282.841	6.56
283.055	6.7
283.269	7.11
283.482	6.91
283.696	6.95
283.91	7.17
284.123	7.34
284.337	7.69
284.551	7.65
284.764	7.75
284.978	7.65
285.192	7.34
285.405	7.35
285.619	6.87
285.833	6.75
286.046	6.89
286.26	6.72
286.473	6.79
286.687	6.53
286.9	6.77
287.114	6.55
287.327	6.47
287.541	6.61
287.754	6.88
287.968	7.32
288.181	7.33
288.395	7.27
288.608	7.64
288.822	7.73
289.035	7.73
289.248	7.68
289.462	7.74
289.675	7.72
289.889	7.44
290.102	6.93
290.315	6.74
290.529	6.87
290.742	6.95
290.955	6.76
291.169	6.79
291.382	7.17
291.595	7.26
291.808	7.3
292.022	7.43
292.235	7.82
292.448	8.1
292.661	7.93
292.875	8.01
293.088	8.09
293.301	8.25
293.514	7.9
293.727	7.79
293.94	7.82
294.153	7.84
294.367	7.8
294.58	7.59
294.793	7.53
295.006	7.92
295.219	7.67
295.432	7.72
295.645	7.59
295.858	7.73
296.071	7.61
296.284	7.5
296.497	7.3
296.71	7.57
296.923	7.62
297.136	7.35
297.349	7.07
297.562	7.26
297.775	7.06
297.988	6.8
298.201	6.9
298.414	6.77
298.626	6.54
298.839	6.77
299.052	6.5
299.265	6.54
299.478	7.04
299.691	7.2
299.903	7.12
300.116	7.25
300.329	7.66
300.542	7.58
300.755	7.9
300.967	8.42
301.18	8.49
301.393	8.87
301.605	8.85
301.818	9
302.031	9.05
302.243	9.35
302.456	9.63
302.669	9.55
302.881	9.71
303.094	9.46
303.307	9.11
303.519	9.04
303.732	8.54
303.944	8.69
304.157	8.56
304.37	8.62
304.582	8.38
304.795	8.39
305.007	8.64
305.22	8.49
305.432	8.7
305.645	8.69
305.857	8.51
306.069	8.85
306.282	8.73
306.494	8.78
306.707	8.78
306.919	8.65
307.132	8.78
307.344	8.45
307.556	8.25
307.769	8.53
307.981	8.54
308.193	8.78
308.406	8.4
308.618	8.36
308.83	8.32
309.043	8.28
309.255	8.45
309.467	8.36
309.679	8.43
309.892	8.52
310.104	8.06
310.316	8.15
310.528	8.02
310.74	7.97
310.953	8.15
311.165	8.08
311.377	8.24
311.589	8.35
311.801	8.19
312.013	8.13
312.225	8.14
312.437	8.65
312.649	8.62
312.862	8.73
313.074	9.06
313.286	9.49
313.498	9.38
313.71	9.46
313.922	9.38
314.134	9.46
314.346	9.83
314.558	10.36
314.77	10.23
314.982	10.31
315.193	10.41
315.405	10.41
315.617	10.03
315.829	10.12
316.041	10.17
316.253	9.79
316.465	10.01
316.677	9.9
316.888	9.67
317.1	9.71
317.312	9.85
317.524	9.68
317.736	9.44
317.947	9.5
318.159	10.02
318.371	9.78
318.583	10.08
318.794	10
319.006	10.15
319.218	10.46
319.43	10.36
319.641	10.65
319.853	10.97
320.064	11.2
320.276	10.91
320.488	10.64
320.699	11.29
320.911	11.2
321.123	11.27
321.334	11.45
321.546	11.36
321.757	11.53
321.969	11.48
322.18	11.29
322.392	11.6
322.603	11.95
322.815	11.9
323.026	11.32
323.238	11.18
323.449	11.1
323.661	10.69
323.872	10.19
324.083	9.84
324.295	9.34
324.506	9.18
324.718	9.1
324.929	9.06
325.14	9.19
325.352	9.32
325.563	10.04
325.774	10.39
325.986	10.55
326.197	10.85
326.408	11.29
326.62	11.77
326.831	11.92
327.042	11.84
327.253	11.96
327.464	11.82
327.676	11.94
327.887	11.59
328.098	11.25
328.309	11.33
328.52	11.23
328.732	11.08
328.943	10.88
329.154	11.33
329.365	11.87
329.576	12.09
329.787	12.45
329.998	12.61
330.209	12.92
330.42	13.17
330.631	13.39
330.842	13.61
331.053	13.79
331.264	13.91
331.475	13.63
331.686	13.43
331.897	13.3
332.108	13.14
332.319	13.26
332.53	13.3
332.741	13.22
332.952	13.06
333.163	13.01
333.374	13.09
333.585	13.08
333.795	13.45
334.006	13.36
334.217	13.58
334.428	13.6
334.639	13.47
334.849	13.2
335.06	13.39
335.271	13.26
335.482	13.53
335.692	13.61
335.903	13.8
336.114	13.68
336.325	13.56
336.535	13.56
336.746	13.75
336.957	13.6
337.167	13.91
337.378	13.63
337.589	13.89
337.799	13.87
338.01	14.15
338.22	13.81
338.431	13.76
338.642	13.79
338.852	13.65
339.063	13.35
339.273	13.58
339.484	13.44
339.694	13.62
339.905	13.36
340.115	13
340.326	12.6
340.536	12.73
340.746	12.6
340.957	12.59
341.167	12.62
341.378	12.84
341.588	12.47
341.799	12.19
342.009	12
342.219	12.07
342.43	12.26
342.64	12.43
342.85	12.65
343.061	12.78
343.271	12.99
343.481	12.83
343.691	12.8
343.902	12.81
344.112	12.89
344.322	13.18
344.532	13.04
344.743	13.15
344.953	12.58
345.163	12.34
345.373	12.26
345.583	11.82
345.793	11.54
346.004	11.4
346.214	11.57
346.424	11.6
346.634	11.47
346.844	11.62
347.054	11.4
347.264	11.71
347.474	11.7
347.684	11.64
347.894	11.73
348.104	12.09
348.314	12.2
348.524	11.88
348.734	11.98
348.944	11.85
349.154	11.61
349.364	11.66
349.574	11.39
349.784	11.26
349.994	11.29
350.204	11.48
350.413	11.51
350.623	11.2
350.833	11.34
351.043	11.58
351.253	11.87
351.463	12.1
351.672	11.71
351.882	11.76
352.092	11.89
352.302	11.94
352.511	11.99
352.721	11.94
352.931	12.05
353.141	11.89
353.35	11.58
353.56	11.18
353.77	11.02
353.979	11.31
354.189	11.45
354.399	11.57
354.608	11.53
354.818	11.36
355.027	11.01
355.237	11.07
355.447	10.9
355.656	11.06
355.866	10.95
356.075	10.91
356.285	10.88
356.494	10.7
356.704	10.51
356.913	10.5
357.123	10.52
357.332	10.64
357.542	10.42
357.751	10.61
357.96	10.4
358.17	10.36
358.379	10.18
358.589	9.96
358.798	10.17
359.007	10.27
359.217	9.97
359.426	9.9
359.635	9.74
359.845	9.8
360.054	9.8
360.263	9.75
360.472	9.81
360.682	10
360.891	10.12
361.1	10.13
361.309	10.05
361.519	10.15
361.728	10.15
361.937	10.01
362.146	10.06
362.355	10.21
362.564	10.37
362.774	10.53
362.983	10.52
363.192	10.65
363.401	10.21
363.61	10.32
363.819	10.36
364.028	10.3
364.237	10.37
364.446	10.13
364.655	9.89
364.864	9.67
365.073	9.59
365.282	9.56
365.491	9.5
365.7	9.74
365.909	9.35
366.118	9.42
366.327	9.49
366.536	9.62
366.745	9.95
366.954	10.08
367.162	10.13
367.371	10.2
367.58	10.42
367.789	10.36
367.998	10.39
368.207	10.78
368.415	10.79
368.624	10.87
368.833	11.08
369.042	10.96
369.25	11.08
369.459	11.25
369.668	11.34
369.877	11.07
370.085	11
370.294	11.11
370.503	11.04
370.711	10.77
370.92	10.83
371.129	10.84
371.337	10.93
371.546	10.73
371.754	10.59
371.963	10.16
372.171	10.1
372.38	9.95
372.589	10.06
372.797	9.92
373.006	9.91
373.214	9.76
373.423	9.39
373.631	9.44
373.84	9.41
374.048	9.32
374.256	9.44
374.465	9.73
374.673	9.78
374.882	9.58
375.09	9.65
375.298	9.82
375.507	9.84
375.715	10.13
375.923	10.01
376.132	10.06
376.34	9.92
376.548	9.81
376.757	9.62
376.965	9.73
377.173	9.73
377.381	9.61
377.59	9.34
377.798	9.23
378.006	9.03
378.214	9.15
378.423	8.95
378.631	9.13
378.839	9.2
379.047	9.03
379.255	8.96
379.463	8.96
379.671	9.12
379.879	9.26
380.088	9.3
380.296	9.2
380.504	9.14
380.712	9.37
380.92	8.98
381.128	9
381.336	9.28
381.544	9.22
381.752	9.2
381.96	8.9
382.168	8.69
382.376	8.58
382.584	8.63
382.791	8.43
382.999	8.2
383.207	8.44
383.415	8.34
383.623	8.19
383.831	8.13
384.039	8.08
384.247	8.17
384.454	8.32
384.662	8.36
384.87	8.59
385.078	8.55
385.285	8.61
385.493	8.74
385.701	8.82
385.909	8.65
386.116	8.68
386.324	8.78
386.532	8.76
386.739	8.66
386.947	8.52
387.155	8.35
387.362	8.31
387.57	8.32
387.778	8.19
387.985	8.15
388.193	8.28
388.4	8.25
388.608	8.13
388.816	8.03
389.023	8.13
389.231	8.16
389.438	8.08
389.646	7.92
389.853	7.67
390.061	7.6
390.268	7.56
390.475	7.32
390.683	7.45
390.89	7.33
391.098	7.24
391.305	7.19
391.512	7.1
391.72	7.08
391.927	6.97
392.135	7.23
392.342	7.12
392.549	6.97
392.756	6.92
392.964	6.79
393.171	6.92
393.378	6.98
393.586	6.83
393.793	6.82
394	6.81
394.207	6.99
394.414	6.83
394.622	6.91
394.829	7.06
395.036	7.23
395.243	7.15
395.45	7.12
395.657	7
395.864	7.14
396.072	7.26
396.279	7.26
396.486	7.21
396.693	7.29
396.9	7.14
397.107	6.96
397.314	6.87
397.521	6.76
397.728	6.39
397.935	6.54
398.142	6.57
398.349	6.32
398.556	6.28
398.763	6.36
398.97	6.27
399.177	6.24
399.383	6.38
399.59	6.27
399.797	6.53
400.004	6.72
400.211	6.59
400.418	6.36
400.625	6.52
400.831	6.46
401.038	6.28
401.245	6.03
401.452	6.08
401.658	5.95
401.865	6.05
402.072	5.91
402.279	5.93
402.485	5.95
402.692	5.91
402.899	5.84
403.105	5.68
403.312	5.62
403.519	5.72
403.725	5.62
403.932	5.68
404.138	5.62
404.345	5.42
404.552	5.47
404.758	5.39
404.965	5.43
405.171	5.45
405.378	5.55
405.584	5.68
405.791	5.67
405.997	5.76
406.204	5.74
406.41	5.71
406.617	5.93
406.823	5.93
407.029	6.14
407.236	6.18
407.442	6.08
407.649	6.16
407.855	6.08
408.061	6.23
408.268	6.12
408.474	6.3
408.68	6.23
408.887	5.92
409.093	5.82
409.299	5.55
409.505	5.42
409.712	5.49
409.918	5.34
410.124	5.46
410.33	5.49
410.537	5.35
410.743	5.17
410.949	5.04
411.155	5.1
411.361	5.06
411.567	5.25
411.773	5.2
411.98	5.16
412.186	5.28
412.392	5.13
412.598	4.94
412.804	4.99
413.01	4.78
413.216	4.91
413.422	4.95
413.628	4.96
413.834	4.86
414.04	5.14
414.246	4.87
414.452	4.93
414.658	5.08
414.864	5.11
415.07	5.23
415.275	5.32
415.481	5.18
415.687	5.13
415.893	5.25
416.099	5.11
416.305	4.97
416.511	5.11
416.716	4.87
416.922	4.67
417.128	4.61
417.334	4.48
417.539	4.52
417.745	4.57
417.951	4.6
418.157	4.41
418.362	4.41
418.568	4.32
418.774	4.24
418.979	4.22
419.185	4.15
419.391	4.13
419.596	4
419.802	3.94
420.008	3.92
420.213	3.88
420.419	3.88
420.624	3.86
420.83	3.86
421.035	3.83
421.241	3.76
421.446	3.82
421.652	3.67
421.857	3.72
422.063	3.73
422.268	3.73
422.474	3.71
422.679	3.65
422.885	3.62
423.09	3.59
423.295	3.65
423.501	3.73
423.706	3.66
423.911	3.76
424.117	3.79
424.322	3.65
424.527	3.52
424.733	3.53
424.938	3.59
425.143	3.61
425.349	3.66
425.554	3.67
425.759	3.67
425.964	3.7
426.169	3.75
426.375	3.74
426.58	3.87
426.785	4.02
426.99	4
427.195	4.05
427.4	4.12
427.605	4.13
427.811	4.09
428.016	4.1
428.221	4.14
428.426	4.1
428.631	4.15
428.836	4.23
429.041	4.38
429.246	4.42
429.451	4.37
429.656	4.36
429.861	4.31
430.066	4.38
430.271	4.35
430.476	4.25
430.681	4.23
430.886	4.18
431.09	4.13
431.295	3.87
431.5	3.92
431.705	3.86
431.91	3.77
432.115	3.63
432.32	3.64
432.524	3.65
432.729	3.76
432.934	3.77
433.139	3.7
433.343	3.62
433.548	3.7
433.753	3.56
433.958	3.61
434.162	3.7
434.367	3.72
434.572	3.65
434.776	3.53
434.981	3.55
435.186	3.55
435.39	3.66
435.595	3.68
435.799	3.74
436.004	3.77
436.209	3.66
436.413	3.64
436.618	3.71
436.822	3.7
437.027	3.81
437.231	3.69
437.436	3.69
437.64	3.72
437.845	3.74
438.049	3.72
438.253	3.68
438.458	3.75
438.662	3.72
438.867	3.76
439.071	3.79
439.275	3.69
439.48	3.68
439.684	3.59
439.888	3.57
440.093	3.51
440.297	3.49
440.501	3.54
440.706	3.55
440.91	3.55
441.114	3.48
441.318	3.45
441.523	3.53
441.727	3.53
441.931	3.56
442.135	3.43
442.339	3.52
442.543	3.49
442.748	3.45
442.952	3.41
443.156	3.36
443.36	3.37
443.564	3.35
443.768	3.39
443.972	3.45
444.176	3.57
444.38	3.62
444.584	3.53
444.788	3.47
444.992	3.45
445.196	3.36
445.4	3.37
445.604	3.37
445.808	3.35
446.012	3.24
446.216	3.17
446.42	3.09
446.624	3.04
446.828	3.03
447.032	3
447.235	2.97
447.439	3.03
447.643	3.02
447.847	2.98
448.051	2.94
448.254	2.95
448.458	3.02
448.662	2.94
448.866	2.96
449.069	2.96
449.273	3
449.477	3.13
449.681	3.12
449.884	3.24
450.088	3.28
450.292	3.36
450.495	3.4
450.699	3.34
450.902	3.45
451.106	3.43
451.31	3.47
451.513	3.49
451.717	3.35
451.92	3.43
452.124	3.26
452.327	3.25
452.531	3.29
452.734	3.24
452.938	3.28
453.141	3.19
453.345	3.17
453.548	3.12
453.752	3.14
453.955	3.29
454.158	3.2
454.362	3.24
454.565	3.13
454.769	3.07
454.972	3.14
455.175	3.11
455.379	3.16
455.582	3.34
455.785	3.38
455.988	3.31
456.192	3.28
456.395	3.34
456.598	3.39
456.801	3.54
457.005	3.55
457.208	3.52
457.411	3.5
457.614	3.39
457.817	3.14
458.021	3.06
458.224	3.1
458.427	3.03
458.63	2.92
458.833	2.8
459.036	2.8
459.239	2.81
459.442	2.83
459.645	2.83
459.848	2.91
460.051	3.03
460.254	3.04
460.457	3.02
460.66	3.01
460.863	3.09
461.066	3.08
461.269	3.02
461.472	3.01
461.675	3.03
461.878	2.99
462.081	3.06
462.284	3.06
462.486	3.11
462.689	3.15
462.892	3.13
463.095	3.11
463.298	3.26
463.5	3.36
463.703	3.4
463.906	3.43
464.109	3.47
464.311	3.36
464.514	3.33
464.717	3.48
464.92	3.4
465.122	3.55
465.325	3.6
465.528	3.58
465.73	3.62
465.933	3.65
466.135	3.58
466.338	3.59
466.541	3.6
466.743	3.6
466.946	3.49
467.148	3.48
467.351	3.42
467.553	3.39
467.756	3.29
467.958	3.25
468.161	3.16
468.363	3.16
468.566	3.14
468.768	3.24
468.971	3.22
469.173	3.23
469.375	3.32
469.578	3.43
469.78	3.43
469.983	3.61
470.185	3.64
470.387	3.68
470.59	3.81
470.792	3.99
470.994	3.92
471.196	3.95
471.399	3.97
471.601	3.89
471.803	3.73
472.005	3.66
472.208	3.58
472.41	3.47
472.612	3.44
472.814	3.36
473.016	3.28
473.218	3.28
473.421	3.32
473.623	3.33
473.825	3.45
474.027	3.44
474.229	3.57
474.431	3.63
474.633	3.7
474.835	3.79
475.037	3.63
475.239	3.57
475.441	3.57
475.643	3.5
475.845	3.36
476.047	3.29
476.249	3.42
476.451	3.39
476.653	3.38
476.855	3.39
477.057	3.28
477.258	3.39
477.46	3.39
477.662	3.41
477.864	3.41
478.066	3.55
478.268	3.52
478.469	3.45
478.671	3.48
478.873	3.5
479.075	3.41
479.276	3.5
479.478	3.43
479.68	3.49
479.882	3.41
480.083	3.45
480.285	3.4
480.487	3.41
480.688	3.36
480.89	3.3
481.091	3.21
481.293	3.21
481.495	3.09
481.696	3.11
481.898	2.98
482.099	2.91
482.301	2.85
482.502	2.79
482.704	2.71
482.905	2.64
483.107	2.59
483.308	2.54
483.51	2.5
483.711	2.49
483.913	2.47
484.114	2.47
484.315	2.48
484.517	2.44
484.718	2.42
484.92	2.44
485.121	2.47
485.322	2.51
485.524	2.54
485.725	2.58
485.926	2.56
486.127	2.55
486.329	2.57
486.53	2.59
486.731	2.65
486.932	2.66
487.134	2.65
487.335	2.65
487.536	2.62
487.737	2.59
487.938	2.57
488.139	2.61
488.341	2.62
488.542	2.62
488.743	2.62
488.944	2.61
489.145	2.62
489.346	2.65
489.547	2.67
489.748	2.68
489.949	2.71
490.15	2.72
490.351	2.72
490.552	2.72
490.753	2.66
490.954	2.67
491.155	2.68
491.356	2.71
491.557	2.69
491.758	2.71
491.959	2.72
492.159	2.74
492.36	2.76
492.561	2.81
492.762	2.89
492.963	2.99
493.164	3
493.364	3.04
493.565	3.07
493.766	3.16
493.967	3.16
494.167	3.24
494.368	3.27
494.569	3.32
494.769	3.28
494.97	3.2
495.171	3.2
495.371	3.24
495.572	3.23
495.773	3.22
495.973	3.21
496.174	3.24
496.375	3.25
496.575	3.27
496.776	3.29
496.976	3.36
497.177	3.4
497.377	3.42
497.578	3.42
497.778	3.45
497.979	3.44
498.179	3.49
498.38	3.54
498.58	3.54
498.78	3.59
498.981	3.59
499.181	3.63
499.382	3.69
499.582	3.76
499.782	3.79
499.983	3.83
500.183	3.88
500.383	3.9
500.584	3.93
500.784	3.96
500.984	3.94
501.184	4.14
501.385	4.12
501.585	4.1
501.785	4.07
501.985	4.06
502.185	4.03
502.386	4.04
502.586	4.06
502.786	4.13
502.986	4.16
503.186	4.23
503.386	4.18
503.586	4.21
503.786	4.25
503.987	4.36
504.187	4.44
504.387	4.53
504.587	4.66
504.787	4.64
504.987	4.57
505.187	4.57
505.387	4.59
505.587	4.51
505.786	4.55
505.986	4.58
506.186	4.6
506.386	4.6
506.586	4.6
506.786	4.58
506.986	4.64
507.186	4.7
507.386	4.77
507.585	4.78
507.785	4.9
507.985	4.93
508.185	5.02
508.384	4.99
508.584	5.11
508.784	5.11
508.984	5.16
509.183	5.17
509.383	5.14
509.583	5.16
509.782	5.18
509.982	5.17
510.182	5.19
510.381	5.17
510.581	5.24
510.781	5.25
510.98	5.32
511.18	5.3
511.379	5.35
511.579	5.38
511.778	5.42
511.978	5.42
512.177	5.42
512.377	5.39
512.576	5.44
512.776	5.47
512.975	5.49
513.175	5.52
513.374	5.54
513.573	5.55
513.773	5.67
513.972	5.77
514.172	5.88
514.371	6.03
514.57	6.16
514.77	6.2
514.969	6.21
515.168	6.27
515.367	6.33
515.567	6.43
515.766	6.5
515.965	6.47
516.164	6.46
516.364	6.43
516.563	6.42
516.762	6.44
516.961	6.5
517.16	6.57
517.359	6.61
517.559	6.64
517.758	6.72
517.957	6.8
518.156	6.87
518.355	6.84
518.554	6.94
518.753	6.96
518.952	6.95
519.151	6.91
519.35	6.91
519.549	6.87
519.748	6.91
519.947	6.92
520.146	6.93
520.345	7
520.544	7.13
520.743	7.18
520.942	7.22
521.141	7.34
521.339	7.56
521.538	7.67
521.737	7.81
521.936	7.75
522.135	7.73
522.333	7.79
522.532	7.84
522.731	7.88
522.93	7.83
523.129	7.88
523.327	7.89
523.526	7.83
523.725	7.85
523.923	7.85
524.122	7.93
524.321	8.02
524.519	7.95
524.718	7.94
524.917	7.98
525.115	8.05
525.314	8.04
525.512	8.1
525.711	8.12
525.909	8.09
526.108	8.08
526.306	8.13
526.505	8.11
526.703	8.14
526.902	8.14
527.1	8.14
527.299	8.11
527.497	8.15
527.696	8.13
527.894	8.11
528.092	8.13
528.291	8.17
528.489	8.17
528.688	8.2
528.886	8.21
529.084	8.25
529.283	8.3
529.481	8.35
529.679	8.39
529.877	8.46
530.076	8.55
530.274	8.64
530.472	8.67
530.67	8.74
530.869	8.82
531.067	8.94
531.265	8.97
531.463	9.02
531.661	9.13
531.859	9.19
532.057	9.22
532.255	9.23
532.454	9.26
532.652	9.29
532.85	9.31
533.048	9.31
533.246	9.35
533.444	9.42
533.642	9.45
533.84	9.47
534.038	9.49
534.236	9.51
534.434	9.58
534.632	9.62
534.83	9.72
535.027	9.78
535.225	9.84
535.423	9.84
535.621	9.91
535.819	9.93
536.017	9.98
536.215	10.02
536.412	10.06
536.61	10.07
536.808	10.15
537.006	10.15
537.203	10.26
537.401	10.34
537.599	10.45
537.797	10.47
537.994	10.58
538.192	10.66
538.39	10.85
538.587	10.97
538.785	11.15
538.983	11.22
539.18	11.32
539.378	11.33
539.575	11.5
539.773	11.59
539.97	11.61
540.168	11.6
540.366	11.62
540.563	11.58
540.761	11.62
540.958	11.64
541.155	11.67
541.353	11.7
541.55	11.76
541.748	11.72
541.945	11.79
542.143	11.84
542.34	11.91
542.537	12.01
542.735	12.13
542.932	12.24
543.129	12.34
543.327	12.52
543.524	12.75
543.721	12.92
543.919	13.17
544.116	13.31
544.313	13.6
544.51	13.85
544.708	14.08
544.905	14.22
545.102	14.42
545.299	14.64
545.496	14.75
545.693	14.79
545.891	14.76
546.088	14.74
546.285	14.76
546.482	14.64
546.679	14.66
546.876	14.55
547.073	14.54
547.27	14.46
547.467	14.34
547.664	14.33
547.861	14.23
548.058	14.38
548.255	14.47
548.452	14.45
548.649	14.55
548.846	14.52
549.043	14.58
549.24	14.67
549.437	14.74
549.633	14.68
549.83	14.63
550.027	14.63
550.224	14.45
550.421	14.3
550.618	14.33
550.814	14.31
551.011	14.25
551.208	14.21
551.405	14.17
551.601	14.03
551.798	14.14
551.995	14.07
552.191	14.18
552.388	14.14
552.585	14.18
552.781	14.28
552.978	14.33
553.175	14.35
553.371	14.36
553.568	14.37
553.764	14.45
553.961	14.5
554.157	14.63
554.354	14.62
554.55	14.74
554.747	14.78
554.943	14.83
555.14	14.78
555.336	15
555.533	15.09
555.729	15.15
555.926	15.21
556.122	15.22
556.318	15.18
556.515	15.28
556.711	15.32
556.907	15.4
557.104	15.54
557.3	15.66
557.496	15.55
557.693	15.58
557.889	15.6
558.085	15.71
558.281	15.72
558.478	15.81
558.674	15.91
558.87	15.86
559.066	15.86
559.262	15.7
559.459	15.65
559.655	15.74
559.851	15.76
560.047	15.77
560.243	15.79
560.439	15.75
560.635	15.77
560.831	15.63
561.027	15.92
561.223	15.93
561.419	15.89
561.615	16.03
561.811	15.98
562.007	15.93
562.203	15.88
562.399	15.96
562.595	16.01
562.791	16.04
562.987	16.23
563.183	16.12
563.379	16.17
563.575	16.39
563.771	16.37
563.966	16.35
564.162	16.57
564.358	16.7
564.554	16.57
564.75	16.56
564.945	16.62
565.141	16.61
565.337	16.61
565.533	16.62
565.728	16.52
565.924	16.52
566.12	16.64
566.315	16.59
566.511	16.6
566.707	16.74
566.902	16.81
567.098	16.76
567.293	16.78
567.489	16.82
567.684	16.86
567.88	16.92
568.076	16.96
568.271	17.01
568.467	17.05
568.662	17.08
568.858	17.1
569.053	17.24
569.248	17.4
569.444	17.43
569.639	17.48
569.835	17.41
570.03	17.46
570.225	17.44
570.421	17.45
570.616	17.53
570.812	17.52
571.007	17.56
571.202	17.51
571.397	17.52
571.593	17.54
571.788	17.59
571.983	17.62
572.178	17.64
572.374	17.81
572.569	17.79
572.764	17.8
572.959	17.83
573.154	17.78
573.35	17.78
573.545	17.74
573.74	17.68
573.935	17.61
574.13	17.72
574.325	17.81
574.52	17.8
574.715	17.9
574.91	17.95
575.105	18.11
575.3	18.19
575.495	18.24
575.69	18.26
575.885	18.45
576.08	18.71
576.275	18.82
576.47	18.88
576.665	18.99
576.86	19.18
577.055	19.3
577.25	19.38
577.444	19.61
577.639	19.9
577.834	20.03
578.029	20.17
578.224	20.15
578.418	20.24
578.613	20.31
578.808	20.33
579.003	20.31
579.197	20.24
579.392	20.29
579.587	20.14
579.781	19.97
579.976	19.94
580.171	19.82
580.365	19.84
580.56	19.9
580.755	19.9
580.949	19.92
581.144	19.99
581.338	20.12
581.533	20.13
581.727	20.24
581.922	20.39
582.116	20.52
582.311	20.59
582.505	20.54
582.7	20.54
582.894	20.56
583.089	20.62
583.283	20.38
583.478	20.28
583.672	20.27
583.866	20.27
584.061	20.17
584.255	20.28
584.449	20.29
584.644	20.54
584.838	20.52
585.032	20.7
585.226	20.72
585.421	20.94
585.615	20.91
585.809	21.05
586.003	21.2
586.198	21.36
586.392	21.41
586.586	21.54
586.78	21.34
586.974	21.38
587.168	21.33
587.363	21.25
587.557	21.15
587.751	21.23
587.945	21.09
588.139	21.08
588.333	21
588.527	20.81
588.721	20.77
588.915	20.89
589.109	20.74
589.303	20.7
589.497	20.71
589.691	20.77
589.885	20.87
590.079	20.86
590.273	20.87
590.466	20.94
590.66	21.01
590.854	21.04
591.048	21.13
591.242	21.37
591.436	21.28
591.629	21.43
591.823	21.57
592.017	21.64
592.211	21.81
592.404	21.74
592.598	21.78
592.792	21.82
592.986	21.82
593.179	21.68
593.373	21.55
593.567	21.58
593.76	21.39
593.954	21.15
594.147	21.07
594.341	20.86
594.535	20.91
594.728	20.79
594.922	20.7
595.115	20.5
595.309	20.35
595.502	20.39
595.696	20.27
595.889	20.36
596.083	20.42
596.276	20.44
596.47	20.49
596.663	20.35
596.856	20.34
597.05	20.32
597.243	20.54
597.437	20.57
597.63	20.52
597.823	20.72
598.017	20.77
598.21	20.91
598.403	21.09
598.596	21.18
598.79	21.26
598.983	21.29
599.176	21.37
599.369	21.36
599.563	21.6
599.756	21.64
599.949	21.67
600.142	21.72
600.335	21.74
600.528	21.46
600.722	21.27
600.915	21.22
601.108	21.17
601.301	21.16
601.494	21.08
601.687	20.98
601.88	20.99
602.073	20.88
602.266	20.73
602.459	20.7
602.652	20.7
602.845	20.79
603.038	20.76
603.231	20.86
603.424	20.68
603.617	20.65
603.809	20.7
604.002	20.67
604.195	20.56
604.388	20.61
604.581	20.54
604.774	20.51
604.966	20.46
605.159	20.54
605.352	20.5
605.545	20.69
605.737	20.7
605.93	20.81
606.123	20.94
606.316	21.23
606.508	21.43
606.701	21.61
606.894	21.94
607.086	22.17
607.279	22.37
607.471	22.45
607.664	22.75
607.857	22.99
608.049	23.21
608.242	23.52
608.434	24.02
608.627	24.43
608.819	25
609.012	25.6
609.204	26.51
609.397	27.41
609.589	28.57
609.782	29.64
609.974	30.85
610.166	31.79
610.359	32.91
610.551	33.75
610.743	34.55
610.936	35.22
611.128	35.84
611.32	36.04
611.513	36.13
611.705	36.08
611.897	35.79
612.09	35.31
612.282	35.01
612.474	34.44
612.666	33.97
612.858	33.32
613.051	32.82
613.243	32.12
613.435	31.72
613.627	31.15
613.819	30.64
614.011	30.32
614.203	30.01
614.395	29.51
614.588	29
614.78	28.37
614.972	28.01
615.164	27.44
615.356	26.85
615.548	26.49
615.74	26.44
615.932	26.3
616.124	25.63
616.315	25.19
616.507	24.87
616.699	24.63
616.891	24.43
617.083	24.27
617.275	24.2
617.467	24.19
617.659	23.93
617.85	23.66
618.042	23.28
618.234	23.4
618.426	23.51
618.618	23.56
618.809	23.34
619.001	23.38
619.193	23.35
619.384	23.28
619.576	23.26
619.768	23.28
619.959	23.28
620.151	23.38
620.343	23.34
620.534	23.21
620.726	23.1
620.917	23.34
621.109	23.34
621.301	23.39
621.492	23.53
621.684	23.52
621.875	23.56
622.067	23.6
622.258	23.48
622.45	23.59
622.641	23.59
622.832	23.61
623.024	23.66
623.215	23.65
623.407	23.51
623.598	23.37
623.789	23.56
623.981	23.59
624.172	23.72
624.363	23.75
624.555	23.74
624.746	23.7
624.937	23.83
625.129	23.62
625.32	23.57
625.511	23.59
625.702	23.65
625.893	23.54
626.085	23.52
626.276	23.35
626.467	23.32
626.658	23.33
626.849	23.33
627.04	23.17
627.231	23.35
627.422	23.35
627.614	23.39
627.805	23.36
627.996	23.42
628.187	23.44
628.378	23.58
628.569	23.66
628.76	23.68
628.951	23.76
629.142	23.99
629.332	24.13
629.523	24.25
629.714	24.46
629.905	24.64
630.096	24.78
630.287	24.88
630.478	24.69
630.669	24.84
630.859	24.72
631.05	24.61
631.241	24.46
631.432	24.27
631.623	24.14
631.813	23.86
632.004	23.7
632.195	23.47
632.385	23.21
632.576	23.11
632.767	22.97
632.957	22.91
633.148	22.8
633.339	22.6
633.529	22.41
633.72	22.42
633.91	22.46
634.101	22.46
634.292	22.41
634.482	22.51
634.673	22.64
634.863	22.51
635.054	22.53
635.244	22.74
635.435	22.82
635.625	22.97
635.815	22.79
636.006	22.69
636.196	22.6
636.387	22.61
636.577	22.56
636.767	22.52
636.958	22.44
637.148	22.47
637.338	22.29
637.529	22.27
637.719	22.1
637.909	22.31
638.099	22.24
638.29	22.1
638.48	22.16
638.67	22.14
638.86	22.18
639.05	22.27
639.241	22.09
639.431	22.03
639.621	22
639.811	21.94
640.001	21.88
640.191	22.11
640.381	22.27
640.571	22.35
640.761	22.36
640.951	22.41
641.141	22.41
641.331	22.47
641.521	22.47
641.711	22.44
641.901	22.49
642.091	22.45
642.281	22.4
642.471	22.43
642.661	22.45
642.851	22.6
643.041	22.41
643.231	22.58
643.42	22.82
643.61	22.88
643.8	22.91
643.99	22.74
644.18	22.65
644.369	22.54
644.559	22.68
644.749	22.64
644.939	22.66
645.128	22.72
645.318	22.66
645.508	22.43
645.697	22.51
645.887	22.62
646.076	22.86
646.266	22.95
646.456	23.14
646.645	22.93
646.835	23
647.024	22.73
647.214	22.83
647.403	22.88
647.593	23.22
647.782	23.29
647.972	23.37
648.161	23.45
648.351	23.43
648.54	23.23
648.73	23.23
648.919	23.33
649.108	23.45
649.298	23.47
649.487	23.46
649.677	23.37
649.866	23.31
650.055	23.45
650.244	23.58
650.434	23.63
650.623	23.54
650.812	23.51
651.002	23.28
651.191	23.14
651.38	23.22
651.569	23.26
651.758	23.21
651.947	23.24
652.137	22.88
652.326	22.79
652.515	22.9
652.704	23.02
652.893	23.32
653.082	23.28
653.271	23.42
653.46	23.19
653.649	23.01
653.838	22.95
654.027	23.09
654.216	23.4
654.405	23.28
654.594	23.1
654.783	23.08
654.972	22.84
655.161	23.02
655.35	23.14
655.539	23.29
655.728	23.4
655.916	23.54
656.105	23.33
656.294	23.47
656.483	23.48
656.672	23.64
656.86	23.79
657.049	23.87
657.238	23.59
657.427	23.41
657.615	23.47
657.804	23.41
657.993	23.29
658.181	23.16
658.37	22.92
658.559	22.8
658.747	22.65
658.936	22.56
659.125	22.25
659.313	22.24
659.502	22.18
659.69	22.05
659.879	22.15
660.067	22.14
660.256	22.28
660.444	22.33
660.633	22.38
660.821	22.3
661.01	22.46
661.198	22.63
661.387	22.62
661.575	22.71
661.763	22.86
661.952	22.93
662.14	23.11
662.328	23.32
662.517	23.28
662.705	23.44
662.893	23.54
663.082	23.75
663.27	23.82
663.458	24
663.646	24.06
663.834	24.03
664.023	23.84
664.211	23.8
664.399	23.59
664.587	23.57
664.775	23.63
664.963	23.84
665.152	23.67
665.34	23.91
665.528	23.88
665.716	23.93
665.904	23.82
666.092	23.83
666.28	23.62
666.468	23.56
666.656	23.67
666.844	23.7
667.032	23.55
667.22	23.33
667.408	23.47
667.596	23.72
667.784	23.41
667.971	23.41
668.159	23.31
668.347	23.36
668.535	23.54
668.723	23.45
668.911	23.51
669.098	23.73
669.286	23.8
669.474	23.37
669.662	23.29
669.849	23.7
670.037	23.68
670.225	23.83
670.413	24.1
670.6	24.18
670.788	24.29
670.976	24.12
671.163	23.91
671.351	24.01
671.538	24.21
671.726	24.11
671.913	24.02
672.101	24.18
672.289	23.93
672.476	23.69
672.664	23.72
672.851	23.66
673.039	23.55
673.226	23.4
673.413	23.19
673.601	23.05
673.788	23.22
673.976	23.29
674.163	23.2
674.35	23.75
674.538	23.84
674.725	23.64
674.912	23.57
675.1	23.71
675.287	24.04
675.474	24.06
675.662	24.07
675.849	23.77
676.036	23.65
676.223	23.93
676.411	23.56
676.598	23.33
676.785	23.62
676.972	23.67
677.159	23.67
677.346	23.48
677.533	23.53
677.721	23.65
677.908	23.62
678.095	23.67
678.282	23.73
678.469	23.74
678.656	23.78
678.843	23.4
679.03	23.26
679.217	23.41
679.404	23.58
679.591	23.5
679.778	23.27
679.964	23.25
680.151	23.09
680.338	22.89
680.525	22.8
680.712	22.76
680.899	22.9
681.086	23.09
681.272	22.85
681.459	22.87
681.646	23.1
681.833	23.46
682.02	23.49
682.206	23.71
682.393	23.87
682.58	24
682.766	24.17
682.953	24.24
683.14	24.1
683.326	24.34
683.513	24.27
683.7	24.14
683.886	24.12
684.073	24.39
684.259	23.91
684.446	23.9
684.632	24.03
684.819	23.91
685.005	23.93
685.192	24.07
685.378	23.98
685.565	23.93
685.751	24.08
685.938	23.95
686.124	24.05
686.31	24.35
686.497	24.22
686.683	24.26
686.87	24.36
687.056	24.25
687.242	24.1
687.429	24.27
687.615	24.27
687.801	24.15
687.987	24.32
688.174	24.27
688.36	24.27
688.546	24.3
688.732	23.99
688.918	24.05
689.105	24.17
689.291	24.2
689.477	23.9
689.663	23.99
689.849	23.76
690.035	23.62
690.221	23.63
690.407	23.97
690.593	23.8
690.779	24.11
690.965	24.1
691.151	24.17
691.337	24.6
691.523	25.15
691.709	25.23
691.895	25.26
692.081	25.4
692.267	25.23
692.453	25.21
692.639	25.4
692.825	25.21
693.011	25.22
693.196	25.22
693.382	24.69
693.568	24.44
693.754	24.4
693.94	24.63
694.125	24.83
694.311	25.17
694.497	25.14
694.682	25.13
694.868	25.27
695.054	25.7
695.239	25.45
695.425	25.54
695.611	25.31
695.796	25.13
695.982	25.26
696.168	24.95
696.353	24.55
696.539	24.22
696.724	24.03
696.91	23.94
697.095	23.51
697.281	23.51
697.466	23.13
697.652	23.27
697.837	23.39
698.023	23.15
698.208	23.09
698.393	22.81
698.579	22.89
698.764	22.73
698.949	22.63
699.135	22.35
699.32	22.24
699.505	22.52
699.691	22.53
699.876	22.24
700.061	22.43
700.246	22.26
700.432	22.54
700.617	22.31
700.802	22.79
700.987	22.9
701.172	23.43
701.358	23.62
701.543	23.59
701.728	23.58
701.913	23.85
702.098	23.73
702.283	23.93
702.468	24.23
702.653	24.6
702.838	24.36
703.023	24.5
703.208	24.33
703.393	24.5
703.578	24.98
703.763	25.05
703.948	25.12
704.133	25.59
704.318	25.89
704.503	26.06
704.688	26.09
704.873	26.19
705.057	26.52
705.242	27.06
705.427	26.99
705.612	26.86
705.797	27.03
705.981	27.61
706.166	27.61
706.351	27.8
706.536	27.91
706.72	28.14
706.905	28.49
707.09	28.23
707.274	28.36
707.459	28.98
707.644	29.32
707.828	29.38
708.013	29.09
708.197	29.15
708.382	29.17
708.567	29.07
708.751	28.97
708.936	28.8
709.12	29
709.305	28.53
709.489	28.16
709.673	28.2
709.858	27.86
710.042	27.82
710.227	27.71
710.411	27.52
710.596	27.3
710.78	27.21
710.964	27.29
711.149	27.35
711.333	27.75
711.517	27.69
711.702	27.41
711.886	27.41
712.07	27.3
712.254	26.97
712.438	26.87
712.623	26.64
712.807	26.66
712.991	26.14
713.175	25.86
713.359	25.51
713.544	25.3
713.728	25.06
713.912	24.87
714.096	24.91
714.28	24.78
714.464	24.49
714.648	24.38
714.832	23.91
715.016	24.19
715.2	24.15
715.384	23.78
715.568	23.69
715.752	23.47
715.936	23.4
716.12	23.03
716.304	23.04
716.488	23.2
716.671	23.23
716.855	23.82
717.039	23.38
717.223	23.37
717.407	23.34
717.59	23.63
717.774	23.63
717.958	24.32
718.142	24.5
718.325	24.82
718.509	24.96
718.693	25.2
718.877	24.53
719.06	25.23
719.244	25.04
719.428	25.21
719.611	24.7
719.795	25.11
719.978	24.78
720.162	24.94
720.345	25.13
720.529	24.96
720.713	25.14
720.896	25.67
721.08	25.5
721.263	25.54
721.446	25.77
721.63	26.18
721.813	26.22
721.997	25.94
722.18	25.55
722.364	25.3
722.547	25.37
722.73	25.19
722.914	25.63
723.097	25.51
723.28	25.59
723.464	25.54
723.647	25.36
723.83	25.21
724.013	25.25
724.197	25.63
724.38	25.43
724.563	25.49
724.746	25.36
724.929	24.69
725.112	24.44
725.296	24.73
725.479	24.48
725.662	24.48
725.845	24.48
726.028	24.51
726.211	24.22
726.394	24.58
726.577	24.32
726.76	24.93
726.943	25.11
727.126	25.34
727.309	25.27
727.492	25.22
727.675	25.51
727.858	25.4
728.041	25.62
728.224	25.79
728.407	25.41
728.589	25.42
728.772	24.75
728.955	24.74
729.138	24.94
729.321	24.78
729.503	24.63
729.686	25.14
729.869	24.98
730.052	24.59
730.234	24.93
730.417	24.98
730.6	25.05
730.782	25.12
730.965	25.12
731.148	25.08
731.33	25.23
731.513	25.56
731.695	25.03
731.878	25.2
732.061	25.52
732.243	25.55
732.426	26.07
732.608	26.09
732.791	25.92
732.973	26.14
733.156	26.04
733.338	26.05
733.52	26.18
733.703	25.43
733.885	25.57
734.068	25.93
734.25	25.41
734.432	25.27
734.615	25.56
734.797	26.1
734.979	26.09
735.162	26.22
735.344	25.8
735.526	25.84
735.708	26.49
735.891	26.21
736.073	25.9
736.255	25.96
736.437	25.2
736.619	25.19
736.802	25.29
736.984	25.14
737.166	24.97
737.348	25.43
737.53	25.47
737.712	25.48
737.894	25.85
738.076	26.07
738.258	26.27
738.44	26.56
738.622	26.33
738.804	26.17
738.986	25.88
739.168	26.28
739.35	25.8
739.532	25.42
739.714	25.54
739.896	25.13
740.078	24.5
740.259	24.69
740.441	25.14
740.623	25.39
740.805	25.48
740.987	26.1
741.168	25.68
741.35	26.14
741.532	26.22
741.714	25.93
741.895	26.32
742.077	26.81
742.259	27.14
742.44	26.73
742.622	26.44
742.804	26.16
742.985	25.72
743.167	26.27
743.348	26.39
743.53	26.51
743.711	26.87
743.893	26.81
744.075	26.82
744.256	26.51
744.438	27.18
744.619	27.53
744.8	27.64
744.982	27.63
745.163	27.51
745.345	27.44
745.526	27.96
745.707	27.59
745.889	27.66
746.07	28.1
746.252	27.85
746.433	27.03
746.614	26.82
746.795	26.52
746.977	26.7
747.158	26.6
747.339	26.44
747.52	26.38
747.702	26.24
747.883	25.87
748.064	25.66
748.245	25.78
748.426	25.51
748.607	26.02
748.788	26.46
748.97	26.43
749.151	26.02
749.332	26.36
749.513	25.75
749.694	25.9
749.875	27.29
750.056	27.38
750.237	27.82
750.418	28.77
750.599	28.53
750.78	28.4
750.96	28.35
751.141	28.98
751.322	28.71
751.503	29.57
751.684	30.09
751.865	28.64
752.046	28.58
752.226	27.47
752.407	27.54
752.588	27.78
752.769	27.82
752.949	27.33
753.13	27.09
753.311	26.56
753.492	26.18
753.672	26.47
753.853	27.23
754.034	26.35
754.214	27.37
754.395	27.54
754.575	27.14
754.756	27.93
754.937	28.64
755.117	28.43
755.298	29
755.478	28.73
755.659	28.83
755.839	28.4
756.02	29.24
756.2	28.45
756.381	28.02
756.561	27.84
756.741	27.45
756.922	27.74
757.102	27.58
757.283	27.88
757.463	28.24
757.643	27.94
757.823	27.81
758.004	27.09
758.184	27.73
758.364	28.09
758.545	28.39
758.725	27.94
758.905	27.78
759.085	28.17
759.265	28.05
759.446	27.97
759.626	27.65
759.806	27.93
759.986	28.88
760.166	28.45
760.346	27.69
760.526	27.99
760.706	28.16
760.886	27.32
761.066	27.22
761.246	27.12
761.426	26.86
761.606	26.03
761.786	26.05
761.966	25.39
762.146	25.48
762.326	25.76
762.506	25.21
762.686	25
762.866	25.84
763.046	25.31
763.225	25.09
763.405	24.94
763.585	25.38
763.765	25.01
763.945	24.66
764.124	24.53
764.304	24.22
764.484	24.51
764.664	24.99
764.843	24.63
765.023	24.92
765.203	25.08
765.382	25.29
765.562	25.67
765.741	26.03
765.921	26.77
766.101	27.19
766.28	27.74
766.46	27.31
766.639	26.96
766.819	26.57
766.998	27.1
767.178	27.32
767.357	27.6
767.537	27.32
767.716	27.78
767.896	27.55
768.075	27.76
768.254	27.35
768.434	27.6
768.613	27.51
768.792	28.48
768.972	28.3
769.151	27.54
769.33	27.29
769.51	27.59
769.689	27.1
769.868	27.17
770.047	26.82
770.226	27.69
770.406	27.59
770.585	28.11
770.764	27.88
770.943	28.44
771.122	28.7
771.301	29.24
771.48	29.15
771.66	28.98
771.839	29.25
772.018	29.19
772.197	28.42
772.376	28.79
772.555	28.46
772.734	28.37
772.913	28.03
773.092	29.27
773.271	28.91
773.449	29.46
773.628	29.89
773.807	29.7
773.986	29.57
774.165	28.91
774.344	29.29
774.523	29.31
774.701	29.47
774.88	29.18
775.059	29.33
775.238	28.76
775.417	27.98
775.595	28.47
775.774	28.91
775.953	28.91
776.131	30.15
776.31	30.02
776.489	30.4
776.667	30.71
776.846	31.18
777.025	30
777.203	30.28
777.382	30.82
777.56	30.26
777.739	29.78
777.917	30.17
778.096	30.39
778.274	29.86
778.453	30.71
778.631	29.84
778.81	28.97
778.988	29.2
779.166	30.28
779.345	30.33
779.523	30.73
779.702	31.4
779.88	31.26
780.058	30.64
780.237	31.54
780.415	29.88
780.593	30.75
780.771	32.6
780.95	33.18
781.128	32.2
781.306	32.09
781.484	30.88
781.662	30.36
781.841	30.51
782.019	31.29
782.197	31.59
782.375	31.54
782.553	30.83
782.731	29.27
782.909	29.34
783.087	30.27
783.265	30.9
783.443	31.83
783.621	32.06
783.799	32.22
783.977	31.22
784.155	30.94
784.333	31.14
784.511	32.14
784.689	32.44
784.867	32.49
785.045	32.26
785.223	31.04
785.4	31.17
785.578	31.3
785.756	31.22
785.934	31.83
786.112	31.76
786.289	32.36
786.467	31.64
786.645	31.24
786.823	30.51
787	30.28
787.178	30.53
787.356	30.95
787.533	31.41
787.711	31.56
787.889	31.63
788.066	31.23
788.244	30.95
788.421	31.11
788.599	31.72
788.776	31.87
788.954	30.77
789.131	31.12
789.309	31.01
789.486	30.56
789.664	30.56
789.841	30.34
790.019	30.12
790.196	30.49
790.373	30.26
790.551	30.53
790.728	30.64
790.906	32.27
791.083	32.1
791.26	31.45
791.437	32.23
791.615	31.75
791.792	32.28
791.969	32.23
792.146	32.16
792.324	32.68
792.501	31.97
792.678	32.06
792.855	31.42
793.032	31.53
793.209	33.27
793.387	32.26
793.564	33.62
793.741	32.8
793.918	34.03
794.095	33.43
794.272	33.74
794.449	33.5
794.626	33.38
794.803	33.13
794.98	33.05
795.157	31.56
795.334	30.18
795.511	29.14
795.688	29.37
795.864	28.39
796.041	29.24
796.218	29.05
796.395	28.03
796.572	27.56
796.749	27.89
796.925	27.57
797.102	28.93
797.279	31.02
797.456	30.88
797.632	31.28
797.809	31.56
797.986	31.09
798.162	30.96
798.339	31.81
798.516	32.53
798.692	32.96
798.869	33.05
799.046	32.81
799.222	31.32
799.399	31.79
799.575	31.7
799.752	31.27
799.928	31.42
800.105	31.86
800.281	32.23
800.458	31.33
800.634	29.91
800.811	30.46
800.987	29.48
801.163	30.55
801.34	29.88
801.516	29.57
801.692	30.4
801.869	30.72
802.045	30.25
802.221	30.22
802.398	30.64
802.574	32.24
802.75	32.02
802.926	32.78
803.103	32.93
803.279	33.05
803.455	32.53
803.631	33.05
803.807	33.25
803.983	34.08
804.16	33.76
804.336	32.98
804.512	33.38
804.688	33.98
804.864	33.99
805.04	33.71
805.216	33.55
805.392	35.19
805.568	34.29
805.744	34.52
805.92	33.37
806.096	34.87
806.272	36.41
806.448	36.04
806.623	34.84
806.799	35.11
806.975	36.05
807.151	35.84
807.327	36.05
807.503	35.36
807.678	35.28
807.854	35.68
808.03	35.21
808.206	34.77
808.381	34.2
808.557	34.11
808.733	33.51
808.908	33.58
809.084	33.8
809.26	32.81
809.435	32.73
809.611	31.7
809.787	31.33
809.962	32.25
810.138	32.54
810.313	31.59
810.489	32.55
810.664	32.29
810.84	30.96
811.015	31.69
811.191	31.86
811.366	33.45
811.542	33.27
811.717	34
811.892	33.26
812.068	33.06
812.243	33.94
812.419	33.4
812.594	34.08
812.769	34.29
812.944	33.52
813.12	33.85
813.295	32.85
813.47	33.51
813.645	32.25
813.821	31.88
813.996	31.05
814.171	31.45
814.346	32.32
814.521	31.28
814.697	31.63
814.872	31.98
815.047	32.02
815.222	32.94
815.397	32.02
815.572	32.16
815.747	31.75
815.922	32.92
816.097	32.8
816.272	33.39
816.447	35.22
816.622	34.93
816.797	34.71
816.972	34.46
817.147	34.43
817.322	34.27
817.496	34.11
817.671	35.06
817.846	34.19
818.021	33.51
818.196	31.49
818.371	30.47
818.545	31.59
818.72	32.19
818.895	32.37
819.069	31.73
819.244	32.43
819.419	32.28
819.594	31.47
819.768	32
819.943	31.62
820.117	31.06
820.292	29.48
820.467	27.56
820.641	26.76
820.816	25.72
820.99	25.09
821.165	23.82
821.339	23.46
821.514	23.01
821.688	22.73
821.863	22.21
822.037	22.22
822.212	22.23
822.386	22.07
822.56	21.85
822.735	21.86
822.909	21.71
823.084	22.03
823.258	21.91
823.432	21.95
823.606	21.91
823.781	22.22
823.955	22.11
824.129	22.26
824.303	22.47
824.478	22.39
824.652	22.4
824.826	22.5
825	22.29
825.174	22.84
825.348	22.85
825.523	22.48
825.697	22.52
825.871	23.15
826.045	23.02
826.219	23.35
826.393	24.03
826.567	24.14
826.741	24.25
826.915	24.37
827.089	24.33
827.263	24.49
827.437	25.37
827.611	25.82
827.784	25.55
827.958	25.87
828.132	25.55
828.306	25.36
828.48	25.56
828.654	26.11
828.827	26.63
829.001	26.96
829.175	27.17
829.349	26.88
829.522	26.6
829.696	27.37
829.87	27.95
830.044	29.15
830.217	30.22
830.391	30.81
830.565	31.52
830.738	32.27
830.912	32.31
831.085	34.07
831.259	35.01
831.432	35.55
831.606	36.4
831.779	35.68
831.953	35.86
832.126	35.2
832.3	34.38
832.473	32.85
832.647	32.02
832.82	31.27
832.994	29.31
833.167	28.9
833.34	28.57
833.514	27.51
833.687	27.75
833.86	27.82
834.034	26.84
834.207	27.06
834.38	27
834.553	26.95
834.727	27.51
834.9	27.2
835.073	27.63
835.246	28.16
835.419	28.08
835.593	28.43
835.766	27.46
835.939	29.15
836.112	29.07
836.285	29.41
836.458	29.95
836.631	28.57
836.804	31.06
836.977	29.81
837.15	30.17
837.323	31.25
837.496	31.49
837.669	33.51
837.842	33.94
838.015	35.66
838.188	36.24
838.361	37.16
838.533	40
838.706	38.05
838.879	37.33
839.052	36.33
839.225	36.63
839.398	37.5
839.57	37.42
839.743	37.34
839.916	36.88
840.088	35.05
840.261	34.34
840.434	35.1
840.607	36.12
840.779	36.79
840.952	36.28
841.124	35.82
841.297	35.08
841.47	35.13
841.642	35.09
841.815	36.08
841.987	38.97
842.16	40.66
842.332	39.82
842.505	39.34
842.677	40.95
842.85	43.03
843.022	46.19
843.194	47.28
843.367	47.43
843.539	47.87
843.712	47.09
843.884	47.06
844.056	49.73
844.229	51.96
844.401	56.83
844.573	57.96
844.745	56.81
844.918	56.26
845.09	55.34
845.262	57.24
845.434	54.83
845.606	54.6
845.779	55.14
845.951	53.75
846.123	50.48
846.295	46.45
846.467	45.93
846.639	49.78
846.811	47.39
846.983	48.26
847.155	45.02
847.327	49.03
847.499	49.56
847.671	50.27
847.843	49.67
848.015	51.55
848.187	53.52
848.359	54.94
848.531	54.01
848.703	54.54
848.875	57.32
849.047	57.46
849.218	56.77
849.39	58.18
849.562	55.67
849.734	52.36
849.905	55.35
850.077	53.63
850.249	55.38
850.421	55.12
850.592	56.76
850.764	58.7
850.936	58.95
851.107	59.94
851.279	58.18
851.451	59.73
851.622	61.86
851.794	60.68
851.965	64.43
852.137	61.04
852.308	60.25
852.48	61.65
852.651	57.06
852.823	60.32
852.994	57.4
853.166	58.33
853.337	57.78
853.509	58.33
853.68	57.87
853.851	57.38
854.023	56.15
854.194	56.16
854.365	54.09
854.537	55.72
854.708	53.87
854.879	54.89
855.05	56.78
855.222	57.22
855.393	59.33
855.564	60.05
855.735	57.76
855.906	57.05
856.078	57.83
856.249	59.68
856.42	58.27
856.591	58.55
856.762	59.83
856.933	59.15
857.104	59.41
857.275	57.66
857.446	57.3
857.617	57.05
857.788	60.76
857.959	59.24
858.13	57.02
858.301	59.09
858.472	60.15
858.643	59.61
858.814	58.73
858.985	56.29
859.155	55.7
859.326	54.66
859.497	55.66
859.668	52.63
859.839	51.73
860.009	50.4
860.18	50.48
860.351	50.01
860.522	49.35
860.692	48.95
860.863	48.14
861.034	49.9
861.204	52.21
861.375	55.57
861.546	60.57
861.716	62.02
861.887	63.35
862.057	58.98
862.228	61.1
862.398	59.45
862.569	61.61
862.739	66.57
862.91	64.97
863.08	66.12
863.251	59.63
863.421	55.37
863.592	56.45
863.762	58.73
863.932	58.77
864.103	58.36
864.273	60.12
864.443	60.14
864.614	55.77
864.784	54.62
864.954	53.79
865.125	57.16
865.295	63.96
865.465	62.89
865.635	62.15
865.805	65.75
865.976	66.03
866.146	64.34
866.316	61.23
866.486	66.96
866.656	70.12
866.826	68.18
866.996	67.62
867.166	62.7
867.336	62.75
867.506	63.9
867.676	60.3
867.846	59.89
868.016	62.43
868.186	65.31
868.356	63.42
868.526	62.81
868.696	61.93
868.866	61.95
869.036	63.26
869.206	63
869.376	63.84
869.545	67.73
869.715	67.72
869.885	64.54
870.055	63.62
870.224	65.92
870.394	62.74
870.564	68.39
870.734	69.56
870.903	67.86
871.073	66.79
871.243	64.7
871.412	60.76
871.582	60.08
871.751	63.07
871.921	64.56
872.091	64.18
872.26	65.69
872.43	58.63
872.599	57.05
872.769	59.28
872.938	59.14
873.108	63.46
873.277	64.73
873.446	62.78
873.616	62.31
873.785	64.84
873.955	65.42
874.124	67.96
874.293	71.19
874.463	68.16
874.632	64.58
874.801	65.08
874.971	61.56
875.14	61.97
875.309	65.75
875.478	64.51
875.647	62.85
875.817	61.24
875.986	58.07
876.155	56.43
876.324	59.27
876.493	61.82
876.662	64.96
876.831	63.05
877	63.72
877.17	61.84
877.339	61.53
877.508	60.39
877.677	59.01
877.846	61.15
878.015	62.41
878.184	60.71
878.352	61.27
878.521	58.13
878.69	58.23
878.859	56.94
879.028	55.22
879.197	55.58
879.366	54.77
879.534	53.88
879.703	50.85
879.872	48.93
880.041	46.53
880.21	42.28
880.378	41.01
880.547	37.81
880.716	34.98
880.884	33.39
881.053	31.58
881.222	31.08
881.39	30.12
881.559	28.72
881.727	27.8
881.896	27.23
882.065	26.89
882.233	25.94
882.402	26.03
882.57	26.49
882.739	26.17
882.907	26.33
883.076	25.05
883.244	24.86
883.412	25.08
883.581	25.02
883.749	25.45
883.918	26.25
884.086	26.8
884.254	26.44
884.423	27.74
884.591	28.49
884.759	28.7
884.927	29.62
885.096	30.8
885.264	32.72
885.432	33.42
885.6	34.27
885.769	33.96
885.937	35.54
886.105	40.05
886.273	40.35
886.441	40.42
886.609	43.2
886.777	45.29
886.945	47.76
887.113	47.46
887.281	51.04
887.449	51.79
887.617	54.8
887.785	53.56
887.953	55.5
888.121	54.86
888.289	56.24
888.457	56.42
888.625	59.36
888.793	59.78
888.961	58.24
889.129	60.66
889.296	63.86
889.464	63.71
889.632	67.38
889.8	65.01
889.967	66.39
890.135	71.12
