Data from 2938762__Reflection_02.txt Node
Date: Fri Mar 13 16:52:49 EDT 2015
User: robert
Spectrometer: USB4E03002
Autoset integration time: false
Trigger mode: 4
Integration Time (sec): 1.000000E-1
Scans to average: 10
Electric dark correction enabled: false
Nonlinearity correction enabled: false
Boxcar width: 5
Stray light correction enabled: false
XAxis mode: Wavelengths
Stop averaging: false
Number of Pixels in Spectrum: 3648
>>>>>Begin Spectral Data<<<<<
177.575	-1260.42
177.794	-6346.15
178.014	-1115.38
178.233	-609.74
178.452	-439.91
178.672	-328.06
178.891	-169.41
179.11	-108.7
179.33	-127.19
179.549	-311.56
179.768	-239.46
179.987	-309.54
180.207	-241.49
180.426	-303.54
180.645	-1131.11
180.864	-5038.1
181.084	1450.56
181.303	1382.76
181.522	520.8
181.741	845.89
181.96	1201.06
182.179	574.78
182.398	490.91
182.618	402.92
182.837	260.55
183.056	313.09
183.275	325.62
183.494	239.5
183.713	246.83
183.932	211.78
184.151	200.43
184.37	199.45
184.589	149.9
184.808	171.41
185.027	167.62
185.246	145.78
185.465	132.16
185.684	173.03
185.903	216.17
186.122	255.23
186.341	414.22
186.56	1751.06
186.779	725.23
186.998	-381.05
187.216	-1183.33
187.435	639.68
187.654	-5820
187.873	-706
188.092	15816.67
188.311	1034.31
188.53	343.67
188.748	332.68
188.967	290.96
189.186	287.13
189.405	237.27
189.623	278.57
189.842	363.22
190.061	516.99
190.28	313.75
190.498	435.45
190.717	369.42
190.936	462.16
191.154	448.47
191.373	473.01
191.592	442.8
191.81	445.38
192.029	703.33
192.248	1114.53
192.466	419.44
192.685	338.87
192.904	397.05
193.122	406.99
193.341	602.8
193.559	1184.54
193.778	1592.86
193.996	4107.41
194.215	-2719.51
194.433	4037.93
194.652	-1459.15
194.87	-532.07
195.089	-5963.16
195.307	2233.93
195.526	-7252.94
195.744	1331.68
195.963	682.3
196.181	493.81
196.399	432.66
196.618	382.91
196.836	382.09
197.055	303.45
197.273	254.92
197.491	303
197.71	229.36
197.928	184.91
198.146	202.8
198.365	181.46
198.583	196.87
198.801	179.3
199.019	181.12
199.238	193.81
199.456	171.88
199.674	190.23
199.892	199.75
200.111	230.51
200.329	245.83
200.547	271.72
200.765	396.22
200.983	429.57
201.202	418.68
201.42	371.43
201.638	283.74
201.856	399.32
202.074	275.06
202.292	347.56
202.51	271.4
202.728	348.37
202.946	238.19
203.165	185.8
203.383	190.62
203.601	188.61
203.819	286.25
204.037	306.53
204.255	315.53
204.473	379.03
204.691	264.63
204.909	214.83
205.127	174.85
205.345	194.84
205.562	225.46
205.78	190.67
205.998	231.13
206.216	265.4
206.434	227.58
206.652	198.76
206.87	346.46
207.088	338.2
207.306	1228.57
207.523	734.78
207.741	735.61
207.959	612.57
208.177	800
208.395	300
208.612	164.6
208.83	186.09
209.048	235.32
209.266	199.67
209.483	196.15
209.701	188.61
209.919	197.07
210.136	163.99
210.354	173.07
210.572	186.05
210.79	204.9
211.007	206.19
211.225	205.52
211.442	212.24
211.66	207.15
211.878	159.17
212.095	177.63
212.313	165.17
212.53	180.72
212.748	153.27
212.966	169.78
213.183	199.47
213.401	241.64
213.618	184.64
213.836	147.06
214.053	142.49
214.271	220.89
214.488	264.24
214.705	332.08
214.923	327.23
215.14	398.63
215.358	375
215.575	238.06
215.793	190.86
216.01	257.32
216.227	293.14
216.445	233.33
216.662	166.12
216.879	130.5
217.097	105.89
217.314	97.87
217.531	101.4
217.749	92.9
217.966	91.24
218.183	90.86
218.4	79.26
218.618	81.46
218.835	87.55
219.052	103.15
219.269	95.72
219.487	100.27
219.704	104.54
219.921	95.2
220.138	91.97
220.355	79.73
220.572	83.49
220.79	84.91
221.007	87.22
221.224	86.39
221.441	77.01
221.658	81.78
221.875	96.67
222.092	98.23
222.309	103.19
222.526	105.82
222.743	111.27
222.96	105.67
223.177	98.47
223.394	87.49
223.611	79.3
223.828	78.63
224.045	74.62
224.262	64.09
224.479	56.72
224.696	53.55
224.913	46.68
225.13	45.14
225.347	42.54
225.564	41.81
225.781	38.04
225.997	36.18
226.214	35.15
226.431	33.19
226.648	26.97
226.865	23.75
227.082	21.52
227.298	19.81
227.515	17.36
227.732	15.59
227.949	13.25
228.165	12.93
228.382	11.93
228.599	10.84
228.816	10.51
229.032	11.23
229.249	10.67
229.466	10.43
229.682	10.85
229.899	11.49
230.116	10.34
230.332	11.77
230.549	11.75
230.765	11.93
230.982	11.68
231.199	12.08
231.415	12.19
231.632	13.25
231.848	12.84
232.065	13.05
232.281	14.18
232.498	16
232.714	14.93
232.931	14.94
233.147	16.27
233.364	17.08
233.58	17.91
233.797	17.28
234.013	18.3
234.23	18.12
234.446	17.6
234.662	17.25
234.879	16.34
235.095	16.68
235.312	16.34
235.528	15.12
235.744	13.48
235.961	12.83
236.177	12.33
236.393	11.55
236.61	11.54
236.826	12.64
237.042	12.12
237.258	12.27
237.475	13.37
237.691	15
237.907	13.78
238.123	15.39
238.339	13.58
238.556	13.53
238.772	14.19
238.988	12.98
239.204	12.51
239.42	11.25
239.636	10.96
239.853	9.2
240.069	7.64
240.285	7.87
240.501	7.82
240.717	8.01
240.933	7.49
241.149	6.41
241.365	6.56
241.581	5.58
241.797	5.61
242.013	5.8
242.229	5.55
242.445	5.81
242.661	6.18
242.877	5.8
243.093	5.38
243.309	5.55
243.525	5.78
243.741	6.78
243.957	7.81
244.173	7.94
244.388	7.62
244.604	8.3
244.82	8.39
245.036	8.77
245.252	8.68
245.468	8.78
245.683	8.81
245.899	8.42
246.115	7.54
246.331	6.81
246.547	6.65
246.762	6.73
246.978	6.72
247.194	6.57
247.409	6.5
247.625	6.46
247.841	6.64
248.057	6.4
248.272	6.23
248.488	6.17
248.703	6.27
248.919	6.23
249.135	5.98
249.35	5.59
249.566	5.88
249.782	5.53
249.997	5.49
250.213	6.12
250.428	6.94
250.644	8.14
250.859	8.52
251.075	8.41
251.29	8.46
251.506	8.64
251.721	8.51
251.937	8.21
252.152	7.93
252.368	8.05
252.583	7.51
252.798	7.53
253.014	7.04
253.229	7.63
253.445	8.35
253.66	9.08
253.875	9.33
254.091	10.07
254.306	10.81
254.521	11.61
254.737	11.64
254.952	10.42
255.167	10.65
255.383	10.32
255.598	9.68
255.813	9.01
256.028	9.35
256.244	8.69
256.459	8.19
256.674	6.86
256.889	6.77
257.104	7.09
257.32	7.55
257.535	6.34
257.75	6.04
257.965	5.41
258.18	5.32
258.395	4.77
258.61	4.58
258.826	4.57
259.041	4.41
259.256	4.28
259.471	3.96
259.686	4.07
259.901	4.18
260.116	4.22
260.331	4.09
260.546	3.94
260.761	3.6
260.976	3.65
261.191	3.66
261.406	4.15
261.621	4.28
261.836	4.97
262.05	4.83
262.265	4.81
262.48	5.27
262.695	5.84
262.91	6.41
263.125	6.91
263.34	7.59
263.555	7.49
263.769	7.86
263.984	7.42
264.199	6.44
264.414	7.32
264.629	7.63
264.843	7.22
265.058	7.42
265.273	6.79
265.488	6.63
265.702	6.45
265.917	6.66
266.132	6.42
266.346	6.94
266.561	7.15
266.776	6.77
266.99	6.3
267.205	5.95
267.42	5.52
267.634	5.98
267.849	6.5
268.063	6.7
268.278	6.46
268.492	6.18
268.707	5.63
268.922	5.35
269.136	5.5
269.351	5.83
269.565	5.92
269.78	5.95
269.994	5.66
270.209	5.63
270.423	5.24
270.637	5.29
270.852	5.48
271.066	5.41
271.281	5.41
271.495	4.99
271.709	4.76
271.924	4.76
272.138	4.83
272.353	4.65
272.567	4.34
272.781	4.53
272.996	4.26
273.21	4.14
273.424	4.04
273.638	4
273.853	4.06
274.067	4.4
274.281	4.78
274.495	4.72
274.71	4.44
274.924	4.09
275.138	4.13
275.352	4.32
275.566	3.84
275.781	3.88
275.995	4.08
276.209	4.22
276.423	4.11
276.637	3.95
276.851	4.25
277.065	4.48
277.279	4.88
277.493	4.19
277.707	4.08
277.921	4.15
278.135	4.39
278.349	4.27
278.563	4.55
278.777	4.87
278.991	4.9
279.205	4.91
279.419	4.92
279.633	5.07
279.847	5.35
280.061	5.84
280.275	6.1
280.489	5.96
280.703	6.18
280.917	5.91
281.131	5.29
281.344	5.01
281.558	4.92
281.772	4.98
281.986	4.9
282.2	5.01
282.414	4.62
282.627	4.69
282.841	4.93
283.055	4.54
283.269	4.28
283.482	4.37
283.696	4.48
283.91	4.19
284.123	3.98
284.337	3.74
284.551	3.71
284.764	3.82
284.978	3.62
285.192	3.4
285.405	3.71
285.619	3.61
285.833	3.52
286.046	3.51
286.26	3.39
286.473	3.47
286.687	3.49
286.9	3.48
287.114	3.54
287.327	3.62
287.541	3.54
287.754	3.3
287.968	3.56
288.181	4.14
288.395	3.86
288.608	4.01
288.822	4.06
289.035	4.14
289.248	4.15
289.462	4.1
289.675	4.02
289.889	4.32
290.102	3.99
290.315	3.9
290.529	3.5
290.742	3.87
290.955	4.15
291.169	4.1
291.382	3.94
291.595	3.82
291.808	3.85
292.022	3.85
292.235	3.53
292.448	4.25
292.661	4.33
292.875	4.66
293.088	4.42
293.301	4.36
293.514	4.49
293.727	4.59
293.94	4.62
294.153	4.64
294.367	4.4
294.58	4.58
294.793	4.3
295.006	4.03
295.219	3.63
295.432	3.79
295.645	3.49
295.858	3.57
296.071	3.31
296.284	3.28
296.497	3.32
296.71	3.36
296.923	3.4
297.136	3.57
297.349	3.82
297.562	3.9
297.775	3.87
297.988	3.95
298.201	3.97
298.414	4.4
298.626	4.22
298.839	4.18
299.052	4.15
299.265	4.14
299.478	3.97
299.691	3.95
299.903	3.95
300.116	3.66
300.329	3.87
300.542	3.64
300.755	3.45
300.967	3.75
301.18	3.46
301.393	4.05
301.605	3.85
301.818	3.6
302.031	3.25
302.243	3.56
302.456	3.92
302.669	3.63
302.881	3.92
303.094	3.98
303.307	4.29
303.519	4.22
303.732	4.2
303.944	4.31
304.157	4.82
304.37	5.19
304.582	5.13
304.795	4.97
305.007	5.32
305.22	5.48
305.432	5.32
305.645	5.49
305.857	5.99
306.069	6.1
306.282	6.12
306.494	5.82
306.707	5.93
306.919	5.74
307.132	5.86
307.344	5.73
307.556	5.57
307.769	6.11
307.981	5.61
308.193	5.26
308.406	4.89
308.618	4.92
308.83	4.83
309.043	4.49
309.255	4.48
309.467	4.38
309.679	4.31
309.892	4.25
310.104	3.86
310.316	4.08
310.528	4.29
310.74	4.34
310.953	4.33
311.165	4.41
311.377	4.66
311.589	4.58
311.801	4.52
312.013	4.55
312.225	4.75
312.437	5.13
312.649	5.06
312.862	4.88
313.074	4.6
313.286	4.86
313.498	5.02
313.71	5.1
313.922	5.45
314.134	5.59
314.346	5.69
314.558	5.32
314.77	5.32
314.982	5.03
315.193	5.03
315.405	5.07
315.617	4.74
315.829	4.84
316.041	5.17
316.253	4.66
316.465	4.74
316.677	5.07
316.888	5.35
317.1	5.34
317.312	5.64
317.524	5.79
317.736	5.68
317.947	6.12
318.159	6.3
318.371	5.85
318.583	6.22
318.794	6.44
319.006	6.43
319.218	6.36
319.43	5.93
319.641	6.39
319.853	6.8
320.064	7.42
320.276	7.54
320.488	7.15
320.699	7.52
320.911	7.82
321.123	7.79
321.334	7.57
321.546	7.91
321.757	9.05
321.969	9.12
322.18	9.36
322.392	9.28
322.603	9.14
322.815	9.82
323.026	9.1
323.238	8.81
323.449	9.13
323.661	9.26
323.872	9.33
324.083	8.9
324.295	8.94
324.506	9.02
324.718	9.21
324.929	9.74
325.14	9.65
325.352	10.19
325.563	10.65
325.774	10.58
325.986	10.97
326.197	11.29
326.408	11.54
326.62	11.87
326.831	12.11
327.042	12.72
327.253	12.57
327.464	12.92
327.676	13.42
327.887	13.9
328.098	14.45
328.309	14.91
328.52	15.22
328.732	15.44
328.943	15.83
329.154	15.79
329.365	15.98
329.576	16.84
329.787	17.21
329.998	17.87
330.209	18.13
330.42	18.66
330.631	18.76
330.842	18.91
331.053	19.52
331.264	19.79
331.475	20.37
331.686	20.82
331.897	21.11
332.108	21.56
332.319	21.49
332.53	21.86
332.741	22.15
332.952	22.36
333.163	22.52
333.374	22.68
333.585	23.1
333.795	23.73
334.006	24.05
334.217	24.12
334.428	24.27
334.639	24.5
334.849	24.51
335.06	24.32
335.271	24.83
335.482	25.26
335.692	25.49
335.903	25.43
336.114	25.31
336.325	25.4
336.535	25.37
336.746	25.58
336.957	25.8
337.167	25.76
337.378	26.33
337.589	26.24
337.799	26.29
338.01	26.7
338.22	26.7
338.431	26.58
338.642	26.54
338.852	26.7
339.063	26.59
339.273	27.01
339.484	27.16
339.694	27.19
339.905	27.39
340.115	27.42
340.326	26.95
340.536	26.99
340.746	27.1
340.957	27.16
341.167	27.36
341.378	27.39
341.588	27.22
341.799	27.37
342.009	27.1
342.219	27.13
342.43	27.35
342.64	27.73
342.85	27.61
343.061	27.88
343.271	27.82
343.481	27.62
343.691	27.78
343.902	27.75
344.112	27.8
344.322	27.96
344.532	27.68
344.743	27.51
344.953	27.4
345.163	27.42
345.373	27.43
345.583	27.71
345.793	27.77
346.004	27.57
346.214	27.43
346.424	27.2
346.634	27.15
346.844	27.37
347.054	27.41
347.264	27.31
347.474	27.37
347.684	27.19
347.894	27.07
348.104	27.2
348.314	27.26
348.524	27.2
348.734	27.29
348.944	27.29
349.154	27.24
349.364	27.06
349.574	27.16
349.784	27.23
349.994	27.01
350.204	26.88
350.413	26.68
350.623	26.6
350.833	26.85
351.043	27.05
351.253	26.92
351.463	26.91
351.672	26.91
351.882	26.77
352.092	26.81
352.302	27.08
352.511	27.14
352.721	27.39
352.931	27.39
353.141	27.38
353.35	27.17
353.56	27.24
353.77	27.17
353.979	27.24
354.189	27.21
354.399	27.26
354.608	27.14
354.818	26.9
355.027	26.65
355.237	26.72
355.447	26.41
355.656	26.37
355.866	26.24
356.075	26.03
356.285	26.01
356.494	25.76
356.704	25.74
356.913	25.71
357.123	25.81
357.332	25.67
357.542	25.59
357.751	25.69
357.96	25.61
358.17	25.64
358.379	25.91
358.589	25.87
358.798	25.99
359.007	25.78
359.217	25.74
359.426	25.5
359.635	25.56
359.845	25.4
360.054	25.36
360.263	25.28
360.472	25.23
360.682	25.16
360.891	25.11
361.1	25.21
361.309	25.24
361.519	25.27
361.728	25.25
361.937	25.14
362.146	25.11
362.355	25.06
362.564	25.13
362.774	25.22
362.983	25.09
363.192	25
363.401	25.02
363.61	24.98
363.819	25.05
364.028	25.02
364.237	25.2
364.446	25.47
364.655	25.33
364.864	25.34
365.073	25.28
365.282	25.28
365.491	25.32
365.7	25.29
365.909	25.37
366.118	25.31
366.327	25.44
366.536	25.45
366.745	25.38
366.954	25.48
367.162	25.5
367.371	25.31
367.58	25.38
367.789	25.26
367.998	25.14
368.207	25.17
368.415	25.05
368.624	25.14
368.833	24.93
369.042	24.57
369.25	24.71
369.459	24.78
369.668	24.84
369.877	24.64
370.085	24.63
370.294	24.77
370.503	24.73
370.711	24.53
370.92	24.37
371.129	24.46
371.337	24.77
371.546	24.7
371.754	24.57
371.963	24.47
372.171	24.61
372.38	24.67
372.589	24.64
372.797	24.73
373.006	25.05
373.214	25.22
373.423	25.31
373.631	25.15
373.84	25.01
374.048	25.18
374.256	25.37
374.465	25.2
374.673	25.29
374.882	25.17
375.09	25.08
375.298	24.84
375.507	24.96
375.715	24.99
375.923	25.22
376.132	25.32
376.34	25.09
376.548	25.1
376.757	25
376.965	25.13
377.173	25.06
377.381	25.13
377.59	25.38
377.798	25.35
378.006	25.18
378.214	24.87
378.423	24.77
378.631	24.65
378.839	24.4
379.047	24.68
379.255	24.65
379.463	24.62
379.671	24.45
379.879	24.26
380.088	24.03
380.296	24.04
380.504	24.15
380.712	24.27
380.92	24.58
381.128	24.83
381.336	24.73
381.544	24.62
381.752	24.58
381.96	24.81
382.168	24.96
382.376	25.01
382.584	25.12
382.791	25.11
382.999	25.09
383.207	25.12
383.415	25.08
383.623	25.04
383.831	25.02
384.039	25.2
384.247	25.07
384.454	25.18
384.662	25.05
384.87	24.81
385.078	24.75
385.285	24.51
385.493	24.31
385.701	24.25
385.909	24.21
386.116	24.2
386.324	23.93
386.532	23.81
386.739	23.64
386.947	23.84
387.155	23.91
387.362	23.96
387.57	23.98
387.778	23.99
387.985	23.82
388.193	23.93
388.4	23.99
388.608	24.05
388.816	23.99
389.023	23.96
389.231	23.98
389.438	24.07
389.646	24.05
389.853	24.11
390.061	24.15
390.268	24.28
390.475	24.49
390.683	24.48
390.89	24.59
391.098	24.72
391.305	24.53
391.512	24.4
391.72	24.38
391.927	24.29
392.135	24.3
392.342	24.17
392.549	24.28
392.756	24.01
392.964	24.04
393.171	23.97
393.378	23.82
393.586	23.84
393.793	23.72
394	23.82
394.207	23.93
394.414	24.01
394.622	24.03
394.829	24.05
395.036	24.18
395.243	23.94
395.45	23.89
395.657	23.98
395.864	24.05
396.072	24.26
396.279	24.09
396.486	24.19
396.693	24.14
396.9	24.43
397.107	24.35
397.314	24.37
397.521	24.41
397.728	24.68
397.935	24.78
398.142	25
398.349	25.07
398.556	25.1
398.763	25.08
398.97	25.03
399.177	25.08
399.383	25.01
399.59	24.95
399.797	24.93
400.004	24.81
400.211	24.76
400.418	24.64
400.625	24.52
400.831	24.7
401.038	24.61
401.245	24.75
401.452	24.6
401.658	24.63
401.865	24.76
402.072	24.88
402.279	25.01
402.485	24.89
402.692	24.93
402.899	25
403.105	24.84
403.312	24.93
403.519	24.89
403.725	24.79
403.932	24.77
404.138	24.62
404.345	24.65
404.552	24.48
404.758	24.63
404.965	24.66
405.171	24.46
405.378	24.38
405.584	24.4
405.791	24.41
405.997	24.41
406.204	24.48
406.41	24.63
406.617	24.73
406.823	24.9
407.029	24.86
407.236	24.89
407.442	25.01
407.649	25.26
407.855	25.15
408.061	25.28
408.268	25.43
408.474	25.38
408.68	25.28
408.887	25.36
409.093	25.27
409.299	25.45
409.505	25.47
409.712	25.6
409.918	25.44
410.124	25.55
410.33	25.46
410.537	25.4
410.743	25.57
410.949	25.65
411.155	25.59
411.361	25.65
411.567	25.36
411.773	25.36
411.98	25.34
412.186	25.47
412.392	25.5
412.598	25.37
412.804	25.39
413.01	25.23
413.216	25.29
413.422	25.32
413.628	25.39
413.834	25.74
414.04	25.59
414.246	25.67
414.452	25.73
414.658	25.61
414.864	25.83
415.07	25.97
415.275	26.14
415.481	26.21
415.687	26.21
415.893	26.14
416.099	26.08
416.305	26.06
416.511	26.01
416.716	25.98
416.922	26.04
417.128	25.94
417.334	25.79
417.539	25.68
417.745	25.6
417.951	25.51
418.157	25.38
418.362	25.23
418.568	25.28
418.774	25.27
418.979	25.22
419.185	25.16
419.391	25.13
419.596	25.11
419.802	25.13
420.008	25.06
420.213	25.69
420.419	25.78
420.624	25.85
420.83	25.83
421.035	25.83
421.241	25.85
421.446	25.94
421.652	25.96
421.857	25.97
422.063	25.92
422.268	25.91
422.474	25.38
422.679	25.37
422.885	25.39
423.09	25.34
423.295	25.33
423.501	25.28
423.706	25.27
423.911	25.31
424.117	25.35
424.322	25.39
424.527	25.42
424.733	25.33
424.938	25.28
425.143	25.21
425.349	25.29
425.554	25.25
425.759	25.26
425.964	25.2
426.169	25.25
426.375	25.21
426.58	25.19
426.785	25.23
426.99	25.37
427.195	25.45
427.4	25.56
427.605	25.52
427.811	25.6
428.016	25.64
428.221	25.72
428.426	25.58
428.631	25.61
428.836	25.58
429.041	25.61
429.246	25.64
429.451	25.68
429.656	25.59
429.861	25.6
430.066	25.59
430.271	25.65
430.476	25.66
430.681	25.69
430.886	25.78
431.09	25.93
431.295	25.98
431.5	25.86
431.705	25.89
431.91	26
432.115	25.99
432.32	25.95
432.524	25.96
432.729	25.88
432.934	25.92
433.139	25.98
433.343	25.94
433.548	25.87
433.753	25.96
433.958	26.03
434.162	26
434.367	26.08
434.572	26.23
434.776	26.28
434.981	26.34
435.186	26.42
435.39	26.41
435.595	26.37
435.799	26.28
436.004	26.17
436.209	26.11
436.413	26.14
436.618	26.1
436.822	25.94
437.027	25.91
437.231	25.9
437.436	25.82
437.64	25.73
437.845	25.8
438.049	25.95
438.253	26.04
438.458	26.01
438.662	25.92
438.867	25.95
439.071	26.04
439.275	26.02
439.48	26.13
439.684	26.15
439.888	26.17
440.093	26.13
440.297	26.12
440.501	26.19
440.706	26.11
440.91	26.12
441.114	26.13
441.318	26.04
441.523	26.06
441.727	25.97
441.931	26.05
442.135	26.14
442.339	26.17
442.543	26.12
442.748	26.12
442.952	26.21
443.156	26.31
443.36	26.31
443.564	26.42
443.768	26.42
443.972	26.54
444.176	26.54
444.38	26.48
444.584	26.5
444.788	26.52
444.992	26.54
445.196	26.53
445.4	26.5
445.604	26.45
445.808	26.48
446.012	26.44
446.216	26.38
446.42	26.33
446.624	26.38
446.828	26.41
447.032	26.44
447.235	26.38
447.439	26.45
447.643	26.44
447.847	26.55
448.051	26.5
448.254	26.56
448.458	26.57
448.662	26.62
448.866	26.61
449.069	26.64
449.273	26.64
449.477	26.67
449.681	26.66
449.884	26.7
450.088	26.66
450.292	26.64
450.495	26.59
450.699	26.63
450.902	26.74
451.106	26.75
451.31	26.7
451.513	26.76
451.717	26.81
451.92	26.72
452.124	26.67
452.327	26.67
452.531	26.74
452.734	26.84
452.938	26.78
453.141	26.72
453.345	26.67
453.548	26.68
453.752	26.66
453.955	26.67
454.158	26.87
454.362	26.86
454.565	26.78
454.769	26.83
454.972	26.84
455.175	26.87
455.379	26.81
455.582	26.86
455.785	26.92
455.988	26.97
456.192	26.93
456.395	26.82
456.598	26.91
456.801	26.98
457.005	26.98
457.208	27.03
457.411	27.06
457.614	27.01
457.817	26.96
458.021	26.97
458.224	26.88
458.427	26.84
458.63	26.82
458.833	26.76
459.036	26.78
459.239	26.78
459.442	26.63
459.645	26.66
459.848	26.69
460.051	26.63
460.254	26.5
460.457	26.45
460.66	26.48
460.863	26.57
461.066	26.6
461.269	26.6
461.472	26.59
461.675	26.73
461.878	26.67
462.081	26.67
462.284	26.82
462.486	26.91
462.689	27.06
462.892	27.07
463.095	26.99
463.298	26.98
463.5	26.99
463.703	27.06
463.906	26.96
464.109	27.01
464.311	27.09
464.514	26.97
464.717	27.02
464.92	26.96
465.122	27
465.325	26.95
465.528	27.07
465.73	27.13
465.933	27
466.135	26.99
466.338	27.05
466.541	27.05
466.743	27.12
466.946	27.2
467.148	27.33
467.351	27.32
467.553	27.38
467.756	27.25
467.958	27.22
468.161	27.22
468.363	27.31
468.566	27.2
468.768	27.21
468.971	27.22
469.173	27.22
469.375	27.08
469.578	27.07
469.78	27.06
469.983	27.14
470.185	27.22
470.387	27.23
470.59	27.25
470.792	27.27
470.994	27.29
471.196	27.28
471.399	27.2
471.601	27.15
471.803	27.22
472.005	27.18
472.208	27.14
472.41	27.09
472.612	27.14
472.814	27.09
473.016	27.01
473.218	26.93
473.421	26.89
473.623	26.94
473.825	26.97
474.027	26.95
474.229	26.99
474.431	27.02
474.633	27.05
474.835	27.11
475.037	27.13
475.239	27.3
475.441	27.37
475.643	27.53
475.845	27.46
476.047	27.49
476.249	27.54
476.451	27.58
476.653	27.58
476.855	27.55
477.057	27.53
477.258	27.51
477.46	27.48
477.662	27.51
477.864	27.36
478.066	27.31
478.268	27.37
478.469	27.28
478.671	27.29
478.873	27.26
479.075	27.24
479.276	27.14
479.478	27.16
479.68	27.17
479.882	27.08
480.083	27.18
480.285	27.22
480.487	27.15
480.688	27.16
480.89	27.15
481.091	27.19
481.293	27.11
481.495	27.14
481.696	27.09
481.898	27.06
482.099	26.95
482.301	26.92
482.502	26.86
482.704	26.83
482.905	26.78
483.107	26.74
483.308	26.71
483.51	26.7
483.711	26.69
483.913	26.69
484.114	26.66
484.315	26.66
484.517	26.62
484.718	26.63
484.92	26.63
485.121	26.62
485.322	26.63
485.524	26.61
485.725	26.64
485.926	26.62
486.127	26.65
486.329	26.66
486.53	26.69
486.731	26.71
486.932	26.71
487.134	26.72
487.335	26.75
487.536	26.72
487.737	26.71
487.938	26.71
488.139	26.73
488.341	26.68
488.542	26.69
488.743	26.72
488.944	26.74
489.145	26.74
489.346	26.74
489.547	26.72
489.748	26.8
489.949	26.82
490.15	26.82
490.351	26.82
490.552	26.82
490.753	26.88
490.954	26.86
491.155	26.87
491.356	26.93
491.557	26.91
491.758	26.98
491.959	26.96
492.159	26.98
492.36	27
492.561	27.08
492.762	27.15
492.963	27.14
493.164	27.11
493.364	27.14
493.565	27.12
493.766	27.22
493.967	27.22
494.167	27.2
494.368	27.21
494.569	27.24
494.769	27.2
494.97	27.22
495.171	27.22
495.371	27.42
495.572	27.43
495.773	27.51
495.973	27.5
496.174	27.44
496.375	27.49
496.575	27.48
496.776	27.5
496.976	27.52
497.177	27.53
497.377	27.59
497.578	27.51
497.778	27.49
497.979	27.41
498.179	27.42
498.38	27.55
498.58	27.65
498.78	27.77
498.981	27.78
499.181	27.7
499.382	27.77
499.582	27.81
499.782	27.86
499.983	27.89
500.183	27.89
500.383	27.94
500.584	27.85
500.784	27.81
500.984	27.75
501.184	27.76
501.385	27.8
501.585	27.7
501.785	27.62
501.985	27.62
502.185	27.63
502.386	27.77
502.586	27.77
502.786	27.85
502.986	27.89
503.186	27.93
503.386	27.94
503.586	27.98
503.786	28.04
503.987	28.05
504.187	28.16
504.387	28.19
504.587	28.09
504.787	28.07
504.987	28.06
505.187	28.04
505.387	28.07
505.587	28.12
505.786	28.14
505.986	28.27
506.186	28.35
506.386	28.19
506.586	28.23
506.786	28.3
506.986	28.33
507.186	28.35
507.386	28.4
507.585	28.38
507.785	28.34
507.985	28.34
508.185	28.25
508.384	28.3
508.584	28.38
508.784	28.31
508.984	28.31
509.183	28.34
509.383	28.36
509.583	28.35
509.782	28.39
509.982	28.39
510.182	28.36
510.381	28.4
510.581	28.31
510.781	28.31
510.98	28.39
511.18	28.5
511.379	28.41
511.579	28.37
511.778	28.38
511.978	28.31
512.177	28.34
512.377	28.47
512.576	28.36
512.776	28.51
512.975	28.47
513.175	28.46
513.374	28.43
513.573	28.5
513.773	28.56
513.972	28.55
514.172	28.57
514.371	28.62
514.57	28.61
514.77	28.63
514.969	28.53
515.168	28.63
515.367	28.61
515.567	28.51
515.766	28.53
515.965	28.59
516.164	28.51
516.364	28.53
516.563	28.58
516.762	28.5
516.961	28.52
517.16	28.54
517.359	28.48
517.559	28.56
517.758	28.61
517.957	28.58
518.156	28.55
518.355	28.59
518.554	28.63
518.753	28.63
518.952	28.68
519.151	28.75
519.35	28.75
519.549	28.78
519.748	28.7
519.947	28.75
520.146	28.79
520.345	28.71
520.544	28.75
520.743	28.77
520.942	28.73
521.141	28.72
521.339	28.76
521.538	28.81
521.737	28.9
521.936	29.08
522.135	29.06
522.333	29.15
522.532	29.28
522.731	29.26
522.93	29.28
523.129	29.27
523.327	29.25
523.526	29.19
523.725	29.17
523.923	29.13
524.122	29.09
524.321	29.06
524.519	28.99
524.718	28.98
524.917	29.06
525.115	29.04
525.314	29.09
525.512	29.16
525.711	29.18
525.909	29.2
526.108	29.1
526.306	29.02
526.505	29.06
526.703	29.04
526.902	29
527.1	28.9
527.299	28.86
527.497	28.83
527.696	28.81
527.894	28.79
528.092	28.72
528.291	28.75
528.489	28.79
528.688	28.78
528.886	28.78
529.084	28.78
529.283	28.79
529.481	28.78
529.679	28.77
529.877	28.76
530.076	28.79
530.274	28.85
530.472	28.88
530.67	28.88
530.869	28.93
531.067	28.99
531.265	28.99
531.463	29.09
531.661	29.14
531.859	29.17
532.057	29.22
532.255	29.18
532.454	29.19
532.652	29.17
532.85	29.18
533.048	29.15
533.246	29.16
533.444	29.18
533.642	29.13
533.84	29.12
534.038	29.13
534.236	29.15
534.434	29.2
534.632	29.26
534.83	29.3
535.027	29.36
535.225	29.39
535.423	29.39
535.621	29.49
535.819	29.6
536.017	29.7
536.215	29.7
536.412	29.7
536.61	29.7
536.808	29.68
537.006	29.68
537.203	29.74
537.401	29.81
537.599	29.88
537.797	29.92
537.994	29.99
538.192	30
538.39	30.11
538.587	30.1
538.785	30.17
538.983	30.2
539.18	30.33
539.378	30.33
539.575	30.31
539.773	30.36
539.97	30.36
540.168	30.41
540.366	30.43
540.563	30.48
540.761	30.5
540.958	30.49
541.155	30.56
541.353	30.54
541.55	30.53
541.748	30.54
541.945	30.54
542.143	30.51
542.34	30.47
542.537	30.49
542.735	30.51
542.932	30.65
543.129	30.72
543.327	30.76
543.524	30.85
543.721	30.95
543.919	31.07
544.116	31.2
544.313	31.39
544.51	31.51
544.708	31.67
544.905	31.78
545.102	31.85
545.299	32
545.496	32.13
545.693	32.18
545.891	32.18
546.088	32.22
546.285	32.16
546.482	32.19
546.679	32.27
546.876	32.2
547.073	32.13
547.27	32.06
547.467	31.91
547.664	31.81
547.861	31.74
548.058	31.73
548.255	31.68
548.452	31.73
548.649	31.7
548.846	31.6
549.043	31.49
549.24	31.56
549.437	31.65
549.633	31.69
549.83	31.64
550.027	31.63
550.224	31.67
550.421	31.71
550.618	31.68
550.814	31.53
551.011	31.45
551.208	31.48
551.405	31.44
551.601	31.29
551.798	31.33
551.995	31.37
552.191	31.41
552.388	31.33
552.585	31.25
552.781	31.16
552.978	31.2
553.175	31.27
553.371	31.29
553.568	31.28
553.764	31.34
553.961	31.32
554.157	31.27
554.354	31.3
554.55	31.35
554.747	31.37
554.943	31.44
555.14	31.49
555.336	31.42
555.533	31.39
555.729	31.25
555.926	31.23
556.122	31.3
556.318	31.43
556.515	31.47
556.711	31.35
556.907	31.44
557.104	31.41
557.3	31.32
557.496	31.31
557.693	31.47
557.889	31.6
558.085	31.71
558.281	31.56
558.478	31.57
558.674	31.5
558.87	31.58
559.066	31.47
559.262	31.51
559.459	31.55
559.655	31.64
559.851	31.55
560.047	31.63
560.243	31.54
560.439	31.65
560.635	31.57
560.831	31.48
561.027	31.51
561.223	31.62
561.419	31.52
561.615	31.54
561.811	31.51
562.007	31.47
562.203	31.45
562.399	31.44
562.595	31.4
562.791	31.54
562.987	31.7
563.183	31.62
563.379	31.71
563.575	31.81
563.771	31.96
563.966	32.09
564.162	32.24
564.358	32.11
564.554	32.06
564.75	32.17
564.945	31.94
565.141	31.99
565.337	32.01
565.533	31.93
565.728	31.92
565.924	31.82
566.12	31.79
566.315	31.78
566.511	31.84
566.707	31.85
566.902	31.73
567.098	31.78
567.293	31.58
567.489	31.6
567.684	31.59
567.88	31.61
568.076	31.58
568.271	31.49
568.467	31.44
568.662	31.4
568.858	31.44
569.053	31.43
569.248	31.42
569.444	31.54
569.639	31.51
569.835	31.47
570.03	31.47
570.225	31.48
570.421	31.5
570.616	31.54
570.812	31.64
571.007	31.72
571.202	31.76
571.397	31.84
571.593	31.86
571.788	31.9
571.983	32.02
572.178	32.01
572.374	32.07
572.569	32.11
572.764	32.07
572.959	31.99
573.154	31.94
573.35	31.98
573.545	31.83
573.74	31.93
573.935	31.88
574.13	31.75
574.325	31.75
574.52	31.68
574.715	31.7
574.91	31.7
575.105	31.74
575.3	31.73
575.495	31.7
575.69	31.84
575.885	31.72
576.08	31.9
576.275	31.96
576.47	32.08
576.665	32.24
576.86	32.31
577.055	32.44
577.25	32.53
577.444	32.68
577.639	32.92
577.834	33.08
578.029	33.25
578.224	33.18
578.418	33.4
578.613	33.5
578.808	33.46
579.003	33.5
579.197	33.51
579.392	33.49
579.587	33.44
579.781	33.3
579.976	33.34
580.171	33.31
580.365	33.19
580.56	33.2
580.755	33.16
580.949	33.23
581.144	33.15
581.338	33.17
581.533	33.21
581.727	33.28
581.922	33.36
582.116	33.39
582.311	33.58
582.505	34.03
582.7	34.03
582.894	34.08
583.089	34.07
583.283	34.27
583.478	34.26
583.672	34.22
583.866	34.27
584.061	34.17
584.255	34.01
584.449	33.91
584.644	33.76
584.838	33.71
585.032	33.73
585.226	33.85
585.421	33.68
585.615	33.74
585.809	33.85
586.003	34.01
586.198	34.21
586.392	34.5
586.586	34.54
586.78	34.52
586.974	34.66
587.168	34.71
587.363	34.67
587.557	34.67
587.751	34.75
587.945	34.73
588.139	34.62
588.333	34.62
588.527	34.54
588.721	34.51
588.915	34.39
589.109	34.13
589.303	34.17
589.497	34.14
589.691	34.21
589.885	34.18
590.079	34.13
590.273	34.22
590.466	34.23
590.66	34.34
590.854	34.32
591.048	34.39
591.242	34.57
591.436	34.56
591.629	34.57
591.823	34.7
592.017	34.75
592.211	34.9
592.404	34.71
592.598	34.65
592.792	34.47
592.986	34.4
593.179	34.43
593.373	34.31
593.567	34.14
593.76	34.17
593.954	34
594.147	33.88
594.341	33.7
594.535	33.8
594.728	33.7
594.922	33.64
595.115	33.68
595.309	33.71
595.502	33.69
595.696	33.73
595.889	33.66
596.083	33.7
596.276	33.71
596.47	33.69
596.663	33.66
596.856	33.7
597.05	33.87
597.243	33.96
597.437	33.9
597.63	33.9
597.823	33.94
598.017	34.02
598.21	34.09
598.403	34.25
598.596	34.46
598.79	34.61
598.983	34.64
599.176	34.53
599.369	34.37
599.563	34.57
599.756	34.81
599.949	34.93
600.142	34.91
600.335	34.85
600.528	34.72
600.722	34.62
600.915	34.5
601.108	34.63
601.301	34.75
601.494	34.91
601.687	34.92
601.88	34.87
602.073	34.82
602.266	34.94
602.459	35.1
602.652	35.09
602.845	35
603.038	34.94
603.231	34.93
603.424	34.87
603.617	34.84
603.809	34.66
604.002	34.62
604.195	34.6
604.388	34.69
604.581	34.55
604.774	34.61
604.966	34.72
605.159	34.79
605.352	34.78
605.545	34.77
605.737	34.66
605.93	34.7
606.123	34.77
606.316	34.87
606.508	34.75
606.701	34.94
606.894	34.98
607.086	35.09
607.279	35.16
607.471	35.28
607.664	35.47
607.857	35.86
608.049	36.15
608.242	36.37
608.434	36.8
608.627	37.35
608.819	37.85
609.012	38.5
609.204	39.21
609.397	39.99
609.589	40.84
609.782	41.63
609.974	42.47
610.166	43.49
610.359	44.3
610.551	44.91
610.743	45.45
610.936	46.14
611.128	46.59
611.32	46.89
611.513	47.24
611.705	47.31
611.897	47.26
612.09	47.2
612.282	46.89
612.474	46.75
612.666	46.68
612.858	46.32
613.051	45.71
613.243	45.25
613.435	44.86
613.627	44.47
613.819	44.23
614.011	44
614.203	43.54
614.395	43.15
614.588	42.8
614.78	42.11
614.972	41.96
615.164	41.75
615.356	41.43
615.548	41.23
615.74	40.9
615.932	40.47
616.124	40.22
616.315	39.99
616.507	39.73
616.699	39.53
616.891	39.59
617.083	39.26
617.275	39.08
617.467	39.03
617.659	38.73
617.85	38.68
618.042	38.46
618.234	38.44
618.426	38.27
618.618	38.34
618.809	38.35
619.001	38.23
619.193	38.19
619.384	38.13
619.576	38.08
619.768	38.18
619.959	38.12
620.151	38.24
620.343	38.15
620.534	38.33
620.726	38.08
620.917	38.13
621.109	38.13
621.301	38.28
621.492	38.21
621.684	38.32
621.875	38.3
622.067	38.22
622.258	38.3
622.45	38.38
622.641	38.38
622.832	38.73
623.024	38.65
623.215	38.82
623.407	38.79
623.598	39.08
623.789	39.23
623.981	39.24
624.172	39.18
624.363	39.22
624.555	39.15
624.746	39.09
624.937	38.87
625.129	38.82
625.32	38.58
625.511	38.55
625.702	38.28
625.893	38.15
626.085	38.17
626.276	38.11
626.467	37.97
626.658	37.99
626.849	38
627.04	38.15
627.231	38.15
627.422	38.16
627.614	38.07
627.805	38.11
627.996	38.09
628.187	38.24
628.378	38.45
628.569	38.62
628.76	38.69
628.951	39.03
629.142	39.08
629.332	39.17
629.523	39.42
629.714	39.71
629.905	39.98
630.096	40.17
630.287	40.37
630.478	40.49
630.669	40.68
630.859	40.64
631.05	40.39
631.241	40.32
631.432	40.44
631.623	40.41
631.813	40.31
632.004	40.21
632.195	40.02
632.385	39.43
632.576	39.32
632.767	38.95
632.957	38.98
633.148	38.92
633.339	38.88
633.529	38.62
633.72	38.45
633.91	38.48
634.101	38.24
634.292	38.21
634.482	38.39
634.673	38.42
634.863	38.52
635.054	38.49
635.244	38.42
635.435	38.42
635.625	38.46
635.815	38.46
636.006	38.24
636.196	38.18
636.387	38.38
636.577	38.6
636.767	38.68
636.958	38.72
637.148	38.73
637.338	38.85
637.529	38.81
637.719	38.76
637.909	38.81
638.099	38.82
638.29	38.88
638.48	38.79
638.67	38.47
638.86	38.41
639.05	38.39
639.241	38.57
639.431	38.69
639.621	38.79
639.811	38.99
640.001	39.22
640.191	39.34
640.381	39.51
640.571	39.59
640.761	39.8
640.951	39.8
641.141	39.84
641.331	39.52
641.521	39.65
641.711	39.59
641.901	39.49
642.091	39.46
642.281	39.55
642.471	39.66
642.661	39.61
642.851	39.59
643.041	39.51
643.231	39.55
643.42	39.66
643.61	39.42
643.8	39.44
643.99	39.62
644.18	39.46
644.369	39.38
644.559	39.39
644.749	39.34
644.939	39.16
645.128	39.33
645.318	39.42
645.508	39.45
645.697	39.55
645.887	39.53
646.076	39.62
646.266	39.8
646.456	40.02
646.645	40.05
646.835	40.26
647.024	40.47
647.214	40.23
647.403	40.21
647.593	40.53
647.782	40.39
647.972	40.42
648.161	40.15
648.351	40.31
648.54	40.34
648.73	40.4
648.919	40.35
649.108	40.23
649.298	40.51
649.487	40.59
649.677	40.67
649.866	40.89
650.055	40.96
650.244	41.12
650.434	40.9
650.623	40.99
650.812	41.11
651.002	41.02
651.191	41.28
651.38	41.32
651.569	41.31
651.758	41.14
651.947	41.08
652.137	41.33
652.326	41.51
652.515	41.55
652.704	41.46
652.893	41.21
653.082	41.3
653.271	41.35
653.46	41.13
653.649	41.1
653.838	41.15
654.027	41.15
654.216	40.87
654.405	40.69
654.594	40.75
654.783	40.59
654.972	40.91
655.161	40.75
655.35	40.62
655.539	40.83
655.728	41.04
655.916	41.06
656.105	41.25
656.294	41.35
656.483	41.7
656.672	41.82
656.86	41.84
657.049	41.77
657.238	41.67
657.427	41.69
657.615	41.61
657.804	41.51
657.993	41.17
658.181	41.05
658.37	41.17
658.559	40.98
658.747	40.86
658.936	40.85
659.125	40.82
659.313	40.98
659.502	40.96
659.69	40.94
659.879	40.87
660.067	41.19
660.256	41.12
660.444	41.02
660.633	41.08
660.821	41.26
661.01	41.34
661.198	41.4
661.387	41.44
661.575	41.48
661.763	41.72
661.952	41.66
662.14	41.67
662.328	41.98
662.517	42.21
662.705	42.06
662.893	42
663.082	42.01
663.27	42.07
663.458	42.29
663.646	42.32
663.834	42.26
664.023	42.49
664.211	42.89
664.399	42.61
664.587	42.35
664.775	42.46
664.963	42.45
665.152	42.83
665.34	42.77
665.528	42.65
665.716	42.78
665.904	42.59
666.092	42.61
666.28	42.28
666.468	42.26
666.656	42.34
666.844	42.54
667.032	42.6
667.22	42.22
667.408	42.29
667.596	42.47
667.784	42.43
667.971	42.61
668.159	42.39
668.347	42.44
668.535	42.75
668.723	42.73
668.911	42.52
669.098	42.26
669.286	42.28
669.474	42.14
669.662	42.11
669.849	42.18
670.037	42.19
670.225	42.31
670.413	42.21
670.6	42.14
670.788	42.26
670.976	42.43
671.163	42.63
671.351	43.03
671.538	43.11
671.726	42.85
671.913	42.9
672.101	42.96
672.289	42.97
672.476	43.31
672.664	43.5
672.851	43.45
673.039	43.42
673.226	43.53
673.413	43.23
673.601	43.43
673.788	43.83
673.976	43.66
674.163	43.57
674.35	43.58
674.538	43.55
674.725	43.44
674.912	43.64
675.1	43.74
675.287	43.75
675.474	43.8
675.662	43.74
675.849	43.59
676.036	43.74
676.223	43.77
676.411	43.98
676.598	43.78
676.785	43.66
676.972	43.49
677.159	43.52
677.346	43.49
677.533	43.65
677.721	43.64
677.908	43.6
678.095	43.59
678.282	43.74
678.469	43.46
678.656	43.42
678.843	43.31
679.03	43.2
679.217	43.03
679.404	43.1
679.591	42.86
679.778	42.75
679.964	42.71
680.151	42.53
680.338	42.32
680.525	42.56
680.712	42.62
680.899	42.8
681.086	42.98
681.272	42.92
681.459	42.8
681.646	42.9
681.833	43.13
682.02	43.36
682.206	43.49
682.393	43.39
682.58	43.54
682.766	43.64
682.953	43.51
683.14	43.29
683.326	43.63
683.513	43.84
683.7	44.11
683.886	43.89
684.073	43.57
684.259	43.53
684.446	43.89
684.632	43.87
684.819	43.84
685.005	44.07
685.192	44.58
685.378	44.27
685.565	44.19
685.751	44.05
685.938	44.31
686.124	44.31
686.31	44.53
686.497	44.5
686.683	44.24
686.87	44.18
687.056	44.13
687.242	43.76
687.429	43.87
687.615	44.05
687.801	43.72
687.987	43.6
688.174	43.47
688.36	43.59
688.546	43.57
688.732	43.78
688.918	43.35
689.105	43.33
689.291	43.45
689.477	43.61
689.663	43.42
689.849	43.85
690.035	44.04
690.221	44.39
690.407	44.15
690.593	44.03
690.779	43.88
690.965	44.27
691.151	44.22
691.337	44.21
691.523	44.25
691.709	44.4
691.895	44.55
692.081	44.35
692.267	44.39
692.453	44.46
692.639	44.47
692.825	44.44
693.011	44.54
693.196	44.62
693.382	44.57
693.568	44.4
693.754	44.34
693.94	44.19
694.125	44.16
694.311	44.17
694.497	44.35
694.682	44.39
694.868	44.4
695.054	44.48
695.239	44.56
695.425	44.63
695.611	44.8
695.796	44.84
695.982	44.95
696.168	44.63
696.353	44.51
696.539	44.45
696.724	44.62
696.91	44.72
697.095	44.51
697.281	44.24
697.466	44.13
697.652	44.07
697.837	43.74
698.023	43.46
698.208	43.65
698.393	43.54
698.579	43.3
698.764	43.14
698.949	42.84
699.135	42.94
699.32	42.97
699.505	43.19
699.691	42.88
699.876	42.98
700.061	43.19
700.246	43.13
700.432	43.11
700.617	43.43
700.802	43.38
700.987	43.76
701.172	43.62
701.358	43.69
701.543	43.54
701.728	43.91
701.913	44.04
702.098	44.18
702.283	44.72
702.468	45.24
702.653	44.96
702.838	45.34
703.023	45.2
703.208	45.44
703.393	45.67
703.578	45.93
703.763	46.23
703.948	46.37
704.133	46.63
704.318	46.51
704.503	46.64
704.688	47.03
704.873	47.14
705.057	47.64
705.242	48.08
705.427	48.16
705.612	48.45
705.797	48.57
705.981	48.73
706.166	48.47
706.351	48.78
706.536	49.01
706.72	49.2
706.905	49.3
707.09	49.42
707.274	49.33
707.459	49.27
707.644	49.45
707.828	49.52
708.013	49.53
708.197	49.47
708.382	49.01
708.567	48.84
708.751	48.92
708.936	48.78
709.12	48.65
709.305	48.78
709.489	48.96
709.673	48.49
709.858	48.46
710.042	48.8
710.227	49.2
710.411	49.38
710.596	49.47
710.78	49.15
710.964	49.73
711.149	49.65
711.333	49.5
711.517	49.33
711.702	49.45
711.886	49.24
712.07	49.09
712.254	48.78
712.438	48.94
712.623	48.46
712.807	48.35
712.991	47.8
713.175	47.66
713.359	47.51
713.544	47.29
713.728	47.23
713.912	46.99
714.096	46.57
714.28	46.39
714.464	45.57
714.648	45.81
714.832	46.26
715.016	46.21
715.2	46.34
715.384	46.27
715.568	46.46
715.752	45.94
715.936	46.03
716.12	45.83
716.304	46.12
716.488	46.63
716.671	46.53
716.855	46.15
717.039	45.78
717.223	45.42
717.407	45.21
717.59	45.13
717.774	45.48
717.958	45.78
718.142	45.97
718.325	45.55
718.509	45.27
718.693	45.52
718.877	45.27
719.06	45.71
719.244	45.86
719.428	45.74
719.611	45.72
719.795	45.92
719.978	45.97
720.162	46.08
720.345	46.39
720.529	46.82
720.713	46.36
720.896	46.67
721.08	46.26
721.263	46.35
721.446	46.8
721.63	46.85
721.813	47.1
721.997	46.8
722.18	46.93
722.364	46.82
722.547	46.97
722.73	47.13
722.914	47.14
723.097	47.67
723.28	47.69
723.464	47.52
723.647	47.38
723.83	46.94
724.013	47.22
724.197	47.16
724.38	47.21
724.563	47.02
724.746	47.2
724.929	47.1
725.112	46.77
725.296	46.42
725.479	46.17
725.662	46.21
725.845	46.16
726.028	45.94
726.211	46.01
726.394	45.81
726.577	44.99
726.76	44.9
726.943	44.87
727.126	44.94
727.309	45.29
727.492	45.02
727.675	45.25
727.858	45.18
728.041	44.85
728.224	44.86
728.407	44.72
728.589	45.54
728.772	45.3
728.955	45.48
729.138	45.54
729.321	45.38
729.503	45.99
729.686	45.77
729.869	45.82
730.052	45.95
730.234	45.9
730.417	45.91
730.6	45.71
730.782	45.54
730.965	45.11
731.148	45.04
731.33	44.91
731.513	44.61
731.695	45.02
731.878	44.99
732.061	45.07
732.243	45.57
732.426	45.82
732.608	45.69
732.791	46.05
732.973	46.67
733.156	46.86
733.338	47.22
733.52	47.52
733.703	46.99
733.885	47.03
734.068	47.38
734.25	46.81
734.432	46.94
734.615	47.24
734.797	47.19
734.979	47.17
735.162	47.23
735.344	47.19
735.526	47.03
735.708	47.17
735.891	47.44
736.073	47.1
736.255	46.86
736.437	46.54
736.619	46.24
736.802	46.06
736.984	45.73
737.166	45.61
737.348	45.66
737.53	46.09
737.712	46.94
737.894	46.78
738.076	46.48
738.258	46.33
738.44	46.74
738.622	47.06
738.804	47.34
738.986	47.68
739.168	47.45
739.35	47.31
739.532	46.98
739.714	46.56
739.896	46.61
740.078	47.11
740.259	47.78
740.441	47.87
740.623	47.95
740.805	48.19
740.987	47.92
741.168	48.31
741.35	48.79
741.532	49.02
741.714	49.18
741.895	48.99
742.077	49.02
742.259	48.98
742.44	48.84
742.622	48.89
742.804	49.2
742.985	49.04
743.167	49.55
743.348	49.19
743.53	49.24
743.711	48.93
743.893	49.32
744.075	49.18
744.256	48.96
744.438	48.79
744.619	48.5
744.8	47.99
744.982	48.4
745.163	47.99
745.345	47.88
745.526	47.35
745.707	47.3
745.889	47.19
746.07	47.61
746.252	47.01
746.433	47.59
746.614	47.8
746.795	48.21
746.977	47.83
747.158	48.07
747.339	47.94
747.52	48.71
747.702	48.96
747.883	49.21
748.064	49.01
748.245	49.55
748.426	48.69
748.607	48.08
748.788	47.89
748.97	48.01
749.151	47.47
749.332	47.92
749.513	47.85
749.694	47.29
749.875	46.85
750.056	46.57
750.237	47.05
750.418	47.42
750.599	47.86
750.78	47.6
750.96	47.87
751.141	48.22
751.322	48.32
751.503	48.21
751.684	49.13
751.865	49.19
752.046	49.27
752.226	48.98
752.407	48.87
752.588	48.9
752.769	49.7
752.949	49.22
753.13	49.51
753.311	49.46
753.492	49.32
753.672	49.78
753.853	50.11
754.034	50.23
754.214	50.66
754.395	50.41
754.575	50.46
754.756	49.76
754.937	50.06
755.117	50.11
755.298	49.73
755.478	49.99
755.659	49.05
755.839	48.9
756.02	48.54
756.2	48.27
756.381	48.44
756.561	48.47
756.741	48.95
756.922	48.85
757.102	48.5
757.283	48.46
757.463	47.49
757.643	47.69
757.823	47.24
758.004	46.86
758.184	46.1
758.364	46.68
758.545	45.55
758.725	45.47
758.905	45.48
759.085	45.56
759.265	45.54
759.446	45.66
759.626	45.11
759.806	44.93
759.986	45.06
760.166	45.13
760.346	44.57
760.526	45.78
760.706	44.83
760.886	44.51
761.066	44.57
761.246	44.18
761.426	44.05
761.606	43.81
761.786	43.69
761.966	42.93
762.146	43.28
762.326	43.03
762.506	42.4
762.686	42.92
762.866	43.03
763.046	42.23
763.225	42.59
763.405	42.78
763.585	42.87
763.765	43.18
763.945	43.68
764.124	43.33
764.304	43.31
764.484	43.37
764.664	43.42
764.843	43.64
765.023	44.2
765.203	44.19
765.382	44.11
765.562	44.46
765.741	44.38
765.921	44.44
766.101	44.93
766.28	45.79
766.46	46.18
766.639	45.86
766.819	45.75
766.998	45.96
767.178	45.96
767.357	46.75
767.537	46.38
767.716	47.01
767.896	47.01
768.075	47.19
768.254	47.05
768.434	47.38
768.613	47.95
768.792	48.47
768.972	48.42
769.151	48.69
769.33	48.94
769.51	49.95
769.689	50.05
769.868	51.11
770.047	52.49
770.226	52.2
770.406	52.41
770.585	52.78
770.764	52.84
770.943	53
771.122	53.17
771.301	52.6
771.48	52.27
771.66	51.85
771.839	51.13
772.018	49.41
772.197	48.84
772.376	48.23
772.555	48.28
772.734	47.67
772.913	47.09
773.092	46.92
773.271	46.63
773.449	46.95
773.628	46.87
773.807	47.27
773.986	47.6
774.165	48.78
774.344	48.93
774.523	47.94
774.701	48.33
774.88	48.64
775.059	49.65
775.238	50.17
775.417	49.04
775.595	49.36
775.774	50.09
775.953	49.42
776.131	49.09
776.31	49.36
776.489	49.1
776.667	49.33
776.846	49.72
777.025	48.77
777.203	48.71
777.382	49.36
777.56	49.87
777.739	48.08
777.917	48.58
778.096	48.67
778.274	48.45
778.453	48.94
778.631	48.94
778.81	48.3
778.988	48.2
779.166	48.24
779.345	48.09
779.523	47.5
779.702	48.76
779.88	49.01
780.058	48.32
780.237	48.39
780.415	48.84
780.593	48.03
780.771	49.22
780.95	49.39
781.128	49.62
781.306	49.78
781.484	49.73
781.662	49.7
781.841	50.1
782.019	50.46
782.197	50.69
782.375	50.51
782.553	50.46
782.731	49.56
782.909	49.32
783.087	49.37
783.265	49.3
783.443	49.73
783.621	48.9
783.799	47.91
783.977	47.62
784.155	47.75
784.333	47.96
784.511	48.42
784.689	47.74
784.867	47.33
785.045	46.89
785.223	46.76
785.4	46.67
785.578	47.85
785.756	46.99
785.934	47.38
786.112	46.55
786.289	45.53
786.467	44.77
786.645	45.59
786.823	46.3
787	47.31
787.178	47.45
787.356	46.94
787.533	46.5
787.711	47.49
787.889	48.58
788.066	49.73
788.244	49.97
788.421	50.13
788.599	49.57
788.776	49.18
788.954	48.56
789.131	47.93
789.309	47.66
789.486	47.09
789.664	46.9
789.841	46.07
790.019	45.07
790.196	45.03
790.373	44.93
790.551	45.83
790.728	45.93
790.906	45.74
791.083	46.01
791.26	46.19
791.437	47.12
791.615	47.48
791.792	46.69
791.969	47.09
792.146	47.06
792.324	48.69
792.501	48.03
792.678	48.9
792.855	48.99
793.032	49.99
793.209	50.69
793.387	50.89
793.564	50.37
793.741	51.33
793.918	51.56
794.095	53.04
794.272	51.83
794.449	52.14
794.626	52.24
794.803	51.57
794.98	51.05
795.157	50.13
795.334	49.74
795.511	50.58
795.688	49.41
795.864	47.86
796.041	47.11
796.218	47.36
796.395	47.07
796.572	46.37
796.749	46.2
796.925	45.56
797.102	45.98
797.279	45.84
797.456	45.36
797.632	45.76
797.809	47.13
797.986	46.91
798.162	46.32
798.339	46.29
798.516	46.01
798.692	46.78
798.869	47.75
799.046	48.36
799.222	48.66
799.399	49.14
799.575	49.89
799.752	50.01
799.928	48.92
800.105	49.58
800.281	50.42
800.458	50.46
800.634	50.05
800.811	49.8
800.987	49.75
801.163	48.52
801.34	48.53
801.516	49.02
801.692	48.35
801.869	49.01
802.045	48.77
802.221	47.12
802.398	46.89
802.574	47.11
802.75	46.93
802.926	45.3
803.103	47.11
803.279	46.78
803.455	46.53
803.631	48.02
803.807	48.26
803.983	47.83
804.16	48.37
804.336	49.16
804.512	49.05
804.688	49.57
804.864	50.43
805.04	49.98
805.216	50.34
805.392	49
805.568	47.91
805.744	47.25
805.92	48.01
806.096	49.22
806.272	49.2
806.448	49.18
806.623	48.65
806.799	47.95
806.975	48.09
807.151	47.03
807.327	47.27
807.503	46.24
807.678	46.99
807.854	47.01
808.03	46.7
808.206	47.82
808.381	48.51
808.557	49.23
808.733	50.23
808.908	49.91
809.084	50.36
809.26	50.5
809.435	52.45
809.611	52.29
809.787	51.59
809.962	49.81
810.138	48.12
810.313	47
810.489	46.2
810.664	47.26
810.84	46.55
811.015	46.44
811.191	46.46
811.366	45.05
811.542	45.35
811.717	46.29
811.892	49.4
812.068	49.07
812.243	48.31
812.419	48.73
812.594	45.99
812.769	46.33
812.944	46.57
813.12	45.84
813.295	46.37
813.47	45.71
813.645	44.67
813.821	43.89
813.996	43.97
814.171	45.62
814.346	44.94
814.521	46.09
814.697	45.93
814.872	44.82
815.047	45.38
815.222	44.99
815.397	45.67
815.572	46.89
815.747	47.53
815.922	47.84
816.097	47.06
816.272	47.09
816.447	48.16
816.622	48.8
816.797	51.02
816.972	51.06
817.147	50.81
817.322	50.96
817.496	49.15
817.671	47.48
817.846	47.13
818.021	47.37
818.196	47.24
818.371	46.02
818.545	45.31
818.72	44.11
818.895	43.96
819.069	44.68
819.244	44.12
819.419	44.69
819.594	44.13
819.768	43.11
819.943	42.41
820.117	42.16
820.292	41.63
820.467	41.08
820.641	40.52
820.816	39.21
820.99	37.96
821.165	36.88
821.339	36.23
821.514	35.8
821.688	35.92
821.863	35.54
822.037	35.28
822.212	35.15
822.386	34.88
822.56	34.86
822.735	35.18
822.909	35.27
823.084	35.52
823.258	35.43
823.432	35.46
823.606	35.52
823.781	35.58
823.955	35.74
824.129	35.77
824.303	35.98
824.478	36.13
824.652	36.13
824.826	35.87
825	35.96
825.174	36.85
825.348	36.87
825.523	36.66
825.697	36.71
825.871	36.93
826.045	36.45
826.219	36.16
826.393	35.61
826.567	35.43
826.741	36.37
826.915	36.51
827.089	35.91
827.263	36.29
827.437	36.51
827.611	36.76
827.784	36.64
827.958	37.23
828.132	37.41
828.306	37.7
828.48	37.6
828.654	36.82
828.827	36.28
829.001	36.65
829.175	36.52
829.349	36.7
829.522	36.45
829.696	36.7
829.87	37.27
830.044	38.21
830.217	38.72
830.391	39.6
830.565	40.54
830.738	43.19
830.912	43.14
831.085	42.99
831.259	43.64
831.432	43.94
831.606	42.65
831.779	42.39
831.953	41.46
832.126	40.92
832.3	39.6
832.473	39.08
832.647	38.09
832.82	37.98
832.994	37.56
833.167	36.51
833.34	36.84
833.514	36.6
833.687	36.09
833.86	36.27
834.034	36.2
834.207	36.55
834.38	36.87
834.553	36.33
834.727	36.51
834.9	36.83
835.073	37.38
835.246	38
835.419	39.29
835.593	39.27
835.766	39.44
835.939	40.14
836.112	40.15
836.285	41.54
836.458	41.72
836.631	42.1
836.804	42.82
836.977	43.49
837.15	43.27
837.323	44.54
837.496	45.48
837.669	45.31
837.842	44.99
838.015	46.55
838.188	45.41
838.361	46.66
838.533	46.33
838.706	46.98
838.879	47.22
839.052	47.25
839.225	46.01
839.398	46.51
839.57	48.41
839.743	48.98
839.916	49.67
840.088	49.03
840.261	47.19
840.434	47.99
840.607	48.61
840.779	48.45
840.952	47.77
841.124	47.34
841.297	46.99
841.47	46.93
841.642	46.55
841.815	45.74
841.987	46.86
842.16	50.73
842.332	48.73
842.505	49.15
842.677	49.64
842.85	50.66
843.022	53.96
843.194	57.13
843.367	56.75
843.539	57.59
843.712	58.74
843.884	60.6
844.056	62.58
844.229	66.62
844.401	63.87
844.573	65.01
844.745	64.58
844.918	62.7
845.09	59.31
845.262	60.48
845.434	61.5
845.606	58.35
845.779	56.94
845.951	55.02
846.123	52.09
846.295	55.71
846.467	55.44
846.639	54.73
846.811	53.59
846.983	55.68
847.155	56.08
847.327	54.05
847.499	56.36
847.671	57.19
847.843	57.38
848.015	61.94
848.187	60.71
848.359	62.75
848.531	64.92
848.703	64.09
848.875	60.87
849.047	57.76
849.218	60.52
849.39	59.71
849.562	59.54
849.734	57.64
849.905	56.3
850.077	54.86
850.249	52.89
850.421	52.43
850.592	53.58
850.764	56.11
850.936	58.62
851.107	57.87
851.279	57.12
851.451	57.43
851.622	56.35
851.794	56.77
851.965	57.66
852.137	55.34
852.308	54.46
852.48	55.79
852.651	55.77
852.823	54.15
852.994	54.01
853.166	55.19
853.337	55.35
853.509	57.52
853.68	57.03
853.851	57.65
854.023	58.38
854.194	60.63
854.365	61.89
854.537	61.22
854.708	64.08
854.879	60.62
855.05	63.54
855.222	64.28
855.393	60.7
855.564	61.32
855.735	58.74
855.906	60.95
856.078	61.42
856.249	60.11
856.42	63.02
856.591	60.42
856.762	66.3
856.933	65.6
857.104	67.33
857.275	71.64
857.446	69.87
857.617	72.08
857.788	69.73
857.959	68.65
858.13	66.68
858.301	64.94
858.472	67.41
858.643	63.41
858.814	65.69
858.985	62.46
859.155	62.8
859.326	61.68
859.497	62.22
859.668	62.95
859.839	64.62
860.009	63.77
860.18	63.95
860.351	62.98
860.522	61.33
860.692	55.93
860.863	58.82
861.034	60.89
861.204	61.47
861.375	64.75
861.546	64.57
861.716	61.96
861.887	61.89
862.057	59
862.228	56.87
862.398	57.84
862.569	59.5
862.739	55.39
862.91	50.13
863.08	51.16
863.251	49.39
863.421	49.62
863.592	49.02
863.762	52.68
863.932	53.59
864.103	54.44
864.273	56.25
864.443	56.55
864.614	56.54
864.784	57.05
864.954	56.29
865.125	58.78
865.295	58.36
865.465	59.48
865.635	54.48
865.805	55.3
865.976	53.34
866.146	51.65
866.316	51.95
866.486	56.5
866.656	58.26
866.826	60.2
866.996	60.02
867.166	62.32
867.336	63.22
867.506	64.71
867.676	66.73
867.846	73.09
868.016	79.11
868.186	83.39
868.356	79.2
868.526	79.15
868.696	82.27
868.866	78.68
869.036	82.65
869.206	80.7
869.376	83.56
869.545	85.11
869.715	81.76
869.885	75.14
870.055	71.42
870.224	73.65
870.394	82.12
870.564	77.92
870.734	77.94
870.903	75.26
871.073	72.82
871.243	73.22
871.412	68.13
871.582	68.07
871.751	67.92
871.921	67.16
872.091	67.86
872.26	60.22
872.43	59.04
872.599	61.8
872.769	63.24
872.938	68.3
873.108	64.01
873.277	67.68
873.446	67.54
873.616	65.1
873.785	67.49
873.955	61.1
874.124	62.44
874.293	65.34
874.463	58.47
874.632	55.45
874.801	51.62
874.971	58.82
875.14	57.26
875.309	54.04
875.478	54.71
875.647	51.91
875.817	58.01
875.986	56.31
876.155	55.55
876.324	57.65
876.493	58.68
876.662	57.13
876.831	53.48
877	55.83
877.17	62.08
877.339	69.05
877.508	67.64
877.677	61.37
877.846	65.35
878.015	63.84
878.184	64.67
878.352	66.76
878.521	71.1
878.69	68.24
878.859	62.34
879.028	59.72
879.197	55.52
879.366	52.93
879.534	53.5
879.703	50.21
879.872	48.5
880.041	47.78
880.21	43.56
880.378	41.39
880.547	40.58
880.716	39.9
880.884	38.24
881.053	36.72
881.222	36.13
881.39	35.16
881.559	34.24
881.727	33.59
881.896	32.73
882.065	31.92
882.233	31.4
882.402	31.51
882.57	31.57
882.739	31.71
882.907	31.6
883.076	31.86
883.244	31.77
883.412	31.87
883.581	31.75
883.749	32.29
883.918	32.67
884.086	33.04
884.254	32.14
884.423	32.22
884.591	33.11
884.759	32.76
884.927	32.66
885.096	33.63
885.264	34.6
885.432	36.13
885.6	36.01
885.769	36.7
885.937	38.23
886.105	39.5
886.273	41.86
886.441	41.02
886.609	42.35
886.777	44.68
886.945	46.32
887.113	48.75
887.281	48.52
887.449	51.38
887.617	53.83
887.785	55.1
887.953	56.86
888.121	55.2
888.289	54.65
888.457	58.03
888.625	56.56
888.793	56.16
888.961	55.68
889.129	56.37
889.296	56.31
889.464	56.94
889.632	53.51
889.8	53.09
889.967	53.83
890.135	56.88
