Data from 2938791__Reflection_03.txt Node
Date: Fri Mar 13 11:14:17 EDT 2015
User: robert
Spectrometer: USB4E03002
Autoset integration time: false
Trigger mode: 4
Integration Time (sec): 1.000000E-1
Scans to average: 10
Electric dark correction enabled: false
Nonlinearity correction enabled: false
Boxcar width: 5
Stray light correction enabled: false
XAxis mode: Wavelengths
Stop averaging: false
Number of Pixels in Spectrum: 3648
>>>>>Begin Spectral Data<<<<<
177.575	-603.33
177.794	-6414.29
178.014	-896.52
178.233	-656.04
178.452	-437.01
178.672	-329.42
178.891	-371.46
179.11	-401.26
179.33	-394.81
179.549	-457.94
179.768	-516.36
179.987	-804.78
180.207	-527.13
180.426	-869.85
180.645	-1550
180.864	-5912.2
181.084	1821.64
181.303	2714.61
181.522	1279.66
181.741	3001.35
181.96	1284.09
182.179	585.64
182.398	497.45
182.618	390.74
182.837	425.93
183.056	325.59
183.275	319.3
183.494	351.7
183.713	310.61
183.932	307.62
184.151	285.53
184.37	316.34
184.589	361.75
184.808	436.83
185.027	424.78
185.246	429.55
185.465	1563.25
185.684	802.97
185.903	926.11
186.122	1073.18
186.341	3743.14
186.56	1660.34
186.779	2354.22
186.998	1168.39
187.216	-2893.75
187.435	-718.53
187.654	-789.64
187.873	-1042.05
188.092	-2714.49
188.311	15007.69
188.53	-2413.58
188.748	6300
188.967	-993.33
189.186	-1137.21
189.405	-583.13
189.623	-2169.61
189.842	4891.49
190.061	1720.77
190.28	2390.22
190.498	-1206.47
190.717	-919.72
190.936	-704.07
191.154	-419.32
191.373	-1232.89
191.592	-912.21
191.81	-706.19
192.029	-511.2
192.248	-526.1
192.466	-2157.75
192.685	-11114.29
192.904	-573.64
193.122	-2883.64
193.341	775.6
193.559	486.89
193.778	590.98
193.996	491.28
194.215	542.74
194.433	546.07
194.652	481.48
194.87	898.92
195.089	713.51
195.307	379.41
195.526	401.01
195.744	444.93
195.963	356.94
196.181	306.23
196.399	344.86
196.618	291.82
196.836	332.63
197.055	380.51
197.273	380.87
197.491	410.82
197.71	391.49
197.928	569.12
198.146	605.14
198.365	5703.13
198.583	-3092.45
198.801	-1243.18
199.019	-1243.75
199.238	-3066
199.456	1118.12
199.674	637.24
199.892	510.4
200.111	792.7
200.329	737.55
200.547	597.88
200.765	448.02
200.983	441.78
201.202	449.19
201.42	596.19
201.638	646.95
201.856	945.41
202.074	1231.85
202.292	-3209.68
202.51	12281.25
202.728	7024.14
202.946	-2645.45
203.165	-2616.25
203.383	4013.46
203.601	1554.81
203.819	3336.36
204.037	661.15
204.255	751.6
204.473	844.24
204.691	447.75
204.909	404.19
205.127	388.03
205.345	420.73
205.562	500.65
205.78	617
205.998	570.64
206.216	397.77
206.434	627.76
206.652	391.3
206.87	379.52
207.088	383.25
207.306	595.39
207.523	515.38
207.741	420.51
207.959	372.81
208.177	532.21
208.395	578.67
208.612	799.62
208.83	591.89
209.048	680.44
209.266	885.48
209.483	762.81
209.701	812.94
209.919	1251.52
210.136	972.65
210.354	841.95
210.572	603.17
210.79	470.5
211.007	482.94
211.225	549.04
211.442	576.46
211.66	391.09
211.878	430.05
212.095	-1059.43
212.313	-2701.06
212.53	-1596.67
212.748	-1115.12
212.966	-1868.38
213.183	-1252.41
213.401	-1766.07
213.618	3787.27
213.836	-12282.35
214.053	-7338.71
214.271	8630.77
214.488	208.26
214.705	214.62
214.923	194.34
215.14	209.87
215.358	242.12
215.575	261.04
215.793	266.67
216.01	391.33
216.227	359.65
216.445	363.73
216.662	411.09
216.879	499.16
217.097	402.9
217.314	362
217.531	260.37
217.749	217.28
217.966	193.73
218.183	170.58
218.4	146.22
218.618	148.83
218.835	126.08
219.052	123.95
219.269	120.18
219.487	129.79
219.704	144.87
219.921	134.04
220.138	132.83
220.355	130.77
220.572	132.14
220.79	126.29
221.007	127.35
221.224	135.17
221.441	132.09
221.658	130.3
221.875	125.38
222.092	112.99
222.309	114.56
222.526	118.76
222.743	119.07
222.96	116.73
223.177	121.64
223.394	106.87
223.611	100.12
223.828	95.68
224.045	91.62
224.262	92.63
224.479	88.49
224.696	84.19
224.913	76.97
225.13	70.04
225.347	60.89
225.564	57.01
225.781	57.17
225.997	53.48
226.214	49.73
226.431	46.07
226.648	39.73
226.865	36.76
227.082	32.45
227.298	30.85
227.515	27.74
227.732	25.09
227.949	22.23
228.165	20.55
228.382	19
228.599	18.36
228.816	16.91
229.032	15.96
229.249	15.02
229.466	14.36
229.682	13.57
229.899	14.34
230.116	14.33
230.332	14.35
230.549	14.35
230.765	15.51
230.982	15.49
231.199	17.71
231.415	19.99
231.632	22.03
231.848	22.76
232.065	24.59
232.281	23.8
232.498	23.11
232.714	23.73
232.931	24.97
233.147	25.32
233.364	25.39
233.58	23.96
233.797	22.32
234.013	23.13
234.23	24.17
234.446	23.31
234.662	22.67
234.879	24.42
235.095	24.72
235.312	24.15
235.528	23.21
235.744	22.87
235.961	22.5
236.177	23.75
236.393	22.2
236.61	21.87
236.826	20.62
237.042	21.83
237.258	21.59
237.475	21.53
237.691	21.91
237.907	22.55
238.123	21.98
238.339	22.63
238.556	23.59
238.772	23.77
238.988	23.61
239.204	23.22
239.42	22.23
239.636	21.45
239.853	20.84
240.069	19.12
240.285	17.74
240.501	16.95
240.717	16.02
240.933	14.58
241.149	13.56
241.365	12.96
241.581	13.42
241.797	12.66
242.013	12.09
242.229	12.02
242.445	11.85
242.661	12.06
242.877	12.24
243.093	12.43
243.309	12.26
243.525	12.55
243.741	12.2
243.957	12.02
244.173	12.7
244.388	13.75
244.604	13.67
244.82	14.35
245.036	14.35
245.252	14
245.468	13.38
245.683	13.53
245.899	12.66
246.115	12.47
246.331	11.69
246.547	11.56
246.762	10.6
246.978	10.31
247.194	9.85
247.409	9.63
247.625	9.5
247.841	9.15
248.057	8.85
248.272	8.79
248.488	8.63
248.703	8.87
248.919	8.7
249.135	8.97
249.35	9.26
249.566	9.57
249.782	9.49
249.997	9.57
250.213	10.55
250.428	11.16
250.644	12.34
250.859	12.55
251.075	12.73
251.29	12.83
251.506	13.09
251.721	12.71
251.937	12.31
252.152	12.12
252.368	12.3
252.583	11.71
252.798	11.18
253.014	11.23
253.229	11.72
253.445	11.82
253.66	11.46
253.875	11.89
254.091	12.96
254.306	13.13
254.521	14.44
254.737	15.21
254.952	15.59
255.167	15.68
255.383	14.88
255.598	14.36
255.813	14.18
256.028	14.03
256.244	13.29
256.459	13.26
256.674	13.31
256.889	12.3
257.104	11.82
257.32	11.38
257.535	10.7
257.75	9.88
257.965	9.89
258.18	9.52
258.395	9.05
258.61	8.54
258.826	7.58
259.041	7.64
259.256	7.39
259.471	6.88
259.686	7.03
259.901	6.86
260.116	7.04
260.331	6.61
260.546	6.83
260.761	7.04
260.976	7.15
261.191	7.12
261.406	6.84
261.621	7
261.836	6.87
262.05	6.89
262.265	7.53
262.48	7.82
262.695	8.93
262.91	8.94
263.125	9.1
263.34	9.25
263.555	10.43
263.769	11.33
263.984	11.37
264.199	11.83
264.414	11.84
264.629	11.81
264.843	11.85
265.058	11.3
265.273	10.56
265.488	10.09
265.702	9.84
265.917	9.55
266.132	8.97
266.346	8.77
266.561	8.96
266.776	9.13
266.99	9.01
267.205	8.75
267.42	8.87
267.634	8.59
267.849	9.01
268.063	9.47
268.278	9.28
268.492	9.66
268.707	9.71
268.922	9.71
269.136	9.91
269.351	9.32
269.565	9.1
269.78	8.63
269.994	8.63
270.209	8.24
270.423	7.4
270.637	7.1
270.852	6.69
271.066	6.72
271.281	7
271.495	6.42
271.709	6.79
271.924	6.69
272.138	6.8
272.353	7.1
272.567	7.04
272.781	7.6
272.996	7.46
273.21	7.7
273.424	7.61
273.638	7.13
273.853	6.88
274.067	6.91
274.281	7.16
274.495	7.61
274.71	7.91
274.924	8.22
275.138	8.07
275.352	8.1
275.566	8.14
275.781	8.29
275.995	8.93
276.209	9.7
276.423	9.57
276.637	9.69
276.851	9.66
277.065	9.11
277.279	9.09
277.493	8.74
277.707	9.15
277.921	8.87
278.135	8.5
278.349	7.89
278.563	7.9
278.777	7.61
278.991	7.24
279.205	7.09
279.419	7.91
279.633	7.28
279.847	7.97
280.061	7.96
280.275	7.38
280.489	7.63
280.703	7.93
280.917	7.46
281.131	8.05
281.344	8.05
281.558	7.76
281.772	7.46
281.986	7.91
282.2	7.82
282.414	7.84
282.627	8.16
282.841	8.13
283.055	8.25
283.269	8.2
283.482	7.69
283.696	7.53
283.91	7.65
284.123	6.8
284.337	6.4
284.551	6.1
284.764	5.89
284.978	5.62
285.192	5.88
285.405	5.84
285.619	5.78
285.833	5.85
286.046	5.92
286.26	5.94
286.473	6.46
286.687	6.46
286.9	6.37
287.114	6.27
287.327	6.57
287.541	6.59
287.754	6.49
287.968	7.25
288.181	7.45
288.395	7.57
288.608	7.66
288.822	7.57
289.035	7.72
289.248	7.65
289.462	7.64
289.675	7.51
289.889	7.37
290.102	7.08
290.315	6.47
290.529	6.51
290.742	6.25
290.955	6.11
291.169	6.46
291.382	6.67
291.595	7.07
291.808	7.39
292.022	7.94
292.235	8.01
292.448	8.19
292.661	8.35
292.875	8.11
293.088	8.6
293.301	8.69
293.514	8.41
293.727	8.45
293.94	8.32
294.153	8.44
294.367	8.03
294.58	7.72
294.793	8.03
295.006	7.93
295.219	7.95
295.432	8.1
295.645	8.02
295.858	7.89
296.071	7.67
296.284	7.57
296.497	7.32
296.71	7.35
296.923	7.76
297.136	7.8
297.349	7.76
297.562	7.73
297.775	7.39
297.988	7.58
298.201	7.81
298.414	7.88
298.626	7.98
298.839	7.78
299.052	7.73
299.265	8.05
299.478	7.97
299.691	8.61
299.903	8.81
300.116	9.41
300.329	9.57
300.542	9.3
300.755	9.58
300.967	9.8
301.18	10.28
301.393	10.6
301.605	10.18
301.818	10.25
302.031	9.96
302.243	10.26
302.456	10.02
302.669	9.93
302.881	10.19
303.094	10.53
303.307	10.51
303.519	10.69
303.732	10.82
303.944	10.69
304.157	11.01
304.37	10.87
304.582	10.7
304.795	11.01
305.007	11.19
305.22	11.72
305.432	11.27
305.645	11.61
305.857	11.76
306.069	11.73
306.282	11.85
306.494	11.71
306.707	11.9
306.919	12.19
307.132	12.17
307.344	12.05
307.556	11.47
307.769	11.51
307.981	11.26
308.193	11.21
308.406	11.09
308.618	11.06
308.83	10.89
309.043	10.82
309.255	10.51
309.467	10.25
309.679	9.95
309.892	10.07
310.104	10.34
310.316	10.34
310.528	10.17
310.74	10.28
310.953	10.08
311.165	10.2
311.377	10.45
311.589	10.83
311.801	10.85
312.013	10.96
312.225	10.95
312.437	10.78
312.649	10.96
312.862	11.1
313.074	11.03
313.286	11.24
313.498	11.31
313.71	11.35
313.922	10.86
314.134	10.82
314.346	11.18
314.558	11.46
314.77	11.55
314.982	11.42
315.193	11.44
315.405	11.89
315.617	11.99
315.829	11.97
316.041	12.19
316.253	12.44
316.465	12.62
316.677	12.42
316.888	12.38
317.1	12.67
317.312	12.8
317.524	13.19
317.736	12.97
317.947	13.52
318.159	13.5
318.371	13.14
318.583	13.38
318.794	13.59
319.006	13.7
319.218	13.51
319.43	13.26
319.641	13.22
319.853	12.75
320.064	13.21
320.276	12.87
320.488	13.29
320.699	13.01
320.911	13.28
321.123	13.13
321.334	13.18
321.546	13.53
321.757	13.74
321.969	13.85
322.18	14.3
322.392	13.83
322.603	13.53
322.815	13.07
323.026	13.8
323.238	13.44
323.449	13.52
323.661	13.49
323.872	13.61
324.083	13.61
324.295	13.19
324.506	13.12
324.718	12.83
324.929	13.22
325.14	13.2
325.352	12.87
325.563	13.32
325.774	13.29
325.986	13.37
326.197	13.13
326.408	13.41
326.62	13.73
326.831	13.59
327.042	13.98
327.253	14.02
327.464	14.23
327.676	14.28
327.887	14.17
328.098	14.26
328.309	14.34
328.52	14.46
328.732	14.16
328.943	14.49
329.154	14.53
329.365	14.58
329.576	14.76
329.787	14.99
329.998	15.71
330.209	15.16
330.42	15.14
330.631	15.03
330.842	15.2
331.053	15.22
331.264	15.15
331.475	15.14
331.686	15.25
331.897	15.23
332.108	15.17
332.319	14.71
332.53	14.97
332.741	14.99
332.952	14.97
333.163	15.03
333.374	14.89
333.585	14.82
333.795	14.83
334.006	14.4
334.217	14.12
334.428	13.94
334.639	13.94
334.849	13.98
335.06	14.1
335.271	14.08
335.482	13.89
335.692	13.62
335.903	13.54
336.114	13.37
336.325	13.64
336.535	13.8
336.746	13.45
336.957	13.66
337.167	13.74
337.378	13.82
337.589	13.9
337.799	13.86
338.01	14.1
338.22	13.81
338.431	14.06
338.642	13.96
338.852	13.45
339.063	14.11
339.273	13.83
339.484	13.55
339.694	13.48
339.905	13.44
340.115	13.63
340.326	13.54
340.536	13.99
340.746	13.74
340.957	13.89
341.167	14.05
341.378	13.79
341.588	13.52
341.799	13.63
342.009	13.37
342.219	13.24
342.43	12.9
342.64	13.16
342.85	12.92
343.061	12.89
343.271	12.71
343.481	12.64
343.691	12.41
343.902	12.73
344.112	12.86
344.322	12.74
344.532	12.74
344.743	12.71
344.953	12.42
345.163	12.17
345.373	11.78
345.583	11.85
345.793	12.36
346.004	12.39
346.214	12.25
346.424	12.18
346.634	12.57
346.844	12.72
347.054	13.12
347.264	13.02
347.474	13.13
347.684	13.73
347.894	13.94
348.104	13.61
348.314	13.54
348.524	13.63
348.734	13.62
348.944	13.64
349.154	13.43
349.364	13.1
349.574	13.33
349.784	13.54
349.994	13.55
350.204	13.23
350.413	13.19
350.623	13.32
350.833	13.09
351.043	12.93
351.253	12.83
351.463	12.66
351.672	12.76
351.882	12.61
352.092	12.26
352.302	12.2
352.511	12.46
352.721	12.38
352.931	12.38
353.141	12.63
353.35	12.57
353.56	12.05
353.77	12.29
353.979	12.14
354.189	12.35
354.399	12.36
354.608	12.36
354.818	12.02
355.027	12.12
355.237	11.97
355.447	11.92
355.656	11.91
355.866	12.21
356.075	12.24
356.285	12.45
356.494	12.3
356.704	12.42
356.913	12.48
357.123	12.46
357.332	12.25
357.542	12.27
357.751	12.12
357.96	12.26
358.17	11.98
358.379	11.98
358.589	11.72
358.798	11.79
359.007	11.79
359.217	11.62
359.426	11.39
359.635	11.29
359.845	11.35
360.054	11.22
360.263	11.03
360.472	11.1
360.682	10.72
360.891	10.71
361.1	10.53
361.309	10.47
361.519	10.47
361.728	10.76
361.937	10.84
362.146	10.71
362.355	10.73
362.564	10.91
362.774	10.88
362.983	11.05
363.192	11.1
363.401	11.07
363.61	11.12
363.819	11.26
364.028	11.02
364.237	11.24
364.446	11.36
364.655	11.47
364.864	11.23
365.073	11.38
365.282	11.28
365.491	11.17
365.7	11.31
365.909	11.05
366.118	11.02
366.327	11.22
366.536	10.99
366.745	11.09
366.954	11.01
367.162	10.94
367.371	11.05
367.58	11.3
367.789	11.34
367.998	11.39
368.207	11.4
368.415	11.06
368.624	10.9
368.833	11.02
369.042	10.86
369.25	11.02
369.459	11.21
369.668	10.92
369.877	10.61
370.085	10.53
370.294	10.41
370.503	10.5
370.711	10.59
370.92	10.39
371.129	10.12
371.337	9.94
371.546	9.76
371.754	9.65
371.963	9.62
372.171	9.6
372.38	9.74
372.589	9.58
372.797	9.49
373.006	9.5
373.214	9.61
373.423	9.56
373.631	9.55
373.84	9.38
374.048	9.34
374.256	9.39
374.465	9.52
374.673	9.46
374.882	9.5
375.09	9.64
375.298	9.52
375.507	9.46
375.715	9.3
375.923	9.36
376.132	9.24
376.34	9.16
376.548	8.98
376.757	8.8
376.965	8.86
377.173	8.69
377.381	8.45
377.59	8.64
377.798	8.74
378.006	8.87
378.214	8.74
378.423	8.95
378.631	8.82
378.839	8.95
379.047	8.95
379.255	8.87
379.463	9.13
379.671	9.13
379.879	8.78
380.088	8.54
380.296	8.52
380.504	8.42
380.712	8
380.92	8.15
381.128	8.11
381.336	8.12
381.544	7.92
381.752	7.74
381.96	7.76
382.168	7.89
382.376	7.97
382.584	7.79
382.791	7.83
382.999	7.95
383.207	7.73
383.415	7.63
383.623	7.52
383.831	7.23
384.039	7.07
384.247	7.08
384.454	6.99
384.662	6.96
384.87	7.06
385.078	7.23
385.285	7.22
385.493	7.18
385.701	6.95
385.909	6.97
386.116	7.32
386.324	7.15
386.532	7.09
386.739	6.97
386.947	6.93
387.155	7
387.362	6.87
387.57	6.84
387.778	6.9
387.985	6.97
388.193	6.91
388.4	6.79
388.608	7.07
388.816	7.03
389.023	7.12
389.231	6.99
389.438	6.79
389.646	6.84
389.853	6.88
390.061	6.87
390.268	7.15
390.475	7
390.683	6.91
390.89	6.77
391.098	6.74
391.305	6.77
391.512	6.63
391.72	6.73
391.927	6.57
392.135	6.62
392.342	6.61
392.549	6.56
392.756	6.55
392.964	6.55
393.171	6.68
393.378	6.65
393.586	6.45
393.793	6.57
394	6.33
394.207	6.33
394.414	6.06
394.622	5.93
394.829	5.75
395.036	5.83
395.243	5.74
395.45	5.55
395.657	5.55
395.864	5.74
396.072	5.65
396.279	5.87
396.486	5.81
396.693	6.07
396.9	6.14
397.107	6.3
397.314	6.38
397.521	6.32
397.728	6.33
397.935	6.19
398.142	6.05
398.349	6.22
398.556	6.13
398.763	6.13
398.97	5.85
399.177	5.9
399.383	5.68
399.59	5.69
399.797	5.75
400.004	5.68
400.211	5.92
400.418	6.05
400.625	5.83
400.831	5.73
401.038	5.81
401.245	5.89
401.452	5.73
401.658	5.73
401.865	5.73
402.072	5.8
402.279	5.86
402.485	5.62
402.692	5.44
402.899	5.53
403.105	5.47
403.312	5.43
403.519	5.24
403.725	5.3
403.932	5.26
404.138	5.15
404.345	5.11
404.552	5.01
404.758	5.08
404.965	4.96
405.171	4.93
405.378	4.97
405.584	5.04
405.791	5.31
405.997	5.29
406.204	5.44
406.41	5.39
406.617	5.37
406.823	5.54
407.029	5.51
407.236	5.68
407.442	5.67
407.649	5.74
407.855	5.7
408.061	5.76
408.268	5.84
408.474	5.68
408.68	5.65
408.887	5.77
409.093	5.69
409.299	5.75
409.505	5.77
409.712	5.76
409.918	5.68
410.124	5.7
410.33	5.52
410.537	5.35
410.743	5.34
410.949	5.5
411.155	5.37
411.361	5.28
411.567	5.21
411.773	5.08
411.98	5.07
412.186	4.96
412.392	4.92
412.598	5.01
412.804	5.07
413.01	5.2
413.216	5.13
413.422	5.01
413.628	5.14
413.834	5.16
414.04	5.13
414.246	5.21
414.452	5.18
414.658	4.93
414.864	4.75
415.07	4.76
415.275	4.48
415.481	4.46
415.687	4.57
415.893	4.52
416.099	4.51
416.305	4.56
416.511	4.51
416.716	4.49
416.922	4.53
417.128	4.55
417.334	4.46
417.539	4.56
417.745	4.31
417.951	4.29
418.157	4.15
418.362	4.04
418.568	3.9
418.774	3.72
418.979	3.75
419.185	3.72
419.391	3.69
419.596	3.63
419.802	3.51
420.008	3.63
420.213	4.17
420.419	4.21
420.624	4.25
420.83	4.29
421.035	4.33
421.241	4.27
421.446	4.2
421.652	4.17
421.857	4.16
422.063	4.2
422.268	4.13
422.474	3.57
422.679	3.59
422.885	3.55
423.09	3.52
423.295	3.48
423.501	3.54
423.706	3.58
423.911	3.57
424.117	3.56
424.322	3.53
424.527	3.47
424.733	3.43
424.938	3.39
425.143	3.33
425.349	3.35
425.554	3.37
425.759	3.35
425.964	3.36
426.169	3.41
426.375	3.44
426.58	3.52
426.785	3.65
426.99	3.73
427.195	3.73
427.4	3.74
427.605	3.77
427.811	3.91
428.016	3.86
428.221	4.03
428.426	3.93
428.631	3.95
428.836	3.91
429.041	3.92
429.246	3.86
429.451	3.85
429.656	3.97
429.861	4.06
430.066	3.88
430.271	3.98
430.476	3.88
430.681	3.96
430.886	3.93
431.09	3.98
431.295	3.9
431.5	4.06
431.705	4.01
431.91	4
432.115	3.89
432.32	3.89
432.524	3.73
432.729	3.72
432.934	3.61
433.139	3.58
433.343	3.56
433.548	3.57
433.753	3.48
433.958	3.49
434.162	3.52
434.367	3.56
434.572	3.58
434.776	3.65
434.981	3.61
435.186	3.78
435.39	3.79
435.595	3.72
435.799	3.68
436.004	3.64
436.209	3.7
436.413	3.58
436.618	3.52
436.822	3.58
437.027	3.56
437.231	3.55
437.436	3.45
437.64	3.47
437.845	3.52
438.049	3.58
438.253	3.53
438.458	3.52
438.662	3.54
438.867	3.51
439.071	3.46
439.275	3.43
439.48	3.41
439.684	3.41
439.888	3.37
440.093	3.38
440.297	3.35
440.501	3.36
440.706	3.31
440.91	3.29
441.114	3.27
441.318	3.29
441.523	3.38
441.727	3.36
441.931	3.43
442.135	3.49
442.339	3.5
442.543	3.59
442.748	3.6
442.952	3.66
443.156	3.66
443.36	3.73
443.564	3.68
443.768	3.65
443.972	3.61
444.176	3.54
444.38	3.46
444.584	3.35
444.788	3.26
444.992	3.19
445.196	3.15
445.4	3.14
445.604	3.16
445.808	3.15
446.012	3.09
446.216	3.12
446.42	3.17
446.624	3.1
446.828	3.11
447.032	3.1
447.235	3.16
447.439	3.14
447.643	3.19
447.847	3.13
448.051	3.16
448.254	3.16
448.458	3.15
448.662	3.09
448.866	3.16
449.069	3.22
449.273	3.25
449.477	3.21
449.681	3.27
449.884	3.31
450.088	3.52
450.292	3.46
450.495	3.48
450.699	3.5
450.902	3.48
451.106	3.49
451.31	3.52
451.513	3.58
451.717	3.61
451.92	3.59
452.124	3.5
452.327	3.31
452.531	3.38
452.734	3.42
452.938	3.46
453.141	3.51
453.345	3.59
453.548	3.55
453.752	3.55
453.955	3.69
454.158	3.65
454.362	3.66
454.565	3.69
454.769	3.65
454.972	3.59
455.175	3.52
455.379	3.55
455.582	3.54
455.785	3.49
455.988	3.51
456.192	3.43
456.395	3.46
456.598	3.56
456.801	3.61
457.005	3.56
457.208	3.73
457.411	3.74
457.614	3.67
457.817	3.57
458.021	3.56
458.224	3.53
458.427	3.4
458.63	3.34
458.833	3.24
459.036	3.18
459.239	3.19
459.442	3.04
459.645	3.02
459.848	3
460.051	3.06
460.254	3.09
460.457	3.01
460.66	3.08
460.863	3.11
461.066	3.11
461.269	3.07
461.472	3.19
461.675	3.24
461.878	3.27
462.081	3.34
462.284	3.3
462.486	3.26
462.689	3.33
462.892	3.37
463.095	3.34
463.298	3.5
463.5	3.67
463.703	3.48
463.906	3.41
464.109	3.4
464.311	3.4
464.514	3.4
464.717	3.46
464.92	3.47
465.122	3.44
465.325	3.58
465.528	3.48
465.73	3.42
465.933	3.55
466.135	3.64
466.338	3.58
466.541	3.51
466.743	3.54
466.946	3.45
467.148	3.43
467.351	3.45
467.553	3.44
467.756	3.37
467.958	3.32
468.161	3.38
468.363	3.37
468.566	3.42
468.768	3.5
468.971	3.52
469.173	3.63
469.375	3.58
469.578	3.69
469.78	3.66
469.983	3.77
470.185	3.81
470.387	3.72
470.59	3.67
470.792	3.69
470.994	3.69
471.196	3.64
471.399	3.58
471.601	3.65
471.803	3.43
472.005	3.43
472.208	3.36
472.41	3.39
472.612	3.41
472.814	3.52
473.016	3.54
473.218	3.6
473.421	3.52
473.623	3.52
473.825	3.6
474.027	3.64
474.229	3.67
474.431	3.66
474.633	3.65
474.835	3.68
475.037	3.67
475.239	3.58
475.441	3.45
475.643	3.56
475.845	3.45
476.047	3.31
476.249	3.28
476.451	3.24
476.653	3.2
476.855	3.23
477.057	3.14
477.258	3.1
477.46	3.07
477.662	3.11
477.864	3.11
478.066	3.23
478.268	3.25
478.469	3.22
478.671	3.13
478.873	3.15
479.075	3.04
479.276	3.08
479.478	3.08
479.68	3.14
479.882	3.15
480.083	3.13
480.285	3.04
480.487	3.05
480.688	3.08
480.89	3.03
481.091	3.01
481.293	3.02
481.495	2.93
481.696	2.86
481.898	2.8
482.099	2.75
482.301	2.67
482.502	2.68
482.704	2.63
482.905	2.61
483.107	2.59
483.308	2.57
483.51	2.54
483.711	2.54
483.913	2.54
484.114	2.56
484.315	2.54
484.517	2.56
484.718	2.53
484.92	2.53
485.121	2.53
485.322	2.56
485.524	2.55
485.725	2.55
485.926	2.57
486.127	2.56
486.329	2.56
486.53	2.55
486.731	2.57
486.932	2.58
487.134	2.57
487.335	2.53
487.536	2.5
487.737	2.49
487.938	2.48
488.139	2.5
488.341	2.54
488.542	2.54
488.743	2.54
488.944	2.53
489.145	2.58
489.346	2.64
489.547	2.65
489.748	2.69
489.949	2.73
490.15	2.74
490.351	2.71
490.552	2.68
490.753	2.68
490.954	2.69
491.155	2.71
491.356	2.7
491.557	2.7
491.758	2.74
491.959	2.75
492.159	2.76
492.36	2.78
492.561	2.8
492.762	2.86
492.963	2.85
493.164	2.86
493.364	2.83
493.565	2.83
493.766	2.81
493.967	2.76
494.167	2.87
494.368	2.92
494.569	2.94
494.769	3.02
494.97	3.03
495.171	3.16
495.371	3.25
495.572	3.27
495.773	3.22
495.973	3.28
496.174	3.29
496.375	3.23
496.575	3.24
496.776	3.32
496.976	3.23
497.177	3.23
497.377	3.14
497.578	3.11
497.778	3.15
497.979	3.27
498.179	3.29
498.38	3.35
498.58	3.41
498.78	3.36
498.981	3.34
499.181	3.38
499.382	3.39
499.582	3.45
499.782	3.53
499.983	3.57
500.183	3.57
500.383	3.55
500.584	3.6
500.784	3.52
500.984	3.58
501.184	3.49
501.385	3.53
501.585	3.58
501.785	3.58
501.985	3.59
502.185	3.57
502.386	3.59
502.586	3.64
502.786	3.61
502.986	3.7
503.186	3.75
503.386	3.8
503.586	3.84
503.786	3.85
503.987	3.87
504.187	3.82
504.387	3.85
504.587	3.86
504.787	3.83
504.987	3.9
505.187	3.95
505.387	3.95
505.587	4.08
505.786	4.05
505.986	4.03
506.186	4.04
506.386	4.16
506.586	4.23
506.786	4.26
506.986	4.36
507.186	4.32
507.386	4.35
507.585	4.36
507.785	4.28
507.985	4.36
508.185	4.4
508.384	4.45
508.584	4.42
508.784	4.33
508.984	4.45
509.183	4.49
509.383	4.47
509.583	4.54
509.782	4.59
509.982	4.69
510.182	4.65
510.381	4.72
510.581	4.8
510.781	4.86
510.98	5.04
511.18	5.03
511.379	4.98
511.579	5.15
511.778	5.15
511.978	5.23
512.177	5.31
512.377	5.33
512.576	5.32
512.776	5.3
512.975	5.46
513.175	5.53
513.374	5.62
513.573	5.77
513.773	5.79
513.972	5.92
514.172	6.03
514.371	6.12
514.57	6.22
514.77	6.37
514.969	6.42
515.168	6.42
515.367	6.41
515.567	6.43
515.766	6.47
515.965	6.55
516.164	6.53
516.364	6.46
516.563	6.42
516.762	6.5
516.961	6.42
517.16	6.52
517.359	6.61
517.559	6.72
517.758	6.7
517.957	6.78
518.156	6.83
518.355	6.86
518.554	6.87
518.753	6.95
518.952	7.04
519.151	7.18
519.35	7.26
519.549	7.27
519.748	7.27
519.947	7.37
520.146	7.42
520.345	7.51
520.544	7.66
520.743	7.85
520.942	7.91
521.141	7.98
521.339	8.09
521.538	8.15
521.737	8.24
521.936	8.42
522.135	8.57
522.333	8.73
522.532	8.76
522.731	8.81
522.93	8.79
523.129	8.97
523.327	9.05
523.526	9.18
523.725	9.24
523.923	9.35
524.122	9.41
524.321	9.48
524.519	9.44
524.718	9.5
524.917	9.57
525.115	9.6
525.314	9.63
525.512	9.74
525.711	9.74
525.909	9.81
526.108	9.85
526.306	9.82
526.505	9.87
526.703	9.94
526.902	9.94
527.1	9.98
527.299	10.09
527.497	10.14
527.696	10.16
527.894	10.19
528.092	10.21
528.291	10.21
528.489	10.27
528.688	10.29
528.886	10.34
529.084	10.42
529.283	10.47
529.481	10.5
529.679	10.52
529.877	10.58
530.076	10.65
530.274	10.75
530.472	10.9
530.67	10.99
530.869	11.09
531.067	11.17
531.265	11.34
531.463	11.37
531.661	11.47
531.859	11.55
532.057	11.6
532.255	11.66
532.454	11.69
532.652	11.66
532.85	11.7
533.048	11.78
533.246	11.82
533.444	11.83
533.642	11.91
533.84	11.95
534.038	12
534.236	12.05
534.434	12.15
534.632	12.22
534.83	12.32
535.027	12.38
535.225	12.37
535.423	12.47
535.621	12.56
535.819	12.59
536.017	12.7
536.215	12.72
536.412	12.8
536.61	12.79
536.808	12.82
537.006	12.9
537.203	12.98
537.401	13.17
537.599	13.17
537.797	13.21
537.994	13.32
538.192	13.38
538.39	13.5
538.587	13.57
538.785	13.65
538.983	13.79
539.18	13.77
539.378	13.84
539.575	13.84
539.773	13.94
539.97	13.92
540.168	13.97
540.366	13.93
540.563	13.93
540.761	13.9
540.958	13.9
541.155	13.92
541.353	13.98
541.55	13.98
541.748	13.97
541.945	13.98
542.143	14.04
542.34	14.1
542.537	14.17
542.735	14.26
542.932	14.38
543.129	14.5
543.327	14.55
543.524	14.69
543.721	14.82
543.919	14.95
544.116	15.1
544.313	15.26
544.51	15.38
544.708	15.59
544.905	15.78
545.102	15.91
545.299	16
545.496	16.12
545.693	16.13
545.891	16.22
546.088	16.35
546.285	16.36
546.482	16.3
546.679	16.24
546.876	16.14
547.073	15.99
547.27	15.93
547.467	15.82
547.664	15.72
547.861	15.71
548.058	15.75
548.255	15.66
548.452	15.65
548.649	15.67
548.846	15.69
549.043	15.71
549.24	15.77
549.437	15.81
549.633	15.93
549.83	16.05
550.027	16.09
550.224	15.91
550.421	15.9
550.618	15.84
550.814	15.82
551.011	15.8
551.208	15.97
551.405	15.99
551.601	15.87
551.798	15.86
551.995	15.76
552.191	15.76
552.388	15.9
552.585	15.78
552.781	15.77
552.978	15.82
553.175	15.75
553.371	15.63
553.568	15.56
553.764	15.61
553.961	15.49
554.157	15.49
554.354	15.48
554.55	15.34
554.747	15.47
554.943	15.46
555.14	15.59
555.336	15.71
555.533	15.72
555.729	15.77
555.926	15.89
556.122	16.06
556.318	16.15
556.515	16.09
556.711	16.14
556.907	16.2
557.104	16.3
557.3	16.13
557.496	15.99
557.693	16.02
557.889	16.02
558.085	15.92
558.281	15.83
558.478	15.95
558.674	15.92
558.87	15.99
559.066	15.92
559.262	16.02
559.459	15.92
559.655	16.08
559.851	16.04
560.047	16.1
560.243	16.25
560.439	16.3
560.635	16.24
560.831	16.28
561.027	16.32
561.223	16.26
561.419	16.06
561.615	16.11
561.811	16.22
562.007	16.17
562.203	16.19
562.399	16.15
562.595	16.1
562.791	16.16
562.987	16.17
563.183	16.14
563.379	16.28
563.575	16.43
563.771	16.49
563.966	16.37
564.162	16.51
564.358	16.42
564.554	16.4
564.75	16.37
564.945	16.28
565.141	16.22
565.337	16.12
565.533	16.05
565.728	15.92
565.924	15.98
566.12	15.97
566.315	15.85
566.511	15.83
566.707	15.69
566.902	15.73
567.098	15.81
567.293	15.92
567.489	16
567.684	16
567.88	16.01
568.076	15.9
568.271	16
568.467	16.09
568.662	16.07
568.858	16.23
569.053	16.27
569.248	16.25
569.444	16.15
569.639	16.04
569.835	16.04
570.03	16.12
570.225	16
570.421	15.89
570.616	15.85
570.812	15.91
571.007	15.92
571.202	15.87
571.397	15.9
571.593	15.82
571.788	15.92
571.983	15.91
572.178	15.96
572.374	16.11
572.569	16.13
572.764	16.22
572.959	16.26
573.154	16.26
573.35	16.33
573.545	16.29
573.74	16.42
573.935	16.33
574.13	16.31
574.325	16.23
574.52	16.33
574.715	16.4
574.91	16.44
575.105	16.46
575.3	16.49
575.495	16.56
575.69	16.64
575.885	16.77
576.08	16.9
576.275	17.04
576.47	17.11
576.665	17.12
576.86	17.12
577.055	17.06
577.25	17.1
577.444	17.14
577.639	17.23
577.834	17.22
578.029	17.27
578.224	17.32
578.418	17.31
578.613	17.39
578.808	17.39
579.003	17.52
579.197	17.68
579.392	17.67
579.587	17.77
579.781	17.67
579.976	17.69
580.171	17.67
580.365	17.83
580.56	17.95
580.755	18.04
580.949	18.03
581.144	17.99
581.338	17.94
581.533	18.09
581.727	18.13
581.922	18.03
582.116	18.09
582.311	18.08
582.505	17.91
582.7	17.89
582.894	17.76
583.089	17.91
583.283	17.87
583.478	17.74
583.672	17.68
583.866	17.68
584.061	17.8
584.255	17.66
584.449	17.68
584.644	17.77
584.838	17.86
585.032	18
585.226	17.83
585.421	18.06
585.615	18.37
585.809	18.33
586.003	18.28
586.198	18.39
586.392	18.54
586.586	18.58
586.78	18.49
586.974	18.46
587.168	18.4
587.363	18.56
587.557	18.29
587.751	18.19
587.945	18.05
588.139	17.95
588.333	17.91
588.527	17.92
588.721	17.68
588.915	17.72
589.109	17.74
589.303	17.64
589.497	17.37
589.691	17.42
589.885	17.34
590.079	17.59
590.273	17.56
590.466	17.56
590.66	17.53
590.854	17.82
591.048	17.84
591.242	17.8
591.436	17.99
591.629	18.22
591.823	18.43
592.017	18.57
592.211	18.42
592.404	18.54
592.598	18.62
592.792	18.57
592.986	18.48
593.179	18.45
593.373	18.39
593.567	18.34
593.76	18.25
593.954	18.11
594.147	18
594.341	17.93
594.535	17.94
594.728	17.86
594.922	17.73
595.115	17.71
595.309	17.62
595.502	17.63
595.696	17.47
595.889	17.52
596.083	17.4
596.276	17.33
596.47	17.49
596.663	17.41
596.856	17.39
597.05	17.5
597.243	17.5
597.437	17.69
597.63	17.73
597.823	17.86
598.017	17.87
598.21	18.1
598.403	18.2
598.596	18.24
598.79	18.32
598.983	18.5
599.176	18.66
599.369	18.66
599.563	18.67
599.756	18.8
599.949	18.79
600.142	18.86
600.335	18.85
600.528	18.82
600.722	18.81
600.915	18.87
601.108	18.79
601.301	18.77
601.494	18.85
601.687	18.63
601.88	18.68
602.073	18.68
602.266	18.55
602.459	18.51
602.652	18.48
602.845	18.3
603.038	18.07
603.231	18.06
603.424	17.95
603.617	17.84
603.809	17.82
604.002	17.56
604.195	17.5
604.388	17.61
604.581	17.55
604.774	17.53
604.966	17.66
605.159	17.79
605.352	17.62
605.545	17.71
605.737	17.8
605.93	17.83
606.123	18.06
606.316	18.2
606.508	18.22
606.701	18.31
606.894	18.45
607.086	18.59
607.279	18.77
607.471	19.06
607.664	19.14
607.857	19.32
608.049	19.65
608.242	19.77
608.434	20.06
608.627	20.42
608.819	20.8
609.012	21.29
609.204	21.83
609.397	22.52
609.589	23.22
609.782	23.99
609.974	24.84
610.166	25.64
610.359	26.45
610.551	27.2
610.743	27.78
610.936	28.34
611.128	28.85
611.32	29.24
611.513	29.3
611.705	29.43
611.897	29.37
612.09	29.02
612.282	28.77
612.474	28.37
612.666	28.05
612.858	27.71
613.051	27.62
613.243	26.95
613.435	26.36
613.627	25.96
613.819	25.47
614.011	25.23
614.203	25.12
614.395	24.66
614.588	24.49
614.78	24.23
614.972	23.92
615.164	23.61
615.356	23.48
615.548	23.26
615.74	23.23
615.932	23.02
616.124	22.82
616.315	22.51
616.507	22.56
616.699	22.29
616.891	21.97
617.083	21.84
617.275	21.47
617.467	21.44
617.659	21.41
617.85	21.14
618.042	20.97
618.234	20.65
618.426	20.46
618.618	20.2
618.809	20.19
619.001	20.22
619.193	20.27
619.384	20.29
619.576	20.37
619.768	20.38
619.959	20.36
620.151	20.41
620.343	20.39
620.534	20.56
620.726	20.65
620.917	20.64
621.109	20.75
621.301	20.82
621.492	20.82
621.684	20.75
621.875	20.73
622.067	20.9
622.258	21.21
622.45	21.47
622.641	21.31
622.832	21.4
623.024	21.61
623.215	21.38
623.407	21.38
623.598	21.38
623.789	21.37
623.981	21.35
624.172	21.24
624.363	21.09
624.555	20.99
624.746	20.87
624.937	20.75
625.129	20.53
625.32	20.68
625.511	20.56
625.702	20.44
625.893	20.52
626.085	20.56
626.276	20.5
626.467	20.44
626.658	20.22
626.849	20.25
627.04	20.2
627.231	20.25
627.422	20.35
627.614	20.4
627.805	20.53
627.996	20.45
628.187	20.63
628.378	20.51
628.569	20.55
628.76	20.93
628.951	21.02
629.142	21.22
629.332	21.38
629.523	21.29
629.714	21.41
629.905	21.63
630.096	21.75
630.287	21.68
630.478	22.02
630.669	22.16
630.859	22.01
631.05	22.06
631.241	21.86
631.432	21.66
631.623	21.59
631.813	21.38
632.004	21.12
632.195	20.79
632.385	20.58
632.576	20.36
632.767	20.1
632.957	20.26
633.148	20.15
633.339	20.19
633.529	20.2
633.72	20.16
633.91	20.06
634.101	20.12
634.292	20.27
634.482	20.33
634.673	20.36
634.863	20.42
635.054	20.19
635.244	20.15
635.435	20.18
635.625	20.01
635.815	19.91
636.006	20.16
636.196	19.91
636.387	19.96
636.577	19.89
636.767	20.02
636.958	20.03
637.148	20.06
637.338	20.34
637.529	20.45
637.719	20.67
637.909	20.9
638.099	20.62
638.29	20.8
638.48	20.83
638.67	21.08
638.86	20.95
639.05	20.89
639.241	21.07
639.431	20.85
639.621	20.78
639.811	20.74
640.001	20.75
640.191	20.81
640.381	20.86
640.571	20.86
640.761	20.66
640.951	20.9
641.141	20.89
641.331	20.9
641.521	20.99
641.711	20.92
641.901	20.9
642.091	20.91
642.281	20.96
642.471	21.13
642.661	21.22
642.851	21.3
643.041	21.23
643.231	21.37
643.42	21.35
643.61	21.49
643.8	21.45
643.99	21.55
644.18	21.62
644.369	21.79
644.559	21.74
644.749	21.67
644.939	21.6
645.128	21.39
645.318	21.29
645.508	21.2
645.697	20.98
645.887	21.22
646.076	21.06
646.266	20.89
646.456	20.97
646.645	20.7
646.835	20.63
647.024	20.73
647.214	20.76
647.403	20.89
647.593	20.87
647.782	21.09
647.972	20.77
648.161	20.96
648.351	21.12
648.54	20.92
648.73	21.25
648.919	21.34
649.108	21.27
649.298	21.37
649.487	21.19
649.677	21.16
649.866	21.08
650.055	21.44
650.244	21.4
650.434	21.41
650.623	21.47
650.812	21.36
651.002	21.3
651.191	21.55
651.38	21.71
651.569	22.03
651.758	22.24
651.947	22.24
652.137	22.15
652.326	22.14
652.515	21.93
652.704	21.87
652.893	21.9
653.082	21.87
653.271	21.63
653.46	21.6
653.649	21.61
653.838	21.45
654.027	21.55
654.216	21.63
654.405	21.78
654.594	21.75
654.783	21.84
654.972	21.74
655.161	21.97
655.35	22.03
655.539	21.86
655.728	21.63
655.916	21.82
656.105	21.71
656.294	21.71
656.483	21.54
656.672	21.75
656.86	21.77
657.049	21.81
657.238	21.46
657.427	21.34
657.615	21.2
657.804	21.1
657.993	20.81
658.181	20.71
658.37	20.43
658.559	20.62
658.747	20.51
658.936	20.5
659.125	20.46
659.313	20.64
659.502	20.68
659.69	20.78
659.879	20.86
660.067	21.08
660.256	21.21
660.444	21.39
660.633	21.35
660.821	21.33
661.01	21.3
661.198	21.33
661.387	21.24
661.575	21.26
661.763	21.46
661.952	21.75
662.14	21.87
662.328	21.72
662.517	21.79
662.705	21.76
662.893	21.91
663.082	22.04
663.27	22.3
663.458	22.32
663.646	22.52
663.834	22.6
664.023	22.29
664.211	22.17
664.399	22.63
664.587	22.64
664.775	22.6
664.963	22.66
665.152	22.75
665.34	22.63
665.528	22.98
665.716	23.12
665.904	22.88
666.092	23.09
666.28	23.33
666.468	23.09
666.656	23.35
666.844	23.58
667.032	23.79
667.22	23.69
667.408	23.89
667.596	23.7
667.784	23.46
667.971	23.62
668.159	23.65
668.347	23.38
668.535	23.46
668.723	23.23
668.911	23.06
669.098	22.86
669.286	23.05
669.474	22.73
669.662	22.79
669.849	22.98
670.037	22.97
670.225	22.82
670.413	22.98
670.6	23.04
670.788	23.09
670.976	23
671.163	23.13
671.351	23.13
671.538	23.2
671.726	23.17
671.913	23.12
672.101	22.86
672.289	22.86
672.476	22.61
672.664	22.32
672.851	22.56
673.039	22.71
673.226	22.76
673.413	22.44
673.601	22.54
673.788	22.76
673.976	22.84
674.163	23.03
674.35	23.18
674.538	23.4
674.725	23.98
674.912	23.89
675.1	23.86
675.287	23.85
675.474	23.9
675.662	23.78
675.849	23.84
676.036	23.83
676.223	23.83
676.411	23.89
676.598	23.82
676.785	23.42
676.972	23.17
677.159	22.86
677.346	22.61
677.533	22.82
677.721	22.99
677.908	22.75
678.095	22.49
678.282	22.64
678.469	22.19
678.656	22.06
678.843	22.11
679.03	22.32
679.217	22.68
679.404	22.97
679.591	22.85
679.778	22.78
679.964	22.76
680.151	22.86
680.338	22.66
680.525	22.93
680.712	22.95
680.899	22.93
681.086	22.97
681.272	22.9
681.459	22.59
681.646	22.72
681.833	22.97
682.02	23.02
682.206	23.21
682.393	23.4
682.58	23.34
682.766	23.59
682.953	23.61
683.14	23.54
683.326	23.74
683.513	24.13
683.7	24.03
683.886	23.81
684.073	23.97
684.259	23.7
684.446	24.04
684.632	24.19
684.819	24.21
685.005	24.35
685.192	24.61
685.378	24.44
685.565	24.07
685.751	24.03
685.938	23.9
686.124	23.93
686.31	24.23
686.497	23.88
686.683	23.79
686.87	23.63
687.056	23.58
687.242	23.14
687.429	23.17
687.615	23.23
687.801	23.06
687.987	23.28
688.174	23.33
688.36	23.04
688.546	23.25
688.732	23.12
688.918	23.01
689.105	23.11
689.291	23.25
689.477	23.42
689.663	23.77
689.849	23.95
690.035	24.2
690.221	24.39
690.407	24.48
690.593	24.24
690.779	24.54
690.965	24.65
691.151	24.46
691.337	24.84
691.523	25.09
691.709	25.1
691.895	25.36
692.081	25.18
692.267	25.12
692.453	25.47
692.639	25.62
692.825	25.75
693.011	25.87
693.196	25.8
693.382	25.38
693.568	24.78
693.754	24.62
693.94	24.58
694.125	24.63
694.311	24.43
694.497	24.27
694.682	24.29
694.868	24.37
695.054	24.38
695.239	24.74
695.425	24.94
695.611	25.25
695.796	25.28
695.982	25.01
696.168	24.51
696.353	24.32
696.539	24.06
696.724	23.8
696.91	23.54
697.095	23.59
697.281	23.27
697.466	23.05
697.652	22.77
697.837	22.4
698.023	22.61
698.208	22.66
698.393	22.73
698.579	22.79
698.764	22.79
698.949	22.56
699.135	22.38
699.32	22.54
699.505	22.48
699.691	22.68
699.876	22.95
700.061	22.93
700.246	23.06
700.432	23.13
700.617	23.28
700.802	23.62
700.987	23.81
701.172	23.98
701.358	24.27
701.543	24.61
701.728	25
701.913	25.18
702.098	25.58
702.283	25.62
702.468	25.55
702.653	25.74
702.838	25.86
703.023	26.47
703.208	26.87
703.393	26.98
703.578	27.15
703.763	27.14
703.948	27.37
704.133	27.3
704.318	27.7
704.503	28.45
704.688	28.87
704.873	28.8
705.057	28.76
705.242	28.78
705.427	28.73
705.612	29.07
705.797	29.41
705.981	29.22
706.166	29.4
706.351	29.68
706.536	29.39
706.72	29.29
706.905	29.79
707.09	29.78
707.274	30.08
707.459	29.92
707.644	29.67
707.828	29.38
708.013	29.82
708.197	29.56
708.382	29.46
708.567	29.71
708.751	29.42
708.936	28.91
709.12	28.95
709.305	28.57
709.489	28.59
709.673	28.62
709.858	28.25
710.042	28.11
710.227	28.05
710.411	27.83
710.596	27.28
710.78	27.43
710.964	27.89
711.149	28.17
711.333	28.41
711.517	28.37
711.702	28.15
711.886	28.16
712.07	27.63
712.254	27.73
712.438	27.5
712.623	27.71
712.807	27.7
712.991	27.43
713.175	26.81
713.359	26.58
713.544	26.55
713.728	26.8
713.912	26.73
714.096	26.75
714.28	26.42
714.464	26.71
714.648	26.59
714.832	26.48
715.016	26.33
715.2	26.75
715.384	26.62
715.568	26.98
715.752	26.7
715.936	26.85
716.12	26.97
716.304	27.17
716.488	27.45
716.671	27.44
716.855	27.49
717.039	27.3
717.223	27.12
717.407	27.02
717.59	26.7
717.774	27.06
717.958	27.16
718.142	27.18
718.325	27.04
718.509	26.82
718.693	26.35
718.877	25.97
719.06	26.2
719.244	26.23
719.428	26.82
719.611	26.63
719.795	26.1
719.978	26.26
720.162	26.27
720.345	26.5
720.529	26.68
720.713	27.21
720.896	27.43
721.08	27.75
721.263	28.21
721.446	28.12
721.63	28.18
721.813	28.58
721.997	28.63
722.18	29.32
722.364	29.5
722.547	28.7
722.73	28.68
722.914	28.99
723.097	28.8
723.28	28.53
723.464	28.72
723.647	29.09
723.83	29.15
724.013	28.99
724.197	28.66
724.38	28.59
724.563	29.2
724.746	29.23
724.929	28.99
725.112	28.39
725.296	28.16
725.479	28.14
725.662	28.24
725.845	28.07
726.028	27.97
726.211	27.68
726.394	27.39
726.577	27.61
726.76	27.67
726.943	27.2
727.126	27.31
727.309	27.24
727.492	26.87
727.675	27
727.858	26.92
728.041	26.63
728.224	26.69
728.407	27.13
728.589	26.87
728.772	26.61
728.955	27.45
729.138	27.44
729.321	27.46
729.503	27.18
729.686	26.47
729.869	26.66
730.052	26.86
730.234	26.79
730.417	26.86
730.6	26.62
730.782	26.78
730.965	26.34
731.148	26.53
731.33	26.81
731.513	26.88
731.695	26.97
731.878	26.96
732.061	26.95
732.243	26.93
732.426	26.41
732.608	26.7
732.791	26.37
732.973	26.34
733.156	26.66
733.338	26.1
733.52	26.3
733.703	26.48
733.885	26.09
734.068	26.14
734.25	26.47
734.432	26.54
734.615	26.52
734.797	26.57
734.979	26.38
735.162	26.59
735.344	27.14
735.526	27.38
735.708	28.02
735.891	28.47
736.073	28.91
736.255	29.2
736.437	29.97
736.619	30.18
736.802	30.93
736.984	31.32
737.166	32
737.348	32.17
737.53	31.79
737.712	31.19
737.894	31.36
738.076	30.94
738.258	30.57
738.44	30.25
738.622	29.91
738.804	29.56
738.986	29.81
739.168	28.86
739.35	28.87
739.532	29.15
739.714	29.46
739.896	29.19
740.078	29.59
740.259	29.73
740.441	29.62
740.623	29.83
740.805	29.93
740.987	29.31
741.168	29.86
741.35	29.65
741.532	29.76
741.714	29.42
741.895	29.3
742.077	29.41
742.259	30.26
742.44	30.77
742.622	30.16
742.804	30.16
742.985	31.03
743.167	30.79
743.348	31.19
743.53	31.57
743.711	32.44
743.893	33.18
744.075	33.14
744.256	32.8
744.438	32.14
744.619	33.43
744.8	33.76
744.982	34.03
745.163	34.16
745.345	33.71
745.526	33.43
745.707	32.65
745.889	32.53
746.07	32.26
746.252	32.05
746.433	32.2
746.614	31.45
746.795	30.95
746.977	30.87
747.158	30.7
747.339	30.95
747.52	31.09
747.702	31.7
747.883	31.6
748.064	31.5
748.245	31.7
748.426	31.85
748.607	32.69
748.788	33.18
748.97	33.33
749.151	33.47
749.332	33.22
749.513	32.65
749.694	32.4
749.875	32.88
750.056	32.78
750.237	32.45
750.418	32.64
750.599	31.81
750.78	31.95
750.96	31.64
751.141	32.07
751.322	32.75
751.503	33.25
751.684	32.72
751.865	31.91
752.046	32.28
752.226	31.57
752.407	31.12
752.588	31.27
752.769	31.07
752.949	31.06
753.13	30.33
753.311	29.95
753.492	30.12
753.672	31.02
753.853	31.83
754.034	32.1
754.214	32.52
754.395	32.72
754.575	33.58
754.756	33.51
754.937	33.66
755.117	33.73
755.298	34.19
755.478	34.16
755.659	33.72
755.839	33.55
756.02	33.41
756.2	33.31
756.381	33.55
756.561	33.01
756.741	33.1
756.922	32.85
757.102	33.23
757.283	33.05
757.463	33.32
757.643	33.92
757.823	33.15
758.004	32.64
758.184	32.88
758.364	32.58
758.545	32.31
758.725	31.52
758.905	31.19
759.085	31.51
759.265	31.33
759.446	30.62
759.626	29.73
759.806	30.37
759.986	31.3
760.166	31.19
760.346	31.05
760.526	30.56
760.706	31.06
760.886	31.25
761.066	30.32
761.246	29.98
761.426	30.35
761.606	30.28
761.786	29.8
761.966	28.48
762.146	27.73
762.326	27.37
762.506	27.45
762.686	27.31
762.866	26.95
763.046	26.67
763.225	26.62
763.405	26.52
763.585	26.25
763.765	26.57
763.945	26.96
764.124	26.85
764.304	27.15
764.484	27.26
764.664	27.71
764.843	27.7
765.023	27.86
765.203	28.27
765.382	28.28
765.562	28.85
765.741	28.69
765.921	29.29
766.101	30.64
766.28	30.78
766.46	31.2
766.639	31.39
766.819	32.23
766.998	32.42
767.178	32.36
767.357	32.81
767.537	32.84
767.716	33.43
767.896	33.03
768.075	33.58
768.254	33.47
768.434	33.77
768.613	33.26
768.792	33.51
768.972	34.19
769.151	34.48
769.33	34.34
769.51	34.18
769.689	34.23
769.868	34.52
770.047	33.31
770.226	34.1
770.406	33.58
770.585	34.04
770.764	34.02
770.943	33.61
771.122	33.45
771.301	33.87
771.48	34.58
771.66	34.12
771.839	33.88
772.018	34.27
772.197	34.16
772.376	35.1
772.555	35.81
772.734	35.17
772.913	35.74
773.092	36.04
773.271	35.97
773.449	35.86
773.628	36.35
773.807	36.91
773.986	37.74
774.165	37.84
774.344	37.24
774.523	37.12
774.701	38.63
774.88	39.53
775.059	39.84
775.238	39.17
775.417	38.73
775.595	39.66
775.774	39.89
775.953	39.35
776.131	39.6
776.31	39.57
776.489	38.92
776.667	38.35
776.846	37.54
777.025	36.96
777.203	37.79
777.382	38.51
777.56	37.46
777.739	36.26
777.917	36.39
778.096	36.48
778.274	37.16
778.453	37.62
778.631	38.34
778.81	37.96
778.988	37.38
779.166	36.86
779.345	37.14
779.523	37.66
779.702	39
779.88	38.18
780.058	37.8
780.237	38.29
780.415	39.07
780.593	37.91
780.771	39.26
780.95	39.9
781.128	41.57
781.306	41.34
781.484	40.59
781.662	39.41
781.841	40.17
782.019	39.53
782.197	38.46
782.375	37.32
782.553	37.99
782.731	37.44
782.909	39.09
783.087	37.83
783.265	38.14
783.443	38.85
783.621	39.94
783.799	40.9
783.977	42.5
784.155	43.69
784.333	44.27
784.511	43.13
784.689	42.92
784.867	42.52
785.045	42.94
785.223	43.49
785.4	43.42
785.578	43.63
785.756	43.03
785.934	42.73
786.112	41.64
786.289	42.41
786.467	43.03
786.645	43.42
786.823	42.05
787	40.61
787.178	40.44
787.356	39.65
787.533	38.42
787.711	37.85
787.889	37.64
788.066	37.52
788.244	36.29
788.421	35.3
788.599	34.32
788.776	34.96
788.954	34.64
789.131	33.24
789.309	33.9
789.486	35.2
789.664	35.5
789.841	34.9
790.019	35.38
790.196	35.89
790.373	36.25
790.551	36.85
790.728	36.26
790.906	36.85
791.083	38.03
791.26	37.98
791.437	37.15
791.615	37.78
791.792	38.23
791.969	38.6
792.146	38.75
792.324	39.37
792.501	39.45
792.678	39.68
792.855	40.51
793.032	39.58
793.209	39.51
793.387	38.83
793.564	38.53
793.741	39.61
793.918	39.48
794.095	38.62
794.272	38.55
794.449	37.92
794.626	38.16
794.803	38.92
794.98	39.77
795.157	39.53
795.334	40.88
795.511	40.69
795.688	39.32
795.864	38.26
796.041	39.28
796.218	39.73
796.395	40.38
796.572	39.41
796.749	38.2
796.925	38.01
797.102	38.2
797.279	38.31
797.456	38.06
797.632	38.99
797.809	39.86
797.986	39.14
798.162	39.5
798.339	39.21
798.516	40.61
798.692	41.29
798.869	40.97
799.046	41.81
799.222	41.09
799.399	41.04
799.575	40.4
799.752	40.59
799.928	41.75
800.105	40.97
800.281	40.79
800.458	40.94
800.634	41.13
800.811	41.05
800.987	40.2
801.163	40.12
801.34	41.26
801.516	41.19
801.692	40.74
801.869	39.63
802.045	40.23
802.221	40.17
802.398	40
802.574	38.63
802.75	39.44
802.926	39.84
803.103	40.09
803.279	39.01
803.455	39.39
803.631	39.27
803.807	40.33
803.983	41
804.16	42.17
804.336	41.16
804.512	43.19
804.688	43.66
804.864	42.53
805.04	42.9
805.216	43.73
805.392	44.81
805.568	46.07
805.744	45.28
805.92	44.24
806.096	43.23
806.272	44.75
806.448	44.85
806.623	43.78
806.799	45.68
806.975	45.77
807.151	45.36
807.327	45.16
807.503	44.69
807.678	44.67
807.854	44.1
808.03	45.07
808.206	46.08
808.381	45.2
808.557	46.12
808.733	45.17
808.908	45.44
809.084	44.81
809.26	43.8
809.435	45.29
809.611	46.08
809.787	46.47
809.962	46.81
810.138	45.31
810.313	45.54
810.489	44.39
810.664	44.81
810.84	43.26
811.015	43.18
811.191	43.79
811.366	42.22
811.542	42.6
811.717	41.64
811.892	41.46
812.068	41.43
812.243	41.49
812.419	42.82
812.594	41.71
812.769	42.76
812.944	43.91
813.12	43.29
813.295	42.98
813.47	41.74
813.645	42.54
813.821	42.13
813.996	41.61
814.171	41.29
814.346	40.76
814.521	42.6
814.697	42.96
814.872	43.21
815.047	44.03
815.222	44.51
815.397	44.39
815.572	44.38
815.747	43.33
815.922	41.95
816.097	42.31
816.272	42.48
816.447	42.67
816.622	43.24
816.797	42.66
816.972	42.37
817.147	42.44
817.322	41.36
817.496	40.32
817.671	41.39
817.846	42
818.021	39.56
818.196	39.5
818.371	38.38
818.545	37.17
818.72	37.46
818.895	38.22
819.069	36.72
819.244	37.1
819.419	37.39
819.594	35.97
819.768	35.6
819.943	35.97
820.117	33.9
820.292	32.39
820.467	31.35
820.641	30.41
820.816	28.49
820.99	27.89
821.165	26.37
821.339	25.26
821.514	24.78
821.688	24.09
821.863	23.32
822.037	23.15
822.212	22.58
822.386	22.14
822.56	21.75
822.735	21.64
822.909	21.75
823.084	22
823.258	22.16
823.432	22.15
823.606	22.46
823.781	22.89
823.955	23.21
824.129	23.77
824.303	24.5
824.478	24.58
824.652	25.05
824.826	25.11
825	25.76
825.174	26.48
825.348	27.11
825.523	26.88
825.697	26.91
825.871	26.63
826.045	26.99
826.219	26.93
826.393	27.11
826.567	27.1
826.741	26.95
826.915	26.62
827.089	26.26
827.263	26.2
827.437	26.53
827.611	26.46
827.784	26.89
827.958	26.96
828.132	26.99
828.306	27.33
828.48	27.29
828.654	27.92
828.827	28.71
829.001	28.97
829.175	29.71
829.349	31
829.522	32.59
829.696	33.14
829.87	33.43
830.044	34.47
830.217	35.78
830.391	36.29
830.565	37.33
830.738	37.09
830.912	39.08
831.085	38.1
831.259	37.97
831.432	37.27
831.606	38.59
831.779	37.69
831.953	37.85
832.126	36.55
832.3	37.91
832.473	36.46
832.647	35.7
832.82	34.65
832.994	34.86
833.167	34.36
833.34	33.99
833.514	32.69
833.687	32.6
833.86	31.36
834.034	31.66
834.207	31.2
834.38	31.59
834.553	31.81
834.727	32.12
834.9	32.06
835.073	31.87
835.246	31.98
835.419	33.14
835.593	34.94
835.766	35.83
835.939	36.56
836.112	37.29
836.285	37.51
836.458	38.92
836.631	39.27
836.804	40.48
836.977	41.62
837.15	43.7
837.323	43.92
837.496	43.7
837.669	43.64
837.842	43.57
838.015	44.88
838.188	47.21
838.361	48.25
838.533	48.95
838.706	47.22
838.879	47.98
839.052	47.56
839.225	47.32
839.398	47.1
839.57	48.59
839.743	48.7
839.916	47.97
840.088	45.77
840.261	45.39
840.434	45.23
840.607	47.97
840.779	46.07
840.952	45.62
841.124	45.48
841.297	44.36
841.47	45.72
841.642	46.18
841.815	45.44
841.987	47.67
842.16	49.11
842.332	50.78
842.505	51.24
842.677	55.13
842.85	55.99
843.022	57.47
843.194	60.89
843.367	61.6
843.539	61.99
843.712	64.23
843.884	66.55
844.056	65.59
844.229	66
844.401	68.08
844.573	69.36
844.745	70.6
844.918	71.57
845.09	71.41
845.262	71.74
845.434	74.76
845.606	74.73
845.779	72.9
845.951	73.58
846.123	73.9
846.295	72.58
846.467	71.28
846.639	72.11
846.811	71.96
846.983	72.29
847.155	71.55
847.327	72
847.499	74.17
847.671	75.33
847.843	74.39
848.015	73.71
848.187	75.28
848.359	69.9
848.531	70.64
848.703	69.57
848.875	74.24
849.047	74.79
849.218	74.36
849.39	73.51
849.562	73.44
849.734	74.1
849.905	74.82
850.077	73.3
850.249	80.52
850.421	78.84
850.592	81.2
850.764	76.27
850.936	76.43
851.107	76.54
851.279	77.01
851.451	77.85
851.622	78.4
851.794	81.38
851.965	82.83
852.137	80.95
852.308	79.79
852.48	79.14
852.651	76.83
852.823	76.84
852.994	74.34
853.166	73.29
853.337	71.28
853.509	68.32
853.68	67.51
853.851	62.68
854.023	63.84
854.194	62.36
854.365	61.29
854.537	64.49
854.708	62.97
854.879	68.19
855.05	70.52
855.222	73.05
855.393	77.15
855.564	78.05
855.735	86.35
855.906	85.79
856.078	89.48
856.249	89.35
856.42	90.93
856.591	95.8
856.762	93.11
856.933	90.58
857.104	88.8
857.275	87.05
857.446	84.71
857.617	78.95
857.788	81.1
857.959	80.41
858.13	82.9
858.301	79.88
858.472	78.04
858.643	76.67
858.814	76.82
858.985	80.42
859.155	88.36
859.326	90.94
859.497	94.84
859.668	89.47
859.839	94.98
860.009	91.95
860.18	92.04
860.351	92.81
860.522	96.81
860.692	96.19
860.863	90.67
861.034	81.66
861.204	83.56
861.375	81.1
861.546	84.93
861.716	84.59
861.887	84.96
862.057	83.82
862.228	86.55
862.398	82.31
862.569	84.9
862.739	90.88
862.91	95.14
863.08	88.26
863.251	86.45
863.421	83.98
863.592	80.11
863.762	83.94
863.932	83.86
864.103	84.52
864.273	88.3
864.443	82.45
864.614	78.57
864.784	73.24
864.954	77.06
865.125	78.5
865.295	81.31
865.465	80.71
865.635	82.68
865.805	87.63
865.976	82.52
866.146	79.71
866.316	84.75
866.486	88.91
866.656	92.91
866.826	95.19
866.996	97.91
867.166	97.52
867.336	103.04
867.506	105.04
867.676	101.52
867.846	103.93
868.016	106.51
868.186	100.03
868.356	94.61
868.526	92.82
868.696	97.03
868.866	94.42
869.036	97.1
869.206	97.66
869.376	90.36
869.545	91.9
869.715	92.68
869.885	94.71
870.055	103.64
870.224	103.17
870.394	104.59
870.564	96.86
870.734	100.7
870.903	101.86
871.073	100
871.243	97.49
871.412	100.03
871.582	102.61
871.751	97
871.921	89.99
872.091	92.53
872.26	90.55
872.43	91.55
872.599	90.35
872.769	87.38
872.938	85.63
873.108	84.11
873.277	78.95
873.446	74.78
873.616	77.51
873.785	81.3
873.955	81.07
874.124	81.93
874.293	80.67
874.463	78.88
874.632	79.29
874.801	81.44
874.971	85.77
875.14	89.8
875.309	88.25
875.478	93.43
875.647	89.86
875.817	92.15
875.986	91.35
876.155	95.43
876.324	91.49
876.493	90.68
876.662	89.72
876.831	93.23
877	91.62
877.17	94.29
877.339	88.2
877.508	88.06
877.677	84.6
877.846	83.94
878.015	78.95
878.184	80.56
878.352	82.18
878.521	79.74
878.69	76.25
878.859	74.33
879.028	71.31
879.197	70.54
879.366	68.41
879.534	64.81
879.703	62.8
879.872	58.8
880.041	55.54
880.21	50.58
880.378	47.37
880.547	44.06
880.716	40.71
880.884	38.04
881.053	35.51
881.222	33.12
881.39	31.79
881.559	30.86
881.727	29.21
881.896	29.24
882.065	28.61
882.233	27.97
882.402	27.32
882.57	27.67
882.739	28.8
882.907	28.96
883.076	29.9
883.244	29.96
883.412	30.6
883.581	31.29
883.749	31.46
883.918	31.9
884.086	32.93
884.254	34.85
884.423	34.79
884.591	34.54
884.759	36.67
884.927	37.62
885.096	38.16
885.264	38.25
885.432	40.34
885.6	40.74
885.769	43.01
885.937	43.55
886.105	44.2
886.273	48.06
886.441	52.38
886.609	50.64
886.777	51.59
886.945	56.77
887.113	58.84
887.281	59.52
887.449	62.57
887.617	62.95
887.785	68.39
887.953	70.36
888.121	71.87
888.289	69.47
888.457	70.05
888.625	74.21
888.793	72.77
888.961	73.86
889.129	75.94
889.296	76.49
889.464	77.39
889.632	73.98
889.8	70.31
889.967	69.27
890.135	72.88
