Data from 2938734__Reflection_01.txt Node
Date: Sun Mar 15 18:28:03 EDT 2015
User: robert
Spectrometer: USB4E03002
Autoset integration time: false
Trigger mode: 4
Integration Time (sec): 1.000000E-1
Scans to average: 10
Electric dark correction enabled: false
Nonlinearity correction enabled: false
Boxcar width: 5
Stray light correction enabled: false
XAxis mode: Wavelengths
Stop averaging: false
Number of Pixels in Spectrum: 3648
>>>>>Begin Spectral Data<<<<<
177.575	401.05
177.794	427.6
178.014	375.34
178.233	535.82
178.452	540.88
178.672	330.4
178.891	387.03
179.11	481.3
179.33	375.81
179.549	-5416.67
179.768	1104.35
179.987	221.74
180.207	133.59
180.426	108.76
180.645	148.99
180.864	235.45
181.084	254.05
181.303	280.49
181.522	-631.82
181.741	-153.49
181.96	-829.41
182.179	-269.23
182.398	-178.57
182.618	-103.74
182.837	-22.7
183.056	-33.54
183.275	-996.3
183.494	-63.73
183.713	547.44
183.932	118.6
184.151	99.8
184.37	103.45
184.589	108.98
184.808	92.23
185.027	74.52
185.246	100.75
185.465	155.41
185.684	-31.91
185.903	10.23
186.122	-93.33
186.341	164.29
186.56	-29.23
186.779	-700
186.998	-75.86
187.216	3283.33
187.435	1585.71
187.654	134.73
187.873	302.7
188.092	112.5
188.311	67.92
188.53	139.84
188.748	176.98
188.967	411.11
189.186	-2145.45
189.405	450
189.623	121.05
189.842	93.46
190.061	78.55
190.28	77.36
190.498	81.71
190.717	129.18
190.936	115.97
191.154	68.69
191.373	104.23
191.592	81.26
191.81	92.42
192.029	134.77
192.248	143.89
192.466	138.34
192.685	115.5
192.904	104.44
193.122	102.28
193.341	135.62
193.559	156.06
193.778	175.12
193.996	154.73
194.215	178.22
194.433	154.14
194.652	165.56
194.87	122.27
195.089	160.91
195.307	229.44
195.526	176.04
195.744	241.59
195.963	125.41
196.181	44.68
196.399	114.55
196.618	173.81
196.836	640
197.055	38.24
197.273	34.77
197.491	75
197.71	133
197.928	66.21
198.146	-138.89
198.365	81.82
198.583	155.35
198.801	37.89
199.019	170.18
199.238	-8175
199.456	-227.62
199.674	-31.77
199.892	48.64
200.111	84.92
200.329	98.51
200.547	112.87
200.765	97.63
200.983	196.1
201.202	121.95
201.42	224.35
201.638	279.71
201.856	1251.16
202.074	-474.74
202.292	-1719.05
202.51	-3225
202.728	228.21
202.946	183.41
203.165	418.1
203.383	382.73
203.601	260.1
203.819	234.44
204.037	192.22
204.255	121.92
204.473	72.58
204.691	98.66
204.909	95.6
205.127	152.19
205.345	154.43
205.562	81.87
205.78	56.69
205.998	47.11
206.216	59.38
206.434	43.31
206.652	61.42
206.87	86.47
207.088	50.73
207.306	57.74
207.523	32.67
207.741	35.24
207.959	49.03
208.177	40.64
208.395	54.84
208.612	35.43
208.83	35.2
209.048	22.67
209.266	25.66
209.483	38.42
209.701	31.67
209.919	21.47
210.136	30.55
210.354	17.8
210.572	51.31
210.79	49.4
211.007	55.11
211.225	59.93
211.442	70.52
211.66	72.52
211.878	64.74
212.095	-51.15
212.313	-34.61
212.53	-21.49
212.748	-23.58
212.966	-33.55
213.183	-42.08
213.401	-20.7
213.618	-14.79
213.836	-26.12
214.053	-1.46
214.271	7.01
214.488	134.62
214.705	103.03
214.923	112.35
215.14	111.45
215.358	84.38
215.575	76.91
215.793	54.33
216.01	44.82
216.227	45.41
216.445	32.95
216.662	28.42
216.879	17.07
217.097	22.42
217.314	34.69
217.531	32.95
217.749	31.92
217.966	44.06
218.183	41.33
218.4	44.09
218.618	46.39
218.835	41.43
219.052	33.71
219.269	43.34
219.487	29.94
219.704	26.22
219.921	27.38
220.138	17.77
220.355	0.16
220.572	-8.64
220.79	-11.16
221.007	-32.03
221.224	-15.76
221.441	-19.46
221.658	-30.81
221.875	-9.89
222.092	-4.32
222.309	-9.38
222.526	-1.46
222.743	7.37
222.96	16.71
223.177	17.06
223.394	15.66
223.611	15.55
223.828	19.81
224.045	16.99
224.262	15.17
224.479	12.73
224.696	18.28
224.913	23.96
225.13	22.3
225.347	21.04
225.564	20.83
225.781	21.63
225.997	17.15
226.214	16.17
226.431	15.08
226.648	13.74
226.865	11.38
227.082	6.98
227.298	4.03
227.515	5.05
227.732	3.81
227.949	3.03
228.165	2.44
228.382	4.37
228.599	3.27
228.816	4.67
229.032	4.13
229.249	4.45
229.466	5.81
229.682	6.5
229.899	6.23
230.116	6.95
230.332	7.22
230.549	7.69
230.765	6.91
230.982	7.85
231.199	5.69
231.415	5.94
231.632	7.9
231.848	6.3
232.065	5.29
232.281	4.64
232.498	3.48
232.714	4.18
232.931	4.36
233.147	4.64
233.364	4.73
233.58	7.12
233.797	6.5
234.013	4.36
234.23	5.47
234.446	7.53
234.662	8.97
234.879	9.98
235.095	8.46
235.312	9.21
235.528	9.56
235.744	9.5
235.961	8.91
236.177	10.76
236.393	11.87
236.61	11.48
236.826	10.1
237.042	9.15
237.258	7.56
237.475	8.76
237.691	6.35
237.907	6.12
238.123	4.25
238.339	5.12
238.556	5.19
238.772	3.4
238.988	1.7
239.204	0.79
239.42	0.71
239.636	2
239.853	2.54
240.069	3.71
240.285	4.15
240.501	3.95
240.717	4.32
240.933	3.36
241.149	3.56
241.365	3.89
241.581	4.53
241.797	4.73
242.013	4.54
242.229	3.93
242.445	4.26
242.661	4.25
242.877	5.03
243.093	4.43
243.309	4.56
243.525	4.62
243.741	5.52
243.957	5.37
244.173	5.13
244.388	4.77
244.604	5.13
244.82	4.2
245.036	3.97
245.252	3.69
245.468	3.89
245.683	3.74
245.899	3.57
246.115	3.2
246.331	3.3
246.547	3
246.762	3.11
246.978	3.01
247.194	3.24
247.409	3.12
247.625	3.13
247.841	3.27
248.057	3.47
248.272	3.28
248.488	3.31
248.703	3.07
248.919	3.61
249.135	4.1
249.35	3.85
249.566	3.81
249.782	3.68
249.997	3.64
250.213	3.57
250.428	2.25
250.644	2.26
250.859	1.86
251.075	2.18
251.29	1.54
251.506	1.12
251.721	2.32
251.937	2.47
252.152	2.81
252.368	3.22
252.583	3.48
252.798	4.09
253.014	4.48
253.229	4.85
253.445	5.14
253.66	5.03
253.875	5.18
254.091	4.89
254.306	4.42
254.521	4.58
254.737	4.46
254.952	4.37
255.167	4.93
255.383	4.02
255.598	5.38
255.813	4.83
256.028	4.86
256.244	3.77
256.459	4.44
256.674	4.7
256.889	3.79
257.104	3.42
257.32	3.39
257.535	3.27
257.75	3.47
257.965	2.51
258.18	2.79
258.395	2.71
258.61	2.78
258.826	2.02
259.041	2.04
259.256	2.66
259.471	2.68
259.686	2.38
259.901	2.33
260.116	2.46
260.331	2.44
260.546	2.29
260.761	2.34
260.976	2.48
261.191	2.86
261.406	2.69
261.621	2.43
261.836	2.53
262.05	2.64
262.265	2.46
262.48	1.95
262.695	1.76
262.91	1.41
263.125	1.35
263.34	1.4
263.555	1.06
263.769	1.61
263.984	1.62
264.199	1.23
264.414	0.65
264.629	1.1
264.843	1.68
265.058	1.83
265.273	2.65
265.488	2.91
265.702	1.98
265.917	1.88
266.132	1.69
266.346	1.32
266.561	1.19
266.776	1.57
266.99	1.63
267.205	1.51
267.42	1.12
267.634	1.4
267.849	1.84
268.063	2.32
268.278	1.89
268.492	1.72
268.707	2.06
268.922	1.85
269.136	2.42
269.351	1.85
269.565	2.12
269.78	2.49
269.994	2.03
270.209	1.14
270.423	1.48
270.637	1.65
270.852	1.75
271.066	2.21
271.281	2.43
271.495	2.01
271.709	1.88
271.924	1.95
272.138	1.51
272.353	1.69
272.567	1.81
272.781	1.46
272.996	1.72
273.21	1.87
273.424	1.59
273.638	1.87
273.853	1.69
274.067	2.19
274.281	2.42
274.495	3.03
274.71	3.03
274.924	3.36
275.138	3.47
275.352	3.61
275.566	3.54
275.781	3.5
275.995	3.71
276.209	4.07
276.423	4.09
276.637	3.21
276.851	3.26
277.065	2.92
277.279	2.65
277.493	2.88
277.707	2.78
277.921	3.12
278.135	2.86
278.349	1.87
278.563	1.76
278.777	1.82
278.991	2.64
279.205	2.05
279.419	2.11
279.633	2.61
279.847	2.41
280.061	2.56
280.275	2.45
280.489	2.51
280.703	2.51
280.917	3.14
281.131	3.12
281.344	2.97
281.558	3.11
281.772	3.04
281.986	2.76
282.2	2.96
282.414	3.09
282.627	2.67
282.841	2.59
283.055	3.42
283.269	2.74
283.482	2.83
283.696	2.71
283.91	2.83
284.123	3.25
284.337	3.31
284.551	2.95
284.764	2.79
284.978	3.18
285.192	3.3
285.405	3.11
285.619	3.31
285.833	3.25
286.046	3.24
286.26	3.37
286.473	2.93
286.687	3.18
286.9	3.43
287.114	3.52
287.327	3.42
287.541	3.12
287.754	2.97
287.968	2.84
288.181	2.87
288.395	3.06
288.608	2.94
288.822	2.92
289.035	2.56
289.248	2.83
289.462	2.94
289.675	2.83
289.889	3.24
290.102	3.35
290.315	3.31
290.529	3.1
290.742	2.94
290.955	2.76
291.169	2.81
291.382	2.64
291.595	2.7
291.808	2.4
292.022	2.42
292.235	2.2
292.448	2.09
292.661	2.12
292.875	2.11
293.088	1.98
293.301	2.48
293.514	2.47
293.727	2.69
293.94	2.35
294.153	2.22
294.367	2.08
294.58	1.94
294.793	1.81
295.006	2.04
295.219	1.92
295.432	1.86
295.645	1.81
295.858	2.33
296.071	2.22
296.284	2.26
296.497	2.34
296.71	2.41
296.923	2.62
297.136	2.78
297.349	2.6
297.562	2.95
297.775	3.11
297.988	2.9
298.201	2.54
298.414	2.64
298.626	2.65
298.839	2.79
299.052	3.06
299.265	3.16
299.478	3.2
299.691	3.32
299.903	3.11
300.116	3.22
300.329	3.27
300.542	3.28
300.755	3.5
300.967	3.65
301.18	3.79
301.393	3.72
301.605	3.51
301.818	3.51
302.031	3.44
302.243	3.41
302.456	3.41
302.669	3.78
302.881	3.97
303.094	4.01
303.307	3.86
303.519	3.73
303.732	3.85
303.944	3.92
304.157	3.79
304.37	3.71
304.582	4.41
304.795	4.43
305.007	4.47
305.22	4.42
305.432	4.6
305.645	5.12
305.857	5.33
306.069	5.14
306.282	4.97
306.494	4.81
306.707	5.27
306.919	4.62
307.132	4.6
307.344	4.54
307.556	4.46
307.769	4.09
307.981	3.84
308.193	3.67
308.406	3.64
308.618	4.19
308.83	4.83
309.043	4.59
309.255	4.74
309.467	4.71
309.679	4.68
309.892	4.82
310.104	4.92
310.316	4.55
310.528	4.61
310.74	4.86
310.953	4.73
311.165	4.43
311.377	4.53
311.589	4.44
311.801	4.7
312.013	4.54
312.225	4.1
312.437	3.93
312.649	4.7
312.862	4.76
313.074	4.8
313.286	4.68
313.498	4.81
313.71	4.66
313.922	5.01
314.134	4.83
314.346	4.86
314.558	5.14
314.77	5.59
314.982	4.19
315.193	3.73
315.405	3.4
315.617	2.91
315.829	2.77
316.041	3.36
316.253	2.96
316.465	2.97
316.677	2.84
316.888	3.07
317.1	2.71
317.312	3.77
317.524	3.93
317.736	4.49
317.947	4.76
318.159	5.1
318.371	4.32
318.583	4.54
318.794	4.58
319.006	4.94
319.218	4.96
319.43	4.97
319.641	4.55
319.853	5.03
320.064	4.91
320.276	5.86
320.488	5.7
320.699	6.45
320.911	6.57
321.123	6.52
321.334	6.13
321.546	6.26
321.757	6.31
321.969	6.76
322.18	6.53
322.392	6.54
322.603	5.75
322.815	5.53
323.026	5.15
323.238	5.26
323.449	5.68
323.661	5.82
323.872	5.89
324.083	5.84
324.295	5.55
324.506	5.54
324.718	5.57
324.929	5.67
325.14	5.99
325.352	6.19
325.563	6.13
325.774	5.78
325.986	6.14
326.197	6.06
326.408	6.41
326.62	6.75
326.831	7.41
327.042	7.3
327.253	7.73
327.464	8.07
327.676	8.15
327.887	8.38
328.098	8.6
328.309	8.92
328.52	9.39
328.732	9.47
328.943	9.15
329.154	9.13
329.365	9.48
329.576	9.31
329.787	9.15
329.998	9.47
330.209	9.13
330.42	9.62
330.631	9.88
330.842	9.88
331.053	9.95
331.264	10.6
331.475	10.56
331.686	10.56
331.897	10.73
332.108	10.92
332.319	10.7
332.53	11.08
332.741	11.14
332.952	11.1
333.163	10.62
333.374	10.6
333.585	10.49
333.795	10
334.006	10.12
334.217	10.29
334.428	10.29
334.639	10.65
334.849	10.71
335.06	10.47
335.271	10.23
335.482	10.96
335.692	11.28
335.903	10.99
336.114	11.24
336.325	11.2
336.535	11.07
336.746	10.83
336.957	10.44
337.167	10.59
337.378	10.63
337.589	10.84
337.799	10.66
338.01	10.56
338.22	10.83
338.431	11.03
338.642	10.81
338.852	10.46
339.063	10.76
339.273	10.92
339.484	10.72
339.694	10.61
339.905	10.51
340.115	10.43
340.326	10.47
340.536	10.39
340.746	10.14
340.957	10.15
341.167	10.45
341.378	10.17
341.588	10.08
341.799	10.05
342.009	9.94
342.219	9.48
342.43	9.39
342.64	9.25
342.85	9.48
343.061	9.68
343.271	9.77
343.481	9.88
343.691	9.96
343.902	10.5
344.112	10.74
344.322	10.52
344.532	10.92
344.743	11.07
344.953	10.97
345.163	10.95
345.373	11.08
345.583	10.95
345.793	10.62
346.004	10.64
346.214	10.11
346.424	9.79
346.634	9.88
346.844	9.9
347.054	9.79
347.264	9.88
347.474	9.81
347.684	9.7
347.894	9.52
348.104	9.49
348.314	9.49
348.524	9.67
348.734	9.62
348.944	9.7
349.154	9.71
349.364	9.6
349.574	9.18
349.784	9.21
349.994	8.93
350.204	9.33
350.413	9.93
350.623	9.57
350.833	9.43
351.043	9.43
351.253	9.37
351.463	9.35
351.672	9.56
351.882	9.86
352.092	10.06
352.302	10.02
352.511	9.97
352.721	9.61
352.931	9.86
353.141	9.72
353.35	9.79
353.56	9.81
353.77	9.87
353.979	9.56
354.189	9.54
354.399	9.4
354.608	9.7
354.818	9.63
355.027	9.43
355.237	9.45
355.447	9.45
355.656	9.33
355.866	9.12
356.075	8.7
356.285	8.98
356.494	9.13
356.704	8.74
356.913	8.52
357.123	8.38
357.332	8.58
357.542	8.52
357.751	8.88
357.96	8.93
358.17	9.04
358.379	9.34
358.589	8.85
358.798	8.94
359.007	9.26
359.217	9.41
359.426	9.42
359.635	9.32
359.845	9.33
360.054	9.03
360.263	8.8
360.472	8.96
360.682	8.79
360.891	9.12
361.1	8.94
361.309	8.69
361.519	8.62
361.728	8.52
361.937	8.55
362.146	8.36
362.355	8.3
362.564	8.51
362.774	8.4
362.983	8.38
363.192	8.08
363.401	7.94
363.61	7.99
363.819	8.07
364.028	8.11
364.237	8.16
364.446	8.41
364.655	8.6
364.864	8.62
365.073	8.6
365.282	8.55
365.491	8.81
365.7	8.84
365.909	8.9
366.118	8.71
366.327	8.84
366.536	8.8
366.745	8.69
366.954	8.39
367.162	8.21
367.371	8.12
367.58	8.32
367.789	8.31
367.998	8.15
368.207	8.4
368.415	8.23
368.624	7.94
368.833	7.91
369.042	8.01
369.25	8.31
369.459	8.13
369.668	8.2
369.877	8.11
370.085	8.16
370.294	8.52
370.503	8.2
370.711	8.56
370.92	8.64
371.129	8.9
371.337	8.55
371.546	8.46
371.754	8.67
371.963	8.62
372.171	8.65
372.38	8.86
372.589	8.68
372.797	8.67
373.006	8.36
373.214	8.26
373.423	7.95
373.631	8.26
373.84	8.1
374.048	8.07
374.256	8.08
374.465	7.93
374.673	7.48
374.882	7.64
375.09	7.6
375.298	7.82
375.507	8.18
375.715	8.13
375.923	8.16
376.132	8.21
376.34	8.2
376.548	8.3
376.757	8.32
376.965	8.39
377.173	7.99
377.381	7.87
377.59	7.73
377.798	7.57
378.006	7.43
378.214	7.36
378.423	7.26
378.631	7.18
378.839	7.15
379.047	7.18
379.255	7.28
379.463	7.49
379.671	7.73
379.879	7.76
380.088	7.77
380.296	7.84
380.504	7.96
380.712	7.9
380.92	8.04
381.128	7.92
381.336	7.83
381.544	7.67
381.752	7.84
381.96	7.68
382.168	7.73
382.376	7.77
382.584	7.78
382.791	7.66
382.999	7.93
383.207	7.89
383.415	7.89
383.623	7.77
383.831	7.9
384.039	7.63
384.247	7.74
384.454	7.84
384.662	7.68
384.87	7.64
385.078	7.59
385.285	7.65
385.493	7.46
385.701	7.45
385.909	7.76
386.116	7.76
386.324	7.98
386.532	7.92
386.739	7.57
386.947	7.49
387.155	7.82
387.362	7.71
387.57	7.4
387.778	7.64
387.985	7.53
388.193	7.26
388.4	7.2
388.608	7.18
388.816	7.25
389.023	7.48
389.231	7.59
389.438	7.34
389.646	7.44
389.853	7.46
390.061	7.46
390.268	7.4
390.475	7.36
390.683	7.29
390.89	7.34
391.098	7.19
391.305	7
391.512	7.04
391.72	6.84
391.927	6.84
392.135	6.84
392.342	6.64
392.549	6.82
392.756	6.96
392.964	7.03
393.171	7.01
393.378	7.1
393.586	7.07
393.793	7.06
394	7.24
394.207	7.12
394.414	7.02
394.622	7.11
394.829	7.05
395.036	6.83
395.243	6.65
395.45	6.44
395.657	6.25
395.864	6.25
396.072	6.37
396.279	6.4
396.486	6.59
396.693	6.8
396.9	6.72
397.107	6.77
397.314	6.94
397.521	6.96
397.728	7.02
397.935	7.04
398.142	7.19
398.349	7.07
398.556	7.01
398.763	6.86
398.97	6.68
399.177	6.47
399.383	6.29
399.59	6.21
399.797	6.36
400.004	6.39
400.211	6.63
400.418	6.51
400.625	6.39
400.831	6.27
401.038	6.26
401.245	6.32
401.452	6.58
401.658	6.74
401.865	6.69
402.072	6.52
402.279	6.41
402.485	6.24
402.692	6.29
402.899	6.44
403.105	6.56
403.312	6.58
403.519	6.56
403.725	6.65
403.932	6.58
404.138	6.74
404.345	6.8
404.552	6.75
404.758	6.82
404.965	6.77
405.171	6.66
405.378	6.71
405.584	6.74
405.791	6.7
405.997	6.53
406.204	6.62
406.41	6.46
406.617	6.52
406.823	6.68
407.029	6.58
407.236	6.86
407.442	7.11
407.649	7.03
407.855	7.04
408.061	7.03
408.268	7.16
408.474	6.87
408.68	6.82
408.887	6.77
409.093	6.65
409.299	6.71
409.505	6.52
409.712	6.26
409.918	6.38
410.124	6.24
410.33	6.27
410.537	6.29
410.743	6.38
410.949	6.64
411.155	6.81
411.361	6.94
411.567	7.02
411.773	6.92
411.98	6.95
412.186	6.9
412.392	7.12
412.598	7.23
412.804	7.25
413.01	7.26
413.216	6.92
413.422	6.75
413.628	6.64
413.834	6.41
414.04	6.6
414.246	6.59
414.452	6.43
414.658	6.3
414.864	6.21
415.07	6.08
415.275	6.24
415.481	6.3
415.687	6.25
415.893	6.15
416.099	6.34
416.305	6.3
416.511	6.37
416.716	6.45
416.922	6.48
417.128	6.59
417.334	6.66
417.539	6.51
417.745	6.53
417.951	6.53
418.157	6.61
418.362	6.61
418.568	6.6
418.774	6.59
418.979	6.66
419.185	6.58
419.391	6.51
419.596	6.44
419.802	6.51
420.008	6.55
420.213	6.68
420.419	6.73
420.624	6.7
420.83	6.71
421.035	6.78
421.241	6.74
421.446	6.8
421.652	6.79
421.857	6.81
422.063	6.81
422.268	6.84
422.474	6.69
422.679	6.57
422.885	6.58
423.09	6.59
423.295	6.56
423.501	6.56
423.706	6.54
423.911	6.57
424.117	6.56
424.322	6.52
424.527	6.45
424.733	6.49
424.938	6.55
425.143	6.48
425.349	6.41
425.554	6.28
425.759	6.25
425.964	6.25
426.169	6.27
426.375	6.34
426.58	6.32
426.785	6.28
426.99	6.31
427.195	6.34
427.4	6.36
427.605	6.38
427.811	6.56
428.016	6.54
428.221	6.73
428.426	6.76
428.631	6.65
428.836	6.54
429.041	6.56
429.246	6.5
429.451	6.54
429.656	6.45
429.861	6.63
430.066	6.56
430.271	6.56
430.476	6.47
430.681	6.4
430.886	6.5
431.09	6.69
431.295	6.78
431.5	6.83
431.705	6.76
431.91	6.93
432.115	6.69
432.32	6.69
432.524	6.62
432.729	6.57
432.934	6.59
433.139	6.6
433.343	6.62
433.548	6.7
433.753	6.71
433.958	6.66
434.162	6.69
434.367	6.75
434.572	6.72
434.776	6.77
434.981	6.72
435.186	6.76
435.39	6.73
435.595	6.67
435.799	6.46
436.004	6.46
436.209	6.49
436.413	6.37
436.618	6.48
436.822	6.46
437.027	6.57
437.231	6.61
437.436	6.52
437.64	6.46
437.845	6.49
438.049	6.6
438.253	6.53
438.458	6.61
438.662	6.66
438.867	6.53
439.071	6.53
439.275	6.44
439.48	6.49
439.684	6.58
439.888	6.58
440.093	6.64
440.297	6.67
440.501	6.67
440.706	6.56
440.91	6.53
441.114	6.54
441.318	6.57
441.523	6.64
441.727	6.61
441.931	6.6
442.135	6.64
442.339	6.61
442.543	6.57
442.748	6.72
442.952	6.77
443.156	6.9
443.36	6.9
443.564	6.82
443.768	6.84
443.972	6.83
444.176	6.77
444.38	6.77
444.584	6.78
444.788	6.85
444.992	6.78
445.196	6.71
445.4	6.52
445.604	6.55
445.808	6.58
446.012	6.52
446.216	6.52
446.42	6.47
446.624	6.51
446.828	6.46
447.032	6.44
447.235	6.43
447.439	6.44
447.643	6.52
447.847	6.54
448.051	6.6
448.254	6.6
448.458	6.51
448.662	6.53
448.866	6.42
449.069	6.46
449.273	6.36
449.477	6.32
449.681	6.35
449.884	6.45
450.088	6.36
450.292	6.24
450.495	6.2
450.699	6.22
450.902	6.31
451.106	6.34
451.31	6.36
451.513	6.54
451.717	6.53
451.92	6.59
452.124	6.47
452.327	6.63
452.531	6.57
452.734	6.7
452.938	6.8
453.141	6.64
453.345	6.7
453.548	6.59
453.752	6.49
453.955	6.52
454.158	6.54
454.362	6.6
454.565	6.51
454.769	6.56
454.972	6.49
455.175	6.44
455.379	6.48
455.582	6.41
455.785	6.52
455.988	6.5
456.192	6.52
456.395	6.43
456.598	6.41
456.801	6.37
457.005	6.52
457.208	6.48
457.411	6.59
457.614	6.72
457.817	6.72
458.021	6.76
458.224	6.76
458.427	6.66
458.63	6.66
458.833	6.69
459.036	6.74
459.239	6.71
459.442	6.71
459.645	6.67
459.848	6.65
460.051	6.7
460.254	6.65
460.457	6.6
460.66	6.64
460.863	6.61
461.066	6.54
461.269	6.63
461.472	6.62
461.675	6.63
461.878	6.6
462.081	6.61
462.284	6.63
462.486	6.78
462.689	6.82
462.892	6.81
463.095	6.79
463.298	6.88
463.5	6.74
463.703	6.71
463.906	6.63
464.109	6.67
464.311	6.71
464.514	6.69
464.717	6.53
464.92	6.6
465.122	6.64
465.325	6.76
465.528	6.73
465.73	6.7
465.933	6.7
466.135	6.83
466.338	6.73
466.541	6.62
466.743	6.53
466.946	6.6
467.148	6.6
467.351	6.6
467.553	6.65
467.756	6.67
467.958	6.75
468.161	6.82
468.363	6.8
468.566	6.88
468.768	6.93
468.971	7.03
469.173	7.01
469.375	7.05
469.578	7.03
469.78	6.94
469.983	6.98
470.185	6.98
470.387	6.97
470.59	7
470.792	7.06
470.994	7.07
471.196	7.1
471.399	7.11
471.601	7.16
471.803	7.12
472.005	7.2
472.208	7.11
472.41	6.99
472.612	6.94
472.814	6.97
473.016	6.96
473.218	6.92
473.421	6.87
473.623	6.8
473.825	6.74
474.027	6.82
474.229	6.8
474.431	6.89
474.633	6.99
474.835	6.96
475.037	6.94
475.239	6.86
475.441	6.84
475.643	6.93
475.845	6.97
476.047	6.97
476.249	6.92
476.451	6.83
476.653	6.76
476.855	6.7
477.057	6.6
477.258	6.57
477.46	6.6
477.662	6.56
477.864	6.43
478.066	6.35
478.268	6.4
478.469	6.47
478.671	6.5
478.873	6.49
479.075	6.69
479.276	6.81
479.478	6.64
479.68	6.59
479.882	6.67
480.083	6.75
480.285	6.73
480.487	6.78
480.688	6.71
480.89	6.72
481.091	6.77
481.293	6.66
481.495	6.69
481.696	6.77
481.898	6.75
482.099	6.72
482.301	6.71
482.502	6.75
482.704	6.69
482.905	6.69
483.107	6.68
483.308	6.63
483.51	6.61
483.711	6.6
483.913	6.61
484.114	6.64
484.315	6.67
484.517	6.64
484.718	6.64
484.92	6.64
485.121	6.67
485.322	6.71
485.524	6.71
485.725	6.73
485.926	6.71
486.127	6.67
486.329	6.65
486.53	6.61
486.731	6.6
486.932	6.57
487.134	6.56
487.335	6.57
487.536	6.51
487.737	6.53
487.938	6.53
488.139	6.52
488.341	6.55
488.542	6.55
488.743	6.58
488.944	6.62
489.145	6.65
489.346	6.67
489.547	6.65
489.748	6.67
489.949	6.67
490.15	6.69
490.351	6.74
490.552	6.7
490.753	6.74
490.954	6.75
491.155	6.76
491.356	6.75
491.557	6.77
491.758	6.76
491.959	6.79
492.159	6.84
492.36	6.8
492.561	6.78
492.762	6.79
492.963	6.77
493.164	6.78
493.364	6.81
493.565	6.86
493.766	6.84
493.967	6.88
494.167	6.81
494.368	6.8
494.569	6.88
494.769	6.83
494.97	6.93
495.171	6.94
495.371	6.91
495.572	6.82
495.773	6.8
495.973	6.94
496.174	6.88
496.375	6.99
496.575	6.91
496.776	6.92
496.976	6.97
497.177	7
497.377	7.03
497.578	6.98
497.778	7
497.979	6.97
498.179	6.91
498.38	6.98
498.58	6.92
498.78	6.97
498.981	6.97
499.181	7.02
499.382	7.03
499.582	7.04
499.782	7.1
499.983	7.13
500.183	7.11
500.383	7.02
500.584	7.05
500.784	7.12
500.984	7.17
501.184	7.18
501.385	7.18
501.585	7.15
501.785	7.13
501.985	7.09
502.185	7.22
502.386	7.3
502.586	7.38
502.786	7.43
502.986	7.4
503.186	7.46
503.386	7.47
503.586	7.51
503.786	7.59
503.987	7.69
504.187	7.81
504.387	7.73
504.587	7.83
504.787	7.87
504.987	7.83
505.187	7.86
505.387	7.87
505.587	7.97
505.786	8.05
505.986	7.98
506.186	8
506.386	8.02
506.586	8.04
506.786	8.01
506.986	8.06
507.186	8.05
507.386	8.1
507.585	8.08
507.785	8.09
507.985	8.07
508.185	8.15
508.384	8.06
508.584	8.09
508.784	8.04
508.984	8.06
509.183	8.01
509.383	8.03
509.583	8.01
509.782	8
509.982	8
510.182	7.94
510.381	7.96
510.581	8.05
510.781	8.06
510.98	8.06
511.18	8.2
511.379	8.27
511.579	8.35
511.778	8.32
511.978	8.47
512.177	8.5
512.377	8.6
512.576	8.61
512.776	8.7
512.975	8.7
513.175	8.86
513.374	8.83
513.573	8.81
513.773	8.94
513.972	9.09
514.172	9.14
514.371	9.19
514.57	9.24
514.77	9.3
514.969	9.24
515.168	9.3
515.367	9.21
515.567	9.19
515.766	9.28
515.965	9.14
516.164	9.14
516.364	9.13
516.563	9.14
516.762	9.24
516.961	9.29
517.16	9.33
517.359	9.4
517.559	9.61
517.758	9.7
517.957	9.76
518.156	9.85
518.355	9.89
518.554	9.95
518.753	10.05
518.952	9.98
519.151	10.07
519.35	10.09
519.549	10.15
519.748	10.06
519.947	10.07
520.146	10.04
520.345	10.09
520.544	10.14
520.743	10.17
520.942	10.15
521.141	10.3
521.339	10.26
521.538	10.42
521.737	10.4
521.936	10.54
522.135	10.57
522.333	10.6
522.532	10.71
522.731	10.8
522.93	10.82
523.129	10.84
523.327	10.91
523.526	10.98
523.725	11.05
523.923	11.07
524.122	11.1
524.321	11.28
524.519	11.4
524.718	11.51
524.917	11.63
525.115	11.65
525.314	11.75
525.512	11.79
525.711	11.8
525.909	11.83
526.108	11.9
526.306	11.9
526.505	11.89
526.703	11.98
526.902	11.97
527.1	11.96
527.299	12.03
527.497	12.11
527.696	12.2
527.894	12.32
528.092	12.33
528.291	12.41
528.489	12.48
528.688	12.56
528.886	12.59
529.084	12.65
529.283	12.72
529.481	12.76
529.679	12.78
529.877	12.79
530.076	12.84
530.274	12.95
530.472	12.99
530.67	13.1
530.869	13.15
531.067	13.19
531.265	13.19
531.463	13.26
531.661	13.35
531.859	13.49
532.057	13.56
532.255	13.58
532.454	13.62
532.652	13.69
532.85	13.77
533.048	13.82
533.246	13.89
533.444	14.02
533.642	14.1
533.84	14.18
534.038	14.23
534.236	14.32
534.434	14.39
534.632	14.44
534.83	14.51
535.027	14.5
535.225	14.6
535.423	14.71
535.621	14.77
535.819	14.76
536.017	14.85
536.215	14.91
536.412	14.96
536.61	15.08
536.808	15.17
537.006	15.26
537.203	15.33
537.401	15.4
537.599	15.44
537.797	15.41
537.994	15.47
538.192	15.49
538.39	15.56
538.587	15.58
538.785	15.57
538.983	15.62
539.18	15.68
539.378	15.86
539.575	15.85
539.773	15.89
539.97	16.01
540.168	16.12
540.366	16.16
540.563	16.27
540.761	16.33
540.958	16.43
541.155	16.43
541.353	16.46
541.55	16.4
541.748	16.48
541.945	16.53
542.143	16.59
542.34	16.65
542.537	16.7
542.735	16.73
542.932	16.72
543.129	16.75
543.327	16.83
543.524	16.97
543.721	17.13
543.919	17.22
544.116	17.33
544.313	17.45
544.51	17.55
544.708	17.69
544.905	17.76
545.102	17.99
545.299	18.09
545.496	18.17
545.693	18.22
545.891	18.26
546.088	18.24
546.285	18.26
546.482	18.34
546.679	18.23
546.876	18.17
547.073	18.12
547.27	18.05
547.467	18.04
547.664	18.05
547.861	17.95
548.058	17.94
548.255	17.95
548.452	17.87
548.649	17.76
548.846	17.94
549.043	17.98
549.24	18.05
549.437	18.05
549.633	17.99
549.83	18.05
550.027	18.12
550.224	18.1
550.421	18.2
550.618	18.35
550.814	18.32
551.011	18.29
551.208	18.37
551.405	18.26
551.601	18.21
551.798	18.22
551.995	18.14
552.191	18.19
552.388	18.22
552.585	18.14
552.781	18.2
552.978	18.29
553.175	18.35
553.371	18.22
553.568	18.34
553.764	18.42
553.961	18.41
554.157	18.44
554.354	18.41
554.55	18.38
554.747	18.33
554.943	18.33
555.14	18.27
555.336	18.13
555.533	18.3
555.729	18.27
555.926	18.27
556.122	18.29
556.318	18.43
556.515	18.42
556.711	18.54
556.907	18.71
557.104	18.64
557.3	18.61
557.496	18.76
557.693	18.72
557.889	18.67
558.085	18.78
558.281	19.04
558.478	18.9
558.674	19.03
558.87	18.94
559.066	18.74
559.262	18.88
559.459	18.98
559.655	19.02
559.851	18.99
560.047	19.12
560.243	19.01
560.439	18.73
560.635	18.88
560.831	18.9
561.027	18.86
561.223	18.96
561.419	18.96
561.615	18.97
561.811	18.95
562.007	18.97
562.203	18.94
562.399	19.04
562.595	19.22
562.791	19.16
562.987	19.15
563.183	19.3
563.379	19.37
563.575	19.19
563.771	19.09
563.966	19.11
564.162	19.18
564.358	19.23
564.554	19.22
564.75	19.15
564.945	19.09
565.141	18.92
565.337	18.84
565.533	18.79
565.728	19.05
565.924	19.2
566.12	19.07
566.315	19.02
566.511	19
566.707	19.03
566.902	19.05
567.098	19.17
567.293	19.32
567.489	19.31
567.684	19.33
567.88	19.16
568.076	19.09
568.271	19.11
568.467	19.08
568.662	19.03
568.858	19.08
569.053	19.15
569.248	18.99
569.444	18.96
569.639	18.93
569.835	18.97
570.03	18.99
570.225	19.05
570.421	19.13
570.616	19.08
570.812	19.15
571.007	19.11
571.202	19.14
571.397	19.27
571.593	19.38
571.788	19.5
571.983	19.45
572.178	19.48
572.374	19.4
572.569	19.38
572.764	19.57
572.959	19.59
573.154	19.57
573.35	19.47
573.545	19.38
573.74	19.26
573.935	19.18
574.13	19.35
574.325	19.33
574.52	19.46
574.715	19.58
574.91	19.57
575.105	19.67
575.3	19.74
575.495	19.82
575.69	19.95
575.885	19.98
576.08	20.12
576.275	20.07
576.47	20.11
576.665	19.94
576.86	20.05
577.055	20.06
577.25	20.05
577.444	20.09
577.639	20.19
577.834	20.26
578.029	20.47
578.224	20.47
578.418	20.44
578.613	20.56
578.808	20.81
579.003	20.66
579.197	20.69
579.392	20.61
579.587	20.57
579.781	20.5
579.976	20.44
580.171	20.33
580.365	20.5
580.56	20.46
580.755	20.41
580.949	20.39
581.144	20.33
581.338	20.36
581.533	20.44
581.727	20.56
581.922	20.6
582.116	20.71
582.311	20.68
582.505	20.56
582.7	20.65
582.894	20.56
583.089	20.61
583.283	20.78
583.478	20.85
583.672	20.8
583.866	20.61
584.061	20.69
584.255	20.59
584.449	20.65
584.644	20.71
584.838	20.76
585.032	20.88
585.226	20.81
585.421	20.74
585.615	20.77
585.809	21.02
586.003	21.2
586.198	21.2
586.392	21.29
586.586	21.31
586.78	21.25
586.974	21.18
587.168	21.17
587.363	21.12
587.557	21.12
587.751	20.94
587.945	20.75
588.139	20.65
588.333	20.51
588.527	20.44
588.721	20.36
588.915	20.42
589.109	20.43
589.303	20.5
589.497	20.61
589.691	20.51
589.885	20.72
590.079	20.78
590.273	20.9
590.466	20.98
590.66	21.12
590.854	21.07
591.048	21.02
591.242	20.98
591.436	20.91
591.629	21
591.823	21.12
592.017	20.99
592.211	20.87
592.404	20.87
592.598	20.8
592.792	20.76
592.986	20.9
593.179	20.73
593.373	20.8
593.567	20.76
593.76	20.58
593.954	20.58
594.147	20.61
594.341	20.72
594.535	20.83
594.728	20.93
594.922	20.92
595.115	20.94
595.309	21.14
595.502	21
595.696	20.99
595.889	21
596.083	20.99
596.276	20.84
596.47	20.75
596.663	20.59
596.856	20.42
597.05	20.39
597.243	20.37
597.437	20.38
597.63	20.56
597.823	20.48
598.017	20.42
598.21	20.4
598.403	20.56
598.596	20.54
598.79	20.66
598.983	20.69
599.176	20.72
599.369	20.64
599.563	20.61
599.756	20.52
599.949	20.72
600.142	20.93
600.335	20.94
600.528	20.98
600.722	20.95
600.915	20.85
601.108	21.01
601.301	21.02
601.494	21.06
601.687	21.02
601.88	21.23
602.073	21.14
602.266	20.85
602.459	20.88
602.652	20.75
602.845	20.75
603.038	20.74
603.231	20.74
603.424	20.63
603.617	20.67
603.809	20.74
604.002	20.56
604.195	20.61
604.388	20.88
604.581	20.81
604.774	20.85
604.966	20.92
605.159	20.96
605.352	20.98
605.545	21.11
605.737	21.16
605.93	21.1
606.123	21.14
606.316	21.31
606.508	21.23
606.701	21.26
606.894	21.39
607.086	21.47
607.279	21.59
607.471	21.59
607.664	21.74
607.857	21.89
608.049	21.99
608.242	22.17
608.434	22.27
608.627	22.54
608.819	22.99
609.012	23.23
609.204	23.67
609.397	24.05
609.589	24.47
609.782	24.86
609.974	25.36
610.166	25.91
610.359	26.37
610.551	26.82
610.743	27.17
610.936	27.42
611.128	27.57
611.32	27.76
611.513	27.94
611.705	28.04
611.897	28.05
612.09	27.63
612.282	27.37
612.474	27.31
612.666	27.07
612.858	26.77
613.051	26.5
613.243	26.58
613.435	26.19
613.627	25.86
613.819	25.5
614.011	25.21
614.203	25.22
614.395	25.15
614.588	24.89
614.78	24.68
614.972	24.41
615.164	24.31
615.356	23.83
615.548	23.69
615.74	23.37
615.932	23.29
616.124	23.17
616.315	23.07
616.507	22.87
616.699	22.77
616.891	22.78
617.083	22.71
617.275	22.58
617.467	22.39
617.659	22.33
617.85	22.5
618.042	22.38
618.234	22.28
618.426	22.18
618.618	22.14
618.809	22.06
619.001	21.9
619.193	21.96
619.384	21.99
619.576	22.26
619.768	22.37
619.959	22.29
620.151	22.24
620.343	22.26
620.534	22.24
620.726	22.16
620.917	21.96
621.109	21.86
621.301	21.8
621.492	21.77
621.684	21.65
621.875	21.63
622.067	21.49
622.258	21.79
622.45	21.8
622.641	21.78
622.832	21.95
623.024	22.21
623.215	22.38
623.407	22.6
623.598	22.62
623.789	22.52
623.981	22.49
624.172	22.59
624.363	22.56
624.555	22.75
624.746	22.95
624.937	23.02
625.129	22.81
625.32	22.86
625.511	22.79
625.702	22.88
625.893	22.96
626.085	22.76
626.276	22.76
626.467	22.72
626.658	22.45
626.849	22.35
627.04	22.36
627.231	22.3
627.422	22.24
627.614	22.21
627.805	22.08
627.996	22.02
628.187	22.17
628.378	22.31
628.569	22.33
628.76	22.49
628.951	22.58
629.142	22.59
629.332	22.8
629.523	22.73
629.714	22.65
629.905	22.7
630.096	22.91
630.287	23.04
630.478	22.93
630.669	22.82
630.859	22.83
631.05	22.73
631.241	22.69
631.432	22.65
631.623	22.89
631.813	22.94
632.004	22.82
632.195	22.71
632.385	22.48
632.576	22.55
632.767	22.61
632.957	22.62
633.148	22.66
633.339	22.54
633.529	22.43
633.72	22.26
633.91	22.38
634.101	22.24
634.292	22.25
634.482	22.36
634.673	22.14
634.863	21.97
635.054	21.85
635.244	21.73
635.435	21.96
635.625	22.15
635.815	22.13
636.006	21.97
636.196	22.16
636.387	22.01
636.577	22.04
636.767	22.15
636.958	22.26
637.148	22.33
637.338	22.37
637.529	22.13
637.719	22.03
637.909	21.99
638.099	22.15
638.29	22.23
638.48	22.4
638.67	22.51
638.86	22.44
639.05	22.45
639.241	22.59
639.431	22.7
639.621	22.56
639.811	22.49
640.001	22.57
640.191	22.46
640.381	22.22
640.571	22.3
640.761	22.02
640.951	22.15
641.141	22.1
641.331	21.81
641.521	21.77
641.711	21.95
641.901	22.12
642.091	21.89
642.281	21.94
642.471	22
642.661	21.94
642.851	22.14
643.041	22.01
643.231	22.26
643.42	22.52
643.61	22.44
643.8	22.32
643.99	22.31
644.18	22.53
644.369	22.33
644.559	22.28
644.749	22.16
644.939	21.92
645.128	22.06
645.318	22.06
645.508	21.79
645.697	21.46
645.887	21.58
646.076	21.44
646.266	21.29
646.456	21.74
646.645	21.91
646.835	21.91
647.024	21.94
647.214	21.91
647.403	21.56
647.593	21.58
647.782	21.85
647.972	21.71
648.161	21.88
648.351	22.13
648.54	22.06
648.73	22.32
648.919	22.42
649.108	22.72
649.298	22.8
649.487	23
649.677	23.19
649.866	23.35
650.055	23.47
650.244	23.29
650.434	23.07
650.623	22.98
650.812	22.62
651.002	22.81
651.191	22.4
651.38	22.27
651.569	22.26
651.758	22.17
651.947	22.14
652.137	22.22
652.326	22.6
652.515	22.7
652.704	22.64
652.893	22.72
653.082	22.36
653.271	22.6
653.46	22.8
653.649	22.76
653.838	22.75
654.027	22.49
654.216	22.62
654.405	22.1
654.594	22.1
654.783	22.12
654.972	22.26
655.161	22.34
655.35	22.26
655.539	22.24
655.728	22.21
655.916	22.19
656.105	22.32
656.294	22
656.483	22.17
656.672	22.22
656.86	22.48
657.049	22.12
657.238	21.98
657.427	21.89
657.615	21.79
657.804	21.92
657.993	22.12
658.181	22.17
658.37	22.45
658.559	22.3
658.747	22.12
658.936	21.97
659.125	22.47
659.313	22.64
659.502	22.82
659.69	22.84
659.879	22.8
660.067	22.76
660.256	22.82
660.444	22.6
660.633	22.67
660.821	22.75
661.01	22.7
661.198	22.54
661.387	22.53
661.575	22.52
661.763	22.6
661.952	22.59
662.14	22.52
662.328	22.62
662.517	22.75
662.705	22.74
662.893	22.94
663.082	23.12
663.27	23.02
663.458	23.1
663.646	23.22
663.834	23.29
664.023	23.59
664.211	23.88
664.399	23.74
664.587	23.75
664.775	23.77
664.963	23.5
665.152	23.2
665.34	22.93
665.528	22.87
665.716	22.91
665.904	22.41
666.092	22.48
666.28	21.91
666.468	21.62
666.656	21.81
666.844	22.09
667.032	22.34
667.22	22.38
667.408	22.6
667.596	22.77
667.784	22.45
667.971	22.97
668.159	22.53
668.347	22.61
668.535	22.76
668.723	22.77
668.911	22.73
669.098	22.76
669.286	22.84
669.474	22.7
669.662	22.58
669.849	22.7
670.037	22.4
670.225	22.56
670.413	22.7
670.6	22.75
670.788	22.65
670.976	22.59
671.163	22.46
671.351	22.55
671.538	22.63
671.726	22.86
671.913	22.98
672.101	22.99
672.289	22.98
672.476	23.08
672.664	23.13
672.851	23.01
673.039	22.93
673.226	23.08
673.413	22.9
673.601	23
673.788	22.77
673.976	22.74
674.163	22.77
674.35	22.95
674.538	22.88
674.725	23.01
674.912	22.92
675.1	23.02
675.287	23.19
675.474	23.61
675.662	23.48
675.849	23.39
676.036	23.43
676.223	23.42
676.411	23.33
676.598	23.4
676.785	23.24
676.972	23.3
677.159	23.19
677.346	23.1
677.533	22.83
677.721	22.78
677.908	22.89
678.095	23.12
678.282	23.09
678.469	23.03
678.656	23
678.843	22.99
679.03	23.13
679.217	22.97
679.404	22.83
679.591	23.01
679.778	23.25
679.964	23.19
680.151	22.93
680.338	22.96
680.525	22.97
680.712	22.82
680.899	22.87
681.086	22.66
681.272	22.78
681.459	22.64
681.646	22.66
681.833	22.45
682.02	22.38
682.206	22.12
682.393	22.05
682.58	22.41
682.766	22.75
682.953	22.96
683.14	23.42
683.326	23.41
683.513	23.66
683.7	23.8
683.886	23.97
684.073	24.19
684.259	24.86
684.446	25.08
684.632	24.52
684.819	24.34
685.005	24.38
685.192	24.04
685.378	24.43
685.565	24.24
685.751	24.02
685.938	24.03
686.124	24.15
686.31	23.87
686.497	23.8
686.683	24.08
686.87	24.07
687.056	23.91
687.242	23.77
687.429	23.34
687.615	23.51
687.801	23.34
687.987	23.43
688.174	23.38
688.36	23.23
688.546	23.34
688.732	23.21
688.918	23.11
689.105	22.99
689.291	23.38
689.477	23.49
689.663	23.22
689.849	23.17
690.035	23.2
690.221	22.71
690.407	22.93
690.593	22.65
690.779	22.67
690.965	22.56
691.151	22.72
691.337	22.63
691.523	22.79
691.709	23.45
691.895	23.35
692.081	23.17
692.267	23.7
692.453	23.37
692.639	23.56
692.825	23.54
693.011	23.79
693.196	23.91
693.382	23.52
693.568	23.72
693.754	23.37
693.94	23.32
694.125	23.25
694.311	22.92
694.497	23.07
694.682	22.79
694.868	22.79
695.054	22.65
695.239	22.42
695.425	22.54
695.611	22.26
695.796	22.26
695.982	22.69
696.168	23.07
696.353	22.91
696.539	23
696.724	23.2
696.91	23.27
697.095	23.32
697.281	23.27
697.466	23.36
697.652	23.36
697.837	23.28
698.023	23.23
698.208	22.77
698.393	22.81
698.579	22.83
698.764	22.85
698.949	22.92
699.135	22.88
699.32	22.95
699.505	22.98
699.691	22.7
699.876	22.73
700.061	22.47
700.246	22.71
700.432	23.08
700.617	22.94
700.802	22.72
700.987	22.59
701.172	22.68
701.358	22.75
701.543	22.99
701.728	23.43
701.913	23.36
702.098	23.73
702.283	24.05
702.468	23.92
702.653	24
702.838	24.2
703.023	24.38
703.208	24.54
703.393	24.69
703.578	24.39
703.763	24.44
703.948	24.63
704.133	24.3
704.318	23.75
704.503	23.97
704.688	23.93
704.873	24.15
705.057	24.01
705.242	24.13
705.427	24.32
705.612	24.32
705.797	24.26
705.981	24.31
706.166	24.63
706.351	25.19
706.536	25.04
706.72	25.52
706.905	25.89
707.09	26.13
707.274	26.71
707.459	26.33
707.644	26.72
707.828	26.76
708.013	26.51
708.197	26.46
708.382	26.19
708.567	25.93
708.751	25.76
708.936	25.04
709.12	25.21
709.305	24.35
709.489	24.47
709.673	24.42
709.858	24.23
710.042	23.96
710.227	24
710.411	23.76
710.596	24.43
710.78	24.24
710.964	24.71
711.149	24.3
711.333	24.53
711.517	24.58
711.702	24.37
711.886	23.98
712.07	24.61
712.254	24.55
712.438	24.87
712.623	24.18
712.807	24.24
712.991	23.7
713.175	23.47
713.359	23.29
713.544	22.94
713.728	22.68
713.912	23.34
714.096	22.99
714.28	22.65
714.464	22.67
714.648	22.36
714.832	22.31
715.016	22.69
715.2	22.99
715.384	23.22
715.568	23.37
715.752	23.57
715.936	23.38
716.12	23.36
716.304	23.59
716.488	23.44
716.671	23.8
716.855	23.83
717.039	23.64
717.223	23.32
717.407	23.23
717.59	23.24
717.774	23.14
717.958	22.82
718.142	23.11
718.325	23.03
718.509	22.77
718.693	22.77
718.877	22.4
719.06	22.56
719.244	22.9
719.428	22.83
719.611	23.06
719.795	23.09
719.978	23.02
720.162	23.53
720.345	24.15
720.529	24.05
720.713	24.42
720.896	24.96
721.08	24.9
721.263	24.55
721.446	24.54
721.63	24.3
721.813	24.37
721.997	25
722.18	24.27
722.364	23.88
722.547	24.56
722.73	24.74
722.914	24.84
723.097	24.55
723.28	25.31
723.464	25.36
723.647	25.54
723.83	25.44
724.013	25.29
724.197	24.97
724.38	24.88
724.563	24
724.746	23.19
724.929	23.04
725.112	23.25
725.296	22.72
725.479	22.66
725.662	22.58
725.845	22.44
726.028	21.77
726.211	22.43
726.394	22.33
726.577	22.83
726.76	23.05
726.943	22.75
727.126	22.73
727.309	22.75
727.492	22.54
727.675	22.55
727.858	22.76
728.041	23.35
728.224	23.2
728.407	23.33
728.589	23.36
728.772	23.75
728.955	24
729.138	24.14
729.321	24.04
729.503	24.18
729.686	24.09
729.869	23.63
730.052	23.57
730.234	23.34
730.417	23.23
730.6	23.62
730.782	23.45
730.965	23.5
731.148	23.06
731.33	22.93
731.513	22.69
731.695	23.12
731.878	23.58
732.061	23.45
732.243	23.51
732.426	23.41
732.608	23.53
732.791	23.55
732.973	23.64
733.156	24.04
733.338	24.76
733.52	25.16
733.703	25.01
733.885	25.29
734.068	25.51
734.25	25.32
734.432	25.45
734.615	24.45
734.797	24.51
734.979	24.46
735.162	24.76
735.344	24.59
735.526	24.18
735.708	24.09
735.891	23.9
736.073	24
736.255	24.31
736.437	24.69
736.619	25.96
736.802	25.46
736.984	25.13
737.166	24.7
737.348	24.52
737.53	24.71
737.712	24.21
737.894	23.95
738.076	23.34
738.258	23.69
738.44	23.24
738.622	22.32
738.804	22.38
738.986	22.26
739.168	22.69
739.35	22.34
739.532	22.58
739.714	23.24
739.896	22.97
740.078	23.63
740.259	23.45
740.441	23.68
740.623	23.44
740.805	23.71
740.987	23.56
741.168	22.8
741.35	22.82
741.532	23.1
741.714	22.9
741.895	23.25
742.077	23.56
742.259	23.63
742.44	23.27
742.622	23.98
742.804	25.14
742.985	25.62
743.167	26.22
743.348	27.08
743.53	26.61
743.711	26.44
743.893	27.32
744.075	27.47
744.256	26.74
744.438	26.76
744.619	26.45
744.8	25.71
744.982	25.17
745.163	24.65
745.345	24.19
745.526	23.74
745.707	24.14
745.889	23.66
746.07	23.29
746.252	23.51
746.433	23.42
746.614	23.77
746.795	24.14
746.977	24.31
747.158	25.19
747.339	25.01
747.52	25.2
747.702	24.62
747.883	23.62
748.064	22.98
748.245	23.28
748.426	23.89
748.607	23.98
748.788	23.37
748.97	23.93
749.151	23.82
749.332	24.13
749.513	24.23
749.694	24.06
749.875	24.51
750.056	24.62
750.237	24.41
750.418	23.94
750.599	23.6
750.78	23.51
750.96	23.07
751.141	22.88
751.322	22.74
751.503	22.62
751.684	23.47
751.865	23.4
752.046	23.52
752.226	23.91
752.407	23.88
752.588	24.47
752.769	25
752.949	24.81
753.13	24.45
753.311	23.58
753.492	23.83
753.672	23.42
753.853	23.6
754.034	23.32
754.214	23.02
754.395	23.21
754.575	22.37
754.756	22.05
754.937	21.77
755.117	22.52
755.298	23.18
755.478	22.73
755.659	22.77
755.839	22.09
756.02	22.25
756.2	22.41
756.381	21.97
756.561	21.95
756.741	21.64
756.922	22.28
757.102	21.81
757.283	21.64
757.463	21.69
757.643	21.29
757.823	21.7
758.004	22.12
758.184	22.33
758.364	23.19
758.545	23.85
758.725	23.6
758.905	22.9
759.085	23.05
759.265	22.79
759.446	23.3
759.626	23.79
759.806	24.13
759.986	23.7
760.166	23.24
760.346	22.43
760.526	21.35
760.706	21.86
760.886	22.67
761.066	22.35
761.246	23.31
761.426	23.19
761.606	23
761.786	23.3
761.966	23.44
762.146	23.84
762.326	24.22
762.506	24.67
762.686	24.74
762.866	24.38
763.046	25.06
763.225	24.31
763.405	24.17
763.585	24.59
763.765	24.22
763.945	24.11
764.124	23.71
764.304	23.85
764.484	23.69
764.664	23.07
764.843	23.34
765.023	22.69
765.203	22.53
765.382	23.17
765.562	22.67
765.741	22.74
765.921	22.44
766.101	22.93
766.28	22.24
766.46	22.48
766.639	23.38
766.819	23.44
766.998	23.31
767.178	24.32
767.357	23.89
767.537	24.09
767.716	24.03
767.896	24.56
768.075	25.14
768.254	25.77
768.434	25.72
768.613	24.93
768.792	24.64
768.972	24.98
769.151	24.5
769.33	24.16
769.51	23.97
769.689	23.66
769.868	24.1
770.047	23.85
770.226	24.24
770.406	24.99
770.585	25.88
770.764	26.29
770.943	26.44
771.122	26.71
771.301	27.39
771.48	27.49
771.66	28.01
771.839	27.62
772.018	26.51
772.197	26.58
772.376	26.93
772.555	26.12
772.734	26.52
772.913	26.84
773.092	26.52
773.271	25.35
773.449	25.59
773.628	26.48
773.807	25.44
773.986	26.59
774.165	25.86
774.344	24.6
774.523	23.98
774.701	23.26
774.88	22.65
775.059	22.74
775.238	23.16
775.417	23.26
775.595	22.97
775.774	23.33
775.953	22.05
776.131	22.46
776.31	22.5
776.489	23.88
776.667	23.56
776.846	23.87
777.025	24.07
777.203	23.05
777.382	23.03
777.56	22.52
777.739	23.21
777.917	24.56
778.096	23.96
778.274	24.96
778.453	25.01
778.631	25.01
778.81	25.04
778.988	24.48
779.166	25.14
779.345	26.48
779.523	25.95
779.702	26.08
779.88	25.13
780.058	25.18
780.237	25.05
780.415	24.31
780.593	25.19
780.771	25.49
780.95	25.48
781.128	26.82
781.306	25.23
781.484	25.77
781.662	26.34
781.841	26.49
782.019	26.64
782.197	26.2
782.375	26.96
782.553	26.47
782.731	25.89
782.909	26.35
783.087	25.16
783.265	25.57
783.443	25.46
783.621	24.58
783.799	24.3
783.977	24.86
784.155	24.87
784.333	24.03
784.511	24.38
784.689	23.55
784.867	24.17
785.045	23.67
785.223	22.92
785.4	23.06
785.578	22.64
785.756	23.14
785.934	22.44
786.112	21.85
786.289	21.83
786.467	20.84
786.645	21.92
786.823	21.76
787	21.97
787.178	22.72
787.356	22.69
787.533	22.85
787.711	23.67
787.889	22.65
788.066	22.87
788.244	22.53
788.421	24.31
788.599	23.46
788.776	22.85
788.954	23.31
789.131	23.03
789.309	22.96
789.486	23.23
789.664	22.4
789.841	23.53
790.019	23.65
790.196	24.12
790.373	23.81
790.551	24.04
790.728	24.11
790.906	24.49
791.083	22.92
791.26	23.06
791.437	23.76
791.615	24.6
791.792	25.72
791.969	24.71
792.146	24.72
792.324	23.94
792.501	24.54
792.678	24.61
792.855	24.81
793.032	26.7
793.209	28.03
793.387	26.88
793.564	25.26
793.741	24.49
793.918	25.19
794.095	26.23
794.272	26.12
794.449	26.07
794.626	26.45
794.803	25.41
794.98	25.13
795.157	23.96
795.334	25
795.511	26.35
795.688	26.05
795.864	27.08
796.041	26.05
796.218	25.71
796.395	25.71
796.572	24.12
796.749	25.03
796.925	25.46
797.102	26.12
797.279	25.67
797.456	24.85
797.632	24.66
797.809	22.19
797.986	22.13
798.162	21.93
798.339	22.21
798.516	24.56
798.692	24.65
798.869	24.43
799.046	23.79
799.222	23.05
799.399	22.82
799.575	23.89
799.752	25.56
799.928	25.67
800.105	26.57
800.281	27.18
800.458	26.29
800.634	25.59
800.811	25.07
800.987	24.51
801.163	25.69
801.34	26.59
801.516	25.75
801.692	25.58
801.869	25.78
802.045	26.54
802.221	26.32
802.398	27.01
802.574	28.4
802.75	28.57
802.926	28.54
803.103	29
803.279	28.56
803.455	29.18
803.631	29.64
803.807	29.92
803.983	30.39
804.16	29.36
804.336	29
804.512	28.5
804.688	27.71
804.864	27.57
805.04	25.46
805.216	25.38
805.392	24.59
805.568	22.47
805.744	23.6
805.92	22.49
806.096	21.46
806.272	22.15
806.448	21.61
806.623	23.16
806.799	24.16
806.975	25.7
807.151	27.43
807.327	27.28
807.503	29.08
807.678	27.41
807.854	25.87
808.03	28.82
808.206	28.21
808.381	28.57
808.557	28.03
808.733	27.44
808.908	26.26
809.084	24
809.26	24.83
809.435	25.72
809.611	26.33
809.787	27.39
809.962	25.78
810.138	24.84
810.313	24.43
810.489	23.62
810.664	23.72
810.84	24.96
811.015	26.3
811.191	25.85
811.366	24.45
811.542	24.65
811.717	23.1
811.892	22.35
812.068	21.97
812.243	21.69
812.419	22.69
812.594	22.53
812.769	21.97
812.944	21.76
813.12	22.01
813.295	22.47
813.47	20.37
813.645	22.85
813.821	23.22
813.996	24.47
814.171	24.03
814.346	23.5
814.521	23.72
814.697	24.2
814.872	25.36
815.047	25.37
815.222	26.03
815.397	28.55
815.572	28.86
815.747	28.94
815.922	28.04
816.097	28.41
816.272	28.35
816.447	29.31
816.622	30.68
816.797	29.66
816.972	28.45
817.147	26.72
817.322	26.47
817.496	25.12
817.671	25.74
817.846	27.85
818.021	27.7
818.196	26.7
818.371	25.82
818.545	24.03
818.72	21.35
818.895	22.68
819.069	23.73
819.244	23.2
819.419	23.57
819.594	23.26
819.768	21.46
819.943	21.57
820.117	22.39
820.292	22.17
820.467	21.85
820.641	22.17
820.816	21.79
820.99	21.21
821.165	21.55
821.339	21.15
821.514	20.5
821.688	21.02
821.863	21.15
822.037	21.12
822.212	21.12
822.386	21.19
822.56	21.35
822.735	21.31
822.909	21.52
823.084	21.04
823.258	21.13
823.432	21.67
823.606	21.44
823.781	21.45
823.955	21.2
824.129	21.39
824.303	21.52
824.478	21.65
824.652	21.65
824.826	21.53
825	21.99
825.174	21.91
825.348	22.14
825.523	22.27
825.697	22.16
825.871	22.67
826.045	22.01
826.219	21.95
826.393	22.37
826.567	22.14
826.741	22.43
826.915	22.42
827.089	23.16
827.263	23.35
827.437	23.77
827.611	23.96
827.784	23.59
827.958	24.29
828.132	24.11
828.306	24.15
828.48	24.6
828.654	24.97
828.827	25.3
829.001	24.47
829.175	23.58
829.349	23.62
829.522	23.21
829.696	23.68
829.87	23.45
830.044	23.84
830.217	24.28
830.391	23.58
830.565	24
830.738	24.24
830.912	24.2
831.085	25.27
831.259	23.65
831.432	23
831.606	23.01
831.779	22.31
831.953	22.8
832.126	20.72
832.3	21.36
832.473	19.99
832.647	19.48
832.82	19.89
832.994	19.39
833.167	20.21
833.34	21.45
833.514	21.28
833.687	21.53
833.86	21.52
834.034	22.53
834.207	22.81
834.38	23.61
834.553	23.74
834.727	24.02
834.9	23.27
835.073	23.09
835.246	23.16
835.419	23.13
835.593	23.89
835.766	24.15
835.939	24.45
836.112	23.54
836.285	22.45
836.458	23.72
836.631	23.91
836.804	26.1
836.977	26.97
837.15	26.58
837.323	28.47
837.496	27.88
837.669	28.6
837.842	27.93
838.015	29.12
838.188	31.61
838.361	31.38
838.533	31.61
838.706	31.09
838.879	29.98
839.052	28.4
839.225	27.76
839.398	27.28
839.57	27.81
839.743	28.08
839.916	27.38
840.088	25.81
840.261	23.68
840.434	22.03
840.607	20.98
840.779	22.75
840.952	24.27
841.124	22.6
841.297	21.64
841.47	20.27
841.642	19.9
841.815	20.68
841.987	19.81
842.16	22.46
842.332	23.19
842.505	23.53
842.677	20.67
842.85	23.01
843.022	25.46
843.194	23.59
843.367	23.56
843.539	25.45
843.712	28.49
843.884	28.45
844.056	21.84
844.229	25.95
844.401	26.36
844.573	30.44
844.745	26.98
844.918	27.25
845.09	31.12
845.262	32.2
845.434	28.46
845.606	31.28
845.779	33.98
845.951	35.74
846.123	33.74
846.295	32.23
846.467	29.84
846.639	28.84
846.811	24.74
846.983	24.2
847.155	22.05
847.327	22.82
847.499	18.53
847.671	16.89
847.843	18.23
848.015	17.81
848.187	19.13
848.359	20.04
848.531	25.54
848.703	33.63
848.875	37.01
849.047	38.5
849.218	42.43
849.39	43.88
849.562	50.54
849.734	54.78
849.905	55.13
850.077	57.84
850.249	55.01
850.421	51.91
850.592	46.56
850.764	47.95
850.936	47.46
851.107	40.24
851.279	43.18
851.451	36.73
851.622	38.26
851.794	35.01
851.965	37.02
852.137	35.45
852.308	33.2
852.48	38.1
852.651	31.78
852.823	31.15
852.994	36.83
853.166	33.44
853.337	37.11
853.509	30.59
853.68	32.29
853.851	30.01
854.023	34.49
854.194	36.01
854.365	34.64
854.537	38.66
854.708	42.96
854.879	38.97
855.05	34.67
855.222	32.35
855.393	33.48
855.564	33.32
855.735	31.95
855.906	30.16
856.078	28.24
856.249	27.69
856.42	28.39
856.591	25.91
856.762	25.94
856.933	28.57
857.104	28.79
857.275	24.39
857.446	21.57
857.617	25.88
857.788	28.08
857.959	27.52
858.13	27.76
858.301	28.61
858.472	30.16
858.643	38.42
858.814	39.02
858.985	36.36
859.155	34.95
859.326	41.23
859.497	36.45
859.668	37.39
859.839	42.49
860.009	39.37
860.18	38.93
860.351	38.97
860.522	32.19
860.692	26.99
860.863	35
861.034	42.72
861.204	36.07
861.375	40.07
861.546	38.23
861.716	35.13
861.887	31.83
862.057	29.14
862.228	24.14
862.398	31.47
862.569	38.26
862.739	27.94
862.91	16.21
863.08	25.24
863.251	28.56
863.421	28.81
863.592	30.47
863.762	32.55
863.932	34.16
864.103	30.91
864.273	27.65
864.443	26.73
864.614	29.12
864.784	36.61
864.954	34.08
865.125	37.54
865.295	38.04
865.465	38.2
865.635	35.7
865.805	32.45
865.976	39.44
866.146	36.54
866.316	41.17
866.486	40.32
866.656	42.72
866.826	39.82
866.996	34.16
867.166	36.63
867.336	44.84
867.506	52.43
867.676	55.8
867.846	49.86
868.016	59.64
868.186	58.5
868.356	61.13
868.526	54.04
868.696	54.61
868.866	46.64
869.036	47.53
869.206	38.78
869.376	33.48
869.545	32.59
869.715	35.05
869.885	28.62
870.055	30.15
870.224	27.26
870.394	27.98
870.564	30.87
870.734	41.68
870.903	37.4
871.073	46.83
871.243	43.14
871.412	37.53
871.582	40.83
871.751	46.54
871.921	43.2
872.091	44.53
872.26	42.83
872.43	46.81
872.599	48.09
872.769	49.49
872.938	37.97
873.108	49.64
873.277	50.76
873.446	48.52
873.616	47.07
873.785	47.5
873.955	52.33
874.124	52.4
874.293	51.19
874.463	44.11
874.632	41.86
874.801	45.81
874.971	39.78
875.14	40.64
875.309	40.14
875.478	33.86
875.647	32.27
875.817	32.77
875.986	32.16
876.155	26.69
876.324	29.14
876.493	33.95
876.662	31.01
876.831	28.76
877	31.9
877.17	28.7
877.339	32.79
877.508	29.85
877.677	29.02
877.846	33.62
878.015	36.59
878.184	32.24
878.352	26.68
878.521	28.8
878.69	28.03
878.859	29.26
879.028	29.75
879.197	28.33
879.366	30.73
879.534	30.16
879.703	27.4
879.872	25.32
880.041	24.14
880.21	24.06
880.378	24.47
880.547	24.58
880.716	22.94
880.884	22.52
881.053	22.55
881.222	22.14
881.39	21.82
881.559	21.6
881.727	21.17
881.896	20.84
882.065	21.09
882.233	20.99
882.402	21.14
882.57	22.04
882.739	22.23
882.907	21.55
883.076	21.57
883.244	21.48
883.412	21.91
883.581	21.7
883.749	22.6
883.918	22.26
884.086	22.93
884.254	23.01
884.423	22.83
884.591	23.05
884.759	24.09
884.927	25.25
885.096	24.5
885.264	24.51
885.432	26.41
885.6	26.52
885.769	26.38
885.937	25.63
886.105	24.93
886.273	26.08
886.441	25.91
886.609	27.38
886.777	28.15
886.945	30.51
887.113	28.72
887.281	23.89
887.449	28.43
887.617	26.15
887.785	20.87
887.953	26.44
888.121	23.19
888.289	25.25
888.457	25.06
888.625	23.31
888.793	22.76
888.961	20.57
889.129	25.71
889.296	17.47
889.464	23.5
889.632	29.08
889.8	22.99
889.967	21.84
890.135	19.11
