Data from 2938776__Reflection_02.txt Node
Date: Fri Mar 13 13:55:26 EDT 2015
User: robert
Spectrometer: USB4E03002
Autoset integration time: false
Trigger mode: 4
Integration Time (sec): 1.000000E-1
Scans to average: 10
Electric dark correction enabled: false
Nonlinearity correction enabled: false
Boxcar width: 5
Stray light correction enabled: false
XAxis mode: Wavelengths
Stop averaging: false
Number of Pixels in Spectrum: 3648
>>>>>Begin Spectral Data<<<<<
177.575	-227.78
177.794	-390.41
178.014	-1511.11
178.233	729.85
178.452	1351.35
178.672	301.14
178.891	293.29
179.11	1160.87
179.33	-353.73
179.549	-252.38
179.768	-1596.67
179.987	626.87
180.207	2266.67
180.426	996.92
180.645	-1862.86
180.864	-1112.9
181.084	-262.2
181.303	-364.02
181.522	-1834.04
181.741	5560
181.96	293.33
182.179	230.5
182.398	181.1
182.618	143.66
182.837	205.54
183.056	176.72
183.275	145.66
183.494	98.07
183.713	76.88
183.932	104.95
184.151	77.75
184.37	44.83
184.589	17.98
184.808	44.44
185.027	40.7
185.246	35.79
185.465	22.98
185.684	40.63
185.903	47.95
186.122	46.45
186.341	50.61
186.56	73.03
186.779	106.38
186.998	84.24
187.216	101.89
187.435	294.92
187.654	97.77
187.873	75
188.092	38.36
188.311	76.3
188.53	155.29
188.748	518.75
188.967	-720.83
189.186	251.45
189.405	449.64
189.623	271.01
189.842	205.56
190.061	258.41
190.28	332.9
190.498	235.03
190.717	196.12
190.936	200
191.154	172.96
191.373	185.23
191.592	186.65
191.81	128.93
192.029	117.61
192.248	130.12
192.466	121.09
192.685	126.36
192.904	160.25
193.122	139.86
193.341	139.78
193.559	206.88
193.778	168.46
193.996	142.29
194.215	1764
194.433	398.13
194.652	308.78
194.87	606.38
195.089	10580
195.307	2276.92
195.526	-603.74
195.744	1840.43
195.963	535.52
196.181	390.08
196.399	282.67
196.618	254.49
196.836	331.44
197.055	514.29
197.273	573.63
197.491	1514.71
197.71	627.78
197.928	227.37
198.146	307.63
198.365	281.33
198.583	340.91
198.801	11.35
199.019	-30.69
199.238	-26.25
199.456	-27.56
199.674	-69.21
199.892	-58.94
200.111	-49.08
200.329	-16.27
200.547	-27.84
200.765	-132.7
200.983	-152.67
201.202	-496.26
201.42	-1147.92
201.638	1947.83
201.856	341.24
202.074	851.22
202.292	339.47
202.51	530.23
202.728	288.94
202.946	465.77
203.165	1204.76
203.383	57600
203.601	509.15
203.819	545.54
204.037	289.3
204.255	344.7
204.473	166.01
204.691	258.56
204.909	103.27
205.127	189.12
205.345	121.89
205.562	77.59
205.78	94.85
205.998	62.44
206.216	75.73
206.434	70.61
206.652	87.85
206.87	147.88
207.088	140.55
207.306	202.28
207.523	175.36
207.741	143.33
207.959	126.66
208.177	149.24
208.395	200.93
208.612	240.88
208.83	251.08
209.048	277.78
209.266	1746.67
209.483	-902.94
209.701	-1036
209.919	457.81
210.136	7320
210.354	-1183.33
210.572	-107.1
210.79	270.09
211.007	162.64
211.225	483.05
211.442	138.26
211.66	89.26
211.878	93.88
212.095	263.5
212.313	257.67
212.53	248.06
212.748	211.36
212.966	160.25
213.183	178.18
213.401	156.67
213.618	127.71
213.836	125.2
214.053	151.8
214.271	158.81
214.488	46.87
214.705	59.26
214.923	60.61
215.14	69.51
215.358	67.73
215.575	75.1
215.793	78.53
216.01	91.33
216.227	93.35
216.445	90.91
216.662	73.34
216.879	58.93
217.097	56.44
217.314	60.23
217.531	65.15
217.749	69.12
217.966	77.92
218.183	86.63
218.4	66.32
218.618	82.01
218.835	53.86
219.052	57.44
219.269	76.7
219.487	78.6
219.704	71.14
219.921	52.36
220.138	52.28
220.355	40.96
220.572	37.16
220.79	36.21
221.007	17.09
221.224	26.43
221.441	25.6
221.658	18.6
221.875	20.02
222.092	16.91
222.309	22.71
222.526	16.55
222.743	11.07
222.96	13.84
223.177	22.51
223.394	22.55
223.611	19.58
223.828	23.4
224.045	25.07
224.262	33.27
224.479	31.13
224.696	28.03
224.913	29.95
225.13	30.95
225.347	32.25
225.564	26.49
225.781	28.15
225.997	23.47
226.214	24.18
226.431	21.8
226.648	12.92
226.865	13.42
227.082	11.96
227.298	10.62
227.515	9.22
227.732	6.79
227.949	6.4
228.165	6.24
228.382	6.72
228.599	4.24
228.816	3.92
229.032	4.79
229.249	4.28
229.466	4.33
229.682	3.8
229.899	3.9
230.116	3.8
230.332	4.32
230.549	3.69
230.765	3.6
230.982	4.73
231.199	4.33
231.415	4.77
231.632	4.73
231.848	6.49
232.065	5.6
232.281	5.92
232.498	5.68
232.714	5.39
232.931	6.31
233.147	6
233.364	7.1
233.58	6.16
233.797	4.31
234.013	3.35
234.23	1.59
234.446	2.48
234.662	1.28
234.879	2.29
235.095	2.29
235.312	3.06
235.528	2.95
235.744	1.03
235.961	4.29
236.177	4.17
236.393	6.37
236.61	6.15
236.826	7.46
237.042	7.33
237.258	7.47
237.475	8.01
237.691	8.24
237.907	7.86
238.123	9.38
238.339	8.79
238.556	9.72
238.772	8.17
238.988	8.35
239.204	8.04
239.42	9.44
239.636	10.74
239.853	9.16
240.069	8.06
240.285	8.28
240.501	8.34
240.717	7.9
240.933	7.37
241.149	6.96
241.365	6.48
241.581	5.78
241.797	5.08
242.013	4.69
242.229	4.94
242.445	4.55
242.661	4.47
242.877	4.12
243.093	4.11
243.309	3.87
243.525	4.25
243.741	4.33
243.957	5
244.173	5.6
244.388	5.24
244.604	5.31
244.82	6.21
245.036	6.36
245.252	6.03
245.468	5.47
245.683	6.08
245.899	5.25
246.115	4.99
246.331	4.53
246.547	4.56
246.762	4.32
246.978	4.34
247.194	4.22
247.409	4.32
247.625	4.34
247.841	4.34
248.057	4.01
248.272	4.27
248.488	4.39
248.703	4.6
248.919	3.98
249.135	4.1
249.35	3.89
249.566	4
249.782	3.87
249.997	4.01
250.213	4.52
250.428	5.01
250.644	4.79
250.859	4.4
251.075	4.51
251.29	5.25
251.506	5.78
251.721	6.29
251.937	5.69
252.152	5.54
252.368	6
252.583	5.49
252.798	5.37
253.014	5.46
253.229	6.19
253.445	5.7
253.66	5.43
253.875	5.08
254.091	4.53
254.306	4.76
254.521	4.87
254.737	4.48
254.952	4.42
255.167	4.31
255.383	4.47
255.598	3.33
255.813	3.51
256.028	3.02
256.244	2.7
256.459	2.68
256.674	2.42
256.889	2.09
257.104	1.6
257.32	2.02
257.535	2.01
257.75	2.55
257.965	3.11
258.18	2.66
258.395	3.22
258.61	3.4
258.826	3.15
259.041	3.1
259.256	3.26
259.471	3.12
259.686	2.82
259.901	2.6
260.116	2.43
260.331	2.38
260.546	2.53
260.761	2.49
260.976	2.35
261.191	2.42
261.406	2.45
261.621	2.08
261.836	1.99
262.05	1.72
262.265	2.03
262.48	1.58
262.695	1.38
262.91	0.93
263.125	0.59
263.34	0.25
263.555	0.37
263.769	0.3
263.984	0.67
264.199	0.54
264.414	1.43
264.629	1.27
264.843	1.53
265.058	1.88
265.273	2.15
265.488	2.33
265.702	3.18
265.917	2.8
266.132	3.56
266.346	3.57
266.561	4.35
266.776	4.06
266.99	3.97
267.205	4.43
267.42	4.19
267.634	4.45
267.849	4.28
268.063	4.21
268.278	4.77
268.492	3.89
268.707	3.83
268.922	3.21
269.136	3.57
269.351	3.29
269.565	3.11
269.78	3.38
269.994	3.69
270.209	3.67
270.423	3.59
270.637	3.38
270.852	3.35
271.066	3.61
271.281	3.79
271.495	3.41
271.709	3.18
271.924	3.22
272.138	3.17
272.353	3.06
272.567	3
272.781	2.66
272.996	2.63
273.21	2.96
273.424	2.99
273.638	3.05
273.853	3.03
274.067	3.52
274.281	3.61
274.495	3.38
274.71	3.15
274.924	3.6
275.138	3.78
275.352	3.74
275.566	3.74
275.781	3.31
275.995	3.37
276.209	3.51
276.423	3.22
276.637	2.57
276.851	2.83
277.065	3.23
277.279	2.7
277.493	2.43
277.707	2.53
277.921	1.79
278.135	1.85
278.349	1.43
278.563	1.82
278.777	2.35
278.991	3
279.205	2.97
279.419	2.64
279.633	2.75
279.847	2.65
280.061	2.31
280.275	2.43
280.489	2.72
280.703	2.77
280.917	2.5
281.131	2.31
281.344	1.96
281.558	1.57
281.772	1.74
281.986	2.02
282.2	2.32
282.414	2.41
282.627	2.78
282.841	2.6
283.055	2.49
283.269	2.12
283.482	2.1
283.696	2.34
283.91	2.35
284.123	2.25
284.337	2.46
284.551	2.63
284.764	2.65
284.978	2.6
285.192	2.6
285.405	2.67
285.619	2.77
285.833	2.74
286.046	2.38
286.26	2.38
286.473	2.25
286.687	1.81
286.9	1.65
287.114	1.47
287.327	1.3
287.541	1.07
287.754	1.19
287.968	1.12
288.181	1.23
288.395	1.84
288.608	2.02
288.822	1.93
289.035	2.05
289.248	1.78
289.462	2.41
289.675	2.55
289.889	2.7
290.102	2.55
290.315	2.67
290.529	2.59
290.742	2.41
290.955	2.53
291.169	2.8
291.382	2.83
291.595	3.08
291.808	2.74
292.022	2.69
292.235	2.54
292.448	2.77
292.661	2.92
292.875	2.8
293.088	3.05
293.301	2.87
293.514	2.82
293.727	3.26
293.94	3.33
294.153	3.19
294.367	3.14
294.58	3.42
294.793	3.13
295.006	3.26
295.219	3.29
295.432	3.07
295.645	3.36
295.858	3.17
296.071	3.01
296.284	2.84
296.497	2.78
296.71	2.84
296.923	2.89
297.136	2.92
297.349	2.57
297.562	2.6
297.775	2.64
297.988	2.58
298.201	2.77
298.414	2.7
298.626	2.83
298.839	2.88
299.052	3
299.265	2.93
299.478	3.11
299.691	3.47
299.903	3.6
300.116	3.7
300.329	3.81
300.542	4.18
300.755	3.9
300.967	3.7
301.18	3.71
301.393	3.99
301.605	4.11
301.818	4.06
302.031	4.05
302.243	3.75
302.456	3.54
302.669	3.34
302.881	2.94
303.094	3
303.307	3.2
303.519	3.01
303.732	2.77
303.944	2.56
304.157	2.5
304.37	2.63
304.582	2.69
304.795	2.77
305.007	3.02
305.22	2.83
305.432	2.97
305.645	2.91
305.857	3.86
306.069	3.76
306.282	3.81
306.494	3.92
306.707	3.76
306.919	3.5
307.132	3.55
307.344	3.49
307.556	4.01
307.769	4.02
307.981	4.09
308.193	3.36
308.406	3.57
308.618	3.46
308.83	3.39
309.043	3.25
309.255	3.6
309.467	3.7
309.679	3.36
309.892	3.01
310.104	3.19
310.316	2.99
310.528	3.05
310.74	3.06
310.953	3.16
311.165	3.25
311.377	3.55
311.589	3.78
311.801	3.63
312.013	3.81
312.225	3.92
312.437	4.09
312.649	4.28
312.862	4.39
313.074	4.28
313.286	4.36
313.498	4.13
313.71	4.13
313.922	4.27
314.134	4.6
314.346	4.5
314.558	4.55
314.77	4.33
314.982	4.26
315.193	4.5
315.405	4.9
315.617	4.69
315.829	4.98
316.041	5.13
316.253	4.57
316.465	4.54
316.677	4.57
316.888	4.57
317.1	4.5
317.312	4.72
317.524	4.87
317.736	4.58
317.947	4.71
318.159	5.27
318.371	5.05
318.583	5.13
318.794	5.24
319.006	5.44
319.218	5.3
319.43	5.17
319.641	5.43
319.853	5.12
320.064	5.23
320.276	5.54
320.488	5
320.699	5.25
320.911	5.85
321.123	5.89
321.334	5.87
321.546	6.14
321.757	6.38
321.969	5.8
322.18	6.25
322.392	6.1
322.603	5.97
322.815	6.31
323.026	6.5
323.238	6.09
323.449	6.13
323.661	5.96
323.872	6.3
324.083	6.34
324.295	7.16
324.506	7.2
324.718	7.54
324.929	7.73
325.14	7.56
325.352	7.71
325.563	8.47
325.774	8.13
325.986	8.4
326.197	8.61
326.408	9.15
326.62	9.12
326.831	9.28
327.042	9.52
327.253	9.94
327.464	10.51
327.676	10.74
327.887	10.82
328.098	11.65
328.309	12.06
328.52	12.52
328.732	12.88
328.943	13.56
329.154	13.81
329.365	13.99
329.576	14.25
329.787	14.39
329.998	14.29
330.209	14.29
330.42	14.27
330.631	14.9
330.842	15.25
331.053	15.53
331.264	15.4
331.475	15.48
331.686	16.08
331.897	16.48
332.108	16.89
332.319	17.54
332.53	17.78
332.741	18.35
332.952	18.14
333.163	17.6
333.374	17.39
333.585	17.92
333.795	18.22
334.006	18.29
334.217	18.33
334.428	18.56
334.639	18.71
334.849	18.53
335.06	18.4
335.271	18.75
335.482	19.23
335.692	19.65
335.903	19.29
336.114	19.51
336.325	19.48
336.535	19.5
336.746	19.66
336.957	19.69
337.167	19.99
337.378	20.12
337.589	20.26
337.799	20.33
338.01	20.09
338.22	20.34
338.431	19.91
338.642	19.91
338.852	20
339.063	19.94
339.273	19.92
339.484	20.17
339.694	19.98
339.905	19.62
340.115	19.68
340.326	19.67
340.536	19.68
340.746	19.77
340.957	20.11
341.167	20
341.378	19.95
341.588	19.81
341.799	19.75
342.009	19.81
342.219	19.96
342.43	20
342.64	20.29
342.85	20.25
343.061	20.31
343.271	19.81
343.481	19.78
343.691	19.59
343.902	19.7
344.112	19.56
344.322	19.45
344.532	19.6
344.743	19.76
344.953	19.51
345.163	19.48
345.373	19.39
345.583	19.53
345.793	19.49
346.004	19.56
346.214	19.52
346.424	19.44
346.634	19.59
346.844	19.49
347.054	19.04
347.264	19.16
347.474	19.21
347.684	19.51
347.894	19.48
348.104	19.63
348.314	19.76
348.524	19.52
348.734	19.54
348.944	19.36
349.154	19.57
349.364	19.53
349.574	19.55
349.784	19.52
349.994	19.9
350.204	19.98
350.413	19.95
350.623	19.72
350.833	19.63
351.043	19.62
351.253	19.86
351.463	20
351.672	20.04
351.882	20.18
352.092	19.99
352.302	19.64
352.511	19.76
352.721	19.81
352.931	19.87
353.141	19.84
353.35	20.03
353.56	20.18
353.77	19.69
353.979	19.93
354.189	19.86
354.399	19.89
354.608	19.86
354.818	19.59
355.027	19.49
355.237	19.5
355.447	19.91
355.656	19.74
355.866	19.49
356.075	19.6
356.285	19.43
356.494	19.17
356.704	19.06
356.913	19.03
357.123	19.07
357.332	19.07
357.542	19.18
357.751	18.97
357.96	18.9
358.17	18.78
358.379	18.77
358.589	18.83
358.798	19.18
359.007	19.09
359.217	19.25
359.426	19.51
359.635	19.46
359.845	19.24
360.054	19.09
360.263	19.2
360.472	19.06
360.682	19.15
360.891	19.1
361.1	18.81
361.309	18.97
361.519	18.66
361.728	18.44
361.937	18.47
362.146	18.62
362.355	18.62
362.564	18.51
362.774	18.61
362.983	18.42
363.192	18.36
363.401	18.39
363.61	18.39
363.819	18.25
364.028	18.01
364.237	17.84
364.446	17.4
364.655	17.56
364.864	17.7
365.073	17.57
365.282	17.57
365.491	17.5
365.7	17.26
365.909	17.13
366.118	17.37
366.327	17.46
366.536	17.6
366.745	17.96
366.954	17.84
367.162	17.64
367.371	17.88
367.58	17.84
367.789	17.7
367.998	17.79
368.207	17.91
368.415	17.66
368.624	17.82
368.833	17.72
369.042	17.8
369.25	18.02
369.459	18.02
369.668	17.65
369.877	17.51
370.085	17.74
370.294	18.07
370.503	18.25
370.711	18.58
370.92	18.58
371.129	18.41
371.337	18.12
371.546	17.73
371.754	18.02
371.963	18.17
372.171	18.38
372.38	18.29
372.589	18.11
372.797	17.84
373.006	17.61
373.214	17.34
373.423	17.49
373.631	17.76
373.84	18.05
374.048	17.79
374.256	17.98
374.465	18.03
374.673	18.05
374.882	17.84
375.09	17.75
375.298	18.12
375.507	18.14
375.715	18.07
375.923	17.88
376.132	17.85
376.34	17.67
376.548	17.68
376.757	17.63
376.965	17.47
377.173	17.4
377.381	17.44
377.59	17.22
377.798	17.48
378.006	17.45
378.214	17.34
378.423	17.23
378.631	17.33
378.839	17.21
379.047	17.16
379.255	17.43
379.463	17.58
379.671	17.41
379.879	17.3
380.088	17.12
380.296	17.1
380.504	17.03
380.712	17.06
380.92	17.01
381.128	16.86
381.336	16.78
381.544	16.51
381.752	16.38
381.96	16.52
382.168	16.57
382.376	16.67
382.584	16.76
382.791	16.9
382.999	16.95
383.207	17.03
383.415	17.07
383.623	16.93
383.831	16.92
384.039	17.03
384.247	16.91
384.454	16.99
384.662	16.89
384.87	16.74
385.078	16.56
385.285	16.55
385.493	16.66
385.701	16.59
385.909	16.68
386.116	16.78
386.324	16.92
386.532	17.12
386.739	17.01
386.947	16.98
387.155	16.92
387.362	17.14
387.57	17.01
387.778	16.92
387.985	16.93
388.193	17.23
388.4	17.25
388.608	17.04
388.816	16.88
389.023	16.85
389.231	16.65
389.438	16.66
389.646	16.6
389.853	16.77
390.061	16.8
390.268	16.8
390.475	16.39
390.683	16.16
390.89	16.09
391.098	16.09
391.305	16.11
391.512	16.12
391.72	16.12
391.927	16.03
392.135	15.98
392.342	16
392.549	16.1
392.756	16.12
392.964	16.27
393.171	16.29
393.378	16.23
393.586	16.26
393.793	16.42
394	16.45
394.207	16.4
394.414	16.28
394.622	16.1
394.829	16.1
395.036	16.29
395.243	16.15
395.45	16.17
395.657	16.19
395.864	16.01
396.072	15.9
396.279	15.96
396.486	15.9
396.693	16.1
396.9	16.22
397.107	16.11
397.314	16.07
397.521	16.2
397.728	16.25
397.935	16.49
398.142	16.64
398.349	16.69
398.556	16.45
398.763	16.43
398.97	16.14
399.177	16.1
399.383	16.07
399.59	15.94
399.797	15.99
400.004	16
400.211	15.79
400.418	15.62
400.625	15.77
400.831	15.9
401.038	16.12
401.245	16.39
401.452	16.47
401.658	16.49
401.865	16.49
402.072	16.47
402.279	16.24
402.485	16.2
402.692	16.32
402.899	16.1
403.105	16.23
403.312	16.04
403.519	15.88
403.725	15.8
403.932	15.97
404.138	16.2
404.345	16.19
404.552	16.29
404.758	16.35
404.965	16.3
405.171	16.36
405.378	16.19
405.584	16.29
405.791	16.28
405.997	16.19
406.204	15.93
406.41	15.8
406.617	15.89
406.823	15.94
407.029	15.89
407.236	15.83
407.442	15.85
407.649	15.88
407.855	15.89
408.061	15.93
408.268	15.91
408.474	16
408.68	15.81
408.887	15.72
409.093	15.72
409.299	15.83
409.505	15.94
409.712	15.95
409.918	15.97
410.124	16.04
410.33	16.2
410.537	16.27
410.743	16.23
410.949	16.45
411.155	16.45
411.361	16.56
411.567	16.5
411.773	16.34
411.98	16.22
412.186	16.22
412.392	16.15
412.598	16.04
412.804	16.14
413.01	16.29
413.216	16.3
413.422	16.08
413.628	15.89
413.834	15.94
414.04	15.99
414.246	16.08
414.452	16.23
414.658	16.08
414.864	16.04
415.07	16.04
415.275	16.01
415.481	15.89
415.687	16.07
415.893	16.08
416.099	15.97
416.305	16.07
416.511	16.08
416.716	15.94
416.922	15.99
417.128	15.96
417.334	15.81
417.539	15.67
417.745	15.72
417.951	15.58
418.157	15.64
418.362	15.65
418.568	15.64
418.774	15.55
418.979	15.65
419.185	15.72
419.391	15.74
419.596	15.83
419.802	15.94
420.008	15.98
420.213	15.5
420.419	15.44
420.624	15.4
420.83	15.42
421.035	15.48
421.241	15.4
421.446	15.38
421.652	15.4
421.857	15.41
422.063	15.34
422.268	15.33
422.474	15.93
422.679	15.99
422.885	16.04
423.09	16
423.295	16
423.501	16.07
423.706	16.03
423.911	15.97
424.117	16
424.322	16.03
424.527	15.93
424.733	15.86
424.938	15.81
425.143	15.89
425.349	15.91
425.554	15.84
425.759	15.78
425.964	15.79
426.169	15.8
426.375	15.78
426.58	15.73
426.785	15.79
426.99	15.82
427.195	16.01
427.4	15.94
427.605	15.95
427.811	16.1
428.016	16.05
428.221	15.98
428.426	15.99
428.631	15.93
428.836	15.93
429.041	15.96
429.246	15.89
429.451	15.87
429.656	15.9
429.861	15.87
430.066	15.91
430.271	15.95
430.476	16.03
430.681	16.04
430.886	15.95
431.09	16.06
431.295	16.1
431.5	16.22
431.705	16.14
431.91	16.02
432.115	15.99
432.32	15.97
432.524	15.95
432.729	15.99
432.934	15.99
433.139	16.01
433.343	15.98
433.548	15.99
433.753	15.94
433.958	16.01
434.162	16.1
434.367	16.25
434.572	16.25
434.776	16.3
434.981	16.41
435.186	16.46
435.39	16.6
435.595	16.66
435.799	16.67
436.004	16.66
436.209	16.61
436.413	16.7
436.618	16.59
436.822	16.49
437.027	16.51
437.231	16.26
437.436	16.31
437.64	16.23
437.845	16.25
438.049	16.29
438.253	16.27
438.458	16.24
438.662	16.11
438.867	16.22
439.071	16.29
439.275	16.31
439.48	16.39
439.684	16.37
439.888	16.38
440.093	16.34
440.297	16.31
440.501	16.31
440.706	16.41
440.91	16.49
441.114	16.43
441.318	16.47
441.523	16.44
441.727	16.47
441.931	16.44
442.135	16.42
442.339	16.49
442.543	16.48
442.748	16.49
442.952	16.35
443.156	16.29
443.36	16.33
443.564	16.3
443.768	16.44
443.972	16.35
444.176	16.43
444.38	16.42
444.584	16.39
444.788	16.44
444.992	16.46
445.196	16.52
445.4	16.63
445.604	16.61
445.808	16.64
446.012	16.51
446.216	16.57
446.42	16.48
446.624	16.45
446.828	16.42
447.032	16.33
447.235	16.33
447.439	16.24
447.643	16.11
447.847	16.11
448.051	16.03
448.254	16.12
448.458	16.13
448.662	16.18
448.866	16.18
449.069	16.16
449.273	16.19
449.477	16.16
449.681	16.18
449.884	16.27
450.088	16.28
450.292	16.34
450.495	16.33
450.699	16.32
450.902	16.22
451.106	16.17
451.31	16.28
451.513	16.38
451.717	16.37
451.92	16.39
452.124	16.37
452.327	16.36
452.531	16.28
452.734	16.29
452.938	16.28
453.141	16.29
453.345	16.4
453.548	16.29
453.752	16.14
453.955	16.14
454.158	16.18
454.362	16.18
454.565	16.22
454.769	16.27
454.972	16.29
455.175	16.36
455.379	16.52
455.582	16.65
455.785	16.7
455.988	16.72
456.192	16.71
456.395	16.66
456.598	16.77
456.801	16.73
457.005	16.79
457.208	16.65
457.411	16.64
457.614	16.43
457.817	16.29
458.021	16.26
458.224	16.34
458.427	16.36
458.63	16.27
458.833	16.18
459.036	16.14
459.239	16.14
459.442	16.14
459.645	16.17
459.848	16.22
460.051	16.27
460.254	16.28
460.457	16.26
460.66	16.24
460.863	16.38
461.066	16.34
461.269	16.37
461.472	16.37
461.675	16.44
461.878	16.43
462.081	16.42
462.284	16.38
462.486	16.38
462.689	16.4
462.892	16.4
463.095	16.4
463.298	16.49
463.5	16.43
463.703	16.4
463.906	16.47
464.109	16.31
464.311	16.3
464.514	16.37
464.717	16.32
464.92	16.39
465.122	16.42
465.325	16.47
465.528	16.4
465.73	16.45
465.933	16.57
466.135	16.51
466.338	16.63
466.541	16.69
466.743	16.63
466.946	16.78
467.148	16.68
467.351	16.64
467.553	16.64
467.756	16.65
467.958	16.63
468.161	16.51
468.363	16.5
468.566	16.45
468.768	16.31
468.971	16.29
469.173	16.26
469.375	16.52
469.578	16.56
469.78	16.45
469.983	16.47
470.185	16.52
470.387	16.49
470.59	16.53
470.792	16.59
470.994	16.68
471.196	16.68
471.399	16.75
471.601	16.47
471.803	16.52
472.005	16.53
472.208	16.62
472.41	16.56
472.612	16.63
472.814	16.57
473.016	16.53
473.218	16.57
473.421	16.57
473.623	16.5
473.825	16.6
474.027	16.7
474.229	16.81
474.431	16.74
474.633	16.84
474.835	16.85
475.037	16.86
475.239	16.98
475.441	17.03
475.643	17.08
475.845	17.12
476.047	17.08
476.249	16.96
476.451	16.93
476.653	16.91
476.855	16.84
477.057	16.83
477.258	16.93
477.46	16.8
477.662	16.8
477.864	16.83
478.066	16.63
478.268	16.72
478.469	16.77
478.671	16.77
478.873	16.77
479.075	16.73
479.276	16.79
479.478	16.75
479.68	16.8
479.882	16.76
480.083	16.73
480.285	16.78
480.487	16.73
480.688	16.66
480.89	16.67
481.091	16.63
481.293	16.69
481.495	16.61
481.696	16.59
481.898	16.55
482.099	16.53
482.301	16.49
482.502	16.51
482.704	16.46
482.905	16.45
483.107	16.4
483.308	16.4
483.51	16.38
483.711	16.36
483.913	16.35
484.114	16.35
484.315	16.35
484.517	16.37
484.718	16.35
484.92	16.41
485.121	16.42
485.322	16.48
485.524	16.51
485.725	16.51
485.926	16.52
486.127	16.52
486.329	16.5
486.53	16.56
486.731	16.54
486.932	16.56
487.134	16.51
487.335	16.53
487.536	16.49
487.737	16.49
487.938	16.5
488.139	16.57
488.341	16.59
488.542	16.64
488.743	16.61
488.944	16.68
489.145	16.7
489.346	16.76
489.547	16.77
489.748	16.83
489.949	16.84
490.15	16.83
490.351	16.77
490.552	16.8
490.753	16.8
490.954	16.8
491.155	16.76
491.356	16.75
491.557	16.73
491.758	16.7
491.959	16.67
492.159	16.7
492.36	16.72
492.561	16.81
492.762	16.83
492.963	16.85
493.164	16.9
493.364	16.91
493.565	16.92
493.766	16.95
493.967	16.97
494.167	16.98
494.368	17.05
494.569	17.11
494.769	17.08
494.97	17.06
495.171	17.09
495.371	17.08
495.572	17.18
495.773	17.3
495.973	17.34
496.174	17.34
496.375	17.39
496.575	17.39
496.776	17.41
496.976	17.42
497.177	17.41
497.377	17.44
497.578	17.48
497.778	17.5
497.979	17.41
498.179	17.41
498.38	17.48
498.58	17.53
498.78	17.49
498.981	17.46
499.181	17.38
499.382	17.45
499.582	17.4
499.782	17.47
499.983	17.39
500.183	17.5
500.383	17.43
500.584	17.48
500.784	17.44
500.984	17.45
501.184	17.46
501.385	17.62
501.585	17.65
501.785	17.72
501.985	17.69
502.185	17.78
502.386	17.87
502.586	17.92
502.786	17.89
502.986	18.03
503.186	18.06
503.386	18.09
503.586	18.12
503.786	18.11
503.987	18.2
504.187	18.24
504.387	18.29
504.587	18.16
504.787	18.25
504.987	18.25
505.187	18.24
505.387	18.32
505.587	18.36
505.786	18.34
505.986	18.36
506.186	18.41
506.386	18.45
506.586	18.46
506.786	18.57
506.986	18.64
507.186	18.71
507.386	18.74
507.585	18.69
507.785	18.68
507.985	18.69
508.185	18.73
508.384	18.71
508.584	18.65
508.784	18.6
508.984	18.62
509.183	18.64
509.383	18.73
509.583	18.82
509.782	18.92
509.982	19.07
510.182	19.17
510.381	19.31
510.581	19.34
510.781	19.45
510.98	19.63
511.18	19.72
511.379	19.77
511.579	19.85
511.778	19.84
511.978	19.84
512.177	19.79
512.377	19.85
512.576	19.82
512.776	19.88
512.975	19.88
513.175	19.96
513.374	19.88
513.573	19.91
513.773	19.89
513.972	19.87
514.172	19.97
514.371	20.18
514.57	20.14
514.77	20.07
514.969	20.08
515.168	20.21
515.367	20.13
515.567	20.31
515.766	20.32
515.965	20.32
516.164	20.41
516.364	20.43
516.563	20.32
516.762	20.36
516.961	20.48
517.16	20.52
517.359	20.54
517.559	20.58
517.758	20.57
517.957	20.66
518.156	20.78
518.355	20.8
518.554	20.87
518.753	20.96
518.952	21.09
519.151	21.16
519.35	21.21
519.549	21.29
519.748	21.32
519.947	21.39
520.146	21.43
520.345	21.44
520.544	21.56
520.743	21.59
520.942	21.65
521.141	21.73
521.339	21.74
521.538	21.82
521.737	21.82
521.936	21.87
522.135	21.94
522.333	21.98
522.532	22.02
522.731	22.07
522.93	22.14
523.129	22.14
523.327	22.09
523.526	22.13
523.725	22.11
523.923	22.2
524.122	22.26
524.321	22.28
524.519	22.28
524.718	22.27
524.917	22.28
525.115	22.25
525.314	22.36
525.512	22.31
525.711	22.41
525.909	22.41
526.108	22.45
526.306	22.43
526.505	22.51
526.703	22.52
526.902	22.61
527.1	22.56
527.299	22.7
527.497	22.68
527.696	22.71
527.894	22.63
528.092	22.66
528.291	22.67
528.489	22.72
528.688	22.7
528.886	22.7
529.084	22.69
529.283	22.75
529.481	22.69
529.679	22.72
529.877	22.78
530.076	22.86
530.274	22.94
530.472	23
530.67	23.03
530.869	23.14
531.067	23.23
531.265	23.29
531.463	23.34
531.661	23.45
531.859	23.5
532.057	23.5
532.255	23.53
532.454	23.55
532.652	23.58
532.85	23.61
533.048	23.55
533.246	23.54
533.444	23.58
533.642	23.59
533.84	23.61
534.038	23.65
534.236	23.69
534.434	23.74
534.632	23.81
534.83	23.84
535.027	23.88
535.225	24
535.423	24.14
535.621	24.15
535.819	24.23
536.017	24.23
536.215	24.22
536.412	24.31
536.61	24.38
536.808	24.43
537.006	24.45
537.203	24.51
537.401	24.57
537.599	24.66
537.797	24.71
537.994	24.8
538.192	24.9
538.39	25.1
538.587	25.16
538.785	25.27
538.983	25.33
539.18	25.44
539.378	25.57
539.575	25.6
539.773	25.6
539.97	25.66
540.168	25.68
540.366	25.75
540.563	25.69
540.761	25.73
540.958	25.75
541.155	25.72
541.353	25.77
541.55	25.78
541.748	25.85
541.945	25.85
542.143	25.87
542.34	25.92
542.537	25.94
542.735	26.01
542.932	26.07
543.129	26.13
543.327	26.22
543.524	26.23
543.721	26.38
543.919	26.48
544.116	26.75
544.313	26.99
544.51	27.17
544.708	27.44
544.905	27.7
545.102	27.9
545.299	28.04
545.496	28.25
545.693	28.44
545.891	28.4
546.088	28.46
546.285	28.43
546.482	28.4
546.679	28.35
546.876	28.25
547.073	28.09
547.27	28.01
547.467	27.94
547.664	27.86
547.861	27.8
548.058	27.85
548.255	27.71
548.452	27.64
548.649	27.58
548.846	27.56
549.043	27.51
549.24	27.65
549.437	27.67
549.633	27.72
549.83	27.77
550.027	27.74
550.224	27.8
550.421	27.82
550.618	27.83
550.814	27.86
551.011	27.87
551.208	27.99
551.405	27.89
551.601	27.86
551.798	27.83
551.995	27.82
552.191	27.81
552.388	27.74
552.585	27.76
552.781	27.7
552.978	27.63
553.175	27.68
553.371	27.49
553.568	27.52
553.764	27.51
553.961	27.6
554.157	27.57
554.354	27.63
554.55	27.66
554.747	27.72
554.943	27.75
555.14	27.82
555.336	27.75
555.533	27.91
555.729	28.02
555.926	28.08
556.122	28.04
556.318	28.09
556.515	28.06
556.711	28.03
556.907	28.03
557.104	28.14
557.3	28.26
557.496	28.3
557.693	28.28
557.889	28.33
558.085	28.24
558.281	28.25
558.478	28.3
558.674	28.33
558.87	28.37
559.066	28.36
559.262	28.41
559.459	28.36
559.655	28.3
559.851	28.37
560.047	28.43
560.243	28.52
560.439	28.5
560.635	28.42
560.831	28.54
561.027	28.52
561.223	28.58
561.419	28.48
561.615	28.55
561.811	28.77
562.007	28.78
562.203	28.69
562.399	28.71
562.595	28.8
562.791	28.95
562.987	28.84
563.183	28.92
563.379	29.07
563.575	29.13
563.771	29
563.966	28.85
564.162	28.87
564.358	28.82
564.554	28.85
564.75	28.87
564.945	28.85
565.141	28.99
565.337	28.95
565.533	28.89
565.728	28.88
565.924	28.92
566.12	28.95
566.315	28.96
566.511	29.11
566.707	29.12
566.902	29.09
567.098	29.04
567.293	29.01
567.489	29.07
567.684	29.01
567.88	29.05
568.076	29.08
568.271	29.2
568.467	29.09
568.662	28.94
568.858	28.87
569.053	28.92
569.248	29
569.444	29
569.639	29.03
569.835	29.12
570.03	29.18
570.225	29.17
570.421	29.15
570.616	29.19
570.812	29.27
571.007	29.38
571.202	29.36
571.397	29.3
571.593	29.28
571.788	29.27
571.983	29.19
572.178	29.21
572.374	29.3
572.569	29.24
572.764	29.32
572.959	29.33
573.154	29.31
573.35	29.49
573.545	29.54
573.74	29.62
573.935	29.69
574.13	29.69
574.325	29.68
574.52	29.69
574.715	29.85
574.91	29.87
575.105	29.9
575.3	29.95
575.495	29.93
575.69	30.01
575.885	30.15
576.08	30.18
576.275	30.36
576.47	30.57
576.665	30.64
576.86	30.67
577.055	30.85
577.25	31.01
577.444	31.13
577.639	31.19
577.834	31.33
578.029	31.31
578.224	31.47
578.418	31.63
578.613	31.61
578.808	31.61
579.003	31.57
579.197	31.51
579.392	31.43
579.587	31.52
579.781	31.62
579.976	31.6
580.171	31.59
580.365	31.53
580.56	31.53
580.755	31.66
580.949	31.72
581.144	31.93
581.338	32.11
581.533	32.07
581.727	32.12
581.922	32.01
582.116	31.93
582.311	31.94
582.505	32.1
582.7	32.14
582.894	32.03
583.089	32.18
583.283	32.14
583.478	32
583.672	32.16
583.866	32.12
584.061	32.18
584.255	32.31
584.449	32.44
584.644	32.4
584.838	32.41
585.032	32.39
585.226	32.49
585.421	32.7
585.615	32.8
585.809	32.91
586.003	32.96
586.198	33.07
586.392	33.08
586.586	33.18
586.78	33.36
586.974	33.27
587.168	33.3
587.363	33.09
587.557	32.94
587.751	32.9
587.945	32.83
588.139	32.68
588.333	32.62
588.527	32.63
588.721	32.43
588.915	32.13
589.109	32.12
589.303	32.13
589.497	32.07
589.691	32.07
589.885	32.05
590.079	32.07
590.273	32.18
590.466	32.2
590.66	32.25
590.854	32.42
591.048	32.66
591.242	32.73
591.436	32.78
591.629	33
591.823	33.01
592.017	33.25
592.211	33.34
592.404	33.33
592.598	33.37
592.792	33.35
592.986	33.21
593.179	33.15
593.373	33.14
593.567	33.04
593.76	32.91
593.954	32.96
594.147	32.82
594.341	32.67
594.535	32.72
594.728	32.71
594.922	32.6
595.115	32.61
595.309	32.48
595.502	32.45
595.696	32.45
595.889	32.4
596.083	32.24
596.276	32.08
596.47	32.22
596.663	32.15
596.856	32.01
597.05	32
597.243	32.07
597.437	32.26
597.63	32.32
597.823	32.37
598.017	32.59
598.21	32.72
598.403	32.83
598.596	32.72
598.79	32.79
598.983	33.09
599.176	33.18
599.369	33.15
599.563	33
599.756	33.05
599.949	33.06
600.142	32.9
600.335	32.99
600.528	33.06
600.722	33.13
600.915	33.15
601.108	33.06
601.301	33.05
601.494	33.05
601.687	33.24
601.88	33.26
602.073	33.34
602.266	33.32
602.459	33.1
602.652	33
602.845	32.91
603.038	32.82
603.231	32.72
603.424	32.68
603.617	32.68
603.809	32.51
604.002	32.46
604.195	32.42
604.388	32.38
604.581	32.34
604.774	32.47
604.966	32.49
605.159	32.57
605.352	32.62
605.545	32.73
605.737	32.9
605.93	32.97
606.123	33.04
606.316	33.04
606.508	33.29
606.701	33.55
606.894	33.66
607.086	33.86
607.279	34
607.471	34.18
607.664	34.24
607.857	34.49
608.049	34.86
608.242	35.26
608.434	35.79
608.627	36.4
608.819	37.22
609.012	38.1
609.204	39.11
609.397	40.21
609.589	41.4
609.782	42.88
609.974	44.06
610.166	45.43
610.359	46.75
610.551	47.9
610.743	48.89
610.936	49.73
611.128	50.43
611.32	50.9
611.513	51.33
611.705	51.41
611.897	51.28
612.09	51.03
612.282	50.62
612.474	50.06
612.666	49.45
612.858	48.81
613.051	48.31
613.243	47.53
613.435	46.79
613.627	45.99
613.819	45.55
614.011	44.87
614.203	44.27
614.395	43.67
614.588	42.97
614.78	42.71
614.972	42.21
615.164	41.34
615.356	40.85
615.548	40.29
615.74	39.76
615.932	39.28
616.124	38.89
616.315	38.41
616.507	37.99
616.699	37.61
616.891	37.06
617.083	36.65
617.275	36.67
617.467	36.58
617.659	36.67
617.85	36.65
618.042	36.51
618.234	36.35
618.426	36.63
618.618	36.5
618.809	36.7
619.001	36.84
619.193	37
619.384	36.85
619.576	36.69
619.768	36.63
619.959	36.53
620.151	36.28
620.343	36.4
620.534	36.06
620.726	36.07
620.917	35.8
621.109	36
621.301	36.06
621.492	36
621.684	36.01
621.875	36.04
622.067	36.13
622.258	36.39
622.45	36.51
622.641	36.53
622.832	36.71
623.024	36.88
623.215	36.65
623.407	36.56
623.598	36.62
623.789	36.73
623.981	36.82
624.172	36.65
624.363	36.71
624.555	36.37
624.746	36.54
624.937	36.43
625.129	36.35
625.32	36.34
625.511	36.07
625.702	36.18
625.893	36.17
626.085	35.98
626.276	35.94
626.467	35.84
626.658	35.9
626.849	35.78
627.04	35.78
627.231	35.85
627.422	35.8
627.614	36.09
627.805	36.14
627.996	36.19
628.187	36.37
628.378	36.66
628.569	36.75
628.76	37.09
628.951	37.47
629.142	37.59
629.332	37.81
629.523	37.9
629.714	37.97
629.905	38.18
630.096	38.32
630.287	38.56
630.478	38.45
630.669	38.44
630.859	38.32
631.05	38.06
631.241	38.12
631.432	37.87
631.623	37.92
631.813	37.75
632.004	37.36
632.195	37.07
632.385	36.69
632.576	36.51
632.767	36.46
632.957	36.1
633.148	36.07
633.339	35.76
633.529	35.74
633.72	35.57
633.91	35.48
634.101	35.34
634.292	35.2
634.482	35.03
634.673	35.11
634.863	34.98
635.054	35.08
635.244	34.97
635.435	35.03
635.625	35
635.815	35.06
636.006	35.02
636.196	35.05
636.387	35.19
636.577	35.23
636.767	35.22
636.958	35.21
637.148	35.12
637.338	35.11
637.529	35.09
637.719	34.89
637.909	34.82
638.099	34.9
638.29	35.05
638.48	34.91
638.67	35.05
638.86	35.1
639.05	35.27
639.241	35.4
639.431	35.45
639.621	35.49
639.811	35.54
640.001	35.77
640.191	35.75
640.381	35.78
640.571	36
640.761	35.95
640.951	35.67
641.141	35.72
641.331	35.8
641.521	35.68
641.711	35.8
641.901	36.05
642.091	35.92
642.281	35.88
642.471	35.97
642.661	36.04
642.851	36.1
643.041	36.57
643.231	36.48
643.42	36.55
643.61	36.56
643.8	36.59
643.99	36.46
644.18	36.55
644.369	36.69
644.559	36.5
644.749	36.28
644.939	36.07
645.128	35.78
645.318	35.75
645.508	35.72
645.697	35.9
645.887	35.67
646.076	35.69
646.266	35.41
646.456	35.38
646.645	35.53
646.835	35.62
647.024	35.69
647.214	35.65
647.403	35.75
647.593	35.57
647.782	35.49
647.972	35.86
648.161	36.18
648.351	36.32
648.54	36.61
648.73	36.55
648.919	36.6
649.108	36.68
649.298	36.87
649.487	36.81
649.677	37.12
649.866	37.29
650.055	37.11
650.244	37.04
650.434	37.09
650.623	36.85
650.812	36.98
651.002	36.79
651.191	37.01
651.38	36.8
651.569	36.94
651.758	36.74
651.947	36.8
652.137	36.65
652.326	36.57
652.515	36.51
652.704	36.34
652.893	36.31
653.082	36.48
653.271	36.32
653.46	36.38
653.649	36
653.838	36.1
654.027	35.97
654.216	35.98
654.405	35.97
654.594	35.98
654.783	36.06
654.972	35.9
655.161	35.9
655.35	35.95
655.539	36.28
655.728	36.25
655.916	36.07
656.105	35.85
656.294	36.02
656.483	36.07
656.672	35.93
656.86	35.97
657.049	35.88
657.238	35.8
657.427	35.71
657.615	35.69
657.804	35.85
657.993	35.62
658.181	35.65
658.37	35.46
658.559	35.25
658.747	35.24
658.936	35.29
659.125	35.35
659.313	35.43
659.502	35.42
659.69	35.25
659.879	35.23
660.067	35.6
660.256	35.48
660.444	35.7
660.633	35.92
660.821	36.15
661.01	36.02
661.198	36.26
661.387	36.51
661.575	36.59
661.763	36.7
661.952	36.82
662.14	36.82
662.328	37.21
662.517	37.17
662.705	37
662.893	36.92
663.082	37.04
663.27	36.94
663.458	36.86
663.646	37.01
663.834	37.08
664.023	37.32
664.211	37.26
664.399	37.12
664.587	36.81
664.775	37.11
664.963	37.2
665.152	37.24
665.34	37.32
665.528	37.02
665.716	37.13
665.904	37.18
666.092	37.03
666.28	37.18
666.468	37.12
666.656	37.44
666.844	37.32
667.032	37.4
667.22	37.46
667.408	37.28
667.596	37.24
667.784	36.67
667.971	36.56
668.159	36.34
668.347	36.23
668.535	36.09
668.723	35.89
668.911	35.9
669.098	35.82
669.286	35.72
669.474	35.88
669.662	36.04
669.849	36.68
670.037	36.62
670.225	36.82
670.413	36.8
670.6	37.04
670.788	37.3
670.976	37.29
671.163	37.18
671.351	37.25
671.538	37.28
671.726	37.27
671.913	36.96
672.101	37.1
672.289	37.21
672.476	37.09
672.664	37.15
672.851	37.06
673.039	37.27
673.226	37.35
673.413	37.24
673.601	37.13
673.788	37.17
673.976	37.12
674.163	37.31
674.35	37.24
674.538	37.51
674.725	37.55
674.912	37.53
675.1	37.38
675.287	37.28
675.474	37.45
675.662	37.79
675.849	37.65
676.036	37.84
676.223	37.88
676.411	38.02
676.598	37.89
676.785	37.93
676.972	37.96
677.159	37.71
677.346	38.02
677.533	38
677.721	37.75
677.908	37.78
678.095	37.33
678.282	37.11
678.469	36.74
678.656	36.63
678.843	36.53
679.03	36.42
679.217	36.69
679.404	36.5
679.591	36.59
679.778	36.58
679.964	36.61
680.151	36.94
680.338	36.81
680.525	36.74
680.712	36.72
680.899	36.76
681.086	37.03
681.272	36.89
681.459	37.1
681.646	36.95
681.833	37.01
682.02	36.95
682.206	36.71
682.393	36.89
682.58	37.13
682.766	37.16
682.953	37.16
683.14	36.97
683.326	36.96
683.513	36.81
683.7	37
683.886	36.96
684.073	37.24
684.259	37.42
684.446	37.32
684.632	37.45
684.819	37.7
685.005	37.75
685.192	37.61
685.378	37.69
685.565	37.93
685.751	37.99
685.938	37.91
686.124	38.31
686.31	38.3
686.497	38.53
686.683	38.6
686.87	38.52
687.056	38.52
687.242	38.42
687.429	38.51
687.615	38.08
687.801	37.97
687.987	37.91
688.174	37.41
688.36	37.54
688.546	37.53
688.732	37.57
688.918	37.72
689.105	37.53
689.291	37.75
689.477	37.71
689.663	37.84
689.849	37.7
690.035	37.82
690.221	38.12
690.407	38.05
690.593	37.87
690.779	37.63
690.965	37.56
691.151	37.81
691.337	38.04
691.523	37.94
691.709	38.34
691.895	38.42
692.081	38.41
692.267	38.29
692.453	38.39
692.639	38.46
692.825	38.57
693.011	38.46
693.196	38.79
693.382	38.68
693.568	39.04
693.754	38.75
693.94	39.04
694.125	39.01
694.311	38.61
694.497	38.56
694.682	38.15
694.868	37.87
695.054	38.01
695.239	37.73
695.425	37.79
695.611	37.69
695.796	37.39
695.982	37.26
696.168	37.22
696.353	37.35
696.539	37.26
696.724	37.71
696.91	37.55
697.095	37.26
697.281	37.05
697.466	36.99
697.652	36.75
697.837	37.1
698.023	36.84
698.208	36.88
698.393	36.73
698.579	36.69
698.764	36.61
698.949	36.58
699.135	36.51
699.32	36.49
699.505	36.29
699.691	36.32
699.876	36.02
700.061	36.2
700.246	36.06
700.432	36.19
700.617	36.1
700.802	36.08
700.987	36.66
701.172	37.01
701.358	37.26
701.543	37.38
701.728	37.71
701.913	37.8
702.098	37.74
702.283	38.1
702.468	37.93
702.653	38.74
702.838	38.99
703.023	38.72
703.208	39.2
703.393	39.5
703.578	39.68
703.763	39.6
703.948	40.02
704.133	40.46
704.318	41.11
704.503	41.98
704.688	41.88
704.873	42.38
705.057	43.08
705.242	42.99
705.427	43.36
705.612	43.52
705.797	43.96
705.981	44.13
706.166	44.28
706.351	44.17
706.536	44.44
706.72	44.8
706.905	44.7
707.09	44.45
707.274	44.53
707.459	44.05
707.644	44.74
707.828	44.98
708.013	45.25
708.197	45.28
708.382	45.03
708.567	44.56
708.751	44.18
708.936	43.86
709.12	43.89
709.305	43.78
709.489	43.73
709.673	43.21
709.858	42.81
710.042	42.36
710.227	42.28
710.411	42.61
710.596	42.52
710.78	42.68
710.964	42.58
711.149	42.51
711.333	42.47
711.517	42.33
711.702	42.46
711.886	42.57
712.07	42.9
712.254	42.6
712.438	42.27
712.623	42.07
712.807	41.57
712.991	41.66
713.175	41.52
713.359	41.4
713.544	41.59
713.728	41.32
713.912	41.02
714.096	40.66
714.28	40.67
714.464	40.45
714.648	40.35
714.832	40.17
715.016	39.61
715.2	39.04
715.384	38.67
715.568	38.23
715.752	37.79
715.936	37.81
716.12	37.18
716.304	37.18
716.488	36.94
716.671	37.23
716.855	37.29
717.039	37.14
717.223	37.35
717.407	37.44
717.59	37.48
717.774	37.6
717.958	37.11
718.142	37.55
718.325	37.52
718.509	37.95
718.693	37.25
718.877	37.05
719.06	37.77
719.244	37.71
719.428	37.91
719.611	38.04
719.795	38.36
719.978	37.9
720.162	37.82
720.345	37.97
720.529	37.9
720.713	38.51
720.896	39.1
721.08	39.09
721.263	39.44
721.446	39.39
721.63	39.52
721.813	39.17
721.997	40.17
722.18	40.21
722.364	40.18
722.547	39.66
722.73	39.16
722.914	39.08
723.097	39.03
723.28	39.16
723.464	38.46
723.647	38.5
723.83	38.3
724.013	38.22
724.197	38.42
724.38	38.25
724.563	38.64
724.746	38.99
724.929	38.54
725.112	38.03
725.296	37.86
725.479	38.15
725.662	37.98
725.845	38.47
726.028	38.48
726.211	38.61
726.394	38.46
726.577	38.28
726.76	37.89
726.943	38.29
727.126	38.2
727.309	38.17
727.492	38.22
727.675	37.92
727.858	37.54
728.041	37.42
728.224	37.45
728.407	37.33
728.589	37.63
728.772	38.03
728.955	37.94
729.138	37.97
729.321	37.78
729.503	38.04
729.686	38.39
729.869	38.88
730.052	38.73
730.234	38.56
730.417	38.59
730.6	37.88
730.782	37.7
730.965	37.31
731.148	37.79
731.33	37.68
731.513	37.52
731.695	37.5
731.878	37.36
732.061	37.79
732.243	38.23
732.426	38.2
732.608	38.42
732.791	38.55
732.973	38.96
733.156	38.78
733.338	38.93
733.52	39.07
733.703	39.16
733.885	39.24
734.068	39.19
734.25	38.85
734.432	39.42
734.615	39.78
734.797	39.9
734.979	39.92
735.162	39.98
735.344	40.08
735.526	40.11
735.708	40.27
735.891	40.07
736.073	39.87
736.255	39.74
736.437	39.58
736.619	39.6
736.802	39.54
736.984	39.71
737.166	40.24
737.348	40.68
737.53	40.61
737.712	40.28
737.894	40.57
738.076	40.66
738.258	41.02
738.44	40.64
738.622	40.87
738.804	40.98
738.986	40.69
739.168	40.36
739.35	39.63
739.532	39.55
739.714	39.41
739.896	39.66
740.078	39.64
740.259	39.38
740.441	39.71
740.623	39.4
740.805	39.42
740.987	39.8
741.168	39.6
741.35	40.34
741.532	40.73
741.714	41.68
741.895	41.57
742.077	41.34
742.259	41.55
742.44	41.47
742.622	41.93
742.804	41.84
742.985	41.59
743.167	41.74
743.348	41.63
743.53	41.36
743.711	41.06
743.893	41.14
744.075	40.9
744.256	40.97
744.438	40.95
744.619	40.96
744.8	41.17
744.982	40.76
745.163	41.34
745.345	41.4
745.526	41.48
745.707	41.01
745.889	40.92
746.07	41.16
746.252	40.76
746.433	40.83
746.614	40.96
746.795	40.89
746.977	41.46
747.158	41.13
747.339	40.89
747.52	41.37
747.702	41.94
747.883	42.07
748.064	42.4
748.245	42.6
748.426	42.5
748.607	42.47
748.788	42.17
748.97	42.27
749.151	41.78
749.332	41.89
749.513	41
749.694	40.85
749.875	40.02
750.056	39.6
750.237	40.21
750.418	40.48
750.599	40.32
750.78	41.11
750.96	41.13
751.141	41.48
751.322	41.31
751.503	42.08
751.684	41.53
751.865	42.44
752.046	42.44
752.226	41.91
752.407	41.71
752.588	41.58
752.769	41.39
752.949	41.27
753.13	41.37
753.311	40.97
753.492	41.17
753.672	41.41
753.853	41.28
754.034	41.87
754.214	41.73
754.395	41.63
754.575	41.24
754.756	40.88
754.937	40.28
755.117	40.89
755.298	41.54
755.478	41.06
755.659	41.13
755.839	41.01
756.02	41.03
756.2	41.83
756.381	41.5
756.561	41.3
756.741	40.79
756.922	40.88
757.102	40
757.283	40.2
757.463	39.99
757.643	39.95
757.823	39.21
758.004	38.53
758.184	37.97
758.364	37.87
758.545	38.91
758.725	39.09
758.905	38.64
759.085	37.96
759.265	37.49
759.446	37.06
759.626	36.37
759.806	36.29
759.986	36.6
760.166	36.2
760.346	36.21
760.526	34.67
760.706	34.22
760.886	34.32
761.066	34.84
761.246	34.62
761.426	34.49
761.606	34.43
761.786	33.76
761.966	33.72
762.146	33.65
762.326	33.51
762.506	33.66
762.686	33.91
762.866	33.93
763.046	33.89
763.225	33.78
763.405	33.88
763.585	34.08
763.765	34.74
763.945	34.72
764.124	34.89
764.304	35.14
764.484	35.84
764.664	35.58
764.843	35.86
765.023	36.16
765.203	36.31
765.382	37.05
765.562	37.48
765.741	37.65
765.921	37.72
766.101	37.96
766.28	37.79
766.46	37.81
766.639	38.94
766.819	38.62
766.998	38.49
767.178	39.28
767.357	38.96
767.537	38.9
767.716	39.79
767.896	40.51
768.075	40.68
768.254	41.06
768.434	41
768.613	41.01
768.792	41.85
768.972	42.19
769.151	41.77
769.33	42.53
769.51	43.53
769.689	43.3
769.868	43.03
770.047	42.26
770.226	42.84
770.406	42.49
770.585	42.76
770.764	42.47
770.943	42.19
771.122	42.46
771.301	41.8
771.48	41.6
771.66	40.49
771.839	40.05
772.018	41.23
772.197	40.54
772.376	41.31
772.555	41.2
772.734	41.81
772.913	41.5
773.092	42.11
773.271	41.87
773.449	41.21
773.628	42.12
773.807	43.27
773.986	43.14
774.165	44.42
774.344	43.57
774.523	43.17
774.701	42.16
774.88	42.72
775.059	41.23
775.238	42.06
775.417	43.06
775.595	43.15
775.774	42.47
775.953	41.47
776.131	40.88
776.31	41.65
776.489	42.16
776.667	43.16
776.846	43.9
777.025	45.42
777.203	45.27
777.382	44.66
777.56	44.14
777.739	44.99
777.917	45.04
778.096	44.92
778.274	44.43
778.453	44.11
778.631	43.56
778.81	42.36
778.988	42.21
779.166	41.66
779.345	41.58
779.523	41.89
779.702	40.95
779.88	41.99
780.058	42.13
780.237	42.43
780.415	42.51
780.593	42.66
780.771	42.78
780.95	42.86
781.128	43.2
781.306	42.55
781.484	42.87
781.662	43.41
781.841	43.16
782.019	42.62
782.197	42.3
782.375	42.3
782.553	42.51
782.731	42.71
782.909	41.56
783.087	41.99
783.265	42.83
783.443	42.35
783.621	42.05
783.799	43.23
783.977	43.3
784.155	43.45
784.333	43.65
784.511	43.52
784.689	43.76
784.867	43.74
785.045	43.08
785.223	42.76
785.4	43.16
785.578	43.25
785.756	42.64
785.934	43.67
786.112	42.84
786.289	43.44
786.467	43.47
786.645	44.04
786.823	44.22
787	44.36
787.178	43.21
787.356	42.37
787.533	41.16
787.711	40.37
787.889	40.03
788.066	40.61
788.244	39.04
788.421	38.83
788.599	38.44
788.776	38.22
788.954	38.6
789.131	39.16
789.309	39.48
789.486	39.78
789.664	40.34
789.841	40.35
790.019	40.1
790.196	40.33
790.373	40.95
790.551	40.98
790.728	42.44
790.906	42.47
791.083	43.32
791.26	43.63
791.437	43.58
791.615	43.22
791.792	42.36
791.969	42.72
792.146	44.04
792.324	43.96
792.501	43.69
792.678	42.46
792.855	41.59
793.032	41.46
793.209	40.5
793.387	41.85
793.564	41.47
793.741	41.77
793.918	41.5
794.095	40.49
794.272	40.72
794.449	40.72
794.626	41.05
794.803	42.35
794.98	42.28
795.157	43.67
795.334	43.66
795.511	43.28
795.688	44
795.864	44.54
796.041	44.01
796.218	42.94
796.395	41.99
796.572	41.98
796.749	41.48
796.925	40.95
797.102	39.86
797.279	37.97
797.456	38.66
797.632	37.96
797.809	37.32
797.986	37.82
798.162	38.11
798.339	39.53
798.516	39.38
798.692	39.63
798.869	39.69
799.046	40.01
799.222	40.93
799.399	40.65
799.575	41.73
799.752	42.59
799.928	43.94
800.105	43.51
800.281	43.69
800.458	44.22
800.634	43.37
800.811	43.21
800.987	43.96
801.163	43.66
801.34	43.66
801.516	42.19
801.692	40.18
801.869	38.78
802.045	38.19
802.221	37.93
802.398	37.03
802.574	37.38
802.75	38.05
802.926	36.39
803.103	36.98
803.279	37.31
803.455	36.87
803.631	38.52
803.807	38.42
803.983	41.2
804.16	41.12
804.336	41.14
804.512	41.2
804.688	40.68
804.864	42.22
805.04	43.11
805.216	42.84
805.392	43.68
805.568	43.82
805.744	43.51
805.92	41.16
806.096	41.24
806.272	42.97
806.448	42.8
806.623	44.3
806.799	43.93
806.975	44
807.151	43.68
807.327	44.64
807.503	43.48
807.678	45.02
807.854	46.2
808.03	46.39
808.206	45.25
808.381	46.2
808.557	44.65
808.733	44.88
808.908	45.49
809.084	45.36
809.26	44.35
809.435	46.3
809.611	45.29
809.787	45.53
809.962	44.56
810.138	44.55
810.313	43
810.489	42.49
810.664	40.87
810.84	39.66
811.015	40.45
811.191	42.78
811.366	42.01
811.542	42.32
811.717	41.12
811.892	41.14
812.068	40.82
812.243	41
812.419	42.26
812.594	42.44
812.769	41.49
812.944	41.02
813.12	40
813.295	39.27
813.47	37.86
813.645	37.55
813.821	38.05
813.996	38.92
814.171	40.5
814.346	39.6
814.521	39.18
814.697	39.93
814.872	40.15
815.047	38.85
815.222	38.18
815.397	39.18
815.572	38.88
815.747	39.22
815.922	39.92
816.097	39.7
816.272	40.1
816.447	41.22
816.622	42.36
816.797	42.36
816.972	41.87
817.147	41.49
817.322	41.91
817.496	41.66
817.671	41.19
817.846	37.95
818.021	36.56
818.196	37.07
818.371	36.86
818.545	35.72
818.72	35.89
818.895	34.63
819.069	34.5
819.244	33.58
819.419	34.11
819.594	32.78
819.768	33.73
819.943	34.26
820.117	32.82
820.292	32.01
820.467	31.86
820.641	31.24
820.816	31.24
820.99	31.27
821.165	30.25
821.339	29.75
821.514	29.57
821.688	29.2
821.863	28.81
822.037	28.72
822.212	28.82
822.386	28.56
822.56	28.34
822.735	28.19
822.909	28.02
823.084	28.19
823.258	28.32
823.432	28.44
823.606	28.47
823.781	28.35
823.955	28.35
824.129	28.12
824.303	28.14
824.478	28.05
824.652	28.44
824.826	28.62
825	28.64
825.174	28.61
825.348	28.94
825.523	28.99
825.697	29.24
825.871	29.38
826.045	30.13
826.219	30.12
826.393	30.44
826.567	30.23
826.741	29.91
826.915	29.8
827.089	29.93
827.263	29.49
827.437	29.27
827.611	29.22
827.784	29.3
827.958	28.59
828.132	28.32
828.306	28.24
828.48	27.87
828.654	28.47
828.827	28.22
829.001	28.42
829.175	28.7
829.349	29.55
829.522	29.85
829.696	30.08
829.87	31
830.044	31.84
830.217	32.28
830.391	33.34
830.565	33.18
830.738	34.88
830.912	33.61
831.085	33.13
831.259	33
831.432	31.38
831.606	32.1
831.779	31.36
831.953	31.2
832.126	31.27
832.3	31.66
832.473	31.37
832.647	31.38
832.82	31.86
832.994	31.28
833.167	32.21
833.34	32.26
833.514	31.52
833.687	31.84
833.86	31.76
834.034	31.72
834.207	31.44
834.38	31.67
834.553	31.31
834.727	31.68
834.9	32.36
835.073	31.69
835.246	32.94
835.419	32.73
835.593	32.87
835.766	33.44
835.939	34.6
836.112	35.26
836.285	35.41
836.458	36.44
836.631	36.34
836.804	36.7
836.977	37.92
837.15	38.05
837.323	39.06
837.496	40.53
837.669	42.02
837.842	41.16
838.015	38.92
838.188	39.54
838.361	38.6
838.533	39.45
838.706	41.17
838.879	38.96
839.052	38.17
839.225	37.68
839.398	37.17
839.57	35.4
839.743	34.35
839.916	37.31
840.088	36.36
840.261	36.67
840.434	35.48
840.607	35.15
840.779	37.21
840.952	37.68
841.124	39.78
841.297	39.65
841.47	39.39
841.642	40.49
841.815	39.8
841.987	43.11
842.16	43.04
842.332	43.44
842.505	43.82
842.677	45.06
842.85	46.28
843.022	44.41
843.194	44.68
843.367	46.75
843.539	46.4
843.712	48.67
843.884	47.8
844.056	50.52
844.229	54.9
844.401	53.07
844.573	51.06
844.745	50.32
844.918	51.77
845.09	51.79
845.262	48.9
845.434	49.61
845.606	45.83
845.779	44.29
845.951	43.81
846.123	43.58
846.295	45.94
846.467	44.53
846.639	44.61
846.811	46.81
846.983	45.24
847.155	48.48
847.327	48.57
847.499	48.68
847.671	50.73
847.843	50.18
848.015	49.41
848.187	50.25
848.359	48.16
848.531	50.15
848.703	48.51
848.875	51.03
849.047	48.56
849.218	50.98
849.39	50.48
849.562	47.83
849.734	43.79
849.905	42
850.077	41.82
850.249	46.98
850.421	43.91
850.592	42.6
850.764	43.45
850.936	48.25
851.107	44.15
851.279	48.03
851.451	49.52
851.622	55.81
851.794	57.59
851.965	54.37
852.137	46.53
852.308	50.04
852.48	53.04
852.651	51.12
852.823	51.53
852.994	56.2
853.166	53.86
853.337	52.43
853.509	51.68
853.68	50.41
853.851	54.72
854.023	62.99
854.194	61.51
854.365	59.19
854.537	58.76
854.708	56.4
854.879	55.45
855.05	57.1
855.222	58.67
855.393	55.37
855.564	52.01
855.735	49.49
855.906	45.49
856.078	45.04
856.249	51.43
856.42	49.67
856.591	51.28
856.762	47.87
856.933	45.57
857.104	43.03
857.275	47.64
857.446	50.2
857.617	48.53
857.788	50.96
857.959	52.47
858.13	50.4
858.301	54.11
858.472	50.05
858.643	53.17
858.814	52.47
858.985	56.67
859.155	49.31
859.326	50.67
859.497	51.13
859.668	51.04
859.839	50.9
860.009	47.7
860.18	47.01
860.351	48.67
860.522	47.11
860.692	52.31
860.863	51.02
861.034	51.55
861.204	48.09
861.375	48.78
861.546	47.41
861.716	46.63
861.887	50.26
862.057	51.36
862.228	53.34
862.398	51.83
862.569	51.75
862.739	53.36
862.91	57.12
863.08	62.27
863.251	66.44
863.421	70.57
863.592	66.16
863.762	64.4
863.932	65.2
864.103	62.88
864.273	66.01
864.443	62.36
864.614	60.41
864.784	64.78
864.954	64.46
865.125	62.25
865.295	61.92
865.465	60.82
865.635	61.94
865.805	57.14
865.976	55.8
866.146	54.88
866.316	56.3
866.486	58.8
866.656	55.85
866.826	53.65
866.996	51.85
867.166	50.43
867.336	56.7
867.506	53.71
867.676	55.32
867.846	53.19
868.016	54.16
868.186	51.81
868.356	49.29
868.526	44.71
868.696	45.36
868.866	42.61
869.036	41.33
869.206	35.5
869.376	37.92
869.545	37.18
869.715	42.31
869.885	38.48
870.055	39.71
870.224	38.41
870.394	41.13
870.564	46.05
870.734	54.03
870.903	55.26
871.073	57.06
871.243	57.18
871.412	57.43
871.582	55.55
871.751	56.37
871.921	56.97
872.091	58.89
872.26	58.1
872.43	53.9
872.599	50.29
872.769	44.53
872.938	47.53
873.108	46.94
873.277	45.85
873.446	48.35
873.616	46.77
873.785	44.46
873.955	39.86
874.124	34.55
874.293	32.69
874.463	28.03
874.632	34.56
874.801	30.94
874.971	30.19
875.14	27.58
875.309	25.56
875.478	29.04
875.647	33.32
875.817	42.3
875.986	52.25
876.155	48.91
876.324	50.74
876.493	49.11
876.662	50.32
876.831	50.41
877	50.69
877.17	51.87
877.339	46.54
877.508	43.23
877.677	39.22
877.846	35.82
878.015	40.09
878.184	39.07
878.352	36.35
878.521	34.62
878.69	34.78
878.859	38.86
879.028	40.62
879.197	45.44
879.366	42.94
879.534	41.87
879.703	39.57
879.872	38.87
880.041	36.32
880.21	35.6
880.378	35.28
880.547	34.76
880.716	32.77
880.884	29.6
881.053	27.69
881.222	28.85
881.39	27.78
881.559	27.84
881.727	27.02
881.896	26.54
882.065	25.93
882.233	25.41
882.402	25.06
882.57	24.62
882.739	24.49
882.907	24.56
883.076	23.8
883.244	23.53
883.412	23.44
883.581	23.54
883.749	23.95
883.918	24.21
884.086	23.71
884.254	23.69
884.423	24.49
884.591	24.83
884.759	24.35
884.927	25.28
885.096	25.64
885.264	26.02
885.432	26.24
885.6	27.2
885.769	26.46
885.937	28.41
886.105	29.49
886.273	29.05
886.441	30.21
886.609	32
886.777	31.07
886.945	34.5
887.113	35.9
887.281	37.89
887.449	37.64
887.617	40.47
887.785	38.94
887.953	36.05
888.121	37.36
888.289	37.15
888.457	36.79
888.625	38.74
888.793	38.86
888.961	36.38
889.129	33.64
889.296	36.52
889.464	35.19
889.632	38.76
889.8	43.7
889.967	40.89
890.135	44.66
