Data from 2938743__Reflection_02.txt Node
Date: Sun Mar 15 11:58:16 EDT 2015
User: robert
Spectrometer: USB4E03002
Autoset integration time: false
Trigger mode: 4
Integration Time (sec): 1.000000E-1
Scans to average: 10
Electric dark correction enabled: false
Nonlinearity correction enabled: false
Boxcar width: 5
Stray light correction enabled: false
XAxis mode: Wavelengths
Stop averaging: false
Number of Pixels in Spectrum: 3648
>>>>>Begin Spectral Data<<<<<
177.575	665.2
177.794	552.65
178.014	931.8
178.233	1069.1
178.452	1343
178.672	2106.08
178.891	2401.5
179.11	-7351.16
179.33	-1932.53
179.549	-1733.85
179.768	-2500
179.987	-4683.12
180.207	-1282.44
180.426	-7138.46
180.645	-5611.94
180.864	-54371.43
181.084	3311.61
181.303	-17447.62
181.522	1933.68
181.741	1726.64
181.96	3035.77
182.179	860.49
182.398	787.32
182.618	543.72
182.837	579.67
183.056	525.46
183.275	564.59
183.494	672.57
183.713	537.55
183.932	486.32
184.151	421.66
184.37	396.12
184.589	622.83
184.808	651.58
185.027	701.12
185.246	707.84
185.465	631.91
185.684	684.2
185.903	610.6
186.122	558.88
186.341	907.21
186.56	1450.61
186.779	1147.1
186.998	1048.67
187.216	1185.82
187.435	2152.87
187.654	1994.05
187.873	6402
188.092	2017.9
188.311	1396.54
188.53	2146.79
188.748	1868.85
188.967	1462.5
189.186	1613.94
189.405	1298.06
189.623	1764.92
189.842	1192.07
190.061	1216.55
190.28	1194.95
190.498	2225.97
190.717	1762
190.936	2610.32
191.154	1795.53
191.373	1622.9
191.592	754.21
191.81	641.99
192.029	519.46
192.248	582.08
192.466	820
192.685	697.8
192.904	543.29
193.122	762.93
193.341	860.89
193.559	668.12
193.778	715.09
193.996	1552.94
194.215	2292.42
194.433	-11825.93
194.652	3635.23
194.87	2471.54
195.089	3825.58
195.307	6147.17
195.526	2250
195.744	4709.09
195.963	-4016.84
196.181	-8934.88
196.399	-7400
196.618	-2972
196.836	-2968.1
197.055	-1374.21
197.273	-1676.7
197.491	-2012.99
197.71	-6394.64
197.928	-3318.37
198.146	-2544.07
198.365	-2640.37
198.583	-5232.76
198.801	9679.41
199.019	2098.15
199.238	1206.47
199.456	844.44
199.674	1213.4
199.892	1540.43
200.111	1866.84
200.329	2258.48
200.547	866.52
200.765	646.04
200.983	602
201.202	571.16
201.42	666
201.638	602.44
201.856	674.46
202.074	475.87
202.292	395.14
202.51	488.42
202.728	437.7
202.946	551.32
203.165	700.52
203.383	726.73
203.601	730.84
203.819	672.93
204.037	726.65
204.255	611.53
204.473	509.1
204.691	530.71
204.909	492.54
205.127	529.99
205.345	433.6
205.562	399.49
205.78	539.11
205.998	668.88
206.216	805.01
206.434	764.23
206.652	1063.42
206.87	2783.59
207.088	10070.59
207.306	1604.57
207.523	2137.97
207.741	2395.83
207.959	2802.48
208.177	1087.5
208.395	788.31
208.612	707.4
208.83	780.69
209.048	843.75
209.266	620.93
209.483	603.99
209.701	732.86
209.919	852.22
210.136	652.75
210.354	570.16
210.572	832.03
210.79	755.89
211.007	552
211.225	487.62
211.442	440.26
211.66	463.46
211.878	544.44
212.095	341.54
212.313	306.58
212.53	334.98
212.748	369.66
212.966	315.28
213.183	298.35
213.401	319.01
213.618	329.55
213.836	305.23
214.053	321.2
214.271	280.47
214.488	461.86
214.705	400.99
214.923	411.85
215.14	361.96
215.358	359.54
215.575	443.4
215.793	359.61
216.01	354.6
216.227	313.79
216.445	303.63
216.662	336.54
216.879	307.08
217.097	307.14
217.314	308.3
217.531	291.2
217.749	273.41
217.966	254.44
218.183	317.63
218.4	313.75
218.618	368.03
218.835	362.69
219.052	288.39
219.269	287.91
219.487	307.78
219.704	305.67
219.921	325.89
220.138	331.89
220.355	263.29
220.572	231.87
220.79	215.59
221.007	200.1
221.224	186.17
221.441	192.74
221.658	183.38
221.875	160.82
222.092	150.42
222.309	146.49
222.526	146.15
222.743	151.09
222.96	152.73
223.177	152.52
223.394	151.22
223.611	158.11
223.828	155.15
224.045	148.6
224.262	153.65
224.479	147.91
224.696	136.53
224.913	132.77
225.13	124.4
225.347	112.29
225.564	105.94
225.781	101.88
225.997	92.06
226.214	87.69
226.431	81.74
226.648	73.59
226.865	66.89
227.082	61.19
227.298	49.54
227.515	44.85
227.732	40.33
227.949	38.35
228.165	34.18
228.382	32.41
228.599	29.81
228.816	27.83
229.032	26.79
229.249	26.58
229.466	26.34
229.682	27.12
229.899	27.21
230.116	28.54
230.332	28.33
230.549	30.02
230.765	30.39
230.982	31.96
231.199	33.5
231.415	36.11
231.632	37.8
231.848	39.74
232.065	41.26
232.281	41.52
232.498	40.92
232.714	42.88
232.931	43.09
233.147	43.53
233.364	43.9
233.58	42.99
233.797	42.71
234.013	43.59
234.23	42.78
234.446	43.56
234.662	44.18
234.879	44.06
235.095	44.12
235.312	44.72
235.528	47.07
235.744	47.44
235.961	48.3
236.177	47.42
236.393	47.47
236.61	48.72
236.826	48.76
237.042	48.88
237.258	49.99
237.475	48.71
237.691	49.77
237.907	47.49
238.123	46.93
238.339	46.29
238.556	47.84
238.772	45.18
238.988	43.08
239.204	41.78
239.42	40.77
239.636	38.57
239.853	37.3
240.069	34.46
240.285	32.21
240.501	30.36
240.717	28.51
240.933	25.21
241.149	24.05
241.365	22.27
241.581	21.62
241.797	20.95
242.013	19.77
242.229	19
242.445	18.95
242.661	18.73
242.877	18.63
243.093	18.78
243.309	19.48
243.525	19.86
243.741	21.01
243.957	22.07
244.173	21.92
244.388	22.84
244.604	23.34
244.82	22.82
245.036	22.14
245.252	21.56
245.468	20.56
245.683	19.31
245.899	17.73
246.115	15.84
246.331	13.91
246.547	13.41
246.762	12.79
246.978	12.33
247.194	12.24
247.409	12.05
247.625	11.69
247.841	11.52
248.057	11.57
248.272	11.78
248.488	11.93
248.703	12.28
248.919	12.55
249.135	13.44
249.35	14.63
249.566	15.48
249.782	17.05
249.997	17.89
250.213	18.5
250.428	18.93
250.644	19.21
250.859	20.23
251.075	21.03
251.29	21.24
251.506	20.42
251.721	19.16
251.937	18.86
252.152	17.83
252.368	17.5
252.583	18.23
252.798	18.66
253.014	19.34
253.229	19.59
253.445	20.18
253.66	20.92
253.875	22.28
254.091	24.5
254.306	24.72
254.521	26.08
254.737	28.11
254.952	28.3
255.167	28.58
255.383	28.2
255.598	27.83
255.813	27.42
256.028	26.61
256.244	25.77
256.459	23.7
256.674	23.37
256.889	21.68
257.104	20.51
257.32	19.47
257.535	18.39
257.75	17.22
257.965	16.81
258.18	15.96
258.395	15.08
258.61	13.69
258.826	12.93
259.041	11.91
259.256	11.31
259.471	10.6
259.686	9.99
259.901	9.52
260.116	9.34
260.331	8.98
260.546	8.82
260.761	8.99
260.976	9.06
261.191	9.31
261.406	9.91
261.621	10.62
261.836	11.01
262.05	12.31
262.265	13.47
262.48	14.58
262.695	15.42
262.91	16.42
263.125	16.99
263.34	18.4
263.555	19.53
263.769	20.04
263.984	20.85
264.199	21.87
264.414	21.82
264.629	22.27
264.843	22.18
265.058	22.3
265.273	20.97
265.488	20.28
265.702	19.85
265.917	18.75
266.132	17.91
266.346	17.32
266.561	16.61
266.776	16.16
266.99	15.7
267.205	15.07
267.42	14.45
267.634	15.27
267.849	14.8
268.063	14.77
268.278	15
268.492	15.28
268.707	15.29
268.922	15.6
269.136	15.14
269.351	15.32
269.565	15.42
269.78	15.36
269.994	14.94
270.209	15.24
270.423	15.08
270.637	14.77
270.852	13.89
271.066	13.5
271.281	12.87
271.495	12.59
271.709	12.08
271.924	12.22
272.138	12.24
272.353	12.1
272.567	11.93
272.781	11.64
272.996	11.35
273.21	11.77
273.424	12.39
273.638	12.84
273.853	13.31
274.067	13.48
274.281	13.82
274.495	13.54
274.71	14.17
274.924	14.51
275.138	14.67
275.352	15.2
275.566	15.29
275.781	14.5
275.995	14.61
276.209	14.53
276.423	14.5
276.637	13.9
276.851	14.05
277.065	13.27
277.279	13.05
277.493	13.05
277.707	13.12
277.921	13.15
278.135	13.55
278.349	13.49
278.563	13.42
278.777	13.41
278.991	13.47
279.205	13.85
279.419	14.06
279.633	14.19
279.847	13.82
280.061	13.69
280.275	13.38
280.489	13.42
280.703	13.12
280.917	13.25
281.131	12.95
281.344	13.16
281.558	13.02
281.772	12.9
281.986	12.92
282.2	13.16
282.414	13.1
282.627	12.76
282.841	12.58
283.055	13.01
283.269	12.59
283.482	12.76
283.696	12.13
283.91	11.97
284.123	11.37
284.337	10.66
284.551	10.16
284.764	9.97
284.978	10.13
285.192	9.81
285.405	9.18
285.619	9.49
285.833	9.23
286.046	9.17
286.26	9.09
286.473	9.54
286.687	9.68
286.9	9.87
287.114	9.8
287.327	9.96
287.541	10.27
287.754	10.57
287.968	10.4
288.181	10.66
288.395	10.81
288.608	10.91
288.822	10.38
289.035	10.7
289.248	10.7
289.462	10.76
289.675	10.58
289.889	10.28
290.102	9.9
290.315	10.02
290.529	9.82
290.742	9.85
290.955	10.12
291.169	10.31
291.382	10.53
291.595	10.65
291.808	10.45
292.022	11.2
292.235	11.56
292.448	11.67
292.661	11.1
292.875	11.53
293.088	11.72
293.301	11.22
293.514	11.32
293.727	11.19
293.94	11.32
294.153	11.31
294.367	10.39
294.58	9.99
294.793	9.97
295.006	10.22
295.219	9.76
295.432	9.36
295.645	9.47
295.858	9.5
296.071	8.99
296.284	8.47
296.497	8.55
296.71	8.7
296.923	8.44
297.136	8.5
297.349	8.45
297.562	8.37
297.775	8.29
297.988	8.15
298.201	8.26
298.414	8.73
298.626	8.95
298.839	9.06
299.052	9.33
299.265	9.96
299.478	10.03
299.691	10.5
299.903	11.08
300.116	11.6
300.329	11.88
300.542	11.69
300.755	11.65
300.967	11.91
301.18	11.74
301.393	11.54
301.605	11.74
301.818	11.98
302.031	12.06
302.243	12.15
302.456	12.09
302.669	12.12
302.881	12.48
303.094	12.35
303.307	12.25
303.519	12.17
303.732	12.03
303.944	11.57
304.157	11.82
304.37	11.55
304.582	11.47
304.795	11.42
305.007	11.28
305.22	11.42
305.432	11.95
305.645	12.13
305.857	12.72
306.069	13.03
306.282	13.33
306.494	12.7
306.707	13.02
306.919	13.25
307.132	13.57
307.344	13.36
307.556	12.98
307.769	13.02
307.981	12.84
308.193	12.18
308.406	12.09
308.618	11.54
308.83	11.47
309.043	11.46
309.255	10.95
309.467	10.8
309.679	10.95
309.892	10.63
310.104	10.2
310.316	10.01
310.528	10.43
310.74	10.26
310.953	10.8
311.165	10.99
311.377	10.65
311.589	10.79
311.801	10.93
312.013	11.18
312.225	11.33
312.437	11.53
312.649	11.53
312.862	11.54
313.074	11.78
313.286	11.76
313.498	11.93
313.71	12.42
313.922	12.76
314.134	13.17
314.346	13.53
314.558	13.73
314.77	13.4
314.982	14.23
315.193	14.33
315.405	13.91
315.617	13.85
315.829	13.83
316.041	13.61
316.253	13.11
316.465	12.93
316.677	12.62
316.888	13.17
317.1	13.17
317.312	13.38
317.524	13.45
317.736	14.11
317.947	14.24
318.159	14.82
318.371	15.2
318.583	15.72
318.794	15.92
319.006	16.18
319.218	16.25
319.43	16.72
319.641	16.61
319.853	17.25
320.064	18.04
320.276	18.41
320.488	17.89
320.699	18.3
320.911	18.62
321.123	18.65
321.334	18.8
321.546	18.75
321.757	19.1
321.969	18.97
322.18	18.56
322.392	18.09
322.603	17.76
322.815	18.06
323.026	17.79
323.238	17.3
323.449	16.72
323.661	16.59
323.872	16.51
324.083	16.29
324.295	16.61
324.506	16.98
324.718	16.77
324.929	16.94
325.14	17.02
325.352	16.73
325.563	17.15
325.774	17.28
325.986	17.36
326.197	17.3
326.408	17.67
326.62	17.32
326.831	17.01
327.042	17.34
327.253	17.77
327.464	18.14
327.676	18.59
327.887	18.84
328.098	19.74
328.309	20.3
328.52	20.95
328.732	21.1
328.943	21.62
329.154	21.54
329.365	21.92
329.576	22.09
329.787	22.07
329.998	22.17
330.209	22.14
330.42	22.1
330.631	21.8
330.842	21.89
331.053	22.48
331.264	22.51
331.475	22.9
331.686	22.74
331.897	22.42
332.108	22.32
332.319	22.5
332.53	22.51
332.741	22.42
332.952	22.84
333.163	22.64
333.374	22.11
333.585	21.95
333.795	22.4
334.006	22.25
334.217	22.56
334.428	22.35
334.639	22.37
334.849	22.25
335.06	22.02
335.271	21.7
335.482	22.01
335.692	22.35
335.903	22.44
336.114	22.28
336.325	22.29
336.535	22.14
336.746	22.26
336.957	21.78
337.167	22.27
337.378	22.44
337.589	22.67
337.799	22.41
338.01	22.46
338.22	22.55
338.431	22.49
338.642	22.24
338.852	22.41
339.063	22.52
339.273	22.81
339.484	22.55
339.694	22.83
339.905	22.24
340.115	22.17
340.326	21.89
340.536	21.93
340.746	21.59
340.957	22.16
341.167	22.45
341.378	22.51
341.588	22.44
341.799	22.33
342.009	22.22
342.219	22.18
342.43	22.07
342.64	22.07
342.85	22.05
343.061	22.27
343.271	22.19
343.481	21.7
343.691	21.58
343.902	21.26
344.112	21.44
344.322	21.34
344.532	21.81
344.743	21.93
344.953	21.62
345.163	21.13
345.373	20.84
345.583	20.33
345.793	20.03
346.004	19.98
346.214	20.37
346.424	19.97
346.634	19.92
346.844	19.78
347.054	19.5
347.264	19.68
347.474	19.97
347.684	20.13
347.894	20.17
348.104	20.73
348.314	21.09
348.524	21.26
348.734	20.93
348.944	21.07
349.154	20.82
349.364	20.61
349.574	19.88
349.784	20.13
349.994	19.99
350.204	20.45
350.413	20.22
350.623	20.12
350.833	19.85
351.043	20.46
351.253	20.17
351.463	20.75
351.672	20.95
351.882	21.69
352.092	21.33
352.302	21.12
352.511	21.09
352.721	20.84
352.931	20.54
353.141	20.44
353.35	19.86
353.56	19.78
353.77	19.76
353.979	19.71
354.189	19.53
354.399	19.28
354.608	19.51
354.818	18.91
355.027	19.11
355.237	18.97
355.447	18.83
355.656	19.01
355.866	19.06
356.075	18.47
356.285	18.48
356.494	18.46
356.704	18.76
356.913	18.6
357.123	18.65
357.332	18.56
357.542	18.53
357.751	18.45
357.96	18.52
358.17	18.39
358.379	18.47
358.589	18.53
358.798	18.5
359.007	18.4
359.217	18.19
359.426	18.22
359.635	17.88
359.845	17.82
360.054	17.69
360.263	17.79
360.472	17.42
360.682	17.47
360.891	17.34
361.1	17.06
361.309	16.74
361.519	16.81
361.728	16.99
361.937	17.09
362.146	17.07
362.355	17.16
362.564	17.13
362.774	17.24
362.983	16.99
363.192	16.86
363.401	17.19
363.61	17.24
363.819	17.49
364.028	17.44
364.237	17.48
364.446	17.61
364.655	17.68
364.864	17.68
365.073	18.11
365.282	18.56
365.491	18.79
365.7	18.5
365.909	18.64
366.118	18.56
366.327	18.59
366.536	18.75
366.745	18.61
366.954	18.77
367.162	18.7
367.371	18.37
367.58	18.3
367.789	18.11
367.998	18.32
368.207	18.39
368.415	18.32
368.624	18.05
368.833	17.92
369.042	18.04
369.25	18.12
369.459	18.19
369.668	18.26
369.877	17.82
370.085	17.95
370.294	17.83
370.503	17.64
370.711	17.81
370.92	17.87
371.129	18.06
371.337	17.93
371.546	17.68
371.754	17.61
371.963	17.78
372.171	17.84
372.38	17.82
372.589	17.93
372.797	18.27
373.006	18.14
373.214	18.12
373.423	17.8
373.631	17.78
373.84	17.49
374.048	17.59
374.256	17.48
374.465	17.57
374.673	17.7
374.882	17.57
375.09	17.35
375.298	17.27
375.507	17.25
375.715	17.21
375.923	17.15
376.132	17.45
376.34	17.23
376.548	16.99
376.757	17.03
376.965	16.88
377.173	16.68
377.381	16.57
377.59	16.31
377.798	16.24
378.006	16.11
378.214	16.18
378.423	15.97
378.631	15.65
378.839	15.62
379.047	15.45
379.255	15.31
379.463	15.72
379.671	15.79
379.879	15.85
380.088	15.73
380.296	15.65
380.504	15.33
380.712	15.3
380.92	15.66
381.128	15.79
381.336	15.7
381.544	15.64
381.752	15.39
381.96	15.46
382.168	15.52
382.376	15.78
382.584	15.92
382.791	16.19
382.999	16.28
383.207	16.05
383.415	15.99
383.623	15.94
383.831	15.96
384.039	15.84
384.247	15.7
384.454	15.71
384.662	15.58
384.87	15.61
385.078	15.49
385.285	15.29
385.493	15.33
385.701	15.18
385.909	15.31
386.116	15.34
386.324	15.31
386.532	15.2
386.739	15.11
386.947	15.34
387.155	15.4
387.362	15.37
387.57	15.39
387.778	15.44
387.985	15.42
388.193	15.5
388.4	15.47
388.608	15.67
388.816	15.88
389.023	15.83
389.231	15.67
389.438	15.59
389.646	15.65
389.853	15.73
390.061	15.7
390.268	15.59
390.475	15.39
390.683	15.36
390.89	15.24
391.098	15.11
391.305	15.08
391.512	14.92
391.72	14.89
391.927	14.71
392.135	14.45
392.342	14.33
392.549	14.53
392.756	14.34
392.964	14.25
393.171	14.3
393.378	13.98
393.586	13.83
393.793	13.89
394	13.88
394.207	13.98
394.414	14.31
394.622	14.32
394.829	14.21
395.036	14.29
395.243	14.32
395.45	14.02
395.657	14.29
395.864	14.5
396.072	14.46
396.279	14.36
396.486	14.36
396.693	14.05
396.9	13.89
397.107	13.86
397.314	14.12
397.521	13.9
397.728	14.08
397.935	13.96
398.142	13.86
398.349	13.79
398.556	13.91
398.763	13.81
398.97	13.86
399.177	13.91
399.383	13.98
399.59	13.62
399.797	13.75
400.004	13.69
400.211	13.76
400.418	13.81
400.625	13.65
400.831	13.3
401.038	13.38
401.245	13.35
401.452	13.58
401.658	13.45
401.865	13.8
402.072	13.69
402.279	13.84
402.485	13.78
402.692	13.65
402.899	13.69
403.105	13.89
403.312	13.7
403.519	13.63
403.725	13.47
403.932	13.42
404.138	13.18
404.345	13.26
404.552	12.96
404.758	12.86
404.965	12.83
405.171	12.81
405.378	12.95
405.584	13.12
405.791	13.28
405.997	13.3
406.204	13.36
406.41	13.37
406.617	13.44
406.823	13.67
407.029	13.82
407.236	14.04
407.442	14.19
407.649	13.99
407.855	13.81
408.061	13.61
408.268	13.45
408.474	13.46
408.68	13.58
408.887	13.54
409.093	13.52
409.299	13.36
409.505	13.04
409.712	13.05
409.918	13.06
410.124	13.2
410.33	13.36
410.537	13.47
410.743	13.48
410.949	13.51
411.155	13.55
411.361	13.35
411.567	13.52
411.773	13.61
411.98	13.46
412.186	13.34
412.392	13.3
412.598	13.15
412.804	13.08
413.01	12.96
413.216	12.8
413.422	12.82
413.628	13.05
413.834	13.14
414.04	13.23
414.246	13.1
414.452	13.18
414.658	13.23
414.864	13.46
415.07	13.48
415.275	13.58
415.481	13.62
415.687	13.49
415.893	13.27
416.099	12.97
416.305	12.89
416.511	12.92
416.716	12.84
416.922	12.72
417.128	12.46
417.334	12.43
417.539	12.32
417.745	12.21
417.951	12.19
418.157	12.18
418.362	12.1
418.568	12.09
418.774	12.1
418.979	12.08
419.185	11.97
419.391	11.86
419.596	11.73
419.802	11.67
420.008	11.64
420.213	11.02
420.419	11.04
420.624	11.03
420.83	11.04
421.035	11.01
421.241	11.03
421.446	10.96
421.652	11.01
421.857	10.98
422.063	10.9
422.268	10.84
422.474	11.35
422.679	11.21
422.885	11.39
423.09	11.33
423.295	11.28
423.501	11.29
423.706	11.36
423.911	11.35
424.117	11.35
424.322	11.45
424.527	11.43
424.733	11.45
424.938	11.54
425.143	11.46
425.349	11.47
425.554	11.49
425.759	11.47
425.964	11.53
426.169	11.63
426.375	11.74
426.58	11.81
426.785	12
426.99	12.09
427.195	12.19
427.4	12.23
427.605	12.34
427.811	12.55
428.016	12.64
428.221	12.58
428.426	12.61
428.631	12.8
428.836	12.81
429.041	12.85
429.246	12.91
429.451	12.98
429.656	13.01
429.861	13.07
430.066	12.98
430.271	12.85
430.476	12.98
430.681	12.91
430.886	12.91
431.09	12.87
431.295	12.78
431.5	12.72
431.705	12.75
431.91	12.69
432.115	12.54
432.32	12.5
432.524	12.6
432.729	12.63
432.934	12.65
433.139	12.61
433.343	12.59
433.548	12.53
433.753	12.48
433.958	12.41
434.162	12.43
434.367	12.53
434.572	12.58
434.776	12.55
434.981	12.47
435.186	12.52
435.39	12.48
435.595	12.5
435.799	12.62
436.004	12.71
436.209	12.69
436.413	12.68
436.618	12.61
436.822	12.55
437.027	12.54
437.231	12.54
437.436	12.59
437.64	12.6
437.845	12.66
438.049	12.63
438.253	12.53
438.458	12.54
438.662	12.51
438.867	12.54
439.071	12.64
439.275	12.6
439.48	12.62
439.684	12.59
439.888	12.48
440.093	12.51
440.297	12.54
440.501	12.5
440.706	12.45
440.91	12.5
441.114	12.5
441.318	12.37
441.523	12.42
441.727	12.47
441.931	12.39
442.135	12.41
442.339	12.34
442.543	12.34
442.748	12.53
442.952	12.6
443.156	12.7
443.36	12.66
443.564	12.68
443.768	12.61
443.972	12.56
444.176	12.64
444.38	12.61
444.584	12.5
444.788	12.42
444.992	12.38
445.196	12.33
445.4	12.17
445.604	12.14
445.808	12.15
446.012	12.21
446.216	12.14
446.42	12.06
446.624	12.12
446.828	12.26
447.032	12.24
447.235	12.16
447.439	12.25
447.643	12.25
447.847	12.28
448.051	12.34
448.254	12.34
448.458	12.35
448.662	12.42
448.866	12.38
449.069	12.32
449.273	12.43
449.477	12.5
449.681	12.42
449.884	12.54
450.088	12.56
450.292	12.57
450.495	12.59
450.699	12.74
450.902	12.75
451.106	12.84
451.31	12.85
451.513	12.8
451.717	12.78
451.92	12.92
452.124	12.99
452.327	13.06
452.531	13.16
452.734	13.1
452.938	13.04
453.141	13.1
453.345	13.01
453.548	13.05
453.752	13.11
453.955	13.25
454.158	13.12
454.362	12.89
454.565	12.82
454.769	12.75
454.972	12.79
455.175	12.91
455.379	12.88
455.582	13.04
455.785	13.1
455.988	13.06
456.192	12.94
456.395	12.96
456.598	13.05
456.801	13.05
457.005	13.02
457.208	13.07
457.411	12.87
457.614	12.72
457.817	12.6
458.021	12.45
458.224	12.43
458.427	12.35
458.63	12.26
458.833	12.32
459.036	12.33
459.239	12.24
459.442	12.21
459.645	12.26
459.848	12.23
460.051	12.22
460.254	12.21
460.457	12.13
460.66	12.16
460.863	12.19
461.066	12.06
461.269	12.04
461.472	12.18
461.675	12.18
461.878	12.25
462.081	12.38
462.284	12.43
462.486	12.56
462.689	12.61
462.892	12.8
463.095	12.86
463.298	12.97
463.5	13.05
463.703	13.05
463.906	13.05
464.109	13.04
464.311	12.98
464.514	13
464.717	13.03
464.92	13.2
465.122	13.13
465.325	13.18
465.528	13.3
465.73	13.38
465.933	13.26
466.135	13.24
466.338	13.21
466.541	13.29
466.743	13.24
466.946	13.16
467.148	13.05
467.351	12.9
467.553	12.93
467.756	12.95
467.958	12.94
468.161	13.06
468.363	13.17
468.566	13.22
468.768	13.36
468.971	13.42
469.173	13.49
469.375	13.43
469.578	13.5
469.78	13.61
469.983	13.47
470.185	13.46
470.387	13.49
470.59	13.46
470.792	13.6
470.994	13.59
471.196	13.59
471.399	13.48
471.601	13.63
471.803	13.73
472.005	13.5
472.208	13.51
472.41	13.46
472.612	13.37
472.814	13.4
473.016	13.27
473.218	13.18
473.421	13.12
473.623	13.22
473.825	13.16
474.027	13.15
474.229	13.24
474.431	13.29
474.633	13.36
474.835	13.41
475.037	13.29
475.239	13.36
475.441	13.47
475.643	13.43
475.845	13.33
476.047	13.43
476.249	13.5
476.451	13.44
476.653	13.41
476.855	13.27
477.057	13.17
477.258	13.24
477.46	13.09
477.662	12.97
477.864	13.07
478.066	13.1
478.268	12.98
478.469	12.91
478.671	12.88
478.873	12.85
479.075	12.83
479.276	12.81
479.478	12.7
479.68	12.68
479.882	12.64
480.083	12.54
480.285	12.48
480.487	12.51
480.688	12.5
480.89	12.53
481.091	12.56
481.293	12.53
481.495	12.48
481.696	12.41
481.898	12.25
482.099	12.12
482.301	12
482.502	11.9
482.704	11.77
482.905	11.65
483.107	11.55
483.308	11.47
483.51	11.42
483.711	11.38
483.913	11.32
484.114	11.34
484.315	11.35
484.517	11.32
484.718	11.3
484.92	11.32
485.121	11.31
485.322	11.35
485.524	11.36
485.725	11.39
485.926	11.36
486.127	11.4
486.329	11.35
486.53	11.36
486.731	11.42
486.932	11.44
487.134	11.48
487.335	11.49
487.536	11.44
487.737	11.43
487.938	11.43
488.139	11.44
488.341	11.5
488.542	11.57
488.743	11.62
488.944	11.64
489.145	11.67
489.346	11.72
489.547	11.78
489.748	11.87
489.949	11.9
490.15	11.91
490.351	11.97
490.552	11.92
490.753	11.88
490.954	11.83
491.155	11.81
491.356	11.77
491.557	11.7
491.758	11.68
491.959	11.65
492.159	11.65
492.36	11.72
492.561	11.75
492.762	11.76
492.963	11.79
493.164	11.87
493.364	11.9
493.565	11.98
493.766	12.07
493.967	12.21
494.167	12.28
494.368	12.37
494.569	12.3
494.769	12.31
494.97	12.41
495.171	12.53
495.371	12.52
495.572	12.6
495.773	12.71
495.973	12.69
496.174	12.54
496.375	12.55
496.575	12.56
496.776	12.62
496.976	12.61
497.177	12.65
497.377	12.62
497.578	12.64
497.778	12.6
497.979	12.61
498.179	12.64
498.38	12.71
498.58	12.79
498.78	12.86
498.981	12.9
499.181	12.92
499.382	12.93
499.582	12.96
499.782	12.92
499.983	13.01
500.183	12.97
500.383	13.02
500.584	13.02
500.784	13.06
500.984	13.03
501.184	13.04
501.385	13.06
501.585	13.03
501.785	13.03
501.985	13.2
502.185	13.17
502.386	13.22
502.586	13.24
502.786	13.32
502.986	13.23
503.186	13.21
503.386	13.23
503.586	13.26
503.786	13.24
503.987	13.34
504.187	13.18
504.387	13.22
504.587	13.26
504.787	13.32
504.987	13.31
505.187	13.4
505.387	13.49
505.587	13.45
505.786	13.5
505.986	13.64
506.186	13.62
506.386	13.78
506.586	13.84
506.786	13.74
506.986	13.69
507.186	13.66
507.386	13.57
507.585	13.45
507.785	13.51
507.985	13.49
508.185	13.46
508.384	13.48
508.584	13.36
508.784	13.31
508.984	13.37
509.183	13.34
509.383	13.4
509.583	13.51
509.782	13.64
509.982	13.63
510.182	13.65
510.381	13.58
510.581	13.6
510.781	13.61
510.98	13.67
511.18	13.68
511.379	13.75
511.579	13.78
511.778	13.75
511.978	13.69
512.177	13.86
512.377	13.86
512.576	13.98
512.776	13.99
512.975	14.17
513.175	14.19
513.374	14.24
513.573	14.26
513.773	14.27
513.972	14.38
514.172	14.45
514.371	14.4
514.57	14.54
514.77	14.59
514.969	14.59
515.168	14.56
515.367	14.59
515.567	14.83
515.766	14.89
515.965	14.99
516.164	14.96
516.364	15.01
516.563	14.95
516.762	14.83
516.961	14.81
517.16	14.84
517.359	14.84
517.559	14.84
517.758	14.72
517.957	14.74
518.156	14.79
518.355	14.88
518.554	14.93
518.753	14.99
518.952	15.1
519.151	15.12
519.35	15.25
519.549	15.28
519.748	15.3
519.947	15.38
520.146	15.39
520.345	15.37
520.544	15.39
520.743	15.47
520.942	15.53
521.141	15.65
521.339	15.81
521.538	15.82
521.737	15.87
521.936	15.95
522.135	16.08
522.333	16.22
522.532	16.31
522.731	16.29
522.93	16.29
523.129	16.29
523.327	16.24
523.526	16.27
523.725	16.3
523.923	16.29
524.122	16.32
524.321	16.29
524.519	16.31
524.718	16.35
524.917	16.47
525.115	16.48
525.314	16.62
525.512	16.62
525.711	16.58
525.909	16.62
526.108	16.7
526.306	16.7
526.505	16.77
526.703	16.77
526.902	16.71
527.1	16.67
527.299	16.71
527.497	16.72
527.696	16.7
527.894	16.74
528.092	16.73
528.291	16.76
528.489	16.8
528.688	16.79
528.886	16.87
529.084	16.96
529.283	17
529.481	17.04
529.679	17.06
529.877	17.22
530.076	17.27
530.274	17.38
530.472	17.48
530.67	17.59
530.869	17.68
531.067	17.75
531.265	17.81
531.463	17.94
531.661	18.01
531.859	18.11
532.057	18.1
532.255	18.2
532.454	18.28
532.652	18.28
532.85	18.35
533.048	18.45
533.246	18.52
533.444	18.57
533.642	18.64
533.84	18.73
534.038	18.84
534.236	18.89
534.434	18.96
534.632	19.04
534.83	19.18
535.027	19.26
535.225	19.32
535.423	19.33
535.621	19.4
535.819	19.49
536.017	19.56
536.215	19.59
536.412	19.73
536.61	19.74
536.808	19.72
537.006	19.78
537.203	19.83
537.401	19.95
537.599	20.06
537.797	20.16
537.994	20.23
538.192	20.33
538.39	20.41
538.587	20.43
538.785	20.67
538.983	20.83
539.18	20.94
539.378	20.96
539.575	20.98
539.773	21.04
539.97	21.07
540.168	21.08
540.366	21.09
540.563	21.18
540.761	21.25
540.958	21.21
541.155	21.22
541.353	21.23
541.55	21.32
541.748	21.35
541.945	21.41
542.143	21.45
542.34	21.53
542.537	21.61
542.735	21.62
542.932	21.72
543.129	21.82
543.327	22
543.524	22.17
543.721	22.33
543.919	22.48
544.116	22.6
544.313	22.79
544.51	22.97
544.708	23.12
544.905	23.33
545.102	23.56
545.299	23.69
545.496	23.72
545.693	23.78
545.891	23.74
546.088	23.87
546.285	23.96
546.482	23.93
546.679	24
546.876	23.99
547.073	23.9
547.27	23.7
547.467	23.81
547.664	23.82
547.861	23.81
548.058	23.85
548.255	23.78
548.452	23.82
548.649	23.97
548.846	23.98
549.043	24.05
549.24	24.17
549.437	24.31
549.633	24.19
549.83	24.29
550.027	24.31
550.224	24.37
550.421	24.44
550.618	24.33
550.814	24.31
551.011	24.19
551.208	24.11
551.405	24.1
551.601	24.23
551.798	24.21
551.995	24.15
552.191	24.27
552.388	24.18
552.585	24.21
552.781	24.33
552.978	24.34
553.175	24.45
553.371	24.51
553.568	24.58
553.764	24.61
553.961	24.72
554.157	24.77
554.354	24.7
554.55	24.88
554.747	24.84
554.943	24.66
555.14	24.71
555.336	24.75
555.533	24.81
555.729	24.96
555.926	24.91
556.122	24.86
556.318	24.98
556.515	25.02
556.711	24.92
556.907	25.03
557.104	25.23
557.3	25.23
557.496	25.17
557.693	25.2
557.889	25.21
558.085	25.21
558.281	25.45
558.478	25.49
558.674	25.65
558.87	25.91
559.066	25.96
559.262	25.93
559.459	25.86
559.655	25.92
559.851	25.94
560.047	26.04
560.243	26.13
560.439	25.92
560.635	25.89
560.831	25.88
561.027	25.7
561.223	25.56
561.419	25.69
561.615	25.73
561.811	25.74
562.007	25.79
562.203	25.66
562.399	25.63
562.595	25.64
562.791	25.74
562.987	25.65
563.183	25.63
563.379	25.75
563.575	25.61
563.771	25.61
563.966	25.8
564.162	25.81
564.358	25.71
564.554	25.67
564.75	25.68
564.945	25.42
565.141	25.46
565.337	25.58
565.533	25.64
565.728	25.63
565.924	25.64
566.12	25.57
566.315	25.51
566.511	25.64
566.707	25.69
566.902	25.69
567.098	25.85
567.293	25.85
567.489	25.82
567.684	25.78
567.88	25.91
568.076	25.93
568.271	25.91
568.467	25.97
568.662	25.87
568.858	25.8
569.053	25.95
569.248	25.89
569.444	25.99
569.639	25.98
569.835	26.04
570.03	25.94
570.225	25.9
570.421	25.82
570.616	25.79
570.812	25.96
571.007	25.95
571.202	25.77
571.397	25.71
571.593	25.63
571.788	25.64
571.983	25.62
572.178	25.69
572.374	25.78
572.569	25.85
572.764	25.98
572.959	25.92
573.154	26.09
573.35	26.15
573.545	26.21
573.74	26.19
573.935	26.25
574.13	26.21
574.325	26.36
574.52	26.45
574.715	26.57
574.91	26.53
575.105	26.67
575.3	26.61
575.495	26.81
575.69	26.9
575.885	27.08
576.08	27.04
576.275	27.19
576.47	27.17
576.665	27.16
576.86	27.3
577.055	27.49
577.25	27.41
577.444	27.52
577.639	27.59
577.834	27.62
578.029	27.74
578.224	27.98
578.418	27.96
578.613	28.11
578.808	28.14
579.003	28.07
579.197	28
579.392	27.95
579.587	28.05
579.781	27.99
579.976	28.24
580.171	28.02
580.365	28.03
580.56	28.28
580.755	28.14
580.949	28.09
581.144	28.16
581.338	28.24
581.533	28.49
581.727	28.41
581.922	28.62
582.116	28.39
582.311	28.65
582.505	28.61
582.7	28.5
582.894	28.56
583.089	28.69
583.283	28.61
583.478	28.51
583.672	28.44
583.866	28.66
584.061	28.6
584.255	28.72
584.449	28.8
584.644	28.95
584.838	28.98
585.032	28.94
585.226	28.85
585.421	28.89
585.615	29.09
585.809	29.12
586.003	29.17
586.198	29.06
586.392	29.26
586.586	29.13
586.78	29.11
586.974	29.12
587.168	29.27
587.363	29.21
587.557	29.28
587.751	29.19
587.945	29.21
588.139	29.27
588.333	29.33
588.527	29.22
588.721	29.08
588.915	28.97
589.109	28.87
589.303	28.74
589.497	28.89
589.691	28.77
589.885	28.77
590.079	28.75
590.273	28.43
590.466	28.4
590.66	28.39
590.854	28.61
591.048	28.75
591.242	28.81
591.436	28.95
591.629	29.09
591.823	29.28
592.017	29.26
592.211	29.2
592.404	29.37
592.598	29.37
592.792	29.47
592.986	29.38
593.179	29.3
593.373	29.22
593.567	29.2
593.76	29.02
593.954	28.8
594.147	28.81
594.341	28.83
594.535	28.63
594.728	28.79
594.922	28.6
595.115	28.54
595.309	28.31
595.502	28.32
595.696	28.22
595.889	28.34
596.083	28.26
596.276	28.18
596.47	28.18
596.663	28.17
596.856	27.98
597.05	28.07
597.243	28.21
597.437	28.33
597.63	28.42
597.823	28.55
598.017	28.43
598.21	28.61
598.403	28.75
598.596	28.8
598.79	28.91
598.983	29.09
599.176	29.18
599.369	29.13
599.563	29.17
599.756	29.24
599.949	29.26
600.142	29.5
600.335	29.39
600.528	29.42
600.722	29.54
600.915	29.63
601.108	29.67
601.301	29.63
601.494	29.5
601.687	29.46
601.88	29.35
602.073	29.17
602.266	28.81
602.459	28.78
602.652	28.61
602.845	28.56
603.038	28.51
603.231	28.31
603.424	28.2
603.617	28.13
603.809	28.1
604.002	28.11
604.195	28.22
604.388	28.33
604.581	28.4
604.774	28.5
604.966	28.35
605.159	28.25
605.352	28.31
605.545	28.28
605.737	28.38
605.93	28.49
606.123	28.46
606.316	28.57
606.508	28.79
606.701	28.95
606.894	28.93
607.086	29.24
607.279	29.44
607.471	29.57
607.664	29.75
607.857	29.99
608.049	30.27
608.242	30.84
608.434	31.11
608.627	31.37
608.819	31.74
609.012	32.43
609.204	32.98
609.397	33.71
609.589	34.59
609.782	35.44
609.974	36.25
610.166	37.1
610.359	37.66
610.551	38.43
610.743	39.11
610.936	39.73
611.128	40.1
611.32	40.52
611.513	40.75
611.705	40.48
611.897	40.58
612.09	40.4
612.282	39.91
612.474	39.5
612.666	39.07
612.858	38.57
613.051	38.09
613.243	37.87
613.435	37.43
613.627	36.97
613.819	36.83
614.011	36.73
614.203	36.41
614.395	36.1
614.588	35.84
614.78	35.53
614.972	35.45
615.164	35.25
615.356	34.75
615.548	34.41
615.74	34.26
615.932	34.14
616.124	33.46
616.315	33.24
616.507	33.22
616.699	33.12
616.891	32.91
617.083	32.61
617.275	32.51
617.467	32.4
617.659	32.42
617.85	32.39
618.042	32.42
618.234	32.36
618.426	32.27
618.618	32.14
618.809	32.23
619.001	32.11
619.193	32.14
619.384	31.95
619.576	32
619.768	31.89
619.959	32.13
620.151	32.11
620.343	32.25
620.534	32.1
620.726	32.14
620.917	31.82
621.109	32.01
621.301	32.08
621.492	32.22
621.684	32.27
621.875	32.33
622.067	32.09
622.258	31.93
622.45	31.83
622.641	32.24
622.832	32.26
623.024	32.58
623.215	32.55
623.407	32.59
623.598	32.4
623.789	32.45
623.981	32.37
624.172	32.47
624.363	32.48
624.555	32.52
624.746	32.23
624.937	32.1
625.129	31.89
625.32	31.69
625.511	31.65
625.702	31.74
625.893	31.76
626.085	31.66
626.276	31.29
626.467	31.13
626.658	30.99
626.849	31.02
627.04	31.04
627.231	31
627.422	31.15
627.614	31.03
627.805	31.1
627.996	31
628.187	31.07
628.378	31.21
628.569	31.54
628.76	31.77
628.951	31.9
629.142	32
629.332	32.12
629.523	32.3
629.714	32.51
629.905	32.45
630.096	32.63
630.287	32.75
630.478	32.88
630.669	32.89
630.859	32.98
631.05	32.96
631.241	32.9
631.432	32.96
631.623	32.78
631.813	32.6
632.004	32.48
632.195	32.25
632.385	32.05
632.576	31.91
632.767	31.59
632.957	31.46
633.148	31.39
633.339	31.3
633.529	31.1
633.72	31.08
633.91	31.09
634.101	31.14
634.292	31.11
634.482	31.14
634.673	31.09
634.863	31.19
635.054	31.12
635.244	31.13
635.435	31.36
635.625	31.35
635.815	31.35
636.006	31.36
636.196	31.33
636.387	31.23
636.577	31.02
636.767	31.16
636.958	31.06
637.148	30.94
637.338	30.96
637.529	30.78
637.719	30.89
637.909	30.81
638.099	30.82
638.29	30.85
638.48	31.1
638.67	31.22
638.86	31.09
639.05	31.12
639.241	31.3
639.431	31.58
639.621	31.65
639.811	31.73
640.001	31.63
640.191	31.36
640.381	31.53
640.571	31.52
640.761	31.72
640.951	31.92
641.141	31.79
641.331	31.63
641.521	31.56
641.711	31.84
641.901	31.81
642.091	32.05
642.281	32.26
642.471	32.11
642.661	32.44
642.851	32.38
643.041	32.29
643.231	32.53
643.42	32.58
643.61	32.36
643.8	32.1
643.99	32
644.18	31.78
644.369	32.05
644.559	32.3
644.749	32.05
644.939	32.19
645.128	32.27
645.318	32.34
645.508	32.57
645.697	32.72
645.887	32.46
646.076	32.57
646.266	32.6
646.456	32.47
646.645	32.45
646.835	32.52
647.024	32.42
647.214	32.4
647.403	32.15
647.593	32.11
647.782	32.06
647.972	32.34
648.161	32.47
648.351	32.58
648.54	32.9
648.73	32.93
648.919	32.87
649.108	32.86
649.298	33.07
649.487	33.32
649.677	33.31
649.866	33.26
650.055	33.2
650.244	33.21
650.434	33.18
650.623	32.96
650.812	32.86
651.002	32.77
651.191	32.8
651.38	32.69
651.569	32.58
651.758	32.44
651.947	32.46
652.137	32.31
652.326	32.27
652.515	32.5
652.704	32.38
652.893	32.29
653.082	32.37
653.271	32.53
653.46	32.31
653.649	32.45
653.838	32.57
654.027	32.54
654.216	32.72
654.405	32.76
654.594	32.62
654.783	32.6
654.972	32.61
655.161	32.52
655.35	32.47
655.539	32.93
655.728	32.76
655.916	32.47
656.105	32.54
656.294	32.43
656.483	32.24
656.672	32.2
656.86	32.27
657.049	32.32
657.238	32.32
657.427	32.08
657.615	31.61
657.804	31.55
657.993	31.59
658.181	31.31
658.37	31.09
658.559	31.14
658.747	30.97
658.936	30.8
659.125	30.45
659.313	30.37
659.502	30.46
659.69	30.54
659.879	30.53
660.067	30.7
660.256	30.72
660.444	31.17
660.633	31.1
660.821	31.27
661.01	31.47
661.198	32.02
661.387	32.21
661.575	32.41
661.763	32.75
661.952	32.87
662.14	33.13
662.328	33.62
662.517	33.72
662.705	33.69
662.893	33.78
663.082	33.78
663.27	33.72
663.458	33.91
663.646	33.96
663.834	33.75
664.023	34.13
664.211	33.91
664.399	33.58
664.587	33.46
664.775	33.73
664.963	33.97
665.152	34.02
665.34	34.15
665.528	34.09
665.716	34.23
665.904	34.26
666.092	33.97
666.28	33.89
666.468	33.92
666.656	34
666.844	34.1
667.032	34.05
667.22	34.05
667.408	33.88
667.596	33.78
667.784	33.34
667.971	33.38
668.159	33.46
668.347	33.42
668.535	33.7
668.723	33.41
668.911	33.05
669.098	32.88
669.286	33.08
669.474	32.93
669.662	32.72
669.849	32.95
670.037	32.98
670.225	33.05
670.413	33.1
670.6	33.01
670.788	33.33
670.976	33.78
671.163	33.99
671.351	33.97
671.538	34.51
671.726	35.1
671.913	35.23
672.101	35.22
672.289	35.33
672.476	35.5
672.664	35.38
672.851	35.53
673.039	35.51
673.226	35.54
673.413	35.42
673.601	35.2
673.788	34.58
673.976	34.36
674.163	34.52
674.35	34.37
674.538	34.23
674.725	34.33
674.912	34.26
675.1	34.16
675.287	34.33
675.474	34.49
675.662	34.68
675.849	35.2
676.036	35.45
676.223	35.56
676.411	35.69
676.598	35.69
676.785	35.57
676.972	35.29
677.159	35.25
677.346	34.77
677.533	34.7
677.721	34.37
677.908	34.23
678.095	34
678.282	33.87
678.469	33.59
678.656	33.55
678.843	33.49
679.03	33.16
679.217	32.99
679.404	33.22
679.591	33.03
679.778	32.98
679.964	32.92
680.151	33.06
680.338	32.93
680.525	32.82
680.712	32.85
680.899	33.02
681.086	33.11
681.272	33.36
681.459	33.42
681.646	33.67
681.833	33.87
682.02	33.91
682.206	33.87
682.393	33.83
682.58	34.11
682.766	34.35
682.953	34.47
683.14	34.54
683.326	34.95
683.513	34.85
683.7	34.86
683.886	34.71
684.073	34.72
684.259	34.82
684.446	34.93
684.632	35.25
684.819	35.07
685.005	35.24
685.192	35.77
685.378	35.28
685.565	35.39
685.751	35.46
685.938	35.65
686.124	35.84
686.31	35.98
686.497	36.15
686.683	35.95
686.87	36.15
687.056	35.62
687.242	35.29
687.429	35.37
687.615	35.55
687.801	35.62
687.987	35.56
688.174	35.48
688.36	35.41
688.546	35.32
688.732	35.17
688.918	35.29
689.105	35.32
689.291	35.52
689.477	35.09
689.663	34.88
689.849	34.35
690.035	34.32
690.221	34.52
690.407	34.98
690.593	35.16
690.779	35.47
690.965	35.3
691.151	35.72
691.337	35.99
691.523	36.47
691.709	36.8
691.895	37.38
692.081	37.39
692.267	37.4
692.453	37.03
692.639	36.64
692.825	36.67
693.011	36.63
693.196	36.63
693.382	36.5
693.568	36.39
693.754	36.3
693.94	36.28
694.125	36.69
694.311	36.83
694.497	36.84
694.682	37.13
694.868	36.96
695.054	36.98
695.239	37.06
695.425	36.97
695.611	37.19
695.796	37
695.982	36.57
696.168	36.12
696.353	35.67
696.539	34.99
696.724	34.82
696.91	34.72
697.095	34.71
697.281	34.24
697.466	33.96
697.652	33.57
697.837	33.2
698.023	33.22
698.208	33.08
698.393	32.84
698.579	33.05
698.764	32.76
698.949	32.76
699.135	32.59
699.32	32.54
699.505	32.88
699.691	32.95
699.876	33.04
700.061	33.03
700.246	33.3
700.432	33.55
700.617	33.64
700.802	33.94
700.987	34.16
701.172	34.53
701.358	34.85
701.543	34.99
701.728	35.41
701.913	35.85
702.098	36.35
702.283	36.47
702.468	36.64
702.653	36.84
702.838	37.1
703.023	37.59
703.208	37.64
703.393	37.72
703.578	37.56
703.763	37.54
703.948	37.57
704.133	37.68
704.318	38.05
704.503	38.58
704.688	38.79
704.873	39.25
705.057	39.39
705.242	39.77
705.427	40.28
705.612	40.66
705.797	41.26
705.981	41.73
706.166	42.1
706.351	41.83
706.536	41.76
706.72	41.92
706.905	41.51
707.09	41.34
707.274	40.79
707.459	40.52
707.644	40.39
707.828	40.37
708.013	40.29
708.197	39.98
708.382	39.93
708.567	40.16
708.751	40.57
708.936	40.7
709.12	40.69
709.305	40.49
709.489	40.46
709.673	40.28
709.858	39.63
710.042	39.51
710.227	39.63
710.411	39.85
710.596	39.6
710.78	38.82
710.964	38.67
711.149	38.3
711.333	38.5
711.517	38.65
711.702	38.75
711.886	38.87
712.07	38.73
712.254	38.5
712.438	38.45
712.623	38.25
712.807	38.43
712.991	38.71
713.175	38.73
713.359	38.91
713.544	39.07
713.728	38.94
713.912	38.83
714.096	38.87
714.28	38.72
714.464	38.18
714.648	37.95
714.832	37.81
715.016	37.6
715.2	37.82
715.384	37.91
715.568	37.62
715.752	37.27
715.936	37.54
716.12	37.52
716.304	37.52
716.488	37.74
716.671	37.8
716.855	37.9
717.039	37.8
717.223	37.73
717.407	37.5
717.59	37.65
717.774	38.21
717.958	38.06
718.142	38.04
718.325	37.91
718.509	38.24
718.693	38.75
718.877	38.94
719.06	39.1
719.244	38.95
719.428	39.4
719.611	39.71
719.795	39.4
719.978	39.74
720.162	39.97
720.345	39.81
720.529	39.61
720.713	39.73
720.896	39.9
721.08	40.44
721.263	40.73
721.446	40.8
721.63	40.46
721.813	40.89
721.997	40.7
722.18	41.11
722.364	41.84
722.547	41.93
722.73	41.87
722.914	41.82
723.097	41.85
723.28	42.05
723.464	41.06
723.647	41.16
723.83	40.93
724.013	40.72
724.197	40.04
724.38	39.33
724.563	39.71
724.746	39.7
724.929	39.62
725.112	39.28
725.296	38.82
725.479	39.34
725.662	38.92
725.845	38.64
726.028	38.81
726.211	38.84
726.394	39.19
726.577	38.89
726.76	38.82
726.943	38.55
727.126	38.5
727.309	38.74
727.492	38.86
727.675	39.22
727.858	39.77
728.041	39.76
728.224	39.95
728.407	39.5
728.589	39.84
728.772	39.74
728.955	39.38
729.138	39.36
729.321	39.2
729.503	39.13
729.686	39.12
729.869	38.56
730.052	38.68
730.234	38.54
730.417	38.9
730.6	38.44
730.782	38.18
730.965	38.19
731.148	38.24
731.33	38.1
731.513	38.15
731.695	38.18
731.878	38.86
732.061	39.06
732.243	39.57
732.426	39.99
732.608	40.05
732.791	39.73
732.973	39.83
733.156	40.13
733.338	40.15
733.52	40.46
733.703	40.43
733.885	40.3
734.068	40.34
734.25	39.84
734.432	39.41
734.615	39.37
734.797	40.35
734.979	40.6
735.162	40.33
735.344	40.34
735.526	39.61
735.708	39.83
735.891	40.34
736.073	40.02
736.255	39.97
736.437	40.1
736.619	40.14
736.802	39.59
736.984	39.67
737.166	39.9
737.348	39.57
737.53	40.36
737.712	40.29
737.894	39.48
738.076	39.82
738.258	40.03
738.44	40.08
738.622	40.45
738.804	40.77
738.986	41.08
739.168	40.44
739.35	41.04
739.532	40.65
739.714	40.91
739.896	41.2
740.078	40.78
740.259	40.68
740.441	41.19
740.623	41.24
740.805	41.23
740.987	41.03
741.168	41.91
741.35	42.29
741.532	42.79
741.714	42.88
741.895	43.36
742.077	43.95
742.259	44.12
742.44	44.09
742.622	44.12
742.804	44.23
742.985	44.84
743.167	45.13
743.348	44.85
743.53	44.97
743.711	45.06
743.893	45.05
744.075	45.15
744.256	45.39
744.438	46.07
744.619	46.3
744.8	47.41
744.982	47.31
745.163	46.95
745.345	47.24
745.526	47.72
745.707	47.62
745.889	47.5
746.07	47.26
746.252	47.32
746.433	47.24
746.614	46.8
746.795	45.73
746.977	45.94
747.158	45.79
747.339	46.6
747.52	46.33
747.702	46.11
747.883	46.44
748.064	46.9
748.245	46.62
748.426	46.84
748.607	47.1
748.788	46.71
748.97	46.5
749.151	46.31
749.332	45.35
749.513	45.13
749.694	45.57
749.875	45.26
750.056	44.84
750.237	45.14
750.418	43.73
750.599	44.02
750.78	44.69
750.96	45.43
751.141	45.59
751.322	45.47
751.503	45.51
751.684	44.93
751.865	45.27
752.046	45.77
752.226	45.8
752.407	46.65
752.588	46.43
752.769	46.61
752.949	46.47
753.13	46.81
753.311	46.71
753.492	46.99
753.672	47.56
753.853	47.82
754.034	48.01
754.214	47.97
754.395	46.82
754.575	47.21
754.756	46.12
754.937	45.86
755.117	45.6
755.298	46.64
755.478	46.24
755.659	46.03
755.839	45.18
756.02	44.32
756.2	45.07
756.381	45.75
756.561	45.66
756.741	46.58
756.922	46.15
757.102	46.72
757.283	45.49
757.463	45.35
757.643	45.35
757.823	44.97
758.004	44.78
758.184	43.73
758.364	43.66
758.545	43.66
758.725	43.5
758.905	43.21
759.085	42.33
759.265	42.35
759.446	41.95
759.626	41.53
759.806	41.52
759.986	41.73
760.166	42.05
760.346	42.05
760.526	41.52
760.706	41.35
760.886	41.07
761.066	41.13
761.246	41.49
761.426	41.2
761.606	41
761.786	41.17
761.966	40.5
762.146	39.95
762.326	39.67
762.506	39.16
762.686	38.58
762.866	38.6
763.046	37.9
763.225	37.34
763.405	37.3
763.585	37.02
763.765	36.81
763.945	36.52
764.124	36.13
764.304	36.25
764.484	36.42
764.664	36.45
764.843	36.44
765.023	37.39
765.203	37.61
765.382	37.56
765.562	38.14
765.741	38.28
765.921	39.69
766.101	41.04
766.28	41.2
766.46	41.49
766.639	41.75
766.819	42.39
766.998	42.91
767.178	43.75
767.357	44.78
767.537	45.17
767.716	45.82
767.896	46.13
768.075	45.63
768.254	45.86
768.434	46.53
768.613	47.02
768.792	46.87
768.972	46.19
769.151	46.18
769.33	46.67
769.51	47.15
769.689	45.73
769.868	45.86
770.047	46.23
770.226	46.31
770.406	46.57
770.585	47.19
770.764	46.99
770.943	47.1
771.122	47.08
771.301	46.72
771.48	46.72
771.66	47.62
771.839	47.02
772.018	46.77
772.197	47.67
772.376	47.77
772.555	48.74
772.734	49.06
772.913	49.49
773.092	50.31
773.271	50.55
773.449	51.01
773.628	51.79
773.807	51.85
773.986	52.85
774.165	52.61
774.344	53.08
774.523	52.86
774.701	53.95
774.88	54.48
775.059	53.13
775.238	53.59
775.417	53.11
775.595	53.55
775.774	54.53
775.953	53.63
776.131	54.11
776.31	52.88
776.489	51.08
776.667	50.39
776.846	49.61
777.025	50.26
777.203	49.64
777.382	50.41
777.56	50.66
777.739	50.67
777.917	51.55
778.096	51.6
778.274	52.54
778.453	53.99
778.631	53.94
778.81	54.96
778.988	55.44
779.166	54.74
779.345	53.83
779.523	52.91
779.702	52.86
779.88	52.3
780.058	51.99
780.237	52.1
780.415	52.22
780.593	52.49
780.771	53.27
780.95	53.17
781.128	54.62
781.306	54.3
781.484	54.98
781.662	54.46
781.841	54.57
782.019	54.55
782.197	54.63
782.375	53.91
782.553	53.76
782.731	52.62
782.909	53.33
783.087	54.23
783.265	54.93
783.443	54.4
783.621	53.75
783.799	54.19
783.977	53.82
784.155	54.36
784.333	55.12
784.511	55.58
784.689	55.16
784.867	54.19
785.045	51.88
785.223	51.75
785.4	52.46
785.578	53.96
785.756	54.03
785.934	54.2
786.112	54.75
786.289	54.39
786.467	53.46
786.645	52.39
786.823	51.48
787	52.44
787.178	51.15
787.356	50.42
787.533	49.77
787.711	48.65
787.889	48.92
788.066	48.07
788.244	48.23
788.421	49.14
788.599	49.64
788.776	51.3
788.954	51.99
789.131	53.28
789.309	53.96
789.486	53.62
789.664	54.3
789.841	54.88
790.019	55.04
790.196	55.61
790.373	56.12
790.551	56.91
790.728	56.58
790.906	56.73
791.083	57.78
791.26	57.61
791.437	57.45
791.615	58.18
791.792	56.88
791.969	55.99
792.146	55.47
792.324	54.75
792.501	55.18
792.678	54.28
792.855	53.75
793.032	52.7
793.209	51.95
793.387	53.4
793.564	53.51
793.741	53.52
793.918	54.62
794.095	53.29
794.272	52.55
794.449	52.23
794.626	53.55
794.803	53.79
794.98	54.33
795.157	53.96
795.334	52.65
795.511	52.03
795.688	53.03
795.864	52.67
796.041	53.26
796.218	53.52
796.395	53.52
796.572	51.93
796.749	51.29
796.925	50.46
797.102	51.43
797.279	51.74
797.456	51.66
797.632	51.4
797.809	50.42
797.986	51.34
798.162	52.58
798.339	51.52
798.516	52.87
798.692	52.52
798.869	53.1
799.046	52.79
799.222	53.07
799.399	53.27
799.575	53.39
799.752	55.2
799.928	54.92
800.105	54.1
800.281	54.67
800.458	54.47
800.634	55.88
800.811	55.65
800.987	56.5
801.163	55.91
801.34	56.08
801.516	54.28
801.692	53.89
801.869	53.39
802.045	52.86
802.221	53.39
802.398	53.41
802.574	52.82
802.75	53.7
802.926	53.47
803.103	55.2
803.279	55.03
803.455	57.15
803.631	58.09
803.807	59.43
803.983	60.79
804.16	62.01
804.336	62.58
804.512	62.77
804.688	63.37
804.864	62.52
805.04	62.84
805.216	64.99
805.392	65.89
805.568	65.06
805.744	63.44
805.92	63.42
806.096	62.99
806.272	62.66
806.448	63.45
806.623	62.11
806.799	62.79
806.975	62.75
807.151	60.91
807.327	59.71
807.503	58.61
807.678	59.96
807.854	59.71
808.03	59.45
808.206	59.86
808.381	59.68
808.557	61.3
808.733	62.91
808.908	62.98
809.084	63.88
809.26	63.81
809.435	64.32
809.611	63.6
809.787	64.6
809.962	66.11
810.138	64.62
810.313	63.2
810.489	63.61
810.664	62.15
810.84	60
811.015	59.84
811.191	59.59
811.366	59.51
811.542	61.26
811.717	59.64
811.892	58.6
812.068	59.69
812.243	60.61
812.419	60.37
812.594	60.58
812.769	62.34
812.944	62.88
813.12	63.44
813.295	64.69
813.47	63.24
813.645	65.43
813.821	64.9
813.996	65.66
814.171	67.3
814.346	66.32
814.521	66.47
814.697	65.92
814.872	64.33
815.047	63.97
815.222	63.94
815.397	63.93
815.572	62.9
815.747	63.28
815.922	63.24
816.097	61.72
816.272	61.41
816.447	61.19
816.622	60.64
816.797	60.9
816.972	61.72
817.147	60.81
817.322	60.33
817.496	59.44
817.671	60.1
817.846	58.72
818.021	58.45
818.196	59.37
818.371	59.06
818.545	59.07
818.72	58.22
818.895	57.72
819.069	55.82
819.244	54.93
819.419	53.34
819.594	51.73
819.768	50.22
819.943	49.25
820.117	46.3
820.292	43.48
820.467	40.99
820.641	39.69
820.816	37.18
820.99	36.15
821.165	34.48
821.339	33.18
821.514	32.65
821.688	32.01
821.863	30.8
822.037	30.46
822.212	30.01
822.386	29.65
822.56	29.23
822.735	29.29
822.909	29.1
823.084	29.29
823.258	29.74
823.432	29.32
823.606	29.23
823.781	29.46
823.955	29.5
824.129	30.09
824.303	30.54
824.478	31.3
824.652	31.86
824.826	32.49
825	33.22
825.174	33.21
825.348	34.64
825.523	35.51
825.697	36.11
825.871	36.93
826.045	36.84
826.219	37.44
826.393	37.66
826.567	37.29
826.741	37.22
826.915	36.82
827.089	37.1
827.263	36.59
827.437	36.73
827.611	37.22
827.784	37.79
827.958	38.31
828.132	38.57
828.306	38.78
828.48	39.77
828.654	40.12
828.827	40.77
829.001	41.77
829.175	42.75
829.349	44.23
829.522	45.35
829.696	46.76
829.87	48.22
830.044	48.41
830.217	49.51
830.391	50.16
830.565	51.69
830.738	53.69
830.912	54.41
831.085	54.52
831.259	54.73
831.432	55.53
831.606	53.96
831.779	53.85
831.953	54.77
832.126	53.98
832.3	53.25
832.473	51.95
832.647	49.22
832.82	48.31
832.994	47.04
833.167	45.32
833.34	43.65
833.514	43.34
833.687	42.84
833.86	42.35
834.034	41.59
834.207	41.08
834.38	41.5
834.553	42.5
834.727	42.26
834.9	43.3
835.073	44.34
835.246	44.92
835.419	45.28
835.593	45.62
835.766	45.77
835.939	48.37
836.112	50.02
836.285	51.15
836.458	51.16
836.631	54.2
836.804	55.43
836.977	56.82
837.15	60.98
837.323	63.27
837.496	65.98
837.669	69.2
837.842	69.33
838.015	70.85
838.188	73.92
838.361	78.14
838.533	77.13
838.706	79.11
838.879	79.01
839.052	77.24
839.225	77.8
839.398	74.8
839.57	73.23
839.743	73.44
839.916	71.1
840.088	69.9
840.261	69.11
840.434	69.6
840.607	68.92
840.779	69.36
840.952	68.63
841.124	67.93
841.297	69.67
841.47	71.01
841.642	71.35
841.815	74.99
841.987	75.81
842.16	77.84
842.332	80
842.505	79.89
842.677	79.45
842.85	81.51
843.022	83.41
843.194	86.68
843.367	88.85
843.539	89.74
843.712	90.59
843.884	89.97
844.056	93.46
844.229	91.14
844.401	93.47
844.573	97.74
844.745	99.88
844.918	102.68
845.09	107.65
845.262	110.41
845.434	116.41
845.606	117.97
845.779	121.11
845.951	118.44
846.123	121.87
846.295	120.2
846.467	117.36
846.639	115.48
846.811	115.41
846.983	109.73
847.155	110.36
847.327	104.76
847.499	106.64
847.671	109.38
847.843	111.59
848.015	110.5
848.187	118.7
848.359	120.12
848.531	121.67
848.703	119.88
848.875	127.5
849.047	126.96
849.218	126.04
849.39	124.85
849.562	121.62
849.734	121.88
849.905	125.89
850.077	120.63
850.249	119.35
850.421	119.58
850.592	122.85
850.764	118.87
850.936	121.02
851.107	129.45
851.279	131.88
851.451	134.59
851.622	133.36
851.794	131.47
851.965	131.37
852.137	131.86
852.308	136.87
852.48	133.15
852.651	130.87
852.823	124.01
852.994	120.57
853.166	118.48
853.337	116.14
853.509	118.99
853.68	115.58
853.851	113.96
854.023	111.93
854.194	109
854.365	113.61
854.537	114.04
854.708	113.27
854.879	111.64
855.05	113.89
855.222	112.73
855.393	110.99
855.564	112.03
855.735	113.72
855.906	118.46
856.078	115.51
856.249	106.92
856.42	106.06
856.591	110.09
856.762	106.87
856.933	105.98
857.104	112.65
857.275	111.47
857.446	116.72
857.617	119.61
857.788	120.98
857.959	121.77
858.13	129.2
858.301	136.4
858.472	132.84
858.643	135.63
858.814	140.69
858.985	135.61
859.155	140.13
859.326	139.58
859.497	135.39
859.668	137.84
859.839	147.14
860.009	152.73
860.18	150.96
860.351	150.89
860.522	162.91
860.692	156.49
860.863	159.44
861.034	156.6
861.204	155.11
861.375	161.41
861.546	152.35
861.716	144.73
861.887	145.67
862.057	138.99
862.228	137.71
862.398	136.11
862.569	137.56
862.739	133.02
862.91	123.25
863.08	122.2
863.251	120.39
863.421	124.59
863.592	127.87
863.762	123.13
863.932	129.13
864.103	127.97
864.273	127.77
864.443	126.42
864.614	129.47
864.784	131.15
864.954	132.86
865.125	137.67
865.295	137.28
865.465	133.07
865.635	133.18
865.805	132.42
865.976	140.94
866.146	137.87
866.316	139.13
866.486	141.78
866.656	152.81
866.826	157.19
866.996	150.1
867.166	145.68
867.336	146.25
867.506	147.94
867.676	141.67
867.846	136.53
868.016	142.4
868.186	144.55
868.356	141.47
868.526	143.21
868.696	143.59
868.866	143.39
869.036	150
869.206	151.08
869.376	141.95
869.545	145.61
869.715	153.85
869.885	139.42
870.055	138.04
870.224	142.2
870.394	136.31
870.564	135.4
870.734	134.69
870.903	130.62
871.073	128.01
871.243	133.97
871.412	127.17
871.582	121.86
871.751	122.14
871.921	118.56
872.091	112.54
872.26	109.29
872.43	105.05
872.599	107.99
872.769	111.28
872.938	113.78
873.108	116.34
873.277	125.5
873.446	122.54
873.616	128.47
873.785	131.23
873.955	135.49
874.124	139.96
874.293	138.81
874.463	133.45
874.632	130.74
874.801	129.39
874.971	128.48
875.14	130.58
875.309	132.1
875.478	134.52
875.647	132.36
875.817	128.51
875.986	127.14
876.155	130.12
876.324	133.95
876.493	135.96
876.662	129.36
876.831	123.2
877	118.17
877.17	117.14
877.339	112
877.508	108.62
877.677	115.85
877.846	110.76
878.015	108.1
878.184	102.8
878.352	103.83
878.521	102.68
878.69	103.27
878.859	99.29
879.028	97.63
879.197	93.3
879.366	93.09
879.534	86.43
879.703	81.67
879.872	78.12
880.041	77.99
880.21	72
880.378	70.31
880.547	63.86
880.716	59.91
880.884	56.25
881.053	53.9
881.222	50.67
881.39	47.24
881.559	45.76
881.727	42.82
881.896	40.24
882.065	39.93
882.233	38.8
882.402	38.73
882.57	38.86
882.739	38.92
882.907	38.47
883.076	38.82
883.244	39.08
883.412	40.39
883.581	42
883.749	43.75
883.918	44.2
884.086	45.16
884.254	47.25
884.423	49.14
884.591	50.53
884.759	54.4
884.927	57.42
885.096	61.83
885.264	66.01
885.432	69
885.6	73.48
885.769	78.08
885.937	82.13
886.105	84.63
886.273	84.71
886.441	87.07
886.609	88.6
886.777	89.98
886.945	91.95
887.113	93.58
887.281	98.88
887.449	97.22
887.617	101.14
887.785	102.73
887.953	104.39
888.121	113.57
888.289	121.42
888.457	115.69
888.625	117.49
888.793	120.26
888.961	116.49
889.129	113.22
889.296	111.62
889.464	107.69
889.632	106.6
889.8	108.73
889.967	107.64
890.135	100.22
