Data from 2938732__Reflection_02.txt Node
Date: Sun Mar 15 18:44:42 EDT 2015
User: robert
Spectrometer: USB4E03002
Autoset integration time: false
Trigger mode: 4
Integration Time (sec): 1.000000E-1
Scans to average: 10
Electric dark correction enabled: false
Nonlinearity correction enabled: false
Boxcar width: 5
Stray light correction enabled: false
XAxis mode: Wavelengths
Stop averaging: false
Number of Pixels in Spectrum: 3648
>>>>>Begin Spectral Data<<<<<
177.575	-87.95
177.794	220
178.014	547.37
178.233	-2500
178.452	-720
178.672	-45.95
178.891	76.36
179.11	110.94
179.33	549.32
179.549	505.36
179.768	242.8
179.987	209.15
180.207	117.05
180.426	156.02
180.645	296
180.864	281.36
181.084	187.34
181.303	162.91
181.522	225.99
181.741	131.91
181.96	170.72
182.179	370
182.398	83.67
182.618	-134.92
182.837	50.4
183.056	68.67
183.275	-220.37
183.494	-183.19
183.713	-8.24
183.932	-28.22
184.151	24.7
184.37	26.68
184.589	-42.14
184.808	75.31
185.027	243.9
185.246	34.44
185.465	16.33
185.684	-19.31
185.903	-86.54
186.122	-74.44
186.341	-209.78
186.56	-28.37
186.779	-484.76
186.998	1509.76
187.216	243.83
187.435	171.66
187.654	161.49
187.873	111.59
188.092	159.51
188.311	206.42
188.53	181.9
188.748	235.93
188.967	119.07
189.186	96.35
189.405	53.79
189.623	138.1
189.842	527.59
190.061	338.55
190.28	319.28
190.498	11300
190.717	-5480
190.936	122.4
191.154	101.29
191.373	71.72
191.592	123.02
191.81	132.66
192.029	139.46
192.248	195.68
192.466	283.48
192.685	81.64
192.904	122.83
193.122	118.55
193.341	417.31
193.559	191.74
193.778	213.1
193.996	143.62
194.215	51.23
194.433	-63.84
194.652	-25.48
194.87	-32.79
195.089	-2.79
195.307	-13.66
195.526	-13.51
195.744	25.1
195.963	99.02
196.181	55.74
196.399	16.45
196.618	-72.86
196.836	-1220
197.055	-13.39
197.273	-24.54
197.491	7.67
197.71	50.57
197.928	63.42
198.146	158.06
198.365	2771.43
198.583	283.75
198.801	633.33
199.019	197.5
199.238	8.09
199.456	-139.6
199.674	-55.93
199.892	-57.41
200.111	-140.18
200.329	391.38
200.547	-353.98
200.765	-123.91
200.983	-150.5
201.202	-34.11
201.42	28.01
201.638	35.61
201.856	38.81
202.074	41.04
202.292	53.46
202.51	32.2
202.728	26.1
202.946	53.68
203.165	57.98
203.383	66.09
203.601	43.53
203.819	34.05
204.037	46.19
204.255	43.04
204.473	78.96
204.691	139.89
204.909	145.83
205.127	-714.29
205.345	-97.5
205.562	52.69
205.78	71.62
205.998	57.92
206.216	105.03
206.434	60.6
206.652	39.78
206.87	100.65
207.088	86.11
207.306	-32.98
207.523	4.96
207.741	94.96
207.959	-94.32
208.177	79.22
208.395	96.8
208.612	326.32
208.83	61.64
209.048	135.9
209.266	124.53
209.483	59.04
209.701	-9.04
209.919	10.83
210.136	81.59
210.354	80
210.572	116.2
210.79	75.54
211.007	78.9
211.225	64.7
211.442	51.54
211.66	65.05
211.878	56.93
212.095	-70.82
212.313	-74.53
212.53	-125
212.748	-200.69
212.966	-163.16
213.183	-106.71
213.401	-88.27
213.618	-77.97
213.836	-160.53
214.053	-154.12
214.271	-146.13
214.488	44.58
214.705	25.71
214.923	13.1
215.14	9.4
215.358	-3.17
215.575	-29.58
215.793	-56.28
216.01	-66.95
216.227	-2.03
216.445	-17.79
216.662	-24.37
216.879	-56.14
217.097	-98.43
217.314	-239.02
217.531	-84.84
217.749	-72.68
217.966	-130.11
218.183	-43.67
218.4	-38.49
218.618	-120
218.835	-58.48
219.052	-24.26
219.269	-18.98
219.487	3.59
219.704	12.24
219.921	-3.49
220.138	-5.61
220.355	-8.58
220.572	-14.39
220.79	-1.87
221.007	-3.13
221.224	-4.76
221.441	-14.67
221.658	-3.2
221.875	-16.43
222.092	-9.6
222.309	-2.54
222.526	-15.9
222.743	-9.95
222.96	-23.02
223.177	-39.91
223.394	-31.51
223.611	-35.86
223.828	-26.12
224.045	-50.55
224.262	-41.31
224.479	-37.29
224.696	-37.67
224.913	-36.34
225.13	-26.17
225.347	-16.7
225.564	-25.54
225.781	-22.46
225.997	-10.23
226.214	-11.84
226.431	-4.77
226.648	-3.65
226.865	-3.66
227.082	-3.37
227.298	-1.93
227.515	-3.68
227.732	-4.46
227.949	-1.68
228.165	-1.74
228.382	-4.25
228.599	-5.7
228.816	-4.58
229.032	-4.54
229.249	-4.37
229.466	-5.23
229.682	-4.47
229.899	-5.63
230.116	-5.45
230.332	-5.99
230.549	-7.06
230.765	-5.55
230.982	-3.58
231.199	-4.87
231.415	-3.73
231.632	-3.35
231.848	-3.87
232.065	-6.97
232.281	-5.54
232.498	-6.04
232.714	-5.99
232.931	-4.81
233.147	-7.44
233.364	-7.19
233.58	-6.32
233.797	-7.86
234.013	-9
234.23	-7.72
234.446	-8.99
234.662	-8.38
234.879	-9.05
235.095	-7.67
235.312	-8.15
235.528	-7.69
235.744	-10.55
235.961	-13.26
236.177	-16.57
236.393	-15.6
236.61	-13.31
236.826	-9.96
237.042	-11.33
237.258	-10.01
237.475	-12.93
237.691	-13.58
237.907	-11.48
238.123	-9.71
238.339	-11.24
238.556	-6.35
238.772	-5.99
238.988	-7.34
239.204	-6.39
239.42	-7.06
239.636	-6.17
239.853	-4.15
240.069	-4.31
240.285	-6.67
240.501	-6.07
240.717	-4.51
240.933	-4.8
241.149	-4.06
241.365	-5.1
241.581	-5.23
241.797	-3.66
242.013	-4.39
242.229	-5.12
242.445	-4.76
242.661	-3.91
242.877	-3.88
243.093	-4.43
243.309	-4.49
243.525	-5.17
243.741	-4.44
243.957	-4.8
244.173	-6.02
244.388	-4.61
244.604	-2.51
244.82	-1.99
245.036	-1.54
245.252	-1.5
245.468	-0.32
245.683	0.28
245.899	0.66
246.115	1.07
246.331	1.53
246.547	2.06
246.762	1.95
246.978	1.55
247.194	1.52
247.409	1.38
247.625	1.67
247.841	1.4
248.057	1.06
248.272	0.23
248.488	-0.17
248.703	-0.59
248.919	-0.87
249.135	-1.66
249.35	-2.5
249.566	-2.13
249.782	-2.88
249.997	-3.74
250.213	-4
250.428	-4.27
250.644	-3.05
250.859	-2.55
251.075	-2.08
251.29	-2.88
251.506	-3.15
251.721	-3.61
251.937	-5.4
252.152	-5.23
252.368	-5.42
252.583	-4.53
252.798	-5.11
253.014	-5.22
253.229	-5.86
253.445	-6.31
253.66	-5.17
253.875	-5
254.091	-5.04
254.306	-3.69
254.521	-2.71
254.737	-2.77
254.952	-4.88
255.167	-4.13
255.383	-4.28
255.598	-3.81
255.813	-3.75
256.028	-4.56
256.244	-3.9
256.459	-3.3
256.674	-2.9
256.889	-3.03
257.104	-1.99
257.32	-1.07
257.535	-0.29
257.75	0.82
257.965	0.54
258.18	0.81
258.395	0.89
258.61	0.99
258.826	1.2
259.041	0.73
259.256	0.44
259.471	0.77
259.686	0.82
259.901	0.65
260.116	0.4
260.331	0.44
260.546	0.27
260.761	0.22
260.976	-0.23
261.191	-0.07
261.406	0.24
261.621	0.62
261.836	-0.04
262.05	-0.59
262.265	-0.62
262.48	-0.72
262.695	-1.08
262.91	-0.48
263.125	-0.8
263.34	-0.17
263.555	-1.18
263.769	-1.84
263.984	-2.26
264.199	-2.4
264.414	-1.36
264.629	-1.65
264.843	-1.94
265.058	-1.28
265.273	-1.99
265.488	-1.35
265.702	-2.04
265.917	-1.96
266.132	-1.42
266.346	-1.81
266.561	-1.36
266.776	-1.29
266.99	-1.59
267.205	-1.07
267.42	-1.59
267.634	-1.72
267.849	-2.31
268.063	-2.13
268.278	-1.92
268.492	-2.55
268.707	-2.35
268.922	-2.21
269.136	-2.12
269.351	-1.41
269.565	-1.38
269.78	-0.21
269.994	-0.12
270.209	0.3
270.423	0.7
270.637	0.36
270.852	1.07
271.066	1.08
271.281	1.22
271.495	1.06
271.709	0.51
271.924	0.45
272.138	-0.29
272.353	-0.17
272.567	-0.39
272.781	-0.39
272.996	-0.09
273.21	0.08
273.424	-0.05
273.638	0.08
273.853	0.02
274.067	0.33
274.281	-0.39
274.495	-0.52
274.71	-0.69
274.924	-0.49
275.138	-0.66
275.352	-0.23
275.566	-0.87
275.781	-0.61
275.995	-1.52
276.209	-1.41
276.423	-1.85
276.637	-1.87
276.851	-1.5
277.065	-0.8
277.279	-1.15
277.493	-1.16
277.707	-2
277.921	-2.38
278.135	-2.96
278.349	-2.55
278.563	-3.97
278.777	-4.07
278.991	-3.93
279.205	-3.78
279.419	-3.66
279.633	-3.66
279.847	-3.57
280.061	-3.06
280.275	-2.46
280.489	-2.4
280.703	-2.48
280.917	-1.15
281.131	-0.36
281.344	0.14
281.558	0.37
281.772	-0.31
281.986	-0.12
282.2	0.11
282.414	0
282.627	-0.03
282.841	-0.07
283.055	-0.23
283.269	-0.55
283.482	-0.91
283.696	-1.15
283.91	-1.11
284.123	-1.26
284.337	-0.94
284.551	-0.88
284.764	-0.38
284.978	-0.07
285.192	0.22
285.405	0.59
285.619	0.87
285.833	1.14
286.046	1.19
286.26	0.87
286.473	0.78
286.687	0.56
286.9	0.24
287.114	0.05
287.327	-0.28
287.541	-0.33
287.754	-0.36
287.968	-0.81
288.181	-1.43
288.395	-1.45
288.608	-1.16
288.822	-0.51
289.035	-0.63
289.248	-0.23
289.462	-0.22
289.675	-0.49
289.889	-0.16
290.102	-0.5
290.315	-0.72
290.529	-0.18
290.742	-0.34
290.955	-0.47
291.169	-0.87
291.382	-0.27
291.595	-0.67
291.808	-1.1
292.022	-0.98
292.235	-1.17
292.448	-1.07
292.661	-0.83
292.875	-1.6
293.088	-1.49
293.301	-1.54
293.514	-0.97
293.727	-1.81
293.94	-1.3
294.153	-0.87
294.367	-0.85
294.58	-1.16
294.793	-0.88
295.006	-0.67
295.219	-0.13
295.432	-0.06
295.645	-0.01
295.858	-0.26
296.071	-0.21
296.284	-0.31
296.497	-0.23
296.71	-0.13
296.923	0.13
297.136	0.14
297.349	0.19
297.562	0.1
297.775	0.25
297.988	0.23
298.201	0.39
298.414	0.51
298.626	0.41
298.839	0.34
299.052	0.55
299.265	0.39
299.478	0.33
299.691	0.62
299.903	0.63
300.116	0.56
300.329	0.62
300.542	0.59
300.755	0.82
300.967	1.01
301.18	0.51
301.393	0.14
301.605	0.53
301.818	0.27
302.031	-0.17
302.243	-0.07
302.456	-0.17
302.669	-0.22
302.881	-0.67
303.094	-0.6
303.307	-0.79
303.519	-0.35
303.732	-0.29
303.944	-0.47
304.157	0.1
304.37	-0.02
304.582	0.15
304.795	0.36
305.007	0.51
305.22	1.16
305.432	0.99
305.645	0.89
305.857	0.99
306.069	1.11
306.282	1.32
306.494	0.94
306.707	1.33
306.919	1.03
307.132	0.6
307.344	0.34
307.556	0.36
307.769	0.9
307.981	1.48
308.193	1.17
308.406	0.57
308.618	0.01
308.83	-0.05
309.043	0.02
309.255	-0.02
309.467	0.15
309.679	0.59
309.892	0.48
310.104	0.01
310.316	0.01
310.528	0.03
310.74	0.59
310.953	0.82
311.165	0.54
311.377	0.42
311.589	0.67
311.801	0.87
312.013	0.58
312.225	0.69
312.437	0.8
312.649	0.75
312.862	0.91
313.074	0.9
313.286	0.81
313.498	1.03
313.71	0.89
313.922	0.96
314.134	0.67
314.346	0.81
314.558	0.51
314.77	0.1
314.982	-0.45
315.193	-0.58
315.405	-0.6
315.617	-0.31
315.829	0.22
316.041	-0.09
316.253	-0.03
316.465	0.25
316.677	0.22
316.888	-0.06
317.1	0.97
317.312	1.69
317.524	2.04
317.736	1.84
317.947	1.94
318.159	1.74
318.371	2.02
318.583	1.77
318.794	1.51
319.006	1.66
319.218	2.02
319.43	1.47
319.641	1.06
319.853	0.97
320.064	1.36
320.276	1.2
320.488	0.97
320.699	1.43
320.911	1.32
321.123	1.49
321.334	1.61
321.546	1.5
321.757	1.87
321.969	1.81
322.18	1.67
322.392	1.84
322.603	2.35
322.815	2.71
323.026	2.6
323.238	3.34
323.449	3.24
323.661	2.89
323.872	2.94
324.083	2.46
324.295	2.48
324.506	2.42
324.718	2.41
324.929	2.16
325.14	2.27
325.352	2.6
325.563	2.54
325.774	2.88
325.986	3.15
326.197	3.29
326.408	3.79
326.62	3.69
326.831	3.91
327.042	3.8
327.253	4.51
327.464	4.89
327.676	4.9
327.887	4.46
328.098	4.34
328.309	4.06
328.52	4.28
328.732	4.13
328.943	5.18
329.154	5.26
329.365	5.8
329.576	5.32
329.787	4.88
329.998	5.11
330.209	5.71
330.42	6.28
330.631	7
330.842	7.42
331.053	7.9
331.264	8.02
331.475	8.43
331.686	8.66
331.897	8.69
332.108	9.05
332.319	8.88
332.53	8.98
332.741	9.12
332.952	9.79
333.163	9.58
333.374	9.52
333.585	9.13
333.795	9.29
334.006	9.21
334.217	9.07
334.428	9.58
334.639	9.76
334.849	9.63
335.06	9.8
335.271	9.11
335.482	9.2
335.692	9.56
335.903	9.53
336.114	9.7
336.325	9.74
336.535	9.84
336.746	9.59
336.957	9.61
337.167	9.37
337.378	8.97
337.589	8.79
337.799	8.54
338.01	8.14
338.22	8.9
338.431	8.61
338.642	8.68
338.852	8.94
339.063	8.8
339.273	8.4
339.484	9.26
339.694	9.8
339.905	9.82
340.115	9.82
340.326	10.17
340.536	9.38
340.746	9.64
340.957	9.27
341.167	9.27
341.378	9.54
341.588	10.12
341.799	9.79
342.009	9.16
342.219	9.14
342.43	9.44
342.64	9.22
342.85	9.35
343.061	9.46
343.271	9.55
343.481	9.47
343.691	9.3
343.902	9.14
344.112	9.08
344.322	9.3
344.532	9.08
344.743	9.16
344.953	8.98
345.163	9.19
345.373	8.91
345.583	8.68
345.793	8.57
346.004	8.52
346.214	8.55
346.424	8.53
346.634	8.99
346.844	9.2
347.054	9.12
347.264	9.39
347.474	9.25
347.684	9.34
347.894	9.58
348.104	9.93
348.314	9.93
348.524	9.61
348.734	9.77
348.944	9.37
349.154	10.2
349.364	10.75
349.574	10.64
349.784	10.86
349.994	10.83
350.204	11.06
350.413	11.08
350.623	11.22
350.833	10.97
351.043	10.72
351.253	10.81
351.463	10.02
351.672	9.42
351.882	9.59
352.092	9.45
352.302	9.27
352.511	9.18
352.721	8.92
352.931	8.65
353.141	9.67
353.35	9.82
353.56	9.67
353.77	10.01
353.979	9.98
354.189	9.57
354.399	9.31
354.608	9.35
354.818	9.5
355.027	9.67
355.237	9.78
355.447	9.63
355.656	9.93
355.866	10.09
356.075	10.26
356.285	10.56
356.494	10.87
356.704	11.09
356.913	11.53
357.123	11.08
357.332	10.97
357.542	10.82
357.751	10.74
357.96	10.62
358.17	10.39
358.379	10.38
358.589	10.28
358.798	10.34
359.007	10.26
359.217	9.86
359.426	10.27
359.635	10.6
359.845	11.03
360.054	10.91
360.263	10.65
360.472	10.6
360.682	10.74
360.891	10.41
361.1	10.49
361.309	10.72
361.519	10.83
361.728	10.7
361.937	10.52
362.146	10.38
362.355	10.47
362.564	10.74
362.774	10.88
362.983	10.49
363.192	10.63
363.401	10.61
363.61	10.53
363.819	10.56
364.028	10.74
364.237	10.74
364.446	10.37
364.655	10.07
364.864	9.68
365.073	9.62
365.282	9.64
365.491	9.7
365.7	9.48
365.909	9.38
366.118	9.3
366.327	9
366.536	8.89
366.745	8.96
366.954	8.97
367.162	9.37
367.371	9.73
367.58	9.77
367.789	9.67
367.998	9.87
368.207	9.88
368.415	9.55
368.624	9.67
368.833	9.91
369.042	9.94
369.25	9.85
369.459	9.43
369.668	8.96
369.877	8.97
370.085	8.9
370.294	8.82
370.503	8.73
370.711	8.7
370.92	8.45
371.129	8.48
371.337	8.41
371.546	8.41
371.754	8.45
371.963	8.51
372.171	8.59
372.38	8.64
372.589	8.54
372.797	8.21
373.006	8.42
373.214	8.51
373.423	8.22
373.631	8.13
373.84	8.46
374.048	8.4
374.256	8.37
374.465	8.05
374.673	7.91
374.882	7.78
375.09	7.98
375.298	7.95
375.507	7.88
375.715	7.87
375.923	8.37
376.132	8.3
376.34	8.45
376.548	8.74
376.757	8.68
376.965	8.94
377.173	9.19
377.381	9.12
377.59	9.22
377.798	9.28
378.006	9.03
378.214	9.16
378.423	9.1
378.631	8.98
378.839	8.68
379.047	8.91
379.255	9
379.463	8.93
379.671	9.03
379.879	8.84
380.088	8.8
380.296	9.01
380.504	8.48
380.712	8.52
380.92	8.7
381.128	8.76
381.336	8.46
381.544	8.45
381.752	8.23
381.96	8.05
382.168	8.27
382.376	8.43
382.584	8.74
382.791	8.94
382.999	8.5
383.207	8.37
383.415	8.21
383.623	8.21
383.831	8.06
384.039	8.02
384.247	8.27
384.454	8.4
384.662	8.18
384.87	8.11
385.078	8.21
385.285	8.5
385.493	8.37
385.701	8.54
385.909	8.98
386.116	9.18
386.324	9.37
386.532	9.48
386.739	9.52
386.947	9.72
387.155	9.37
387.362	9.3
387.57	9.15
387.778	9.37
387.985	9.45
388.193	9.5
388.4	9.25
388.608	9.23
388.816	8.67
389.023	8.62
389.231	8.57
389.438	8.49
389.646	8.45
389.853	8.39
390.061	8.47
390.268	8.65
390.475	8.47
390.683	8.63
390.89	8.6
391.098	8.9
391.305	8.51
391.512	8.44
391.72	8.54
391.927	8.61
392.135	8.91
392.342	8.63
392.549	8.41
392.756	8.33
392.964	8.34
393.171	8.26
393.378	8.28
393.586	8.39
393.793	8.57
394	8.69
394.207	8.51
394.414	8.37
394.622	8.39
394.829	8.58
395.036	8.4
395.243	8.34
395.45	8.4
395.657	8.31
395.864	8.21
396.072	8
396.279	8.06
396.486	8.25
396.693	8.27
396.9	8.41
397.107	8.18
397.314	8.19
397.521	7.93
397.728	7.69
397.935	7.64
398.142	7.76
398.349	7.92
398.556	7.72
398.763	7.47
398.97	7.47
399.177	7.65
399.383	7.71
399.59	7.87
399.797	8.28
400.004	8.35
400.211	8.43
400.418	8.49
400.625	8.4
400.831	8.8
401.038	9.08
401.245	9.21
401.452	9.14
401.658	9.04
401.865	9.2
402.072	8.92
402.279	9.31
402.485	9.5
402.692	9.33
402.899	9.35
403.105	9.2
403.312	9.16
403.519	9.09
403.725	9.07
403.932	9.16
404.138	9.12
404.345	9.17
404.552	8.88
404.758	8.56
404.965	8.68
405.171	8.84
405.378	8.73
405.584	8.82
405.791	8.96
405.997	8.81
406.204	8.78
406.41	8.78
406.617	8.68
406.823	8.58
407.029	8.93
407.236	8.84
407.442	8.53
407.649	8.6
407.855	8.41
408.061	8.33
408.268	8.2
408.474	8.22
408.68	8.16
408.887	8.23
409.093	8.28
409.299	8.11
409.505	8.56
409.712	8.91
409.918	8.8
410.124	8.85
410.33	8.64
410.537	8.86
410.743	8.75
410.949	8.62
411.155	8.64
411.361	8.78
411.567	8.89
411.773	8.41
411.98	8.26
412.186	8.42
412.392	8.43
412.598	8.51
412.804	8.46
413.01	8.44
413.216	8.66
413.422	8.65
413.628	8.59
413.834	8.66
414.04	8.89
414.246	8.77
414.452	8.64
414.658	8.5
414.864	8.61
415.07	8.76
415.275	8.91
415.481	8.84
415.687	8.73
415.893	8.75
416.099	8.7
416.305	8.78
416.511	8.77
416.716	8.89
416.922	9.12
417.128	9.07
417.334	8.96
417.539	8.95
417.745	8.98
417.951	9.16
418.157	9.18
418.362	9.23
418.568	9.25
418.774	9.36
418.979	9.41
419.185	9.39
419.391	9.52
419.596	9.64
419.802	9.78
420.008	9.7
420.213	9.68
420.419	9.78
420.624	9.79
420.83	9.75
421.035	9.73
421.241	9.71
421.446	9.75
421.652	9.73
421.857	9.77
422.063	9.77
422.268	9.9
422.474	9.84
422.679	9.87
422.885	9.89
423.09	9.91
423.295	9.98
423.501	9.92
423.706	9.86
423.911	9.83
424.117	9.79
424.322	9.73
424.527	9.76
424.733	9.82
424.938	9.76
425.143	9.66
425.349	9.65
425.554	9.63
425.759	9.71
425.964	9.69
426.169	9.73
426.375	9.69
426.58	9.68
426.785	9.63
426.99	9.62
427.195	9.52
427.4	9.49
427.605	9.54
427.811	9.51
428.016	9.39
428.221	9.44
428.426	9.24
428.631	9.21
428.836	9.11
429.041	8.96
429.246	8.96
429.451	9.03
429.656	9.26
429.861	9.15
430.066	9.18
430.271	9.2
430.476	9.26
430.681	9.23
430.886	9.19
431.09	9.31
431.295	9.36
431.5	9.37
431.705	9.32
431.91	9.14
432.115	9.23
432.32	9.18
432.524	9.26
432.729	9.19
432.934	9.38
433.139	9.5
433.343	9.59
433.548	9.51
433.753	9.65
433.958	9.92
434.162	10.05
434.367	10.18
434.572	10.19
434.776	10.26
434.981	10.35
435.186	10.4
435.39	10.29
435.595	10.25
435.799	10.41
436.004	10.32
436.209	10.29
436.413	10.36
436.618	10.18
436.822	10.24
437.027	10.23
437.231	10.1
437.436	10.06
437.64	10.13
437.845	10.07
438.049	10.07
438.253	10.11
438.458	10.04
438.662	9.97
438.867	10.01
439.071	10.02
439.275	10.02
439.48	10.08
439.684	10.15
439.888	10.17
440.093	10.1
440.297	9.96
440.501	9.92
440.706	9.83
440.91	9.86
441.114	9.89
441.318	9.91
441.523	9.83
441.727	9.83
441.931	9.69
442.135	9.67
442.339	9.76
442.543	9.93
442.748	10.02
442.952	10.17
443.156	10.13
443.36	10.05
443.564	10.06
443.768	10.11
443.972	10.17
444.176	10.25
444.38	10.14
444.584	10.01
444.788	9.93
444.992	9.86
445.196	9.76
445.4	9.88
445.604	9.94
445.808	9.91
446.012	9.91
446.216	9.82
446.42	9.84
446.624	9.88
446.828	10.02
447.032	10.03
447.235	10.1
447.439	10.18
447.643	10.12
447.847	10.08
448.051	10.07
448.254	10.1
448.458	10.19
448.662	10.2
448.866	10.2
449.069	10.23
449.273	10.33
449.477	10.29
449.681	10.19
449.884	10.14
450.088	10.21
450.292	10.24
450.495	10.15
450.699	10.09
450.902	10
451.106	9.97
451.31	9.88
451.513	9.75
451.717	9.6
451.92	9.67
452.124	9.49
452.327	9.36
452.531	9.31
452.734	9.36
452.938	9.5
453.141	9.52
453.345	9.5
453.548	9.48
453.752	9.54
453.955	9.67
454.158	9.56
454.362	9.71
454.565	9.58
454.769	9.63
454.972	9.56
455.175	9.43
455.379	9.39
455.582	9.55
455.785	9.57
455.988	9.45
456.192	9.44
456.395	9.44
456.598	9.43
456.801	9.88
457.005	9.92
457.208	9.93
457.411	9.74
457.614	9.78
457.817	9.61
458.021	9.61
458.224	9.64
458.427	9.63
458.63	9.73
458.833	9.77
459.036	9.57
459.239	9.6
459.442	9.69
459.645	9.87
459.848	9.9
460.051	9.9
460.254	9.85
460.457	9.92
460.66	9.95
460.863	10
461.066	10.02
461.269	10.02
461.472	9.99
461.675	9.92
461.878	9.83
462.081	9.74
462.284	9.72
462.486	9.71
462.689	9.57
462.892	9.57
463.095	9.47
463.298	9.37
463.5	9.42
463.703	9.49
463.906	9.37
464.109	9.21
464.311	9.23
464.514	9.35
464.717	9.5
464.92	9.62
465.122	9.57
465.325	9.59
465.528	9.73
465.73	9.76
465.933	9.73
466.135	9.84
466.338	9.93
466.541	10.01
466.743	10
466.946	9.92
467.148	9.95
467.351	9.9
467.553	9.85
467.756	9.67
467.958	9.58
468.161	9.54
468.363	9.6
468.566	9.6
468.768	9.53
468.971	9.52
469.173	9.59
469.375	9.44
469.578	9.55
469.78	9.59
469.983	9.63
470.185	9.68
470.387	9.72
470.59	9.67
470.792	9.69
470.994	9.75
471.196	9.84
471.399	9.69
471.601	9.71
471.803	9.72
472.005	9.73
472.208	9.79
472.41	9.74
472.612	9.68
472.814	9.67
473.016	9.83
473.218	9.76
473.421	9.72
473.623	9.72
473.825	9.62
474.027	9.54
474.229	9.56
474.431	9.44
474.633	9.64
474.835	9.61
475.037	9.7
475.239	9.66
475.441	9.73
475.643	9.78
475.845	9.83
476.047	10.03
476.249	10.14
476.451	10.03
476.653	10.27
476.855	10.21
477.057	10.33
477.258	10.26
477.46	10.15
477.662	10.22
477.864	10.2
478.066	10.3
478.268	10.23
478.469	10.15
478.671	10.16
478.873	10.03
479.075	10.05
479.276	9.93
479.478	10.02
479.68	10.11
479.882	10.11
480.083	10.08
480.285	10.09
480.487	10.17
480.688	10.21
480.89	10.23
481.091	10.27
481.293	10.24
481.495	10.33
481.696	10.28
481.898	10.24
482.099	10.18
482.301	10.25
482.502	10.25
482.704	10.21
482.905	10.25
483.107	10.31
483.308	10.3
483.51	10.28
483.711	10.25
483.913	10.27
484.114	10.31
484.315	10.38
484.517	10.35
484.718	10.38
484.92	10.38
485.121	10.37
485.322	10.34
485.524	10.34
485.725	10.39
485.926	10.43
486.127	10.48
486.329	10.44
486.53	10.41
486.731	10.42
486.932	10.38
487.134	10.43
487.335	10.44
487.536	10.48
487.737	10.48
487.938	10.48
488.139	10.45
488.341	10.38
488.542	10.4
488.743	10.42
488.944	10.4
489.145	10.47
489.346	10.44
489.547	10.42
489.748	10.38
489.949	10.4
490.15	10.43
490.351	10.42
490.552	10.45
490.753	10.43
490.954	10.41
491.155	10.41
491.356	10.37
491.557	10.38
491.758	10.39
491.959	10.4
492.159	10.39
492.36	10.35
492.561	10.33
492.762	10.32
492.963	10.38
493.164	10.37
493.364	10.42
493.565	10.42
493.766	10.41
493.967	10.36
494.167	10.3
494.368	10.28
494.569	10.29
494.769	10.37
494.97	10.46
495.171	10.48
495.371	10.47
495.572	10.51
495.773	10.54
495.973	10.58
496.174	10.66
496.375	10.73
496.575	10.68
496.776	10.68
496.976	10.73
497.177	10.61
497.377	10.5
497.578	10.54
497.778	10.45
497.979	10.36
498.179	10.3
498.38	10.22
498.58	10.15
498.78	10.28
498.981	10.29
499.181	10.18
499.382	10.13
499.582	10.21
499.782	10.26
499.983	10.24
500.183	10.28
500.383	10.34
500.584	10.33
500.784	10.39
500.984	10.36
501.184	10.4
501.385	10.47
501.585	10.56
501.785	10.37
501.985	10.28
502.185	10.32
502.386	10.27
502.586	10.22
502.786	10.33
502.986	10.34
503.186	10.25
503.386	10.22
503.586	10.21
503.786	10.25
503.987	10.48
504.187	10.63
504.387	10.63
504.587	10.81
504.787	10.79
504.987	10.77
505.187	10.78
505.387	10.92
505.587	10.98
505.786	11.02
505.986	11.05
506.186	11
506.386	10.83
506.586	10.78
506.786	10.88
506.986	10.85
507.186	10.88
507.386	10.97
507.585	10.85
507.785	10.77
507.985	10.82
508.185	10.9
508.384	10.92
508.584	11.03
508.784	11.12
508.984	11.05
509.183	11.14
509.383	11.17
509.583	11.2
509.782	11.28
509.982	11.45
510.182	11.35
510.381	11.38
510.581	11.41
510.781	11.35
510.98	11.35
511.18	11.32
511.379	11.4
511.579	11.38
511.778	11.26
511.978	11.2
512.177	11.12
512.377	11.17
512.576	11.15
512.776	11.12
512.975	11.03
513.175	11.13
513.374	11.1
513.573	11.1
513.773	11.09
513.972	11.09
514.172	11.27
514.371	11.28
514.57	11.28
514.77	11.24
514.969	11.37
515.168	11.52
515.367	11.35
515.567	11.41
515.766	11.4
515.965	11.47
516.164	11.59
516.364	11.51
516.563	11.49
516.762	11.59
516.961	11.63
517.16	11.54
517.359	11.58
517.559	11.68
517.758	11.71
517.957	11.72
518.156	11.71
518.355	11.74
518.554	11.82
518.753	11.89
518.952	11.91
519.151	11.93
519.35	11.99
519.549	12
519.748	11.98
519.947	12.02
520.146	11.97
520.345	12.02
520.544	12
520.743	12.02
520.942	12.07
521.141	12.09
521.339	12.08
521.538	12.14
521.737	12.28
521.936	12.36
522.135	12.38
522.333	12.43
522.532	12.5
522.731	12.48
522.93	12.49
523.129	12.45
523.327	12.47
523.526	12.55
523.725	12.56
523.923	12.47
524.122	12.44
524.321	12.54
524.519	12.73
524.718	12.72
524.917	12.74
525.115	12.73
525.314	12.84
525.512	12.84
525.711	12.84
525.909	12.85
526.108	12.91
526.306	12.94
526.505	12.99
526.703	12.96
526.902	13.02
527.1	13.09
527.299	13.08
527.497	13.09
527.696	13.14
527.894	13.17
528.092	13.22
528.291	13.25
528.489	13.29
528.688	13.25
528.886	13.29
529.084	13.3
529.283	13.33
529.481	13.41
529.679	13.39
529.877	13.42
530.076	13.5
530.274	13.47
530.472	13.47
530.67	13.55
530.869	13.67
531.067	13.7
531.265	13.77
531.463	13.83
531.661	13.9
531.859	14.04
532.057	14.01
532.255	14.05
532.454	14.17
532.652	14.22
532.85	14.24
533.048	14.27
533.246	14.26
533.444	14.28
533.642	14.24
533.84	14.21
534.038	14.18
534.236	14.24
534.434	14.18
534.632	14.29
534.83	14.38
535.027	14.47
535.225	14.52
535.423	14.66
535.621	14.71
535.819	14.9
536.017	14.97
536.215	15.04
536.412	15.12
536.61	15.33
536.808	15.35
537.006	15.32
537.203	15.31
537.401	15.4
537.599	15.44
537.797	15.49
537.994	15.51
538.192	15.66
538.39	15.82
538.587	15.94
538.785	15.97
538.983	16.05
539.18	16.25
539.378	16.31
539.575	16.38
539.773	16.57
539.97	16.79
540.168	16.9
540.366	16.95
540.563	17.04
540.761	17.14
540.958	17.22
541.155	17.32
541.353	17.36
541.55	17.48
541.748	17.52
541.945	17.49
542.143	17.5
542.34	17.58
542.537	17.66
542.735	17.7
542.932	17.77
543.129	17.87
543.327	17.96
543.524	18.2
543.721	18.4
543.919	18.66
544.116	19.02
544.313	19.32
544.51	19.68
544.708	20.05
544.905	20.4
545.102	20.75
545.299	21.02
545.496	21.23
545.693	21.32
545.891	21.34
546.088	21.31
546.285	21.27
546.482	21.07
546.679	20.92
546.876	20.77
547.073	20.47
547.27	20.25
547.467	20.03
547.664	19.87
547.861	19.75
548.058	19.62
548.255	19.51
548.452	19.44
548.649	19.44
548.846	19.3
549.043	19.23
549.24	19.23
549.437	19.15
549.633	19.06
549.83	18.89
550.027	18.73
550.224	18.87
550.421	18.86
550.618	18.72
550.814	18.74
551.011	18.58
551.208	18.4
551.405	18.46
551.601	18.36
551.798	18.36
551.995	18.34
552.191	18.28
552.388	18.1
552.585	18.1
552.781	17.95
552.978	17.88
553.175	17.94
553.371	17.87
553.568	17.8
553.764	17.69
553.961	17.67
554.157	17.77
554.354	17.76
554.55	17.63
554.747	17.53
554.943	17.45
555.14	17.45
555.336	17.33
555.533	17.54
555.729	17.49
555.926	17.7
556.122	17.7
556.318	17.67
556.515	17.69
556.711	17.87
556.907	17.92
557.104	17.96
557.3	17.91
557.496	17.94
557.693	17.85
557.889	17.93
558.085	17.93
558.281	17.91
558.478	17.89
558.674	17.83
558.87	17.72
559.066	17.75
559.262	17.87
559.459	17.94
559.655	17.96
559.851	17.94
560.047	17.82
560.243	17.78
560.439	17.67
560.635	17.69
560.831	17.72
561.027	17.77
561.223	17.73
561.419	17.82
561.615	17.73
561.811	17.82
562.007	17.88
562.203	17.75
562.399	17.8
562.595	17.85
562.791	17.77
562.987	17.73
563.183	17.7
563.379	17.72
563.575	17.69
563.771	17.76
563.966	17.72
564.162	17.74
564.358	17.87
564.554	17.78
564.75	17.85
564.945	17.88
565.141	17.99
565.337	18.07
565.533	17.97
565.728	17.83
565.924	17.88
566.12	17.94
566.315	17.82
566.511	17.95
566.707	17.96
566.902	17.9
567.098	18.02
567.293	18.01
567.489	17.95
567.684	18.01
567.88	18.16
568.076	18.04
568.271	18.14
568.467	18.23
568.662	18.19
568.858	18.34
569.053	18.48
569.248	18.44
569.444	18.37
569.639	18.36
569.835	18.44
570.03	18.37
570.225	18.46
570.421	18.38
570.616	18.49
570.812	18.49
571.007	18.54
571.202	18.35
571.397	18.32
571.593	18.51
571.788	18.53
571.983	18.54
572.178	18.6
572.374	18.57
572.569	18.52
572.764	18.51
572.959	18.38
573.154	18.26
573.35	18.49
573.545	18.56
573.74	18.36
573.935	18.45
574.13	18.53
574.325	18.57
574.52	18.69
574.715	18.84
574.91	18.88
575.105	19.22
575.3	19.45
575.495	19.46
575.69	19.53
575.885	19.76
576.08	19.86
576.275	19.91
576.47	20.02
576.665	20.11
576.86	20.23
577.055	20.37
577.25	20.26
577.444	20.26
577.639	20.42
577.834	20.52
578.029	20.68
578.224	20.81
578.418	20.87
578.613	20.95
578.808	21.08
579.003	21.1
579.197	21.04
579.392	21.13
579.587	21.12
579.781	21.16
579.976	21.18
580.171	21.05
580.365	20.96
580.56	20.92
580.755	20.92
580.949	20.73
581.144	20.59
581.338	20.7
581.533	20.9
581.727	20.91
581.922	20.85
582.116	20.84
582.311	20.84
582.505	21.05
582.7	21
582.894	21.07
583.089	21.16
583.283	21.17
583.478	21.09
583.672	20.94
583.866	20.99
584.061	20.93
584.255	20.91
584.449	20.94
584.644	20.97
584.838	21.3
585.032	21.23
585.226	21.34
585.421	21.32
585.615	21.55
585.809	21.6
586.003	21.71
586.198	21.93
586.392	22.06
586.586	22.21
586.78	22.08
586.974	22.03
587.168	22.02
587.363	21.87
587.557	21.8
587.751	21.68
587.945	21.64
588.139	21.65
588.333	21.38
588.527	21.35
588.721	21.21
588.915	21
589.109	20.83
589.303	20.77
589.497	21.05
589.691	21.19
589.885	21.21
590.079	21.18
590.273	20.91
590.466	21.21
590.66	21.03
590.854	21.15
591.048	21.32
591.242	21.39
591.436	21.44
591.629	21.46
591.823	21.61
592.017	21.64
592.211	21.75
592.404	21.92
592.598	21.76
592.792	21.86
592.986	21.87
593.179	22
593.373	22.15
593.567	22.25
593.76	22.22
593.954	22.09
594.147	21.95
594.341	21.74
594.535	21.8
594.728	21.66
594.922	21.65
595.115	21.45
595.309	21.24
595.502	21.09
595.696	20.97
595.889	20.83
596.083	20.78
596.276	20.93
596.47	21.02
596.663	20.91
596.856	20.95
597.05	21
597.243	21.12
597.437	21.23
597.63	21.35
597.823	21.48
598.017	21.72
598.21	21.87
598.403	21.7
598.596	21.8
598.79	21.92
598.983	21.98
599.176	22.05
599.369	22.01
599.563	21.99
599.756	21.87
599.949	21.83
600.142	21.28
600.335	21.08
600.528	21.15
600.722	21.02
600.915	21.02
601.108	20.88
601.301	20.68
601.494	20.59
601.687	20.58
601.88	20.51
602.073	20.44
602.266	20.74
602.459	20.87
602.652	20.82
602.845	20.71
603.038	20.61
603.231	20.67
603.424	20.74
603.617	20.75
603.809	20.82
604.002	20.81
604.195	20.79
604.388	20.82
604.581	20.77
604.774	20.74
604.966	21.03
605.159	21.04
605.352	21.03
605.545	21.08
605.737	21.17
605.93	21.16
606.123	21.42
606.316	21.45
606.508	21.46
606.701	21.74
606.894	22.07
607.086	22.01
607.279	22.29
607.471	22.66
607.664	22.95
607.857	23.49
608.049	23.96
608.242	24.46
608.434	25.59
608.627	26.61
608.819	27.79
609.012	29.23
609.204	31.13
609.397	33
609.589	34.9
609.782	37.17
609.974	39.12
610.166	41.38
610.359	43.53
610.551	45.2
610.743	46.9
610.936	48.22
611.128	49.31
611.32	49.86
611.513	49.97
611.705	49.89
611.897	49.25
612.09	48.64
612.282	47.8
612.474	46.59
612.666	45.7
612.858	44.58
613.051	43.64
613.243	42.36
613.435	41.4
613.627	40.68
613.819	39.83
614.011	39.06
614.203	38.3
614.395	37.31
614.588	36.48
614.78	35.61
614.972	34.66
615.164	33.35
615.356	32.72
615.548	31.54
615.74	30.6
615.932	29.63
616.124	28.94
616.315	28.44
616.507	27.78
616.699	27.19
616.891	26.34
617.083	25.87
617.275	25.78
617.467	25.39
617.659	25.23
617.85	24.99
618.042	25.02
618.234	24.67
618.426	24.14
618.618	23.81
618.809	23.84
619.001	23.97
619.193	23.9
619.384	23.56
619.576	23.56
619.768	23.63
619.959	23.5
620.151	23.64
620.343	23.95
620.534	24.04
620.726	24.32
620.917	24.38
621.109	24.28
621.301	24.24
621.492	24.52
621.684	24.33
621.875	24.33
622.067	24.14
622.258	23.79
622.45	23.56
622.641	23.7
622.832	23.69
623.024	23.83
623.215	23.99
623.407	24.26
623.598	24.2
623.789	24.32
623.981	24.44
624.172	24.8
624.363	25.04
624.555	25.04
624.746	25.11
624.937	25.02
625.129	24.86
625.32	24.86
625.511	24.81
625.702	24.79
625.893	24.66
626.085	24.83
626.276	24.89
626.467	24.89
626.658	24.74
626.849	24.65
627.04	24.86
627.231	24.7
627.422	24.69
627.614	24.57
627.805	24.75
627.996	24.95
628.187	24.71
628.378	24.76
628.569	24.79
628.76	25.4
628.951	25.6
629.142	25.57
629.332	25.87
629.523	26.15
629.714	26.39
629.905	26.54
630.096	26.73
630.287	26.89
630.478	26.96
630.669	27.12
630.859	26.55
631.05	26.48
631.241	26.32
631.432	26.11
631.623	25.7
631.813	25.3
632.004	25.12
632.195	24.74
632.385	24.34
632.576	24.06
632.767	23.75
632.957	23.63
633.148	23.22
633.339	22.76
633.529	22.59
633.72	22.62
633.91	22.73
634.101	22.28
634.292	22.25
634.482	22.14
634.673	21.84
634.863	21.78
635.054	21.85
635.244	22.01
635.435	22.54
635.625	22.57
635.815	22.28
636.006	22.27
636.196	22.11
636.387	21.88
636.577	21.89
636.767	22.03
636.958	21.87
637.148	21.74
637.338	21.56
637.529	21.3
637.719	20.98
637.909	21.1
638.099	21.12
638.29	21.19
638.48	21.12
638.67	21.19
638.86	21.18
639.05	21.2
639.241	21.28
639.431	21.26
639.621	21.05
639.811	21.71
640.001	21.8
640.191	21.64
640.381	21.72
640.571	21.98
640.761	22
640.951	21.85
641.141	21.9
641.331	22.11
641.521	22.13
641.711	22.25
641.901	21.79
642.091	21.77
642.281	21.93
642.471	22.12
642.661	22.09
642.851	22.37
643.041	22.65
643.231	22.86
643.42	22.63
643.61	22.68
643.8	22.7
643.99	22.94
644.18	22.63
644.369	22.59
644.559	22.7
644.749	22.43
644.939	22.24
645.128	22.17
645.318	22.01
645.508	22.27
645.697	22.53
645.887	22.61
646.076	22.35
646.266	22.48
646.456	22.52
646.645	22.44
646.835	22.61
647.024	22.49
647.214	22.79
647.403	23.01
647.593	23
647.782	23.09
647.972	23.11
648.161	23.48
648.351	23.77
648.54	23.7
648.73	23.51
648.919	23.94
649.108	23.98
649.298	23.73
649.487	23.75
649.677	23.73
649.866	23.72
650.055	23.69
650.244	23.5
650.434	23.68
650.623	23.74
650.812	24.14
651.002	23.95
651.191	24
651.38	23.88
651.569	23.74
651.758	23.68
651.947	23.58
652.137	23.74
652.326	23.99
652.515	23.92
652.704	23.97
652.893	23.78
653.082	23.4
653.271	23.48
653.46	23.63
653.649	23.54
653.838	23.67
654.027	23.72
654.216	23.63
654.405	23.24
654.594	22.74
654.783	22.53
654.972	22.52
655.161	22.84
655.35	22.51
655.539	22.44
655.728	22.21
655.916	21.87
656.105	21.7
656.294	21.67
656.483	22
656.672	22.28
656.86	22.27
657.049	22.39
657.238	22.49
657.427	22.64
657.615	22.75
657.804	22.94
657.993	22.92
658.181	22.61
658.37	22.64
658.559	22.57
658.747	22.43
658.936	22.69
659.125	22.64
659.313	22.63
659.502	22.87
659.69	22.84
659.879	22.87
660.067	22.93
660.256	23.22
660.444	23.21
660.633	23.24
660.821	23.25
661.01	23.16
661.198	23.28
661.387	23.22
661.575	23.17
661.763	23.42
661.952	23.38
662.14	23.65
662.328	23.75
662.517	23.69
662.705	23.44
662.893	23.86
663.082	23.91
663.27	23.76
663.458	23.68
663.646	23.5
663.834	23.17
664.023	23.3
664.211	23.02
664.399	23.02
664.587	23.23
664.775	23.19
664.963	22.89
665.152	22.98
665.34	23.29
665.528	23.45
665.716	23.9
665.904	23.69
666.092	23.43
666.28	23.45
666.468	23.27
666.656	23.33
666.844	23.72
667.032	23.64
667.22	23.66
667.408	23.31
667.596	23.37
667.784	22.75
667.971	22.73
668.159	22.85
668.347	22.68
668.535	22.65
668.723	22.69
668.911	22.63
669.098	22.8
669.286	23.07
669.474	22.9
669.662	23.03
669.849	23.32
670.037	23.51
670.225	23.65
670.413	24.03
670.6	24.39
670.788	24.27
670.976	24.02
671.163	23.84
671.351	23.43
671.538	23.49
671.726	23.24
671.913	23.32
672.101	23.42
672.289	23.3
672.476	22.93
672.664	22.94
672.851	22.89
673.039	22.9
673.226	23.02
673.413	22.87
673.601	22.85
673.788	22.68
673.976	22.51
674.163	22.64
674.35	22.7
674.538	22.83
674.725	22.35
674.912	22.83
675.1	23.23
675.287	23.38
675.474	23.3
675.662	23.57
675.849	23.49
676.036	23.48
676.223	23.52
676.411	23.57
676.598	23.74
676.785	23.82
676.972	23.43
677.159	23.25
677.346	22.99
677.533	23.28
677.721	23.25
677.908	23.43
678.095	23.37
678.282	23.51
678.469	23.53
678.656	23.35
678.843	23.57
679.03	23.71
679.217	23.64
679.404	23.82
679.591	23.58
679.778	23.66
679.964	23.65
680.151	24.01
680.338	23.86
680.525	23.7
680.712	23.76
680.899	24.09
681.086	23.98
681.272	24.1
681.459	24
681.646	24.22
681.833	24.11
682.02	24.23
682.206	23.85
682.393	23.65
682.58	23.76
682.766	23.8
682.953	23.25
683.14	23.14
683.326	22.84
683.513	22.76
683.7	22.66
683.886	22.54
684.073	22.43
684.259	22.54
684.446	22.21
684.632	22.1
684.819	22.33
685.005	22.63
685.192	22.81
685.378	23.24
685.565	23.38
685.751	23.37
685.938	23.57
686.124	23.84
686.31	24.12
686.497	24.97
686.683	25.21
686.87	25.12
687.056	25.21
687.242	25.4
687.429	25.07
687.615	25.45
687.801	25.6
687.987	25.43
688.174	25.4
688.36	25.61
688.546	25.3
688.732	25.37
688.918	25.03
689.105	25.08
689.291	24.6
689.477	24.75
689.663	24.35
689.849	24.22
690.035	24.44
690.221	24.05
690.407	23.48
690.593	23.35
690.779	22.99
690.965	23.32
691.151	22.82
691.337	22.71
691.523	22.84
691.709	22.93
691.895	23.01
692.081	23.08
692.267	23.13
692.453	23.62
692.639	23.42
692.825	23.6
693.011	23.68
693.196	24.12
693.382	23.82
693.568	23.91
693.754	23.93
693.94	23.82
694.125	23.98
694.311	23.9
694.497	23.72
694.682	24.18
694.868	24.19
695.054	24.03
695.239	23.91
695.425	24.66
695.611	24.61
695.796	24.75
695.982	24.8
696.168	24.24
696.353	24.46
696.539	24.31
696.724	24.28
696.91	24.46
697.095	24.27
697.281	24.29
697.466	23.98
697.652	23.71
697.837	23.57
698.023	23.34
698.208	23.38
698.393	23.21
698.579	23.16
698.764	23.02
698.949	22.76
699.135	22.93
699.32	22.88
699.505	23.02
699.691	23.26
699.876	23.26
700.061	23.52
700.246	23.53
700.432	23.41
700.617	23.5
700.802	23.72
700.987	23.81
701.172	23.8
701.358	23.78
701.543	23.21
701.728	23.25
701.913	23.35
702.098	23.39
702.283	23.25
702.468	23.22
702.653	23.07
702.838	23.27
703.023	23.46
703.208	23.46
703.393	23.41
703.578	24.47
703.763	24.29
703.948	24.67
704.133	25.07
704.318	25.86
704.503	27.19
704.688	28.05
704.873	28
705.057	28.46
705.242	29.02
705.427	29.37
705.612	29.81
705.797	30.94
705.981	31.64
706.166	31.98
706.351	32.04
706.536	32.45
706.72	32.37
706.905	32.8
707.09	33.18
707.274	33.19
707.459	32.79
707.644	32.56
707.828	31.96
708.013	31.45
708.197	31.19
708.382	31.31
708.567	30.95
708.751	30.74
708.936	30.33
709.12	30.01
709.305	30.07
709.489	30.85
709.673	30.92
709.858	30.79
710.042	30.57
710.227	30.99
710.411	31.13
710.596	30.51
710.78	30.74
710.964	31.59
711.149	31.99
711.333	31.79
711.517	31.32
711.702	31.5
711.886	31.28
712.07	31.07
712.254	30.15
712.438	29.44
712.623	29.41
712.807	29.01
712.991	27.81
713.175	27.01
713.359	26.47
713.544	26.41
713.728	25.5
713.912	24.79
714.096	24.89
714.28	24.41
714.464	24.34
714.648	24.2
714.832	23.95
715.016	23.87
715.2	23.62
715.384	23.85
715.568	23.52
715.752	23.58
715.936	24.05
716.12	23.4
716.304	23.67
716.488	23.76
716.671	23.13
716.855	23.03
717.039	23.04
717.223	22.99
717.407	22.49
717.59	22.91
717.774	22.86
717.958	22.85
718.142	23.15
718.325	22.83
718.509	22.53
718.693	22.73
718.877	22.36
719.06	22.34
719.244	22.63
719.428	23.37
719.611	22.6
719.795	22.6
719.978	23.18
720.162	23.54
720.345	24.41
720.529	24.27
720.713	24.4
720.896	24.37
721.08	23.95
721.263	23.77
721.446	23.28
721.63	23.76
721.813	23.8
721.997	22.92
722.18	21.64
722.364	21.07
722.547	21.14
722.73	21.12
722.914	21.38
723.097	21.8
723.28	21.53
723.464	21.04
723.647	20.45
723.83	20.19
724.013	20.1
724.197	21.44
724.38	21.4
724.563	21.14
724.746	22.08
724.929	22.99
725.112	22.95
725.296	22.98
725.479	23.46
725.662	23.41
725.845	23.44
726.028	23.41
726.211	23.02
726.394	23
726.577	22.96
726.76	22.53
726.943	21.85
727.126	21.88
727.309	21.93
727.492	21.78
727.675	22
727.858	22.09
728.041	22.59
728.224	23.04
728.407	23.41
728.589	24.25
728.772	23.54
728.955	23.26
729.138	23.04
729.321	22.88
729.503	23.23
729.686	23.32
729.869	23.51
730.052	22.63
730.234	21.71
730.417	21.5
730.6	20.62
730.782	21.11
730.965	21.26
731.148	21.68
731.33	21.8
731.513	21.45
731.695	21.44
731.878	21.28
732.061	21.69
732.243	22.3
732.426	22.29
732.608	22.84
732.791	22.49
732.973	22.78
733.156	23.23
733.338	23.15
733.52	23.24
733.703	23.41
733.885	23.94
734.068	24.26
734.25	23.66
734.432	23.66
734.615	23.85
734.797	24.2
734.979	23.81
735.162	22.95
735.344	23.74
735.526	23.85
735.708	23.89
735.891	23.38
736.073	23.16
736.255	23.7
736.437	23.51
736.619	23.53
736.802	23.68
736.984	23.67
737.166	23.69
737.348	23.24
737.53	22.71
737.712	22.5
737.894	23.34
738.076	23.69
738.258	23.88
738.44	23.49
738.622	23.42
738.804	23.7
738.986	24.49
739.168	24.33
739.35	23.72
739.532	24.13
739.714	24.35
739.896	23.61
740.078	23.78
740.259	23.35
740.441	23.8
740.623	23.51
740.805	23.06
740.987	22.31
741.168	22.55
741.35	23.04
741.532	22.91
741.714	22.81
741.895	22.54
742.077	22.36
742.259	22.81
742.44	23.33
742.622	22.88
742.804	23.42
742.985	22.97
743.167	23.01
743.348	23.6
743.53	24.08
743.711	24.04
743.893	25.03
744.075	24.74
744.256	24.82
744.438	24.32
744.619	24.77
744.8	24.12
744.982	25.07
745.163	25.31
745.345	24.7
745.526	24.6
745.707	24.76
745.889	23.79
746.07	24.05
746.252	23.35
746.433	23.6
746.614	23.55
746.795	24.82
746.977	24.83
747.158	25.37
747.339	25.37
747.52	25.57
747.702	25.73
747.883	25.86
748.064	25.6
748.245	24.72
748.426	25.13
748.607	25.27
748.788	24.49
748.97	24.19
749.151	22.49
749.332	22.62
749.513	21.94
749.694	21.75
749.875	21.33
750.056	21.96
750.237	23.32
750.418	22.98
750.599	23.29
750.78	22.93
750.96	22.75
751.141	22.95
751.322	22.85
751.503	24.13
751.684	23.5
751.865	23.92
752.046	23.43
752.226	22.93
752.407	22.86
752.588	22.47
752.769	22.18
752.949	22.22
753.13	23.27
753.311	22.95
753.492	21.17
753.672	21.72
753.853	21.59
754.034	21.16
754.214	21.12
754.395	21.46
754.575	21.63
754.756	21.81
754.937	21.82
755.117	21.23
755.298	21.03
755.478	21.05
755.659	20.76
755.839	20.48
756.02	20.72
756.2	21.21
756.381	20
756.561	20.06
756.741	21.03
756.922	21.21
757.102	20.65
757.283	20.9
757.463	21.65
757.643	22.62
757.823	22.66
758.004	22.54
758.184	21.33
758.364	21.3
758.545	21.05
758.725	20.07
758.905	20.59
759.085	20.98
759.265	20.47
759.446	20.28
759.626	19.96
759.806	19.77
759.986	19.51
760.166	20.69
760.346	20.83
760.526	21.39
760.706	21.57
760.886	20.87
761.066	21.27
761.246	21.95
761.426	21.96
761.606	22.11
761.786	21.57
761.966	21.35
762.146	20.57
762.326	21.13
762.506	20.7
762.686	21.24
762.866	21.19
763.046	21.09
763.225	20.93
763.405	21.18
763.585	20.87
763.765	21.09
763.945	21.3
764.124	22.26
764.304	22.16
764.484	22.28
764.664	21.5
764.843	22.05
765.023	22.36
765.203	22.55
765.382	23.02
765.562	23.79
765.741	24.39
765.921	25.25
766.101	24.84
766.28	25.2
766.46	25.02
766.639	25.83
766.819	25.18
766.998	24.29
767.178	23.55
767.357	22.91
767.537	21.75
767.716	21.73
767.896	20.38
768.075	21.2
768.254	20.12
768.434	20.44
768.613	19.43
768.792	18.92
768.972	19.36
769.151	19.43
769.33	18.95
769.51	19.93
769.689	19.4
769.868	20.4
770.047	18.79
770.226	20.07
770.406	19.37
770.585	20.05
770.764	21
770.943	21.52
771.122	22.78
771.301	23.12
771.48	21.6
771.66	21.94
771.839	21.93
772.018	23.14
772.197	22.14
772.376	22.71
772.555	23.09
772.734	22.05
772.913	21.23
773.092	21.24
773.271	21.58
773.449	22.34
773.628	22.61
773.807	21.67
773.986	20.28
774.165	21.59
774.344	21.86
774.523	21.14
774.701	22.23
774.88	21.62
775.059	21.01
775.238	20.2
775.417	20.48
775.595	20.94
775.774	22.52
775.953	23.21
776.131	21.67
776.31	21.48
776.489	21.25
776.667	21.7
776.846	22.49
777.025	22.36
777.203	23.02
777.382	23.03
777.56	22.08
777.739	21.76
777.917	21.37
778.096	21.72
778.274	21.97
778.453	21.73
778.631	20.99
778.81	21.36
778.988	21.18
779.166	20.2
779.345	20.79
779.523	20.54
779.702	19.48
779.88	19.93
780.058	19.33
780.237	18.04
780.415	20.2
780.593	19.34
780.771	18.77
780.95	19.96
781.128	21.16
781.306	20.19
781.484	20.76
781.662	21.15
781.841	21.01
782.019	21.46
782.197	23.8
782.375	21.61
782.553	21.9
782.731	21.39
782.909	21.03
783.087	19.56
783.265	20.23
783.443	20.19
783.621	19.57
783.799	19.26
783.977	19.09
784.155	17.42
784.333	18.6
784.511	18.24
784.689	18.4
784.867	17.09
785.045	18.85
785.223	18.17
785.4	17.62
785.578	18.49
785.756	18.1
785.934	18.74
786.112	19.75
786.289	18.9
786.467	21.16
786.645	22.2
786.823	23.82
787	23.61
787.178	23.19
787.356	24.01
787.533	23.54
787.711	23.97
787.889	23.37
788.066	21.86
788.244	22.69
788.421	20.41
788.599	19.56
788.776	19.01
788.954	18.62
789.131	18.13
789.309	16.88
789.486	16.96
789.664	17.65
789.841	16.92
790.019	17.54
790.196	16.54
790.373	17.84
790.551	19.17
790.728	18.41
790.906	17.99
791.083	19.14
791.26	19.83
791.437	18.65
791.615	17.64
791.792	17.55
791.969	18.64
792.146	18.38
792.324	17.96
792.501	17.01
792.678	17.73
792.855	17.59
793.032	16.99
793.209	17.82
793.387	18.6
793.564	18.44
793.741	20.68
793.918	21.5
794.095	23.1
794.272	22.66
794.449	22.54
794.626	21.21
794.803	21.66
794.98	22.06
795.157	20.03
795.334	20.41
795.511	20.54
795.688	20.31
795.864	18.7
796.041	16.56
796.218	17.67
796.395	17.73
796.572	18.46
796.749	17.81
796.925	18.47
797.102	19.25
797.279	18.84
797.456	19.99
797.632	18.59
797.809	18.77
797.986	20.26
798.162	19.95
798.339	20.52
798.516	20.82
798.692	21.78
798.869	20.69
799.046	19.4
799.222	21.21
799.399	21.9
799.575	22.3
799.752	21.29
799.928	21.51
800.105	20.94
800.281	19.17
800.458	19.58
800.634	19.3
800.811	20.62
800.987	22.69
801.163	21.87
801.34	19.15
801.516	19.57
801.692	19.5
801.869	18.64
802.045	20.03
802.221	21.24
802.398	20.95
802.574	21.13
802.75	18.9
802.926	17.97
803.103	17.22
803.279	17.31
803.455	17.75
803.631	18.4
803.807	18.53
803.983	17.53
804.16	19.42
804.336	18.71
804.512	18.01
804.688	19.79
804.864	21.18
805.04	21.99
805.216	21.54
805.392	20.63
805.568	18.76
805.744	18.87
805.92	17.72
806.096	16.47
806.272	15.1
806.448	15.89
806.623	13.67
806.799	12.75
806.975	10.35
807.151	10.67
807.327	11.55
807.503	11.17
807.678	11.98
807.854	13.05
808.03	10.66
808.206	13.64
808.381	12.11
808.557	15.14
808.733	12.72
808.908	15.55
809.084	14.97
809.26	14.24
809.435	14.58
809.611	14.59
809.787	15.41
809.962	17.95
810.138	16.69
810.313	18.1
810.489	18.29
810.664	20.97
810.84	18.97
811.015	18.93
811.191	19.75
811.366	21.86
811.542	20.32
811.717	20.81
811.892	18.09
812.068	17.2
812.243	14.68
812.419	12.33
812.594	11.15
812.769	10.18
812.944	11.13
813.12	8.38
813.295	8.41
813.47	9.1
813.645	5.44
813.821	5.77
813.996	6.98
814.171	10
814.346	10.6
814.521	10.87
814.697	13.23
814.872	15.04
815.047	16.2
815.222	18.22
815.397	17.49
815.572	19.11
815.747	20.11
815.922	18.79
816.097	17.98
816.272	18.88
816.447	18.57
816.622	17.18
816.797	17.27
816.972	18.26
817.147	16.74
817.322	16.84
817.496	16.61
817.671	17.32
817.846	16.31
818.021	14.92
818.196	12.58
818.371	12.97
818.545	13.52
818.72	14.28
818.895	14.19
819.069	12.77
819.244	14.02
819.419	14.81
819.594	13.87
819.768	15.41
819.943	16.28
820.117	18.04
820.292	18.98
820.467	19.43
820.641	18.4
820.816	18.66
820.99	20
821.165	19.89
821.339	19.65
821.514	19.93
821.688	20.04
821.863	20.55
822.037	20.57
822.212	20.19
822.386	20.3
822.56	20.39
822.735	20.32
822.909	19.97
823.084	20.1
823.258	20.09
823.432	20.1
823.606	20.2
823.781	20.01
823.955	20.03
824.129	20.24
824.303	20.22
824.478	20.24
824.652	20.08
824.826	19.67
825	19.44
825.174	19.73
825.348	19.77
825.523	19.73
825.697	18.75
825.871	18.73
826.045	18.45
826.219	17.77
826.393	18.16
826.567	19.25
826.741	19.65
826.915	19.29
827.089	19.45
827.263	19.34
827.437	18.86
827.611	19.64
827.784	19.8
827.958	19.94
828.132	20.04
828.306	19.56
828.48	19.63
828.654	19.32
828.827	18.51
829.001	17.09
829.175	16.7
829.349	17.76
829.522	17.55
829.696	16.77
829.87	16.62
830.044	17.51
830.217	17.89
830.391	14.8
830.565	16.35
830.738	18.12
830.912	19.12
831.085	18.25
831.259	17.31
831.432	17.1
831.606	16.63
831.779	16.79
831.953	16.3
832.126	16.37
832.3	17.01
832.473	16.27
832.647	18.84
832.82	19.4
832.994	20.22
833.167	19.62
833.34	19.13
833.514	18.88
833.687	17.94
833.86	17.95
834.034	17.41
834.207	17.35
834.38	17.89
834.553	15.94
834.727	15.39
834.9	14.65
835.073	14.99
835.246	14.51
835.419	14.26
835.593	14.62
835.766	13.48
835.939	14.05
836.112	15.11
836.285	13.22
836.458	12.9
836.631	13.38
836.804	14.95
836.977	14.28
837.15	17.37
837.323	19.36
837.496	20.91
837.669	19.5
837.842	18.34
838.015	16.63
838.188	16.63
838.361	17
838.533	15.98
838.706	13.81
838.879	13.04
839.052	8.32
839.225	6.51
839.398	4.32
839.57	6.19
839.743	3.47
839.916	5.65
840.088	9.35
840.261	10.78
840.434	10.37
840.607	14.28
840.779	13.48
840.952	12.01
841.124	11.42
841.297	12.46
841.47	15.02
841.642	16.03
841.815	16.54
841.987	15.93
842.16	13.31
842.332	16.21
842.505	11.99
842.677	13.18
842.85	13.79
843.022	20
843.194	22.13
843.367	21.52
843.539	24.86
843.712	21.26
843.884	14.73
844.056	13.62
844.229	10.05
844.401	15.13
844.573	13.82
844.745	15.22
844.918	4.93
845.09	-0.86
845.262	0.21
845.434	1.67
845.606	5.98
845.779	15.35
845.951	17.28
846.123	13.26
846.295	7.94
846.467	9.56
846.639	13.19
846.811	18.69
846.983	19.85
847.155	19.78
847.327	12.83
847.499	8.51
847.671	-5.42
847.843	0.08
848.015	6.31
848.187	5.21
848.359	8.95
848.531	3.87
848.703	1.26
848.875	1.34
849.047	0.08
849.218	3.99
849.39	4.87
849.562	15.08
849.734	8.49
849.905	6.53
850.077	6.46
850.249	2.54
850.421	8.08
850.592	10.22
850.764	12.7
850.936	12.71
851.107	10.77
851.279	9.35
851.451	7.08
851.622	13.12
851.794	15.37
851.965	18.05
852.137	13.25
852.308	12.92
852.48	14.49
852.651	14.64
852.823	15.99
852.994	12.19
853.166	12.63
853.337	11
853.509	12.44
853.68	12.1
853.851	9.83
854.023	14.21
854.194	15.66
854.365	12.01
854.537	9.29
854.708	5.9
854.879	13.42
855.05	19.61
855.222	18.93
855.393	18.6
855.564	24.1
855.735	24.79
855.906	21.42
856.078	15.32
856.249	12.87
856.42	8.45
856.591	9.13
856.762	10.88
856.933	5.73
857.104	6.37
857.275	2.96
857.446	-3.55
857.617	-2.16
857.788	2.97
857.959	12.99
858.13	17.01
858.301	32.15
858.472	34.26
858.643	33.77
858.814	37.11
858.985	35.35
859.155	42.53
859.326	40.11
859.497	37.25
859.668	34.18
859.839	34.52
860.009	35.76
860.18	26.03
860.351	20.58
860.522	23.36
860.692	19.37
860.863	21.44
861.034	15.31
861.204	8.52
861.375	3.4
861.546	5.02
861.716	-2.81
861.887	-5.58
862.057	0.58
862.228	9.05
862.398	0.25
862.569	-6.47
862.739	-15.64
862.91	-26.86
863.08	-20.11
863.251	-12.34
863.421	0.21
863.592	10.33
863.762	8.37
863.932	3.9
864.103	-0.78
864.273	2.34
864.443	4.05
864.614	11.88
864.784	26.67
864.954	26.29
865.125	21.46
865.295	13.97
865.465	8.26
865.635	10.85
865.805	15.85
865.976	17.3
866.146	13.77
866.316	23.57
866.486	23.02
866.656	20.05
866.826	18.49
866.996	14.87
867.166	12.93
867.336	16.83
867.506	16.45
867.676	11.58
867.846	5.36
868.016	9.73
868.186	2.93
868.356	-3.3
868.526	-24.07
868.696	-18.09
868.866	-11.86
869.036	1.1
869.206	-0.66
869.376	-1.33
869.545	4.81
869.715	6.33
869.885	2.97
870.055	5.22
870.224	3.75
870.394	14.29
870.564	22.45
870.734	26.16
870.903	14.73
871.073	17.62
871.243	5.75
871.412	4.06
871.582	6.2
871.751	15.52
871.921	19.78
872.091	25.66
872.26	20.12
872.43	17.83
872.599	13.36
872.769	23.69
872.938	26.91
873.108	35.66
873.277	30.76
873.446	26.59
873.616	27.27
873.785	25.79
873.955	22.46
874.124	24.54
874.293	19.09
874.463	19.18
874.632	14.7
874.801	7.41
874.971	3.63
875.14	1.39
875.309	5.03
875.478	1.38
875.647	0.41
875.817	0.54
875.986	3.13
876.155	2.15
876.324	-0.91
876.493	7.18
876.662	-13.7
876.831	-3.43
877	0.64
877.17	9.78
877.339	9.89
877.508	6.91
877.677	13.31
877.846	6.87
878.015	14.25
878.184	18.28
878.352	14.22
878.521	19.83
878.69	8.31
878.859	14
879.028	9.64
879.197	12.86
879.366	10.92
879.534	8.77
879.703	9.41
879.872	7.71
880.041	6.78
880.21	6.6
880.378	6.8
880.547	10.1
880.716	8.05
880.884	10.59
881.053	8.87
881.222	10.76
881.39	11.12
881.559	11.15
881.727	11.87
881.896	11.49
882.065	12.23
882.233	13.3
882.402	12.97
882.57	13.79
882.739	14.42
882.907	15.22
883.076	14.44
883.244	14.89
883.412	16.11
883.581	16.43
883.749	17.31
883.918	16.55
884.086	16.62
884.254	17.65
884.423	16.68
884.591	13.99
884.759	12.63
884.927	13.6
885.096	14.61
885.264	13.79
885.432	13.19
885.6	11.78
885.769	10.91
885.937	9.74
886.105	7.01
886.273	10.64
886.441	14.69
886.609	16.93
886.777	12.93
886.945	10.36
887.113	5.16
887.281	2.69
887.449	4.71
887.617	4.49
887.785	0.7
887.953	4.52
888.121	1.22
888.289	-4.09
888.457	0.37
888.625	6.85
888.793	4.3
888.961	4.25
889.129	-0.26
889.296	-6.45
889.464	-5.01
889.632	1.85
889.8	-5.92
889.967	-10.53
890.135	-6.84
