Data from 2938803__Reflection_02.txt Node
Date: Thu Mar 12 22:31:49 EDT 2015
User: robert
Spectrometer: USB4E03002
Autoset integration time: false
Trigger mode: 4
Integration Time (sec): 1.000000E-1
Scans to average: 10
Electric dark correction enabled: false
Nonlinearity correction enabled: false
Boxcar width: 5
Stray light correction enabled: false
XAxis mode: Wavelengths
Stop averaging: false
Number of Pixels in Spectrum: 3648
>>>>>Begin Spectral Data<<<<<
177.575	7.25
177.794	70.24
178.014	-5
178.233	51.27
178.452	-86.08
178.672	-78.34
178.891	-182.76
179.11	-40.6
179.33	-117.39
179.549	-87.87
179.768	-86.67
179.987	-96.26
180.207	-212.6
180.426	-112.5
180.645	-75.23
180.864	-58.91
181.084	-68.23
181.303	-95.57
181.522	-541.3
181.741	-894.92
181.96	-317.95
182.179	-237.86
182.398	-216.67
182.618	-139.01
182.837	-169.01
183.056	-1014.29
183.275	-666.67
183.494	-1302.86
183.713	-709.8
183.932	-130.51
184.151	-27.71
184.37	-284.21
184.589	-159.09
184.808	72.84
185.027	-975
185.246	-66.67
185.465	23.48
185.684	38.03
185.903	35
186.122	52.54
186.341	-8.51
186.56	-43.43
186.779	-17.37
186.998	24.64
187.216	50.75
187.435	55.19
187.654	64.21
187.873	97.27
188.092	104.45
188.311	121.56
188.53	2271.43
188.748	-1629.41
188.967	416.67
189.186	165.94
189.405	244.12
189.623	240
189.842	396.87
190.061	244.37
190.28	84.39
190.498	175.84
190.717	137.17
190.936	73.03
191.154	92.56
191.373	102.16
191.592	131.58
191.81	158.3
192.029	198.05
192.248	182.05
192.466	119.05
192.685	-112.9
192.904	74.07
193.122	1600
193.341	-110.87
193.559	-58.33
193.778	36.02
193.996	-285.71
194.215	8.47
194.433	3.33
194.652	189.36
194.87	-9.72
195.089	132.04
195.307	108.66
195.526	226.32
195.744	-328.57
195.963	-199.5
196.181	-234.81
196.399	-2889.47
196.618	-1070.21
196.836	-1863.89
197.055	300.44
197.273	281.62
197.491	538.14
197.71	7312.5
197.928	211.96
198.146	158.19
198.365	196.15
198.583	498.72
198.801	374.12
199.019	-94.93
199.238	116.67
199.456	-38.24
199.674	-258.33
199.892	402.33
200.111	142.86
200.329	-153.73
200.547	-990
200.765	630.23
200.983	164.91
201.202	163.64
201.42	131.16
201.638	224.08
201.856	212.37
202.074	197.14
202.292	107.18
202.51	152.21
202.728	142.56
202.946	156.42
203.165	87.65
203.383	119.61
203.601	125.95
203.819	112.07
204.037	-95.45
204.255	80.95
204.473	74.16
204.691	-3140
204.909	84.73
205.127	76.79
205.345	55.58
205.562	93.67
205.78	90.37
205.998	95.1
206.216	97.82
206.434	88.14
206.652	97.22
206.87	86.46
207.088	74.96
207.306	76.44
207.523	140.61
207.741	118.88
207.959	135.05
208.177	307.97
208.395	222.94
208.612	168.64
208.83	114.72
209.048	111.27
209.266	80.37
209.483	103.47
209.701	94.92
209.919	83
210.136	84.37
210.354	85.98
210.572	70.7
210.79	85.04
211.007	83.42
211.225	80.79
211.442	83.37
211.66	116.04
211.878	93.97
212.095	26.9
212.313	26.72
212.53	0
212.748	1.32
212.966	1.77
213.183	-32.81
213.401	-39.13
213.618	-49.81
213.836	-41.25
214.053	-82.52
214.271	-139.4
214.488	19.96
214.705	19.2
214.923	34.94
215.14	26.34
215.358	18.43
215.575	35.93
215.793	27.87
216.01	32.43
216.227	18.6
216.445	16.3
216.662	17.03
216.879	24.69
217.097	-9.41
217.314	5.58
217.531	16.11
217.749	16.57
217.966	23.39
218.183	39.13
218.4	49
218.618	35.8
218.835	37.88
219.052	40.08
219.269	35.57
219.487	46.48
219.704	60.25
219.921	66.44
220.138	60.54
220.355	48.27
220.572	46.26
220.79	42.2
221.007	35.33
221.224	36.96
221.441	36.82
221.658	39.47
221.875	33.65
222.092	20.93
222.309	11.9
222.526	13.25
222.743	10.35
222.96	4.74
223.177	-3.46
223.394	5.2
223.611	5.9
223.828	2.69
224.045	6.19
224.262	11.38
224.479	12.52
224.696	18.72
224.913	23.36
225.13	24.73
225.347	27.22
225.564	27.74
225.781	30.53
225.997	25.31
226.214	23.86
226.431	20.41
226.648	17.13
226.865	15.77
227.082	12.79
227.298	9.65
227.515	9.08
227.732	7.95
227.949	8.25
228.165	6.37
228.382	6.74
228.599	6.76
228.816	6.66
229.032	6.49
229.249	6.2
229.466	5.79
229.682	5.56
229.899	5.29
230.116	4.71
230.332	4.06
230.549	4.81
230.765	3.54
230.982	3.76
231.199	3.03
231.415	3.53
231.632	4.21
231.848	5.02
232.065	5.23
232.281	5.25
232.498	5.37
232.714	6.55
232.931	6.23
233.147	7.59
233.364	7.8
233.58	9.06
233.797	8.45
234.013	7.66
234.23	6.27
234.446	6.55
234.662	6.61
234.879	7.86
235.095	7.11
235.312	6.3
235.528	8.36
235.744	7.36
235.961	7.63
236.177	7.31
236.393	7.34
236.61	8.05
236.826	8.3
237.042	7.92
237.258	6.7
237.475	6.65
237.691	6.37
237.907	3.79
238.123	5.02
238.339	3.58
238.556	4.42
238.772	4.46
238.988	5.32
239.204	7.26
239.42	7.39
239.636	7.23
239.853	8.19
240.069	8.97
240.285	9.5
240.501	9.07
240.717	9.34
240.933	8.51
241.149	8.27
241.365	7.56
241.581	6.83
241.797	7.04
242.013	7.62
242.229	7.16
242.445	7.23
242.661	7.13
242.877	6.93
243.093	7.49
243.309	7.74
243.525	7.84
243.741	8.19
243.957	8.39
244.173	8.24
244.388	8.12
244.604	8.19
244.82	7.7
245.036	7.5
245.252	7.48
245.468	6.5
245.683	6.23
245.899	6.5
246.115	6.65
246.331	6.35
246.547	6.41
246.762	6.24
246.978	6.14
247.194	5.97
247.409	5.99
247.625	5.81
247.841	5.84
248.057	5.7
248.272	5.22
248.488	5.14
248.703	5.35
248.919	5
249.135	5.17
249.35	5.09
249.566	5.73
249.782	5.77
249.997	6.27
250.213	6.62
250.428	7.28
250.644	7.46
250.859	6.99
251.075	6.5
251.29	6.26
251.506	5.41
251.721	5.86
251.937	5.41
252.152	5.29
252.368	4.9
252.583	4.77
252.798	4.3
253.014	4.7
253.229	4.8
253.445	4.94
253.66	5.55
253.875	5.46
254.091	4.51
254.306	4.58
254.521	4.25
254.737	4.32
254.952	3.37
255.167	3.8
255.383	3.05
255.598	3.16
255.813	3.07
256.028	2.88
256.244	4.02
256.459	4.67
256.674	4.67
256.889	5.4
257.104	5.39
257.32	5.73
257.535	5.44
257.75	5.7
257.965	6.05
258.18	5.92
258.395	5.8
258.61	5.53
258.826	5.36
259.041	4.88
259.256	4.5
259.471	4.48
259.686	4.56
259.901	4.7
260.116	4.51
260.331	4.3
260.546	4.13
260.761	4.36
260.976	4.43
261.191	4.11
261.406	4.12
261.621	4.3
261.836	4.32
262.05	4.3
262.265	4.11
262.48	4.41
262.695	4.27
262.91	4.79
263.125	4.45
263.34	4.51
263.555	5.39
263.769	5.43
263.984	5.05
264.199	5.32
264.414	5
264.629	5.06
264.843	5.04
265.058	5.12
265.273	4.19
265.488	4.63
265.702	4.5
265.917	4.11
266.132	4.55
266.346	4.98
266.561	4.72
266.776	4.95
266.99	4.5
267.205	4.3
267.42	4.29
267.634	4.73
267.849	4.18
268.063	4.1
268.278	4.13
268.492	4.35
268.707	4.61
268.922	4.84
269.136	4.25
269.351	4.58
269.565	4.56
269.78	4.41
269.994	4.47
270.209	4.52
270.423	4.51
270.637	4.54
270.852	4.13
271.066	3.54
271.281	3.15
271.495	3.46
271.709	3.75
271.924	3.58
272.138	3.62
272.353	3.35
272.567	3.29
272.781	3.14
272.996	2.91
273.21	2.8
273.424	3.1
273.638	3.51
273.853	3.33
274.067	3.34
274.281	3.94
274.495	3.83
274.71	4.19
274.924	4.23
275.138	4.22
275.352	4.57
275.566	4.95
275.781	4.85
275.995	4.77
276.209	5.34
276.423	5.34
276.637	5.3
276.851	5.37
277.065	5.25
277.279	5.3
277.493	5.61
277.707	5.8
277.921	5.91
278.135	5.91
278.349	5.43
278.563	5.02
278.777	4.47
278.991	3.93
279.205	4.01
279.419	3.48
279.633	3.86
279.847	3.71
280.061	3.42
280.275	3.25
280.489	3.41
280.703	3.69
280.917	3.7
281.131	3.97
281.344	3.56
281.558	3.61
281.772	3.73
281.986	3.19
282.2	3.2
282.414	3.1
282.627	3
282.841	3.03
283.055	2.88
283.269	3.08
283.482	3.45
283.696	3.97
283.91	3.97
284.123	4.36
284.337	4.73
284.551	4.7
284.764	5.28
284.978	5.1
285.192	4.91
285.405	5.05
285.619	5.16
285.833	4.76
286.046	4.85
286.26	4.89
286.473	4.96
286.687	4.86
286.9	4.81
287.114	4.2
287.327	4.62
287.541	4.41
287.754	4.67
287.968	4.61
288.181	4.54
288.395	4.45
288.608	4.78
288.822	4.64
289.035	4.78
289.248	5.04
289.462	5.24
289.675	4.89
289.889	5.07
290.102	4.65
290.315	4.62
290.529	5.02
290.742	4.99
290.955	4.64
291.169	4.69
291.382	4.74
291.595	4.87
291.808	5.06
292.022	5.12
292.235	5.62
292.448	5.92
292.661	5.52
292.875	5.27
293.088	5.48
293.301	5.81
293.514	5.84
293.727	5.83
293.94	5.73
294.153	5.74
294.367	5.99
294.58	5.58
294.793	5.91
295.006	6.4
295.219	6.61
295.432	6.53
295.645	6.74
295.858	6.85
296.071	6.81
296.284	6.97
296.497	6.92
296.71	6.92
296.923	7.13
297.136	6.66
297.349	6.34
297.562	6.38
297.775	6.39
297.988	6.13
298.201	6.21
298.414	6.33
298.626	6.18
298.839	6.23
299.052	6.44
299.265	6.37
299.478	6.95
299.691	7.3
299.903	7
300.116	7.09
300.329	7.4
300.542	7.15
300.755	7.16
300.967	7.37
301.18	7.47
301.393	7.46
301.605	7.54
301.818	7.5
302.031	7.65
302.243	8.21
302.456	8.62
302.669	8.81
302.881	9.14
303.094	9.32
303.307	9.21
303.519	9.44
303.732	9.49
303.944	9.63
304.157	9.86
304.37	9.9
304.582	9.89
304.795	9.53
305.007	9.49
305.22	9.35
305.432	9.28
305.645	9.37
305.857	9.09
306.069	8.94
306.282	8.99
306.494	8.57
306.707	8.38
306.919	8.4
307.132	8.49
307.344	8.43
307.556	8.47
307.769	8.43
307.981	8.5
308.193	8.78
308.406	8.58
308.618	8.63
308.83	8.76
309.043	9.07
309.255	8.98
309.467	8.97
309.679	9.01
309.892	9.09
310.104	9.11
310.316	9.24
310.528	9.29
310.74	9.35
310.953	9.4
311.165	9.52
311.377	9.57
311.589	9.45
311.801	9.46
312.013	9.47
312.225	9.71
312.437	10.09
312.649	9.97
312.862	9.88
313.074	10.13
313.286	10.23
313.498	9.98
313.71	9.92
313.922	10.33
314.134	10.21
314.346	10.11
314.558	10.03
314.77	9.72
314.982	9.48
315.193	9.29
315.405	9.28
315.617	9.46
315.829	9.35
316.041	9.36
316.253	9.04
316.465	9.66
316.677	9.63
316.888	9.81
317.1	9.59
317.312	9.59
317.524	9.34
317.736	9.29
317.947	8.91
318.159	9.51
318.371	9.39
318.583	9.51
318.794	9.13
319.006	9.48
319.218	9.15
319.43	9.13
319.641	9.57
319.853	10.05
320.064	9.89
320.276	9.55
320.488	9.18
320.699	9.55
320.911	9.27
321.123	9.07
321.334	8.52
321.546	8.63
321.757	8.85
321.969	9.01
322.18	8.98
322.392	9.28
322.603	10.13
322.815	10.35
323.026	9.75
323.238	10.15
323.449	10.16
323.661	10.2
323.872	10.56
324.083	10.67
324.295	10.31
324.506	10.5
324.718	10.71
324.929	10.8
325.14	11
325.352	11.26
325.563	11.46
325.774	11.92
325.986	12.07
326.197	11.77
326.408	12.18
326.62	12.54
326.831	12.71
327.042	12.6
327.253	12.42
327.464	12.35
327.676	12.66
327.887	12.51
328.098	12.44
328.309	12.85
328.52	12.73
328.732	12.25
328.943	11.94
329.154	11.94
329.365	12.06
329.576	12.27
329.787	12.41
329.998	12.61
330.209	12.69
330.42	12.71
330.631	12.16
330.842	12.17
331.053	12.45
331.264	12.81
331.475	12.51
331.686	12.69
331.897	12.38
332.108	12.37
332.319	12.1
332.53	12.26
332.741	12.1
332.952	12.44
333.163	12.73
333.374	12.71
333.585	12.47
333.795	12.87
334.006	12.9
334.217	13.1
334.428	13.11
334.639	13.07
334.849	13.16
335.06	13.36
335.271	13.34
335.482	13.25
335.692	13.06
335.903	13.13
336.114	13.06
336.325	13.08
336.535	13.01
336.746	13.13
336.957	12.94
337.167	12.77
337.378	12.86
337.589	12.87
337.799	12.96
338.01	13.24
338.22	13.25
338.431	13.16
338.642	13.07
338.852	13.11
339.063	12.48
339.273	12.84
339.484	12.94
339.694	12.99
339.905	12.92
340.115	12.7
340.326	12.32
340.536	12.41
340.746	12.3
340.957	12.5
341.167	12.26
341.378	12.83
341.588	12.72
341.799	12.56
342.009	12.25
342.219	12.4
342.43	12.62
342.64	12.83
342.85	12.94
343.061	13
343.271	12.79
343.481	12.81
343.691	12.68
343.902	12.68
344.112	12.45
344.322	12.72
344.532	12.74
344.743	12.76
344.953	12.41
345.163	12.29
345.373	12.56
345.583	12.46
345.793	12.31
346.004	11.98
346.214	12.05
346.424	12.31
346.634	12.09
346.844	12.31
347.054	12.09
347.264	12.42
347.474	12.26
347.684	11.9
347.894	12.19
348.104	12.56
348.314	13.11
348.524	12.89
348.734	13.04
348.944	13.08
349.154	12.5
349.364	12.39
349.574	11.97
349.784	12.01
349.994	11.99
350.204	12.04
350.413	11.87
350.623	11.5
350.833	11.83
351.043	11.83
351.253	11.94
351.463	12.48
351.672	12.48
351.882	12.59
352.092	12.45
352.302	12.31
352.511	12.18
352.721	12.38
352.931	12.56
353.141	12.14
353.35	11.99
353.56	11.91
353.77	11.71
353.979	11.89
354.189	12.11
354.399	12.19
354.608	12.47
354.818	12.42
355.027	12.15
355.237	12.15
355.447	12.13
355.656	12.22
355.866	12.22
356.075	12.13
356.285	12.1
356.494	11.95
356.704	11.85
356.913	11.85
357.123	11.7
357.332	11.58
357.542	11.41
357.751	11.43
357.96	11.09
358.17	10.96
358.379	10.83
358.589	10.76
358.798	10.81
359.007	11.04
359.217	10.84
359.426	11
359.635	11.05
359.845	11.14
360.054	11.28
360.263	11.33
360.472	11.3
360.682	11.27
360.891	11.16
361.1	11.19
361.309	11.15
361.519	11.13
361.728	11.01
361.937	10.95
362.146	10.87
362.355	10.89
362.564	11.06
362.774	11.07
362.983	11.15
363.192	11.37
363.401	11.18
363.61	11.14
363.819	11.16
364.028	11.1
364.237	11.07
364.446	10.95
364.655	10.96
364.864	10.84
365.073	10.85
365.282	10.84
365.491	10.66
365.7	10.75
365.909	10.82
366.118	10.88
366.327	10.93
366.536	10.75
366.745	10.99
366.954	10.79
367.162	10.89
367.371	10.84
367.58	10.89
367.789	10.95
367.998	10.93
368.207	10.84
368.415	10.89
368.624	10.74
368.833	11.15
369.042	10.82
369.25	10.74
369.459	10.73
369.668	10.77
369.877	10.46
370.085	10.29
370.294	9.91
370.503	9.8
370.711	9.56
370.92	9.43
371.129	9.47
371.337	9.66
371.546	9.73
371.754	9.53
371.963	9.35
372.171	9.45
372.38	9.53
372.589	9.97
372.797	9.94
373.006	9.91
373.214	9.98
373.423	9.65
373.631	9.62
373.84	9.47
374.048	9.33
374.256	9.32
374.465	9.26
374.673	9.1
374.882	9.09
375.09	9.05
375.298	9.04
375.507	9.27
375.715	9.33
375.923	9.37
376.132	9.19
376.34	9.19
376.548	9.24
376.757	9.37
376.965	9.29
377.173	9.13
377.381	8.95
377.59	8.71
377.798	8.56
378.006	8.52
378.214	8.37
378.423	8.45
378.631	8.43
378.839	8.21
379.047	8.06
379.255	8.3
379.463	8.31
379.671	8.28
379.879	8.41
380.088	8.36
380.296	8.32
380.504	8.19
380.712	8.14
380.92	7.86
381.128	8.01
381.336	7.87
381.544	7.51
381.752	7.44
381.96	7.43
382.168	7.21
382.376	7.18
382.584	7.2
382.791	7.17
382.999	6.97
383.207	7.14
383.415	6.98
383.623	7.05
383.831	7
384.039	6.94
384.247	6.94
384.454	7
384.662	6.87
384.87	6.78
385.078	6.77
385.285	7.03
385.493	7.1
385.701	7.11
385.909	6.87
386.116	6.81
386.324	6.96
386.532	6.95
386.739	7.04
386.947	6.96
387.155	6.99
387.362	6.88
387.57	6.81
387.778	6.59
387.985	6.6
388.193	6.76
388.4	6.95
388.608	6.86
388.816	6.88
389.023	6.96
389.231	6.91
389.438	6.81
389.646	6.94
389.853	6.8
390.061	6.76
390.268	6.74
390.475	6.46
390.683	6.38
390.89	6.14
391.098	6.09
391.305	6.03
391.512	6.1
391.72	6.06
391.927	5.8
392.135	5.93
392.342	5.93
392.549	5.77
392.756	5.87
392.964	5.82
393.171	5.95
393.378	5.9
393.586	5.75
393.793	5.67
394	5.59
394.207	5.85
394.414	5.79
394.622	5.87
394.829	6.01
395.036	5.92
395.243	5.96
395.45	5.95
395.657	5.76
395.864	5.73
396.072	5.74
396.279	5.75
396.486	5.67
396.693	5.57
396.9	5.31
397.107	5.11
397.314	5.13
397.521	5.06
397.728	4.82
397.935	5.1
398.142	5.2
398.349	5.12
398.556	5.21
398.763	5.12
398.97	5.07
399.177	5.18
399.383	5.16
399.59	5.2
399.797	5.34
400.004	5.42
400.211	5.27
400.418	5.23
400.625	5.24
400.831	5.09
401.038	5.09
401.245	4.96
401.452	5.04
401.658	5.08
401.865	5.14
402.072	4.91
402.279	5.11
402.485	5.15
402.692	5.08
402.899	5.06
403.105	5.04
403.312	4.92
403.519	5.12
403.725	4.96
403.932	4.99
404.138	4.83
404.345	4.79
404.552	4.63
404.758	4.58
404.965	4.57
405.171	4.63
405.378	4.54
405.584	4.61
405.791	4.56
405.997	4.62
406.204	4.71
406.41	4.66
406.617	4.73
406.823	4.83
407.029	4.92
407.236	4.91
407.442	4.71
407.649	4.89
407.855	4.8
408.061	4.91
408.268	4.86
408.474	4.88
408.68	4.87
408.887	4.74
409.093	4.6
409.299	4.47
409.505	4.46
409.712	4.59
409.918	4.59
410.124	4.77
410.33	4.69
410.537	4.57
410.743	4.5
410.949	4.68
411.155	4.84
411.361	4.8
411.567	4.73
411.773	4.73
411.98	4.68
412.186	4.58
412.392	4.36
412.598	4.26
412.804	4.47
413.01	4.25
413.216	4.18
413.422	4.02
413.628	4.12
413.834	4.27
414.04	4.32
414.246	4.28
414.452	4.44
414.658	4.66
414.864	4.65
415.07	4.65
415.275	4.79
415.481	4.74
415.687	4.75
415.893	4.78
416.099	4.69
416.305	4.64
416.511	4.63
416.716	4.5
416.922	4.37
417.128	4.41
417.334	4.38
417.539	4.34
417.745	4.4
417.951	4.43
418.157	4.28
418.362	4.27
418.568	4.23
418.774	4.23
418.979	4.18
419.185	4.23
419.391	4.23
419.596	4.17
419.802	4.13
420.008	4.17
420.213	4.18
420.419	4.16
420.624	4.15
420.83	4.16
421.035	4.18
421.241	4.15
421.446	4.09
421.652	3.92
421.857	3.86
422.063	3.84
422.268	3.79
422.474	3.77
422.679	3.84
422.885	3.78
423.09	3.75
423.295	3.72
423.501	3.81
423.706	3.77
423.911	3.96
424.117	4.06
424.322	4.08
424.527	3.97
424.733	3.89
424.938	3.89
425.143	3.9
425.349	4
425.554	3.98
425.759	3.94
425.964	3.95
426.169	3.9
426.375	3.88
426.58	3.87
426.785	3.9
426.99	4
427.195	3.99
427.4	3.97
427.605	3.9
427.811	3.89
428.016	3.8
428.221	3.86
428.426	3.82
428.631	3.84
428.836	3.88
429.041	4.01
429.246	4
429.451	3.93
429.656	3.9
429.861	3.89
430.066	3.94
430.271	3.92
430.476	3.81
430.681	3.78
430.886	3.64
431.09	3.74
431.295	3.57
431.5	3.63
431.705	3.63
431.91	3.65
432.115	3.56
432.32	3.55
432.524	3.56
432.729	3.7
432.934	3.69
433.139	3.76
433.343	3.59
433.548	3.57
433.753	3.51
433.958	3.61
434.162	3.69
434.367	3.76
434.572	3.76
434.776	3.71
434.981	3.63
435.186	3.68
435.39	3.76
435.595	3.75
435.799	3.84
436.004	3.79
436.209	3.68
436.413	3.65
436.618	3.61
436.822	3.58
437.027	3.59
437.231	3.62
437.436	3.54
437.64	3.49
437.845	3.51
438.049	3.58
438.253	3.7
438.458	3.77
438.662	3.78
438.867	3.84
439.071	3.88
439.275	3.9
439.48	3.87
439.684	3.89
439.888	3.87
440.093	3.86
440.297	3.8
440.501	3.76
440.706	3.71
440.91	3.78
441.114	3.68
441.318	3.72
441.523	3.8
441.727	3.81
441.931	3.83
442.135	3.81
442.339	3.94
442.543	3.87
442.748	3.76
442.952	3.85
443.156	3.74
443.36	3.8
443.564	3.79
443.768	3.78
443.972	3.82
444.176	3.86
444.38	3.87
444.584	3.76
444.788	3.83
444.992	3.88
445.196	3.79
445.4	3.78
445.604	3.75
445.808	3.69
446.012	3.61
446.216	3.56
446.42	3.56
446.624	3.53
446.828	3.59
447.032	3.58
447.235	3.59
447.439	3.58
447.643	3.57
447.847	3.61
448.051	3.58
448.254	3.6
448.458	3.61
448.662	3.51
448.866	3.49
449.069	3.41
449.273	3.4
449.477	3.44
449.681	3.43
449.884	3.48
450.088	3.44
450.292	3.52
450.495	3.59
450.699	3.49
450.902	3.6
451.106	3.62
451.31	3.66
451.513	3.57
451.717	3.46
451.92	3.56
452.124	3.59
452.327	3.5
452.531	3.4
452.734	3.31
452.938	3.42
453.141	3.36
453.345	3.34
453.548	3.25
453.752	3.27
453.955	3.35
454.158	3.3
454.362	3.23
454.565	3.33
454.769	3.29
454.972	3.38
455.175	3.27
455.379	3.29
455.582	3.44
455.785	3.47
455.988	3.54
456.192	3.54
456.395	3.56
456.598	3.6
456.801	3.69
457.005	3.86
457.208	3.88
457.411	3.87
457.614	3.8
457.817	3.56
458.021	3.58
458.224	3.64
458.427	3.51
458.63	3.48
458.833	3.42
459.036	3.43
459.239	3.38
459.442	3.31
459.645	3.3
459.848	3.34
460.051	3.4
460.254	3.39
460.457	3.35
460.66	3.43
460.863	3.39
461.066	3.42
461.269	3.32
461.472	3.33
461.675	3.39
461.878	3.45
462.081	3.46
462.284	3.51
462.486	3.52
462.689	3.5
462.892	3.49
463.095	3.56
463.298	3.53
463.5	3.53
463.703	3.53
463.906	3.54
464.109	3.55
464.311	3.54
464.514	3.55
464.717	3.63
464.92	3.62
465.122	3.65
465.325	3.75
465.528	3.78
465.73	3.81
465.933	3.83
466.135	3.69
466.338	3.63
466.541	3.67
466.743	3.59
466.946	3.53
467.148	3.51
467.351	3.5
467.553	3.32
467.756	3.25
467.958	3.28
468.161	3.22
468.363	3.21
468.566	3.24
468.768	3.26
468.971	3.3
469.173	3.28
469.375	3.33
469.578	3.37
469.78	3.44
469.983	3.56
470.185	3.5
470.387	3.48
470.59	3.65
470.792	3.79
470.994	3.8
471.196	3.79
471.399	3.86
471.601	3.84
471.803	3.68
472.005	3.8
472.208	3.78
472.41	3.8
472.612	3.84
472.814	3.77
473.016	3.6
473.218	3.59
473.421	3.58
473.623	3.7
473.825	3.77
474.027	3.82
474.229	3.72
474.431	3.7
474.633	3.72
474.835	3.73
475.037	3.65
475.239	3.69
475.441	3.72
475.643	3.73
475.845	3.55
476.047	3.48
476.249	3.53
476.451	3.56
476.653	3.59
476.855	3.64
477.057	3.62
477.258	3.68
477.46	3.71
477.662	3.7
477.864	3.69
478.066	3.76
478.268	3.74
478.469	3.74
478.671	3.76
478.873	3.78
479.075	3.68
479.276	3.76
479.478	3.77
479.68	3.77
479.882	3.74
480.083	3.83
480.285	3.72
480.487	3.79
480.688	3.75
480.89	3.8
481.091	3.78
481.293	3.76
481.495	3.65
481.696	3.7
481.898	3.65
482.099	3.6
482.301	3.57
482.502	3.63
482.704	3.59
482.905	3.57
483.107	3.5
483.308	3.49
483.51	3.48
483.711	3.5
483.913	3.47
484.114	3.47
484.315	3.47
484.517	3.46
484.718	3.43
484.92	3.46
485.121	3.45
485.322	3.46
485.524	3.45
485.725	3.5
485.926	3.46
486.127	3.45
486.329	3.45
486.53	3.44
486.731	3.46
486.932	3.45
487.134	3.41
487.335	3.46
487.536	3.44
487.737	3.43
487.938	3.4
488.139	3.42
488.341	3.4
488.542	3.39
488.743	3.41
488.944	3.39
489.145	3.38
489.346	3.42
489.547	3.37
489.748	3.37
489.949	3.42
490.15	3.42
490.351	3.47
490.552	3.47
490.753	3.46
490.954	3.47
491.155	3.5
491.356	3.57
491.557	3.52
491.758	3.53
491.959	3.56
492.159	3.55
492.36	3.53
492.561	3.55
492.762	3.59
492.963	3.64
493.164	3.66
493.364	3.73
493.565	3.74
493.766	3.82
493.967	3.84
494.167	3.85
494.368	3.86
494.569	3.94
494.769	3.89
494.97	3.88
495.171	3.89
495.371	3.86
495.572	3.79
495.773	3.72
495.973	3.72
496.174	3.76
496.375	3.73
496.575	3.71
496.776	3.75
496.976	3.74
497.177	3.79
497.377	3.81
497.578	3.88
497.778	3.88
497.979	3.9
498.179	3.97
498.38	3.99
498.58	4.11
498.78	4.2
498.981	4.19
499.181	4.23
499.382	4.17
499.582	4.12
499.782	4.07
499.983	4.15
500.183	4.2
500.383	4.2
500.584	4.16
500.784	4.11
500.984	4.08
501.184	4.18
501.385	4.22
501.585	4.32
501.785	4.37
501.985	4.38
502.185	4.34
502.386	4.17
502.586	4.21
502.786	4.26
502.986	4.22
503.186	4.29
503.386	4.23
503.586	4.22
503.786	4.25
503.987	4.33
504.187	4.4
504.387	4.47
504.587	4.73
504.787	4.76
504.987	4.81
505.187	4.88
505.387	4.87
505.587	4.92
505.786	5.01
505.986	5.03
506.186	5.11
506.386	5.16
506.586	5.17
506.786	5.18
506.986	5.21
507.186	5.24
507.386	5.28
507.585	5.3
507.785	5.41
507.985	5.44
508.185	5.49
508.384	5.49
508.584	5.52
508.784	5.52
508.984	5.51
509.183	5.53
509.383	5.52
509.583	5.54
509.782	5.62
509.982	5.65
510.182	5.68
510.381	5.74
510.581	5.77
510.781	5.88
510.98	6.01
511.18	6.09
511.379	6.13
511.579	6.24
511.778	6.36
511.978	6.47
512.177	6.43
512.377	6.46
512.576	6.46
512.776	6.57
512.975	6.56
513.175	6.58
513.374	6.52
513.573	6.68
513.773	6.81
513.972	6.82
514.172	6.82
514.371	6.97
514.57	7.07
514.77	7.21
514.969	7.25
515.168	7.38
515.367	7.45
515.567	7.63
515.766	7.65
515.965	7.68
516.164	7.79
516.364	7.82
516.563	7.88
516.762	7.99
516.961	8.11
517.16	8.24
517.359	8.36
517.559	8.51
517.758	8.63
517.957	8.76
518.156	8.85
518.355	8.92
518.554	9.04
518.753	9.12
518.952	9.19
519.151	9.27
519.35	9.28
519.549	9.3
519.748	9.37
519.947	9.48
520.146	9.52
520.345	9.57
520.544	9.64
520.743	9.82
520.942	9.92
521.141	10.01
521.339	10.13
521.538	10.27
521.737	10.44
521.936	10.49
522.135	10.51
522.333	10.66
522.532	10.72
522.731	10.87
522.93	10.79
523.129	10.92
523.327	10.97
523.526	11.02
523.725	11.17
523.923	11.21
524.122	11.36
524.321	11.48
524.519	11.53
524.718	11.6
524.917	11.68
525.115	11.88
525.314	11.95
525.512	12.11
525.711	12.21
525.909	12.22
526.108	12.37
526.306	12.47
526.505	12.55
526.703	12.64
526.902	12.76
527.1	12.84
527.299	12.88
527.497	12.95
527.696	12.99
527.894	13.05
528.092	13.08
528.291	13.11
528.489	13.15
528.688	13.2
528.886	13.23
529.084	13.27
529.283	13.36
529.481	13.42
529.679	13.48
529.877	13.58
530.076	13.69
530.274	13.82
530.472	13.9
530.67	13.99
530.869	14.09
531.067	14.18
531.265	14.29
531.463	14.32
531.661	14.39
531.859	14.46
532.057	14.49
532.255	14.5
532.454	14.52
532.652	14.57
532.85	14.64
533.048	14.65
533.246	14.72
533.444	14.82
533.642	14.89
533.84	14.96
534.038	15.07
534.236	15.09
534.434	15.21
534.632	15.31
534.83	15.42
535.027	15.45
535.225	15.57
535.423	15.67
535.621	15.7
535.819	15.74
536.017	15.77
536.215	15.77
536.412	15.9
536.61	15.9
536.808	15.97
537.006	15.99
537.203	16.11
537.401	16.2
537.599	16.24
537.797	16.32
537.994	16.35
538.192	16.47
538.39	16.64
538.587	16.75
538.785	16.87
538.983	17
539.18	17.05
539.378	17.12
539.575	17.29
539.773	17.39
539.97	17.45
540.168	17.54
540.366	17.61
540.563	17.62
540.761	17.68
540.958	17.71
541.155	17.73
541.353	17.8
541.55	17.86
541.748	17.84
541.945	17.94
542.143	18.02
542.34	18.06
542.537	18.1
542.735	18.15
542.932	18.24
543.129	18.3
543.327	18.43
543.524	18.6
543.721	18.73
543.919	18.96
544.116	18.94
544.313	19.03
544.51	19.24
544.708	19.41
544.905	19.59
545.102	19.67
545.299	19.89
545.496	20
545.693	20
545.891	20
546.088	19.96
546.285	20.07
546.482	20.07
546.679	20.02
546.876	19.98
547.073	19.91
547.27	19.94
547.467	19.89
547.664	19.8
547.861	19.73
548.058	19.78
548.255	19.78
548.452	19.65
548.649	19.65
548.846	19.66
549.043	19.75
549.24	19.88
549.437	19.83
549.633	19.73
549.83	19.68
550.027	19.78
550.224	19.69
550.421	19.71
550.618	19.73
550.814	19.73
551.011	19.67
551.208	19.58
551.405	19.56
551.601	19.39
551.798	19.44
551.995	19.34
552.191	19.31
552.388	19.25
552.585	19.14
552.781	19.2
552.978	19.23
553.175	19.3
553.371	19.26
553.568	19.13
553.764	19.3
553.961	19.31
554.157	19.53
554.354	19.51
554.55	19.65
554.747	19.77
554.943	19.85
555.14	19.78
555.336	19.83
555.533	19.93
555.729	20.03
555.926	20.09
556.122	20.06
556.318	19.96
556.515	20.06
556.711	19.94
556.907	19.98
557.104	20.05
557.3	20.25
557.496	20.24
557.693	20.29
557.889	20.36
558.085	20.32
558.281	20.36
558.478	20.36
558.674	20.39
558.87	20.45
559.066	20.4
559.262	20.31
559.459	20.19
559.655	20.18
559.851	20.18
560.047	20.14
560.243	20.07
560.439	20.03
560.635	20.14
560.831	20.1
561.027	20.26
561.223	20.32
561.419	20.3
561.615	20.42
561.811	20.45
562.007	20.4
562.203	20.39
562.399	20.37
562.595	20.38
562.791	20.32
562.987	20.48
563.183	20.38
563.379	20.29
563.575	20.44
563.771	20.41
563.966	20.36
564.162	20.44
564.358	20.52
564.554	20.67
564.75	20.78
564.945	20.96
565.141	20.91
565.337	20.97
565.533	21.01
565.728	20.89
565.924	20.93
566.12	21.1
566.315	21.12
566.511	21.19
566.707	21.24
566.902	21.32
567.098	21.24
567.293	21.15
567.489	21.15
567.684	21.26
567.88	21.42
568.076	21.39
568.271	21.34
568.467	21.27
568.662	21.29
568.858	21.22
569.053	21.24
569.248	21.34
569.444	21.51
569.639	21.48
569.835	21.41
570.03	21.34
570.225	21.38
570.421	21.41
570.616	21.58
570.812	21.55
571.007	21.59
571.202	21.54
571.397	21.41
571.593	21.42
571.788	21.52
571.983	21.55
572.178	21.66
572.374	21.69
572.569	21.67
572.764	21.61
572.959	21.6
573.154	21.58
573.35	21.67
573.545	21.75
573.74	21.8
573.935	21.73
574.13	21.85
574.325	21.89
574.52	22
574.715	22.09
574.91	22.2
575.105	22.29
575.3	22.38
575.495	22.3
575.69	22.4
575.885	22.4
576.08	22.53
576.275	22.61
576.47	22.65
576.665	22.74
576.86	22.84
577.055	22.86
577.25	22.95
577.444	23.08
577.639	23.34
577.834	23.49
578.029	23.68
578.224	23.76
578.418	23.74
578.613	23.71
578.808	23.63
579.003	23.58
579.197	23.66
579.392	23.71
579.587	23.77
579.781	23.66
579.976	23.41
580.171	23.12
580.365	22.98
580.56	22.92
580.755	23.04
580.949	23.01
581.144	23.04
581.338	23.1
581.533	23.09
581.727	22.99
581.922	22.96
582.116	23.14
582.311	23.29
582.505	23.48
582.7	23.55
582.894	23.54
583.089	23.59
583.283	23.55
583.478	23.44
583.672	23.47
583.866	23.5
584.061	23.46
584.255	23.57
584.449	23.56
584.644	23.61
584.838	23.63
585.032	23.62
585.226	23.68
585.421	23.85
585.615	23.77
585.809	23.76
586.003	23.85
586.198	24.1
586.392	24.06
586.586	24.19
586.78	24.16
586.974	24.3
587.168	24.27
587.363	24.23
587.557	24.15
587.751	24.14
587.945	24.03
588.139	24.12
588.333	24.06
588.527	23.95
588.721	23.94
588.915	23.86
589.109	23.59
589.303	23.61
589.497	23.73
589.691	23.76
589.885	23.81
590.079	23.87
590.273	23.7
590.466	23.67
590.66	23.72
590.854	23.84
591.048	24.09
591.242	24.28
591.436	24.42
591.629	24.38
591.823	24.51
592.017	24.59
592.211	24.6
592.404	24.72
592.598	24.73
592.792	24.91
592.986	24.81
593.179	24.69
593.373	24.7
593.567	24.7
593.76	24.68
593.954	24.45
594.147	24.43
594.341	24.45
594.535	24.28
594.728	24.36
594.922	24.14
595.115	24.1
595.309	23.99
595.502	24.02
595.696	23.83
595.889	23.83
596.083	23.82
596.276	23.85
596.47	23.79
596.663	23.92
596.856	23.86
597.05	23.88
597.243	23.75
597.437	23.76
597.63	23.79
597.823	23.83
598.017	23.94
598.21	24.21
598.403	24.24
598.596	24.38
598.79	24.34
598.983	24.34
599.176	24.53
599.369	24.77
599.563	24.96
599.756	24.97
599.949	25.12
600.142	25.14
600.335	25.03
600.528	24.95
600.722	25
600.915	24.99
601.108	24.97
601.301	24.88
601.494	24.82
601.687	24.74
601.88	24.73
602.073	24.61
602.266	24.47
602.459	24.57
602.652	24.55
602.845	24.49
603.038	24.45
603.231	24.44
603.424	24.29
603.617	24.36
603.809	24.44
604.002	24.4
604.195	24.37
604.388	24.43
604.581	24.34
604.774	24.36
604.966	24.33
605.159	24.34
605.352	24.28
605.545	24.38
605.737	24.22
605.93	24.2
606.123	24.32
606.316	24.51
606.508	24.56
606.701	24.72
606.894	24.87
607.086	25.05
607.279	25.26
607.471	25.5
607.664	25.73
607.857	26.07
608.049	26.28
608.242	26.48
608.434	26.8
608.627	27.15
608.819	27.55
609.012	28.15
609.204	28.83
609.397	29.44
609.589	30.3
609.782	31.07
609.974	31.98
610.166	32.73
610.359	33.57
610.551	34.16
610.743	34.84
610.936	35.43
611.128	35.8
611.32	35.87
611.513	36.09
611.705	35.83
611.897	35.61
612.09	35.24
612.282	35.01
612.474	34.52
612.666	34.2
612.858	33.69
613.051	33.23
613.243	32.84
613.435	32.57
613.627	32.02
613.819	31.74
614.011	31.5
614.203	31.16
614.395	30.75
614.588	30.49
614.78	30.27
614.972	29.95
615.164	29.68
615.356	29.08
615.548	28.73
615.74	28.56
615.932	28.42
616.124	28.17
616.315	27.88
616.507	27.64
616.699	27.4
616.891	27.14
617.083	27.11
617.275	26.72
617.467	26.76
617.659	26.62
617.85	26.48
618.042	26.3
618.234	26.34
618.426	26.31
618.618	26.09
618.809	25.93
619.001	25.89
619.193	25.95
619.384	26.09
619.576	26.1
619.768	26.13
619.959	26.25
620.151	26.25
620.343	25.97
620.534	25.88
620.726	26.03
620.917	26.23
621.109	26.25
621.301	26.13
621.492	26.09
621.684	26.25
621.875	26.23
622.067	26.29
622.258	26.23
622.45	26.42
622.641	26.6
622.832	26.74
623.024	26.81
623.215	26.72
623.407	26.83
623.598	26.97
623.789	26.93
623.981	26.96
624.172	26.81
624.363	26.97
624.555	27.03
624.746	27.02
624.937	27.01
625.129	26.83
625.32	26.81
625.511	26.56
625.702	26.56
625.893	26.48
626.085	26.49
626.276	26.61
626.467	26.52
626.658	26.61
626.849	26.62
627.04	26.65
627.231	26.85
627.422	26.97
627.614	27.17
627.805	27.1
627.996	27.1
628.187	27.12
628.378	27.31
628.569	27.46
628.76	27.37
628.951	27.41
629.142	27.5
629.332	27.55
629.523	27.58
629.714	27.67
629.905	27.78
630.096	27.87
630.287	28.1
630.478	27.98
630.669	28.14
630.859	28.25
631.05	28.07
631.241	27.83
631.432	27.62
631.623	27.7
631.813	27.41
632.004	27.28
632.195	27.18
632.385	26.99
632.576	26.83
632.767	26.53
632.957	26.22
633.148	26.21
633.339	26.23
633.529	26.01
633.72	25.78
633.91	25.87
634.101	25.79
634.292	25.67
634.482	25.59
634.673	25.48
634.863	25.39
635.054	25.44
635.244	25.42
635.435	25.34
635.625	25.35
635.815	25.42
636.006	25.3
636.196	25.38
636.387	25.39
636.577	25.32
636.767	25.54
636.958	25.5
637.148	25.51
637.338	25.49
637.529	25.7
637.719	25.61
637.909	25.77
638.099	25.75
638.29	25.62
638.48	25.82
638.67	25.87
638.86	25.97
639.05	25.87
639.241	25.81
639.431	25.9
639.621	25.72
639.811	25.82
640.001	25.44
640.191	25.49
640.381	25.53
640.571	25.33
640.761	25.41
640.951	25.22
641.141	25.47
641.331	25.57
641.521	25.66
641.711	25.47
641.901	25.4
642.091	25.45
642.281	25.6
642.471	25.5
642.661	25.53
642.851	25.46
643.041	25.43
643.231	25.56
643.42	25.61
643.61	25.24
643.8	25.57
643.99	25.61
644.18	25.73
644.369	25.58
644.559	25.76
644.749	25.88
644.939	25.85
645.128	25.75
645.318	25.53
645.508	25.39
645.697	25.6
645.887	25.29
646.076	25.36
646.266	25.52
646.456	25.66
646.645	25.5
646.835	25.45
647.024	25.49
647.214	25.6
647.403	25.81
647.593	25.86
647.782	26.01
647.972	26.29
648.161	26.41
648.351	26.36
648.54	26.27
648.73	26.36
648.919	26.47
649.108	26.53
649.298	26.55
649.487	26.44
649.677	26.49
649.866	26.35
650.055	26.36
650.244	26.4
650.434	26.21
650.623	26.23
650.812	26.13
651.002	26.18
651.191	26.16
651.38	26.31
651.569	26.34
651.758	26.4
651.947	26.36
652.137	26.05
652.326	25.96
652.515	26.17
652.704	26.07
652.893	26.38
653.082	26.22
653.271	26.11
653.46	26.01
653.649	26.06
653.838	26.1
654.027	26.26
654.216	26.57
654.405	26.72
654.594	26.54
654.783	26.72
654.972	26.56
655.161	26.61
655.35	26.76
655.539	26.58
655.728	26.6
655.916	26.71
656.105	26.84
656.294	26.96
656.483	26.67
656.672	26.65
656.86	26.82
657.049	26.92
657.238	26.9
657.427	26.89
657.615	26.94
657.804	26.8
657.993	26.6
658.181	26.36
658.37	26.26
658.559	26.4
658.747	26.35
658.936	26.09
659.125	26.32
659.313	26.29
659.502	26.39
659.69	26.38
659.879	26.4
660.067	26.49
660.256	26.52
660.444	26.49
660.633	26.52
660.821	26.65
661.01	26.7
661.198	26.2
661.387	26.17
661.575	25.88
661.763	25.93
661.952	26.07
662.14	25.97
662.328	26.1
662.517	26.29
662.705	26.52
662.893	26.64
663.082	26.92
663.27	26.84
663.458	26.68
663.646	26.98
663.834	26.73
664.023	26.63
664.211	26.59
664.399	26.57
664.587	26.54
664.775	26.2
664.963	26.13
665.152	26.07
665.34	26.61
665.528	26.8
665.716	26.71
665.904	27.1
666.092	27.05
666.28	27.17
666.468	27.06
666.656	26.94
666.844	27.01
667.032	26.77
667.22	26.39
667.408	26.34
667.596	26.37
667.784	26.29
667.971	26.08
668.159	25.96
668.347	26.12
668.535	26.15
668.723	26.1
668.911	26.09
669.098	26.15
669.286	26.14
669.474	25.89
669.662	26.02
669.849	25.84
670.037	25.94
670.225	26.01
670.413	25.74
670.6	25.84
670.788	25.95
670.976	25.94
671.163	26.09
671.351	26.46
671.538	26.72
671.726	26.59
671.913	26.72
672.101	26.66
672.289	26.7
672.476	26.91
672.664	26.86
672.851	26.65
673.039	26.73
673.226	26.7
673.413	26.4
673.601	26.33
673.788	26.4
673.976	26.67
674.163	26.56
674.35	26.61
674.538	26.37
674.725	26.41
674.912	26.44
675.1	26.32
675.287	26.43
675.474	26.77
675.662	26.54
675.849	26.4
676.036	26.26
676.223	26.4
676.411	26.28
676.598	26.32
676.785	26.28
676.972	26.54
677.159	26.71
677.346	26.65
677.533	26.8
677.721	26.97
677.908	27.24
678.095	27.35
678.282	27.47
678.469	27.6
678.656	27.52
678.843	27.42
679.03	27.29
679.217	26.97
679.404	27.15
679.591	26.69
679.778	26.44
679.964	26.03
680.151	26.02
680.338	25.98
680.525	25.92
680.712	25.96
680.899	26.16
681.086	26.17
681.272	26.31
681.459	26.26
681.646	26.47
681.833	26.74
682.02	27.04
682.206	26.98
682.393	27.02
682.58	26.92
682.766	26.75
682.953	26.83
683.14	26.75
683.326	26.79
683.513	26.59
683.7	26.88
683.886	26.8
684.073	26.87
684.259	26.82
684.446	26.8
684.632	26.83
684.819	26.84
685.005	26.5
685.192	26.12
685.378	26.29
685.565	26.46
685.751	26
685.938	26.24
686.124	26
686.31	26.02
686.497	26
686.683	26.13
686.87	26.39
687.056	26.5
687.242	26.73
687.429	26.56
687.615	26.45
687.801	26.48
687.987	26.35
688.174	26.66
688.36	26.71
688.546	26.55
688.732	26.54
688.918	26.71
689.105	26.67
689.291	26.89
689.477	26.96
689.663	26.93
689.849	27.1
690.035	26.71
690.221	26.79
690.407	26.57
690.593	26.68
690.779	26.68
690.965	26.29
691.151	26.2
691.337	26.5
691.523	26.88
691.709	27.11
691.895	27.02
692.081	27.37
692.267	27.13
692.453	27.2
692.639	27.18
692.825	27.02
693.011	27.26
693.196	27.63
693.382	27.61
693.568	27.16
693.754	27
693.94	26.78
694.125	26.8
694.311	26.95
694.497	26.95
694.682	27.17
694.868	27.21
695.054	27.43
695.239	27.02
695.425	26.5
695.611	26.42
695.796	26.41
695.982	26.72
696.168	26.44
696.353	26.39
696.539	26.52
696.724	26.54
696.91	26.53
697.095	26.22
697.281	26.38
697.466	26.49
697.652	26.84
697.837	26.92
698.023	26.9
698.208	27.19
698.393	27.23
698.579	27.34
698.764	27.14
698.949	27.07
699.135	27.05
699.32	26.91
699.505	26.85
699.691	26.66
699.876	26.41
700.061	26.43
700.246	26.33
700.432	26.22
700.617	26.27
700.802	26.25
700.987	26.27
701.172	26.71
701.358	26.9
701.543	27.15
701.728	27.14
701.913	27.29
702.098	27.15
702.283	26.82
702.468	26.84
702.653	26.79
702.838	26.68
703.023	26.93
703.208	26.65
703.393	26.44
703.578	26.64
703.763	26.63
703.948	26.91
704.133	27.19
704.318	27.74
704.503	27.74
704.688	27.81
704.873	28.32
705.057	28.42
705.242	28.56
705.427	28.67
705.612	28.27
705.797	28.41
705.981	28.41
706.166	28.35
706.351	28.04
706.536	28.33
706.72	27.96
706.905	27.73
707.09	27.8
707.274	27.97
707.459	28.43
707.644	28.42
707.828	28.75
708.013	29.07
708.197	29.12
708.382	29.52
708.567	29.33
708.751	29.58
708.936	29.56
709.12	29.59
709.305	29.19
709.489	29.28
709.673	29.69
709.858	29.17
710.042	28.91
710.227	28.78
710.411	28.7
710.596	28.93
710.78	28.84
710.964	29.24
711.149	29.36
711.333	29.79
711.517	29.28
711.702	28.96
711.886	28.91
712.07	28.79
712.254	28.79
712.438	28.59
712.623	27.85
712.807	27.71
712.991	27.2
713.175	26.87
713.359	26.37
713.544	26.27
713.728	26.22
713.912	26.15
714.096	26.1
714.28	25.92
714.464	25.75
714.648	26.1
714.832	25.93
715.016	26.15
715.2	26.19
715.384	25.92
715.568	26.13
715.752	26.13
715.936	26.23
716.12	26.31
716.304	26.67
716.488	26.92
716.671	26.7
716.855	26.98
717.039	26.94
717.223	26.7
717.407	26.87
717.59	27.21
717.774	27.06
717.958	27.21
718.142	26.87
718.325	26.2
718.509	26.01
718.693	26.51
718.877	25.99
719.06	25.6
719.244	25.82
719.428	26.13
719.611	25.73
719.795	26.29
719.978	26.45
720.162	26.95
720.345	27.69
720.529	27.79
720.713	27.58
720.896	28.34
721.08	28.46
721.263	28.43
721.446	28.15
721.63	28.45
721.813	28.5
721.997	28.38
722.18	28.02
722.364	27.79
722.547	28
722.73	27.74
722.914	27.57
723.097	27.58
723.28	27.36
723.464	27.69
723.647	27.3
723.83	26.98
724.013	27.1
724.197	26.85
724.38	27.05
724.563	26.67
724.746	26.59
724.929	26.69
725.112	26.81
725.296	26.96
725.479	26.92
725.662	26.98
725.845	26.7
726.028	26.35
726.211	26.31
726.394	26.35
726.577	26.37
726.76	26.76
726.943	26.74
727.126	27.04
727.309	27
727.492	27.02
727.675	27.07
727.858	27.61
728.041	27.72
728.224	28.16
728.407	27.64
728.589	28.13
728.772	28.11
728.955	27.98
729.138	27.63
729.321	28.05
729.503	27.52
729.686	27.99
729.869	27.47
730.052	27.5
730.234	27.32
730.417	27.42
730.6	27
730.782	26.49
730.965	26.51
731.148	27.03
731.33	27.01
731.513	27.92
731.695	27.49
731.878	27.67
732.061	27.85
732.243	28.36
732.426	28.82
732.608	28.98
732.791	29.33
732.973	29.23
733.156	28.95
733.338	28.6
733.52	28.18
733.703	27.59
733.885	27.71
734.068	27.59
734.25	27.02
734.432	26.91
734.615	26.72
734.797	26.74
734.979	26.6
735.162	26.78
735.344	26.56
735.526	26.36
735.708	27.26
735.891	27.09
736.073	26.91
736.255	27.2
736.437	26.58
736.619	26.87
736.802	27.1
736.984	26.93
737.166	26.67
737.348	26.74
737.53	26.86
737.712	26.3
737.894	26.51
738.076	26.58
738.258	26.44
738.44	26.85
738.622	26.28
738.804	25.83
738.986	26.36
739.168	26.39
739.35	26.34
739.532	26.06
739.714	26.27
739.896	25.94
740.078	25.69
740.259	26.02
740.441	26.09
740.623	26.45
740.805	26.28
740.987	26.21
741.168	26.17
741.35	26.08
741.532	26.65
741.714	26.63
741.895	26.92
742.077	27.21
742.259	26.4
742.44	26.19
742.622	26.18
742.804	26.41
742.985	26.36
743.167	26.17
743.348	26.67
743.53	25.68
743.711	25.7
743.893	25.34
744.075	25.56
744.256	26.31
744.438	26.14
744.619	26.31
744.8	26.55
744.982	26.29
745.163	26.32
745.345	26.59
745.526	27.77
745.707	27.45
745.889	27.56
746.07	27.68
746.252	27.76
746.433	28.09
746.614	28.2
746.795	27.91
746.977	27.91
747.158	27.88
747.339	27.5
747.52	27.41
747.702	27.57
747.883	27.63
748.064	27.25
748.245	26.48
748.426	26.19
748.607	25.85
748.788	26.71
748.97	26.47
749.151	26.47
749.332	27.05
749.513	27.28
749.694	27.9
749.875	28.6
750.056	28.06
750.237	28.54
750.418	28.96
750.599	29.12
750.78	28.08
750.96	28.78
751.141	29.09
751.322	28.25
751.503	27.52
751.684	27.05
751.865	26.27
752.046	27.14
752.226	26.98
752.407	26.67
752.588	26.52
752.769	27.1
752.949	27.07
753.13	27.1
753.311	27.82
753.492	27.81
753.672	28.16
753.853	28.83
754.034	28.97
754.214	29.35
754.395	29.11
754.575	29.46
754.756	29.73
754.937	29.72
755.117	29.29
755.298	28.87
755.478	28.78
755.659	29.15
755.839	28.76
756.02	28.31
756.2	27.78
756.381	28.06
756.561	27.25
756.741	27.02
756.922	26.77
757.102	27.13
757.283	27.3
757.463	27.32
757.643	26.77
757.823	26.36
758.004	26.03
758.184	26.29
758.364	26.77
758.545	27.2
758.725	27.04
758.905	27.14
759.085	27.21
759.265	26.73
759.446	27.12
759.626	26.97
759.806	27.08
759.986	27.26
760.166	26.6
760.346	26.02
760.526	26.3
760.706	26.42
760.886	26.09
761.066	25.98
761.246	26.3
761.426	26.39
761.606	26.12
761.786	26.24
761.966	26.09
762.146	26.51
762.326	26.97
762.506	26.8
762.686	26.81
762.866	27.28
763.046	27.05
763.225	27.27
763.405	26.6
763.585	26.78
763.765	26.54
763.945	26.74
764.124	26.87
764.304	26.55
764.484	26.59
764.664	26.76
764.843	26.6
765.023	26.91
765.203	26.45
765.382	27.25
765.562	27.38
765.741	27.42
765.921	27.52
766.101	27.9
766.28	28.48
766.46	28.33
766.639	28.86
766.819	28.6
766.998	28.61
767.178	29.04
767.357	28.93
767.537	28.44
767.716	29.03
767.896	29.24
768.075	28.55
768.254	27.68
768.434	27.26
768.613	25.99
768.792	26.31
768.972	26.39
769.151	26.17
769.33	25.99
769.51	27.15
769.689	26.47
769.868	25.42
770.047	25.24
770.226	25.88
770.406	26.13
770.585	26.18
770.764	26.66
770.943	27.1
771.122	26.76
771.301	26.82
771.48	26.2
771.66	27.24
771.839	28
772.018	28.1
772.197	27.78
772.376	28.35
772.555	28.87
772.734	27.47
772.913	26.27
773.092	26.47
773.271	26.27
773.449	26.46
773.628	25.78
773.807	25.1
773.986	24.85
774.165	24.29
774.344	23.99
774.523	24.13
774.701	25.58
774.88	26.35
775.059	27.15
775.238	26.31
775.417	25.8
775.595	26.34
775.774	27.36
775.953	27.24
776.131	28.09
776.31	28.45
776.489	27.81
776.667	27.39
776.846	27.03
777.025	26
777.203	26.4
777.382	26.67
777.56	25.98
777.739	26.06
777.917	26.32
778.096	25.71
778.274	24.94
778.453	24.8
778.631	24.69
778.81	24.49
778.988	24.94
779.166	25.61
779.345	25.12
779.523	25.03
779.702	24.9
779.88	25.79
780.058	26.39
780.237	27.51
780.415	27.56
780.593	27.24
780.771	28.23
780.95	29.03
781.128	29.45
781.306	29.73
781.484	29.83
781.662	29.23
781.841	28.87
782.019	29.25
782.197	29.75
782.375	29.54
782.553	29.47
782.731	29.37
782.909	28.65
783.087	28.55
783.265	29.41
783.443	29.93
783.621	30.12
783.799	29.63
783.977	29.43
784.155	28.25
784.333	29.2
784.511	29.37
784.689	28.14
784.867	28.77
785.045	28.46
785.223	28.22
785.4	27.71
785.578	27.29
785.756	27.76
785.934	28.11
786.112	27.78
786.289	27.79
786.467	27.58
786.645	28.14
786.823	26.78
787	26.65
787.178	26.45
787.356	25.9
787.533	27.02
787.711	27.38
787.889	26.64
788.066	27.27
788.244	27.35
788.421	27.77
788.599	27.8
788.776	28.06
788.954	26.81
789.131	27.44
789.309	28.28
789.486	27.73
789.664	26.72
789.841	27
790.019	25.73
790.196	25.46
790.373	24.65
790.551	23.93
790.728	24.05
790.906	25.62
791.083	23.98
791.26	23.35
791.437	23.62
791.615	24.81
791.792	24.28
791.969	25.29
792.146	25.37
792.324	25.66
792.501	26.2
792.678	26.64
792.855	25.93
793.032	26.54
793.209	26.64
793.387	26.08
793.564	26.04
793.741	25.67
793.918	26.71
794.095	27.11
794.272	28.05
794.449	28.16
794.626	28.03
794.803	28.28
794.98	28.35
795.157	28.66
795.334	27.7
795.511	27.33
795.688	27.99
795.864	27.17
796.041	26.77
796.218	25.48
796.395	23.96
796.572	23.79
796.749	24.21
796.925	24.36
797.102	25.83
797.279	27.4
797.456	27.1
797.632	26.63
797.809	26.76
797.986	27.13
798.162	27.58
798.339	28.54
798.516	29.21
798.692	29.68
798.869	29.85
799.046	29.44
799.222	27.8
799.399	27.91
799.575	27.74
799.752	27.42
799.928	26.87
800.105	26.6
800.281	26.88
800.458	27.07
800.634	26.04
800.811	25.58
800.987	24.79
801.163	26.01
801.34	25.91
801.516	26.25
801.692	26.31
801.869	25.74
802.045	26.52
802.221	26.86
802.398	25.09
802.574	24.88
802.75	25.25
802.926	25.05
803.103	25.34
803.279	26.74
803.455	26.66
803.631	26.89
803.807	26.9
803.983	27.74
804.16	27.09
804.336	28.05
804.512	29.66
804.688	29.26
804.864	29.71
805.04	29.08
805.216	28.08
805.392	28.83
805.568	27.9
805.744	29.24
805.92	27.65
806.096	29.5
806.272	28.98
806.448	28.23
806.623	27.35
806.799	26.52
806.975	26.57
807.151	27.08
807.327	26.52
807.503	27.04
807.678	26.81
807.854	27.52
808.03	27.21
808.206	27.15
808.381	26.64
808.557	28.26
808.733	27.67
808.908	29.11
809.084	29.3
809.26	30.48
809.435	30.63
809.611	29.6
809.787	29.87
809.962	29.99
810.138	30.53
810.313	30.21
810.489	28.41
810.664	29.12
810.84	28.3
811.015	27.02
811.191	25.84
811.366	27.64
811.542	28.19
811.717	28.42
811.892	27.25
812.068	27.5
812.243	27.47
812.419	27.15
812.594	26.82
812.769	25.31
812.944	25.16
813.12	24.09
813.295	21.6
813.47	21.82
813.645	20.11
813.821	19.62
813.996	19.69
814.171	20.89
814.346	21.45
814.521	22.91
814.697	24.59
814.872	23.34
815.047	24.97
815.222	26.17
815.397	25.94
815.572	26.99
815.747	26.88
815.922	27.63
816.097	27.34
816.272	28.84
816.447	28.3
816.622	26.81
816.797	28.01
816.972	26.66
817.147	26.67
817.322	25.39
817.496	25.4
817.671	25.49
817.846	24.34
818.021	24.28
818.196	23.45
818.371	24.04
818.545	25.63
818.72	26.28
818.895	26.53
819.069	25.03
819.244	25.99
819.419	25.69
819.594	25.88
819.768	25.88
819.943	24.87
820.117	25.15
820.292	23.56
820.467	23.49
820.641	23.16
820.816	23.45
820.99	24.54
821.165	24.37
821.339	24.16
821.514	23.93
821.688	23.88
821.863	24.07
822.037	23.98
822.212	24.47
822.386	24.42
822.56	24.51
822.735	24.54
822.909	24.22
823.084	24.24
823.258	24.24
823.432	24.28
823.606	24.26
823.781	24.31
823.955	24.37
824.129	24.18
824.303	24.29
824.478	24.3
824.652	24.23
824.826	24
825	24.34
825.174	24.93
825.348	25.43
825.523	25.34
825.697	25.68
825.871	25.98
826.045	25.9
826.219	25.9
826.393	25.34
826.567	25.35
826.741	25.51
826.915	24.97
827.089	24.85
827.263	24.69
827.437	25.56
827.611	25.42
827.784	25.39
827.958	26.08
828.132	25.57
828.306	26.25
828.48	26.8
828.654	27.4
828.827	27.78
829.001	27.28
829.175	27.14
829.349	26.56
829.522	26.08
829.696	26.04
829.87	25.82
830.044	26.7
830.217	26.66
830.391	25.48
830.565	26.75
830.738	27.74
830.912	28.03
831.085	29.49
831.259	29.54
831.432	30.62
831.606	30.73
831.779	29.87
831.953	29.42
832.126	29.29
832.3	29.87
832.473	27.92
832.647	26.35
832.82	26.05
832.994	24.5
833.167	24.65
833.34	25.37
833.514	25.44
833.687	25.43
833.86	25.6
834.034	25.02
834.207	25.37
834.38	25.18
834.553	25.35
834.727	25.73
834.9	25.95
835.073	25.83
835.246	25.52
835.419	25.15
835.593	26.21
835.766	25.35
835.939	26.87
836.112	26.22
836.285	26.08
836.458	26.43
836.631	25.46
836.804	26.47
836.977	26.92
837.15	25.88
837.323	26.48
837.496	25.35
837.669	27.37
837.842	25.87
838.015	25.47
838.188	27.36
838.361	28.05
838.533	29.31
838.706	28.89
838.879	27.45
839.052	27.41
839.225	26.81
839.398	25.87
839.57	27.08
839.743	28.01
839.916	29.48
840.088	26.63
840.261	26.4
840.434	27.82
840.607	28.03
840.779	27.2
840.952	26.17
841.124	27.36
841.297	26.54
841.47	24.14
841.642	22.12
841.815	21.5
841.987	22.71
842.16	23.45
842.332	20.71
842.505	20.16
842.677	22.04
842.85	21.1
843.022	19.6
843.194	20.57
843.367	21.38
843.539	22.99
843.712	23.18
843.884	23.97
844.056	26.3
844.229	29.51
844.401	30.49
844.573	32.01
844.745	35.65
844.918	33.72
845.09	32.4
845.262	31.63
845.434	31.15
845.606	29.94
845.779	32.74
845.951	28.56
846.123	24.88
846.295	23.2
846.467	20.47
846.639	24.01
846.811	23.54
846.983	22.53
847.155	21.65
847.327	23.58
847.499	23.15
847.671	20.54
847.843	19.89
848.015	22.93
848.187	26.47
848.359	28.72
848.531	26.72
848.703	26.69
848.875	30.29
849.047	28.99
849.218	26.02
849.39	29.34
849.562	30.55
849.734	32.94
849.905	34.92
850.077	31.41
850.249	33.03
850.421	32.56
850.592	34.55
850.764	36.6
850.936	40.02
851.107	38.9
851.279	37.39
851.451	37.19
851.622	35.24
851.794	36.2
851.965	39.26
852.137	39.75
852.308	37.57
852.48	38.35
852.651	34.93
852.823	36.28
852.994	34.81
853.166	35.42
853.337	32.68
853.509	35.77
853.68	33.38
853.851	28.77
854.023	28.43
854.194	29.83
854.365	28.31
854.537	30.14
854.708	30.65
854.879	33.87
855.05	34.43
855.222	36.36
855.393	32.08
855.564	32.33
855.735	32.87
855.906	32.69
856.078	29.92
856.249	32.59
856.42	35.2
856.591	32.97
856.762	33.8
856.933	31.76
857.104	32.87
857.275	32.55
857.446	33.17
857.617	34.18
857.788	34.91
857.959	40.58
858.13	38.3
858.301	35.6
858.472	37.21
858.643	37.47
858.814	36.33
858.985	37.23
859.155	42.17
859.326	43.75
859.497	49.71
859.668	44.97
859.839	41.43
860.009	42.65
860.18	45.69
860.351	43.07
860.522	44.19
860.692	47.93
860.863	46.71
861.034	36.65
861.204	40.42
861.375	36.05
861.546	38.22
861.716	34.8
861.887	37.31
862.057	33.16
862.228	32.49
862.398	32.65
862.569	32.67
862.739	31.12
862.91	39.87
863.08	33.72
863.251	32.79
863.421	32.42
863.592	34.02
863.762	30.29
863.932	25.92
864.103	25.9
864.273	22.89
864.443	27.97
864.614	33.06
864.784	32.55
864.954	33.29
865.125	30.97
865.295	32.74
865.465	34.46
865.635	38.94
865.805	43.52
865.976	50.66
866.146	54.15
866.316	47.8
866.486	45.13
866.656	44.1
866.826	45.94
866.996	50.07
867.166	50.99
867.336	48.62
867.506	43.58
867.676	44.73
867.846	39.26
868.016	38.52
868.186	38.03
868.356	35.51
868.526	37.22
868.696	33.43
868.866	34.06
869.036	38.38
869.206	40.7
869.376	43.25
869.545	42.31
869.715	42.64
869.885	39.1
870.055	35.89
870.224	38.43
870.394	29.93
870.564	31.03
870.734	27.38
870.903	20.39
871.073	21.79
871.243	24.46
871.412	23.36
871.582	26.55
871.751	31.95
871.921	34.46
872.091	33.06
872.26	38.63
872.43	35.8
872.599	39.21
872.769	44.54
872.938	43.21
873.108	42.99
873.277	46.75
873.446	41.65
873.616	37.98
873.785	36.98
873.955	35.22
874.124	30.08
874.293	33.43
874.463	29.61
874.632	26.49
874.801	26.97
874.971	26.22
875.14	26.07
875.309	25.68
875.478	23.01
875.647	26.92
875.817	21.92
875.986	29.19
876.155	30.52
876.324	29.25
876.493	25.18
876.662	26.62
876.831	22.74
877	21.18
877.17	29.04
877.339	32.48
877.508	31.19
877.677	38.15
877.846	38
878.015	36.34
878.184	39.23
878.352	39.57
878.521	38.49
878.69	40.46
878.859	41.8
879.028	38.65
879.197	36.1
879.366	36.57
879.534	33.49
879.703	32.63
879.872	31.26
880.041	31.98
880.21	32.67
880.378	30.49
880.547	26.89
880.716	23.98
880.884	23.45
881.053	23.8
881.222	22.99
881.39	23.64
881.559	22.97
881.727	23.09
881.896	22.16
882.065	22.18
882.233	22.38
882.402	23.69
882.57	24.37
882.739	23.94
882.907	23.31
883.076	24.03
883.244	23.92
883.412	23.88
883.581	24.63
883.749	24.67
883.918	24.35
884.086	24.35
884.254	24.05
884.423	24.06
884.591	24.66
884.759	26.41
884.927	25.27
885.096	24.84
885.264	25.71
885.432	25.02
885.6	24.73
885.769	23.74
885.937	24.48
886.105	24.55
886.273	27.69
886.441	27.44
886.609	28.37
886.777	27.27
886.945	27.39
887.113	25.29
887.281	24
887.449	25.15
887.617	29.87
887.785	29.38
887.953	29.45
888.121	27.55
888.289	29.34
888.457	25.94
888.625	27.94
888.793	27.58
888.961	31.01
889.129	28.14
889.296	27.22
889.464	24.01
889.632	23.12
889.8	21.6
889.967	17.83
890.135	15.42
