Data from 2938766__Reflection_04.txt Node
Date: Fri Mar 13 16:13:20 EDT 2015
User: robert
Spectrometer: USB4E03002
Autoset integration time: false
Trigger mode: 4
Integration Time (sec): 1.000000E-1
Scans to average: 10
Electric dark correction enabled: false
Nonlinearity correction enabled: false
Boxcar width: 5
Stray light correction enabled: false
XAxis mode: Wavelengths
Stop averaging: false
Number of Pixels in Spectrum: 3648
>>>>>Begin Spectral Data<<<<<
177.575	-1066.67
177.794	-5100
178.014	-843.59
178.233	-400
178.452	-307.8
178.672	-214.75
178.891	-93.32
179.11	-35.43
179.33	-9.67
179.549	-55.56
179.768	-35.37
179.987	-59.16
180.207	-44.58
180.426	-66.88
180.645	-342.22
180.864	-1566.67
181.084	404.49
181.303	409.2
181.522	200.88
181.741	384.93
181.96	565.96
182.179	281.86
182.398	222.31
182.618	125.55
182.837	104.13
183.056	133.43
183.275	145.99
183.494	142.65
183.713	140.12
183.932	110.16
184.151	86.49
184.37	95.03
184.589	84.92
184.808	84.65
185.027	94.81
185.246	71.63
185.465	56.92
185.684	37.76
185.903	20.5
186.122	13.38
186.341	-7.34
186.56	-180.85
186.779	-81.08
186.998	166.84
187.216	209.09
187.435	-153.17
187.654	933.33
187.873	8
188.092	1633.33
188.311	96.08
188.53	53.33
188.748	48.69
188.967	67.23
189.186	20.66
189.405	23.63
189.623	9.44
189.842	-33.33
190.061	-101.96
190.28	-120.45
190.498	-212.17
190.717	-172.73
190.936	-187.57
191.154	-131
191.373	-155.31
191.592	-92.8
191.81	-84.87
192.029	-134
192.248	-115.38
192.466	-3.94
192.685	10.49
192.904	53.1
193.122	102.43
193.341	112.62
193.559	127.84
193.778	315.71
193.996	633.33
194.215	-251.22
194.433	662.07
194.652	-274.65
194.87	-42.93
195.089	-578.95
195.307	100
195.526	247.06
195.744	14.85
195.963	112.44
196.181	42.27
196.399	97.69
196.618	58.26
196.836	33.43
197.055	50.74
197.273	55.74
197.491	123.09
197.71	107.05
197.928	102.56
198.146	95.65
198.365	62.92
198.583	78.35
198.801	62.11
199.019	83.13
199.238	100.4
199.456	90.77
199.674	100.11
199.892	91.35
200.111	104.98
200.329	104.25
200.547	113.14
200.765	138.11
200.983	153.35
201.202	154.31
201.42	139.68
201.638	68.31
201.856	46.1
202.074	59.95
202.292	49
202.51	51.4
202.728	25.82
202.946	55.21
203.165	57.7
203.383	55.8
203.601	37.13
203.819	29.58
204.037	55.03
204.255	67.53
204.473	40.73
204.691	47.79
204.909	47.61
205.127	59.39
205.345	38.43
205.562	42.82
205.78	33.14
205.998	17
206.216	22.15
206.434	41.25
206.652	-13.15
206.87	-39.82
207.088	-1.12
207.306	-153.97
207.523	-231.3
207.741	-200
207.959	-137.17
208.177	-284.3
208.395	-37.65
208.612	-3.88
208.83	-26.78
209.048	17.66
209.266	17.56
209.483	15.38
209.701	24.83
209.919	55.17
210.136	58.31
210.354	89.49
210.572	104.55
210.79	117.23
211.007	150.28
211.225	160.25
211.442	187.76
211.66	155.21
211.878	103.11
212.095	4.89
212.313	-5.38
212.53	-15.3
212.748	-24.26
212.966	-44.36
213.183	-51.85
213.401	-80.06
213.618	-73.68
213.836	-59.6
214.053	-68.62
214.271	-83.37
214.488	47.61
214.705	81.67
214.923	114.5
215.14	88.01
215.358	32.79
215.575	56.99
215.793	57.33
216.01	46.79
216.227	44.7
216.445	36.08
216.662	0.76
216.879	9.37
217.097	7.94
217.314	-2.59
217.531	21.77
217.749	34.82
217.966	27.32
218.183	14.65
218.4	8.01
218.618	8.75
218.835	15.54
219.052	32.48
219.269	29.99
219.487	34.89
219.704	35.01
219.921	33.88
220.138	19.93
220.355	14.79
220.572	23.32
220.79	34.14
221.007	39.48
221.224	44.59
221.441	39.54
221.658	37.16
221.875	32.71
222.092	38.13
222.309	36.95
222.526	46.24
222.743	41.94
222.96	39.96
223.177	32.81
223.394	28.63
223.611	23.46
223.828	17.81
224.045	15.52
224.262	11.04
224.479	7.99
224.696	2.47
224.913	1.41
225.13	1.66
225.347	6.69
225.564	4.15
225.781	1.72
225.997	4.74
226.214	6.44
226.431	8.98
226.648	5.83
226.865	6.05
227.082	6.18
227.298	3.67
227.515	4.02
227.732	1.57
227.949	2.45
228.165	3.17
228.382	2.26
228.599	1.89
228.816	1.71
229.032	2.92
229.249	2.74
229.466	3.64
229.682	4.34
229.899	4.67
230.116	4.55
230.332	4.56
230.549	4.4
230.765	4.67
230.982	5.19
231.199	5.22
231.415	6.49
231.632	7.43
231.848	6.36
232.065	6.61
232.281	8.09
232.498	8.26
232.714	8.14
232.931	8.16
233.147	10.13
233.364	10.11
233.58	9.09
233.797	6.93
234.013	5.64
234.23	5.99
234.446	4.91
234.662	4.48
234.879	4.22
235.095	4.58
235.312	4.24
235.528	0.33
235.744	0.33
235.961	1.63
236.177	2.07
236.393	2.98
236.61	1.34
236.826	4.23
237.042	3.31
237.258	4.62
237.475	7.05
237.691	6.64
237.907	6.06
238.123	7.13
238.339	7.56
238.556	9.15
238.772	8.02
238.988	8.82
239.204	7.98
239.42	8.03
239.636	7.2
239.853	5.58
240.069	5.61
240.285	6.43
240.501	5.08
240.717	4.12
240.933	3.52
241.149	3.07
241.365	3.25
241.581	2.91
241.797	3.19
242.013	3.09
242.229	2.21
242.445	2.12
242.661	2.81
242.877	3.17
243.093	3.02
243.309	2.67
243.525	2.65
243.741	3.42
243.957	3.71
244.173	3.32
244.388	3.81
244.604	4.48
244.82	5.04
245.036	5.29
245.252	4.85
245.468	5.44
245.683	5.85
245.899	5.96
246.115	5.35
246.331	5.19
246.547	5.09
246.762	4.7
246.978	5.12
247.194	4.8
247.409	4.66
247.625	4.74
247.841	4.72
248.057	4.37
248.272	4.45
248.488	4.19
248.703	4.19
248.919	4.31
249.135	4.17
249.35	3.9
249.566	4.16
249.782	3.6
249.997	3.29
250.213	3.6
250.428	4.08
250.644	4.83
250.859	5.01
251.075	4.45
251.29	3.96
251.506	4.64
251.721	3.87
251.937	3.77
252.152	3.89
252.368	4.01
252.583	3.4
252.798	3.68
253.014	3.29
253.229	4
253.445	4.42
253.66	4.74
253.875	4.04
254.091	4.46
254.306	4.64
254.521	5.01
254.737	5.42
254.952	4.6
255.167	4.15
255.383	3.38
255.598	2.17
255.813	1.43
256.028	2.43
256.244	1.91
256.459	1.7
256.674	1.1
256.889	0.93
257.104	1.36
257.32	2.24
257.535	2.05
257.75	1.89
257.965	2.03
258.18	2.56
258.395	2.34
258.61	3.03
258.826	3.2
259.041	3.27
259.256	3.23
259.471	3.09
259.686	3.1
259.901	3.15
260.116	3.47
260.331	3.51
260.546	3.29
260.761	3.26
260.976	3.21
261.191	3.4
261.406	3.93
261.621	4.05
261.836	4.04
262.05	4.04
262.265	3.96
262.48	3.52
262.695	3.4
262.91	4.31
263.125	3.99
263.34	4.34
263.555	3.56
263.769	3.47
263.984	2.66
264.199	2.45
264.414	2.35
264.629	2.63
264.843	2.88
265.058	3.42
265.273	2.83
265.488	3.29
265.702	3.14
265.917	3.53
266.132	3.18
266.346	3.91
266.561	3.93
266.776	3.87
266.99	3.7
267.205	3.73
267.42	3.17
267.634	3.23
267.849	3.24
268.063	3.61
268.278	3.4
268.492	3.23
268.707	2.76
268.922	2.68
269.136	3.09
269.351	3.39
269.565	2.92
269.78	3.17
269.994	3.25
270.209	3.07
270.423	2.68
270.637	2.89
270.852	2.99
271.066	2.83
271.281	2.96
271.495	2.67
271.709	2.24
271.924	2.38
272.138	2.5
272.353	2.24
272.567	2.07
272.781	2.19
272.996	1.94
273.21	1.82
273.424	2.08
273.638	1.85
273.853	1.94
274.067	2.41
274.281	2.6
274.495	2.53
274.71	2.33
274.924	2.26
275.138	1.69
275.352	1.63
275.566	1.58
275.781	1.52
275.995	1.4
276.209	1.44
276.423	1.23
276.637	1.44
276.851	1.67
277.065	1.91
277.279	2.46
277.493	2.53
277.707	2.71
277.921	2.6
278.135	2.99
278.349	2.84
278.563	3.19
278.777	3.27
278.991	2.85
279.205	2.42
279.419	2.16
279.633	1.93
279.847	1.97
280.061	2.04
280.275	2.15
280.489	1.78
280.703	2.46
280.917	1.93
281.131	1.88
281.344	1.64
281.558	1.78
281.772	2.1
281.986	2.17
282.2	2.27
282.414	2.5
282.627	2.81
282.841	3.24
283.055	3.06
283.269	3.15
283.482	3.04
283.696	3.45
283.91	3.43
284.123	3.15
284.337	2.9
284.551	3.23
284.764	3.05
284.978	2.81
285.192	2.49
285.405	2.77
285.619	2.8
285.833	2.69
286.046	2.54
286.26	2.1
286.473	2.34
286.687	2.37
286.9	2.17
287.114	2.21
287.327	2.15
287.541	2.14
287.754	1.75
287.968	1.86
288.181	2
288.395	1.79
288.608	2.43
288.822	2.11
289.035	2.03
289.248	1.89
289.462	1.71
289.675	1.7
289.889	1.96
290.102	1.85
290.315	1.74
290.529	1.82
290.742	2.05
290.955	1.86
291.169	1.83
291.382	1.72
291.595	1.58
291.808	2.05
292.022	1.57
292.235	1.59
292.448	2.28
292.661	2.3
292.875	2.44
293.088	2.46
293.301	2.54
293.514	3
293.727	3.05
293.94	3.3
294.153	3.3
294.367	3.78
294.58	3.74
294.793	3.24
295.006	3.36
295.219	3.04
295.432	3.1
295.645	2.99
295.858	2.71
296.071	2.98
296.284	3.09
296.497	3.27
296.71	3.26
296.923	3.27
297.136	3.39
297.349	3.44
297.562	3.62
297.775	3.42
297.988	3.65
298.201	3.64
298.414	3.73
298.626	3.86
298.839	3.7
299.052	3.51
299.265	3.49
299.478	3.45
299.691	3.3
299.903	3.19
300.116	3.58
300.329	3.43
300.542	3.48
300.755	3.18
300.967	2.86
301.18	2.44
301.393	3.11
301.605	2.97
301.818	2.83
302.031	2.71
302.243	2.96
302.456	2.86
302.669	2.88
302.881	3.05
303.094	3.15
303.307	3.2
303.519	2.99
303.732	2.94
303.944	3.18
304.157	3.45
304.37	3.69
304.582	3.55
304.795	3.5
305.007	3.52
305.22	3.62
305.432	3.15
305.645	3.35
305.857	3.86
306.069	3.73
306.282	3.51
306.494	3.36
306.707	3.24
306.919	3.32
307.132	3.15
307.344	3.26
307.556	3.16
307.769	3.77
307.981	3.38
308.193	3.37
308.406	3.39
308.618	3.7
308.83	3.63
309.043	3.63
309.255	3.65
309.467	3.69
309.679	3.55
309.892	3.76
310.104	3.77
310.316	4.19
310.528	4.13
310.74	3.88
310.953	3.8
311.165	3.95
311.377	4.06
311.589	4.03
311.801	4.16
312.013	4.09
312.225	4.04
312.437	4.13
312.649	3.99
312.862	3.89
313.074	3.95
313.286	3.65
313.498	3.7
313.71	3.52
313.922	3.81
314.134	3.65
314.346	3.99
314.558	3.97
314.77	4.33
314.982	4.21
315.193	4.28
315.405	4.26
315.617	4.55
315.829	4.47
316.041	4.6
316.253	4.06
316.465	4.2
316.677	4.43
316.888	4.6
317.1	4.11
317.312	4.26
317.524	4.03
317.736	4.32
317.947	4.34
318.159	4.44
318.371	4.57
318.583	5.05
318.794	5.07
319.006	4.87
319.218	4.39
319.43	4.09
319.641	3.92
319.853	4.4
320.064	4.64
320.276	5.01
320.488	4.8
320.699	4.66
320.911	4.36
321.123	4.65
321.334	4.51
321.546	4.85
321.757	5.54
321.969	5.72
322.18	5.65
322.392	5.44
322.603	4.94
322.815	5.14
323.026	5.01
323.238	4.77
323.449	4.66
323.661	4.63
323.872	4.62
324.083	4.47
324.295	4.37
324.506	4.39
324.718	4.16
324.929	4.25
325.14	4.19
325.352	4.48
325.563	4.69
325.774	4.78
325.986	4.84
326.197	4.93
326.408	4.63
326.62	5.01
326.831	4.92
327.042	5.28
327.253	5.05
327.464	5.21
327.676	5.4
327.887	5.48
328.098	5.52
328.309	5.76
328.52	5.56
328.732	5.84
328.943	5.36
329.154	5.21
329.365	5
329.576	5.25
329.787	5.14
329.998	5.13
330.209	5.32
330.42	5.27
330.631	5.27
330.842	5.36
331.053	5.49
331.264	5.75
331.475	5.89
331.686	6.13
331.897	6.49
332.108	6.46
332.319	6.32
332.53	6.17
332.741	6.16
332.952	6.3
333.163	6.48
333.374	6.65
333.585	6.47
333.795	6.9
334.006	6.7
334.217	6.63
334.428	6.73
334.639	6.49
334.849	6.35
335.06	6.25
335.271	5.85
335.482	6.19
335.692	6.01
335.903	6.43
336.114	6.41
336.325	6.56
336.535	6.16
336.746	5.97
336.957	6.06
337.167	6.06
337.378	6.39
337.589	6.53
337.799	6.34
338.01	6.23
338.22	5.84
338.431	5.46
338.642	5.4
338.852	5.76
339.063	5.74
339.273	6.09
339.484	6.27
339.694	6.25
339.905	6.33
340.115	5.97
340.326	5.96
340.536	5.97
340.746	6.38
340.957	6.34
341.167	6.28
341.378	6.59
341.588	6.44
341.799	6.31
342.009	6.13
342.219	6.01
342.43	6.04
342.64	6.21
342.85	6.23
343.061	6.31
343.271	6.24
343.481	5.97
343.691	5.91
343.902	5.9
344.112	6.04
344.322	6.19
344.532	6.27
344.743	6.45
344.953	6.27
345.163	6.32
345.373	6.12
345.583	6.31
345.793	6.28
346.004	6.21
346.214	6.08
346.424	6.19
346.634	6.16
346.844	6.43
347.054	6.51
347.264	6.6
347.474	6.56
347.684	6.25
347.894	6.03
348.104	6.36
348.314	6.6
348.524	6.4
348.734	5.98
348.944	5.68
349.154	5.26
349.364	5.08
349.574	5.09
349.784	5.39
349.994	5.28
350.204	5.26
350.413	5.22
350.623	5.01
350.833	5.45
351.043	5.7
351.253	5.76
351.463	5.91
351.672	5.86
351.882	5.83
352.092	5.63
352.302	5.9
352.511	6.09
352.721	6.12
352.931	6.17
353.141	6.12
353.35	5.93
353.56	6.14
353.77	5.94
353.979	6.36
354.189	6.49
354.399	6.91
354.608	7.03
354.818	6.87
355.027	6.72
355.237	6.83
355.447	6.63
355.656	6.65
355.866	6.51
356.075	6.43
356.285	6.16
356.494	6.11
356.704	5.67
356.913	5.76
357.123	5.81
357.332	5.87
357.542	5.79
357.751	6
357.96	6.11
358.17	6.02
358.379	6.38
358.589	6.33
358.798	6.25
359.007	6.17
359.217	5.98
359.426	5.9
359.635	5.8
359.845	5.77
360.054	5.63
360.263	5.48
360.472	5.32
360.682	5.15
360.891	5.12
361.1	5.02
361.309	5.04
361.519	5.15
361.728	5.13
361.937	5.13
362.146	4.96
362.355	4.96
362.564	5.04
362.774	5.25
362.983	5.26
363.192	5.19
363.401	5.33
363.61	5.4
363.819	5.46
364.028	5.39
364.237	5.21
364.446	5.42
364.655	5.14
364.864	5.1
365.073	4.95
365.282	4.91
365.491	5
365.7	5.07
365.909	5.14
366.118	4.77
366.327	4.81
366.536	5.14
366.745	4.93
366.954	5.23
367.162	5.19
367.371	5.46
367.58	5.51
367.789	5.54
367.998	5.3
368.207	5.35
368.415	5.31
368.624	5.41
368.833	5.11
369.042	5.12
369.25	4.9
369.459	5.17
369.668	4.88
369.877	4.68
370.085	4.54
370.294	4.72
370.503	4.65
370.711	4.82
370.92	4.67
371.129	5.08
371.337	5.25
371.546	5.4
371.754	5.2
371.963	5.32
372.171	5.34
372.38	5.3
372.589	5.16
372.797	5.17
373.006	5.1
373.214	5.2
373.423	4.95
373.631	4.93
373.84	4.69
374.048	4.75
374.256	4.75
374.465	4.92
374.673	4.98
374.882	5.09
375.09	5.06
375.298	4.98
375.507	5.04
375.715	5.06
375.923	5.04
376.132	5.24
376.34	5.24
376.548	5.28
376.757	5.13
376.965	5.25
377.173	5.17
377.381	5.22
377.59	5.45
377.798	5.48
378.006	5.49
378.214	5.37
378.423	5.4
378.631	5.45
378.839	5.41
379.047	5.44
379.255	5.43
379.463	5.34
379.671	5.26
379.879	5.07
380.088	4.99
380.296	5.03
380.504	5.04
380.712	5.07
380.92	4.94
381.128	5.07
381.336	5.07
381.544	5.05
381.752	5.03
381.96	4.95
382.168	5.06
382.376	4.96
382.584	4.89
382.791	4.91
382.999	4.77
383.207	4.96
383.415	4.8
383.623	4.76
383.831	4.54
384.039	4.76
384.247	4.81
384.454	4.89
384.662	4.94
384.87	4.85
385.078	4.81
385.285	4.91
385.493	4.75
385.701	4.71
385.909	4.62
386.116	4.78
386.324	4.54
386.532	4.53
386.739	4.45
386.947	4.39
387.155	4.3
387.362	4.27
387.57	4.15
387.778	3.99
387.985	4.16
388.193	4.17
388.4	4.01
388.608	4.09
388.816	3.92
389.023	3.95
389.231	4.21
389.438	4.28
389.646	4.14
389.853	3.99
390.061	4.15
390.268	3.92
390.475	3.96
390.683	4.11
390.89	4.04
391.098	4.33
391.305	4.09
391.512	4.02
391.72	4.02
391.927	4.26
392.135	4.19
392.342	4.04
392.549	4.22
392.756	4.13
392.964	4.05
393.171	4.15
393.378	3.92
393.586	4.07
393.793	3.92
394	4.13
394.207	4.1
394.414	4.19
394.622	4.21
394.829	4.18
395.036	4.38
395.243	4.31
395.45	4.2
395.657	4.23
395.864	4.23
396.072	4.21
396.279	3.95
396.486	3.89
396.693	4.04
396.9	4.15
397.107	4.3
397.314	4.18
397.521	4.07
397.728	4.17
397.935	4.12
398.142	4.12
398.349	4.08
398.556	3.97
398.763	4.14
398.97	4.13
399.177	4.23
399.383	3.91
399.59	4.01
399.797	4.09
400.004	4.05
400.211	3.82
400.418	3.6
400.625	3.61
400.831	3.76
401.038	3.49
401.245	3.52
401.452	3.34
401.658	3.29
401.865	3.23
402.072	3.28
402.279	3.32
402.485	3.45
402.692	3.8
402.899	3.75
403.105	3.73
403.312	3.81
403.519	3.69
403.725	3.57
403.932	3.72
404.138	3.76
404.345	3.77
404.552	3.66
404.758	3.7
404.965	3.46
405.171	3.4
405.378	3.25
405.584	3.38
405.791	3.39
405.997	3.41
406.204	3.26
406.41	3.12
406.617	3.14
406.823	3.1
407.029	3.04
407.236	2.98
407.442	3.06
407.649	3.25
407.855	2.94
408.061	3.04
408.268	3.03
408.474	3.05
408.68	3.15
408.887	3.27
409.093	3.47
409.299	3.65
409.505	3.7
409.712	3.85
409.918	3.88
410.124	3.96
410.33	3.83
410.537	3.83
410.743	3.99
410.949	3.87
411.155	3.61
411.361	3.5
411.567	3.3
411.773	3.46
411.98	3.47
412.186	3.45
412.392	3.43
412.598	3.22
412.804	3.36
413.01	3.2
413.216	3.49
413.422	3.73
413.628	3.66
413.834	3.74
414.04	3.75
414.246	3.63
414.452	3.5
414.658	3.44
414.864	3.52
415.07	3.41
415.275	3.53
415.481	3.42
415.687	3.32
415.893	3.36
416.099	3.4
416.305	3.18
416.511	3.15
416.716	3.09
416.922	3.19
417.128	3.28
417.334	3.29
417.539	3.33
417.745	3.34
417.951	3.34
418.157	3.33
418.362	3.29
418.568	3.46
418.774	3.58
418.979	3.6
419.185	3.61
419.391	3.62
419.596	3.64
419.802	3.61
420.008	3.57
420.213	4.14
420.419	4.13
420.624	4.1
420.83	4
421.035	3.86
421.241	3.85
421.446	3.89
421.652	3.87
421.857	3.83
422.063	3.79
422.268	3.77
422.474	3.15
422.679	3.11
422.885	2.97
423.09	2.96
423.295	2.91
423.501	2.92
423.706	2.95
423.911	2.91
424.117	2.96
424.322	2.9
424.527	2.92
424.733	2.97
424.938	3.06
425.143	3.23
425.349	3.33
425.554	3.49
425.759	3.5
425.964	3.47
426.169	3.53
426.375	3.48
426.58	3.58
426.785	3.55
426.99	3.6
427.195	3.46
427.4	3.51
427.605	3.38
427.811	3.18
428.016	3.3
428.221	3.23
428.426	3.12
428.631	3.18
428.836	3.22
429.041	3.22
429.246	3.31
429.451	3.33
429.656	3.28
429.861	3.31
430.066	3.44
430.271	3.35
430.476	3.3
430.681	3.42
430.886	3.44
431.09	3.31
431.295	3.25
431.5	3.2
431.705	3.33
431.91	3.31
432.115	3.33
432.32	3.31
432.524	3.33
432.729	3.39
432.934	3.47
433.139	3.47
433.343	3.36
433.548	3.39
433.753	3.25
433.958	3.24
434.162	3.35
434.367	3.45
434.572	3.44
434.776	3.55
434.981	3.54
435.186	3.44
435.39	3.48
435.595	3.68
435.799	3.68
436.004	3.78
436.209	3.71
436.413	3.58
436.618	3.45
436.822	3.49
437.027	3.45
437.231	3.42
437.436	3.46
437.64	3.42
437.845	3.44
438.049	3.43
438.253	3.5
438.458	3.49
438.662	3.53
438.867	3.55
439.071	3.47
439.275	3.38
439.48	3.47
439.684	3.5
439.888	3.49
440.093	3.43
440.297	3.53
440.501	3.51
440.706	3.48
440.91	3.42
441.114	3.43
441.318	3.5
441.523	3.53
441.727	3.56
441.931	3.54
442.135	3.55
442.339	3.55
442.543	3.46
442.748	3.43
442.952	3.51
443.156	3.6
443.36	3.66
443.564	3.71
443.768	3.7
443.972	3.67
444.176	3.69
444.38	3.75
444.584	3.75
444.788	3.68
444.992	3.73
445.196	3.74
445.4	3.68
445.604	3.66
445.808	3.61
446.012	3.63
446.216	3.54
446.42	3.51
446.624	3.55
446.828	3.56
447.032	3.62
447.235	3.57
447.439	3.54
447.643	3.58
447.847	3.54
448.051	3.53
448.254	3.56
448.458	3.64
448.662	3.6
448.866	3.51
449.069	3.53
449.273	3.49
449.477	3.61
449.681	3.68
449.884	3.73
450.088	3.67
450.292	3.61
450.495	3.55
450.699	3.48
450.902	3.57
451.106	3.65
451.31	3.62
451.513	3.73
451.717	3.64
451.92	3.65
452.124	3.61
452.327	3.74
452.531	3.82
452.734	3.8
452.938	3.84
453.141	3.71
453.345	3.63
453.548	3.61
453.752	3.56
453.955	3.56
454.158	3.47
454.362	3.45
454.565	3.39
454.769	3.45
454.972	3.53
455.175	3.47
455.379	3.58
455.582	3.6
455.785	3.64
455.988	3.76
456.192	3.71
456.395	3.79
456.598	3.8
456.801	3.69
457.005	3.67
457.208	3.66
457.411	3.73
457.614	3.7
457.817	3.69
458.021	3.6
458.224	3.47
458.427	3.41
458.63	3.39
458.833	3.42
459.036	3.46
459.239	3.49
459.442	3.39
459.645	3.34
459.848	3.3
460.051	3.26
460.254	3.32
460.457	3.34
460.66	3.44
460.863	3.5
461.066	3.49
461.269	3.54
461.472	3.56
461.675	3.61
461.878	3.64
462.081	3.7
462.284	3.79
462.486	3.8
462.689	3.82
462.892	3.71
463.095	3.63
463.298	3.61
463.5	3.5
463.703	3.5
463.906	3.58
464.109	3.55
464.311	3.47
464.514	3.33
464.717	3.31
464.92	3.18
465.122	3.29
465.325	3.36
465.528	3.36
465.73	3.44
465.933	3.31
466.135	3.32
466.338	3.3
466.541	3.4
466.743	3.44
466.946	3.5
467.148	3.67
467.351	3.69
467.553	3.59
467.756	3.71
467.958	3.63
468.161	3.64
468.363	3.64
468.566	3.69
468.768	3.67
468.971	3.7
469.173	3.69
469.375	3.67
469.578	3.72
469.78	3.76
469.983	3.61
470.185	3.83
470.387	3.89
470.59	3.91
470.792	3.93
470.994	4
471.196	4.05
471.399	4.01
471.601	3.96
471.803	3.85
472.005	3.95
472.208	3.98
472.41	3.93
472.612	3.89
472.814	3.85
473.016	3.84
473.218	3.78
473.421	3.73
473.623	3.75
473.825	3.74
474.027	3.72
474.229	3.68
474.431	3.69
474.633	3.71
474.835	3.74
475.037	3.74
475.239	3.81
475.441	3.79
475.643	3.77
475.845	3.73
476.047	3.73
476.249	3.77
476.451	3.74
476.653	3.73
476.855	3.7
477.057	3.7
477.258	3.72
477.46	3.65
477.662	3.67
477.864	3.67
478.066	3.68
478.268	3.73
478.469	3.67
478.671	3.59
478.873	3.6
479.075	3.53
479.276	3.5
479.478	3.46
479.68	3.46
479.882	3.41
480.083	3.44
480.285	3.43
480.487	3.41
480.688	3.51
480.89	3.56
481.091	3.55
481.293	3.56
481.495	3.57
481.696	3.58
481.898	3.59
482.099	3.61
482.301	3.6
482.502	3.58
482.704	3.57
482.905	3.53
483.107	3.48
483.308	3.49
483.51	3.51
483.711	3.52
483.913	3.52
484.114	3.51
484.315	3.5
484.517	3.48
484.718	3.5
484.92	3.51
485.121	3.52
485.322	3.54
485.524	3.53
485.725	3.56
485.926	3.55
486.127	3.57
486.329	3.6
486.53	3.61
486.731	3.6
486.932	3.55
487.134	3.51
487.335	3.53
487.536	3.5
487.737	3.52
487.938	3.49
488.139	3.49
488.341	3.47
488.542	3.42
488.743	3.43
488.944	3.44
489.145	3.48
489.346	3.52
489.547	3.5
489.748	3.56
489.949	3.55
490.15	3.53
490.351	3.52
490.552	3.53
490.753	3.56
490.954	3.57
491.155	3.58
491.356	3.61
491.557	3.56
491.758	3.58
491.959	3.58
492.159	3.57
492.36	3.58
492.561	3.62
492.762	3.61
492.963	3.61
493.164	3.59
493.364	3.6
493.565	3.58
493.766	3.7
493.967	3.71
494.167	3.73
494.368	3.76
494.569	3.81
494.769	3.79
494.97	3.83
495.171	3.81
495.371	3.92
495.572	3.98
495.773	3.97
495.973	3.99
496.174	3.99
496.375	3.95
496.575	3.93
496.776	3.96
496.976	4.01
497.177	3.98
497.377	4.07
497.578	4.02
497.778	4.01
497.979	4.04
498.179	4.03
498.38	4.1
498.58	4.15
498.78	4.19
498.981	4.16
499.181	4.14
499.382	4.16
499.582	4.22
499.782	4.23
499.983	4.2
500.183	4.26
500.383	4.21
500.584	4.1
500.784	4.1
500.984	4.12
501.184	4.16
501.385	4.15
501.585	4.14
501.785	4.03
501.985	4.04
502.185	4.06
502.386	4.15
502.586	4.26
502.786	4.31
502.986	4.41
503.186	4.51
503.386	4.54
503.586	4.55
503.786	4.59
503.987	4.64
504.187	4.73
504.387	4.76
504.587	4.63
504.787	4.58
504.987	4.6
505.187	4.55
505.387	4.45
505.587	4.41
505.786	4.45
505.986	4.54
506.186	4.62
506.386	4.55
506.586	4.6
506.786	4.66
506.986	4.7
507.186	4.71
507.386	4.73
507.585	4.82
507.785	4.83
507.985	4.84
508.185	4.86
508.384	4.85
508.584	4.96
508.784	5.01
508.984	5.03
509.183	5.08
509.383	5.14
509.583	5.18
509.782	5.24
509.982	5.3
510.182	5.41
510.381	5.35
510.581	5.37
510.781	5.34
510.98	5.32
511.18	5.4
511.379	5.38
511.579	5.39
511.778	5.38
511.978	5.38
512.177	5.43
512.377	5.42
512.576	5.43
512.776	5.41
512.975	5.45
513.175	5.48
513.374	5.45
513.573	5.5
513.773	5.54
513.972	5.64
514.172	5.64
514.371	5.69
514.57	5.66
514.77	5.73
514.969	5.77
515.168	5.82
515.367	5.83
515.567	5.91
515.766	5.97
515.965	6.04
516.164	5.98
516.364	5.94
516.563	5.93
516.762	5.98
516.961	5.96
517.16	6.01
517.359	6.04
517.559	6.08
517.758	6.08
517.957	6.04
518.156	6.06
518.355	6.14
518.554	6.28
518.753	6.34
518.952	6.38
519.151	6.47
519.35	6.57
519.549	6.65
519.748	6.67
519.947	6.74
520.146	6.9
520.345	6.9
520.544	6.96
520.743	6.98
520.942	7.04
521.141	7.12
521.339	7.23
521.538	7.28
521.737	7.32
521.936	7.49
522.135	7.49
522.333	7.49
522.532	7.58
522.731	7.68
522.93	7.69
523.129	7.66
523.327	7.7
523.526	7.65
523.725	7.65
523.923	7.6
524.122	7.58
524.321	7.64
524.519	7.65
524.718	7.69
524.917	7.69
525.115	7.75
525.314	7.8
525.512	7.82
525.711	7.93
525.909	7.97
526.108	8.02
526.306	8.04
526.505	8.1
526.703	8.15
526.902	8.16
527.1	8.13
527.299	8.13
527.497	8.14
527.696	8.15
527.894	8.14
528.092	8.15
528.291	8.16
528.489	8.19
528.688	8.19
528.886	8.19
529.084	8.24
529.283	8.3
529.481	8.34
529.679	8.42
529.877	8.44
530.076	8.5
530.274	8.57
530.472	8.69
530.67	8.73
530.869	8.82
531.067	8.96
531.265	8.95
531.463	9.01
531.661	9.06
531.859	9.07
532.057	9.15
532.255	9.19
532.454	9.23
532.652	9.24
532.85	9.31
533.048	9.36
533.246	9.39
533.444	9.44
533.642	9.48
533.84	9.53
534.038	9.58
534.236	9.62
534.434	9.64
534.632	9.71
534.83	9.74
535.027	9.79
535.225	9.82
535.423	9.88
535.621	9.96
535.819	10.06
536.017	10.11
536.215	10.19
536.412	10.25
536.61	10.32
536.808	10.35
537.006	10.42
537.203	10.48
537.401	10.56
537.599	10.66
537.797	10.8
537.994	10.9
538.192	10.98
538.39	11
538.587	11.1
538.785	11.19
538.983	11.23
539.18	11.34
539.378	11.42
539.575	11.48
539.773	11.57
539.97	11.58
540.168	11.59
540.366	11.66
540.563	11.78
540.761	11.86
540.958	11.94
541.155	11.98
541.353	12.01
541.55	12.07
541.748	12.12
541.945	12.14
542.143	12.21
542.34	12.3
542.537	12.37
542.735	12.46
542.932	12.61
543.129	12.73
543.327	12.95
543.524	13.18
543.721	13.42
543.919	13.63
544.116	13.88
544.313	14.14
544.51	14.35
544.708	14.63
544.905	14.83
545.102	14.99
545.299	15.15
545.496	15.27
545.693	15.37
545.891	15.36
546.088	15.41
546.285	15.42
546.482	15.38
546.679	15.39
546.876	15.35
547.073	15.3
547.27	15.18
547.467	15.18
547.664	15.12
547.861	15.04
548.058	15.01
548.255	14.93
548.452	14.9
548.649	14.86
548.846	14.89
549.043	14.76
549.24	14.78
549.437	14.84
549.633	14.78
549.83	14.72
550.027	14.71
550.224	14.81
550.421	14.92
550.618	14.86
550.814	14.84
551.011	14.76
551.208	14.85
551.405	14.83
551.601	14.83
551.798	14.85
551.995	14.91
552.191	14.83
552.388	14.75
552.585	14.69
552.781	14.71
552.978	14.77
553.175	14.86
553.371	14.92
553.568	14.9
553.764	14.91
553.961	14.95
554.157	14.94
554.354	15.09
554.55	15.13
554.747	15.16
554.943	15.14
555.14	15.18
555.336	15.19
555.533	15.16
555.729	15.23
555.926	15.32
556.122	15.39
556.318	15.45
556.515	15.53
556.711	15.49
556.907	15.6
557.104	15.74
557.3	15.74
557.496	15.79
557.693	15.91
557.889	15.89
558.085	15.93
558.281	15.89
558.478	15.92
558.674	15.99
558.87	15.99
559.066	16.04
559.262	16.03
559.459	16.12
559.655	16.09
559.851	16.07
560.047	16.08
560.243	16.04
560.439	16.13
560.635	16.12
560.831	16.02
561.027	16.19
561.223	16.21
561.419	16.26
561.615	16.14
561.811	16.19
562.007	16.24
562.203	16.46
562.399	16.54
562.595	16.65
562.791	16.82
562.987	16.99
563.183	17
563.379	17.1
563.575	17.1
563.771	17.32
563.966	17.43
564.162	17.37
564.358	17.22
564.554	17.37
564.75	17.36
564.945	17.23
565.141	17.12
565.337	17.08
565.533	17.11
565.728	17.06
565.924	17.06
566.12	17.06
566.315	17.17
566.511	17.29
566.707	17.23
566.902	17.18
567.098	17.26
567.293	17.29
567.489	17.44
567.684	17.5
567.88	17.66
568.076	17.6
568.271	17.63
568.467	17.58
568.662	17.64
568.858	17.54
569.053	17.64
569.248	17.64
569.444	17.67
569.639	17.72
569.835	17.53
570.03	17.59
570.225	17.75
570.421	17.82
570.616	18
570.812	17.95
571.007	18.11
571.202	18.11
571.397	18.15
571.593	18.24
571.788	18.22
571.983	18.41
572.178	18.43
572.374	18.48
572.569	18.39
572.764	18.41
572.959	18.47
573.154	18.51
573.35	18.58
573.545	18.66
573.74	18.76
573.935	18.73
574.13	18.71
574.325	18.7
574.52	18.6
574.715	18.82
574.91	18.94
575.105	19.05
575.3	19.15
575.495	19.26
575.69	19.33
575.885	19.42
576.08	19.69
576.275	19.78
576.47	20.07
576.665	20.32
576.86	20.43
577.055	20.42
577.25	20.62
577.444	20.83
577.639	20.96
577.834	21.26
578.029	21.41
578.224	21.45
578.418	21.7
578.613	21.7
578.808	21.78
579.003	21.8
579.197	21.9
579.392	21.9
579.587	21.96
579.781	21.98
579.976	21.98
580.171	21.86
580.365	21.9
580.56	22.06
580.755	21.99
580.949	22.05
581.144	22.26
581.338	22.38
581.533	22.35
581.727	22.24
581.922	22.29
582.116	22.27
582.311	22.48
582.505	22.48
582.7	22.39
582.894	22.61
583.089	22.5
583.283	22.46
583.478	22.47
583.672	22.51
583.866	22.55
584.061	22.55
584.255	22.55
584.449	22.53
584.644	22.69
584.838	22.63
585.032	22.65
585.226	23.03
585.421	23.06
585.615	23.1
585.809	23.25
586.003	23.48
586.198	23.52
586.392	23.54
586.586	23.67
586.78	23.59
586.974	23.57
587.168	23.52
587.363	23.28
587.557	23.16
587.751	23.04
587.945	22.82
588.139	22.71
588.333	22.71
588.527	22.63
588.721	22.45
588.915	22.24
589.109	22.06
589.303	22.05
589.497	22.16
589.691	22.2
589.885	22.36
590.079	22.37
590.273	22.37
590.466	22.53
590.66	22.64
590.854	22.71
591.048	22.96
591.242	23.3
591.436	23.46
591.629	23.48
591.823	23.6
592.017	23.66
592.211	23.88
592.404	23.85
592.598	23.7
592.792	23.68
592.986	23.62
593.179	23.56
593.373	23.39
593.567	23.28
593.76	23.14
593.954	23.04
594.147	22.8
594.341	22.69
594.535	22.72
594.728	22.61
594.922	22.57
595.115	22.65
595.309	22.63
595.502	22.55
595.696	22.41
595.889	22.43
596.083	22.34
596.276	22.32
596.47	22.25
596.663	22.13
596.856	22.22
597.05	22.28
597.243	22.31
597.437	22.34
597.63	22.38
597.823	22.51
598.017	22.6
598.21	22.77
598.403	22.99
598.596	23.13
598.79	23.4
598.983	23.5
599.176	23.59
599.369	23.53
599.563	23.59
599.756	23.79
599.949	23.8
600.142	23.74
600.335	23.56
600.528	23.41
600.722	23.46
600.915	23.22
601.108	23.12
601.301	23.11
601.494	23.07
601.687	22.95
601.88	22.88
602.073	22.85
602.266	22.82
602.459	22.88
602.652	22.84
602.845	22.59
603.038	22.51
603.231	22.41
603.424	22.24
603.617	22.27
603.809	22.2
604.002	22.14
604.195	21.96
604.388	21.91
604.581	21.86
604.774	21.94
604.966	22.15
605.159	22.23
605.352	22.37
605.545	22.49
605.737	22.53
605.93	22.58
606.123	22.71
606.316	23.03
606.508	23.18
606.701	23.43
606.894	23.57
607.086	23.73
607.279	23.81
607.471	23.96
607.664	24.18
607.857	24.54
608.049	25.19
608.242	25.62
608.434	26.4
608.627	27.46
608.819	28.55
609.012	29.78
609.204	31.13
609.397	32.66
609.589	34.25
609.782	35.92
609.974	37.55
610.166	39.33
610.359	41.13
610.551	42.61
610.743	43.9
610.936	44.97
611.128	45.78
611.32	46.37
611.513	46.82
611.705	46.86
611.897	46.83
612.09	46.54
612.282	45.75
612.474	44.95
612.666	44.14
612.858	43.05
613.051	42.14
613.243	41.24
613.435	40.39
613.627	39.73
613.819	39.22
614.011	38.29
614.203	37.62
614.395	36.93
614.588	36.12
614.78	35.18
614.972	34.77
615.164	34.32
615.356	33.66
615.548	33.03
615.74	32.35
615.932	31.55
616.124	30.95
616.315	30.27
616.507	29.8
616.699	29.27
616.891	28.88
617.083	28.48
617.275	28.04
617.467	27.66
617.659	27.35
617.85	27.11
618.042	26.88
618.234	27.02
618.426	26.96
618.618	26.87
618.809	26.97
619.001	27.08
619.193	26.86
619.384	26.7
619.576	26.76
619.768	26.97
619.959	26.83
620.151	26.87
620.343	26.75
620.534	26.65
620.726	26.67
620.917	26.71
621.109	26.56
621.301	26.66
621.492	26.5
621.684	26.69
621.875	26.71
622.067	26.73
622.258	26.84
622.45	26.84
622.641	27.03
622.832	27.01
623.024	26.91
623.215	27.09
623.407	26.95
623.598	27.22
623.789	27.08
623.981	26.79
624.172	26.84
624.363	26.81
624.555	26.86
624.746	26.68
624.937	26.65
625.129	26.79
625.32	26.54
625.511	26.66
625.702	26.5
625.893	26.41
626.085	26.39
626.276	26.33
626.467	26.22
626.658	26.1
626.849	26.1
627.04	26.27
627.231	26.22
627.422	26.28
627.614	26.29
627.805	26.34
627.996	26.44
628.187	26.59
628.378	26.77
628.569	26.95
628.76	27.09
628.951	27.53
629.142	27.67
629.332	27.85
629.523	28.19
629.714	28.52
629.905	28.84
630.096	29.17
630.287	29.46
630.478	29.62
630.669	29.77
630.859	29.91
631.05	29.47
631.241	29.22
631.432	29.08
631.623	28.75
631.813	28.42
632.004	27.91
632.195	27.57
632.385	27.13
632.576	26.72
632.767	26.34
632.957	26
633.148	26
633.339	25.96
633.529	25.72
633.72	25.65
633.91	25.71
634.101	25.61
634.292	25.32
634.482	25.33
634.673	25.13
634.863	25.14
635.054	25.22
635.244	25.03
635.435	25.02
635.625	25.06
635.815	24.93
636.006	24.69
636.196	24.7
636.387	24.9
636.577	25.06
636.767	25.26
636.958	25.42
637.148	25.41
637.338	25.66
637.529	25.41
637.719	25.26
637.909	25.36
638.099	25.35
638.29	25.46
638.48	25.53
638.67	25.23
638.86	25.18
639.05	24.96
639.241	25.16
639.431	25.32
639.621	25.48
639.811	25.84
640.001	25.97
640.191	26.18
640.381	26.24
640.571	26.11
640.761	26.2
640.951	26.22
641.141	26.32
641.331	26.03
641.521	25.83
641.711	25.95
641.901	25.95
642.091	26.16
642.281	26.03
642.471	26.16
642.661	26.25
642.851	26.39
643.041	26.4
643.231	26.4
643.42	26.39
643.61	26.03
643.8	25.97
643.99	25.82
644.18	25.56
644.369	25.52
644.559	25.39
644.749	25.4
644.939	25.2
645.128	25.31
645.318	25.32
645.508	25.36
645.697	25.66
645.887	25.63
646.076	25.72
646.266	25.61
646.456	25.77
646.645	25.84
646.835	25.79
647.024	25.85
647.214	25.78
647.403	25.69
647.593	25.87
647.782	25.86
647.972	25.82
648.161	25.72
648.351	25.93
648.54	25.91
648.73	25.92
648.919	26.32
649.108	26.66
649.298	26.79
649.487	26.98
649.677	27.05
649.866	27.24
650.055	27.48
650.244	27.52
650.434	27.52
650.623	27.41
650.812	27.45
651.002	27.29
651.191	26.93
651.38	26.93
651.569	26.97
651.758	26.9
651.947	26.83
652.137	27.01
652.326	27.3
652.515	27.36
652.704	27.61
652.893	27.44
653.082	27.17
653.271	27.59
653.46	27.53
653.649	27.45
653.838	27.31
654.027	27.34
654.216	26.86
654.405	26.54
654.594	26.44
654.783	26.1
654.972	26.25
655.161	26.36
655.35	26
655.539	26.14
655.728	26.18
655.916	26.17
656.105	26.06
656.294	26.28
656.483	26.46
656.672	26.53
656.86	26.48
657.049	26.46
657.238	26.46
657.427	26.25
657.615	26.09
657.804	26.05
657.993	25.97
658.181	25.89
658.37	25.8
658.559	25.5
658.747	25.4
658.936	25.35
659.125	25.5
659.313	25.43
659.502	25.53
659.69	25.44
659.879	25.62
660.067	25.76
660.256	25.89
660.444	25.98
660.633	26.19
660.821	26.42
661.01	26.72
661.198	26.63
661.387	26.8
661.575	26.88
661.763	27.1
661.952	26.84
662.14	26.85
662.328	27.1
662.517	27.18
662.705	27.22
662.893	27.07
663.082	26.97
663.27	26.85
663.458	27.15
663.646	27.48
663.834	27.79
664.023	27.9
664.211	28.37
664.399	28.05
664.587	28.18
664.775	28.28
664.963	28.36
665.152	28.57
665.34	28.76
665.528	28.38
665.716	28.33
665.904	28.13
666.092	28.37
666.28	27.89
666.468	27.77
666.656	27.58
666.844	27.56
667.032	27.59
667.22	27.46
667.408	27.39
667.596	27.56
667.784	27.41
667.971	27.4
668.159	27.02
668.347	27.04
668.535	27.21
668.723	27.2
668.911	27.29
669.098	27.2
669.286	27.4
669.474	27.34
669.662	27.56
669.849	27.73
670.037	27.7
670.225	28.05
670.413	28.02
670.6	27.98
670.788	28.01
670.976	27.76
671.163	27.75
671.351	27.71
671.538	27.66
671.726	27.27
671.913	27.23
672.101	27.28
672.289	27.3
672.476	27.59
672.664	27.89
672.851	28.25
673.039	28.35
673.226	28.6
673.413	28.43
673.601	28.6
673.788	28.85
673.976	28.63
674.163	28.48
674.35	28.29
674.538	28.16
674.725	28.02
674.912	27.83
675.1	27.86
675.287	27.79
675.474	27.81
675.662	28.02
675.849	27.93
676.036	28.1
676.223	28.21
676.411	28.45
676.598	28.25
676.785	28.26
676.972	28.21
677.159	28.3
677.346	28.4
677.533	28.59
677.721	28.29
677.908	28.27
678.095	28.08
678.282	28.13
678.469	27.87
678.656	27.96
678.843	27.87
679.03	27.65
679.217	27.48
679.404	27.43
679.591	27.24
679.778	27.33
679.964	27.15
680.151	27.21
680.338	27.09
680.525	26.96
680.712	26.79
680.899	26.74
681.086	26.94
681.272	27.2
681.459	27.05
681.646	27.1
681.833	27.23
682.02	27.43
682.206	27.27
682.393	27.29
682.58	27.61
682.766	27.9
682.953	27.93
683.14	27.79
683.326	27.98
683.513	28.08
683.7	28.13
683.886	28.26
684.073	28.32
684.259	28.62
684.446	28.78
684.632	28.87
684.819	28.77
685.005	28.8
685.192	29.05
685.378	28.83
685.565	28.93
685.751	28.83
685.938	28.65
686.124	28.77
686.31	29.04
686.497	29.18
686.683	28.91
686.87	28.84
687.056	28.88
687.242	28.75
687.429	28.86
687.615	28.76
687.801	28.94
687.987	28.85
688.174	28.61
688.36	28.55
688.546	28.41
688.732	28.79
688.918	28.91
689.105	29.02
689.291	29.06
689.477	28.89
689.663	28.93
689.849	28.97
690.035	29.13
690.221	29.28
690.407	29.42
690.593	29.36
690.779	29.07
690.965	29.06
691.151	28.95
691.337	28.86
691.523	29.12
691.709	29.42
691.895	29.6
692.081	29.46
692.267	29.43
692.453	29.21
692.639	29.38
692.825	29.5
693.011	29.43
693.196	29.54
693.382	29.6
693.568	29.63
693.754	29.37
693.94	29.03
694.125	28.91
694.311	28.86
694.497	28.87
694.682	28.6
694.868	28.58
695.054	28.7
695.239	28.53
695.425	28.65
695.611	28.34
695.796	28.54
695.982	28.6
696.168	28.36
696.353	28.38
696.539	28.05
696.724	28.14
696.91	27.83
697.095	27.75
697.281	27.84
697.466	27.6
697.652	27.54
697.837	27.06
698.023	26.72
698.208	26.89
698.393	26.77
698.579	26.75
698.764	26.53
698.949	26.53
699.135	26.51
699.32	26.5
699.505	26.65
699.691	26.7
699.876	26.99
700.061	27.29
700.246	27.42
700.432	27.31
700.617	27.37
700.802	27.61
700.987	27.65
701.172	27.69
701.358	27.82
701.543	28.01
701.728	28.26
701.913	28.13
702.098	28.2
702.283	27.99
702.468	28.88
702.653	29.02
702.838	29.1
703.023	29.56
703.208	29.69
703.393	29.91
703.578	30.06
703.763	30.29
703.948	30.69
704.133	31.03
704.318	31.54
704.503	31.66
704.688	32.59
704.873	33.02
705.057	33.41
705.242	34.35
705.427	34.62
705.612	34.92
705.797	34.92
705.981	35.36
706.166	35.92
706.351	36.89
706.536	37.19
706.72	36.82
706.905	37.27
707.09	37.47
707.274	37.2
707.459	37.28
707.644	37.73
707.828	37.84
708.013	38.03
708.197	37.65
708.382	37.04
708.567	36.51
708.751	36.71
708.936	36.13
709.12	35.71
709.305	35.55
709.489	35.48
709.673	34.72
709.858	34.45
710.042	34.23
710.227	34.43
710.411	34.26
710.596	34.28
710.78	33.98
710.964	34.24
711.149	34.43
711.333	34.28
711.517	34.08
711.702	34.02
711.886	33.92
712.07	33.87
712.254	33.46
712.438	33.49
712.623	33.33
712.807	33.38
712.991	33.26
713.175	32.75
713.359	32.41
713.544	32.24
713.728	31.96
713.912	31.98
714.096	31.34
714.28	30.99
714.464	30.53
714.648	30.29
714.832	30.14
715.016	29.76
715.2	29.82
715.384	29.67
715.568	29.27
715.752	28.85
715.936	28.23
716.12	27.95
716.304	27.92
716.488	27.87
716.671	27.3
716.855	26.94
717.039	26.71
717.223	26.5
717.407	26.59
717.59	26.79
717.774	27
717.958	27.37
718.142	27.11
718.325	26.89
718.509	26.72
718.693	27.22
718.877	26.99
719.06	27.34
719.244	27.15
719.428	27.04
719.611	27.1
719.795	27.59
719.978	27.35
720.162	28.09
720.345	28.46
720.529	28.97
720.713	29.02
720.896	29.47
721.08	29.63
721.263	29.84
721.446	30.29
721.63	30.26
721.813	30.11
721.997	30.44
722.18	30.53
722.364	30.58
722.547	30.47
722.73	30.71
722.914	30.97
723.097	30.48
723.28	30.83
723.464	30.33
723.647	30.15
723.83	30.09
724.013	30.44
724.197	30.39
724.38	30.38
724.563	30.16
724.746	30.49
724.929	30.19
725.112	30.1
725.296	30.07
725.479	30.04
725.662	30.19
725.845	29.52
726.028	29.06
726.211	28.95
726.394	28.44
726.577	28.03
726.76	27.83
726.943	27.97
727.126	28.1
727.309	27.63
727.492	27.8
727.675	27.54
727.858	28.05
728.041	28.09
728.224	27.75
728.407	28.22
728.589	28.94
728.772	28.45
728.955	28.86
729.138	29.12
729.321	29.45
729.503	29.78
729.686	29.87
729.869	30.01
730.052	29.97
730.234	30.37
730.417	30.03
730.6	29.84
730.782	30.14
730.965	29.73
731.148	29.55
731.33	29.3
731.513	28.9
731.695	28.84
731.878	28.55
732.061	28.63
732.243	28.63
732.426	28.93
732.608	28.94
732.791	29.08
732.973	29.09
733.156	29.16
733.338	29.63
733.52	29.74
733.703	30.18
733.885	30.43
734.068	30.62
734.25	30.65
734.432	30.61
734.615	30.58
734.797	30.81
734.979	30.9
735.162	31.1
735.344	30.81
735.526	31.03
735.708	30.55
735.891	30.91
736.073	30.77
736.255	30.43
736.437	30.91
736.619	30.65
736.802	30.36
736.984	30.28
737.166	30.31
737.348	30.36
737.53	30.62
737.712	30.75
737.894	30.69
738.076	31.09
738.258	31.59
738.44	31.33
738.622	31.63
738.804	32.07
738.986	32.53
739.168	32.51
739.35	32.76
739.532	32.84
739.714	33.12
739.896	33.05
740.078	33.44
740.259	33.42
740.441	33.5
740.623	33.92
740.805	33.56
740.987	33.22
741.168	33.39
741.35	33.35
741.532	33.5
741.714	33.39
741.895	33.22
742.077	33.17
742.259	33.52
742.44	33.57
742.622	33.32
742.804	33.97
742.985	33.96
743.167	33.7
743.348	33.65
743.53	34.05
743.711	34.28
743.893	34.74
744.075	33.82
744.256	33.55
744.438	33.89
744.619	33.86
744.8	33.18
744.982	33.24
745.163	33.25
745.345	32.86
745.526	31.81
745.707	31.73
745.889	31.92
746.07	32.89
746.252	32.44
746.433	32.3
746.614	32.64
746.795	33.36
746.977	33.3
747.158	33.85
747.339	34.25
747.52	34.41
747.702	34.5
747.883	34.6
748.064	34.47
748.245	34.59
748.426	34.45
748.607	33.97
748.788	33.34
748.97	33.68
749.151	32.79
749.332	32.59
749.513	32.99
749.694	32.83
749.875	32.43
750.056	31.29
750.237	31.88
750.418	31.7
750.599	32.28
750.78	32.39
750.96	32.57
751.141	33.77
751.322	33.94
751.503	33.82
751.684	34.43
751.865	34.63
752.046	35.47
752.226	35.21
752.407	35.72
752.588	35.11
752.769	35.24
752.949	34.95
753.13	34.26
753.311	34.46
753.492	35.13
753.672	35.41
753.853	35.46
754.034	36.1
754.214	36.48
754.395	36.35
754.575	36.71
754.756	37.19
754.937	37.42
755.117	37.43
755.298	37.42
755.478	37.07
755.659	36.71
755.839	37.02
756.02	36.41
756.2	35.94
756.381	36.25
756.561	35.96
756.741	36.02
756.922	36.25
757.102	36.06
757.283	36.21
757.463	35.38
757.643	35.33
757.823	34.47
758.004	33.83
758.184	33.45
758.364	32.81
758.545	31.88
758.725	30.88
758.905	29.55
759.085	29.52
759.265	28.52
759.446	27.63
759.626	27.59
759.806	27.38
759.986	27.89
760.166	27.67
760.346	27.76
760.526	27.97
760.706	27.88
760.886	27.74
761.066	27.59
761.246	28.12
761.426	28.59
761.606	27.71
761.786	27.82
761.966	27.33
762.146	27.36
762.326	27.03
762.506	27.12
762.686	27.22
762.866	27.61
763.046	27.3
763.225	27.13
763.405	27.65
763.585	27.68
763.765	27.73
763.945	27.81
764.124	28.13
764.304	28.14
764.484	28.38
764.664	28.39
764.843	28.58
765.023	29.09
765.203	29.3
765.382	28.85
765.562	29.16
765.741	29.3
765.921	29.72
766.101	29.83
766.28	30.2
766.46	30.66
766.639	30.86
766.819	31.1
766.998	31.99
767.178	32.45
767.357	33.12
767.537	33.42
767.716	34.13
767.896	34.23
768.075	34.05
768.254	34.67
768.434	35.3
768.613	35.74
768.792	35.88
768.972	35.03
769.151	35.08
769.33	35.4
769.51	36.06
769.689	35.83
769.868	36.06
770.047	37.69
770.226	37.19
770.406	36.56
770.585	36.94
770.764	37.66
770.943	38.12
771.122	38.43
771.301	39
771.48	39.05
771.66	39.17
771.839	39.07
772.018	38.39
772.197	38.11
772.376	38.85
772.555	38.67
772.734	37.52
772.913	36.8
773.092	36.92
773.271	36.19
773.449	35.86
773.628	35.7
773.807	35.85
773.986	35.46
774.165	36.18
774.344	35.83
774.523	34.83
774.701	35.29
774.88	36.29
775.059	36.75
775.238	37.15
775.417	37.57
775.595	37.65
775.774	37.78
775.953	37.57
776.131	37.67
776.31	37.25
776.489	37.88
776.667	38.38
776.846	38.13
777.025	37.42
777.203	37.85
777.382	37.55
777.56	38.05
777.739	38.4
777.917	38.15
778.096	37.84
778.274	37.94
778.453	38.73
778.631	38.6
778.81	38.47
778.988	38.17
779.166	37.8
779.345	37.94
779.523	37.27
779.702	37.04
779.88	37.69
780.058	38.09
780.237	38.28
780.415	38.05
780.593	37.68
780.771	37.97
780.95	38.32
781.128	38.09
781.306	38.03
781.484	38.63
781.662	38.23
781.841	38.19
782.019	37.71
782.197	38.04
782.375	37.65
782.553	36.6
782.731	36.61
782.909	36.51
783.087	36.45
783.265	36.7
783.443	36.41
783.621	36.43
783.799	37.03
783.977	36.55
784.155	36.56
784.333	36.73
784.511	37.7
784.689	37.63
784.867	38.46
785.045	38.74
785.223	38.49
785.4	37.37
785.578	37.6
785.756	35.74
785.934	36.62
786.112	35.87
786.289	34.95
786.467	34.48
786.645	34.3
786.823	33.51
787	32.79
787.178	32.87
787.356	34.34
787.533	33.83
787.711	33.97
787.889	34.56
788.066	34.43
788.244	34.99
788.421	35.59
788.599	34.98
788.776	34.24
788.954	35.19
789.131	34.74
789.309	33.83
789.486	33.26
789.664	33.21
789.841	32.05
790.019	31.98
790.196	32.08
790.373	32.19
790.551	33.06
790.728	33.46
790.906	32.31
791.083	31.45
791.26	32.15
791.437	33.28
791.615	34.01
791.792	34.1
791.969	34.93
792.146	34.52
792.324	34.47
792.501	33.93
792.678	33.84
792.855	34.87
793.032	35.81
793.209	35.57
793.387	35.83
793.564	36.25
793.741	37.08
793.918	36.65
794.095	37.26
794.272	37.13
794.449	37.94
794.626	38.07
794.803	36.99
794.98	36.86
795.157	36.86
795.334	36.16
795.511	35.19
795.688	33.81
795.864	33.28
796.041	32.72
796.218	33.01
796.395	32.2
796.572	32.01
796.749	32.02
796.925	32.12
797.102	32.23
797.279	33.02
797.456	33.84
797.632	35.31
797.809	35.16
797.986	36.34
798.162	35.96
798.339	36.58
798.516	36.74
798.692	38.81
798.869	39.78
799.046	40.46
799.222	40.14
799.399	39.81
799.575	39.86
799.752	41.25
799.928	39.62
800.105	39.2
800.281	38.89
800.458	38.52
800.634	36.64
800.811	36.1
800.987	34.54
801.163	33.77
801.34	33.9
801.516	32.95
801.692	32.05
801.869	32.69
802.045	33.62
802.221	33.52
802.398	33.87
802.574	33.86
802.75	33.34
802.926	33.57
803.103	35.2
803.279	35.69
803.455	36.59
803.631	37.55
803.807	37.68
803.983	37.4
804.16	36.54
804.336	35.48
804.512	35.71
804.688	36.7
804.864	36.35
805.04	34.86
805.216	35.02
805.392	33.59
805.568	33.26
805.744	32.47
805.92	31.72
806.096	32.52
806.272	33.59
806.448	32.91
806.623	31.92
806.799	32.49
806.975	32.82
807.151	32.55
807.327	32.79
807.503	32.6
807.678	33.01
807.854	33.42
808.03	33.21
808.206	33.89
808.381	34.2
808.557	34.78
808.733	35.89
808.908	36.11
809.084	36.24
809.26	37.59
809.435	37.3
809.611	36.91
809.787	37.28
809.962	36.19
810.138	36.06
810.313	35.73
810.489	35.82
810.664	35.11
810.84	33.39
811.015	32.72
811.191	31.86
811.366	32.33
811.542	33.18
811.717	33.03
811.892	34.57
812.068	34.82
812.243	34.07
812.419	33.42
812.594	32.79
812.769	33.65
812.944	34.25
813.12	33.47
813.295	32.72
813.47	31.76
813.645	31.63
813.821	32.17
813.996	30.77
814.171	32.05
814.346	31.21
814.521	31.02
814.697	31.08
814.872	30.84
815.047	32.68
815.222	32.49
815.397	32.62
815.572	32.08
815.747	30.88
815.922	31.41
816.097	30.46
816.272	31.12
816.447	32.28
816.622	31.82
816.797	31.96
816.972	30.63
817.147	31.18
817.322	32.03
817.496	32.96
817.671	32.89
817.846	32.01
818.021	33.35
818.196	33.11
818.371	32.3
818.545	32.32
818.72	32.36
818.895	31.91
819.069	31.33
819.244	29.89
819.419	29.27
819.594	29.2
819.768	30.15
819.943	28.61
820.117	28.82
820.292	28.42
820.467	28.19
820.641	27.12
820.816	26.33
820.99	25.79
821.165	25.56
821.339	25.16
821.514	24.68
821.688	24.55
821.863	24.55
822.037	24.18
822.212	24.23
822.386	24.07
822.56	24.11
822.735	24.06
822.909	24.4
823.084	24.62
823.258	24.43
823.432	24.53
823.606	24.31
823.781	24.22
823.955	24.35
824.129	24.13
824.303	24.45
824.478	24.76
824.652	24.97
824.826	24.37
825	24.08
825.174	24.82
825.348	25.35
825.523	25.63
825.697	26.03
825.871	26
826.045	26.02
826.219	25.63
826.393	25.05
826.567	25.1
826.741	25.3
826.915	25.77
827.089	25.64
827.263	25.55
827.437	25.44
827.611	25.59
827.784	26.28
827.958	26.38
828.132	26.29
828.306	26.85
828.48	26.79
828.654	27.34
828.827	26.62
829.001	27.14
829.175	27.42
829.349	27.94
829.522	27.96
829.696	27.53
829.87	28.05
830.044	28.78
830.217	28.74
830.391	29.93
830.565	29.62
830.738	31.16
830.912	30.66
831.085	29.34
831.259	29.6
831.432	29.84
831.606	29.18
831.779	28.92
831.953	28.55
832.126	28.22
832.3	27.37
832.473	26.47
832.647	26.84
832.82	26.59
832.994	26.09
833.167	26.13
833.34	25.49
833.514	24.86
833.687	24.89
833.86	25.45
834.034	25.4
834.207	25.65
834.38	26.65
834.553	25.52
834.727	25.68
834.9	26.6
835.073	26.43
835.246	27.05
835.419	27.65
835.593	27.5
835.766	27.75
835.939	27.84
836.112	27.96
836.285	27.81
836.458	28.08
836.631	27.14
836.804	27.26
836.977	26.9
837.15	26.94
837.323	29.49
837.496	29.72
837.669	29.84
837.842	31.57
838.015	32.94
838.188	33.07
838.361	34.97
838.533	36.1
838.706	34.8
838.879	36.08
839.052	35.79
839.225	33.66
839.398	33.96
839.57	33.5
839.743	31.73
839.916	30.44
840.088	30.8
840.261	29.55
840.434	29.07
840.607	30.75
840.779	30.05
840.952	28.8
841.124	28.55
841.297	28.46
841.47	28.48
841.642	27.77
841.815	28.87
841.987	28.9
842.16	29.75
842.332	29.81
842.505	29.28
842.677	30.63
842.85	33.68
843.022	33.54
843.194	35.23
843.367	36.11
843.539	36.35
843.712	38.05
843.884	36.93
844.056	40.19
844.229	41.62
844.401	43.39
844.573	42.86
844.745	42.67
844.918	45.9
845.09	43.41
845.262	40.9
845.434	43.19
845.606	40.36
845.779	41.5
845.951	41.44
846.123	40.62
846.295	40.27
846.467	38.07
846.639	37
846.811	32.95
846.983	35.83
847.155	40.18
847.327	36.34
847.499	38.22
847.671	39.13
847.843	38.45
848.015	41.48
848.187	42.62
848.359	47.89
848.531	49.9
848.703	52.55
848.875	50.15
849.047	47.6
849.218	51.07
849.39	48.96
849.562	49.41
849.734	49.89
849.905	45.76
850.077	42.7
850.249	40.37
850.421	38.28
850.592	42.58
850.764	44
850.936	45.2
851.107	42.6
851.279	46.51
851.451	47.73
851.622	46.69
851.794	50.76
851.965	49.52
852.137	51.43
852.308	50.57
852.48	45.43
852.651	48.05
852.823	45.64
852.994	49.31
853.166	45.11
853.337	41.13
853.509	37.56
853.68	38.65
853.851	39.2
854.023	38.33
854.194	42.17
854.365	44.42
854.537	41.6
854.708	43.76
854.879	43.02
855.05	44.95
855.222	48.11
855.393	51.54
855.564	48.35
855.735	48.12
855.906	45.6
856.078	42.59
856.249	41.69
856.42	41.54
856.591	40.69
856.762	39.32
856.933	40.62
857.104	41.76
857.275	39.38
857.446	40.95
857.617	44.96
857.788	45.85
857.959	47.68
858.13	45.64
858.301	46.36
858.472	50.89
858.643	49.61
858.814	45.56
858.985	42.62
859.155	44.8
859.326	44.17
859.497	40.27
859.668	36.7
859.839	36.64
860.009	33.2
860.18	32.11
860.351	27.99
860.522	28.14
860.692	30.25
860.863	28.36
861.034	29.81
861.204	32.84
861.375	33.54
861.546	33.4
861.716	31.75
861.887	35.55
862.057	35.96
862.228	32.94
862.398	33.66
862.569	33.62
862.739	32.21
862.91	29.98
863.08	25.19
863.251	27.47
863.421	27.89
863.592	26.88
863.762	30.6
863.932	27.72
864.103	26.34
864.273	29.87
864.443	29.78
864.614	31.02
864.784	31.87
864.954	35.66
865.125	32.87
865.295	34.35
865.465	32.18
865.635	24.21
865.805	30.02
865.976	32.44
866.146	25.99
866.316	25.41
866.486	29.28
866.656	27.87
866.826	30.11
866.996	32.99
867.166	35.91
867.336	41.92
867.506	48.21
867.676	45.3
867.846	51.44
868.016	54.58
868.186	55.47
868.356	50.79
868.526	52.97
868.696	49.47
868.866	47.74
869.036	45.17
869.206	39.99
869.376	36.09
869.545	39.14
869.715	32.68
869.885	31.87
870.055	37.84
870.224	39.99
870.394	42.76
870.564	44.66
870.734	41.06
870.903	42.82
871.073	39.93
871.243	45.98
871.412	40.64
871.582	39.5
871.751	41.91
871.921	37.44
872.091	37.54
872.26	32.34
872.43	30.2
872.599	30.93
872.769	29.98
872.938	40.04
873.108	35.99
873.277	39.37
873.446	41.53
873.616	43.55
873.785	45.3
873.955	39.43
874.124	38.98
874.293	40.56
874.463	39.5
874.632	38.61
874.801	32.45
874.971	34.79
875.14	36.09
875.309	34.02
875.478	30.78
875.647	26.19
875.817	32.33
875.986	31.08
876.155	28.34
876.324	32.67
876.493	33.64
876.662	35.3
876.831	34.2
877	28.18
877.17	35.94
877.339	38.55
877.508	38.1
877.677	37.2
877.846	38.94
878.015	38.62
878.184	38.35
878.352	37.23
878.521	37.16
878.69	34.7
878.859	34.71
879.028	30.11
879.197	31.14
879.366	31.2
879.534	28.6
879.703	27.94
879.872	28.63
880.041	27.78
880.21	27.99
880.378	28.69
880.547	27.91
880.716	27.39
880.884	27.05
881.053	26.19
881.222	25.36
881.39	25.67
881.559	25.19
881.727	24.79
881.896	24.56
882.065	23.68
882.233	22.73
882.402	22.97
882.57	23.09
882.739	22.33
882.907	22.01
883.076	22.25
883.244	22.6
883.412	22.96
883.581	22.73
883.749	22.64
883.918	22.74
884.086	23.49
884.254	22.8
884.423	22.7
884.591	22.8
884.759	22.59
884.927	23.38
885.096	22.22
885.264	22.76
885.432	23.68
885.6	24.4
885.769	25.14
885.937	23.91
886.105	25.57
886.273	27.13
886.441	27.62
886.609	27.67
886.777	27.58
886.945	27.16
887.113	30.29
887.281	27.7
887.449	28.17
887.617	30.99
887.785	33.9
887.953	35.7
888.121	33.59
888.289	35.42
888.457	37.98
888.625	39.45
888.793	38.81
888.961	34.39
889.129	38.47
889.296	38.86
889.464	36.53
889.632	34.38
889.8	31.85
889.967	34.96
890.135	36.21
