Data from 2938786__Reflection_01.txt Node
Date: Fri Mar 13 11:56:40 EDT 2015
User: robert
Spectrometer: USB4E03002
Autoset integration time: false
Trigger mode: 4
Integration Time (sec): 1.000000E-1
Scans to average: 10
Electric dark correction enabled: false
Nonlinearity correction enabled: false
Boxcar width: 5
Stray light correction enabled: false
XAxis mode: Wavelengths
Stop averaging: false
Number of Pixels in Spectrum: 3648
>>>>>Begin Spectral Data<<<<<
177.575	-654.17
177.794	-7714.29
178.014	-1181.74
178.233	-869.23
178.452	-550.97
178.672	-382.74
178.891	-410.79
179.11	-413.18
179.33	-415.38
179.549	-490.56
179.768	-570.97
179.987	-973.9
180.207	-603.91
180.426	-898.53
180.645	-1600.64
180.864	-6370.73
181.084	2058.21
181.303	3107.87
181.522	1606.78
181.741	3583.78
181.96	1489.2
182.179	671.53
182.398	585.11
182.618	469.98
182.837	552.05
183.056	417.29
183.275	404.72
183.494	462.07
183.713	430.75
183.932	427.7
184.151	423.86
184.37	497.18
184.589	604.01
184.808	719.7
185.027	728.79
185.246	739.01
185.465	2736.75
185.684	1439.83
185.903	1642.36
186.122	1852.51
186.341	6209.8
186.56	2674.14
186.779	3756.63
186.998	1879.31
187.216	-4614.06
187.435	-1150.97
187.654	-1215.94
187.873	-1615.91
188.092	-4120.29
188.311	22569.23
188.53	-3461.73
188.748	9212.5
188.967	-1389.74
189.186	-1574.42
189.405	-769.58
189.623	-2673.53
189.842	5965.96
190.061	2186.92
190.28	3078.26
190.498	-1686.47
190.717	-1297.71
190.936	-990
191.154	-606.04
191.373	-1858.39
191.592	-1522.09
191.81	-1213.81
192.029	-1048.8
192.248	-1061.85
192.466	-3983.1
192.685	-21435.71
192.904	-977.91
193.122	-4665.45
193.341	1166.8
193.559	689.78
193.778	789.95
193.996	618.41
194.215	669.68
194.433	678.51
194.652	584.48
194.87	1127.7
195.089	814.86
195.307	458.42
195.526	503.76
195.744	574.66
195.963	494.9
196.181	433.25
196.399	470.92
196.618	411.14
196.836	474.14
197.055	557.53
197.273	589.09
197.491	711.84
197.71	660.99
197.928	920.59
198.146	1001.93
198.365	9034.38
198.583	-5350.94
198.801	-2252.27
199.019	-2236.72
199.238	-5516
199.456	1876.51
199.674	986.21
199.892	757.87
200.111	1200
200.329	1164.98
200.547	1004.95
200.765	708.42
200.983	670.09
201.202	655.45
201.42	879.18
201.638	935.06
201.856	1526.02
202.074	1879.62
202.292	-4766.13
202.51	18887.5
202.728	10637.93
202.946	-3707.79
203.165	-3742.5
203.383	5594.23
203.601	2241.48
203.819	5387.27
204.037	1054.32
204.255	1208.8
204.473	1396.31
204.691	769.5
204.909	687.44
205.127	682.48
205.345	767.56
205.562	951.61
205.78	1204.45
205.998	1173.62
206.216	675.99
206.434	1075.67
206.652	621.09
206.87	661.93
207.088	605.66
207.306	859.87
207.523	701.59
207.741	576.32
207.959	517.53
208.177	720.26
208.395	783.2
208.612	1112.31
208.83	778.11
209.048	895.58
209.266	1062.1
209.483	925.26
209.701	964.71
209.919	1467.88
210.136	1111.66
210.354	959.55
210.572	697.62
210.79	502.3
211.007	493.25
211.225	581.49
211.442	606.08
211.66	455.63
211.878	522.32
212.095	-1280.33
212.313	-3467.02
212.53	-2150.67
212.748	-1495.61
212.966	-2669.23
213.183	-1891.57
213.401	-2857.14
213.618	5780
213.836	-18611.76
214.053	-10490.32
214.271	12469.23
214.488	308.95
214.705	317
214.923	271.09
215.14	277.78
215.358	305.47
215.575	334
215.793	328.29
216.01	485.79
216.227	456.49
216.445	473.43
216.662	531.38
216.879	726.61
217.097	591.55
217.314	568.44
217.531	385.51
217.749	343.74
217.966	286.88
218.183	246.25
218.4	240.15
218.618	244.76
218.835	218.2
219.052	216.65
219.269	190.46
219.487	200.46
219.704	211.18
219.921	206.33
220.138	212.43
220.355	219.5
220.572	211.97
220.79	186.97
221.007	176.81
221.224	185.6
221.441	169.61
221.658	163.15
221.875	155.05
222.092	147.93
222.309	146.07
222.526	136.62
222.743	135.4
222.96	132.88
223.177	140.46
223.394	135.09
223.611	121.72
223.828	121.23
224.045	117.63
224.262	114.23
224.479	104.52
224.696	108.13
224.913	97.87
225.13	89.65
225.347	82.76
225.564	74.97
225.781	71.98
225.997	67.45
226.214	62.77
226.431	58.06
226.648	52.3
226.865	46.68
227.082	40.85
227.298	35.22
227.515	31.16
227.732	28.47
227.949	25.64
228.165	22.8
228.382	21.53
228.599	20.88
228.816	20.02
229.032	18.63
229.249	18.07
229.466	16.58
229.682	17.61
229.899	18.1
230.116	17.69
230.332	17.53
230.549	17.56
230.765	18.75
230.982	18.32
231.199	19.82
231.415	22.25
231.632	24.08
231.848	25.68
232.065	26.24
232.281	26.7
232.498	27.43
232.714	28.72
232.931	29.37
233.147	29.89
233.364	31.22
233.58	29.63
233.797	27.92
234.013	28.57
234.23	28.79
234.446	30.55
234.662	30.34
234.879	30.05
235.095	30.33
235.312	29.89
235.528	29.34
235.744	28.43
235.961	28.51
236.177	29.43
236.393	27.79
236.61	28.68
236.826	25.47
237.042	26.25
237.258	26.75
237.475	25.41
237.691	25.59
237.907	24.85
238.123	26.47
238.339	26.94
238.556	27.56
238.772	27.61
238.988	25.77
239.204	25.18
239.42	22.89
239.636	22.28
239.853	22.03
240.069	21.27
240.285	20.3
240.501	18.16
240.717	17.51
240.933	15.31
241.149	14.62
241.365	14.03
241.581	14.14
241.797	13.56
242.013	13.13
242.229	12.62
242.445	12.26
242.661	12.24
242.877	12.25
243.093	12.24
243.309	12.69
243.525	12.85
243.741	13.17
243.957	13.29
244.173	14.81
244.388	15.05
244.604	15.32
244.82	16.11
245.036	15.6
245.252	14.96
245.468	13.76
245.683	13.13
245.899	12.1
246.115	11.1
246.331	10.03
246.547	9.25
246.762	8.55
246.978	8.15
247.194	7.65
247.409	7.36
247.625	7.16
247.841	7.09
248.057	7.09
248.272	7
248.488	7.29
248.703	7.57
248.919	7.84
249.135	8.38
249.35	9.17
249.566	9.76
249.782	10.23
249.997	10.76
250.213	11.44
250.428	11.62
250.644	13.12
250.859	13.33
251.075	13.21
251.29	13.52
251.506	13.18
251.721	12.89
251.937	12.28
252.152	12.38
252.368	12.54
252.583	12.71
252.798	13.08
253.014	12.84
253.229	12.31
253.445	13.26
253.66	12.12
253.875	12.62
254.091	13.08
254.306	14.11
254.521	15.55
254.737	16.34
254.952	15.56
255.167	15.11
255.383	14.72
255.598	14.96
255.813	14.13
256.028	14.65
256.244	14.34
256.459	14.76
256.674	13.82
256.889	12.5
257.104	12.2
257.32	12.45
257.535	12.02
257.75	11.24
257.965	11.19
258.18	10.39
258.395	9.55
258.61	8.7
258.826	7.77
259.041	7.4
259.256	6.94
259.471	6.17
259.686	5.95
259.901	5.64
260.116	5.6
260.331	5.46
260.546	5.67
260.761	5.87
260.976	6.17
261.191	6.16
261.406	6.42
261.621	6.87
261.836	7.2
262.05	7.57
262.265	8.3
262.48	9.12
262.695	9.59
262.91	10.39
263.125	10.83
263.34	10.97
263.555	11.73
263.769	12.43
263.984	12.4
264.199	13.54
264.414	13.41
264.629	13.18
264.843	12.63
265.058	12.27
265.273	11.55
265.488	10.93
265.702	10.76
265.917	10.72
266.132	9.79
266.346	9.51
266.561	9.06
266.776	9.2
266.99	9.11
267.205	9.22
267.42	9.4
267.634	8.91
267.849	9.43
268.063	9.91
268.278	9.81
268.492	10.12
268.707	10.16
268.922	10.44
269.136	10.45
269.351	9.96
269.565	9.63
269.78	8.95
269.994	8.65
270.209	8.02
270.423	7.1
270.637	6.57
270.852	6.57
271.066	6.58
271.281	6.12
271.495	5.68
271.709	5.95
271.924	6.03
272.138	6.19
272.353	6.57
272.567	6.93
272.781	7.26
272.996	7.07
273.21	6.86
273.424	6.98
273.638	6.77
273.853	7.13
274.067	7.37
274.281	7.6
274.495	7.94
274.71	8.26
274.924	8.41
275.138	8.82
275.352	9.33
275.566	9.59
275.781	9.48
275.995	10.32
276.209	10.29
276.423	10.03
276.637	9.99
276.851	10.2
277.065	9.54
277.279	9.17
277.493	8.51
277.707	8.93
277.921	8.57
278.135	8.46
278.349	8.08
278.563	8.7
278.777	8.56
278.991	8.49
279.205	8.45
279.419	8.91
279.633	8.51
279.847	8.71
280.061	8.42
280.275	7.77
280.489	8.15
280.703	8.04
280.917	7.48
281.131	7.6
281.344	7.29
281.558	6.79
281.772	6.84
281.986	7.46
282.2	7.71
282.414	7.79
282.627	7.96
282.841	7.71
283.055	7.85
283.269	7.8
283.482	7.57
283.696	7.41
283.91	7.54
284.123	6.91
284.337	6.41
284.551	6.09
284.764	5.9
284.978	5.98
285.192	5.93
285.405	5.9
285.619	5.52
285.833	5.53
286.046	5.52
286.26	5.61
286.473	5.94
286.687	6.03
286.9	5.95
287.114	5.73
287.327	6.15
287.541	6.24
287.754	6.14
287.968	6.59
288.181	6.82
288.395	6.92
288.608	6.85
288.822	6.96
289.035	6.83
289.248	6.82
289.462	6.8
289.675	6.48
289.889	6.32
290.102	6.14
290.315	6.09
290.529	6.05
290.742	5.9
290.955	5.76
291.169	5.76
291.382	5.93
291.595	5.95
291.808	6.15
292.022	6.55
292.235	6.87
292.448	6.96
292.661	6.83
292.875	6.91
293.088	6.98
293.301	6.71
293.514	6.53
293.727	6.2
293.94	6.31
294.153	6.36
294.367	6.12
294.58	5.69
294.793	5.78
295.006	5.73
295.219	5.56
295.432	5.62
295.645	5.79
295.858	5.43
296.071	5.55
296.284	5.46
296.497	5.14
296.71	5.08
296.923	5.35
297.136	5.3
297.349	5.26
297.562	5.16
297.775	4.97
297.988	5.05
298.201	5.41
298.414	5.22
298.626	5.12
298.839	5.06
299.052	5.18
299.265	5.29
299.478	5.46
299.691	5.89
299.903	6.25
300.116	6.84
300.329	6.86
300.542	6.77
300.755	7.07
300.967	7.45
301.18	7.76
301.393	7.64
301.605	7.65
301.818	7.52
302.031	7.48
302.243	7.24
302.456	7.12
302.669	7.47
302.881	7.49
303.094	7.8
303.307	7.77
303.519	7.88
303.732	8.23
303.944	8.11
304.157	8.04
304.37	7.7
304.582	7.93
304.795	7.99
305.007	7.91
305.22	8.39
305.432	8.11
305.645	8.07
305.857	8.24
306.069	8.19
306.282	8.25
306.494	8.56
306.707	8.96
306.919	8.93
307.132	8.97
307.344	8.8
307.556	8.4
307.769	8.49
307.981	8.2
308.193	7.9
308.406	7.49
308.618	7.19
308.83	6.96
309.043	6.66
309.255	6.35
309.467	6.42
309.679	6.2
309.892	6.4
310.104	6.48
310.316	6.71
310.528	6.79
310.74	7
310.953	6.86
311.165	6.98
311.377	7.14
311.589	7.28
311.801	7.16
312.013	7.32
312.225	7.01
312.437	6.91
312.649	7.05
312.862	7.32
313.074	7.34
313.286	7.81
313.498	8.08
313.71	8.02
313.922	8.25
314.134	8.22
314.346	8.3
314.558	8.57
314.77	8.79
314.982	8.69
315.193	8.56
315.405	8.66
315.617	8.94
315.829	8.94
316.041	9.31
316.253	9.41
316.465	9.54
316.677	9.64
316.888	9.58
317.1	9.87
317.312	9.88
317.524	10.43
317.736	10.41
317.947	10.57
318.159	10.53
318.371	10.36
318.583	10.78
318.794	11.32
319.006	11.82
319.218	12.17
319.43	11.96
319.641	12.37
319.853	11.93
320.064	12.46
320.276	12.06
320.488	12.19
320.699	12.67
320.911	12.77
321.123	12.4
321.334	12.13
321.546	12.33
321.757	13.2
321.969	13.39
322.18	13.71
322.392	13.41
322.603	13.95
322.815	13.91
323.026	13.78
323.238	13.7
323.449	13.11
323.661	13.39
323.872	13.22
324.083	12.64
324.295	12.2
324.506	11.79
324.718	11.65
324.929	11.54
325.14	11.84
325.352	11.73
325.563	12.36
325.774	12.88
325.986	12.69
326.197	12.98
326.408	13.25
326.62	13.67
326.831	14.01
327.042	14.55
327.253	15.02
327.464	15.27
327.676	15.41
327.887	15.1
328.098	15.65
328.309	15.87
328.52	16.4
328.732	16.56
328.943	16.8
329.154	17.44
329.365	17.47
329.576	17.54
329.787	17.56
329.998	18.43
330.209	18.71
330.42	18.88
330.631	19.32
330.842	19.12
331.053	19.48
331.264	19.57
331.475	19.44
331.686	19.97
331.897	20.03
332.108	20.35
332.319	20.29
332.53	20.15
332.741	20.04
332.952	20.04
333.163	20.2
333.374	20.28
333.585	20.75
333.795	20.89
334.006	20.62
334.217	20.47
334.428	20.34
334.639	20.53
334.849	20.53
335.06	20.98
335.271	20.95
335.482	21.46
335.692	21.3
335.903	21.07
336.114	20.95
336.325	21.18
336.535	21.53
336.746	21.47
336.957	21.59
337.167	21.91
337.378	22.1
337.589	22.35
337.799	21.65
338.01	21.83
338.22	22.02
338.431	22.56
338.642	22.73
338.852	22.68
339.063	22.92
339.273	22.86
339.484	22.91
339.694	22.64
339.905	22.85
340.115	23.28
340.326	23.22
340.536	23.11
340.746	22.96
340.957	22.7
341.167	22.49
341.378	22.78
341.588	22.67
341.799	22.64
342.009	22.71
342.219	22.73
342.43	22.74
342.64	22.95
342.85	22.98
343.061	22.99
343.271	23.44
343.481	23.71
343.691	23.43
343.902	23.26
344.112	23.39
344.322	23.03
344.532	22.72
344.743	22.39
344.953	22.12
345.163	22.06
345.373	21.55
345.583	21.34
345.793	21.35
346.004	21.18
346.214	21.31
346.424	21.35
346.634	21.66
346.844	21.98
347.054	22.25
347.264	22.25
347.474	22.31
347.684	22.82
347.894	22.76
348.104	22.61
348.314	22.55
348.524	22.48
348.734	22.33
348.944	22.28
349.154	21.87
349.364	22.05
349.574	22.22
349.784	22.23
349.994	22.2
350.204	22.28
350.413	22.08
350.623	22.28
350.833	22.3
351.043	22.13
351.253	22
351.463	21.97
351.672	21.96
351.882	21.9
352.092	21.63
352.302	21.33
352.511	21.23
352.721	21.26
352.931	21.17
353.141	20.92
353.35	20.84
353.56	20.76
353.77	20.79
353.979	20.56
354.189	20.63
354.399	20.72
354.608	20.86
354.818	20.44
355.027	20.49
355.237	20.61
355.447	21.08
355.656	21.05
355.866	21.19
356.075	21.35
356.285	21.47
356.494	21.38
356.704	21.4
356.913	21.64
357.123	21.87
357.332	21.66
357.542	21.42
357.751	21.2
357.96	21.21
358.17	21
358.379	20.78
358.589	20.61
358.798	20.54
359.007	20.44
359.217	20.14
359.426	19.79
359.635	19.76
359.845	19.67
360.054	19.36
360.263	19.13
360.472	19.01
360.682	18.86
360.891	18.79
361.1	18.44
361.309	18.52
361.519	18.59
361.728	18.51
361.937	18.62
362.146	18.65
362.355	18.74
362.564	19.12
362.774	19.16
362.983	19.22
363.192	19.33
363.401	19.59
363.61	19.23
363.819	19.25
364.028	19.68
364.237	19.8
364.446	19.93
364.655	19.91
364.864	19.51
365.073	19.6
365.282	19.63
365.491	19.53
365.7	19.38
365.909	19.64
366.118	19.63
366.327	19.77
366.536	19.79
366.745	19.68
366.954	19.83
367.162	20
367.371	19.89
367.58	20
367.789	19.97
367.998	20.25
368.207	20.46
368.415	20.3
368.624	20.18
368.833	19.99
369.042	20.01
369.25	19.95
369.459	20.06
369.668	20.23
369.877	20.06
370.085	20.04
370.294	19.94
370.503	19.82
370.711	19.81
370.92	19.76
371.129	19.9
371.337	19.73
371.546	19.71
371.754	19.54
371.963	19.43
372.171	19.49
372.38	19.57
372.589	19.39
372.797	19.17
373.006	19.22
373.214	19.12
373.423	18.91
373.631	18.98
373.84	18.76
374.048	18.7
374.256	18.64
374.465	18.68
374.673	18.49
374.882	18.87
375.09	19.23
375.298	19.1
375.507	19.22
375.715	19.48
375.923	19.32
376.132	19.29
376.34	19.21
376.548	19.27
376.757	19.27
376.965	19.51
377.173	19.27
377.381	19
377.59	19.23
377.798	19.02
378.006	18.67
378.214	18.75
378.423	18.97
378.631	19.04
378.839	18.8
379.047	18.53
379.255	18.45
379.463	18.47
379.671	18.29
379.879	18.06
380.088	18.02
380.296	18.01
380.504	18.02
380.712	17.67
380.92	17.56
381.128	17.84
381.336	17.93
381.544	17.58
381.752	17.57
381.96	17.67
382.168	17.59
382.376	17.47
382.584	17.73
382.791	17.86
382.999	17.83
383.207	17.74
383.415	17.58
383.623	17.47
383.831	17.51
384.039	17.35
384.247	17.43
384.454	17.55
384.662	17.63
384.87	17.4
385.078	17.14
385.285	17.3
385.493	17.37
385.701	17.27
385.909	17.38
386.116	17.59
386.324	17.48
386.532	17.43
386.739	17.27
386.947	17.18
387.155	17.24
387.362	17.27
387.57	17.24
387.778	17.36
387.985	17.52
388.193	17.54
388.4	17.35
388.608	17.64
388.816	17.76
389.023	17.86
389.231	17.88
389.438	17.74
389.646	17.9
389.853	17.85
390.061	17.63
390.268	17.52
390.475	17.36
390.683	17.34
390.89	17.17
391.098	17.05
391.305	16.91
391.512	16.94
391.72	16.96
391.927	16.82
392.135	16.86
392.342	16.95
392.549	16.94
392.756	16.88
392.964	16.81
393.171	16.76
393.378	16.75
393.586	16.7
393.793	16.45
394	16.38
394.207	16.43
394.414	16.28
394.622	16.22
394.829	16.23
395.036	16.33
395.243	16.36
395.45	16.31
395.657	16.33
395.864	16.36
396.072	16.51
396.279	16.64
396.486	16.41
396.693	16.51
396.9	16.42
397.107	16.41
397.314	16.54
397.521	16.56
397.728	16.71
397.935	16.56
398.142	16.48
398.349	16.56
398.556	16.54
398.763	16.71
398.97	16.6
399.177	16.67
399.383	16.67
399.59	16.74
399.797	16.92
400.004	16.82
400.211	16.94
400.418	17.11
400.625	17.32
400.831	17.21
401.038	17.18
401.245	17.39
401.452	17.39
401.658	17.36
401.865	17.26
402.072	16.97
402.279	16.97
402.485	16.69
402.692	16.53
402.899	16.34
403.105	16.29
403.312	16.28
403.519	16.05
403.725	16.05
403.932	15.89
404.138	15.75
404.345	15.81
404.552	15.64
404.758	15.87
404.965	15.77
405.171	15.7
405.378	15.57
405.584	15.4
405.791	15.41
405.997	15.36
406.204	15.45
406.41	15.31
406.617	15.43
406.823	15.62
407.029	15.57
407.236	15.78
407.442	15.64
407.649	15.85
407.855	16.07
408.061	16.28
408.268	16.43
408.474	16.55
408.68	16.87
408.887	16.71
409.093	16.77
409.299	16.79
409.505	16.77
409.712	16.93
409.918	16.85
410.124	16.76
410.33	16.72
410.537	16.62
410.743	16.49
410.949	16.4
411.155	16.35
411.361	16.23
411.567	16.08
411.773	16.05
411.98	16.06
412.186	16.14
412.392	16.25
412.598	16.19
412.804	16.01
413.01	16.14
413.216	16.19
413.422	16.35
413.628	16.32
413.834	16.37
414.04	16.5
414.246	16.47
414.452	16.24
414.658	16.17
414.864	16.11
415.07	16.25
415.275	16.03
415.481	15.98
415.687	15.74
415.893	15.72
416.099	15.69
416.305	15.45
416.511	15.4
416.716	15.39
416.922	15.27
417.128	15.16
417.334	15.03
417.539	15.07
417.745	14.83
417.951	14.82
418.157	14.75
418.362	14.66
418.568	14.57
418.774	14.36
418.979	14.36
419.185	14.33
419.391	14.33
419.596	14.2
419.802	14.06
420.008	14.08
420.213	14.66
420.419	14.62
420.624	14.55
420.83	14.57
421.035	14.69
421.241	14.63
421.446	14.57
421.652	14.47
421.857	14.48
422.063	14.46
422.268	14.4
422.474	13.85
422.679	13.87
422.885	13.9
423.09	13.9
423.295	13.76
423.501	13.8
423.706	13.79
423.911	13.79
424.117	13.79
424.322	13.82
424.527	13.88
424.733	13.87
424.938	13.82
425.143	13.77
425.349	13.78
425.554	13.87
425.759	13.91
425.964	13.98
426.169	14.08
426.375	14.18
426.58	14.25
426.785	14.35
426.99	14.48
427.195	14.65
427.4	14.76
427.605	14.85
427.811	14.95
428.016	14.99
428.221	15.12
428.426	15.21
428.631	15.25
428.836	15.38
429.041	15.38
429.246	15.32
429.451	15.33
429.656	15.43
429.861	15.48
430.066	15.38
430.271	15.37
430.476	15.29
430.681	15.27
430.886	15.3
431.09	15.26
431.295	15.33
431.5	15.37
431.705	15.31
431.91	15.27
432.115	15.25
432.32	15.32
432.524	15.28
432.729	15.34
432.934	15.33
433.139	15.29
433.343	15.28
433.548	15.2
433.753	15.27
433.958	15.3
434.162	15.38
434.367	15.47
434.572	15.52
434.776	15.55
434.981	15.51
435.186	15.62
435.39	15.79
435.595	15.8
435.799	15.72
436.004	15.63
436.209	15.67
436.413	15.59
436.618	15.4
436.822	15.34
437.027	15.35
437.231	15.28
437.436	15.23
437.64	15.17
437.845	15.17
438.049	15.27
438.253	15.16
438.458	15.03
438.662	15.03
438.867	15.07
439.071	15.05
439.275	14.96
439.48	14.92
439.684	14.81
439.888	14.77
440.093	14.67
440.297	14.56
440.501	14.56
440.706	14.6
440.91	14.49
441.114	14.48
441.318	14.5
441.523	14.56
441.727	14.54
441.931	14.64
442.135	14.65
442.339	14.68
442.543	14.85
442.748	14.88
442.952	14.88
443.156	15.02
443.36	15.03
443.564	15.04
443.768	15.06
443.972	15.15
444.176	15.07
444.38	14.95
444.584	14.9
444.788	14.82
444.992	14.88
445.196	14.84
445.4	14.72
445.604	14.66
445.808	14.67
446.012	14.61
446.216	14.58
446.42	14.59
446.624	14.57
446.828	14.53
447.032	14.46
447.235	14.4
447.439	14.36
447.643	14.43
447.847	14.46
448.051	14.48
448.254	14.49
448.458	14.54
448.662	14.57
448.866	14.68
449.069	14.87
449.273	14.96
449.477	15
449.681	15.04
449.884	15.17
450.088	15.46
450.292	15.44
450.495	15.55
450.699	15.57
450.902	15.54
451.106	15.59
451.31	15.53
451.513	15.56
451.717	15.59
451.92	15.61
452.124	15.49
452.327	15.28
452.531	15.3
452.734	15.24
452.938	15.27
453.141	15.42
453.345	15.53
453.548	15.63
453.752	15.7
453.955	15.82
454.158	15.84
454.362	15.94
454.565	15.95
454.769	15.92
454.972	16.07
455.175	16.17
455.379	16.03
455.582	15.94
455.785	15.83
455.988	15.86
456.192	15.85
456.395	15.83
456.598	15.78
456.801	15.79
457.005	15.83
457.208	15.75
457.411	15.55
457.614	15.56
457.817	15.47
458.021	15.4
458.224	15.24
458.427	14.99
458.63	15
458.833	14.87
459.036	14.81
459.239	14.69
459.442	14.56
459.645	14.52
459.848	14.52
460.051	14.47
460.254	14.49
460.457	14.51
460.66	14.65
460.863	14.64
461.066	14.73
461.269	14.66
461.472	14.86
461.675	14.94
461.878	15.1
462.081	15.15
462.284	15.31
462.486	15.35
462.689	15.41
462.892	15.35
463.095	15.42
463.298	15.48
463.5	15.7
463.703	15.48
463.906	15.54
464.109	15.51
464.311	15.53
464.514	15.41
464.717	15.49
464.92	15.59
465.122	15.66
465.325	15.65
465.528	15.66
465.73	15.71
465.933	15.81
466.135	15.88
466.338	15.77
466.541	15.7
466.743	15.74
466.946	15.69
467.148	15.69
467.351	15.72
467.553	15.83
467.756	15.81
467.958	15.71
468.161	15.75
468.363	15.73
468.566	15.73
468.768	15.79
468.971	15.73
469.173	15.73
469.375	15.72
469.578	15.66
469.78	15.59
469.983	15.66
470.185	15.65
470.387	15.69
470.59	15.62
470.792	15.69
470.994	15.69
471.196	15.76
471.399	15.78
471.601	15.77
471.803	15.81
472.005	15.76
472.208	15.61
472.41	15.67
472.612	15.67
472.814	15.77
473.016	15.86
473.218	15.95
473.421	15.95
473.623	15.99
473.825	15.99
474.027	15.94
474.229	15.91
474.431	15.99
474.633	15.98
474.835	15.98
475.037	15.95
475.239	15.73
475.441	15.67
475.643	15.65
475.845	15.56
476.047	15.49
476.249	15.48
476.451	15.5
476.653	15.46
476.855	15.45
477.057	15.33
477.258	15.25
477.46	15.33
477.662	15.33
477.864	15.31
478.066	15.39
478.268	15.43
478.469	15.4
478.671	15.37
478.873	15.4
479.075	15.33
479.276	15.36
479.478	15.44
479.68	15.42
479.882	15.36
480.083	15.35
480.285	15.17
480.487	15.1
480.688	15.05
480.89	14.98
481.091	14.9
481.293	14.82
481.495	14.58
481.696	14.39
481.898	14.21
482.099	14.05
482.301	13.9
482.502	13.81
482.704	13.67
482.905	13.61
483.107	13.5
483.308	13.43
483.51	13.34
483.711	13.32
483.913	13.28
484.114	13.28
484.315	13.28
484.517	13.28
484.718	13.26
484.92	13.28
485.121	13.28
485.322	13.33
485.524	13.34
485.725	13.42
485.926	13.47
486.127	13.5
486.329	13.48
486.53	13.49
486.731	13.48
486.932	13.49
487.134	13.49
487.335	13.48
487.536	13.42
487.737	13.44
487.938	13.4
488.139	13.46
488.341	13.51
488.542	13.6
488.743	13.63
488.944	13.7
489.145	13.79
489.346	13.84
489.547	13.88
489.748	13.93
489.949	13.99
490.15	14
490.351	13.98
490.552	13.96
490.753	13.93
490.954	13.92
491.155	13.88
491.356	13.85
491.557	13.87
491.758	13.96
491.959	13.99
492.159	13.98
492.36	14.04
492.561	14.11
492.762	14.17
492.963	14.19
493.164	14.26
493.364	14.37
493.565	14.47
493.766	14.52
493.967	14.49
494.167	14.64
494.368	14.79
494.569	14.9
494.769	14.96
494.97	15.04
495.171	15.17
495.371	15.29
495.572	15.22
495.773	15.24
495.973	15.27
496.174	15.31
496.375	15.31
496.575	15.32
496.776	15.35
496.976	15.3
497.177	15.28
497.377	15.24
497.578	15.22
497.778	15.32
497.979	15.32
498.179	15.37
498.38	15.39
498.58	15.44
498.78	15.4
498.981	15.47
499.181	15.59
499.382	15.62
499.582	15.72
499.782	15.81
499.983	15.79
500.183	15.99
500.383	15.99
500.584	16.02
500.784	15.99
500.984	16.05
501.184	15.97
501.385	15.89
501.585	15.92
501.785	15.9
501.985	15.85
502.185	15.99
502.386	15.89
502.586	15.98
502.786	15.99
502.986	16.1
503.186	16.15
503.386	16.16
503.586	16.16
503.786	16.22
503.987	16.18
504.187	16.16
504.387	16.12
504.587	16.16
504.787	16.15
504.987	16.26
505.187	16.24
505.387	16.26
505.587	16.23
505.786	16.25
505.986	16.16
506.186	16.22
506.386	16.24
506.586	16.3
506.786	16.23
506.986	16.25
507.186	16.25
507.386	16.24
507.585	16.25
507.785	16.26
507.985	16.35
508.185	16.37
508.384	16.36
508.584	16.43
508.784	16.32
508.984	16.46
509.183	16.51
509.383	16.43
509.583	16.52
509.782	16.57
509.982	16.62
510.182	16.64
510.381	16.68
510.581	16.75
510.781	16.71
510.98	16.85
511.18	16.76
511.379	16.71
511.579	16.77
511.778	16.72
511.978	16.71
512.177	16.76
512.377	16.75
512.576	16.81
512.776	16.84
512.975	17.01
513.175	17.07
513.374	17.14
513.573	17.27
513.773	17.39
513.972	17.53
514.172	17.66
514.371	17.78
514.57	17.91
514.77	17.92
514.969	17.88
515.168	17.92
515.367	17.91
515.567	17.94
515.766	17.95
515.965	17.91
516.164	17.84
516.364	17.72
516.563	17.52
516.762	17.49
516.961	17.43
517.16	17.48
517.359	17.45
517.559	17.47
517.758	17.49
517.957	17.39
518.156	17.41
518.355	17.41
518.554	17.4
518.753	17.51
518.952	17.51
519.151	17.57
519.35	17.58
519.549	17.57
519.748	17.58
519.947	17.6
520.146	17.79
520.345	17.82
520.544	17.92
520.743	18.02
520.942	18.09
521.141	18.19
521.339	18.34
521.538	18.37
521.737	18.42
521.936	18.48
522.135	18.53
522.333	18.52
522.532	18.57
522.731	18.62
522.93	18.69
523.129	18.7
523.327	18.71
523.526	18.65
523.725	18.69
523.923	18.67
524.122	18.67
524.321	18.7
524.519	18.66
524.718	18.63
524.917	18.62
525.115	18.58
525.314	18.61
525.512	18.62
525.711	18.63
525.909	18.64
526.108	18.66
526.306	18.58
526.505	18.53
526.703	18.54
526.902	18.46
527.1	18.35
527.299	18.32
527.497	18.26
527.696	18.22
527.894	18.18
528.092	18.15
528.291	18.12
528.489	18.16
528.688	18.18
528.886	18.18
529.084	18.23
529.283	18.31
529.481	18.34
529.679	18.4
529.877	18.48
530.076	18.6
530.274	18.66
530.472	18.72
530.67	18.78
530.869	18.88
531.067	18.97
531.265	19.05
531.463	19.06
531.661	19.13
531.859	19.17
532.057	19.19
532.255	19.16
532.454	19.22
532.652	19.25
532.85	19.23
533.048	19.25
533.246	19.26
533.444	19.29
533.642	19.34
533.84	19.35
534.038	19.47
534.236	19.49
534.434	19.6
534.632	19.67
534.83	19.83
535.027	19.87
535.225	19.9
535.423	19.97
535.621	20.04
535.819	20.06
536.017	20.13
536.215	20.03
536.412	20.09
536.61	20.08
536.808	20.05
537.006	20.07
537.203	20.24
537.401	20.36
537.599	20.39
537.797	20.47
537.994	20.66
538.192	20.73
538.39	20.92
538.587	21.07
538.785	21.24
538.983	21.42
539.18	21.37
539.378	21.4
539.575	21.31
539.773	21.34
539.97	21.26
540.168	21.19
540.366	21.16
540.563	21.15
540.761	21.1
540.958	20.94
541.155	20.9
541.353	20.92
541.55	20.89
541.748	20.9
541.945	20.91
542.143	21.01
542.34	21.09
542.537	21.16
542.735	21.16
542.932	21.18
543.129	21.44
543.327	21.57
543.524	21.73
543.721	21.86
543.919	22.11
544.116	22.31
544.313	22.48
544.51	22.64
544.708	22.86
544.905	23.14
545.102	23.43
545.299	23.42
545.496	23.57
545.693	23.66
545.891	23.78
546.088	23.81
546.285	23.82
546.482	23.77
546.679	23.79
546.876	23.7
547.073	23.55
547.27	23.42
547.467	23.46
547.664	23.33
547.861	23.33
548.058	23.39
548.255	23.4
548.452	23.38
548.649	23.47
548.846	23.44
549.043	23.54
549.24	23.74
549.437	23.85
549.633	23.98
549.83	24.17
550.027	24.16
550.224	24
550.421	23.88
550.618	23.87
550.814	23.83
551.011	23.71
551.208	23.75
551.405	23.58
551.601	23.57
551.798	23.39
551.995	23.22
552.191	23.21
552.388	23.21
552.585	23.2
552.781	23.17
552.978	23.18
553.175	23.23
553.371	23.26
553.568	23.28
553.764	23.27
553.961	23.31
554.157	23.35
554.354	23.43
554.55	23.4
554.747	23.44
554.943	23.47
555.14	23.42
555.336	23.49
555.533	23.32
555.729	23.45
555.926	23.41
556.122	23.62
556.318	23.67
556.515	23.67
556.711	23.74
556.907	23.83
557.104	23.89
557.3	23.97
557.496	23.98
557.693	24.06
557.889	24.01
558.085	24.09
558.281	23.98
558.478	24.05
558.674	23.91
558.87	23.92
559.066	23.91
559.262	23.96
559.459	23.87
559.655	23.85
559.851	23.83
560.047	23.79
560.243	23.84
560.439	23.89
560.635	23.77
560.831	23.83
561.027	23.83
561.223	23.73
561.419	23.66
561.615	23.63
561.811	23.74
562.007	23.73
562.203	23.79
562.399	23.74
562.595	23.6
562.791	23.77
562.987	23.85
563.183	23.9
563.379	23.94
563.575	23.93
563.771	24.03
563.966	23.93
564.162	23.87
564.358	23.8
564.554	23.83
564.75	23.82
564.945	23.71
565.141	23.55
565.337	23.48
565.533	23.43
565.728	23.32
565.924	23.35
566.12	23.31
566.315	23.34
566.511	23.3
566.707	23.22
566.902	23.14
567.098	23.3
567.293	23.38
567.489	23.44
567.684	23.54
567.88	23.57
568.076	23.66
568.271	23.73
568.467	23.78
568.662	23.85
568.858	23.91
569.053	24.07
569.248	23.85
569.444	23.91
569.639	23.85
569.835	23.8
570.03	23.86
570.225	23.66
570.421	23.6
570.616	23.49
570.812	23.4
571.007	23.38
571.202	23.29
571.397	23.29
571.593	23.19
571.788	23.22
571.983	23.24
572.178	23.25
572.374	23.4
572.569	23.47
572.764	23.6
572.959	23.68
573.154	23.66
573.35	23.7
573.545	23.79
573.74	23.85
573.935	23.83
574.13	23.77
574.325	23.84
574.52	23.87
574.715	23.99
574.91	23.93
575.105	24.03
575.3	24.06
575.495	24.18
575.69	24.25
575.885	24.33
576.08	24.5
576.275	24.72
576.47	24.82
576.665	24.81
576.86	24.71
577.055	24.82
577.25	24.95
577.444	25.14
577.639	25.25
577.834	25.29
578.029	25.43
578.224	25.41
578.418	25.52
578.613	25.6
578.808	25.71
579.003	26
579.197	26.15
579.392	25.99
579.587	25.95
579.781	26.02
579.976	26.18
580.171	26.13
580.365	26.12
580.56	26.15
580.755	26.31
580.949	26.29
581.144	26.25
581.338	26.18
581.533	26.4
581.727	26.56
581.922	26.4
582.116	26.41
582.311	26.52
582.505	26.51
582.7	26.57
582.894	26.54
583.089	26.62
583.283	26.61
583.478	26.62
583.672	26.66
583.866	26.53
584.061	26.7
584.255	26.53
584.449	26.49
584.644	26.58
584.838	26.56
585.032	26.51
585.226	26.49
585.421	26.69
585.615	26.84
585.809	26.83
586.003	26.99
586.198	27
586.392	27.16
586.586	27.19
586.78	27.17
586.974	27.23
587.168	27.03
587.363	27.01
587.557	26.72
587.751	26.66
587.945	26.42
588.139	26.36
588.333	26.27
588.527	26.27
588.721	26.09
588.915	26.06
589.109	25.92
589.303	25.96
589.497	25.87
589.691	25.88
589.885	25.74
590.079	26.05
590.273	25.95
590.466	25.99
590.66	25.92
590.854	26.25
591.048	26.3
591.242	26.36
591.436	26.41
591.629	26.63
591.823	26.88
592.017	27.03
592.211	26.87
592.404	26.92
592.598	27.01
592.792	27.02
592.986	26.81
593.179	26.67
593.373	26.58
593.567	26.6
593.76	26.42
593.954	26.18
594.147	26.1
594.341	25.97
594.535	25.87
594.728	25.71
594.922	25.54
595.115	25.51
595.309	25.44
595.502	25.37
595.696	25.25
595.889	25.12
596.083	25
596.276	24.94
596.47	25.12
596.663	25.15
596.856	25.18
597.05	25.34
597.243	25.36
597.437	25.54
597.63	25.67
597.823	25.82
598.017	25.97
598.21	26.17
598.403	26.25
598.596	26.29
598.79	26.4
598.983	26.52
599.176	26.59
599.369	26.65
599.563	26.67
599.756	26.78
599.949	26.82
600.142	26.82
600.335	26.81
600.528	26.82
600.722	26.69
600.915	26.74
601.108	26.6
601.301	26.53
601.494	26.47
601.687	26.4
601.88	26.28
602.073	26.11
602.266	26.03
602.459	25.85
602.652	25.79
602.845	25.72
603.038	25.53
603.231	25.6
603.424	25.53
603.617	25.46
603.809	25.34
604.002	25.26
604.195	25.26
604.388	25.38
604.581	25.39
604.774	25.52
604.966	25.5
605.159	25.67
605.352	25.63
605.545	25.87
605.737	25.92
605.93	26.07
606.123	26.17
606.316	26.39
606.508	26.43
606.701	26.68
606.894	26.77
607.086	27.11
607.279	27.12
607.471	27.28
607.664	27.21
607.857	27.65
608.049	27.99
608.242	28.3
608.434	28.62
608.627	29.22
608.819	29.7
609.012	30.32
609.204	31.03
609.397	32.14
609.589	33.2
609.782	34.29
609.974	35.33
610.166	36.39
610.359	37.58
610.551	38.59
610.743	39.33
610.936	40.16
611.128	40.79
611.32	41.35
611.513	41.51
611.705	41.54
611.897	41.54
612.09	41.2
612.282	40.86
612.474	40.36
612.666	39.99
612.858	39.64
613.051	39.49
613.243	38.88
613.435	38.38
613.627	37.93
613.819	37.49
614.011	37.2
614.203	36.8
614.395	36.33
614.588	35.8
614.78	35.43
614.972	34.99
615.164	34.34
615.356	34.05
615.548	33.64
615.74	33.32
615.932	32.86
616.124	32.37
616.315	32.09
616.507	31.94
616.699	31.78
616.891	31.47
617.083	31.22
617.275	30.89
617.467	30.7
617.659	30.43
617.85	30.26
618.042	30.08
618.234	29.83
618.426	29.7
618.618	29.26
618.809	29.08
619.001	29.1
619.193	28.87
619.384	29.11
619.576	29.42
619.768	29.54
619.959	29.4
620.151	29.59
620.343	29.7
620.534	29.68
620.726	29.89
620.917	30.08
621.109	30.01
621.301	30.17
621.492	29.98
621.684	29.81
621.875	29.73
622.067	29.91
622.258	29.9
622.45	29.88
622.641	29.84
622.832	30.08
623.024	30.12
623.215	30.19
623.407	30.18
623.598	30.19
623.789	30.22
623.981	30.16
624.172	30.13
624.363	30.14
624.555	30.04
624.746	30.09
624.937	29.94
625.129	29.72
625.32	29.43
625.511	29.4
625.702	29.32
625.893	29.21
626.085	29.18
626.276	29.09
626.467	28.98
626.658	29.05
626.849	29.1
627.04	28.87
627.231	28.96
627.422	29.18
627.614	29.25
627.805	29.24
627.996	29.25
628.187	29.39
628.378	29.24
628.569	29.47
628.76	29.56
628.951	29.68
629.142	30.08
629.332	30.23
629.523	30.46
629.714	30.69
629.905	30.93
630.096	31.11
630.287	31.17
630.478	31.47
630.669	31.42
630.859	31.44
631.05	31.49
631.241	31.31
631.432	31.26
631.623	31.12
631.813	30.72
632.004	30.38
632.195	29.97
632.385	29.8
632.576	29.65
632.767	29.44
632.957	29.36
633.148	29.06
633.339	29
633.529	28.76
633.72	28.63
633.91	28.6
634.101	28.75
634.292	28.82
634.482	28.78
634.673	28.77
634.863	28.83
635.054	28.78
635.244	28.86
635.435	28.95
635.625	28.97
635.815	28.86
636.006	29.08
636.196	29
636.387	29.16
636.577	29.25
636.767	29.35
636.958	29.26
637.148	29.14
637.338	29.27
637.529	29.47
637.719	29.75
637.909	29.84
638.099	29.74
638.29	29.96
638.48	30.12
638.67	30.22
638.86	30.02
639.05	30.36
639.241	30.61
639.431	30.52
639.621	30.43
639.811	30.22
640.001	30.33
640.191	30.19
640.381	30.07
640.571	29.97
640.761	29.87
640.951	30.09
641.141	29.66
641.331	29.73
641.521	29.79
641.711	29.76
641.901	29.88
642.091	29.99
642.281	30.04
642.471	30.31
642.661	30.23
642.851	30.42
643.041	30.44
643.231	30.71
643.42	30.81
643.61	30.75
643.8	30.75
643.99	30.84
644.18	30.82
644.369	31.08
644.559	30.9
644.749	30.93
644.939	30.64
645.128	30.4
645.318	30.1
645.508	29.84
645.697	29.71
645.887	29.68
646.076	29.46
646.266	29.45
646.456	29.5
646.645	29.41
646.835	29.37
647.024	29.5
647.214	29.66
647.403	29.93
647.593	29.84
647.782	30.08
647.972	30.14
648.161	30.17
648.351	30.17
648.54	29.97
648.73	30.06
648.919	30.14
649.108	30.21
649.298	30.33
649.487	30.41
649.677	30.55
649.866	30.49
650.055	30.57
650.244	30.66
650.434	30.55
650.623	30.71
650.812	30.6
651.002	30.63
651.191	30.55
651.38	30.52
651.569	30.63
651.758	30.64
651.947	30.96
652.137	30.77
652.326	30.72
652.515	30.68
652.704	30.51
652.893	30.52
653.082	30.54
653.271	30.5
653.46	30.61
653.649	30.61
653.838	30.48
654.027	30.03
654.216	30.25
654.405	30.15
654.594	30.31
654.783	30.5
654.972	30.64
655.161	30.68
655.35	30.72
655.539	30.59
655.728	30.71
655.916	30.85
656.105	30.77
656.294	30.68
656.483	30.73
656.672	30.78
656.86	30.77
657.049	30.68
657.238	30.5
657.427	30.47
657.615	30.35
657.804	30.15
657.993	29.81
658.181	29.78
658.37	29.74
658.559	29.82
658.747	29.68
658.936	29.57
659.125	29.44
659.313	29.47
659.502	29.46
659.69	29.5
659.879	29.47
660.067	29.67
660.256	29.93
660.444	29.92
660.633	29.91
660.821	29.92
661.01	30.11
661.198	30.27
661.387	30.39
661.575	30.72
661.763	30.74
661.952	30.96
662.14	31.24
662.328	31.09
662.517	31.24
662.705	31.26
662.893	31.62
663.082	31.62
663.27	31.78
663.458	31.83
663.646	31.8
663.834	32.13
664.023	31.97
664.211	31.97
664.399	32.22
664.587	32.15
664.775	32.21
664.963	32.28
665.152	32.26
665.34	32.08
665.528	32.11
665.716	32.15
665.904	31.76
666.092	32.14
666.28	32.21
666.468	32.15
666.656	32.29
666.844	32.58
667.032	32.47
667.22	32.42
667.408	32.74
667.596	32.8
667.784	32.53
667.971	32.74
668.159	32.4
668.347	32.32
668.535	32.13
668.723	32.02
668.911	31.66
669.098	31.55
669.286	31.91
669.474	31.61
669.662	31.67
669.849	31.81
670.037	31.92
670.225	31.91
670.413	32.08
670.6	32.27
670.788	32.42
670.976	32.64
671.163	32.57
671.351	32.14
671.538	32.31
671.726	32.39
671.913	32.31
672.101	32.11
672.289	32.34
672.476	32.25
672.664	32.15
672.851	32.2
673.039	32.17
673.226	32.38
673.413	32.39
673.601	32.5
673.788	32.76
673.976	32.95
674.163	32.61
674.35	32.53
674.538	32.61
674.725	32.91
674.912	32.82
675.1	32.73
675.287	32.61
675.474	32.67
675.662	32.64
675.849	32.16
676.036	32.2
676.223	32.5
676.411	32.6
676.598	32.55
676.785	32.27
676.972	32.28
677.159	32.39
677.346	32.38
677.533	32.53
677.721	32.47
677.908	32.55
678.095	32.18
678.282	32.19
678.469	31.82
678.656	31.53
678.843	31.51
679.03	31.32
679.217	31.35
679.404	31.33
679.591	31.12
679.778	31.18
679.964	31.07
680.151	31.37
680.338	31.45
680.525	31.71
680.712	31.7
680.899	31.81
681.086	31.9
681.272	31.69
681.459	31.68
681.646	32.08
681.833	32.11
682.02	32.16
682.206	32.17
682.393	32.11
682.58	31.79
682.766	32.07
682.953	32.05
683.14	32.16
683.326	32.68
683.513	33.02
683.7	32.65
683.886	32.74
684.073	32.76
684.259	32.61
684.446	32.95
684.632	33.42
684.819	33.52
685.005	33.66
685.192	33.69
685.378	33.62
685.565	33.28
685.751	33.41
685.938	33.24
686.124	33.36
686.31	33.61
686.497	33.54
686.683	33.5
686.87	33.33
687.056	33.48
687.242	33.46
687.429	33.24
687.615	33.42
687.801	33.48
687.987	33.54
688.174	33.58
688.36	33.51
688.546	33.73
688.732	33.83
688.918	33.8
689.105	33.76
689.291	33.91
689.477	34.03
689.663	33.92
689.849	34.15
690.035	34.07
690.221	34.37
690.407	34.29
690.593	34.2
690.779	34.15
690.965	34.35
691.151	34.5
691.337	34.45
691.523	34.62
691.709	34.99
691.895	35.07
692.081	35.36
692.267	35.3
692.453	35.54
692.639	35.47
692.825	35.38
693.011	35.38
693.196	35.2
693.382	35.19
693.568	34.86
693.754	34.73
693.94	34.59
694.125	34.73
694.311	34.65
694.497	34.58
694.682	34.45
694.868	34.93
695.054	35.32
695.239	35.51
695.425	35.59
695.611	35.79
695.796	35.8
695.982	35.34
696.168	35.16
696.353	34.7
696.539	34.44
696.724	34.09
696.91	33.72
697.095	33.35
697.281	33.13
697.466	32.8
697.652	32.41
697.837	32.09
698.023	32.22
698.208	31.77
698.393	31.61
698.579	31.57
698.764	31.68
698.949	31.55
699.135	31.27
699.32	31.33
699.505	31.37
699.691	31.51
699.876	31.59
700.061	31.67
700.246	31.97
700.432	32.57
700.617	32.58
700.802	32.78
700.987	32.96
701.172	33.61
701.358	33.82
701.543	34.05
701.728	34.52
701.913	34.91
702.098	35.31
702.283	35.72
702.468	35.47
702.653	36.06
702.838	36.43
703.023	36.72
703.208	37.01
703.393	37.2
703.578	37.73
703.763	37.77
703.948	37.82
704.133	37.87
704.318	37.98
704.503	38.39
704.688	38.83
704.873	39.37
705.057	39.63
705.242	39.71
705.427	39.84
705.612	40.1
705.797	40.43
705.981	40.83
706.166	41.11
706.351	41.41
706.536	41.75
706.72	41.64
706.905	41.44
707.09	41.5
707.274	41.71
707.459	41.79
707.644	41.77
707.828	41.45
708.013	41.5
708.197	41.55
708.382	41.56
708.567	41.57
708.751	41.36
708.936	40.83
709.12	40.97
709.305	40.64
709.489	40.35
709.673	40.22
709.858	40.22
710.042	40.38
710.227	40.29
710.411	40.13
710.596	39.77
710.78	40.09
710.964	40.43
711.149	40.56
711.333	40.46
711.517	40.56
711.702	40.36
711.886	40.32
712.07	39.59
712.254	39.43
712.438	39.24
712.623	39.23
712.807	38.84
712.991	38.76
713.175	38.11
713.359	38.04
713.544	37.94
713.728	37.79
713.912	37.66
714.096	37.66
714.28	36.92
714.464	37.01
714.648	36.63
714.832	36.61
715.016	36.38
715.2	36.58
715.384	36.31
715.568	36.38
715.752	36.17
715.936	36.29
716.12	35.94
716.304	36.44
716.488	36.21
716.671	36.77
716.855	36.68
717.039	36.61
717.223	36.31
717.407	36.21
717.59	36.07
717.774	36.36
717.958	36.36
718.142	36.78
718.325	36.82
718.509	36.79
718.693	36.36
718.877	36.13
719.06	36.32
719.244	36.41
719.428	37.2
719.611	37.06
719.795	37.04
719.978	37.35
720.162	37.52
720.345	37.31
720.529	37.7
720.713	38.09
720.896	38.41
721.08	38.72
721.263	39.18
721.446	39.01
721.63	39.25
721.813	39.58
721.997	39.62
722.18	39.93
722.364	40.16
722.547	40.24
722.73	40.19
722.914	40.18
723.097	39.8
723.28	39.63
723.464	39.76
723.647	39.93
723.83	39.41
724.013	39.17
724.197	39.16
724.38	38.89
724.563	38.7
724.746	38.67
724.929	38.52
725.112	38.6
725.296	38.38
725.479	38.09
725.662	37.99
725.845	38.3
726.028	38.17
726.211	37.97
726.394	38.3
726.577	38.17
726.76	38.12
726.943	38.23
727.126	37.6
727.309	37.64
727.492	37.58
727.675	37.85
727.858	37.51
728.041	37.38
728.224	37.18
728.407	37.02
728.589	37.23
728.772	37.04
728.955	37.06
729.138	37.48
729.321	37.29
729.503	37.09
729.686	36.41
729.869	36.85
730.052	37.15
730.234	37.31
730.417	38.08
730.6	37.64
730.782	37.69
730.965	37.74
731.148	37.51
731.33	37.89
731.513	37.72
731.695	37.69
731.878	37.33
732.061	37.26
732.243	37
732.426	36.8
732.608	37.47
732.791	37.61
732.973	37.59
733.156	38.16
733.338	37.72
733.52	37.96
733.703	38.03
733.885	37.97
734.068	37.89
734.25	38.16
734.432	38.05
734.615	37.83
734.797	37.77
734.979	37.86
735.162	37.92
735.344	38.23
735.526	38.42
735.708	39.24
735.891	39.88
736.073	40.46
736.255	41.15
736.437	40.62
736.619	40.84
736.802	41.53
736.984	41.72
737.166	42.29
737.348	42.8
737.53	42.71
737.712	42.35
737.894	42.12
738.076	41.69
738.258	40.85
738.44	41.01
738.622	40.67
738.804	40.08
738.986	40.17
739.168	39.89
739.35	40
739.532	40.43
739.714	40.18
739.896	40.05
740.078	40.72
740.259	41.21
740.441	41.61
740.623	41.8
740.805	42.5
740.987	42
741.168	42.13
741.35	41.89
741.532	41.94
741.714	42.79
741.895	43.22
742.077	43.08
742.259	43.03
742.44	42.91
742.622	43.16
742.804	42.89
742.985	43.37
743.167	43.01
743.348	42.77
743.53	43.12
743.711	42.64
743.893	42.71
744.075	42.68
744.256	43.33
744.438	43.57
744.619	43.89
744.8	43.89
744.982	44.01
745.163	44.45
745.345	45.04
745.526	44.95
745.707	45.39
745.889	45.4
746.07	45.81
746.252	45.85
746.433	45.87
746.614	45.42
746.795	44.86
746.977	45.23
747.158	45.02
747.339	44.98
747.52	44.82
747.702	44.66
747.883	44.48
748.064	43.72
748.245	43.55
748.426	42.88
748.607	43.94
748.788	44.77
748.97	44.87
749.151	45.04
749.332	44.64
749.513	44.54
749.694	44.81
749.875	45.42
750.056	45.66
750.237	45.77
750.418	46.37
750.599	45.89
750.78	45.67
750.96	45.95
751.141	46.05
751.322	46.67
751.503	46.96
751.684	46.65
751.865	46.25
752.046	46.56
752.226	45.72
752.407	45.81
752.588	45.33
752.769	45.27
752.949	44.74
753.13	44.27
753.311	43.02
753.492	42.72
753.672	42.85
753.853	42.6
754.034	42.53
754.214	43.37
754.395	43.46
754.575	43.98
754.756	44.65
754.937	44.46
755.117	44.12
755.298	45.35
755.478	45.95
755.659	45.97
755.839	46.27
756.02	45.74
756.2	45.06
756.381	45.23
756.561	44.38
756.741	43.85
756.922	44.19
757.102	44.85
757.283	44.22
757.463	43.51
757.643	43.65
757.823	43.4
758.004	43.51
758.184	43.55
758.364	43
758.545	42.21
758.725	41.6
758.905	40.66
759.085	40.14
759.265	40.76
759.446	41.19
759.626	40.91
759.806	40.83
759.986	40.57
760.166	40.79
760.346	40.24
760.526	41.34
760.706	41.32
760.886	41.12
761.066	41.3
761.246	40.08
761.426	39.67
761.606	39.33
761.786	39.28
761.966	39.01
762.146	37.95
762.326	38.4
762.506	38.08
762.686	37.92
762.866	37.73
763.046	37.54
763.225	37.54
763.405	37
763.585	36.63
763.765	36.36
763.945	36.19
764.124	36.15
764.304	35.82
764.484	35.94
764.664	36.55
764.843	36.8
765.023	36.78
765.203	37.46
765.382	37.99
765.562	39.15
765.741	39.52
765.921	40.45
766.101	41.68
766.28	42.48
766.46	42.19
766.639	41.91
766.819	42.37
766.998	42.55
767.178	42.7
767.357	43.12
767.537	42.92
767.716	43.47
767.896	44.04
768.075	43.44
768.254	43.44
768.434	44.71
768.613	45.51
768.792	46.25
768.972	47.06
769.151	47.49
769.33	47.89
769.51	47.43
769.689	47.82
769.868	47.55
770.047	48.79
770.226	49.36
770.406	48.38
770.585	48.36
770.764	48.79
770.943	48.66
771.122	47.72
771.301	47.68
771.48	48.46
771.66	48.1
771.839	48.1
772.018	48.22
772.197	47.56
772.376	48.62
772.555	48.89
772.734	48.67
772.913	48.85
773.092	49.37
773.271	49.49
773.449	49.78
773.628	50.06
773.807	50.14
773.986	50.02
774.165	51.27
774.344	51.58
774.523	51.58
774.701	52.21
774.88	52.23
775.059	53.1
775.238	52.95
775.417	52.7
775.595	53.33
775.774	52.94
775.953	53.03
776.131	52.4
776.31	51.61
776.489	51.37
776.667	50.98
776.846	51.29
777.025	50.04
777.203	50.12
777.382	49.71
777.56	49.19
777.739	48.62
777.917	48.31
778.096	48.84
778.274	49.11
778.453	49.39
778.631	49.22
778.81	48.61
778.988	48.44
779.166	48.04
779.345	49.4
779.523	49.01
779.702	50.31
779.88	50.43
780.058	50.05
780.237	51.47
780.415	52.25
780.593	52.6
780.771	52.76
780.95	53.48
781.128	54.31
781.306	53.33
781.484	54.06
781.662	53.27
781.841	52.85
782.019	51.98
782.197	50.73
782.375	49.77
782.553	49.55
782.731	49.61
782.909	50.8
783.087	49.63
783.265	49.63
783.443	48.72
783.621	49.87
783.799	50.29
783.977	50.27
784.155	50.26
784.333	50.02
784.511	49.87
784.689	51.17
784.867	50.91
785.045	51.93
785.223	52.64
785.4	53.07
785.578	53.01
785.756	53.58
785.934	54.64
786.112	55.1
786.289	55.44
786.467	54.41
786.645	53.54
786.823	52.96
787	52.23
787.178	51.64
787.356	50.91
787.533	50.12
787.711	49.11
787.889	48.93
788.066	47.92
788.244	47.49
788.421	47.29
788.599	45.66
788.776	46.26
788.954	46.51
789.131	45.55
789.309	46.31
789.486	47.56
789.664	48.74
789.841	48.71
790.019	49.34
790.196	49.77
790.373	50.29
790.551	52.47
790.728	52.4
790.906	52.8
791.083	53.86
791.26	54.15
791.437	53.07
791.615	52.57
791.792	52.6
791.969	53.44
792.146	53.29
792.324	54.18
792.501	53.56
792.678	53.04
792.855	53.05
793.032	53.31
793.209	53.67
793.387	53.21
793.564	52.91
793.741	53.31
793.918	52.28
794.095	51.79
794.272	51.12
794.449	51.27
794.626	51.73
794.803	51.08
794.98	51.75
795.157	51.21
795.334	51.71
795.511	51.94
795.688	50.94
795.864	51.23
796.041	51.37
796.218	52.18
796.395	51.82
796.572	51.05
796.749	51.39
796.925	50.61
797.102	50.05
797.279	49.09
797.456	48.14
797.632	49
797.809	49.39
797.986	49.18
798.162	48.9
798.339	48.75
798.516	50.58
798.692	50.88
798.869	50.9
799.046	52.03
799.222	53.01
799.399	54.11
799.575	53.85
799.752	53.87
799.928	54.8
800.105	54.9
800.281	54.71
800.458	53.11
800.634	53.12
800.811	53.1
800.987	53.83
801.163	54.84
801.34	55.07
801.516	55.21
801.692	54.46
801.869	53.84
802.045	55.06
802.221	56.55
802.398	56.82
802.574	55.87
802.75	56.65
802.926	55.61
803.103	54.84
803.279	54.35
803.455	54.18
803.631	56.18
803.807	56.74
803.983	55.28
804.16	55.16
804.336	54.97
804.512	56.54
804.688	55.9
804.864	56.45
805.04	56.24
805.216	56.29
805.392	57.18
805.568	55.29
805.744	55.53
805.92	56.47
806.096	56.08
806.272	56.01
806.448	56.54
806.623	56.45
806.799	56.27
806.975	56.1
807.151	56.78
807.327	56.14
807.503	57.07
807.678	57.72
807.854	56.67
808.03	56.23
808.206	56.75
808.381	55.41
808.557	56.91
808.733	57.12
808.908	57.37
809.084	57.02
809.26	57.68
809.435	57.94
809.611	58.01
809.787	57.94
809.962	59.58
810.138	59.01
810.313	60.26
810.489	59.24
810.664	58.63
810.84	57.59
811.015	58.38
811.191	58.82
811.366	58.7
811.542	58.67
811.717	60.26
811.892	59.39
812.068	60.89
812.243	60.84
812.419	60.94
812.594	60.98
812.769	63.12
812.944	63.06
813.12	61.98
813.295	60.62
813.47	60.06
813.645	57.98
813.821	57.87
813.996	56.81
814.171	56.37
814.346	55.54
814.521	55.79
814.697	54.99
814.872	53.51
815.047	54.04
815.222	55.18
815.397	55.18
815.572	56.85
815.747	56.01
815.922	55.52
816.097	53.8
816.272	54.83
816.447	55.48
816.622	56.77
816.797	56.39
816.972	55.31
817.147	55.28
817.322	53.36
817.496	52.31
817.671	51.79
817.846	53.13
818.021	53.42
818.196	52.22
818.371	51.02
818.545	49.22
818.72	50.07
818.895	50.88
819.069	48.34
819.244	48.81
819.419	47.78
819.594	46.76
819.768	44.16
819.943	43.69
820.117	42.34
820.292	40.9
820.467	39.23
820.641	37.53
820.816	35.28
820.99	34.32
821.165	32.89
821.339	31.96
821.514	31.17
821.688	30.8
821.863	29.94
822.037	29.41
822.212	28.9
822.386	28.8
822.56	28.36
822.735	28.39
822.909	28.52
823.084	28.5
823.258	28.43
823.432	28.44
823.606	28.3
823.781	28.83
823.955	28.99
824.129	29.43
824.303	29.93
824.478	30.55
824.652	30.99
824.826	31.21
825	32.04
825.174	33.08
825.348	33.81
825.523	34.47
825.697	34.49
825.871	34.87
826.045	34.77
826.219	34.5
826.393	34.65
826.567	34.35
826.741	34.34
826.915	33.74
827.089	33.56
827.263	33.74
827.437	33.64
827.611	33.45
827.784	33.81
827.958	33.93
828.132	33.99
828.306	34.32
828.48	34.48
828.654	35.45
828.827	36.66
829.001	36.31
829.175	37.54
829.349	39.2
829.522	40.63
829.696	41.19
829.87	42.52
830.044	44.04
830.217	45.25
830.391	46.51
830.565	46.27
830.738	46.24
830.912	48.08
831.085	46.41
831.259	46.83
831.432	46.05
831.606	46.76
831.779	45.69
831.953	45.26
832.126	43.76
832.3	43.31
832.473	41.95
832.647	41.69
832.82	41.57
832.994	41.67
833.167	41.26
833.34	40.73
833.514	39.96
833.687	40.12
833.86	38.73
834.034	38.49
834.207	38.53
834.38	39.61
834.553	39.26
834.727	39.07
834.9	38.91
835.073	39.03
835.246	39.68
835.419	40.22
835.593	41.22
835.766	42.62
835.939	43.73
836.112	44.36
836.285	44.67
836.458	46.73
836.631	48.76
836.804	51.03
836.977	51.96
837.15	53.05
837.323	54.12
837.496	54.26
837.669	54.3
837.842	55.58
838.015	56.8
838.188	58.1
838.361	57.97
838.533	58.52
838.706	57.88
838.879	58
839.052	58.47
839.225	60.76
839.398	62.34
839.57	64.8
839.743	64.14
839.916	62.71
840.088	63.26
840.261	63.7
840.434	63.36
840.607	62.83
840.779	61.42
840.952	60.92
841.124	59.03
841.297	57.95
841.47	57.23
841.642	57.93
841.815	61.58
841.987	61.4
842.16	63.9
842.332	65.08
842.505	67.81
842.677	71.05
842.85	73.41
843.022	75.87
843.194	80.34
843.367	81.94
843.539	84.17
843.712	83.46
843.884	86.52
844.056	84.8
844.229	82.99
844.401	85.38
844.573	88.87
844.745	90.12
844.918	91.11
845.09	87.02
845.262	89.89
845.434	91.44
845.606	93.5
845.779	94.01
845.951	95.43
846.123	96.44
846.295	95.1
846.467	92.72
846.639	95.19
846.811	93.36
846.983	97.53
847.155	93.24
847.327	94.09
847.499	94.6
847.671	93.01
847.843	93.08
848.015	96.02
848.187	97.32
848.359	93.93
848.531	93.63
848.703	95.92
848.875	97.08
849.047	99.51
849.218	98.53
849.39	97.42
849.562	100.4
849.734	101.09
849.905	99.7
850.077	98.22
850.249	103.1
850.421	103.43
850.592	106.6
850.764	105.91
850.936	108.79
851.107	111.14
851.279	109.64
851.451	110.63
851.622	112.16
851.794	120.38
851.965	123.83
852.137	125.64
852.308	125.11
852.48	119.66
852.651	112.26
852.823	108.56
852.994	104.61
853.166	104.71
853.337	99.39
853.509	97.83
853.68	90.66
853.851	86.38
854.023	85.21
854.194	82.69
854.365	84.03
854.537	91.33
854.708	91.24
854.879	93.36
855.05	97.57
855.222	97.18
855.393	96.84
855.564	96.92
855.735	100.82
855.906	100.63
856.078	100.05
856.249	99.01
856.42	98.49
856.591	101.99
856.762	102.58
856.933	98.53
857.104	100.59
857.275	101.5
857.446	100.71
857.617	99.24
857.788	100.56
857.959	102.72
858.13	106.25
858.301	105.8
858.472	101.85
858.643	99.45
858.814	103.5
858.985	107.5
859.155	112.74
859.326	115.94
859.497	119.33
859.668	115.46
859.839	123.29
860.009	124.96
860.18	123.79
860.351	127.87
860.522	133.28
860.692	129.14
860.863	124.97
861.034	119.05
861.204	119.77
861.375	114.62
861.546	119.37
861.716	115.29
861.887	110.57
862.057	111.51
862.228	109.81
862.398	109.63
862.569	107.35
862.739	112.33
862.91	114.57
863.08	111.3
863.251	112.66
863.421	112.58
863.592	104.2
863.762	107
863.932	104.8
864.103	104.54
864.273	103.95
864.443	103.32
864.614	101.57
864.784	102.11
864.954	102.53
865.125	101.44
865.295	98.96
865.465	106.41
865.635	108.26
865.805	110.12
865.976	110.25
866.146	107.08
866.316	113.55
866.486	112.29
866.656	109.74
866.826	112.97
866.996	117.16
867.166	120.58
867.336	121.25
867.506	121.84
867.676	120.89
867.846	120.36
868.016	121.65
868.186	111.39
868.356	111.15
868.526	111.38
868.696	109.98
868.866	105.67
869.036	106.36
869.206	104.76
869.376	99.48
869.545	101.75
869.715	102.64
869.885	103.9
870.055	109.6
870.224	108.71
870.394	113.1
870.564	111.08
870.734	118.1
870.903	119.27
871.073	123.1
871.243	125.29
871.412	121.6
871.582	126.07
871.751	126.56
871.921	124.24
872.091	123.78
872.26	115.59
872.43	119.4
872.599	109.94
872.769	107.56
872.938	102.95
873.108	100.17
873.277	96.56
873.446	95.21
873.616	97.87
873.785	100.08
873.955	100.18
874.124	104.7
874.293	102.01
874.463	105.58
874.632	103.46
874.801	108.14
874.971	110.62
875.14	116.44
875.309	111.16
875.478	113.43
875.647	109.66
875.817	112.4
875.986	106.56
876.155	107.16
876.324	99.06
876.493	100
876.662	95.84
876.831	98.53
877	98.11
877.17	98.74
877.339	96.13
877.508	95.95
877.677	90.37
877.846	94.03
878.015	92.24
878.184	100.28
878.352	102.91
878.521	102.11
878.69	100.57
878.859	100.1
879.028	99.06
879.197	92.65
879.366	92.08
879.534	89.5
879.703	85.11
879.872	78.32
880.041	70.44
880.21	62.69
880.378	57.98
880.547	52.55
880.716	48.47
880.884	45.4
881.053	43.58
881.222	40.88
881.39	38.94
881.559	36.24
881.727	34.57
881.896	34.57
882.065	34.06
882.233	33.6
882.402	32.35
882.57	32.69
882.739	32.75
882.907	32.94
883.076	33.05
883.244	33.12
883.412	33.29
883.581	33.66
883.749	34.12
883.918	34.46
884.086	35.16
884.254	37.62
884.423	37.69
884.591	38.61
884.759	39.79
884.927	41.81
885.096	43.23
885.264	46.93
885.432	50.99
885.6	54.6
885.769	57.9
885.937	61.25
886.105	63.56
886.273	65.55
886.441	68.84
886.609	72.23
886.777	72.71
886.945	76.72
887.113	77.63
887.281	76.04
887.449	75.07
887.617	77.21
887.785	77.85
887.953	79.15
888.121	82.01
888.289	81.94
888.457	80.63
888.625	84.02
888.793	85.1
888.961	87.99
889.129	95.1
889.296	97.05
889.464	96.15
889.632	96.39
889.8	96.22
889.967	98.01
890.135	104.53
