Data from 2938798__Reflection_01.txt Node
Date: Thu Mar 12 23:03:14 EDT 2015
User: robert
Spectrometer: USB4E03002
Autoset integration time: false
Trigger mode: 4
Integration Time (sec): 1.000000E-1
Scans to average: 10
Electric dark correction enabled: false
Nonlinearity correction enabled: false
Boxcar width: 5
Stray light correction enabled: false
XAxis mode: Wavelengths
Stop averaging: false
Number of Pixels in Spectrum: 3648
>>>>>Begin Spectral Data<<<<<
177.575	973.83
177.794	2930.56
178.014	859.62
178.233	947.33
178.452	459.84
178.672	455.69
178.891	546.07
179.11	492.15
179.33	451.56
179.549	457.58
179.768	343.42
179.987	279.25
180.207	258.92
180.426	293.96
180.645	319.34
180.864	316.28
181.084	371.13
181.303	228.56
181.522	198.98
181.741	166.29
181.96	164.93
182.179	179.49
182.398	192.39
182.618	182.65
182.837	167.32
183.056	174.6
183.275	172.52
183.494	152.41
183.713	157.11
183.932	163.44
184.151	193.35
184.37	178
184.589	173.54
184.808	176.05
185.027	171.76
185.246	175.59
185.465	155.07
185.684	182.63
185.903	181.19
186.122	192
186.341	211.64
186.56	194
186.779	196.29
186.998	196.17
187.216	190.44
187.435	199.93
187.654	202.84
187.873	220.71
188.092	205.07
188.311	226.32
188.53	222.95
188.748	218.43
188.967	220.89
189.186	231.77
189.405	238.36
189.623	232.71
189.842	208.49
190.061	190.26
190.28	183.89
190.498	169.34
190.717	160.62
190.936	163.47
191.154	145.32
191.373	150.87
191.592	138.1
191.81	137.94
192.029	137.85
192.248	142.98
192.466	137.41
192.685	133.43
192.904	152.79
193.122	152.94
193.341	167.4
193.559	186.32
193.778	186.82
193.996	206.58
194.215	203.66
194.433	233.92
194.652	268.35
194.87	309.12
195.089	338.11
195.307	285.65
195.526	254.47
195.744	259.24
195.963	239.95
196.181	265.16
196.399	267.64
196.618	239.15
196.836	222.63
197.055	198.35
197.273	195.67
197.491	185.03
197.71	190.38
197.928	207.23
198.146	192.47
198.365	175.35
198.583	169.53
198.801	160.56
199.019	203.3
199.238	189.59
199.456	200.16
199.674	208.41
199.892	199.61
200.111	201.91
200.329	208.09
200.547	238.09
200.765	272.11
200.983	229.6
201.202	217.57
201.42	181.03
201.638	193.85
201.856	197
202.074	190.49
202.292	187.88
202.51	166.39
202.728	167.32
202.946	148.82
203.165	152.26
203.383	174.11
203.601	192.38
203.819	198.91
204.037	205.26
204.255	216.78
204.473	204
204.691	216.28
204.909	220.19
205.127	208.25
205.345	214.31
205.562	182.21
205.78	170.6
205.998	180.71
206.216	172.86
206.434	181.92
206.652	165.55
206.87	157.77
207.088	150.51
207.306	157.72
207.523	155.58
207.741	155.19
207.959	172.35
208.177	170.18
208.395	156
208.612	162.76
208.83	143.1
209.048	149.14
209.266	161.16
209.483	168.36
209.701	158.08
209.919	151.76
210.136	147.42
210.354	148.47
210.572	151.09
210.79	153.69
211.007	153.44
211.225	159.21
211.442	148.47
211.66	142.45
211.878	129.35
212.095	126.62
212.313	127.65
212.53	131.57
212.748	127.86
212.966	131.33
213.183	129.93
213.401	131.78
213.618	133.47
213.836	129.97
214.053	132.24
214.271	138.79
214.488	147.41
214.705	145.42
214.923	148.93
215.14	147.36
215.358	150.48
215.575	166.26
215.793	151.97
216.01	153.25
216.227	158.82
216.445	163.05
216.662	187.16
216.879	167.02
217.097	184
217.314	151.04
217.531	147.45
217.749	146.31
217.966	142.05
218.183	150.82
218.4	131.91
218.618	133.77
218.835	127.01
219.052	117.38
219.269	116.17
219.487	112.68
219.704	118.24
219.921	117.49
220.138	114.34
220.355	108.71
220.572	111.4
220.79	108.02
221.007	98.93
221.224	95.39
221.441	92.58
221.658	89.98
221.875	83.9
222.092	80.78
222.309	77.94
222.526	77.2
222.743	74.79
222.96	68.07
223.177	67.57
223.394	68.57
223.611	70.09
223.828	66.58
224.045	66.18
224.262	66.13
224.479	67.51
224.696	66.04
224.913	62.66
225.13	62.07
225.347	59.22
225.564	58.69
225.781	57.99
225.997	53.72
226.214	50.48
226.431	46.34
226.648	39.67
226.865	35.4
227.082	31.17
227.298	27.24
227.515	23.3
227.732	21.31
227.949	19.17
228.165	17.01
228.382	16.03
228.599	15.82
228.816	15.49
229.032	15.73
229.249	15.05
229.466	14.44
229.682	13.64
229.899	13.75
230.116	13.54
230.332	13.51
230.549	13.81
230.765	13.95
230.982	13.79
231.199	14.32
231.415	14.98
231.632	16.49
231.848	17.94
232.065	20.52
232.281	21.18
232.498	21.61
232.714	22.99
232.931	24.53
233.147	23.76
233.364	24.23
233.58	23.77
233.797	23.9
234.013	22.61
234.23	22.17
234.446	22.18
234.662	21.42
234.879	22.31
235.095	21.9
235.312	20.1
235.528	22.65
235.744	23.65
235.961	23
236.177	22.32
236.393	22.9
236.61	23.92
236.826	22.78
237.042	24.36
237.258	24.58
237.475	25.4
237.691	27.55
237.907	26.58
238.123	25.74
238.339	25.95
238.556	25.7
238.772	25.59
238.988	25.23
239.204	26.62
239.42	26.76
239.636	25.06
239.853	23.19
240.069	21.32
240.285	20.03
240.501	18.52
240.717	17.65
240.933	16.05
241.149	14.86
241.365	13.7
241.581	12.66
241.797	12.03
242.013	12.09
242.229	12.29
242.445	12.26
242.661	11.96
242.877	12.18
243.093	12.28
243.309	13.02
243.525	13.08
243.741	13.34
243.957	13.46
244.173	12.78
244.388	13.22
244.604	12.83
244.82	12.74
245.036	12.4
245.252	12
245.468	11.58
245.683	11.03
245.899	11.22
246.115	10.7
246.331	10.26
246.547	10.42
246.762	9.77
246.978	9.49
247.194	9.09
247.409	9.12
247.625	9.07
247.841	8.99
248.057	9.09
248.272	8.74
248.488	8.73
248.703	9.14
248.919	8.8
249.135	9.51
249.35	10.23
249.566	11.41
249.782	11.77
249.997	12.47
250.213	13.06
250.428	13.44
250.644	14.05
250.859	14.54
251.075	14.12
251.29	14.72
251.506	13.84
251.721	13.73
251.937	12.6
252.152	12.73
252.368	12.22
252.583	12.37
252.798	12.55
253.014	12.3
253.229	12.7
253.445	12.79
253.66	12.43
253.875	11.95
254.091	11.45
254.306	12.18
254.521	11.72
254.737	12.55
254.952	12.24
255.167	11.67
255.383	11.34
255.598	10.25
255.813	10.55
256.028	11.23
256.244	12.33
256.459	12.52
256.674	12.52
256.889	12.21
257.104	11.78
257.32	11.49
257.535	11.13
257.75	11.55
257.965	11.65
258.18	10.84
258.395	10.37
258.61	9.79
258.826	9.25
259.041	8.64
259.256	8.33
259.471	7.97
259.686	7.68
259.901	7.72
260.116	7.33
260.331	7.2
260.546	7.37
260.761	7.28
260.976	7.33
261.191	7.44
261.406	7.69
261.621	8.19
261.836	8.62
262.05	9.14
262.265	9.19
262.48	9.44
262.695	9.18
262.91	9.27
263.125	9.78
263.34	10.15
263.555	10.37
263.769	10.26
263.984	9.93
264.199	10.07
264.414	10.34
264.629	10.34
264.843	11.01
265.058	11.45
265.273	10.9
265.488	10.74
265.702	10.4
265.917	10.45
266.132	10.86
266.346	10.88
266.561	10.39
266.776	10.43
266.99	9.99
267.205	9.47
267.42	9.51
267.634	9.89
267.849	9.54
268.063	9.52
268.278	9.2
268.492	9.04
268.707	9.17
268.922	9.57
269.136	9.06
269.351	9.62
269.565	9.63
269.78	9.35
269.994	9.26
270.209	9.49
270.423	9.33
270.637	9.06
270.852	8.89
271.066	8.58
271.281	8.03
271.495	7.97
271.709	7.61
271.924	7.37
272.138	7.34
272.353	6.98
272.567	6.96
272.781	6.95
272.996	7.17
273.21	7.23
273.424	7.28
273.638	7.59
273.853	7.88
274.067	8.15
274.281	8.84
274.495	8.75
274.71	9.14
274.924	9.27
275.138	9.07
275.352	9.12
275.566	9.02
275.781	9.28
275.995	9.23
276.209	9.15
276.423	9.14
276.637	9.22
276.851	9.48
277.065	9.65
277.279	10.12
277.493	10.73
277.707	10.58
277.921	10.88
278.135	11.01
278.349	10.79
278.563	10.66
278.777	10.68
278.991	9.97
279.205	10.05
279.419	9.35
279.633	8.92
279.847	8.8
280.061	8.6
280.275	8.45
280.489	8.04
280.703	7.96
280.917	8.05
281.131	7.89
281.344	7.85
281.558	7.66
281.772	7.81
281.986	7.11
282.2	6.82
282.414	6.89
282.627	6.78
282.841	6.76
283.055	6.79
283.269	6.83
283.482	7.14
283.696	7.19
283.91	7.29
284.123	7.51
284.337	7.86
284.551	7.69
284.764	8
284.978	7.79
285.192	7.65
285.405	7.84
285.619	7.62
285.833	7.36
286.046	7.43
286.26	7.37
286.473	7.2
286.687	7.19
286.9	7.44
287.114	7.12
287.327	7.46
287.541	7.75
287.754	7.86
287.968	8.03
288.181	8.03
288.395	7.99
288.608	8.06
288.822	8.17
289.035	8.27
289.248	8.08
289.462	7.97
289.675	7.82
289.889	7.48
290.102	7.21
290.315	7.31
290.529	7.53
290.742	7.71
290.955	7.69
291.169	7.69
291.382	7.92
291.595	8.34
291.808	9.03
292.022	9.28
292.235	9.63
292.448	9.81
292.661	9.37
292.875	9.28
293.088	9.45
293.301	9.8
293.514	9.66
293.727	9.4
293.94	9.43
294.153	8.86
294.367	8.68
294.58	8.64
294.793	8.87
295.006	9.58
295.219	9.53
295.432	9.23
295.645	8.76
295.858	8.98
296.071	8.96
296.284	8.85
296.497	8.94
296.71	8.95
296.923	8.9
297.136	8.69
297.349	8.19
297.562	8.17
297.775	8.35
297.988	8.7
298.201	8.79
298.414	8.83
298.626	8.7
298.839	8.8
299.052	8.9
299.265	9.42
299.478	9.62
299.691	10.01
299.903	10
300.116	10.17
300.329	10.14
300.542	10.12
300.755	10.09
300.967	10.85
301.18	11.1
301.393	11.71
301.605	11.27
301.818	11.58
302.031	11.68
302.243	12.08
302.456	12.31
302.669	12.39
302.881	12.51
303.094	12.63
303.307	12.01
303.519	11.98
303.732	11.27
303.944	11.48
304.157	11.68
304.37	11.59
304.582	11.56
304.795	11.31
305.007	11.49
305.22	11.39
305.432	11.43
305.645	11.76
305.857	11.9
306.069	12.22
306.282	12.26
306.494	11.67
306.707	11.93
306.919	12
307.132	12.07
307.344	11.72
307.556	11.84
307.769	12.05
307.981	11.84
308.193	11.73
308.406	11.32
308.618	11.3
308.83	11.35
309.043	11.42
309.255	11.44
309.467	11.29
309.679	11.54
309.892	11.52
310.104	11.29
310.316	11.07
310.528	11.04
310.74	11.04
310.953	10.85
311.165	11.1
311.377	11.14
311.589	10.93
311.801	11.13
312.013	11.2
312.225	11.27
312.437	11.78
312.649	12.3
312.862	12.35
313.074	12.86
313.286	13.43
313.498	13.17
313.71	13.07
313.922	13.2
314.134	13.33
314.346	13.3
314.558	13.4
314.77	13.1
314.982	12.84
315.193	12.88
315.405	12.87
315.617	12.61
315.829	12.72
316.041	13.15
316.253	12.67
316.465	13.13
316.677	13.57
316.888	13.5
317.1	13.27
317.312	13.46
317.524	13.38
317.736	13.03
317.947	13.16
318.159	13.68
318.371	13.21
318.583	14.34
318.794	13.77
319.006	13.51
319.218	13.83
319.43	14.11
319.641	14.55
319.853	14.77
320.064	15.2
320.276	15.31
320.488	15.46
320.699	16.47
320.911	16.04
321.123	16.07
321.334	16.41
321.546	16.64
321.757	17.07
321.969	17.09
322.18	17.16
322.392	17.51
322.603	17.8
322.815	17.81
323.026	17.07
323.238	17.21
323.449	17.54
323.661	17.09
323.872	17.21
324.083	17.31
324.295	17.36
324.506	17.69
324.718	17.53
324.929	17.74
325.14	17.73
325.352	18.26
325.563	19
325.774	19.81
325.986	20.26
326.197	20.42
326.408	20.8
326.62	21.13
326.831	21.74
327.042	22.32
327.253	22.84
327.464	23.34
327.676	23.62
327.887	23.6
328.098	23.81
328.309	24.42
328.52	24.8
328.732	25.21
328.943	25.59
329.154	25.93
329.365	26.66
329.576	27.19
329.787	27.62
329.998	28.61
330.209	29.35
330.42	29.51
330.631	30.09
330.842	30.7
331.053	31.21
331.264	31.5
331.475	31.82
331.686	31.75
331.897	31.71
332.108	32.22
332.319	31.78
332.53	32.17
332.741	32.49
332.952	32.41
333.163	32.66
333.374	32.82
333.585	33.01
333.795	33.51
334.006	33.97
334.217	34.28
334.428	34.17
334.639	34.32
334.849	34.2
335.06	34.01
335.271	34.39
335.482	34.49
335.692	34.74
335.903	34.99
336.114	34.68
336.325	34.91
336.535	35
336.746	35.13
336.957	35.53
337.167	35.72
337.378	35.98
337.589	36.22
337.799	36.2
338.01	35.96
338.22	35.99
338.431	36.1
338.642	35.78
338.852	35.77
339.063	35.88
339.273	35.9
339.484	36.04
339.694	35.99
339.905	35.79
340.115	35.61
340.326	35.71
340.536	35.53
340.746	35.48
340.957	35.43
341.167	35.41
341.378	35.29
341.588	35.1
341.799	34.66
342.009	34.39
342.219	34.34
342.43	34.71
342.64	34.54
342.85	34.48
343.061	34.55
343.271	34.72
343.481	34.38
343.691	34.37
343.902	34.57
344.112	34.76
344.322	34.93
344.532	34.38
344.743	34.32
344.953	34.21
345.163	34.4
345.373	34.27
345.583	33.93
345.793	33.99
346.004	33.79
346.214	33.5
346.424	33.69
346.634	33.64
346.844	33.99
347.054	33.79
347.264	34
347.474	33.78
347.684	33.55
347.894	33.82
348.104	33.81
348.314	34.14
348.524	34.1
348.734	33.89
348.944	34.19
349.154	34.02
349.364	33.83
349.574	33.64
349.784	33.54
349.994	33.84
350.204	33.72
350.413	33.85
350.623	33.5
350.833	33.65
351.043	33.56
351.253	33.05
351.463	33.18
351.672	32.88
351.882	32.78
352.092	32.45
352.302	32.09
352.511	32.3
352.721	32.13
352.931	32.28
353.141	32.27
353.35	32.11
353.56	32.33
353.77	32.32
353.979	32.61
354.189	32.61
354.399	33.08
354.608	33.17
354.818	32.85
355.027	32.85
355.237	32.77
355.447	32.65
355.656	32.77
355.866	32.65
356.075	32.39
356.285	32.18
356.494	32.11
356.704	31.95
356.913	31.72
357.123	31.89
357.332	31.9
357.542	31.66
357.751	31.63
357.96	31.51
358.17	31.37
358.379	31.39
358.589	31.24
358.798	31.35
359.007	31.24
359.217	31.26
359.426	30.92
359.635	30.86
359.845	30.86
360.054	30.5
360.263	30.32
360.472	30.46
360.682	30.4
360.891	30.63
361.1	30.51
361.309	30.56
361.519	30.61
361.728	30.72
361.937	30.67
362.146	30.83
362.355	31.08
362.564	31.19
362.774	31.13
362.983	31.01
363.192	30.88
363.401	30.73
363.61	30.56
363.819	30.57
364.028	30.31
364.237	30.32
364.446	29.99
364.655	29.87
364.864	29.93
365.073	29.8
365.282	29.91
365.491	29.98
365.7	29.99
365.909	30.1
366.118	29.96
366.327	30.14
366.536	30.06
366.745	30.1
366.954	30.02
367.162	29.89
367.371	29.87
367.58	30.12
367.789	30.12
367.998	30.13
368.207	30.32
368.415	30.59
368.624	30.66
368.833	30.5
369.042	30.36
369.25	30.43
369.459	30.61
369.668	30.52
369.877	30.04
370.085	29.78
370.294	29.62
370.503	29.47
370.711	29.19
370.92	28.89
371.129	29.12
371.337	29.11
371.546	28.97
371.754	28.64
371.963	28.72
372.171	28.79
372.38	29.02
372.589	29.36
372.797	29.36
373.006	29.2
373.214	29.37
373.423	29.24
373.631	29.54
373.84	29.69
374.048	29.91
374.256	29.99
374.465	30.22
374.673	30.09
374.882	29.91
375.09	29.71
375.298	29.87
375.507	29.85
375.715	29.8
375.923	29.83
376.132	29.74
376.34	29.5
376.548	29.33
376.757	29.23
376.965	29.24
377.173	29.22
377.381	29.23
377.59	29
377.798	28.87
378.006	28.91
378.214	28.82
378.423	28.74
378.631	28.73
378.839	28.73
379.047	28.62
379.255	28.71
379.463	28.68
379.671	28.72
379.879	28.89
380.088	29.1
380.296	29.22
380.504	29.05
380.712	29.14
380.92	29.05
381.128	29.05
381.336	29.18
381.544	28.97
381.752	29.04
381.96	28.89
382.168	28.69
382.376	28.24
382.584	28.07
382.791	28.25
382.999	28.22
383.207	28.22
383.415	28.2
383.623	28.2
383.831	28.3
384.039	28.4
384.247	28.58
384.454	28.7
384.662	28.93
384.87	28.91
385.078	28.77
385.285	28.88
385.493	29.03
385.701	29.16
385.909	29.06
386.116	29.06
386.324	29.07
386.532	29.16
386.739	29.13
386.947	29.08
387.155	29.03
387.362	29.17
387.57	29.15
387.778	29.22
387.985	29.12
388.193	29.28
388.4	29.2
388.608	29.17
388.816	28.95
389.023	28.98
389.231	29.12
389.438	29.34
389.646	28.98
389.853	28.84
390.061	28.85
390.268	28.86
390.475	28.64
390.683	28.7
390.89	28.44
391.098	28.55
391.305	28.59
391.512	28.46
391.72	28.32
391.927	28.44
392.135	28.66
392.342	28.53
392.549	28.5
392.756	28.33
392.964	28.34
393.171	28.62
393.378	28.51
393.586	28.62
393.793	28.5
394	28.4
394.207	28.45
394.414	28.34
394.622	28.37
394.829	28.54
395.036	28.86
395.243	29
395.45	29.04
395.657	29.18
395.864	29.05
396.072	29.22
396.279	29.39
396.486	29.48
396.693	29.59
396.9	29.45
397.107	29.29
397.314	29.22
397.521	28.98
397.728	28.71
397.935	28.76
398.142	28.73
398.349	28.73
398.556	28.84
398.763	28.76
398.97	28.65
399.177	28.8
399.383	28.83
399.59	28.77
399.797	29.11
400.004	29.28
400.211	29.15
400.418	29.28
400.625	29.4
400.831	29.19
401.038	29.33
401.245	29.17
401.452	29.26
401.658	29.29
401.865	29.48
402.072	29.23
402.279	29.21
402.485	29.2
402.692	29.16
402.899	29.13
403.105	29.29
403.312	29.29
403.519	29.31
403.725	29.21
403.932	29.19
404.138	29.06
404.345	29.08
404.552	28.9
404.758	28.89
404.965	28.91
405.171	28.9
405.378	28.79
405.584	28.74
405.791	28.75
405.997	28.84
406.204	28.86
406.41	29.06
406.617	29.19
406.823	29.27
407.029	29.52
407.236	29.59
407.442	29.71
407.649	29.81
407.855	29.9
408.061	30.13
408.268	30.11
408.474	30.28
408.68	30.07
408.887	29.86
409.093	29.97
409.299	29.93
409.505	29.84
409.712	29.72
409.918	29.66
410.124	29.63
410.33	29.5
410.537	29.36
410.743	29.19
410.949	29.17
411.155	29.37
411.361	29.18
411.567	29.16
411.773	29.15
411.98	29.25
412.186	29.39
412.392	29.46
412.598	29.38
412.804	29.48
413.01	29.48
413.216	29.53
413.422	29.34
413.628	29.6
413.834	29.55
414.04	29.71
414.246	29.58
414.452	29.54
414.658	29.58
414.864	29.62
415.07	29.67
415.275	29.71
415.481	29.66
415.687	29.69
415.893	29.64
416.099	29.65
416.305	29.52
416.511	29.52
416.716	29.35
416.922	29.27
417.128	29.3
417.334	29.2
417.539	29.22
417.745	29.27
417.951	29.31
418.157	29.27
418.362	29.14
418.568	29.11
418.774	29.03
418.979	29.06
419.185	29.06
419.391	29
419.596	29.04
419.802	28.94
420.008	28.89
420.213	28.22
420.419	28.15
420.624	28.21
420.83	28.24
421.035	28.28
421.241	28.29
421.446	28.23
421.652	28.25
421.857	28.22
422.063	28.2
422.268	28.26
422.474	28.87
422.679	28.88
422.885	28.89
423.09	28.82
423.295	28.81
423.501	28.86
423.706	28.9
423.911	28.96
424.117	29.03
424.322	29.1
424.527	28.98
424.733	29.02
424.938	29.02
425.143	28.97
425.349	29.02
425.554	29.07
425.759	29.05
425.964	29.11
426.169	29.07
426.375	29.01
426.58	29.04
426.785	29.1
426.99	29.09
427.195	29.23
427.4	29.31
427.605	29.32
427.811	29.32
428.016	29.31
428.221	29.23
428.426	29.18
428.631	29.2
428.836	29.11
429.041	29.38
429.246	29.46
429.451	29.39
429.656	29.38
429.861	29.42
430.066	29.6
430.271	29.57
430.476	29.5
430.681	29.56
430.886	29.47
431.09	29.56
431.295	29.31
431.5	29.28
431.705	29.17
431.91	29.24
432.115	29.2
432.32	29.12
432.524	29.15
432.729	29.32
432.934	29.26
433.139	29.34
433.343	29.26
433.548	29.41
433.753	29.33
433.958	29.41
434.162	29.44
434.367	29.46
434.572	29.34
434.776	29.35
434.981	29.25
435.186	29.36
435.39	29.43
435.595	29.47
435.799	29.36
436.004	29.33
436.209	29.33
436.413	29.24
436.618	29.28
436.822	29.33
437.027	29.25
437.231	29.34
437.436	29.37
437.64	29.38
437.845	29.39
438.049	29.42
438.253	29.57
438.458	29.56
438.662	29.72
438.867	29.8
439.071	29.81
439.275	29.79
439.48	29.69
439.684	29.56
439.888	29.6
440.093	29.55
440.297	29.52
440.501	29.44
440.706	29.46
440.91	29.37
441.114	29.24
441.318	29.25
441.523	29.28
441.727	29.38
441.931	29.51
442.135	29.44
442.339	29.54
442.543	29.64
442.748	29.65
442.952	29.7
443.156	29.75
443.36	29.75
443.564	29.81
443.768	29.85
443.972	29.81
444.176	29.72
444.38	29.73
444.584	29.75
444.788	29.63
444.992	29.58
445.196	29.6
445.4	29.53
445.604	29.58
445.808	29.55
446.012	29.54
446.216	29.48
446.42	29.47
446.624	29.47
446.828	29.48
447.032	29.49
447.235	29.58
447.439	29.59
447.643	29.69
447.847	29.77
448.051	29.77
448.254	29.83
448.458	29.91
448.662	29.9
448.866	29.85
449.069	29.86
449.273	29.99
449.477	30.02
449.681	29.99
449.884	30
450.088	30.01
450.292	29.97
450.495	29.97
450.699	30.05
450.902	30.23
451.106	30.3
451.31	30.29
451.513	30.26
451.717	30.17
451.92	30.13
452.124	30.07
452.327	30.07
452.531	30.1
452.734	30.18
452.938	30.18
453.141	30.1
453.345	30.16
453.548	30.11
453.752	30.09
453.955	30.3
454.158	30.27
454.362	30.32
454.565	30.24
454.769	30.24
454.972	30.24
455.175	30.16
455.379	30.21
455.582	30.2
455.785	30.25
455.988	30.3
456.192	30.15
456.395	30.3
456.598	30.28
456.801	30.31
457.005	30.31
457.208	30.14
457.411	30.18
457.614	30.19
457.817	30.05
458.021	29.94
458.224	29.8
458.427	29.74
458.63	29.68
458.833	29.63
459.036	29.63
459.239	29.65
459.442	29.69
459.645	29.59
459.848	29.47
460.051	29.55
460.254	29.59
460.457	29.7
460.66	29.72
460.863	29.7
461.066	29.72
461.269	29.69
461.472	29.74
461.675	29.81
461.878	29.87
462.081	29.96
462.284	30.07
462.486	30.08
462.689	30
462.892	29.96
463.095	30.04
463.298	30.01
463.5	30.05
463.703	30.05
463.906	29.99
464.109	30.01
464.311	30.02
464.514	29.86
464.717	29.95
464.92	29.97
465.122	30.09
465.325	30.14
465.528	30.22
465.73	30.24
465.933	30.26
466.135	30.13
466.338	30.02
466.541	30.05
466.743	30.04
466.946	29.96
467.148	29.87
467.351	29.82
467.553	29.79
467.756	29.71
467.958	29.62
468.161	29.58
468.363	29.74
468.566	29.85
468.768	29.79
468.971	29.8
469.173	29.88
469.375	29.91
469.578	29.98
469.78	29.91
469.983	29.96
470.185	30.06
470.387	30.03
470.59	30.04
470.792	30.1
470.994	30.28
471.196	30.28
471.399	30.21
471.601	30.25
471.803	30.1
472.005	30.12
472.208	30.16
472.41	30.27
472.612	30.23
472.814	30.16
473.016	30.1
473.218	30
473.421	30.03
473.623	30.11
473.825	30.14
474.027	30.17
474.229	30.11
474.431	30.08
474.633	29.98
474.835	30.06
475.037	30.05
475.239	30.12
475.441	30.06
475.643	30.09
475.845	29.97
476.047	29.97
476.249	30.09
476.451	30.13
476.653	30.19
476.855	30.24
477.057	30.14
477.258	30.18
477.46	30.22
477.662	30.29
477.864	30.28
478.066	30.3
478.268	30.22
478.469	30.15
478.671	30.1
478.873	30.1
479.075	30.05
479.276	30.1
479.478	30
479.68	29.9
479.882	29.84
480.083	29.78
480.285	29.73
480.487	29.77
480.688	29.76
480.89	29.77
481.091	29.66
481.293	29.61
481.495	29.58
481.696	29.57
481.898	29.51
482.099	29.42
482.301	29.37
482.502	29.34
482.704	29.3
482.905	29.27
483.107	29.25
483.308	29.22
483.51	29.17
483.711	29.16
483.913	29.16
484.114	29.17
484.315	29.15
484.517	29.14
484.718	29.17
484.92	29.2
485.121	29.19
485.322	29.23
485.524	29.24
485.725	29.28
485.926	29.28
486.127	29.29
486.329	29.26
486.53	29.31
486.731	29.32
486.932	29.32
487.134	29.25
487.335	29.27
487.536	29.23
487.737	29.27
487.938	29.28
488.139	29.31
488.341	29.31
488.542	29.4
488.743	29.46
488.944	29.5
489.145	29.49
489.346	29.58
489.547	29.66
489.748	29.67
489.949	29.7
490.15	29.7
490.351	29.72
490.552	29.68
490.753	29.58
490.954	29.54
491.155	29.56
491.356	29.59
491.557	29.57
491.758	29.57
491.959	29.57
492.159	29.56
492.36	29.57
492.561	29.61
492.762	29.64
492.963	29.78
493.164	29.79
493.364	29.81
493.565	29.89
493.766	29.94
493.967	29.89
494.167	29.92
494.368	29.97
494.569	30.03
494.769	30.02
494.97	30.05
495.171	29.97
495.371	30.08
495.572	30.15
495.773	30.04
495.973	30.07
496.174	30.12
496.375	30.15
496.575	30.15
496.776	30.21
496.976	30.18
497.177	30.19
497.377	30.22
497.578	30.1
497.778	30.07
497.979	30.14
498.179	30.19
498.38	30.18
498.58	30.15
498.78	30.12
498.981	30.08
499.181	30.12
499.382	30.19
499.582	30.25
499.782	30.35
499.983	30.37
500.183	30.33
500.383	30.38
500.584	30.42
500.784	30.55
500.984	30.53
501.184	30.63
501.385	30.67
501.585	30.65
501.785	30.66
501.985	30.69
502.185	30.59
502.386	30.59
502.586	30.53
502.786	30.58
502.986	30.52
503.186	30.72
503.386	30.65
503.586	30.71
503.786	30.75
503.987	30.7
504.187	30.69
504.387	30.76
504.587	30.93
504.787	31
504.987	31
505.187	31.04
505.387	30.97
505.587	31.05
505.786	31.06
505.986	31.06
506.186	31.14
506.386	31.07
506.586	31.07
506.786	31.02
506.986	30.98
507.186	31.03
507.386	31.03
507.585	30.99
507.785	31.04
507.985	31.04
508.185	30.97
508.384	31.02
508.584	31.13
508.784	31.13
508.984	31.12
509.183	31.17
509.383	31.17
509.583	31.19
509.782	31.22
509.982	31.2
510.182	31.18
510.381	31.28
510.581	31.28
510.781	31.18
510.98	31.13
511.18	31.15
511.379	31.11
511.579	31.16
511.778	31.17
511.978	31.19
512.177	31.14
512.377	31.13
512.576	31.16
512.776	31.18
512.975	31.33
513.175	31.43
513.374	31.41
513.573	31.5
513.773	31.46
513.972	31.43
514.172	31.43
514.371	31.48
514.57	31.51
514.77	31.49
514.969	31.51
515.168	31.54
515.367	31.51
515.567	31.58
515.766	31.49
515.965	31.56
516.164	31.56
516.364	31.51
516.563	31.53
516.762	31.58
516.961	31.63
517.16	31.66
517.359	31.68
517.559	31.76
517.758	31.76
517.957	31.81
518.156	31.81
518.355	31.81
518.554	31.94
518.753	31.9
518.952	31.89
519.151	31.87
519.35	31.85
519.549	31.79
519.748	31.82
519.947	31.89
520.146	31.93
520.345	31.94
520.544	32.01
520.743	31.98
520.942	32
521.141	32.02
521.339	32.1
521.538	32
521.737	32.05
521.936	31.98
522.135	31.87
522.333	31.86
522.532	31.87
522.731	31.81
522.93	31.71
523.129	31.71
523.327	31.73
523.526	31.75
523.725	31.92
523.923	31.92
524.122	31.95
524.321	32.05
524.519	31.99
524.718	32.03
524.917	32.02
525.115	32.08
525.314	32.11
525.512	32.1
525.711	32.05
525.909	31.94
526.108	31.87
526.306	31.86
526.505	31.77
526.703	31.81
526.902	31.72
527.1	31.71
527.299	31.68
527.497	31.67
527.696	31.61
527.894	31.51
528.092	31.5
528.291	31.54
528.489	31.53
528.688	31.55
528.886	31.52
529.084	31.54
529.283	31.56
529.481	31.58
529.679	31.58
529.877	31.67
530.076	31.8
530.274	31.86
530.472	31.87
530.67	31.91
530.869	31.92
531.067	31.95
531.265	31.99
531.463	32.04
531.661	31.99
531.859	31.99
532.057	31.95
532.255	31.89
532.454	31.9
532.652	31.88
532.85	31.89
533.048	31.88
533.246	31.97
533.444	31.95
533.642	31.93
533.84	31.94
534.038	31.95
534.236	31.93
534.434	31.99
534.632	31.99
534.83	32
535.027	31.99
535.225	32.02
535.423	31.96
535.621	31.97
535.819	31.94
536.017	32.01
536.215	32.05
536.412	32.04
536.61	32.02
536.808	32.04
537.006	32.13
537.203	32.11
537.401	32.15
537.599	32.11
537.797	32.14
537.994	32.19
538.192	32.15
538.39	32.2
538.587	32.34
538.785	32.36
538.983	32.36
539.18	32.3
539.378	32.3
539.575	32.33
539.773	32.36
539.97	32.39
540.168	32.34
540.366	32.39
540.563	32.32
540.761	32.26
540.958	32.25
541.155	32.22
541.353	32.21
541.55	32.21
541.748	32.2
541.945	32.2
542.143	32.18
542.34	32.21
542.537	32.25
542.735	32.29
542.932	32.35
543.129	32.35
543.327	32.45
543.524	32.52
543.721	32.59
543.919	32.74
544.116	32.8
544.313	32.9
544.51	33
544.708	33.02
544.905	33.02
545.102	33.08
545.299	33.22
545.496	33.26
545.693	33.29
545.891	33.31
546.088	33.28
546.285	33.33
546.482	33.31
546.679	33.38
546.876	33.38
547.073	33.44
547.27	33.42
547.467	33.39
547.664	33.33
547.861	33.35
548.058	33.35
548.255	33.38
548.452	33.42
548.649	33.46
548.846	33.47
549.043	33.53
549.24	33.58
549.437	33.65
549.633	33.66
549.83	33.57
550.027	33.59
550.224	33.57
550.421	33.49
550.618	33.43
550.814	33.35
551.011	33.14
551.208	33
551.405	33.02
551.601	32.86
551.798	32.88
551.995	33.04
552.191	33.05
552.388	32.99
552.585	32.91
552.781	32.89
552.978	32.92
553.175	33.03
553.371	33.07
553.568	32.98
553.764	33.06
553.961	33.08
554.157	33.01
554.354	32.94
554.55	33.04
554.747	33.14
554.943	33.31
555.14	33.29
555.336	33.3
555.533	33.39
555.729	33.44
555.926	33.43
556.122	33.38
556.318	33.44
556.515	33.57
556.711	33.59
556.907	33.6
557.104	33.64
557.3	33.72
557.496	33.64
557.693	33.63
557.889	33.75
558.085	33.87
558.281	33.92
558.478	33.96
558.674	33.84
558.87	33.81
559.066	33.74
559.262	33.7
559.459	33.76
559.655	33.78
559.851	33.7
560.047	33.58
560.243	33.54
560.439	33.52
560.635	33.47
560.831	33.6
561.027	33.69
561.223	33.8
561.419	33.77
561.615	33.67
561.811	33.73
562.007	33.83
562.203	33.97
562.399	33.99
562.595	33.87
562.791	33.99
562.987	33.92
563.183	33.93
563.379	33.91
563.575	33.88
563.771	33.93
563.966	33.98
564.162	33.86
564.358	33.77
564.554	33.72
564.75	33.7
564.945	33.59
565.141	33.66
565.337	33.69
565.533	33.64
565.728	33.59
565.924	33.58
566.12	33.52
566.315	33.58
566.511	33.5
566.707	33.54
566.902	33.69
567.098	33.7
567.293	33.54
567.489	33.47
567.684	33.47
567.88	33.5
568.076	33.42
568.271	33.41
568.467	33.38
568.662	33.5
568.858	33.44
569.053	33.56
569.248	33.57
569.444	33.71
569.639	33.75
569.835	33.73
570.03	33.76
570.225	33.78
570.421	33.79
570.616	33.72
570.812	33.68
571.007	33.83
571.202	33.79
571.397	33.87
571.593	33.8
571.788	33.81
571.983	33.85
572.178	33.81
572.374	33.91
572.569	33.85
572.764	33.99
572.959	34
573.154	33.91
573.35	33.87
573.545	33.9
573.74	34
573.935	33.93
574.13	33.95
574.325	33.93
574.52	33.85
574.715	33.88
574.91	33.87
575.105	33.92
575.3	33.99
575.495	33.98
575.69	33.82
575.885	33.78
576.08	33.88
576.275	33.98
576.47	34.1
576.665	34.14
576.86	34.3
577.055	34.3
577.25	34.32
577.444	34.25
577.639	34.37
577.834	34.5
578.029	34.65
578.224	34.6
578.418	34.56
578.613	34.48
578.808	34.51
579.003	34.34
579.197	34.35
579.392	34.48
579.587	34.43
579.781	34.34
579.976	34.41
580.171	34.42
580.365	34.57
580.56	34.57
580.755	34.65
580.949	34.7
581.144	34.93
581.338	35.03
581.533	34.96
581.727	34.98
581.922	35.02
582.116	35.07
582.311	34.89
582.505	34.78
582.7	34.88
582.894	34.96
583.089	34.94
583.283	34.87
583.478	34.75
583.672	34.78
583.866	34.83
584.061	34.93
584.255	35.02
584.449	35.09
584.644	35.19
584.838	35.18
585.032	35.18
585.226	35.16
585.421	35.18
585.615	35.25
585.809	35.34
586.003	35.51
586.198	35.44
586.392	35.47
586.586	35.47
586.78	35.45
586.974	35.48
587.168	35.36
587.363	35.49
587.557	35.49
587.751	35.54
587.945	35.51
588.139	35.54
588.333	35.52
588.527	35.44
588.721	35.44
588.915	35.5
589.109	35.41
589.303	35.58
589.497	35.55
589.691	35.73
589.885	35.87
590.079	35.91
590.273	35.87
590.466	36.04
590.66	36.03
590.854	36.13
591.048	36.16
591.242	36.18
591.436	36.05
591.629	36.07
591.823	36
592.017	35.87
592.211	35.81
592.404	35.78
592.598	35.69
592.792	35.76
592.986	35.69
593.179	35.65
593.373	35.61
593.567	35.75
593.76	35.8
593.954	35.78
594.147	35.95
594.341	35.93
594.535	35.83
594.728	35.78
594.922	35.78
595.115	35.81
595.309	35.76
595.502	35.82
595.696	35.82
595.889	35.75
596.083	35.66
596.276	35.46
596.47	35.5
596.663	35.59
596.856	35.66
597.05	35.54
597.243	35.53
597.437	35.56
597.63	35.52
597.823	35.49
598.017	35.69
598.21	35.85
598.403	36.01
598.596	36.02
598.79	36.09
598.983	36.12
599.176	36.23
599.369	36.48
599.563	36.67
599.756	36.8
599.949	36.79
600.142	36.66
600.335	36.79
600.528	36.83
600.722	36.91
600.915	36.91
601.108	36.81
601.301	36.79
601.494	36.69
601.687	36.61
601.88	36.62
602.073	36.63
602.266	36.69
602.459	36.58
602.652	36.59
602.845	36.6
603.038	36.64
603.231	36.79
603.424	36.75
603.617	36.78
603.809	36.83
604.002	36.8
604.195	36.84
604.388	36.85
604.581	36.87
604.774	36.86
604.966	36.78
605.159	36.8
605.352	36.66
605.545	36.77
605.737	36.72
605.93	36.82
606.123	37.03
606.316	37.09
606.508	37.12
606.701	37.17
606.894	37.19
607.086	37.39
607.279	37.45
607.471	37.5
607.664	37.66
607.857	37.65
608.049	37.59
608.242	37.63
608.434	37.76
608.627	38.04
608.819	38.22
609.012	38.47
609.204	38.7
609.397	39.06
609.589	39.64
609.782	40.06
609.974	40.76
610.166	41.32
610.359	41.78
610.551	42.2
610.743	42.44
610.936	42.9
611.128	43.26
611.32	43.57
611.513	43.63
611.705	43.62
611.897	43.64
612.09	43.51
612.282	43.31
612.474	43.01
612.666	42.88
612.858	42.71
613.051	42.42
613.243	42.19
613.435	41.88
613.627	41.62
613.819	41.53
614.011	41.44
614.203	41.19
614.395	41.07
614.588	40.97
614.78	40.78
614.972	40.55
615.164	40.31
615.356	40.07
615.548	40.16
615.74	40.34
615.932	40.1
616.124	39.78
616.315	39.56
616.507	39.43
616.699	39.35
616.891	39.27
617.083	39.4
617.275	39.38
617.467	39.33
617.659	39.14
617.85	39
618.042	39.03
618.234	38.97
618.426	39.16
618.618	39.19
618.809	39.23
619.001	39.22
619.193	39.33
619.384	39.4
619.576	39.53
619.768	39.53
619.959	39.47
620.151	39.64
620.343	39.77
620.534	39.74
620.726	39.81
620.917	39.75
621.109	39.65
621.301	39.66
621.492	39.55
621.684	39.54
621.875	39.67
622.067	39.81
622.258	39.39
622.45	39.32
622.641	39.42
622.832	39.49
623.024	39.77
623.215	39.98
623.407	39.67
623.598	39.78
623.789	39.81
623.981	39.68
624.172	39.83
624.363	40.15
624.555	40.29
624.746	40.01
624.937	39.93
625.129	39.75
625.32	39.65
625.511	39.75
625.702	39.75
625.893	39.75
626.085	39.79
626.276	39.64
626.467	39.53
626.658	39.26
626.849	39.34
627.04	39.32
627.231	39.4
627.422	39.52
627.614	39.64
627.805	39.58
627.996	39.56
628.187	39.59
628.378	39.68
628.569	39.83
628.76	40.11
628.951	40.15
629.142	40.3
629.332	40.35
629.523	40.3
629.714	40.28
629.905	40.52
630.096	40.68
630.287	40.63
630.478	40.7
630.669	40.89
630.859	40.97
631.05	41.07
631.241	41.15
631.432	41.05
631.623	41.04
631.813	41.03
632.004	41
632.195	40.83
632.385	40.95
632.576	40.7
632.767	40.44
632.957	40.3
633.148	40.3
633.339	40.09
633.529	40.25
633.72	40.27
633.91	40.24
634.101	40.16
634.292	40.1
634.482	40.03
634.673	40.16
634.863	40.1
635.054	40.18
635.244	40.3
635.435	40.24
635.625	40.09
635.815	40.05
636.006	39.98
636.196	40.01
636.387	40.31
636.577	40.34
636.767	40.39
636.958	40.45
637.148	40.53
637.338	40.4
637.529	40.55
637.719	40.58
637.909	40.79
638.099	41.03
638.29	40.98
638.48	40.94
638.67	41
638.86	40.94
639.05	41.04
639.241	41.09
639.431	41.13
639.621	41.05
639.811	41.15
640.001	41.05
640.191	40.78
640.381	40.86
640.571	40.91
640.761	40.92
640.951	40.87
641.141	40.79
641.331	40.76
641.521	40.86
641.711	41.1
641.901	40.96
642.091	41.1
642.281	41.32
642.471	41.29
642.661	41.12
642.851	41.4
643.041	41.69
643.231	41.96
643.42	42.13
643.61	41.95
643.8	41.93
643.99	41.89
644.18	42.03
644.369	42.15
644.559	42.37
644.749	42.44
644.939	42.42
645.128	42.26
645.318	42.23
645.508	41.96
645.697	42.03
645.887	42.01
646.076	42.29
646.266	42.33
646.456	42.26
646.645	42.27
646.835	42.17
647.024	41.95
647.214	42.25
647.403	42.14
647.593	42.29
647.782	42.28
647.972	42.39
648.161	42.39
648.351	42.23
648.54	42.3
648.73	42.41
648.919	42.7
649.108	42.86
649.298	42.93
649.487	42.94
649.677	43.14
649.866	43.19
650.055	43.3
650.244	43.3
650.434	43.33
650.623	43.21
650.812	43.18
651.002	43.14
651.191	43.12
651.38	43.16
651.569	43.36
651.758	43.19
651.947	43.38
652.137	43.25
652.326	43.22
652.515	43.33
652.704	43.44
652.893	43.36
653.082	43.39
653.271	43.48
653.46	43.19
653.649	43.2
653.838	43.31
654.027	43.32
654.216	43.54
654.405	43.53
654.594	43.46
654.783	43.34
654.972	43.5
655.161	43.48
655.35	43.49
655.539	43.71
655.728	43.79
655.916	43.91
656.105	43.74
656.294	43.79
656.483	43.86
656.672	44.02
656.86	44.45
657.049	44.61
657.238	44.57
657.427	44.54
657.615	44.53
657.804	44.48
657.993	44.35
658.181	44.54
658.37	44.36
658.559	44.42
658.747	44.28
658.936	44.22
659.125	43.74
659.313	43.82
659.502	43.78
659.69	43.69
659.879	43.69
660.067	43.71
660.256	43.7
660.444	43.71
660.633	43.74
660.821	43.75
661.01	43.78
661.198	43.98
661.387	43.92
661.575	44.13
661.763	44.37
661.952	44.53
662.14	44.75
662.328	44.91
662.517	45.02
662.705	45.09
662.893	45.34
663.082	45.49
663.27	45.76
663.458	45.99
663.646	46.14
663.834	46.13
664.023	46.11
664.211	45.8
664.399	45.61
664.587	45.85
664.775	45.85
664.963	45.83
665.152	45.71
665.34	45.71
665.528	45.68
665.716	45.65
665.904	45.65
666.092	45.72
666.28	46.2
666.468	46.32
666.656	46.48
666.844	46.5
667.032	46.55
667.22	46.86
667.408	46.88
667.596	46.99
667.784	46.88
667.971	46.91
668.159	46.69
668.347	46.76
668.535	46.89
668.723	46.57
668.911	46.72
669.098	46.89
669.286	46.7
669.474	46.67
669.662	46.54
669.849	46.91
670.037	47.09
670.225	47.28
670.413	47.12
670.6	47.22
670.788	47.35
670.976	47.34
671.163	47.45
671.351	47.56
671.538	47.82
671.726	48.14
671.913	47.89
672.101	47.69
672.289	47.64
672.476	47.99
672.664	48.14
672.851	48.23
673.039	48.11
673.226	48.04
673.413	47.89
673.601	47.68
673.788	47.61
673.976	47.85
674.163	48.02
674.35	48.41
674.538	48.17
674.725	48.02
674.912	48
675.1	48.21
675.287	48.24
675.474	48.24
675.662	48.71
675.849	48.5
676.036	48.56
676.223	48.47
676.411	48.12
676.598	47.93
676.785	47.78
676.972	47.73
677.159	47.66
677.346	47.48
677.533	47.84
677.721	47.57
677.908	47.66
678.095	47.5
678.282	47.71
678.469	47.9
678.656	48.02
678.843	48.13
679.03	48.12
679.217	48.24
679.404	48.35
679.591	48.16
679.778	48.1
679.964	48.25
680.151	48.29
680.338	48.36
680.525	48.47
680.712	48.65
680.899	48.74
681.086	48.72
681.272	48.7
681.459	48.79
681.646	48.83
681.833	49.07
682.02	48.96
682.206	49.05
682.393	49.22
682.58	49.13
682.766	49.15
682.953	49.04
683.14	49.28
683.326	49.53
683.513	49.63
683.7	49.76
683.886	49.54
684.073	49.79
684.259	49.48
684.446	49.41
684.632	49.5
684.819	49.18
685.005	49.49
685.192	49.64
685.378	49.67
685.565	49.66
685.751	49.64
685.938	49.95
686.124	50
686.31	50.47
686.497	50.53
686.683	50.71
686.87	50.99
687.056	50.97
687.242	50.73
687.429	50.76
687.615	50.85
687.801	50.76
687.987	50.65
688.174	50.48
688.36	50.36
688.546	50.1
688.732	50
688.918	50.17
689.105	50.22
689.291	50.58
689.477	50.38
689.663	50.35
689.849	50.59
690.035	50.51
690.221	50.71
690.407	50.93
690.593	51.08
690.779	51.29
690.965	51.06
691.151	50.9
691.337	50.97
691.523	51.07
691.709	51.3
691.895	51.24
692.081	51.66
692.267	51.46
692.453	51.66
692.639	51.64
692.825	51.37
693.011	51.55
693.196	51.67
693.382	51.44
693.568	51.47
693.754	51.46
693.94	51.29
694.125	51.34
694.311	51.62
694.497	51.42
694.682	51.28
694.868	51.41
695.054	51.59
695.239	51.72
695.425	51.96
695.611	52.08
695.796	51.76
695.982	51.65
696.168	51.33
696.353	51.24
696.539	51.29
696.724	51.44
696.91	51.49
697.095	51.37
697.281	51.29
697.466	51.18
697.652	51.04
697.837	51.06
698.023	51.14
698.208	51.22
698.393	51.1
698.579	51.04
698.764	50.93
698.949	50.87
699.135	50.74
699.32	50.61
699.505	50.44
699.691	50.61
699.876	50.63
700.061	50.73
700.246	50.58
700.432	50.68
700.617	50.49
700.802	50.85
700.987	50.86
701.172	51.2
701.358	51.5
701.543	51.83
701.728	51.95
701.913	51.94
702.098	52.05
702.283	52.39
702.468	52.81
702.653	53.01
702.838	53.15
703.023	53.27
703.208	53.53
703.393	53.39
703.578	53.42
703.763	53.4
703.948	53.67
704.133	54.2
704.318	54.47
704.503	54.32
704.688	54.26
704.873	53.97
705.057	53.99
705.242	53.58
705.427	53.96
705.612	53.94
705.797	54.1
705.981	54.71
706.166	54.53
706.351	54.44
706.536	54.98
706.72	54.97
706.905	55.44
707.09	56.13
707.274	56.45
707.459	56.58
707.644	56.8
707.828	56.79
708.013	56.64
708.197	56.47
708.382	56.92
708.567	56.95
708.751	57.02
708.936	56.49
709.12	56.05
709.305	55.81
709.489	55.49
709.673	55.44
709.858	55.15
710.042	55.34
710.227	55.26
710.411	54.81
710.596	54.25
710.78	54.24
710.964	54.51
711.149	54.5
711.333	54.6
711.517	54.59
711.702	54.51
711.886	54.97
712.07	54.05
712.254	53.97
712.438	53.82
712.623	53.7
712.807	54.04
712.991	53.68
713.175	53.81
713.359	53.7
713.544	53.53
713.728	53.51
713.912	53.25
714.096	53.46
714.28	53.86
714.464	54.09
714.648	54.25
714.832	54.07
715.016	54.12
715.2	53.68
715.384	53.51
715.568	53.82
715.752	53.87
715.936	53.7
716.12	54.11
716.304	54.04
716.488	53.9
716.671	53.88
716.855	54.3
717.039	54.38
717.223	54.58
717.407	54.74
717.59	54.55
717.774	54.3
717.958	54.69
718.142	54.44
718.325	54.32
718.509	54.8
718.693	55.08
718.877	54.39
719.06	54.67
719.244	54.72
719.428	54.79
719.611	54.96
719.795	55.39
719.978	55.43
720.162	55.41
720.345	55.73
720.529	55.52
720.713	55.49
720.896	56.05
721.08	56.13
721.263	56.18
721.446	56.45
721.63	57.02
721.813	56.97
721.997	56.94
722.18	56.88
722.364	56.69
722.547	56.61
722.73	56.79
722.914	57.01
723.097	57.32
723.28	57.4
723.464	56.98
723.647	56.96
723.83	57.3
724.013	57.24
724.197	57.44
724.38	56.97
724.563	56.75
724.746	56.42
724.929	56.09
725.112	56.17
725.296	56
725.479	56.67
725.662	56.32
725.845	56.25
726.028	56.12
726.211	56.21
726.394	56.79
726.577	56.88
726.76	57.27
726.943	57.01
727.126	56.82
727.309	57.31
727.492	56.7
727.675	56.91
727.858	56.78
728.041	56.91
728.224	56.88
728.407	56.48
728.589	56.64
728.772	56.27
728.955	56.43
729.138	56.43
729.321	55.84
729.503	56.2
729.686	56.27
729.869	55.99
730.052	55.63
730.234	55.53
730.417	55.8
730.6	55.5
730.782	55.55
730.965	55.63
731.148	55.65
731.33	56.41
731.513	56.39
731.695	56.08
731.878	56.17
732.061	56.22
732.243	56.79
732.426	56.91
732.608	57.01
732.791	56.75
732.973	57.04
733.156	56.74
733.338	56.12
733.52	55.74
733.703	55.37
733.885	55.43
734.068	55.83
734.25	55.43
734.432	55.28
734.615	55.12
734.797	55.46
734.979	55.27
735.162	55.48
735.344	55.98
735.526	56.79
735.708	57.19
735.891	57.73
736.073	57.57
736.255	57.06
736.437	56.9
736.619	57.53
736.802	57.69
736.984	57.8
737.166	57.74
737.348	57.69
737.53	57.33
737.712	57.32
737.894	57.08
738.076	57.1
738.258	57.76
738.44	57.84
738.622	57.43
738.804	57.5
738.986	57.52
739.168	57.86
739.35	58.08
739.532	58.09
739.714	58.35
739.896	58.54
740.078	58.19
740.259	58.25
740.441	58.66
740.623	58.62
740.805	58.61
740.987	58.53
741.168	58.31
741.35	57.98
741.532	57.83
741.714	57.88
741.895	57.36
742.077	57.98
742.259	57.51
742.44	57.18
742.622	57.6
742.804	57.27
742.985	57.48
743.167	57.47
743.348	57.6
743.53	57.84
743.711	57.36
743.893	57.64
744.075	57.76
744.256	58.58
744.438	58.77
744.619	58.39
744.8	58.86
744.982	58.92
745.163	59.05
745.345	58.93
745.526	59.26
745.707	59.32
745.889	58.87
746.07	58.99
746.252	59.12
746.433	59.02
746.614	59.35
746.795	59.27
746.977	59.33
747.158	58.79
747.339	58.61
747.52	58.64
747.702	59.13
747.883	59.4
748.064	59.17
748.245	58.01
748.426	57.55
748.607	57.66
748.788	57.5
748.97	57.46
749.151	57.8
749.332	57.84
749.513	57.82
749.694	57.66
749.875	58.22
750.056	58.19
750.237	59.06
750.418	59.73
750.599	60.39
750.78	60.23
750.96	60
751.141	59.96
751.322	59.77
751.503	59.38
751.684	59.36
751.865	59.5
752.046	59.31
752.226	58.96
752.407	59.12
752.588	58.96
752.769	59.01
752.949	58.95
753.13	58.85
753.311	58.78
753.492	59.04
753.672	58.84
753.853	58.72
754.034	58.76
754.214	59.07
754.395	58.81
754.575	58.41
754.756	59.2
754.937	59.52
755.117	59.6
755.298	60.69
755.478	60.76
755.659	61.89
755.839	61.62
756.02	61.61
756.2	61.72
756.381	61.8
756.561	61.51
756.741	61.29
756.922	61.27
757.102	61.25
757.283	60.62
757.463	60.57
757.643	59.68
757.823	59.19
758.004	59.06
758.184	59.18
758.364	59.9
758.545	60.39
758.725	60.35
758.905	60.25
759.085	60.5
759.265	60.34
759.446	60.28
759.626	60.76
759.806	61.24
759.986	61.82
760.166	61.29
760.346	60.64
760.526	60.58
760.706	60.44
760.886	59.99
761.066	59.93
761.246	60.11
761.426	59.78
761.606	59.39
761.786	59.28
761.966	58.86
762.146	58.92
762.326	58.46
762.506	57.98
762.686	57.8
762.866	58.21
763.046	58
763.225	57.36
763.405	57.15
763.585	56.9
763.765	56.73
763.945	56.54
764.124	56.29
764.304	56.45
764.484	56.74
764.664	56.84
764.843	56.86
765.023	56.93
765.203	57.9
765.382	58.33
765.562	58.67
765.741	58.61
765.921	59.19
766.101	59.51
766.28	59.53
766.46	59.15
766.639	59.42
766.819	58.97
766.998	58.96
767.178	58.6
767.357	58.78
767.537	59.36
767.716	59.61
767.896	59.51
768.075	59.48
768.254	59.89
768.434	60.34
768.613	60.18
768.792	60.71
768.972	60.35
769.151	60.51
769.33	60.18
769.51	59.34
769.689	59.51
769.868	59.78
770.047	59.96
770.226	59.87
770.406	59.41
770.585	58.88
770.764	59.31
770.943	60.4
771.122	60.36
771.301	60.48
771.48	60.62
771.66	60.62
771.839	60.4
772.018	60.62
772.197	59.96
772.376	60.1
772.555	60.98
772.734	60.06
772.913	59.4
773.092	59.19
773.271	58.8
773.449	58.66
773.628	58.9
773.807	57.88
773.986	56.97
774.165	57.47
774.344	58.13
774.523	56.96
774.701	57.94
774.88	58.29
775.059	59.02
775.238	59.43
775.417	60
775.595	59.57
775.774	59.81
775.953	60.28
776.131	60.32
776.31	59.94
776.489	60.1
776.667	60.32
776.846	60.26
777.025	59.56
777.203	59.54
777.382	59.95
777.56	59.99
777.739	60.61
777.917	61.24
778.096	61.23
778.274	61
778.453	62.64
778.631	61.66
778.81	61.35
778.988	60.87
779.166	61.13
779.345	60.62
779.523	61.05
779.702	60.96
779.88	59.89
780.058	60.4
780.237	61.77
780.415	60.8
780.593	60.82
780.771	61.29
780.95	62.51
781.128	62
781.306	62.68
781.484	62.06
781.662	61.96
781.841	63.21
782.019	62.47
782.197	61.56
782.375	61.16
782.553	61.15
782.731	60.61
782.909	60.55
783.087	60.71
783.265	59.8
783.443	61.08
783.621	61.56
783.799	61.2
783.977	61.24
784.155	61.61
784.333	62.13
784.511	62.48
784.689	62.66
784.867	62.87
785.045	62.77
785.223	63.2
785.4	62.64
785.578	62.13
785.756	62.47
785.934	62.88
786.112	62.86
786.289	62.87
786.467	62.59
786.645	62.98
786.823	62.12
787	62.42
787.178	61.5
787.356	61.94
787.533	62.64
787.711	61.4
787.889	61.47
788.066	60.62
788.244	60.77
788.421	60.01
788.599	60.19
788.776	60.92
788.954	60.88
789.131	61.45
789.309	60.82
789.486	61.31
789.664	62.78
789.841	63.14
790.019	63.48
790.196	63.89
790.373	64.91
790.551	64.11
790.728	63.55
790.906	64.32
791.083	64.59
791.26	65.16
791.437	64.51
791.615	63.56
791.792	63.57
791.969	63.8
792.146	62.81
792.324	63.21
792.501	63.86
792.678	63.89
792.855	63.83
793.032	63.94
793.209	63.86
793.387	63.53
793.564	63.49
793.741	63.08
793.918	62.91
794.095	62.71
794.272	62.28
794.449	62.83
794.626	62.19
794.803	61.47
794.98	61.06
795.157	61.55
795.334	60.89
795.511	60.8
795.688	59.9
795.864	60.27
796.041	60.84
796.218	60.5
796.395	59.72
796.572	60.21
796.749	60.02
796.925	59.56
797.102	58.64
797.279	59.06
797.456	59.15
797.632	60.12
797.809	60.08
797.986	60.82
798.162	60.3
798.339	60.03
798.516	60.01
798.692	60.11
798.869	60.99
799.046	61.54
799.222	61.7
799.399	62.39
799.575	61.61
799.752	61.7
799.928	60.77
800.105	61.65
800.281	61.61
800.458	61.89
800.634	61.73
800.811	60.9
800.987	60.13
801.163	60.27
801.34	59.14
801.516	58.22
801.692	57.88
801.869	57.28
802.045	56.67
802.221	56.82
802.398	56.13
802.574	57.34
802.75	58.58
802.926	58.49
803.103	58.89
803.279	59.89
803.455	61.28
803.631	61.73
803.807	62.31
803.983	64.26
804.16	65.38
804.336	66.38
804.512	66.23
804.688	65.3
804.864	66.25
805.04	65.51
805.216	65.52
805.392	66.6
805.568	67.63
805.744	69.54
805.92	68.63
806.096	69.61
806.272	69.1
806.448	69.6
806.623	69.7
806.799	68.63
806.975	69.18
807.151	68.67
807.327	66.84
807.503	66.41
807.678	65.31
807.854	64.71
808.03	64.52
808.206	64.66
808.381	63.33
808.557	62.75
808.733	64.46
808.908	64.78
809.084	64.47
809.26	64.83
809.435	62.96
809.611	62.19
809.787	61.74
809.962	60.35
810.138	59.58
810.313	59.48
810.489	59.62
810.664	58.46
810.84	56.67
811.015	56.58
811.191	58.01
811.366	61.06
811.542	61.79
811.717	62.99
811.892	63.62
812.068	63.81
812.243	64.92
812.419	65.04
812.594	64.63
812.769	66.62
812.944	67.35
813.12	66.78
813.295	64.75
813.47	64.63
813.645	64.15
813.821	63.85
813.996	64.07
814.171	63.57
814.346	64.55
814.521	66.15
814.697	65.94
814.872	65.28
815.047	63.79
815.222	64.69
815.397	64.05
815.572	63.92
815.747	62.51
815.922	63.1
816.097	62.58
816.272	62.34
816.447	61.91
816.622	62.31
816.797	63
816.972	64.04
817.147	63.48
817.322	63.67
817.496	64.68
817.671	65.72
817.846	64.77
818.021	63.84
818.196	63.38
818.371	63.2
818.545	62.36
818.72	61.72
818.895	60.72
819.069	59.49
819.244	59.43
819.419	58.34
819.594	57.62
819.768	57.89
819.943	57.77
820.117	56.81
820.292	54.51
820.467	53.46
820.641	52.66
820.816	51.85
820.99	50.99
821.165	50.2
821.339	49.57
821.514	49.25
821.688	48.65
821.863	48.22
822.037	48.06
822.212	48.04
822.386	47.59
822.56	47.3
822.735	47.35
822.909	47.32
823.084	47.24
823.258	47.17
823.432	47.03
823.606	47.25
823.781	47.4
823.955	47.29
824.129	47.58
824.303	48.05
824.478	48.21
824.652	48.34
824.826	48.63
825	49.25
825.174	49.72
825.348	50.02
825.523	49.76
825.697	50
825.871	50.4
826.045	50.16
826.219	50.03
826.393	50.18
826.567	50.04
826.741	49.86
826.915	49.4
827.089	49.49
827.263	49.31
827.437	49.45
827.611	49.28
827.784	48.75
827.958	49.04
828.132	48.82
828.306	48.77
828.48	48.78
828.654	49.53
828.827	49.43
829.001	49.27
829.175	49.82
829.349	50.64
829.522	50.91
829.696	52.28
829.87	52.64
830.044	53.19
830.217	53.86
830.391	54.72
830.565	53.64
830.738	54.82
830.912	54.48
831.085	55.35
831.259	55.16
831.432	55.4
831.606	55.72
831.779	55.45
831.953	56.6
832.126	56.24
832.3	55.63
832.473	55.48
832.647	55.49
832.82	55.81
832.994	54.39
833.167	53.9
833.34	53.79
833.514	53.21
833.687	53.26
833.86	53.04
834.034	52.88
834.207	52.86
834.38	52.57
834.553	51.6
834.727	51.21
834.9	51.79
835.073	52.3
835.246	52.3
835.419	52.73
835.593	52.73
835.766	52.72
835.939	53.56
836.112	53.87
836.285	55.27
836.458	56.6
836.631	57.87
836.804	58.61
836.977	58.27
837.15	59.09
837.323	60.31
837.496	62.15
837.669	61.95
837.842	62.9
838.015	62.93
838.188	62.67
838.361	64.34
838.533	64.83
838.706	64.36
838.879	63.95
839.052	65.19
839.225	65.7
839.398	63.16
839.57	63.38
839.743	63.75
839.916	65.07
840.088	64.31
840.261	62.01
840.434	61.46
840.607	61.81
840.779	62.42
840.952	60.04
841.124	57.75
841.297	58.58
841.47	58.19
841.642	57.92
841.815	57.21
841.987	59.4
842.16	61.92
842.332	62.69
842.505	63.68
842.677	63.21
842.85	64.87
843.022	65.67
843.194	66.72
843.367	69.02
843.539	69.07
843.712	71.71
843.884	70.85
844.056	71.04
844.229	72.01
844.401	71.76
844.573	73.36
844.745	76.21
844.918	78.16
845.09	79.79
845.262	79.82
845.434	76.31
845.606	77.26
845.779	76.23
845.951	75.02
846.123	74.68
846.295	73.57
846.467	74.3
846.639	71.48
846.811	71.94
846.983	70.03
847.155	68.01
847.327	70.77
847.499	67.43
847.671	69.81
847.843	68.41
848.015	68.93
848.187	67.59
848.359	68.27
848.531	70.93
848.703	70.85
848.875	73.52
849.047	73.33
849.218	73
849.39	76.83
849.562	74.8
849.734	76.5
849.905	75.59
850.077	77.99
850.249	76.11
850.421	77.79
850.592	76.04
850.764	71.81
850.936	73.72
851.107	74.33
851.279	73.2
851.451	76.03
851.622	76.28
851.794	75.27
851.965	79.53
852.137	79.18
852.308	74.88
852.48	77
852.651	78.4
852.823	78.83
852.994	78.34
853.166	77.71
853.337	73.74
853.509	74.87
853.68	77.17
853.851	75.6
854.023	76.66
854.194	76.25
854.365	73.7
854.537	75.43
854.708	76.88
854.879	78.38
855.05	79.54
855.222	80.71
855.393	82.94
855.564	83.06
855.735	81.11
855.906	79.07
856.078	79.18
856.249	82.89
856.42	83.11
856.591	81.84
856.762	80.95
856.933	79.3
857.104	80.2
857.275	77.75
857.446	76.79
857.617	78.99
857.788	80.54
857.959	79.58
858.13	76
858.301	77.06
858.472	79.2
858.643	78.45
858.814	78.08
858.985	77.08
859.155	77.8
859.326	78.39
859.497	74.42
859.668	73.58
859.839	74.78
860.009	77.54
860.18	73.91
860.351	72.11
860.522	75.1
860.692	77.27
860.863	77.13
861.034	78.12
861.204	79.94
861.375	85.01
861.546	87.03
861.716	87.91
861.887	88.1
862.057	91.39
862.228	96.59
862.398	96.36
862.569	97.63
862.739	102.88
862.91	98.03
863.08	96.08
863.251	90.11
863.421	87.21
863.592	88.41
863.762	90.21
863.932	86.32
864.103	81.88
864.273	77.49
864.443	71.63
864.614	67.19
864.784	68.65
864.954	68.96
865.125	73.1
865.295	76.68
865.465	79.9
865.635	77.1
865.805	79.45
865.976	80.92
866.146	82.08
866.316	86.38
866.486	86.19
866.656	88.24
866.826	86.91
866.996	87.77
867.166	88.89
867.336	83.55
867.506	84.27
867.676	83.88
867.846	85.73
868.016	91.36
868.186	89.05
868.356	91.18
868.526	91.63
868.696	93.32
868.866	89.59
869.036	86.6
869.206	88.54
869.376	89.81
869.545	90.1
869.715	83.23
869.885	73.77
870.055	76.05
870.224	78.06
870.394	75.68
870.564	75.76
870.734	77.72
870.903	74.72
871.073	73.53
871.243	68.42
871.412	67.62
871.582	70.87
871.751	74.47
871.921	76.12
872.091	75.94
872.26	79.37
872.43	77.94
872.599	78.65
872.769	81.06
872.938	81.24
873.108	87.03
873.277	91.14
873.446	92
873.616	92.64
873.785	93.48
873.955	91.19
874.124	89.02
874.293	90.33
874.463	88
874.632	88.16
874.801	87.39
874.971	84.75
875.14	83.39
875.309	81.58
875.478	81.04
875.647	79.51
875.817	78.38
875.986	77.95
876.155	74.82
876.324	74.32
876.493	75.43
876.662	78.47
876.831	77.55
877	77.13
877.17	76.16
877.339	78.59
877.508	76.53
877.677	78.01
877.846	78.13
878.015	81.55
878.184	82.83
878.352	81.6
878.521	78.55
878.69	78.28
878.859	75.24
879.028	76.45
879.197	75.96
879.366	76.45
879.534	73.4
879.703	69.68
879.872	66.21
880.041	63.37
880.21	59.68
880.378	57.36
880.547	53.81
880.716	52.28
880.884	49.29
881.053	46.89
881.222	45.66
881.39	45.16
881.559	44.42
881.727	43.56
881.896	42.49
882.065	42.53
882.233	42.3
882.402	42.53
882.57	42.63
882.739	42.34
882.907	42.2
883.076	41.68
883.244	41.44
883.412	41.55
883.581	41.74
883.749	42.21
883.918	42.67
884.086	43.06
884.254	43.45
884.423	44.65
884.591	46.05
884.759	46.53
884.927	47.32
885.096	49.13
885.264	50.6
885.432	51.79
885.6	52.07
885.769	52.38
885.937	53.35
886.105	54.86
886.273	54.47
886.441	55.74
886.609	59.11
886.777	61.3
886.945	61.4
887.113	63.97
887.281	63.84
887.449	68.18
887.617	68.62
887.785	70.35
887.953	73.57
888.121	74.31
888.289	72.99
888.457	72.06
888.625	72.97
888.793	73.3
888.961	71.2
889.129	75.32
889.296	77.65
889.464	79.61
889.632	79.49
889.8	78.47
889.967	80.01
890.135	85.01
