Data from 2938833__Reflection_03.txt Node
Date: Thu Mar 12 11:48:53 EDT 2015
User: robert
Spectrometer: USB4E03002
Autoset integration time: false
Trigger mode: 4
Integration Time (sec): 1.000000E-1
Scans to average: 10
Electric dark correction enabled: false
Nonlinearity correction enabled: false
Boxcar width: 5
Stray light correction enabled: false
XAxis mode: Wavelengths
Stop averaging: false
Number of Pixels in Spectrum: 3648
>>>>>Begin Spectral Data<<<<<
177.575	10.22
177.794	29.73
178.014	42.9
178.233	43.89
178.452	37.02
178.672	22.99
178.891	27.51
179.11	51.79
179.33	16.77
179.549	-8.7
179.768	-61.33
179.987	-37.58
180.207	-83.43
180.426	-120
180.645	-359.37
180.864	2366.67
181.084	-528.36
181.303	-92.69
181.522	-67.22
181.741	-63.47
181.96	-23.96
182.179	-79.4
182.398	-33.54
182.618	6.03
182.837	-40
183.056	43.55
183.275	28.57
183.494	76.92
183.713	106.36
183.932	57.69
184.151	101.74
184.37	87.85
184.589	117.6
184.808	109.06
185.027	144.17
185.246	140.52
185.465	114.02
185.684	145.83
185.903	104.17
186.122	93.3
186.341	97.19
186.56	62.24
186.779	75.78
186.998	51.94
187.216	19.88
187.435	21
187.654	-10.65
187.873	-32.34
188.092	-29.74
188.311	4.82
188.53	-15.41
188.748	-0.51
188.967	42.65
189.186	-2.61
189.405	10.75
189.623	46.59
189.842	27.47
190.061	36.49
190.28	24.08
190.498	21.39
190.717	13.15
190.936	15.88
191.154	12.15
191.373	14.12
191.592	33.92
191.81	44.42
192.029	27.34
192.248	61.03
192.466	105.68
192.685	181.82
192.904	125.25
193.122	101.8
193.341	98.49
193.559	105.69
193.778	76.84
193.996	57.54
194.215	48.89
194.433	45.11
194.652	46.99
194.87	47.84
195.089	31.81
195.307	29.57
195.526	37.53
195.744	21.31
195.963	34.97
196.181	53.71
196.399	108.43
196.618	125.36
196.836	-192.42
197.055	44.16
197.273	-124.77
197.491	-45.68
197.71	83.44
197.928	-23.33
198.146	2.49
198.365	-13.99
198.583	3.46
198.801	18.7
199.019	29.49
199.238	33.52
199.456	31.62
199.674	38.85
199.892	60.89
200.111	55.28
200.329	70.07
200.547	80.38
200.765	90.72
200.983	56.89
201.202	24.89
201.42	27.06
201.638	17.86
201.856	25.55
202.074	30.77
202.292	-19.22
202.51	-274.47
202.728	-91.97
202.946	-43.27
203.165	-39.54
203.383	6.49
203.601	36.12
203.819	17.51
204.037	39.97
204.255	43.9
204.473	48.32
204.691	46.79
204.909	35.97
205.127	30.72
205.345	17.88
205.562	20.8
205.78	-2.52
205.998	-2.45
206.216	2.3
206.434	-7.46
206.652	-17.66
206.87	-24.07
207.088	-14.02
207.306	6.33
207.523	9.22
207.741	30.52
207.959	11.61
208.177	6.67
208.395	-14.27
208.612	16.94
208.83	2.17
209.048	24.77
209.266	31.75
209.483	37.46
209.701	36.34
209.919	39.51
210.136	16.07
210.354	53.01
210.572	68.39
210.79	79.94
211.007	53.88
211.225	59.3
211.442	50.23
211.66	52.56
211.878	50.27
212.095	148.69
212.313	122.39
212.53	111.66
212.748	102.95
212.966	99.54
213.183	93.46
213.401	95.04
213.618	86.28
213.836	89.11
214.053	83
214.271	90.17
214.488	31.46
214.705	34.06
214.923	34.36
215.14	41.43
215.358	36.8
215.575	64.34
215.793	49.49
216.01	46.91
216.227	47.15
216.445	35.93
216.662	17.95
216.879	-4.81
217.097	-13.21
217.314	8.02
217.531	0.89
217.749	16.05
217.966	7.52
218.183	19.07
218.4	25.5
218.618	36.25
218.835	41.34
219.052	26.69
219.269	19.78
219.487	20.8
219.704	14.97
219.921	6.76
220.138	8.49
220.355	-2.82
220.572	-12.08
220.79	1.55
221.007	-9.58
221.224	-0.73
221.441	14.74
221.658	22.58
221.875	20.76
222.092	16.81
222.309	26.91
222.526	19.51
222.743	13.14
222.96	14.97
223.177	13.39
223.394	13.24
223.611	9.27
223.828	6.9
224.045	-1.07
224.262	-1.44
224.479	0.87
224.696	-8.06
224.913	1.78
225.13	11.88
225.347	13.01
225.564	10.84
225.781	9.13
225.997	7.15
226.214	11.04
226.431	13.44
226.648	13.52
226.865	12.45
227.082	11.82
227.298	8.36
227.515	6.11
227.732	5.91
227.949	5.95
228.165	5.45
228.382	7.41
228.599	5.78
228.816	4.65
229.032	4.87
229.249	5.01
229.466	5.58
229.682	5.88
229.899	6.05
230.116	6.33
230.332	6.94
230.549	7.47
230.765	6.94
230.982	7.44
231.199	7.46
231.415	6.77
231.632	7.28
231.848	6.14
232.065	6.07
232.281	6.21
232.498	5.58
232.714	5.42
232.931	4.92
233.147	3.64
233.364	2.58
233.58	3.37
233.797	2.38
234.013	1.16
234.23	1.63
234.446	3.91
234.662	4.06
234.879	3.84
235.095	3.75
235.312	3.79
235.528	4.16
235.744	4.84
235.961	6.41
236.177	6.3
236.393	7.57
236.61	7.98
236.826	5.59
237.042	3.94
237.258	4.71
237.475	3.86
237.691	2.2
237.907	1.81
238.123	2.35
238.339	1.36
238.556	3.81
238.772	3.71
238.988	3.66
239.204	4.59
239.42	6.32
239.636	4.99
239.853	4.79
240.069	6.18
240.285	6.43
240.501	5.44
240.717	6.17
240.933	5.06
241.149	4.81
241.365	4.68
241.581	4.22
241.797	3.89
242.013	4.15
242.229	4.19
242.445	3.96
242.661	4.02
242.877	4.77
243.093	4.03
243.309	4.44
243.525	4.58
243.741	4.11
243.957	4.08
244.173	4.8
244.388	4.47
244.604	4.54
244.82	4.98
245.036	4.5
245.252	4.35
245.468	4.12
245.683	3.5
245.899	3.41
246.115	3.94
246.331	4.27
246.547	4.27
246.762	4.61
246.978	4.57
247.194	4.49
247.409	4.42
247.625	3.91
247.841	3.99
248.057	4.24
248.272	4.37
248.488	4.25
248.703	3.85
248.919	3.49
249.135	3.31
249.35	3.53
249.566	2.84
249.782	2.82
249.997	3.19
250.213	3.53
250.428	3.19
250.644	2.51
250.859	3.34
251.075	3.82
251.29	4.48
251.506	4.71
251.721	3.94
251.937	4.5
252.152	4.7
252.368	4.91
252.583	5.06
252.798	5.15
253.014	5.11
253.229	4.65
253.445	4.96
253.66	4.59
253.875	3.87
254.091	4.72
254.306	4.32
254.521	4.6
254.737	4.49
254.952	3.28
255.167	3.78
255.383	4.89
255.598	3.96
255.813	3.32
256.028	2.07
256.244	3.01
256.459	1.83
256.674	2.27
256.889	2.88
257.104	3.16
257.32	3.98
257.535	3.89
257.75	3.63
257.965	3.84
258.18	4.1
258.395	4.3
258.61	3.85
258.826	3.85
259.041	3.87
259.256	3.28
259.471	3.32
259.686	2.9
259.901	3.02
260.116	2.93
260.331	2.85
260.546	2.77
260.761	2.65
260.976	2.5
261.191	2.42
261.406	2.46
261.621	2.84
261.836	2.98
262.05	3.55
262.265	2.93
262.48	2.83
262.695	2.74
262.91	3.03
263.125	3.62
263.34	4.19
263.555	4.67
263.769	4.14
263.984	3.22
264.199	2.78
264.414	2.54
264.629	3.43
264.843	3.35
265.058	3.61
265.273	3.01
265.488	2.59
265.702	2.62
265.917	2.41
266.132	2.75
266.346	3.62
266.561	3.83
266.776	3.5
266.99	3.27
267.205	3.32
267.42	2.81
267.634	2.58
267.849	2.86
268.063	2.57
268.278	2.93
268.492	3.16
268.707	2.63
268.922	2.14
269.136	2.54
269.351	2.95
269.565	2.82
269.78	3.01
269.994	3.37
270.209	3.12
270.423	3.17
270.637	2.87
270.852	2.66
271.066	2.57
271.281	2.89
271.495	2.73
271.709	2.54
271.924	2.46
272.138	2.62
272.353	2.34
272.567	2.29
272.781	2.27
272.996	2.65
273.21	2.94
273.424	3.33
273.638	2.98
273.853	3.04
274.067	3.15
274.281	3.35
274.495	3.52
274.71	4.25
274.924	4.11
275.138	4.63
275.352	3.99
275.566	3.6
275.781	2.84
275.995	3.61
276.209	3.47
276.423	3.16
276.637	2.71
276.851	2.55
277.065	2.03
277.279	1.93
277.493	1.45
277.707	2.19
277.921	1.96
278.135	1.97
278.349	1
278.563	1.61
278.777	1.69
278.991	2.11
279.205	2.27
279.419	2.38
279.633	2.81
279.847	2.59
280.061	2
280.275	2.13
280.489	2.55
280.703	2.97
280.917	2.58
281.131	2.82
281.344	2.93
281.558	3.15
281.772	3.1
281.986	3.15
282.2	3
282.414	3.19
282.627	3.22
282.841	3.07
283.055	2.99
283.269	3.01
283.482	2.74
283.696	2.61
283.91	2.37
284.123	3.04
284.337	3.05
284.551	2.96
284.764	2.82
284.978	3.06
285.192	2.94
285.405	3.01
285.619	3
285.833	2.73
286.046	2.66
286.26	2.95
286.473	2.28
286.687	1.87
286.9	2.14
287.114	2.19
287.327	2.1
287.541	2.19
287.754	2.36
287.968	2.49
288.181	2.92
288.395	2.97
288.608	2.55
288.822	2.92
289.035	3.36
289.248	3.24
289.462	3.24
289.675	3.19
289.889	3.39
290.102	3.31
290.315	3.04
290.529	3.03
290.742	3.15
290.955	3.26
291.169	2.86
291.382	3.02
291.595	3.33
291.808	3.53
292.022	3.72
292.235	3.61
292.448	3.42
292.661	3.82
292.875	3.96
293.088	3.91
293.301	4.14
293.514	4.5
293.727	4.58
293.94	4.18
294.153	4.18
294.367	3.92
294.58	4.41
294.793	4.45
295.006	4.16
295.219	3.83
295.432	3.77
295.645	3.8
295.858	3.77
296.071	3.73
296.284	3.95
296.497	3.83
296.71	4.16
296.923	3.78
297.136	3.74
297.349	3.84
297.562	4.1
297.775	4.34
297.988	4.38
298.201	4.56
298.414	4.7
298.626	4.76
298.839	4.88
299.052	4.63
299.265	5.22
299.478	5.17
299.691	5.51
299.903	5.63
300.116	5.67
300.329	5.61
300.542	5.55
300.755	5.43
300.967	5.78
301.18	5.57
301.393	5.81
301.605	5.6
301.818	6.14
302.031	5.96
302.243	5.92
302.456	5.79
302.669	5.62
302.881	5.64
303.094	6.15
303.307	6.25
303.519	6.39
303.732	6.29
303.944	5.95
304.157	5.47
304.37	5.41
304.582	5.48
304.795	5.32
305.007	5.46
305.22	5.51
305.432	4.95
305.645	5.03
305.857	5.57
306.069	5.61
306.282	5.91
306.494	6.56
306.707	6.71
306.919	6.63
307.132	7.14
307.344	7.41
307.556	7.63
307.769	7.33
307.981	7.07
308.193	6.59
308.406	6.7
308.618	6.7
308.83	6.5
309.043	6.24
309.255	6.27
309.467	6.07
309.679	6.09
309.892	6.08
310.104	6.57
310.316	6.39
310.528	6.53
310.74	6.42
310.953	6.42
311.165	6.39
311.377	6.56
311.589	6.66
311.801	6.85
312.013	6.35
312.225	6.03
312.437	5.8
312.649	5.82
312.862	6.03
313.074	6.15
313.286	6.35
313.498	6.3
313.71	6.5
313.922	6.08
314.134	6.3
314.346	7.06
314.558	7.23
314.77	7.31
314.982	7.49
315.193	6.82
315.405	6.91
315.617	6.77
315.829	7.08
316.041	7.21
316.253	7.54
316.465	7.54
316.677	7.51
316.888	7.81
317.1	7.74
317.312	7.61
317.524	7.83
317.736	7.6
317.947	7.65
318.159	7.38
318.371	7.11
318.583	7.07
318.794	6.49
319.006	6.21
319.218	5.83
319.43	5.36
319.641	5.56
319.853	6.05
320.064	6.26
320.276	6.15
320.488	6.05
320.699	6.27
320.911	6.47
321.123	6.68
321.334	6.63
321.546	6.7
321.757	7.11
321.969	6.94
322.18	6.87
322.392	7.06
322.603	6.86
322.815	7.13
323.026	6.88
323.238	6.62
323.449	6.61
323.661	6.82
323.872	6.64
324.083	7.15
324.295	7.49
324.506	7.7
324.718	7.39
324.929	7.61
325.14	7.9
325.352	8.07
325.563	8.4
325.774	8.79
325.986	8.66
326.197	8.97
326.408	8.9
326.62	8.54
326.831	8.72
327.042	9.02
327.253	8.99
327.464	9.03
327.676	9.34
327.887	9.45
328.098	9.09
328.309	9.22
328.52	9.56
328.732	9.5
328.943	10.16
329.154	10.07
329.365	10.2
329.576	10.48
329.787	10.21
329.998	10.21
330.209	10.51
330.42	11.03
330.631	11.44
330.842	11.33
331.053	11.32
331.264	11.17
331.475	11.15
331.686	11.19
331.897	10.8
332.108	10.79
332.319	10.72
332.53	10.48
332.741	10.55
332.952	10.56
333.163	10.51
333.374	10.63
333.585	10.98
333.795	10.67
334.006	10.49
334.217	11
334.428	11.07
334.639	10.78
334.849	10.56
335.06	10.32
335.271	9.91
335.482	9.94
335.692	10.05
335.903	9.85
336.114	9.88
336.325	10.18
336.535	9.69
336.746	9.9
336.957	10.06
337.167	10.17
337.378	10.54
337.589	10.99
337.799	10.88
338.01	10.91
338.22	10.75
338.431	10.89
338.642	10.77
338.852	11.34
339.063	11.21
339.273	11.61
339.484	11.78
339.694	11.63
339.905	11.35
340.115	11.46
340.326	11.34
340.536	11.47
340.746	11.78
340.957	11.64
341.167	11.6
341.378	11.73
341.588	11.25
341.799	11.18
342.009	10.99
342.219	10.92
342.43	10.7
342.64	10.85
342.85	10.73
343.061	10.46
343.271	10.79
343.481	10.56
343.691	10.09
343.902	9.94
344.112	10.05
344.322	10.19
344.532	10.76
344.743	10.91
344.953	11.01
345.163	10.76
345.373	10.65
345.583	10.42
345.793	10.74
346.004	10.97
346.214	10.99
346.424	10.79
346.634	10.6
346.844	10.26
347.054	10.72
347.264	10.51
347.474	10.56
347.684	10.68
347.894	10.6
348.104	10.24
348.314	10.24
348.524	10.43
348.734	10.43
348.944	10.55
349.154	10.28
349.364	9.63
349.574	9.64
349.784	9.8
349.994	9.71
350.204	9.94
350.413	10.03
350.623	10.27
350.833	10.15
351.043	9.97
351.253	9.85
351.463	9.92
351.672	10.35
351.882	10.28
352.092	10.19
352.302	10
352.511	9.73
352.721	9.54
352.931	9.15
353.141	9.46
353.35	9.65
353.56	9.46
353.77	9.5
353.979	8.91
354.189	8.82
354.399	8.89
354.608	9.29
354.818	9.65
355.027	9.93
355.237	9.89
355.447	9.9
355.656	9.93
355.866	9.99
356.075	9.95
356.285	10.19
356.494	10.23
356.704	10.21
356.913	10.13
357.123	9.9
357.332	9.74
357.542	9.95
357.751	9.81
357.96	9.89
358.17	9.87
358.379	9.83
358.589	9.84
358.798	9.87
359.007	9.72
359.217	9.52
359.426	9.58
359.635	9.4
359.845	9.31
360.054	9.26
360.263	9.25
360.472	9.24
360.682	9.43
360.891	9.47
361.1	9.46
361.309	9.73
361.519	9.72
361.728	9.53
361.937	9.8
362.146	9.79
362.355	9.76
362.564	9.9
362.774	9.93
362.983	9.75
363.192	9.66
363.401	9.46
363.61	9.34
363.819	9.57
364.028	9.88
364.237	9.76
364.446	9.69
364.655	9.64
364.864	9.27
365.073	9.18
365.282	9.31
365.491	9.54
365.7	9.59
365.909	9.53
366.118	9.44
366.327	9.07
366.536	8.89
366.745	8.83
366.954	8.78
367.162	8.85
367.371	8.96
367.58	8.81
367.789	8.64
367.998	8.75
368.207	8.54
368.415	8.2
368.624	8.03
368.833	8.14
369.042	8.29
369.25	8.3
369.459	8.42
369.668	8.43
369.877	8.31
370.085	8.31
370.294	8.38
370.503	8.45
370.711	8.62
370.92	8.79
371.129	8.63
371.337	8.48
371.546	8.54
371.754	8.17
371.963	7.92
372.171	7.93
372.38	7.79
372.589	7.62
372.797	7.55
373.006	7.39
373.214	7.43
373.423	7.49
373.631	7.46
373.84	7.55
374.048	7.53
374.256	7.79
374.465	7.88
374.673	8.08
374.882	8.19
375.09	8.24
375.298	8.28
375.507	8.15
375.715	8.15
375.923	8.18
376.132	7.8
376.34	7.81
376.548	7.61
376.757	7.37
376.965	7.24
377.173	6.9
377.381	6.78
377.59	6.62
377.798	6.54
378.006	6.16
378.214	6.05
378.423	6.18
378.631	6.44
378.839	6.3
379.047	6.44
379.255	6.26
379.463	6.14
379.671	6.22
379.879	6.25
380.088	6.1
380.296	6.4
380.504	6.31
380.712	6.33
380.92	5.93
381.128	6.23
381.336	5.96
381.544	5.91
381.752	6.13
381.96	5.95
382.168	5.93
382.376	6.09
382.584	5.84
382.791	5.87
382.999	5.86
383.207	6.01
383.415	5.8
383.623	6.07
383.831	6.22
384.039	6.23
384.247	6.16
384.454	5.95
384.662	6.06
384.87	6.24
385.078	6.33
385.285	6.04
385.493	5.68
385.701	5.48
385.909	5.17
386.116	5.16
386.324	5.01
386.532	5.04
386.739	5.28
386.947	4.96
387.155	4.76
387.362	4.34
387.57	4.55
387.778	4.94
387.985	5.19
388.193	5.21
388.4	5
388.608	5.05
388.816	5.11
389.023	5.02
389.231	5.16
389.438	5.31
389.646	5.7
389.853	5.4
390.061	5.3
390.268	5.24
390.475	5.18
390.683	5.3
390.89	5.28
391.098	5.14
391.305	5.08
391.512	4.96
391.72	4.68
391.927	4.53
392.135	4.93
392.342	4.85
392.549	4.74
392.756	4.79
392.964	4.64
393.171	4.59
393.378	4.61
393.586	4.61
393.793	4.57
394	4.75
394.207	4.59
394.414	4.42
394.622	4.51
394.829	4.47
395.036	4.58
395.243	4.44
395.45	4.43
395.657	4.42
395.864	4.37
396.072	4.51
396.279	4.65
396.486	4.7
396.693	4.6
396.9	4.51
397.107	4.63
397.314	4.41
397.521	4.77
397.728	4.86
397.935	4.83
398.142	4.91
398.349	4.9
398.556	4.77
398.763	5
398.97	4.86
399.177	4.76
399.383	4.67
399.59	4.56
399.797	4.45
400.004	4.24
400.211	4.09
400.418	3.92
400.625	3.81
400.831	3.74
401.038	3.72
401.245	3.83
401.452	3.9
401.658	3.79
401.865	4.03
402.072	3.81
402.279	3.77
402.485	3.87
402.692	4.03
402.899	4.13
403.105	4.03
403.312	3.75
403.519	3.73
403.725	3.84
403.932	3.94
404.138	3.67
404.345	3.69
404.552	3.66
404.758	3.73
404.965	3.6
405.171	3.35
405.378	3.35
405.584	3.56
405.791	3.67
405.997	3.57
406.204	3.43
406.41	3.67
406.617	3.6
406.823	3.65
407.029	3.61
407.236	3.53
407.442	3.65
407.649	3.82
407.855	3.7
408.061	3.59
408.268	3.5
408.474	3.5
408.68	3.39
408.887	3.46
409.093	3.68
409.299	3.53
409.505	3.59
409.712	3.45
409.918	3.41
410.124	3.41
410.33	3.27
410.537	3.3
410.743	3.31
410.949	3.35
411.155	3.39
411.361	3.22
411.567	3.33
411.773	3.32
411.98	3.38
412.186	3.28
412.392	3.24
412.598	3.22
412.804	3.11
413.01	3.24
413.216	3.25
413.422	3.13
413.628	3.19
413.834	3.1
414.04	3.04
414.246	3.07
414.452	3.11
414.658	3.05
414.864	3.15
415.07	3.14
415.275	3.05
415.481	2.89
415.687	2.95
415.893	2.9
416.099	2.88
416.305	2.88
416.511	2.83
416.716	2.71
416.922	2.72
417.128	2.73
417.334	2.78
417.539	2.66
417.745	2.67
417.951	2.44
418.157	2.47
418.362	2.66
418.568	2.58
418.774	2.71
418.979	2.66
419.185	2.62
419.391	2.57
419.596	2.57
419.802	2.65
420.008	2.63
420.213	3.43
420.419	3.41
420.624	3.27
420.83	3.32
421.035	3.22
421.241	3.33
421.446	3.36
421.652	3.3
421.857	3.35
422.063	3.33
422.268	3.36
422.474	2.72
422.679	2.63
422.885	2.62
423.09	2.6
423.295	2.62
423.501	2.55
423.706	2.56
423.911	2.56
424.117	2.45
424.322	2.46
424.527	2.45
424.733	2.48
424.938	2.56
425.143	2.59
425.349	2.61
425.554	2.5
425.759	2.5
425.964	2.43
426.169	2.51
426.375	2.48
426.58	2.47
426.785	2.44
426.99	2.37
427.195	2.32
427.4	2.24
427.605	2.19
427.811	2.27
428.016	2.34
428.221	2.44
428.426	2.36
428.631	2.43
428.836	2.38
429.041	2.47
429.246	2.48
429.451	2.55
429.656	2.49
429.861	2.59
430.066	2.61
430.271	2.45
430.476	2.45
430.681	2.44
430.886	2.51
431.09	2.58
431.295	2.56
431.5	2.52
431.705	2.52
431.91	2.46
432.115	2.35
432.32	2.36
432.524	2.44
432.729	2.41
432.934	2.52
433.139	2.5
433.343	2.54
433.548	2.59
433.753	2.71
433.958	2.7
434.162	2.83
434.367	2.83
434.572	2.88
434.776	3.01
434.981	2.97
435.186	2.85
435.39	2.9
435.595	2.81
435.799	2.7
436.004	2.64
436.209	2.64
436.413	2.64
436.618	2.81
436.822	2.77
437.027	2.73
437.231	2.82
437.436	2.86
437.64	2.82
437.845	2.85
438.049	2.92
438.253	2.87
438.458	2.85
438.662	2.79
438.867	2.72
439.071	2.74
439.275	2.65
439.48	2.52
439.684	2.5
439.888	2.53
440.093	2.55
440.297	2.62
440.501	2.69
440.706	2.7
440.91	2.68
441.114	2.62
441.318	2.56
441.523	2.63
441.727	2.7
441.931	2.7
442.135	2.58
442.339	2.52
442.543	2.41
442.748	2.4
442.952	2.34
443.156	2.4
443.36	2.47
443.564	2.49
443.768	2.45
443.972	2.44
444.176	2.5
444.38	2.55
444.584	2.59
444.788	2.62
444.992	2.61
445.196	2.61
445.4	2.58
445.604	2.55
445.808	2.48
446.012	2.48
446.216	2.48
446.42	2.43
446.624	2.43
446.828	2.39
447.032	2.36
447.235	2.3
447.439	2.31
447.643	2.38
447.847	2.36
448.051	2.48
448.254	2.48
448.458	2.56
448.662	2.59
448.866	2.59
449.069	2.6
449.273	2.53
449.477	2.67
449.681	2.7
449.884	2.53
450.088	2.66
450.292	2.59
450.495	2.55
450.699	2.41
450.902	2.38
451.106	2.31
451.31	2.36
451.513	2.41
451.717	2.28
451.92	2.24
452.124	2.32
452.327	2.12
452.531	2.11
452.734	2.15
452.938	2.33
453.141	2.32
453.345	2.41
453.548	2.37
453.752	2.36
453.955	2.39
454.158	2.41
454.362	2.45
454.565	2.47
454.769	2.49
454.972	2.45
455.175	2.23
455.379	2.29
455.582	2.24
455.785	2.21
455.988	2.2
456.192	2.31
456.395	2.29
456.598	2.33
456.801	2.38
457.005	2.33
457.208	2.41
457.411	2.44
457.614	2.4
457.817	2.46
458.021	2.47
458.224	2.42
458.427	2.38
458.63	2.33
458.833	2.23
459.036	2.25
459.239	2.26
459.442	2.19
459.645	2.18
459.848	2.17
460.051	2.09
460.254	2.1
460.457	2.13
460.66	2.11
460.863	2.1
461.066	2.04
461.269	2
461.472	1.95
461.675	2.01
461.878	2.08
462.081	2.13
462.284	2.17
462.486	2.1
462.689	2.14
462.892	2.21
463.095	2.29
463.298	2.53
463.5	2.65
463.703	2.72
463.906	2.68
464.109	2.65
464.311	2.59
464.514	2.62
464.717	2.7
464.92	2.58
465.122	2.57
465.325	2.53
465.528	2.37
465.73	2.32
465.933	2.37
466.135	2.4
466.338	2.48
466.541	2.55
466.743	2.53
466.946	2.55
467.148	2.69
467.351	2.65
467.553	2.75
467.756	2.79
467.958	2.78
468.161	2.77
468.363	2.77
468.566	2.65
468.768	2.6
468.971	2.57
469.173	2.6
469.375	2.57
469.578	2.61
469.78	2.5
469.983	2.56
470.185	2.63
470.387	2.65
470.59	2.63
470.792	2.76
470.994	2.74
471.196	2.83
471.399	2.8
471.601	2.79
471.803	2.72
472.005	2.78
472.208	2.88
472.41	2.76
472.612	2.64
472.814	2.56
473.016	2.42
473.218	2.57
473.421	2.54
473.623	2.57
473.825	2.59
474.027	2.59
474.229	2.61
474.431	2.51
474.633	2.5
474.835	2.6
475.037	2.69
475.239	2.82
475.441	2.67
475.643	2.66
475.845	2.54
476.047	2.58
476.249	2.45
476.451	2.42
476.653	2.47
476.855	2.63
477.057	2.56
477.258	2.58
477.46	2.49
477.662	2.56
477.864	2.6
478.066	2.7
478.268	2.62
478.469	2.69
478.671	2.69
478.873	2.66
479.075	2.59
479.276	2.61
479.478	2.56
479.68	2.61
479.882	2.62
480.083	2.6
480.285	2.5
480.487	2.61
480.688	2.64
480.89	2.62
481.091	2.6
481.293	2.59
481.495	2.57
481.696	2.53
481.898	2.47
482.099	2.41
482.301	2.4
482.502	2.42
482.704	2.36
482.905	2.34
483.107	2.34
483.308	2.32
483.51	2.32
483.711	2.32
483.913	2.32
484.114	2.33
484.315	2.32
484.517	2.29
484.718	2.31
484.92	2.33
485.121	2.33
485.322	2.34
485.524	2.36
485.725	2.35
485.926	2.34
486.127	2.36
486.329	2.36
486.53	2.36
486.731	2.37
486.932	2.33
487.134	2.26
487.335	2.28
487.536	2.25
487.737	2.24
487.938	2.21
488.139	2.23
488.341	2.25
488.542	2.25
488.743	2.25
488.944	2.28
489.145	2.29
489.346	2.36
489.547	2.35
489.748	2.34
489.949	2.38
490.15	2.39
490.351	2.37
490.552	2.37
490.753	2.38
490.954	2.38
491.155	2.41
491.356	2.37
491.557	2.38
491.758	2.42
491.959	2.45
492.159	2.43
492.36	2.44
492.561	2.49
492.762	2.5
492.963	2.51
493.164	2.53
493.364	2.52
493.565	2.59
493.766	2.61
493.967	2.62
494.167	2.61
494.368	2.61
494.569	2.65
494.769	2.68
494.97	2.61
495.171	2.64
495.371	2.64
495.572	2.72
495.773	2.71
495.973	2.71
496.174	2.68
496.375	2.69
496.575	2.79
496.776	2.77
496.976	2.83
497.177	2.87
497.377	2.85
497.578	2.86
497.778	2.82
497.979	2.89
498.179	2.95
498.38	3.03
498.58	3.12
498.78	3.06
498.981	3.07
499.181	3.06
499.382	3.14
499.582	3.24
499.782	3.37
499.983	3.37
500.183	3.4
500.383	3.34
500.584	3.33
500.784	3.35
500.984	3.44
501.184	3.43
501.385	3.48
501.585	3.48
501.785	3.49
501.985	3.5
502.185	3.52
502.386	3.43
502.586	3.5
502.786	3.5
502.986	3.56
503.186	3.56
503.386	3.64
503.586	3.6
503.786	3.6
503.987	3.6
504.187	3.59
504.387	3.68
504.587	3.8
504.787	3.83
504.987	3.87
505.187	3.9
505.387	3.89
505.587	4.04
505.786	4.14
505.986	4.2
506.186	4.21
506.386	4.32
506.586	4.38
506.786	4.44
506.986	4.55
507.186	4.63
507.386	4.68
507.585	4.79
507.785	4.75
507.985	4.77
508.185	4.86
508.384	4.93
508.584	5.01
508.784	5.07
508.984	5.13
509.183	5.07
509.383	5.14
509.583	5.12
509.782	5.15
509.982	5.25
510.182	5.28
510.381	5.28
510.581	5.38
510.781	5.4
510.98	5.47
511.18	5.58
511.379	5.67
511.579	5.76
511.778	5.86
511.978	5.94
512.177	6.01
512.377	6.11
512.576	6.24
512.776	6.29
512.975	6.4
513.175	6.45
513.374	6.46
513.573	6.64
513.773	6.66
513.972	6.72
514.172	6.83
514.371	6.95
514.57	7.07
514.77	7.14
514.969	7.29
515.168	7.33
515.367	7.44
515.567	7.55
515.766	7.65
515.965	7.71
516.164	7.87
516.364	7.98
516.563	8.02
516.762	8.13
516.961	8.25
517.16	8.31
517.359	8.37
517.559	8.44
517.758	8.49
517.957	8.51
518.156	8.62
518.355	8.7
518.554	8.75
518.753	8.85
518.952	8.93
519.151	8.96
519.35	9.06
519.549	9.21
519.748	9.25
519.947	9.46
520.146	9.62
520.345	9.78
520.544	9.89
520.743	9.97
520.942	10.09
521.141	10.2
521.339	10.31
521.538	10.38
521.737	10.49
521.936	10.69
522.135	10.71
522.333	10.76
522.532	10.81
522.731	10.89
522.93	10.98
523.129	11.08
523.327	11.11
523.526	11.19
523.725	11.31
523.923	11.38
524.122	11.44
524.321	11.5
524.519	11.62
524.718	11.7
524.917	11.82
525.115	11.93
525.314	12
525.512	12.1
525.711	12.19
525.909	12.34
526.108	12.38
526.306	12.47
526.505	12.58
526.703	12.64
526.902	12.7
527.1	12.75
527.299	12.83
527.497	12.91
527.696	12.98
527.894	13.03
528.092	13.05
528.291	13.12
528.489	13.16
528.688	13.2
528.886	13.28
529.084	13.36
529.283	13.42
529.481	13.49
529.679	13.55
529.877	13.58
530.076	13.71
530.274	13.78
530.472	13.91
530.67	14.01
530.869	14.1
531.067	14.16
531.265	14.26
531.463	14.4
531.661	14.5
531.859	14.53
532.057	14.67
532.255	14.71
532.454	14.8
532.652	14.82
532.85	14.9
533.048	14.99
533.246	15.14
533.444	15.2
533.642	15.25
533.84	15.38
534.038	15.51
534.236	15.63
534.434	15.76
534.632	15.81
534.83	15.94
535.027	16.02
535.225	16.15
535.423	16.18
535.621	16.32
535.819	16.44
536.017	16.49
536.215	16.53
536.412	16.6
536.61	16.64
536.808	16.76
537.006	16.86
537.203	16.99
537.401	17.02
537.599	17.13
537.797	17.22
537.994	17.26
538.192	17.35
538.39	17.53
538.587	17.66
538.785	17.86
538.983	17.99
539.18	18.08
539.378	18.17
539.575	18.32
539.773	18.41
539.97	18.53
540.168	18.72
540.366	18.75
540.563	18.79
540.761	18.88
540.958	18.93
541.155	18.96
541.353	19.05
541.55	19.15
541.748	19.22
541.945	19.32
542.143	19.36
542.34	19.39
542.537	19.51
542.735	19.65
542.932	19.71
543.129	19.85
543.327	20.08
543.524	20.3
543.721	20.54
543.919	20.86
544.116	21.11
544.313	21.46
544.51	21.8
544.708	22.16
544.905	22.47
545.102	22.76
545.299	22.99
545.496	23.15
545.693	23.27
545.891	23.2
546.088	23.12
546.285	23.09
546.482	23.02
546.679	22.86
546.876	22.79
547.073	22.67
547.27	22.61
547.467	22.56
547.664	22.47
547.861	22.38
548.058	22.45
548.255	22.53
548.452	22.67
548.649	22.66
548.846	22.86
549.043	22.82
549.24	22.84
549.437	22.84
549.633	22.88
549.83	22.99
550.027	22.99
550.224	23.07
550.421	23.02
550.618	22.87
550.814	22.85
551.011	22.71
551.208	22.71
551.405	22.71
551.601	22.69
551.798	22.53
551.995	22.38
552.191	22.42
552.388	22.28
552.585	22.18
552.781	22.17
552.978	22.25
553.175	22.21
553.371	22.13
553.568	22.24
553.764	22.32
553.961	22.48
554.157	22.67
554.354	22.79
554.55	22.91
554.747	23.01
554.943	23.05
555.14	23.04
555.336	23.1
555.533	23.26
555.729	23.22
555.926	23.35
556.122	23.31
556.318	23.35
556.515	23.32
556.711	23.29
556.907	23.37
557.104	23.42
557.3	23.27
557.496	23.28
557.693	23.37
557.889	23.32
558.085	23.33
558.281	23.39
558.478	23.28
558.674	23.29
558.87	23.37
559.066	23.42
559.262	23.45
559.459	23.58
559.655	23.64
559.851	23.56
560.047	23.71
560.243	23.6
560.439	23.7
560.635	23.76
560.831	23.85
561.027	23.96
561.223	23.93
561.419	24.08
561.615	24.11
561.811	24.28
562.007	24.49
562.203	24.44
562.399	24.59
562.595	24.51
562.791	24.54
562.987	24.46
563.183	24.46
563.379	24.47
563.575	24.44
563.771	24.57
563.966	24.42
564.162	24.32
564.358	24.26
564.554	24.21
564.75	24.28
564.945	24.24
565.141	24.28
565.337	24.34
565.533	24.2
565.728	24.19
565.924	24.14
566.12	24.15
566.315	24.14
566.511	24.26
566.707	24.29
566.902	24.35
567.098	24.42
567.293	24.46
567.489	24.4
567.684	24.56
567.88	24.57
568.076	24.66
568.271	24.73
568.467	24.73
568.662	24.71
568.858	24.75
569.053	24.76
569.248	24.74
569.444	24.67
569.639	24.66
569.835	24.75
570.03	24.78
570.225	24.77
570.421	24.69
570.616	24.65
570.812	24.6
571.007	24.53
571.202	24.52
571.397	24.43
571.593	24.4
571.788	24.49
571.983	24.46
572.178	24.47
572.374	24.47
572.569	24.64
572.764	24.8
572.959	24.89
573.154	24.94
573.35	24.83
573.545	24.96
573.74	25.11
573.935	25.12
574.13	25.17
574.325	25.21
574.52	25.22
574.715	25.17
574.91	25.27
575.105	25.32
575.3	25.38
575.495	25.58
575.69	25.67
575.885	25.85
576.08	25.93
576.275	26.05
576.47	26.11
576.665	26.45
576.86	26.56
577.055	26.55
577.25	26.71
577.444	26.91
577.639	27.13
577.834	27.21
578.029	27.27
578.224	27.45
578.418	27.68
578.613	27.74
578.808	27.67
579.003	27.76
579.197	27.82
579.392	27.87
579.587	27.86
579.781	27.72
579.976	27.64
580.171	27.67
580.365	27.62
580.56	27.44
580.755	27.66
580.949	27.68
581.144	27.77
581.338	27.76
581.533	27.8
581.727	27.91
581.922	27.97
582.116	28.2
582.311	28.31
582.505	28.35
582.7	28.47
582.894	28.35
583.089	28.22
583.283	28.14
583.478	28.33
583.672	28.2
583.866	28.19
584.061	28.12
584.255	28.14
584.449	28.08
584.644	28.12
584.838	28.2
585.032	28.26
585.226	28.49
585.421	28.59
585.615	28.52
585.809	28.76
586.003	28.71
586.198	28.85
586.392	28.86
586.586	28.93
586.78	28.76
586.974	28.7
587.168	28.68
587.363	28.61
587.557	28.69
587.751	28.71
587.945	28.53
588.139	28.44
588.333	28.34
588.527	28.25
588.721	28.12
588.915	28.21
589.109	27.99
589.303	27.85
589.497	27.68
589.691	27.48
589.885	27.31
590.079	27.4
590.273	27.51
590.466	27.69
590.66	27.81
590.854	28.05
591.048	28.19
591.242	28.42
591.436	28.61
591.629	28.86
591.823	29.07
592.017	29.32
592.211	29.41
592.404	29.58
592.598	29.57
592.792	29.6
592.986	29.42
593.179	29.28
593.373	29.23
593.567	29.1
593.76	29.04
593.954	29.02
594.147	28.73
594.341	28.45
594.535	28.28
594.728	28.22
594.922	28.08
595.115	27.96
595.309	27.86
595.502	27.66
595.696	27.73
595.889	27.63
596.083	27.52
596.276	27.6
596.47	27.7
596.663	27.65
596.856	27.62
597.05	27.5
597.243	27.65
597.437	27.73
597.63	28.12
597.823	28.09
598.017	28.2
598.21	28.29
598.403	28.51
598.596	28.6
598.79	28.79
598.983	28.8
599.176	29.07
599.369	29.01
599.563	29.14
599.756	28.93
599.949	29.06
600.142	29.07
600.335	29.15
600.528	29.03
600.722	28.96
600.915	28.83
601.108	28.96
601.301	28.85
601.494	28.87
601.687	28.85
601.88	28.81
602.073	28.77
602.266	28.7
602.459	28.68
602.652	28.64
602.845	28.67
603.038	28.62
603.231	28.44
603.424	28.31
603.617	28.33
603.809	28.2
604.002	28.08
604.195	28.04
604.388	27.98
604.581	27.95
604.774	27.93
604.966	27.98
605.159	28
605.352	28.15
605.545	28.35
605.737	28.28
605.93	28.49
606.123	28.75
606.316	28.92
606.508	29.09
606.701	29.25
606.894	29.42
607.086	29.55
607.279	29.73
607.471	29.78
607.664	30
607.857	30.38
608.049	30.53
608.242	30.89
608.434	31.42
608.627	32.05
608.819	32.73
609.012	33.74
609.204	34.69
609.397	35.88
609.589	37.15
609.782	38.38
609.974	39.72
610.166	41.19
610.359	42.59
610.551	43.73
610.743	44.81
610.936	45.74
611.128	46.34
611.32	46.75
611.513	46.84
611.705	46.82
611.897	46.48
612.09	46.01
612.282	45.47
612.474	44.76
612.666	44.17
612.858	43.53
613.051	42.79
613.243	42.18
613.435	41.63
613.627	41.1
613.819	40.59
614.011	40.14
614.203	39.66
614.395	39.07
614.588	38.42
614.78	37.83
614.972	37.39
615.164	36.97
615.356	36.36
615.548	35.99
615.74	35.6
615.932	35.25
616.124	34.95
616.315	34.58
616.507	34.25
616.699	34.1
616.891	33.8
617.083	33.51
617.275	33.13
617.467	32.96
617.659	32.7
617.85	32.45
618.042	32
618.234	32.06
618.426	31.84
618.618	31.84
618.809	31.69
619.001	31.53
619.193	31.69
619.384	31.79
619.576	31.9
619.768	31.84
619.959	32.02
620.151	32.39
620.343	32.16
620.534	32.28
620.726	32.29
620.917	32.4
621.109	32.56
621.301	32.34
621.492	32.41
621.684	32.53
621.875	32.51
622.067	32.6
622.258	32.42
622.45	32.53
622.641	32.67
622.832	32.55
623.024	32.46
623.215	32.59
623.407	32.69
623.598	32.54
623.789	32.4
623.981	32.37
624.172	32.19
624.363	32.19
624.555	32.14
624.746	32.08
624.937	32.19
625.129	32.2
625.32	32.01
625.511	31.84
625.702	31.93
625.893	31.7
626.085	31.65
626.276	31.72
626.467	31.79
626.658	31.78
626.849	31.75
627.04	31.69
627.231	31.61
627.422	31.83
627.614	31.82
627.805	31.77
627.996	32.09
628.187	32.35
628.378	32.35
628.569	32.36
628.76	32.47
628.951	32.68
629.142	32.78
629.332	33
629.523	32.84
629.714	33.09
629.905	33.4
630.096	33.55
630.287	33.61
630.478	33.6
630.669	33.59
630.859	33.5
631.05	33.23
631.241	33.29
631.432	33.34
631.623	33.25
631.813	33.09
632.004	32.87
632.195	32.48
632.385	32.23
632.576	32.2
632.767	32.02
632.957	32.03
633.148	31.82
633.339	31.66
633.529	31.58
633.72	31.37
633.91	31.3
634.101	31.06
634.292	30.87
634.482	30.84
634.673	30.89
634.863	31.06
635.054	30.96
635.244	31.12
635.435	31.03
635.625	30.85
635.815	30.97
636.006	30.76
636.196	30.99
636.387	31.29
636.577	31.42
636.767	31.26
636.958	31.25
637.148	31.23
637.338	31.32
637.529	31.11
637.719	31.25
637.909	31.44
638.099	31.59
638.29	31.62
638.48	31.26
638.67	31.18
638.86	31.4
639.05	31.33
639.241	31.54
639.431	31.34
639.621	31.55
639.811	31.52
640.001	31.38
640.191	31.45
640.381	31.46
640.571	31.55
640.761	31.75
640.951	31.72
641.141	31.71
641.331	31.72
641.521	32.13
641.711	32.31
641.901	32.11
642.091	32.15
642.281	32.31
642.471	32.24
642.661	32.3
642.851	32.21
643.041	32.03
643.231	31.98
643.42	31.86
643.61	31.65
643.8	31.38
643.99	31.53
644.18	31.62
644.369	31.36
644.559	31.39
644.749	31.55
644.939	31.39
645.128	31.52
645.318	31.54
645.508	31.51
645.697	31.35
645.887	31.45
646.076	31.46
646.266	31.48
646.456	31.62
646.645	31.46
646.835	31.38
647.024	31.48
647.214	31.32
647.403	31.34
647.593	31.33
647.782	31.42
647.972	31.34
648.161	31.46
648.351	31.43
648.54	31.5
648.73	31.61
648.919	31.78
649.108	31.79
649.298	31.99
649.487	32.12
649.677	32.23
649.866	32.39
650.055	32.51
650.244	32.47
650.434	32.52
650.623	32.56
650.812	32.55
651.002	32.31
651.191	32.27
651.38	32.14
651.569	32.33
651.758	32.21
651.947	32.27
652.137	32.35
652.326	32.37
652.515	32.4
652.704	32.33
652.893	32.31
653.082	32.47
653.271	32.53
653.46	32.38
653.649	31.99
653.838	32.09
654.027	31.97
654.216	31.94
654.405	31.94
654.594	32.03
654.783	32.04
654.972	32.02
655.161	31.98
655.35	31.8
655.539	31.72
655.728	31.91
655.916	31.8
656.105	31.86
656.294	31.98
656.483	31.83
656.672	31.67
656.86	31.45
657.049	31.48
657.238	31.42
657.427	31.36
657.615	31.57
657.804	31.37
657.993	31.31
658.181	31.09
658.37	30.82
658.559	30.75
658.747	30.66
658.936	30.71
659.125	31.06
659.313	30.87
659.502	31.07
659.69	30.99
659.879	31.08
660.067	31.2
660.256	31.23
660.444	31.51
660.633	31.89
660.821	32.05
661.01	32.33
661.198	32.08
661.387	32.42
661.575	32.38
661.763	32.68
661.952	32.77
662.14	32.96
662.328	33.19
662.517	32.93
662.705	32.57
662.893	32.69
663.082	32.62
663.27	32.69
663.458	32.71
663.646	32.76
663.834	32.86
664.023	33.27
664.211	33.28
664.399	33.44
664.587	33.57
664.775	33.96
664.963	33.75
665.152	33.75
665.34	33.96
665.528	33.89
665.716	33.88
665.904	33.72
666.092	33.6
666.28	33.35
666.468	33.05
666.656	32.95
666.844	32.85
667.032	32.96
667.22	33.05
667.408	32.88
667.596	32.84
667.784	33
667.971	32.83
668.159	32.41
668.347	32.54
668.535	32.77
668.723	32.88
668.911	32.95
669.098	32.88
669.286	32.65
669.474	32.76
669.662	32.79
669.849	32.8
670.037	32.91
670.225	33.27
670.413	33.22
670.6	33.02
670.788	33.09
670.976	32.82
671.163	33
671.351	33.41
671.538	33.08
671.726	33.02
671.913	32.85
672.101	32.64
672.289	32.37
672.476	32.32
672.664	32.55
672.851	32.63
673.039	32.6
673.226	32.54
673.413	32.39
673.601	32.52
673.788	32.69
673.976	32.74
674.163	33.19
674.35	33.31
674.538	33.71
674.725	33.67
674.912	33.66
675.1	33.99
675.287	34.02
675.474	33.86
675.662	34.1
675.849	33.83
676.036	33.99
676.223	33.76
676.411	33.94
676.598	33.65
676.785	33.58
676.972	33.41
677.159	33.35
677.346	33.33
677.533	33.31
677.721	32.96
677.908	33.45
678.095	33.22
678.282	33.31
678.469	33.35
678.656	33.26
678.843	33.13
679.03	33.09
679.217	32.84
679.404	32.72
679.591	32.59
679.778	32.86
679.964	32.39
680.151	32.39
680.338	32.31
680.525	32.27
680.712	32.35
680.899	32.37
681.086	32.64
681.272	32.73
681.459	32.79
681.646	33
681.833	32.84
682.02	33.17
682.206	33.34
682.393	33.26
682.58	33.4
682.766	33.36
682.953	33.51
683.14	33.29
683.326	33.83
683.513	33.97
683.7	34.02
683.886	34
684.073	34.01
684.259	33.87
684.446	34.19
684.632	33.97
684.819	34.05
685.005	33.95
685.192	34.01
685.378	33.46
685.565	33.54
685.751	33.5
685.938	33.7
686.124	33.68
686.31	34.01
686.497	33.82
686.683	33.91
686.87	33.98
687.056	34.11
687.242	34.17
687.429	33.99
687.615	33.76
687.801	33.7
687.987	33.78
688.174	33.74
688.36	33.47
688.546	33.48
688.732	33.37
688.918	33.4
689.105	33.42
689.291	33.53
689.477	33.87
689.663	33.86
689.849	34.21
690.035	34.16
690.221	34.42
690.407	34.59
690.593	34.74
690.779	34.77
690.965	34.77
691.151	34.8
691.337	34.99
691.523	34.93
691.709	35.05
691.895	34.92
692.081	34.94
692.267	34.73
692.453	34.84
692.639	34.9
692.825	35.08
693.011	35.13
693.196	35.1
693.382	35.05
693.568	35.27
693.754	35.33
693.94	35.49
694.125	35.48
694.311	36.07
694.497	35.79
694.682	35.62
694.868	35.63
695.054	35.59
695.239	35.76
695.425	35.41
695.611	35.09
695.796	35.22
695.982	34.73
696.168	34.62
696.353	34
696.539	33.8
696.724	33.7
696.91	33.6
697.095	33.5
697.281	32.9
697.466	32.95
697.652	32.99
697.837	32.61
698.023	32.7
698.208	32.57
698.393	32.49
698.579	32.36
698.764	32.16
698.949	31.96
699.135	31.98
699.32	32.08
699.505	32.06
699.691	32.06
699.876	32.19
700.061	32.29
700.246	32.41
700.432	32.44
700.617	32.76
700.802	32.99
700.987	33.28
701.172	33.08
701.358	33.72
701.543	34.11
701.728	34.28
701.913	34.52
702.098	34.61
702.283	34.64
702.468	34.99
702.653	35.16
702.838	35.39
703.023	35.38
703.208	35.98
703.393	35.64
703.578	35.53
703.763	35.74
703.948	35.91
704.133	36.22
704.318	36.67
704.503	36.82
704.688	37.02
704.873	37.22
705.057	37.5
705.242	37.67
705.427	38.16
705.612	38.78
705.797	39.3
705.981	39.73
706.166	39.69
706.351	39.86
706.536	40.15
706.72	40.59
706.905	41.03
707.09	41.41
707.274	41.68
707.459	41.94
707.644	41.67
707.828	41.39
708.013	41.43
708.197	41.6
708.382	41.54
708.567	41.57
708.751	41.12
708.936	40.82
709.12	40.62
709.305	40.49
709.489	39.9
709.673	40.05
709.858	39.82
710.042	39.57
710.227	39.42
710.411	39.27
710.596	38.97
710.78	39.1
710.964	39.12
711.149	39.24
711.333	39.49
711.517	39.83
711.702	39.41
711.886	39.71
712.07	39.69
712.254	39.7
712.438	39.63
712.623	39.78
712.807	39.67
712.991	39.36
713.175	38.85
713.359	38.18
713.544	37.63
713.728	37.52
713.912	36.82
714.096	36.22
714.28	35.77
714.464	35.78
714.648	35.39
714.832	34.93
715.016	34.39
715.2	34.36
715.384	34.26
715.568	34.04
715.752	34
715.936	34.06
716.12	34.01
716.304	33.86
716.488	33.26
716.671	33.09
716.855	33.15
717.039	33.55
717.223	33.48
717.407	33.1
717.59	33.24
717.774	33.32
717.958	33.29
718.142	33.06
718.325	33
718.509	33.37
718.693	33.77
718.877	33.76
719.06	33.41
719.244	33.6
719.428	33.96
719.611	34.16
719.795	33.95
719.978	33.96
720.162	35.03
720.345	35.69
720.529	35.47
720.713	35.34
720.896	35.97
721.08	36.71
721.263	36.52
721.446	36.61
721.63	36.67
721.813	36.69
721.997	36.72
722.18	35.78
722.364	35.59
722.547	35.85
722.73	35.34
722.914	34.48
723.097	34.18
723.28	33.75
723.464	33.63
723.647	33.27
723.83	33.04
724.013	33.41
724.197	33.91
724.38	33.49
724.563	33.32
724.746	33.72
724.929	34.11
725.112	33.73
725.296	34.18
725.479	33.94
725.662	33.83
725.845	34.44
726.028	34.08
726.211	33.95
726.394	33.88
726.577	33.58
726.76	33.25
726.943	33.01
727.126	33.54
727.309	33.39
727.492	33.93
727.675	34.43
727.858	33.67
728.041	33.48
728.224	33.15
728.407	33.58
728.589	33.63
728.772	33.62
728.955	34
729.138	33.87
729.321	33.75
729.503	33.36
729.686	33.27
729.869	33.58
730.052	34.2
730.234	34.69
730.417	34.19
730.6	34.77
730.782	35.28
730.965	35.35
731.148	35.32
731.33	35.42
731.513	35.73
731.695	35.87
731.878	35.79
732.061	35.71
732.243	35.31
732.426	35.77
732.608	35.71
732.791	36.22
732.973	36.05
733.156	35.82
733.338	35.86
733.52	35.52
733.703	35.05
733.885	34.93
734.068	34.72
734.25	34.79
734.432	34.99
734.615	35
734.797	34.11
734.979	34.26
735.162	34.58
735.344	35.18
735.526	35.4
735.708	35.72
735.891	36.25
736.073	36.53
736.255	36.97
736.437	36.84
736.619	36.54
736.802	36.98
736.984	36.91
737.166	37.08
737.348	36.7
737.53	37.47
737.712	37.59
737.894	37.45
738.076	37.78
738.258	37.92
738.44	37.7
738.622	38.12
738.804	38.02
738.986	37.86
739.168	37.79
739.35	38.08
739.532	37.74
739.714	37.41
739.896	37.92
740.078	36.97
740.259	36.86
740.441	36.86
740.623	36.54
740.805	36.76
740.987	37.19
741.168	37.6
741.35	37.54
741.532	37.44
741.714	37.93
741.895	38.05
742.077	38.55
742.259	38.77
742.44	38.85
742.622	39.4
742.804	39.57
742.985	39.22
743.167	39.21
743.348	39.96
743.53	40.09
743.711	40.16
743.893	40.02
744.075	40.17
744.256	39.97
744.438	40.85
744.619	40.7
744.8	40.83
744.982	40.82
745.163	40.59
745.345	40.14
745.526	40.13
745.707	40.48
745.889	40.51
746.07	40.12
746.252	40.52
746.433	39.91
746.614	40.45
746.795	40.2
746.977	40.49
747.158	40.66
747.339	40.5
747.52	40.36
747.702	39.86
747.883	39.79
748.064	40.74
748.245	39.38
748.426	39.21
748.607	38.29
748.788	37.93
748.97	37.83
749.151	38.02
749.332	38.28
749.513	38.05
749.694	38.63
749.875	38.7
750.056	38.77
750.237	39.67
750.418	39.36
750.599	39.89
750.78	40.29
750.96	40.24
751.141	40.33
751.322	40.03
751.503	40.07
751.684	39.31
751.865	39.57
752.046	38.96
752.226	39.3
752.407	40.95
752.588	40.27
752.769	39.85
752.949	40
753.13	39.64
753.311	39.37
753.492	40.4
753.672	40.84
753.853	40.21
754.034	40.02
754.214	39.69
754.395	38.56
754.575	39.43
754.756	39.52
754.937	39.84
755.117	39.73
755.298	39.83
755.478	38.99
755.659	38.97
755.839	38.82
756.02	38.51
756.2	38.21
756.381	37.96
756.561	37.75
756.741	38.09
756.922	38.07
757.102	38.22
757.283	37.87
757.463	37.91
757.643	37.64
757.823	36.98
758.004	36.86
758.184	36.39
758.364	36.43
758.545	35.26
758.725	34.74
758.905	33.75
759.085	33.43
759.265	32.95
759.446	32.15
759.626	32.34
759.806	32.19
759.986	32.07
760.166	32.64
760.346	32.39
760.526	32.27
760.706	32.47
760.886	32.54
761.066	32.36
761.246	32.43
761.426	32.6
761.606	31.76
761.786	32.28
761.966	32.3
762.146	31.98
762.326	32.09
762.506	32.49
762.686	31.6
762.866	31.43
763.046	31.2
763.225	31.18
763.405	31.19
763.585	31.53
763.765	30.91
763.945	30.87
764.124	31.21
764.304	31.43
764.484	31.2
764.664	31.87
764.843	32.35
765.023	32.61
765.203	32.62
765.382	33.04
765.562	33.01
765.741	33.99
765.921	34.71
766.101	34.76
766.28	35.15
766.46	36.15
766.639	36.25
766.819	36.19
766.998	36.26
767.178	36.79
767.357	36.75
767.537	37.31
767.716	37.76
767.896	37.17
768.075	37.11
768.254	37.71
768.434	37.76
768.613	38.21
768.792	38.48
768.972	38.73
769.151	39.61
769.33	40.21
769.51	40.16
769.689	40.27
769.868	40.6
770.047	40.84
770.226	40.37
770.406	40.39
770.585	40.48
770.764	40.91
770.943	41.96
771.122	41.8
771.301	41.36
771.48	41.11
771.66	41.38
771.839	42.09
772.018	41.79
772.197	42.1
772.376	42.36
772.555	42.05
772.734	42.09
772.913	40.33
773.092	40.24
773.271	40.55
773.449	41.06
773.628	41.18
773.807	41.58
773.986	42.52
774.165	42.14
774.344	42.31
774.523	42.8
774.701	42.99
774.88	44.35
775.059	44
775.238	44.73
775.417	45.25
775.595	45.05
775.774	44.83
775.953	44.01
776.131	44.1
776.31	43.45
776.489	43.33
776.667	42.81
776.846	42.27
777.025	42.68
777.203	41.95
777.382	41.2
777.56	40.86
777.739	41.63
777.917	41.82
778.096	40.96
778.274	41.94
778.453	41.98
778.631	43.07
778.81	42.62
778.988	42.69
779.166	43.49
779.345	43.82
779.523	43.41
779.702	42.24
779.88	43.63
780.058	44.59
780.237	43.77
780.415	44.07
780.593	42.97
780.771	44.23
780.95	45.66
781.128	45.04
781.306	45.23
781.484	46.38
781.662	46.42
781.841	44.59
782.019	44.57
782.197	44.83
782.375	44.94
782.553	45.89
782.731	45.69
782.909	43.34
783.087	43.09
783.265	43.16
783.443	42.66
783.621	43.52
783.799	44.03
783.977	43.67
784.155	43.08
784.333	41.96
784.511	41.31
784.689	41.42
784.867	42.33
785.045	41.81
785.223	41.72
785.4	41.65
785.578	40.54
785.756	41.74
785.934	41.21
786.112	41.17
786.289	41.94
786.467	41.87
786.645	41.6
786.823	40.59
787	40.96
787.178	39.93
787.356	39.27
787.533	39.7
787.711	38.4
787.889	38.44
788.066	38.39
788.244	38.4
788.421	38.36
788.599	37.56
788.776	37.47
788.954	37.03
789.131	38.68
789.309	38.92
789.486	39.59
789.664	40.68
789.841	41.53
790.019	42.29
790.196	42.4
790.373	41.87
790.551	42.63
790.728	43.32
790.906	44.94
791.083	44.3
791.26	44.82
791.437	43.11
791.615	43
791.792	42.67
791.969	42.18
792.146	41.45
792.324	42.47
792.501	41.13
792.678	41.34
792.855	40
793.032	39.03
793.209	38.69
793.387	40.26
793.564	39.52
793.741	39.5
793.918	40
794.095	39.41
794.272	38.35
794.449	39.5
794.626	39.59
794.803	39.85
794.98	42.23
795.157	42.78
795.334	42.18
795.511	41.61
795.688	41.39
795.864	41.2
796.041	42.13
796.218	41.88
796.395	41.72
796.572	41.37
796.749	42.15
796.925	40.32
797.102	39.68
797.279	39.72
797.456	41.07
797.632	41.56
797.809	40.23
797.986	40.29
798.162	39.89
798.339	38.82
798.516	39.28
798.692	38.28
798.869	38.85
799.046	39.29
799.222	39.14
799.399	38.6
799.575	37.45
799.752	37.96
799.928	37.67
800.105	38.57
800.281	40.85
800.458	41.42
800.634	40.92
800.811	40.7
800.987	40.18
801.163	40.2
801.34	40.71
801.516	40.77
801.692	41.69
801.869	42.62
802.045	43.58
802.221	42.53
802.398	40.8
802.574	41.23
802.75	41.76
802.926	42.1
803.103	41.88
803.279	41.3
803.455	41.63
803.631	41.3
803.807	40.6
803.983	39.49
804.16	39.94
804.336	40.61
804.512	40.12
804.688	39.73
804.864	39.18
805.04	39.7
805.216	39.21
805.392	40.03
805.568	40.22
805.744	39.63
805.92	38.41
806.096	38.11
806.272	38.29
806.448	38.87
806.623	38.71
806.799	39.06
806.975	38.91
807.151	38.28
807.327	38.62
807.503	38.21
807.678	38.27
807.854	39.49
808.03	38.9
808.206	38.85
808.381	38.71
808.557	38.1
808.733	39
808.908	39.38
809.084	41.67
809.26	40.73
809.435	40.61
809.611	39.89
809.787	41.19
809.962	41.44
810.138	42.58
810.313	43.07
810.489	44.18
810.664	43.8
810.84	42.91
811.015	41.32
811.191	41.19
811.366	41.2
811.542	42.2
811.717	40.62
811.892	40.53
812.068	39.12
812.243	38.45
812.419	37.52
812.594	36.53
812.769	37.25
812.944	37.84
813.12	38.33
813.295	38.98
813.47	37.95
813.645	37.84
813.821	36.57
813.996	36.11
814.171	35.06
814.346	34.52
814.521	34.43
814.697	33.95
814.872	33.93
815.047	32.91
815.222	32.68
815.397	32.69
815.572	32.26
815.747	34.82
815.922	34.83
816.097	35.94
816.272	36.47
816.447	36.73
816.622	35.36
816.797	34.48
816.972	34.55
817.147	35.61
817.322	36.05
817.496	35.68
817.671	33.71
817.846	33.69
818.021	33.61
818.196	33.79
818.371	34.18
818.545	35.6
818.72	35.7
818.895	34.67
819.069	33.63
819.244	33.04
819.419	34.13
819.594	34.13
819.768	33.71
819.943	33.33
820.117	32.05
820.292	31.41
820.467	30.91
820.641	29.91
820.816	29.15
820.99	28.86
821.165	28.3
821.339	27.61
821.514	27.41
821.688	27.24
821.863	27.01
822.037	27.18
822.212	27.16
822.386	26.95
822.56	26.92
822.735	26.99
822.909	26.66
823.084	26.93
823.258	26.9
823.432	27.08
823.606	27.1
823.781	27.09
823.955	26.94
824.129	26.84
824.303	27.27
824.478	27.62
824.652	28.07
824.826	28.67
825	28.43
825.174	29
825.348	28.75
825.523	29.28
825.697	29.46
825.871	30
826.045	30.2
826.219	29.62
826.393	29.64
826.567	29.16
826.741	28.72
826.915	29.07
827.089	28.6
827.263	28.53
827.437	28.29
827.611	28.31
827.784	27.73
827.958	27.43
828.132	27.4
828.306	27.76
828.48	27.49
828.654	27.86
828.827	28.21
829.001	28.16
829.175	28.49
829.349	28.57
829.522	28.65
829.696	29.75
829.87	30.36
830.044	31.18
830.217	30.85
830.391	33.03
830.565	32.86
830.738	32.5
830.912	34.18
831.085	34.51
831.259	35.06
831.432	34.62
831.606	34.19
831.779	33.67
831.953	34.12
832.126	33.38
832.3	31.86
832.473	31.78
832.647	32.03
832.82	31.03
832.994	30.67
833.167	29.86
833.34	30.04
833.514	29.68
833.687	30.01
833.86	29.79
834.034	29.38
834.207	29.88
834.38	29.84
834.553	30.03
834.727	30.37
834.9	30.57
835.073	31.19
835.246	31.64
835.419	32.41
835.593	32.36
835.766	31.56
835.939	32.74
836.112	33.48
836.285	33.91
836.458	33.71
836.631	33.63
836.804	34.17
836.977	34.51
837.15	35.24
837.323	36.36
837.496	36.56
837.669	37.63
837.842	37.46
838.015	35.71
838.188	35.51
838.361	35.65
838.533	36.6
838.706	37.53
838.879	37.77
839.052	36.03
839.225	34.45
839.398	33.88
839.57	33.88
839.743	34.25
839.916	35.29
840.088	36.9
840.261	37.33
840.434	37.12
840.607	35.47
840.779	35.49
840.952	36.77
841.124	35.72
841.297	37.59
841.47	38.18
841.642	37.15
841.815	38.12
841.987	36.92
842.16	36.89
842.332	34.34
842.505	37.29
842.677	38.04
842.85	39.42
843.022	41.52
843.194	42.02
843.367	43.34
843.539	45.19
843.712	45.14
843.884	47.02
844.056	48.12
844.229	51.38
844.401	51.96
844.573	52.65
844.745	52.85
844.918	52.53
845.09	53.01
845.262	51.36
845.434	50.26
845.606	52.05
845.779	50.71
845.951	51.3
846.123	52.16
846.295	50.89
846.467	48.84
846.639	46.88
846.811	46.74
846.983	46.33
847.155	47.06
847.327	47.78
847.499	46.41
847.671	45.88
847.843	42.66
848.015	42.22
848.187	38.96
848.359	38.51
848.531	40.57
848.703	41.14
848.875	40.82
849.047	41.18
849.218	40.97
849.39	42.39
849.562	42.21
849.734	42.38
849.905	40.89
850.077	41.55
850.249	45.18
850.421	44
850.592	46.98
850.764	47.04
850.936	48.86
851.107	49.4
851.279	50.27
851.451	50.02
851.622	48.72
851.794	48.93
851.965	53.5
852.137	50.87
852.308	50.9
852.48	46.64
852.651	46.73
852.823	46.47
852.994	43.68
853.166	41.48
853.337	42.89
853.509	45.54
853.68	48.13
853.851	41.69
854.023	42.58
854.194	44.01
854.365	46.21
854.537	46.64
854.708	43.89
854.879	45.94
855.05	46.5
855.222	46.12
855.393	45.59
855.564	41.93
855.735	42.96
855.906	40.34
856.078	39.65
856.249	40.38
856.42	40.09
856.591	38.22
856.762	39.77
856.933	45.12
857.104	43.89
857.275	43.09
857.446	45.51
857.617	47.76
857.788	48.76
857.959	46.07
858.13	46
858.301	43.65
858.472	48.75
858.643	47.07
858.814	39.57
858.985	38.56
859.155	41.32
859.326	41.69
859.497	43.34
859.668	45.04
859.839	49.65
860.009	46.25
860.18	46.62
860.351	41.8
860.522	44.12
860.692	45.7
860.863	48
861.034	46.86
861.204	46.76
861.375	47.44
861.546	46.62
861.716	43.58
861.887	44.68
862.057	49.79
862.228	51.25
862.398	51.63
862.569	52.39
862.739	53.93
862.91	54.8
863.08	51.84
863.251	49.79
863.421	48.14
863.592	49.8
863.762	56.56
863.932	52.36
864.103	56.71
864.273	53.53
864.443	54.75
864.614	51.34
864.784	51.78
864.954	55.87
865.125	50.74
865.295	53.15
865.465	52.17
865.635	46.73
865.805	43.76
865.976	39.59
866.146	39.59
866.316	40.55
866.486	39.65
866.656	38.21
866.826	39.72
866.996	44.33
867.166	40.73
867.336	39.41
867.506	38.88
867.676	43.22
867.846	44.52
868.016	42.82
868.186	40.07
868.356	41.99
868.526	42.44
868.696	42.67
868.866	42.75
869.036	46.28
869.206	45.17
869.376	46.33
869.545	43.57
869.715	44.53
869.885	47.57
870.055	49.09
870.224	51.36
870.394	51.45
870.564	49.66
870.734	47.61
870.903	41.29
871.073	47.95
871.243	45.54
871.412	48.64
871.582	47.13
871.751	46.31
871.921	45.82
872.091	42.73
872.26	45.31
872.43	43.51
872.599	42.3
872.769	46.31
872.938	43.98
873.108	48.01
873.277	46.5
873.446	43.45
873.616	40.47
873.785	41.28
873.955	39.69
874.124	35.98
874.293	35.55
874.463	37.6
874.632	37.64
874.801	36.18
874.971	36.32
875.14	36.11
875.309	39.76
875.478	40.94
875.647	39.43
875.817	39.95
875.986	41.11
876.155	41.43
876.324	41.55
876.493	42.45
876.662	43.9
876.831	42.01
877	39.27
877.17	39.45
877.339	42.78
877.508	41.16
877.677	42.06
877.846	39.05
878.015	35.77
878.184	34.82
878.352	33.24
878.521	31.21
878.69	30.38
878.859	31.68
879.028	32.17
879.197	31.28
879.366	30.14
879.534	31.02
879.703	31.68
879.872	31.38
880.041	32.19
880.21	30.46
880.378	29.03
880.547	28.46
880.716	29.43
880.884	29.17
881.053	27.79
881.222	27.65
881.39	26.54
881.559	25.93
881.727	26.49
881.896	25.91
882.065	26.21
882.233	26.53
882.402	26.16
882.57	25.43
882.739	24.59
882.907	25.02
883.076	25.3
883.244	25.61
883.412	26.1
883.581	25.62
883.749	25.02
883.918	25.11
884.086	24.83
884.254	25
884.423	25.13
884.591	25.99
884.759	25.98
884.927	26.45
885.096	26.28
885.264	26.29
885.432	26.18
885.6	27.25
885.769	27.31
885.937	27.05
886.105	28.8
886.273	29.01
886.441	27.62
886.609	26.78
886.777	25.24
886.945	26.48
887.113	27.25
887.281	26.85
887.449	27.96
887.617	27.72
887.785	28.15
887.953	25.72
888.121	24.79
888.289	25.1
888.457	23.25
888.625	22.3
888.793	20.87
888.961	20.71
889.129	24.65
889.296	24.28
889.464	24.15
889.632	23.9
889.8	24.67
889.967	25.59
890.135	27.97
