Data from 2938753__Reflection_01.txt Node
Date: Sat Mar 14 14:25:14 EDT 2015
User: robert
Spectrometer: USB4E03002
Autoset integration time: false
Trigger mode: 4
Integration Time (sec): 1.000000E-1
Scans to average: 10
Electric dark correction enabled: false
Nonlinearity correction enabled: false
Boxcar width: 5
Stray light correction enabled: false
XAxis mode: Wavelengths
Stop averaging: false
Number of Pixels in Spectrum: 3648
>>>>>Begin Spectral Data<<<<<
177.575	190.14
177.794	272.82
178.014	217.13
178.233	239.27
178.452	294.5
178.672	359.93
178.891	695.63
179.11	960.66
179.33	1739.71
179.549	502.71
179.768	588.21
179.987	442.46
180.207	716.48
180.426	5607.69
180.645	3212.24
180.864	3188.89
181.084	923.21
181.303	666.09
181.522	1842.31
181.741	2428.57
181.96	-1018.44
182.179	-972.5
182.398	-710.36
182.618	-935.98
182.837	2528.57
183.056	832.46
183.275	1443.4
183.494	3272.5
183.713	992.62
183.932	562.56
184.151	592.46
184.37	327.07
184.589	243.56
184.808	251.65
185.027	167.12
185.246	154.27
185.465	216.27
185.684	200.22
185.903	346.18
186.122	2242.5
186.341	-2366.67
186.56	-617.36
186.779	-455.17
186.998	-603.94
187.216	-4550
187.435	-884.54
187.654	-6487.5
187.873	1642.31
188.092	-555.35
188.311	1146.09
188.53	629.73
188.748	936.08
188.967	991.55
189.186	1325.24
189.405	766.86
189.623	1141.94
189.842	833.33
190.061	6226.09
190.28	-8305.88
190.498	682.35
190.717	1916.85
190.936	-51233.33
191.154	628.36
191.373	468.85
191.592	454.22
191.81	448.33
192.029	367.9
192.248	316.2
192.466	326.92
192.685	242.94
192.904	193.82
193.122	177.59
193.341	176.94
193.559	178.38
193.778	200.23
193.996	198.67
194.215	228.24
194.433	274.66
194.652	325.34
194.87	312.26
195.089	329.54
195.307	264.6
195.526	244.86
195.744	274.81
195.963	298.84
196.181	252.92
196.399	283.08
196.618	280.65
196.836	234.1
197.055	223.74
197.273	252.69
197.491	340.36
197.71	813.64
197.928	527.54
198.146	345.68
198.365	382.69
198.583	666.67
198.801	831.88
199.019	635.8
199.238	5021.74
199.456	1325.26
199.674	1507.04
199.892	539.81
200.111	1081.9
200.329	-1017.09
200.547	-1800
200.765	-457.39
200.983	-998.92
201.202	-878.3
201.42	-846.3
201.638	-10787.5
201.856	3296.43
202.074	561.2
202.292	819.83
202.51	1004.3
202.728	723.66
202.946	432.31
203.165	411.39
203.383	387.97
203.601	294.03
203.819	290.18
204.037	314.99
204.255	363.38
204.473	354.92
204.691	364.56
204.909	410.81
205.127	383.02
205.345	641.09
205.562	413.85
205.78	368.83
205.998	715.91
206.216	990.76
206.434	1203.3
206.652	1439.73
206.87	5860
207.088	927.45
207.306	375.85
207.523	254.81
207.741	295.8
207.959	270.75
208.177	382.28
208.395	343.06
208.612	279.94
208.83	303.1
209.048	266.91
209.266	278.78
209.483	264.95
209.701	205.06
209.919	258.41
210.136	192.67
210.354	182.27
210.572	158.85
210.79	147.65
211.007	161.76
211.225	174.77
211.442	217.95
211.66	207.63
211.878	173.57
212.095	278.94
212.313	302.43
212.53	445.7
212.748	590.37
212.966	923.16
213.183	979.19
213.401	1742.11
213.618	474.29
213.836	345.27
214.053	338.08
214.271	399.01
214.488	258.65
214.705	166.3
214.923	130.95
215.14	112.2
215.358	120.93
215.575	108.33
215.793	93.33
216.01	116.03
216.227	111.82
216.445	119.33
216.662	125.7
216.879	134.37
217.097	132.48
217.314	141.14
217.531	145.62
217.749	137.67
217.966	172.27
218.183	191.81
218.4	164.72
218.618	157.55
218.835	141.77
219.052	129.98
219.269	125.06
219.487	131.41
219.704	115.51
219.921	124
220.138	111.51
220.355	97.56
220.572	74.47
220.79	63.82
221.007	63.28
221.224	65.3
221.441	59.05
221.658	60.11
221.875	49.56
222.092	50.63
222.309	41.64
222.526	42.35
222.743	32.61
222.96	39.22
223.177	41.16
223.394	42.3
223.611	41.9
223.828	44.61
224.045	46.68
224.262	48.87
224.479	47.11
224.696	52.01
224.913	50.89
225.13	51.17
225.347	49.54
225.564	51.15
225.781	43.11
225.997	38.52
226.214	37.45
226.431	28.62
226.648	25.09
226.865	21.99
227.082	18.85
227.298	15.92
227.515	15.07
227.732	13.22
227.949	13.86
228.165	14.16
228.382	13.89
228.599	11.09
228.816	11.65
229.032	9.69
229.249	9.67
229.466	8.24
229.682	7.78
229.899	7.31
230.116	7.85
230.332	6.41
230.549	5.61
230.765	4.59
230.982	5.01
231.199	4.35
231.415	6.13
231.632	6.31
231.848	6.66
232.065	7.87
232.281	8.65
232.498	7.08
232.714	8
232.931	8.29
233.147	9.95
233.364	10.18
233.58	9.33
233.797	10.47
234.013	10.92
234.23	12.62
234.446	12.44
234.662	10.62
234.879	12
235.095	12.46
235.312	13.27
235.528	13.58
235.744	13.52
235.961	14.89
236.177	14.19
236.393	16.29
236.61	12.68
236.826	13.49
237.042	14.79
237.258	16.73
237.475	16.3
237.691	16.99
237.907	15.68
238.123	16.56
238.339	16.24
238.556	15.44
238.772	12.78
238.988	15.27
239.204	15.02
239.42	14.48
239.636	10.82
239.853	12.17
240.069	11.35
240.285	10.1
240.501	9.39
240.717	7.87
240.933	7.6
241.149	7.38
241.365	7.11
241.581	6.36
241.797	6.87
242.013	6.61
242.229	5.01
242.445	4.68
242.661	4.49
242.877	4.61
243.093	4.7
243.309	5.02
243.525	5.65
243.741	6.22
243.957	6.1
244.173	5.89
244.388	7.19
244.604	8.28
244.82	8.42
245.036	9.4
245.252	9.27
245.468	8.8
245.683	7.82
245.899	6.65
246.115	5.79
246.331	5.83
246.547	5.56
246.762	5.17
246.978	4.61
247.194	4.65
247.409	4.18
247.625	4.14
247.841	4.54
248.057	4.61
248.272	4.42
248.488	5.02
248.703	5.09
248.919	5.05
249.135	5.14
249.35	5.43
249.566	5.13
249.782	5.71
249.997	5.33
250.213	5.97
250.428	7.2
250.644	7.85
250.859	7.02
251.075	7.14
251.29	7.24
251.506	7.32
251.721	8
251.937	8.22
252.152	7.83
252.368	8.21
252.583	7.75
252.798	6.92
253.014	6.41
253.229	6.24
253.445	5.56
253.66	6.04
253.875	6.24
254.091	5.64
254.306	5.08
254.521	6.15
254.737	6.63
254.952	6.25
255.167	5.99
255.383	7.55
255.598	7.53
255.813	8.45
256.028	7.89
256.244	8.69
256.459	8.97
256.674	8.93
256.889	7.49
257.104	5.94
257.32	5.65
257.535	6
257.75	5.37
257.965	5.1
258.18	4.76
258.395	4.69
258.61	4.19
258.826	3.68
259.041	4.09
259.256	3.98
259.471	4.19
259.686	4.34
259.901	4.29
260.116	4.63
260.331	4.83
260.546	4.73
260.761	4.73
260.976	4.5
261.191	4.72
261.406	4.52
261.621	5.11
261.836	5.06
262.05	5.09
262.265	5.35
262.48	4.57
262.695	4.4
262.91	5.03
263.125	4.84
263.34	5.2
263.555	5.09
263.769	4.56
263.984	4.12
264.199	4.57
264.414	3.8
264.629	3.44
264.843	4.7
265.058	5.03
265.273	4.59
265.488	5.42
265.702	5.25
265.917	5.1
266.132	5.81
266.346	5.03
266.561	5.29
266.776	5.29
266.99	5.14
267.205	4.53
267.42	4.78
267.634	4.97
267.849	4.04
268.063	4.34
268.278	4.68
268.492	4.53
268.707	4.84
268.922	4.96
269.136	5.29
269.351	5.53
269.565	5.5
269.78	4.83
269.994	4.87
270.209	5.44
270.423	5.4
270.637	5.29
270.852	4.76
271.066	5.11
271.281	4.67
271.495	4.38
271.709	4.44
271.924	4.25
272.138	4.28
272.353	4.22
272.567	3.56
272.781	3.31
272.996	3.28
273.21	4.13
273.424	3.86
273.638	4.31
273.853	4.31
274.067	4.7
274.281	5.19
274.495	5.05
274.71	4.67
274.924	5.14
275.138	5.4
275.352	5.74
275.566	4.99
275.781	5.42
275.995	5.09
276.209	5.81
276.423	5.95
276.637	5.48
276.851	5.77
277.065	5.98
277.279	6.17
277.493	6.3
277.707	6.54
277.921	7.03
278.135	6.53
278.349	6.31
278.563	6.39
278.777	6.04
278.991	6.31
279.205	6.37
279.419	6.45
279.633	6.17
279.847	5.79
280.061	5.36
280.275	4.89
280.489	4.92
280.703	4.99
280.917	4.49
281.131	4.31
281.344	4.56
281.558	4.38
281.772	4.16
281.986	4.03
282.2	4.08
282.414	3.71
282.627	3.9
282.841	4.17
283.055	4.18
283.269	4.27
283.482	4.26
283.696	4.15
283.91	3.97
284.123	3.81
284.337	3.96
284.551	3.65
284.764	3.88
284.978	3.73
285.192	3.8
285.405	3.87
285.619	3.49
285.833	3.6
286.046	3.04
286.26	3.02
286.473	3.35
286.687	3.3
286.9	3.41
287.114	3.35
287.327	3.34
287.541	3.04
287.754	3.05
287.968	3.08
288.181	3.05
288.395	3.44
288.608	3.63
288.822	3.11
289.035	3.2
289.248	3.45
289.462	3.67
289.675	3.46
289.889	3.68
290.102	3.45
290.315	3.68
290.529	3.46
290.742	3.53
290.955	3.59
291.169	4.06
291.382	4.09
291.595	4.15
291.808	4.09
292.022	4.93
292.235	5.32
292.448	5.6
292.661	5.96
292.875	6.05
293.088	5.67
293.301	5.6
293.514	5.67
293.727	5.84
293.94	5.87
294.153	6.12
294.367	5.57
294.58	5.03
294.793	5.05
295.006	4.61
295.219	4.3
295.432	4.56
295.645	4.46
295.858	4.22
296.071	3.82
296.284	3.81
296.497	3.37
296.71	3.26
296.923	3.53
297.136	3.19
297.349	3.44
297.562	3.75
297.775	3.85
297.988	4.05
298.201	4.17
298.414	4.28
298.626	4.13
298.839	4.37
299.052	4.38
299.265	4.19
299.478	4.57
299.691	4.57
299.903	4.33
300.116	4.04
300.329	4.22
300.542	4.43
300.755	4.6
300.967	4.75
301.18	4.67
301.393	4.91
301.605	4.87
301.818	4.5
302.031	4.26
302.243	4.69
302.456	4.93
302.669	4.54
302.881	4.45
303.094	4.35
303.307	4.19
303.519	4.4
303.732	4.08
303.944	4.04
304.157	4.54
304.37	4.77
304.582	4.4
304.795	4.15
305.007	4.67
305.22	4.7
305.432	4.85
305.645	5.16
305.857	5.07
306.069	5.09
306.282	5.02
306.494	4.94
306.707	4.68
306.919	4.73
307.132	4.92
307.344	4.51
307.556	4.33
307.769	4.21
307.981	4.02
308.193	3.78
308.406	4.32
308.618	4.63
308.83	4.35
309.043	4.56
309.255	4.6
309.467	4.83
309.679	4.72
309.892	4.83
310.104	4.72
310.316	4.85
310.528	5.19
310.74	4.99
310.953	4.86
311.165	5.12
311.377	5.29
311.589	5.18
311.801	4.97
312.013	5.07
312.225	5.04
312.437	5.23
312.649	5.44
312.862	5.68
313.074	5.73
313.286	5.92
313.498	5.87
313.71	5.85
313.922	6.27
314.134	6.6
314.346	6.8
314.558	6.94
314.77	7.21
314.982	6.72
315.193	6.43
315.405	7
315.617	6.86
315.829	6.51
316.041	6.24
316.253	6.14
316.465	6.64
316.677	6.67
316.888	6.65
317.1	6.18
317.312	6.52
317.524	6.41
317.736	6.14
317.947	6.11
318.159	6.92
318.371	7.4
318.583	7.43
318.794	7.09
319.006	7.05
319.218	6.94
319.43	7.43
319.641	7.51
319.853	7.23
320.064	7.39
320.276	7.51
320.488	7.39
320.699	7.5
320.911	7.19
321.123	7.38
321.334	7.79
321.546	8.21
321.757	8.57
321.969	8.51
322.18	8.62
322.392	8.47
322.603	8.4
322.815	8.4
323.026	8.25
323.238	8.96
323.449	8.76
323.661	9.07
323.872	9.25
324.083	8.83
324.295	9.17
324.506	9.72
324.718	9.68
324.929	10.03
325.14	10.06
325.352	10.22
325.563	10.41
325.774	10.45
325.986	10.25
326.197	10.26
326.408	10.67
326.62	11.09
326.831	11.18
327.042	11.45
327.253	11.89
327.464	12.13
327.676	12.34
327.887	12.19
328.098	12.53
328.309	13.2
328.52	13.52
328.732	13.98
328.943	13.81
329.154	14.23
329.365	14.99
329.576	15.14
329.787	16.14
329.998	16.6
330.209	17.04
330.42	17.44
330.631	17.63
330.842	18.04
331.053	18.37
331.264	18.53
331.475	18.6
331.686	18.36
331.897	18.49
332.108	18.06
332.319	18.24
332.53	18.53
332.741	18.68
332.952	18.64
333.163	18.6
333.374	18.95
333.585	19.23
333.795	19.82
334.006	20.04
334.217	20.27
334.428	20.95
334.639	21.22
334.849	21.04
335.06	21.18
335.271	21.22
335.482	21.49
335.692	21.48
335.903	22.05
336.114	21.99
336.325	22.21
336.535	22.42
336.746	22.5
336.957	22.71
337.167	23.16
337.378	23.1
337.589	23.33
337.799	23.47
338.01	23.34
338.22	23.26
338.431	23
338.642	23.35
338.852	23.44
339.063	23.32
339.273	23.34
339.484	23.87
339.694	24.3
339.905	24.3
340.115	24.15
340.326	24.22
340.536	24.37
340.746	24.76
340.957	24.12
341.167	23.99
341.378	24.03
341.588	24.22
341.799	23.79
342.009	23.72
342.219	23.6
342.43	23.63
342.64	23.9
342.85	23.62
343.061	23.47
343.271	23.82
343.481	23.79
343.691	23.49
343.902	23.1
344.112	22.89
344.322	23.01
344.532	23.07
344.743	23.18
344.953	23.01
345.163	23.09
345.373	22.92
345.583	22.82
345.793	23.14
346.004	23.33
346.214	23.42
346.424	23.59
346.634	23.38
346.844	23.4
347.054	23.37
347.264	23.38
347.474	23.47
347.684	23.31
347.894	23.17
348.104	22.89
348.314	23.02
348.524	22.98
348.734	23.05
348.944	23.14
349.154	23.07
349.364	22.87
349.574	22.59
349.784	22.39
349.994	22.99
350.204	23.22
350.413	23.24
350.623	23.2
350.833	23.2
351.043	23.21
351.253	23.29
351.463	23.13
351.672	23.2
351.882	23.4
352.092	23.37
352.302	23.15
352.511	22.95
352.721	22.76
352.931	22.33
353.141	22.23
353.35	21.88
353.56	21.89
353.77	22.09
353.979	22.14
354.189	22.12
354.399	22.14
354.608	21.82
354.818	21.99
355.027	22.08
355.237	22.39
355.447	22.57
355.656	22.86
355.866	22.53
356.075	22.43
356.285	22.18
356.494	22.12
356.704	22.04
356.913	22.26
357.123	21.95
357.332	21.73
357.542	21.41
357.751	21.45
357.96	21.25
358.17	21.34
358.379	21.54
358.589	21.58
358.798	21.55
359.007	21.56
359.217	21.56
359.426	21.71
359.635	21.79
359.845	22.22
360.054	22.17
360.263	22.06
360.472	21.87
360.682	21.66
360.891	21.67
361.1	21.81
361.309	21.89
361.519	21.72
361.728	21.55
361.937	21.7
362.146	21.44
362.355	21.32
362.564	21.37
362.774	21.54
362.983	21.44
363.192	21.48
363.401	21.13
363.61	20.89
363.819	20.95
364.028	21.24
364.237	21.03
364.446	20.94
364.655	21.01
364.864	20.99
365.073	20.93
365.282	21.02
365.491	20.77
365.7	21.09
365.909	21.18
366.118	21.27
366.327	21.07
366.536	21.09
366.745	21.27
366.954	21.29
367.162	21.27
367.371	21.27
367.58	21.28
367.789	21.5
367.998	21.52
368.207	21.46
368.415	21.39
368.624	21.56
368.833	21.67
369.042	21.3
369.25	21.05
369.459	21.11
369.668	21.11
369.877	21.04
370.085	21.19
370.294	21.22
370.503	21.09
370.711	20.81
370.92	20.68
371.129	20.65
371.337	20.84
371.546	20.78
371.754	20.69
371.963	20.49
372.171	20.49
372.38	20.45
372.589	19.99
372.797	19.98
373.006	20.01
373.214	19.99
373.423	20.14
373.631	20
373.84	20.1
374.048	19.76
374.256	19.87
374.465	19.88
374.673	19.74
374.882	20.13
375.09	20.21
375.298	20.25
375.507	20.27
375.715	20.14
375.923	20.09
376.132	20.25
376.34	20.55
376.548	20.86
376.757	20.81
376.965	20.89
377.173	20.74
377.381	20.78
377.59	20.73
377.798	20.85
378.006	20.62
378.214	20.65
378.423	20.43
378.631	20.47
378.839	19.99
379.047	19.88
379.255	19.8
379.463	19.88
379.671	19.99
379.879	20.15
380.088	20.07
380.296	20.07
380.504	20.09
380.712	20.18
380.92	20.05
381.128	20.39
381.336	20.32
381.544	20.41
381.752	20.43
381.96	20.25
382.168	20.3
382.376	20.46
382.584	20.44
382.791	20.52
382.999	20.5
383.207	20.56
383.415	20.23
383.623	20.3
383.831	20.23
384.039	19.94
384.247	19.66
384.454	19.49
384.662	19.06
384.87	19.06
385.078	18.94
385.285	18.88
385.493	19.12
385.701	19.37
385.909	19.3
386.116	19.38
386.324	19.53
386.532	19.87
386.739	19.99
386.947	20.2
387.155	20.3
387.362	20.43
387.57	20.19
387.778	19.83
387.985	19.8
388.193	19.86
388.4	19.76
388.608	19.77
388.816	19.76
389.023	19.75
389.231	19.85
389.438	19.59
389.646	19.51
389.853	19.73
390.061	19.66
390.268	19.58
390.475	19.66
390.683	19.6
390.89	19.64
391.098	19.48
391.305	19.59
391.512	19.52
391.72	19.59
391.927	19.63
392.135	19.6
392.342	19.84
392.549	19.89
392.756	20.08
392.964	20.37
393.171	20.31
393.378	20.28
393.586	20.18
393.793	20.23
394	20.44
394.207	20.34
394.414	20.43
394.622	20.34
394.829	20.33
395.036	20.16
395.243	19.91
395.45	19.99
395.657	20.09
395.864	19.97
396.072	19.84
396.279	19.87
396.486	20.19
396.693	20
396.9	19.98
397.107	20.15
397.314	20.01
397.521	20.07
397.728	19.98
397.935	20.17
398.142	20.29
398.349	20.39
398.556	20.3
398.763	20.07
398.97	20.27
399.177	20.41
399.383	20.31
399.59	20.43
399.797	20.21
400.004	20.28
400.211	20.29
400.418	20.1
400.625	19.99
400.831	20.05
401.038	20.21
401.245	20.17
401.452	20.05
401.658	20.01
401.865	20.1
402.072	20.35
402.279	20.49
402.485	20.5
402.692	20.68
402.899	20.83
403.105	20.81
403.312	20.89
403.519	20.89
403.725	21.06
403.932	21.19
404.138	21.27
404.345	21.1
404.552	20.98
404.758	21.13
404.965	21.1
405.171	21.08
405.378	21.08
405.584	20.96
405.791	20.9
405.997	20.93
406.204	20.79
406.41	20.82
406.617	20.85
406.823	20.8
407.029	20.55
407.236	20.47
407.442	20.37
407.649	20.37
407.855	20.37
408.061	20.55
408.268	20.45
408.474	20.41
408.68	20.29
408.887	20.43
409.093	20.57
409.299	20.6
409.505	20.69
409.712	20.71
409.918	20.69
410.124	20.72
410.33	20.79
410.537	20.71
410.743	20.73
410.949	20.58
411.155	20.68
411.361	20.56
411.567	20.45
411.773	20.61
411.98	20.66
412.186	20.77
412.392	20.82
412.598	20.68
412.804	20.75
413.01	20.87
413.216	20.96
413.422	20.97
413.628	21.08
413.834	21.35
414.04	21.16
414.246	21.21
414.452	21.16
414.658	21.06
414.864	21.03
415.07	21.08
415.275	21.15
415.481	21.2
415.687	21.11
415.893	21.19
416.099	21.19
416.305	21.28
416.511	21.22
416.716	21.09
416.922	21.04
417.128	20.99
417.334	20.94
417.539	20.87
417.745	20.9
417.951	20.82
418.157	20.69
418.362	20.66
418.568	20.6
418.774	20.6
418.979	20.7
419.185	20.84
419.391	20.82
419.596	20.85
419.802	20.8
420.008	20.81
420.213	20.97
420.419	21.07
420.624	21.04
420.83	21
421.035	20.96
421.241	20.94
421.446	20.9
421.652	21.05
421.857	21.06
422.063	20.99
422.268	21.06
422.474	20.96
422.679	20.89
422.885	20.87
423.09	20.97
423.295	21.05
423.501	21.1
423.706	21.05
423.911	20.95
424.117	20.93
424.322	21.01
424.527	20.9
424.733	20.97
424.938	20.97
425.143	21.03
425.349	20.99
425.554	21.02
425.759	21.05
425.964	21.1
426.169	21.12
426.375	21.07
426.58	21.01
426.785	20.94
426.99	20.93
427.195	21
427.4	20.86
427.605	20.82
427.811	20.84
428.016	20.75
428.221	20.76
428.426	20.83
428.631	21.07
428.836	21.19
429.041	21.37
429.246	21.39
429.451	21.47
429.656	21.63
429.861	21.81
430.066	21.73
430.271	21.79
430.476	21.8
430.681	21.85
430.886	21.66
431.09	21.76
431.295	21.77
431.5	21.64
431.705	21.56
431.91	21.53
432.115	21.47
432.32	21.45
432.524	21.41
432.729	21.46
432.934	21.39
433.139	21.52
433.343	21.55
433.548	21.62
433.753	21.84
433.958	21.93
434.162	22.15
434.367	22.26
434.572	22.63
434.776	22.75
434.981	22.88
435.186	23.08
435.39	23.16
435.595	23.16
435.799	23.2
436.004	23.19
436.209	23.17
436.413	23.05
436.618	22.95
436.822	22.56
437.027	22.52
437.231	22.47
437.436	22.34
437.64	22.28
437.845	22.21
438.049	22.1
438.253	21.97
438.458	21.92
438.662	21.88
438.867	21.96
439.071	22.11
439.275	22.09
439.48	22.05
439.684	22.1
439.888	21.94
440.093	21.93
440.297	21.93
440.501	21.91
440.706	21.91
440.91	21.88
441.114	21.85
441.318	21.76
441.523	21.79
441.727	21.75
441.931	21.63
442.135	21.81
442.339	21.77
442.543	21.8
442.748	21.75
442.952	21.74
443.156	21.71
443.36	21.6
443.564	21.61
443.768	21.64
443.972	21.8
444.176	21.85
444.38	21.78
444.584	21.81
444.788	21.8
444.992	21.87
445.196	21.99
445.4	22.02
445.604	22.07
445.808	22.13
446.012	22.1
446.216	21.95
446.42	22.02
446.624	22.08
446.828	22.07
447.032	22.12
447.235	22.16
447.439	22.04
447.643	21.94
447.847	22.03
448.051	22.01
448.254	22.03
448.458	22.03
448.662	22.05
448.866	22
449.069	21.99
449.273	22.04
449.477	22.01
449.681	22.03
449.884	22.2
450.088	22.16
450.292	22.08
450.495	22
450.699	22.05
450.902	21.96
451.106	21.94
451.31	22.03
451.513	21.99
451.717	21.94
451.92	22.01
452.124	22.02
452.327	22.09
452.531	22.29
452.734	22.31
452.938	22.19
453.141	22.12
453.345	22.17
453.548	22.26
453.752	22.12
453.955	22.2
454.158	22.08
454.362	22.07
454.565	22.01
454.769	21.83
454.972	21.9
455.175	22.11
455.379	22.28
455.582	22.32
455.785	22.27
455.988	22.29
456.192	22.11
456.395	22.14
456.598	22.08
456.801	22.06
457.005	22.1
457.208	22
457.411	21.89
457.614	21.76
457.817	21.72
458.021	21.72
458.224	21.8
458.427	22
458.63	22.04
458.833	22.11
459.036	22.12
459.239	22.05
459.442	22.1
459.645	22.09
459.848	22.14
460.051	22.1
460.254	22.09
460.457	22.04
460.66	21.97
460.863	22.02
461.066	21.93
461.269	21.8
461.472	21.87
461.675	21.83
461.878	21.94
462.081	21.97
462.284	21.98
462.486	21.91
462.689	22.13
462.892	22.19
463.095	22.14
463.298	22.32
463.5	22.44
463.703	22.44
463.906	22.48
464.109	22.38
464.311	22.39
464.514	22.42
464.717	22.44
464.92	22.3
465.122	22.28
465.325	22.36
465.528	22.33
465.73	22.35
465.933	22.38
466.135	22.44
466.338	22.46
466.541	22.51
466.743	22.51
466.946	22.61
467.148	22.55
467.351	22.64
467.553	22.59
467.756	22.51
467.958	22.49
468.161	22.54
468.363	22.48
468.566	22.39
468.768	22.31
468.971	22.35
469.173	22.23
469.375	22.34
469.578	22.18
469.78	22.14
469.983	22.22
470.185	22.28
470.387	22.27
470.59	22.35
470.792	22.47
470.994	22.51
471.196	22.47
471.399	22.59
471.601	22.57
471.803	22.63
472.005	22.57
472.208	22.52
472.41	22.6
472.612	22.5
472.814	22.39
473.016	22.44
473.218	22.38
473.421	22.33
473.623	22.38
473.825	22.45
474.027	22.46
474.229	22.48
474.431	22.51
474.633	22.37
474.835	22.32
475.037	22.39
475.239	22.28
475.441	22.35
475.643	22.36
475.845	22.21
476.047	22.02
476.249	22.16
476.451	22.14
476.653	22.08
476.855	22.05
477.057	22.25
477.258	22.16
477.46	22.27
477.662	22.31
477.864	22.35
478.066	22.42
478.268	22.37
478.469	22.29
478.671	22.35
478.873	22.41
479.075	22.49
479.276	22.4
479.478	22.46
479.68	22.43
479.882	22.28
480.083	22.25
480.285	22.23
480.487	22.35
480.688	22.3
480.89	22.29
481.091	22.32
481.293	22.28
481.495	22.23
481.696	22.18
481.898	22.2
482.099	22.23
482.301	22.21
482.502	22.3
482.704	22.24
482.905	22.18
483.107	22.16
483.308	22.13
483.51	22.14
483.711	22.13
483.913	22.13
484.114	22.13
484.315	22.16
484.517	22.16
484.718	22.12
484.92	22.12
485.121	22.15
485.322	22.14
485.524	22.13
485.725	22.14
485.926	22.19
486.127	22.18
486.329	22.14
486.53	22.12
486.731	22.17
486.932	22.15
487.134	22.15
487.335	22.14
487.536	22.16
487.737	22.16
487.938	22.12
488.139	22.12
488.341	22.11
488.542	22.11
488.743	22.07
488.944	22.04
489.145	22.05
489.346	22.1
489.547	22.09
489.748	22.09
489.949	22.12
490.15	22.2
490.351	22.24
490.552	22.32
490.753	22.37
490.954	22.44
491.155	22.47
491.356	22.51
491.557	22.52
491.758	22.6
491.959	22.6
492.159	22.66
492.36	22.68
492.561	22.68
492.762	22.69
492.963	22.7
493.164	22.69
493.364	22.74
493.565	22.75
493.766	22.77
493.967	22.71
494.167	22.82
494.368	22.85
494.569	22.88
494.769	22.91
494.97	22.89
495.171	22.88
495.371	22.95
495.572	22.95
495.773	22.92
495.973	22.93
496.174	22.95
496.375	22.93
496.575	22.9
496.776	22.92
496.976	22.84
497.177	22.92
497.377	22.97
497.578	22.93
497.778	22.91
497.979	22.92
498.179	22.92
498.38	23
498.58	22.99
498.78	23.05
498.981	22.98
499.181	22.98
499.382	23.06
499.582	23.02
499.782	23.09
499.983	23.11
500.183	23.13
500.383	23.16
500.584	23.18
500.784	23.21
500.984	23.22
501.184	23.2
501.385	23.27
501.585	23.11
501.785	23.2
501.985	23.24
502.185	23.26
502.386	23.34
502.586	23.42
502.786	23.47
502.986	23.48
503.186	23.54
503.386	23.63
503.586	23.65
503.786	23.79
503.987	23.72
504.187	23.71
504.387	23.68
504.587	23.68
504.787	23.68
504.987	23.68
505.187	23.68
505.387	23.65
505.587	23.69
505.786	23.74
505.986	23.76
506.186	23.85
506.386	23.89
506.586	24
506.786	24.07
506.986	24.14
507.186	24.07
507.386	24.11
507.585	24.16
507.785	24.17
507.985	24.17
508.185	24.14
508.384	24.14
508.584	24.13
508.784	24.06
508.984	24.04
509.183	24.01
509.383	24.07
509.583	24.09
509.782	24.02
509.982	24.04
510.182	24.04
510.381	24.14
510.581	24.23
510.781	24.32
510.98	24.35
511.18	24.39
511.379	24.4
511.579	24.48
511.778	24.51
511.978	24.59
512.177	24.65
512.377	24.75
512.576	24.78
512.776	24.71
512.975	24.66
513.175	24.72
513.374	24.69
513.573	24.82
513.773	24.79
513.972	24.79
514.172	24.84
514.371	24.89
514.57	24.89
514.77	24.96
514.969	25.14
515.168	25.19
515.367	25.25
515.567	25.33
515.766	25.36
515.965	25.42
516.164	25.5
516.364	25.5
516.563	25.52
516.762	25.58
516.961	25.5
517.16	25.43
517.359	25.5
517.559	25.52
517.758	25.5
517.957	25.51
518.156	25.55
518.355	25.58
518.554	25.54
518.753	25.56
518.952	25.57
519.151	25.61
519.35	25.67
519.549	25.65
519.748	25.64
519.947	25.72
520.146	25.69
520.345	25.69
520.544	25.71
520.743	25.87
520.942	25.88
521.141	25.87
521.339	25.92
521.538	26
521.737	26.09
521.936	26.16
522.135	26.21
522.333	26.29
522.532	26.28
522.731	26.28
522.93	26.29
523.129	26.44
523.327	26.52
523.526	26.53
523.725	26.53
523.923	26.55
524.122	26.6
524.321	26.59
524.519	26.56
524.718	26.59
524.917	26.63
525.115	26.63
525.314	26.56
525.512	26.57
525.711	26.58
525.909	26.57
526.108	26.61
526.306	26.63
526.505	26.65
526.703	26.69
526.902	26.69
527.1	26.66
527.299	26.7
527.497	26.72
527.696	26.72
527.894	26.75
528.092	26.73
528.291	26.76
528.489	26.74
528.688	26.71
528.886	26.76
529.084	26.8
529.283	26.85
529.481	26.83
529.679	26.88
529.877	26.92
530.076	26.96
530.274	27.05
530.472	27.09
530.67	27.21
530.869	27.31
531.067	27.27
531.265	27.38
531.463	27.49
531.661	27.6
531.859	27.57
532.057	27.62
532.255	27.65
532.454	27.65
532.652	27.67
532.85	27.64
533.048	27.65
533.246	27.82
533.444	27.83
533.642	27.8
533.84	27.84
534.038	27.91
534.236	27.9
534.434	27.96
534.632	28.02
534.83	28.08
535.027	28.13
535.225	28.21
535.423	28.18
535.621	28.18
535.819	28.29
536.017	28.32
536.215	28.36
536.412	28.5
536.61	28.57
536.808	28.69
537.006	28.74
537.203	28.86
537.401	28.99
537.599	29.07
537.797	29.28
537.994	29.36
538.192	29.43
538.39	29.59
538.587	29.69
538.785	29.86
538.983	29.98
539.18	30.15
539.378	30.29
539.575	30.37
539.773	30.52
539.97	30.54
540.168	30.57
540.366	30.69
540.563	30.79
540.761	30.86
540.958	30.84
541.155	30.92
541.353	30.98
541.55	30.99
541.748	31.04
541.945	31.11
542.143	31.18
542.34	31.35
542.537	31.46
542.735	31.56
542.932	31.66
543.129	31.87
543.327	32.04
543.524	32.23
543.721	32.59
543.919	32.97
544.116	33.32
544.313	33.75
544.51	34.15
544.708	34.56
544.905	35.01
545.102	35.46
545.299	35.87
545.496	36.14
545.693	36.52
545.891	36.6
546.088	36.63
546.285	36.59
546.482	36.47
546.679	36.29
546.876	36.12
547.073	35.91
547.27	35.69
547.467	35.47
547.664	35.29
547.861	34.97
548.058	34.78
548.255	34.53
548.452	34.31
548.649	34.2
548.846	34.17
549.043	33.97
549.24	33.87
549.437	33.73
549.633	33.56
549.83	33.52
550.027	33.32
550.224	33.21
550.421	33.21
550.618	33.18
550.814	33.04
551.011	32.88
551.208	32.86
551.405	32.73
551.601	32.57
551.798	32.43
551.995	32.27
552.191	32.3
552.388	32.2
552.585	32.09
552.781	31.95
552.978	31.88
553.175	31.88
553.371	31.88
553.568	31.83
553.764	31.89
553.961	31.92
554.157	31.85
554.354	31.81
554.55	31.9
554.747	32.05
554.943	32.13
555.14	32.26
555.336	32.27
555.533	32.21
555.729	32.23
555.926	32.24
556.122	32.21
556.318	32.21
556.515	32.13
556.711	32.25
556.907	32.07
557.104	32.11
557.3	32.01
557.496	31.82
557.693	31.76
557.889	31.88
558.085	31.83
558.281	31.92
558.478	31.99
558.674	32.01
558.87	31.77
559.066	31.8
559.262	31.8
559.459	31.84
559.655	31.99
559.851	31.98
560.047	32.04
560.243	32.19
560.439	32.1
560.635	32.14
560.831	32.31
561.027	32.4
561.223	32.34
561.419	32.34
561.615	32.35
561.811	32.41
562.007	32.6
562.203	32.42
562.399	32.35
562.595	32.43
562.791	32.34
562.987	32.26
563.183	32.22
563.379	32.37
563.575	32.28
563.771	32.38
563.966	32.34
564.162	32.31
564.358	32.48
564.554	32.55
564.75	32.46
564.945	32.47
565.141	32.43
565.337	32.31
565.533	32.23
565.728	32.28
565.924	32.15
566.12	32.07
566.315	32.13
566.511	32.05
566.707	31.95
566.902	31.92
567.098	31.95
567.293	31.94
567.489	32.04
567.684	32.13
567.88	32.2
568.076	32.26
568.271	32.38
568.467	32.34
568.662	32.28
568.858	32.4
569.053	32.58
569.248	32.59
569.444	32.62
569.639	32.73
569.835	32.65
570.03	32.72
570.225	32.77
570.421	32.68
570.616	32.7
570.812	32.84
571.007	32.77
571.202	32.74
571.397	32.71
571.593	32.68
571.788	32.74
571.983	32.76
572.178	32.8
572.374	32.78
572.569	32.78
572.764	32.71
572.959	32.62
573.154	32.64
573.35	32.72
573.545	32.94
573.74	32.97
573.935	32.94
574.13	33.08
574.325	33.07
574.52	33.2
574.715	33.38
574.91	33.59
575.105	33.8
575.3	33.99
575.495	34.1
575.69	34.06
575.885	34.25
576.08	34.45
576.275	34.64
576.47	34.8
576.665	34.99
576.86	35.2
577.055	35.36
577.25	35.59
577.444	35.82
577.639	35.96
577.834	36.17
578.029	36.44
578.224	36.68
578.418	36.82
578.613	36.95
578.808	37.05
579.003	37.27
579.197	37.38
579.392	37.04
579.587	37.18
579.781	37.17
579.976	37.38
580.171	37.41
580.365	37.21
580.56	37.16
580.755	37.15
580.949	37.07
581.144	36.8
581.338	36.78
581.533	37.19
581.727	37.03
581.922	37.14
582.116	37.1
582.311	36.93
582.505	36.99
582.7	37.2
582.894	37.24
583.089	37.38
583.283	37.67
583.478	37.55
583.672	37.49
583.866	37.58
584.061	37.63
584.255	37.57
584.449	37.67
584.644	37.81
584.838	37.7
585.032	37.78
585.226	37.94
585.421	37.96
585.615	38.14
585.809	38.3
586.003	38.44
586.198	38.43
586.392	38.47
586.586	38.7
586.78	38.83
586.974	38.89
587.168	39.01
587.363	38.77
587.557	38.64
587.751	38.63
587.945	38.44
588.139	38.33
588.333	38.25
588.527	38.2
588.721	37.93
588.915	37.68
589.109	37.56
589.303	37.32
589.497	37.34
589.691	37.21
589.885	37.15
590.079	37.16
590.273	37.09
590.466	37.22
590.66	37.35
590.854	37.5
591.048	37.71
591.242	37.79
591.436	38.07
591.629	38.19
591.823	38.56
592.017	38.72
592.211	38.9
592.404	39.09
592.598	39.05
592.792	39.04
592.986	39.14
593.179	38.97
593.373	38.99
593.567	38.77
593.76	38.83
593.954	38.58
594.147	38.44
594.341	38.26
594.535	37.97
594.728	37.93
594.922	37.73
595.115	37.44
595.309	37.39
595.502	37.22
595.696	37.18
595.889	37.05
596.083	36.88
596.276	36.75
596.47	36.7
596.663	36.77
596.856	36.63
597.05	36.67
597.243	36.82
597.437	36.93
597.63	37.05
597.823	37.18
598.017	37.23
598.21	37.43
598.403	37.67
598.596	37.8
598.79	38.01
598.983	38.26
599.176	38.39
599.369	38.41
599.563	38.47
599.756	38.46
599.949	38.69
600.142	38.76
600.335	38.76
600.528	38.76
600.722	38.78
600.915	38.53
601.108	38.38
601.301	38.29
601.494	38.19
601.687	38.08
601.88	37.95
602.073	37.58
602.266	37.51
602.459	37.38
602.652	37.23
602.845	37.21
603.038	37.02
603.231	36.91
603.424	36.8
603.617	36.95
603.809	37.09
604.002	37.04
604.195	37.12
604.388	37.03
604.581	37.05
604.774	37.11
604.966	37.06
605.159	37.33
605.352	37.53
605.545	37.59
605.737	37.51
605.93	37.44
606.123	37.7
606.316	37.82
606.508	38.01
606.701	38.27
606.894	38.45
607.086	38.88
607.279	39.31
607.471	39.58
607.664	40.1
607.857	40.58
608.049	41.33
608.242	42.03
608.434	42.92
608.627	44.32
608.819	45.79
609.012	47.7
609.204	49.58
609.397	51.52
609.589	53.91
609.782	56.45
609.974	59.08
610.166	61.59
610.359	64.21
610.551	66.84
610.743	68.97
610.936	70.8
611.128	72.23
611.32	73.39
611.513	74.13
611.705	74.48
611.897	74.25
612.09	73.95
612.282	73.14
612.474	72.29
612.666	71.06
612.858	69.8
613.051	68.68
613.243	67.36
613.435	66.02
613.627	65.05
613.819	63.83
614.011	63.12
614.203	61.86
614.395	60.8
614.588	59.7
614.78	58.49
614.972	57.37
615.164	55.91
615.356	54.91
615.548	53.86
615.74	52.8
615.932	51.52
616.124	50.28
616.315	49.33
616.507	48.44
616.699	47.46
616.891	46.81
617.083	46.15
617.275	45.67
617.467	44.89
617.659	44.42
617.85	44.09
618.042	44.11
618.234	43.71
618.426	43.48
618.618	42.96
618.809	42.78
619.001	42.52
619.193	42.45
619.384	42.39
619.576	42.43
619.768	42.55
619.959	42.26
620.151	42.17
620.343	42.27
620.534	42.42
620.726	42.76
620.917	42.91
621.109	43.06
621.301	43.07
621.492	43.18
621.684	43.34
621.875	43.16
622.067	43.23
622.258	43.17
622.45	43.32
622.641	43.2
622.832	43.39
623.024	43.13
623.215	43.41
623.407	43.27
623.598	43.51
623.789	43.41
623.981	43.49
624.172	43.48
624.363	43.44
624.555	43.34
624.746	43.26
624.937	43
625.129	43.12
625.32	42.82
625.511	43.03
625.702	42.79
625.893	42.73
626.085	42.57
626.276	42.56
626.467	42.63
626.658	42.61
626.849	42.72
627.04	42.81
627.231	43.02
627.422	43.04
627.614	42.95
627.805	43.01
627.996	43.16
628.187	43.41
628.378	43.59
628.569	43.77
628.76	43.93
628.951	44.16
629.142	44.48
629.332	44.76
629.523	45.23
629.714	45.73
629.905	46.27
630.096	46.7
630.287	46.93
630.478	47.11
630.669	47.28
630.859	47.33
631.05	47.23
631.241	47.27
631.432	47
631.623	46.52
631.813	45.91
632.004	45.22
632.195	44.62
632.385	43.93
632.576	43.5
632.767	43.02
632.957	42.7
633.148	42.22
633.339	41.63
633.529	41.35
633.72	41.27
633.91	41.01
634.101	40.87
634.292	40.88
634.482	41
634.673	40.89
634.863	40.8
635.054	40.6
635.244	40.63
635.435	40.63
635.625	40.41
635.815	40.35
636.006	40.31
636.196	40.36
636.387	40.15
636.577	40.1
636.767	40.28
636.958	40.14
637.148	40.26
637.338	40.12
637.529	40.06
637.719	40.23
637.909	40.24
638.099	40.45
638.29	40.47
638.48	40.49
638.67	40.32
638.86	40.2
639.05	40.23
639.241	40.15
639.431	40.58
639.621	40.67
639.811	40.54
640.001	40.6
640.191	40.68
640.381	40.65
640.571	40.71
640.761	40.73
640.951	40.41
641.141	40.71
641.331	40.77
641.521	40.51
641.711	40.48
641.901	40.62
642.091	40.46
642.281	40.57
642.471	40.48
642.661	40.48
642.851	40.7
643.041	40.97
643.231	40.82
643.42	40.85
643.61	41.1
643.8	41.23
643.99	41.38
644.18	41.49
644.369	41.19
644.559	41.36
644.749	41.26
644.939	41.19
645.128	41.24
645.318	41.23
645.508	41.23
645.697	40.99
645.887	40.86
646.076	40.65
646.266	40.3
646.456	40.51
646.645	40.49
646.835	40.9
647.024	40.95
647.214	40.88
647.403	41.12
647.593	41.21
647.782	41.09
647.972	41.41
648.161	41.6
648.351	42.06
648.54	42.24
648.73	42.32
648.919	42.25
649.108	42.49
649.298	42.91
649.487	42.98
649.677	42.86
649.866	43.33
650.055	43.51
650.244	43.37
650.434	43.51
650.623	43.35
650.812	43.33
651.002	43.28
651.191	43.27
651.38	42.89
651.569	42.95
651.758	43.15
651.947	42.8
652.137	42.42
652.326	42.61
652.515	42.55
652.704	42.62
652.893	42.43
653.082	42.43
653.271	42.18
653.46	42.3
653.649	42.1
653.838	42.06
654.027	42.11
654.216	42.09
654.405	42.06
654.594	41.81
654.783	41.47
654.972	41.61
655.161	41.49
655.35	41.58
655.539	41.51
655.728	41.61
655.916	41.6
656.105	41.71
656.294	42.06
656.483	41.87
656.672	42.1
656.86	42.28
657.049	42.21
657.238	42.35
657.427	42.22
657.615	42.1
657.804	41.89
657.993	41.84
658.181	41.81
658.37	41.45
658.559	41.42
658.747	41.21
658.936	41.24
659.125	40.87
659.313	40.63
659.502	40.79
659.69	40.88
659.879	40.96
660.067	40.87
660.256	41.08
660.444	41.21
660.633	41.46
660.821	41.63
661.01	41.7
661.198	42.44
661.387	42.77
661.575	42.77
661.763	42.98
661.952	43.19
662.14	43.39
662.328	43.51
662.517	43.62
662.705	43.8
662.893	43.91
663.082	43.88
663.27	43.6
663.458	43.55
663.646	43.82
663.834	43.73
664.023	43.56
664.211	43.58
664.399	43.63
664.587	43.8
664.775	43.91
664.963	43.84
665.152	44.13
665.34	44.28
665.528	44.38
665.716	44.38
665.904	44.58
666.092	44.83
666.28	44.83
666.468	44.57
666.656	44.48
666.844	44.27
667.032	44.56
667.22	44.36
667.408	44.38
667.596	44.52
667.784	44.22
667.971	44.1
668.159	44.03
668.347	43.95
668.535	43.83
668.723	43.94
668.911	43.76
669.098	43.8
669.286	43.98
669.474	43.64
669.662	43.69
669.849	43.94
670.037	43.98
670.225	44
670.413	44.11
670.6	44.13
670.788	44.08
670.976	44.16
671.163	44.24
671.351	44.13
671.538	44.55
671.726	44.34
671.913	44.14
672.101	44.01
672.289	44.08
672.476	44.11
672.664	44.55
672.851	44.35
673.039	44.17
673.226	43.78
673.413	43.54
673.601	43.33
673.788	43.12
673.976	43.29
674.163	43.6
674.35	43.37
674.538	43.42
674.725	43.04
674.912	43.36
675.1	43.42
675.287	43.4
675.474	43.68
675.662	44.01
675.849	44.15
676.036	44.27
676.223	44.09
676.411	44.54
676.598	44.57
676.785	44.48
676.972	44.43
677.159	44.61
677.346	44.63
677.533	44.72
677.721	44.41
677.908	44.53
678.095	44.55
678.282	44.7
678.469	44.4
678.656	44.45
678.843	44.57
679.03	44.31
679.217	44.27
679.404	44.42
679.591	44.32
679.778	44.58
679.964	44.57
680.151	44.39
680.338	44.16
680.525	44.28
680.712	44.29
680.899	44.23
681.086	44.3
681.272	44.35
681.459	44.33
681.646	44.19
681.833	44.19
682.02	44.19
682.206	44.17
682.393	44.47
682.58	44.55
682.766	44.34
682.953	44.55
683.14	45.02
683.326	45.03
683.513	45.04
683.7	45.43
683.886	45.3
684.073	45.39
684.259	45.77
684.446	45.59
684.632	45.6
684.819	45.86
685.005	45.94
685.192	46.04
685.378	46.39
685.565	46.35
685.751	46.27
685.938	46.53
686.124	46.68
686.31	46.76
686.497	46.95
686.683	47.16
686.87	47.11
687.056	47.09
687.242	46.83
687.429	46.5
687.615	46.8
687.801	46.87
687.987	46.85
688.174	46.84
688.36	46.64
688.546	46.73
688.732	46.48
688.918	46.43
689.105	46.53
689.291	46.63
689.477	46.66
689.663	46.46
689.849	46.65
690.035	46.68
690.221	46.78
690.407	46.8
690.593	46.47
690.779	46.62
690.965	46.75
691.151	46.85
691.337	46.95
691.523	47.21
691.709	47.27
691.895	47.21
692.081	47.22
692.267	47.25
692.453	47.32
692.639	47.85
692.825	47.96
693.011	48.19
693.196	48.07
693.382	48.08
693.568	48.01
693.754	48.3
693.94	47.9
694.125	48.16
694.311	47.96
694.497	48.11
694.682	47.76
694.868	47.56
695.054	47.32
695.239	47.6
695.425	47.36
695.611	47.39
695.796	47.02
695.982	47.24
696.168	46.94
696.353	46.84
696.539	46.47
696.724	46.34
696.91	46.19
697.095	45.94
697.281	45.35
697.466	45.32
697.652	45.26
697.837	45.25
698.023	44.91
698.208	44.55
698.393	44.57
698.579	44.26
698.764	44.27
698.949	44.18
699.135	44.29
699.32	44.24
699.505	43.99
699.691	43.95
699.876	43.85
700.061	43.86
700.246	44.35
700.432	44.42
700.617	44.89
700.802	45
700.987	45.6
701.172	45.82
701.358	46.54
701.543	47.12
701.728	47
701.913	47.29
702.098	47.71
702.283	47.84
702.468	48.23
702.653	48.55
702.838	48.95
703.023	49.29
703.208	49.69
703.393	49.82
703.578	50.24
703.763	50.47
703.948	50.86
704.133	51.21
704.318	51.64
704.503	51.95
704.688	52.26
704.873	52.81
705.057	52.9
705.242	53.12
705.427	53.34
705.612	53.31
705.797	54.03
705.981	54.65
706.166	55.48
706.351	55.65
706.536	56.17
706.72	56.55
706.905	56.82
707.09	56.87
707.274	57.02
707.459	57.45
707.644	57.78
707.828	58.06
708.013	58.31
708.197	58.07
708.382	57.83
708.567	57.1
708.751	56.74
708.936	56.27
709.12	56.26
709.305	55.94
709.489	55.93
709.673	55.41
709.858	54.94
710.042	54.35
710.227	54.65
710.411	54.86
710.596	54.82
710.78	55.26
710.964	55.44
711.149	55.52
711.333	55.74
711.517	55.57
711.702	55.6
711.886	55.93
712.07	56.05
712.254	55.44
712.438	55.23
712.623	55.09
712.807	54.57
712.991	54.08
713.175	53.66
713.359	52.99
713.544	52.35
713.728	52.15
713.912	51.6
714.096	50.95
714.28	50.53
714.464	49.59
714.648	49.33
714.832	49.19
715.016	49.07
715.2	48.58
715.384	48.81
715.568	48.53
715.752	48.29
715.936	48.26
716.12	48.19
716.304	48.14
716.488	48.46
716.671	48.48
716.855	48.21
717.039	47.86
717.223	47.75
717.407	47.56
717.59	47.76
717.774	47.96
717.958	47.54
718.142	47.44
718.325	47.38
718.509	47.56
718.693	47.54
718.877	47.28
719.06	47.59
719.244	47.48
719.428	47.47
719.611	47.78
719.795	47.59
719.978	47.83
720.162	48.46
720.345	48.86
720.529	48.28
720.713	48.71
720.896	49.1
721.08	49.32
721.263	49.54
721.446	49.85
721.63	49.28
721.813	49.36
721.997	49.67
722.18	49.33
722.364	49.4
722.547	50.15
722.73	49.79
722.914	49.93
723.097	50.21
723.28	50.29
723.464	50.38
723.647	51.06
723.83	51.16
724.013	51.36
724.197	51.41
724.38	50.77
724.563	50.79
724.746	51.07
724.929	51.02
725.112	50.96
725.296	51.56
725.479	51.4
725.662	51.02
725.845	50.79
726.028	50.5
726.211	50.58
726.394	50.93
726.577	50.67
726.76	50.65
726.943	50.7
727.126	50.33
727.309	49.69
727.492	49.32
727.675	49.37
727.858	49.44
728.041	49.19
728.224	49.32
728.407	49.38
728.589	49.42
728.772	49.05
728.955	49.09
729.138	48.7
729.321	48.59
729.503	48.81
729.686	49.02
729.869	48.69
730.052	48.84
730.234	48.56
730.417	48.52
730.6	48.08
730.782	48.12
730.965	48.17
731.148	48.53
731.33	49.01
731.513	48.92
731.695	48.78
731.878	49.64
732.061	50.06
732.243	50.34
732.426	50.26
732.608	50.76
732.791	51.13
732.973	51.05
733.156	50.97
733.338	50.75
733.52	50.43
733.703	50.47
733.885	50.45
734.068	50.39
734.25	50.6
734.432	50.74
734.615	51.16
734.797	51.24
734.979	51.43
735.162	51.75
735.344	52.01
735.526	52.79
735.708	52.94
735.891	53.45
736.073	53.02
736.255	52.43
736.437	52.5
736.619	52.43
736.802	52.81
736.984	52.48
737.166	52.58
737.348	52.42
737.53	52.5
737.712	52.29
737.894	50.98
738.076	50.77
738.258	51.58
738.44	51.51
738.622	51.2
738.804	51.33
738.986	51.89
739.168	51.92
739.35	51.85
739.532	51.67
739.714	52.13
739.896	52.77
740.078	53.5
740.259	52.93
740.441	52.83
740.623	53.12
740.805	52.51
740.987	52.4
741.168	52.64
741.35	53.43
741.532	53.96
741.714	54.26
741.895	54.6
742.077	54.44
742.259	55.01
742.44	55.66
742.622	55.52
742.804	55.51
742.985	55.49
743.167	55.34
743.348	54.13
743.53	53.88
743.711	53.51
743.893	53.84
744.075	53.99
744.256	53.88
744.438	53.57
744.619	53.45
744.8	53.26
744.982	53.3
745.163	53.55
745.345	54.84
745.526	55.66
745.707	55.56
745.889	54.81
746.07	54.66
746.252	54.98
746.433	55.3
746.614	55.33
746.795	55.88
746.977	55.59
747.158	55.1
747.339	54.42
747.52	53.65
747.702	54.05
747.883	54.06
748.064	53.99
748.245	53.14
748.426	52.65
748.607	52.27
748.788	52.41
748.97	52.88
749.151	52.99
749.332	53.39
749.513	53.5
749.694	53.09
749.875	53.56
750.056	53.69
750.237	53.76
750.418	54.81
750.599	55.77
750.78	55.85
750.96	55.33
751.141	55.33
751.322	55.46
751.503	55.59
751.684	55.74
751.865	55.57
752.046	55.75
752.226	55.94
752.407	55.56
752.588	55.56
752.769	55.36
752.949	55.48
753.13	56.15
753.311	55.76
753.492	54.95
753.672	55.24
753.853	55.05
754.034	55.25
754.214	55.33
754.395	55.28
754.575	54.56
754.756	54.91
754.937	54.73
755.117	53.89
755.298	54.02
755.478	54.32
755.659	54.04
755.839	54.77
756.02	55.09
756.2	55.07
756.381	55.04
756.561	55.43
756.741	54.57
756.922	55.2
757.102	55.76
757.283	55.38
757.463	55.59
757.643	55.41
757.823	54.92
758.004	53.81
758.184	53.77
758.364	53.09
758.545	52.8
758.725	52.97
758.905	51.85
759.085	50.97
759.265	51.06
759.446	50.67
759.626	50.48
759.806	49.94
759.986	50.07
760.166	49.13
760.346	49.38
760.526	49.06
760.706	48.67
760.886	48.65
761.066	48.72
761.246	49.18
761.426	49.78
761.606	49.05
761.786	49.1
761.966	49.15
762.146	49.6
762.326	49.58
762.506	50.24
762.686	50.46
762.866	50.57
763.046	50.87
763.225	49.94
763.405	49.17
763.585	49.59
763.765	48.96
763.945	48.79
764.124	48.69
764.304	48.4
764.484	47.85
764.664	47.67
764.843	47.67
765.023	47.67
765.203	48.14
765.382	48.52
765.562	48.62
765.741	49.26
765.921	50.04
766.101	50.69
766.28	50.83
766.46	51.46
766.639	52.02
766.819	52.27
766.998	52.16
767.178	53.01
767.357	53.15
767.537	53.49
767.716	54.05
767.896	53.69
768.075	53.47
768.254	53.83
768.434	54.51
768.613	54.53
768.792	55.67
768.972	56.19
769.151	55.71
769.33	55.77
769.51	55.89
769.689	55.04
769.868	55.34
770.047	55.85
770.226	56.55
770.406	56.23
770.585	56.33
770.764	55.66
770.943	55.65
771.122	55.97
771.301	55.99
771.48	56.37
771.66	57.83
771.839	58.07
772.018	57.9
772.197	57.62
772.376	57.34
772.555	57.6
772.734	57.87
772.913	57.74
773.092	57.21
773.271	58.25
773.449	57.6
773.628	57.11
773.807	57.38
773.986	56.7
774.165	57.21
774.344	57.67
774.523	57.91
774.701	58.28
774.88	59.73
775.059	60.47
775.238	59.46
775.417	59.46
775.595	60.7
775.774	60.62
775.953	61.74
776.131	61.76
776.31	61.89
776.489	61.34
776.667	60.83
776.846	60.46
777.025	60.03
777.203	59.58
777.382	60.48
777.56	59.27
777.739	59.87
777.917	60.42
778.096	60.51
778.274	59.72
778.453	60.82
778.631	60.62
778.81	58.87
778.988	59.16
779.166	60.69
779.345	60.01
779.523	59.88
779.702	58.64
779.88	58.31
780.058	57.1
780.237	57.34
780.415	57.03
780.593	57.92
780.771	59.23
780.95	60.01
781.128	59.59
781.306	59.48
781.484	60.41
781.662	61.26
781.841	61.94
782.019	62.1
782.197	61.83
782.375	61.06
782.553	60.13
782.731	59.46
782.909	58.4
783.087	59
783.265	58.97
783.443	58.48
783.621	56.78
783.799	55.63
783.977	56.72
784.155	56.83
784.333	57.11
784.511	56.91
784.689	56.38
784.867	56.9
785.045	56.31
785.223	56.12
785.4	56.62
785.578	57.65
785.756	58.9
785.934	59.12
786.112	59.77
786.289	59.13
786.467	60.15
786.645	60.99
786.823	60.34
787	60.87
787.178	61.03
787.356	59.9
787.533	59.84
787.711	59.17
787.889	57.57
788.066	57.02
788.244	56.95
788.421	55.68
788.599	55.2
788.776	55.41
788.954	54.43
789.131	55.12
789.309	55.32
789.486	54.78
789.664	54.14
789.841	54.28
790.019	53.51
790.196	53.11
790.373	53.16
790.551	54.04
790.728	54.58
790.906	54.39
791.083	52.7
791.26	53.6
791.437	53.21
791.615	54.02
791.792	54.14
791.969	55.45
792.146	56.86
792.324	57.36
792.501	57.59
792.678	56.92
792.855	57.02
793.032	58.14
793.209	56.69
793.387	59.8
793.564	58.91
793.741	59.57
793.918	58.79
794.095	58.8
794.272	59.74
794.449	59.03
794.626	59.36
794.803	59.77
794.98	59.81
795.157	61.25
795.334	58.51
795.511	58.42
795.688	57.38
795.864	57.94
796.041	57.11
796.218	56.34
796.395	56.06
796.572	55.84
796.749	55.47
796.925	55.75
797.102	55.42
797.279	56.94
797.456	57.6
797.632	58.34
797.809	57.89
797.986	58.54
798.162	58.68
798.339	58.19
798.516	58.12
798.692	57.56
798.869	57.17
799.046	56.3
799.222	56.11
799.399	54.53
799.575	54.28
799.752	55.4
799.928	55.02
800.105	54.75
800.281	56.33
800.458	56.86
800.634	57.96
800.811	57.17
800.987	58.03
801.163	58.15
801.34	60.02
801.516	60.61
801.692	60.26
801.869	60.07
802.045	61.02
802.221	60.55
802.398	60.5
802.574	60.35
802.75	62.05
802.926	62.46
803.103	62.25
803.279	61.27
803.455	60.93
803.631	61
803.807	63.19
803.983	62.39
804.16	61.22
804.336	61.21
804.512	61.27
804.688	59.77
804.864	59.23
805.04	59.12
805.216	58.81
805.392	58.78
805.568	59.11
805.744	58.07
805.92	58.48
806.096	59.23
806.272	58.74
806.448	59.51
806.623	60.87
806.799	59.81
806.975	59.96
807.151	61.26
807.327	60.89
807.503	59.66
807.678	58.09
807.854	57.43
808.03	56.49
808.206	56.79
808.381	56.18
808.557	54.88
808.733	54.49
808.908	54.33
809.084	55.22
809.26	54.81
809.435	54.73
809.611	55.47
809.787	56.68
809.962	56.86
810.138	57.72
810.313	56.39
810.489	57.21
810.664	57.06
810.84	56.59
811.015	56.44
811.191	58.12
811.366	58.1
811.542	58.71
811.717	57.53
811.892	58.65
812.068	57.84
812.243	58.89
812.419	59.96
812.594	60.32
812.769	59.65
812.944	57.32
813.12	55.43
813.295	56.68
813.47	56.62
813.645	57.48
813.821	55.27
813.996	55
814.171	54.64
814.346	53.26
814.521	54.26
814.697	54.4
814.872	55.22
815.047	55.4
815.222	54.93
815.397	54.12
815.572	52.98
815.747	53.96
815.922	52.72
816.097	53.02
816.272	52.55
816.447	53.01
816.622	53.27
816.797	52.35
816.972	54.05
817.147	52.87
817.322	52.89
817.496	53.41
817.671	53.58
817.846	54.19
818.021	53.68
818.196	53.61
818.371	52.77
818.545	52.44
818.72	54.15
818.895	52.54
819.069	52.46
819.244	51.31
819.419	50.47
819.594	49.61
819.768	48.87
819.943	47.64
820.117	47.14
820.292	46.24
820.467	45.28
820.641	43.7
820.816	42.73
820.99	42.01
821.165	42.23
821.339	41.78
821.514	41.31
821.688	41.14
821.863	41.45
822.037	41.38
822.212	41.13
822.386	40.93
822.56	40.78
822.735	40.94
822.909	40.81
823.084	40.52
823.258	40.61
823.432	40.82
823.606	40.64
823.781	40.38
823.955	40.11
824.129	40.18
824.303	40.31
824.478	40.46
824.652	40.35
824.826	41.24
825	41.38
825.174	41.25
825.348	41.4
825.523	41.52
825.697	41.35
825.871	41.49
826.045	41.85
826.219	41.99
826.393	41.89
826.567	41.88
826.741	41.21
826.915	41.08
827.089	40.92
827.263	41.05
827.437	41.49
827.611	41.48
827.784	42.04
827.958	41.79
828.132	41.44
828.306	41.6
828.48	41.51
828.654	41.23
828.827	40.9
829.001	41.34
829.175	41.15
829.349	41.27
829.522	42.71
829.696	43.46
829.87	43.64
830.044	45.35
830.217	46.14
830.391	47.54
830.565	48.83
830.738	51.03
830.912	51.17
831.085	52.29
831.259	52.29
831.432	51.15
831.606	48.55
831.779	48.89
831.953	47.86
832.126	47.22
832.3	46.13
832.473	46.46
832.647	45.74
832.82	46.49
832.994	45.88
833.167	45.18
833.34	44.85
833.514	45.22
833.687	45.38
833.86	44.8
834.034	45
834.207	45.21
834.38	44.66
834.553	44
834.727	42.33
834.9	42.39
835.073	42.9
835.246	42.33
835.419	43.18
835.593	42.62
835.766	43.16
835.939	43.92
836.112	44.05
836.285	44.19
836.458	45.87
836.631	47.86
836.804	47.4
836.977	47.72
837.15	49.97
837.323	49.77
837.496	51.57
837.669	53.21
837.842	52.35
838.015	53.31
838.188	53.56
838.361	53.86
838.533	55.17
838.706	57.63
838.879	58.03
839.052	57.03
839.225	56.05
839.398	55.79
839.57	55.32
839.743	55.44
839.916	55.26
840.088	57.16
840.261	56.24
840.434	55.73
840.607	54.64
840.779	54.86
840.952	56.38
841.124	57.36
841.297	56.77
841.47	58.27
841.642	58.18
841.815	58.66
841.987	57.1
842.16	59.25
842.332	60.47
842.505	62.84
842.677	61.3
842.85	61.53
843.022	61.07
843.194	64.56
843.367	65.39
843.539	64.39
843.712	64.9
843.884	66.32
844.056	67.18
844.229	66.29
844.401	65.55
844.573	65.5
844.745	64.58
844.918	65
845.09	63.41
845.262	62.44
845.434	67.87
845.606	69.59
845.779	69.39
845.951	69.95
846.123	72.24
846.295	74.13
846.467	77.85
846.639	78.77
846.811	83.45
846.983	83.67
847.155	81.27
847.327	81.15
847.499	82.42
847.671	90.84
847.843	88.48
848.015	89.2
848.187	83.31
848.359	85.44
848.531	89.11
848.703	86.87
848.875	88.62
849.047	87.89
849.218	84.31
849.39	86.22
849.562	80.4
849.734	80.99
849.905	83.72
850.077	86.1
850.249	85.92
850.421	83.56
850.592	81.66
850.764	76.11
850.936	78.57
851.107	77.21
851.279	75.69
851.451	73.75
851.622	73.3
851.794	69.5
851.965	69.56
852.137	68.31
852.308	66.14
852.48	64.53
852.651	69.37
852.823	65.16
852.994	65.23
853.166	60.61
853.337	63.93
853.509	60.78
853.68	63.83
853.851	63.37
854.023	59.76
854.194	64.23
854.365	65.64
854.537	63.42
854.708	68.56
854.879	71.92
855.05	77.65
855.222	74.98
855.393	81.07
855.564	76.54
855.735	78.28
855.906	81.67
856.078	81.31
856.249	80.56
856.42	85.47
856.591	82.6
856.762	78.15
856.933	72.77
857.104	71.85
857.275	72.73
857.446	72.83
857.617	68.31
857.788	69.88
857.959	71.29
858.13	76.26
858.301	75.22
858.472	80.31
858.643	88.78
858.814	91.31
858.985	92.77
859.155	88.68
859.326	93.47
859.497	99.55
859.668	91.65
859.839	85.95
860.009	82.11
860.18	78.9
860.351	73.84
860.522	69.35
860.692	71.5
860.863	70.62
861.034	70.3
861.204	68.5
861.375	66.37
861.546	73.34
861.716	77.11
861.887	76.74
862.057	75.66
862.228	78.73
862.398	83.11
862.569	80.27
862.739	77.64
862.91	74.46
863.08	76.23
863.251	76.9
863.421	73.23
863.592	70.13
863.762	67.96
863.932	63.13
864.103	62.29
864.273	62.15
864.443	60.36
864.614	57.61
864.784	59.52
864.954	59.55
865.125	63.4
865.295	61.48
865.465	60.97
865.635	61.68
865.805	66.87
865.976	69.73
866.146	70.36
866.316	73.82
866.486	85.65
866.656	88.23
866.826	89.84
866.996	86.46
867.166	86.94
867.336	87.88
867.506	94.51
867.676	97.72
867.846	94.09
868.016	90.81
868.186	88.78
868.356	85.39
868.526	83.18
868.696	76.67
868.866	78.81
869.036	80.67
869.206	77.61
869.376	72.26
869.545	70.63
869.715	73.21
869.885	76.32
870.055	73.03
870.224	76.83
870.394	74.26
870.564	81.76
870.734	79.23
870.903	78.13
871.073	76.74
871.243	88.3
871.412	91.25
871.582	87.03
871.751	83.01
871.921	93.47
872.091	81.54
872.26	87.27
872.43	85.35
872.599	89.04
872.769	85.38
872.938	90.17
873.108	83.18
873.277	81.23
873.446	80.37
873.616	80.04
873.785	71.38
873.955	76.45
874.124	75.76
874.293	71.61
874.463	67.45
874.632	72.57
874.801	70.95
874.971	68
875.14	69.84
875.309	66.13
875.478	68.63
875.647	74.78
875.817	73.9
875.986	71.07
876.155	71.38
876.324	71.74
876.493	70.12
876.662	71.72
876.831	74.57
877	67.13
877.17	72.27
877.339	69.58
877.508	64.55
877.677	68.81
877.846	68.98
878.015	68.97
878.184	70.09
878.352	70.4
878.521	66.26
878.69	60.78
878.859	64.98
879.028	57.03
879.197	58.67
879.366	58.66
879.534	53.49
879.703	53.24
879.872	51.69
880.041	48.17
880.21	43.81
880.378	44.02
880.547	43.38
880.716	41.76
880.884	41.11
881.053	38.41
881.222	37.32
881.39	35.93
881.559	34.45
881.727	33.97
881.896	33.61
882.065	33.53
882.233	33.19
882.402	33
882.57	32.22
882.739	31.55
882.907	31.85
883.076	32.42
883.244	32.08
883.412	32.82
883.581	32.84
883.749	32.85
883.918	33.69
884.086	33.35
884.254	33.64
884.423	34.39
884.591	36.03
884.759	36.67
884.927	36.84
885.096	38.9
885.264	39.47
885.432	41.14
885.6	42.43
885.769	43.16
885.937	45.45
886.105	47.54
886.273	50.52
886.441	54.57
886.609	56.95
886.777	56.56
886.945	59.18
887.113	58.04
887.281	57.41
887.449	57.65
887.617	57.37
887.785	60.79
887.953	61.66
888.121	63.24
888.289	57.46
888.457	58.17
888.625	63.89
888.793	61.95
888.961	63.27
889.129	65.68
889.296	69.15
889.464	72.4
889.632	68.28
889.8	67.64
889.967	65.47
890.135	71.96
