Data from 2938823__Reflection_02.txt Node
Date: Thu Mar 12 14:12:42 EDT 2015
User: robert
Spectrometer: USB4E03002
Autoset integration time: false
Trigger mode: 4
Integration Time (sec): 1.000000E-1
Scans to average: 10
Electric dark correction enabled: false
Nonlinearity correction enabled: false
Boxcar width: 5
Stray light correction enabled: false
XAxis mode: Wavelengths
Stop averaging: false
Number of Pixels in Spectrum: 3648
>>>>>Begin Spectral Data<<<<<
177.575	53.77
177.794	67.19
178.014	70.24
178.233	95.31
178.452	99.16
178.672	116.51
178.891	128.89
179.11	167.07
179.33	176.77
179.549	247.07
179.768	320.81
179.987	514.45
180.207	571.49
180.426	433.54
180.645	538.11
180.864	688.17
181.084	459.8
181.303	684.62
181.522	592.34
181.741	905.77
181.96	748.62
182.179	392.01
182.398	336.07
182.618	272.66
182.837	325.24
183.056	291.58
183.275	366.16
183.494	268.99
183.713	204.23
183.932	237.3
184.151	259.51
184.37	294.82
184.589	309.23
184.808	357.61
185.027	499.63
185.246	485.3
185.465	525.91
185.684	416.03
185.903	600
186.122	880.15
186.341	422.36
186.56	324.81
186.779	491.38
186.998	523.56
187.216	309.97
187.435	171.58
187.654	190.75
187.873	209.62
188.092	282.23
188.311	2721.05
188.53	-5085.71
188.748	-2838.71
188.967	-28725
189.186	990.91
189.405	681.03
189.623	1328.87
189.842	-751.63
190.061	-957.14
190.28	-1215.69
190.498	128300
190.717	905.59
190.936	19040
191.154	1480.65
191.373	748.54
191.592	-1554.17
191.81	678.23
192.029	1228
192.248	620.3
192.466	472.14
192.685	360.81
192.904	425
193.122	361.76
193.341	284.63
193.559	206.42
193.778	194.44
193.996	165.69
194.215	179.1
194.433	147.97
194.652	171.19
194.87	186.56
195.089	204.12
195.307	179.45
195.526	206.98
195.744	146.43
195.963	320.39
196.181	-11520
196.399	420.12
196.618	276.8
196.836	356.82
197.055	4000
197.273	291.63
197.491	244.78
197.71	262.5
197.928	221.91
198.146	363.01
198.365	258.86
198.583	265.56
198.801	311.73
199.019	447.64
199.238	395.15
199.456	226.88
199.674	308.94
199.892	334.58
200.111	179.67
200.329	192.55
200.547	192.28
200.765	204.59
200.983	146.2
201.202	167.61
201.42	146.89
201.638	126.37
201.856	141.5
202.074	122.92
202.292	161.58
202.51	238.79
202.728	255.32
202.946	251.13
203.165	217.26
203.383	279.74
203.601	235.78
203.819	269.61
204.037	391.54
204.255	288.77
204.473	284.07
204.691	197.55
204.909	125.25
205.127	112.55
205.345	145.03
205.562	154.37
205.78	134.68
205.998	121.29
206.216	91.24
206.434	104.9
206.652	107.78
206.87	118.49
207.088	129.67
207.306	153.13
207.523	161
207.741	138.58
207.959	150.2
208.177	163.32
208.395	161.9
208.612	167.87
208.83	175.25
209.048	210.06
209.266	188.1
209.483	177.87
209.701	171.34
209.919	167.06
210.136	220.19
210.354	224.05
210.572	192.77
210.79	182.53
211.007	197.62
211.225	175.95
211.442	186.87
211.66	189.64
211.878	222.92
212.095	173.45
212.313	179.13
212.53	140.75
212.748	121.59
212.966	118.56
213.183	132.49
213.401	157.87
213.618	155.82
213.836	143.27
214.053	162.57
214.271	127.4
214.488	147.61
214.705	158.41
214.923	143.29
215.14	142.13
215.358	160.56
215.575	153.93
215.793	155.29
216.01	138.21
216.227	136.42
216.445	128
216.662	136.05
216.879	118.19
217.097	118.47
217.314	103.58
217.531	92.09
217.749	82.7
217.966	86.44
218.183	82.46
218.4	92.64
218.618	93.06
218.835	93.2
219.052	90.57
219.269	95.87
219.487	87.69
219.704	96.53
219.921	86.76
220.138	83.9
220.355	80.67
220.572	78.41
220.79	72.22
221.007	71.93
221.224	62.23
221.441	56.4
221.658	46.64
221.875	46.1
222.092	41.5
222.309	44.92
222.526	41.26
222.743	39.11
222.96	39.15
223.177	36.43
223.394	36.46
223.611	35.84
223.828	35.88
224.045	39.5
224.262	41.79
224.479	42.62
224.696	36.59
224.913	33.81
225.13	37.13
225.347	33.1
225.564	31.89
225.781	30.18
225.997	24.96
226.214	21.71
226.431	16.23
226.648	13.44
226.865	12.08
227.082	11.39
227.298	10.18
227.515	9.61
227.732	8.45
227.949	8.57
228.165	7.71
228.382	8.22
228.599	9.15
228.816	10.69
229.032	11.26
229.249	11.37
229.466	11.65
229.682	12.93
229.899	12.61
230.116	13.62
230.332	14.21
230.549	14.82
230.765	14.92
230.982	15.64
231.199	14.66
231.415	14.46
231.632	14.37
231.848	14.95
232.065	13.97
232.281	15.04
232.498	16.13
232.714	15.3
232.931	16.5
233.147	17.53
233.364	16.12
233.58	16.45
233.797	15.18
234.013	16.41
234.23	15.43
234.446	15.02
234.662	12.91
234.879	11.61
235.095	12.56
235.312	11.88
235.528	12.78
235.744	12.01
235.961	11.97
236.177	11.54
236.393	11.95
236.61	12.58
236.826	13.16
237.042	14.49
237.258	15.56
237.475	15.06
237.691	13.86
237.907	14.26
238.123	15.25
238.339	15.31
238.556	16.82
238.772	15.68
238.988	15.88
239.204	15.17
239.42	14.16
239.636	14.23
239.853	13.9
240.069	13.88
240.285	12.25
240.501	11.79
240.717	11.84
240.933	10.9
241.149	10.04
241.365	9.93
241.581	10.01
241.797	10.26
242.013	8.93
242.229	9.39
242.445	9.25
242.661	9.81
242.877	9.67
243.093	9.52
243.309	9.36
243.525	9.62
243.741	9.64
243.957	10.06
244.173	10.08
244.388	11.44
244.604	10.9
244.82	11.01
245.036	10.89
245.252	11.09
245.468	10.56
245.683	10.22
245.899	9.22
246.115	8.92
246.331	8.21
246.547	8.12
246.762	7.24
246.978	7.08
247.194	6.77
247.409	6.57
247.625	6.52
247.841	6.92
248.057	6.89
248.272	7.4
248.488	7.44
248.703	7.31
248.919	7.51
249.135	7.81
249.35	8.37
249.566	8.74
249.782	9.35
249.997	9.21
250.213	8.72
250.428	9.28
250.644	9.14
250.859	8.94
251.075	9.19
251.29	9.07
251.506	9.36
251.721	8.82
251.937	8.77
252.152	7.98
252.368	8.16
252.583	7.64
252.798	7.05
253.014	7.22
253.229	7.18
253.445	6.93
253.66	6.68
253.875	7.14
254.091	7.48
254.306	7.99
254.521	8.27
254.737	7.11
254.952	7.54
255.167	7.76
255.383	7.01
255.598	7.16
255.813	7.52
256.028	7.41
256.244	7.1
256.459	6.24
256.674	6.2
256.889	6.38
257.104	7.09
257.32	7.34
257.535	7.21
257.75	7.73
257.965	7.21
258.18	6.91
258.395	6.63
258.61	6.26
258.826	6.48
259.041	5.77
259.256	5.57
259.471	5.38
259.686	5.3
259.901	5.41
260.116	5.04
260.331	5.03
260.546	5.12
260.761	4.94
260.976	4.87
261.191	4.59
261.406	5.09
261.621	5.12
261.836	5.37
262.05	5.12
262.265	5.18
262.48	5.43
262.695	5.42
262.91	5.96
263.125	6.56
263.34	6.48
263.555	6.77
263.769	6.39
263.984	6.25
264.199	6.39
264.414	6.83
264.629	6.64
264.843	6.76
265.058	7.22
265.273	6.18
265.488	5.48
265.702	5.7
265.917	5.95
266.132	6.07
266.346	6.27
266.561	6.29
266.776	5.72
266.99	5.94
267.205	6.32
267.42	6.25
267.634	6.27
267.849	6.51
268.063	6.53
268.278	5.92
268.492	6.17
268.707	5.86
268.922	5.95
269.136	5.87
269.351	5.63
269.565	4.92
269.78	4.81
269.994	4.76
270.209	4.53
270.423	4.48
270.637	4.09
270.852	3.91
271.066	4.1
271.281	3.67
271.495	3.81
271.709	3.89
271.924	4.32
272.138	4.42
272.353	4.45
272.567	4.33
272.781	4.47
272.996	5.22
273.21	5.2
273.424	5.07
273.638	5.2
273.853	5.41
274.067	5.45
274.281	5.29
274.495	5.02
274.71	5.48
274.924	5.92
275.138	5.84
275.352	5.83
275.566	6.24
275.781	6.92
275.995	7.07
276.209	7.29
276.423	7.13
276.637	7.33
276.851	7.49
277.065	7.86
277.279	7.62
277.493	8.14
277.707	7.68
277.921	7.18
278.135	6.48
278.349	6.18
278.563	5.98
278.777	6.11
278.991	5.72
279.205	5.41
279.419	4.83
279.633	5.09
279.847	4.62
280.061	5.08
280.275	5.07
280.489	5.1
280.703	5.02
280.917	4.96
281.131	4.9
281.344	5.02
281.558	5.24
281.772	5.27
281.986	5.13
282.2	5.11
282.414	4.87
282.627	4.87
282.841	4.99
283.055	4.85
283.269	4.63
283.482	4.59
283.696	4.5
283.91	4.88
284.123	4.73
284.337	4.74
284.551	4.74
284.764	4.25
284.978	4.39
285.192	4.26
285.405	4.62
285.619	4.84
285.833	4.91
286.046	5.32
286.26	4.72
286.473	4.72
286.687	4.98
286.9	4.89
287.114	5.46
287.327	5.59
287.541	5.67
287.754	5.49
287.968	5.7
288.181	5.53
288.395	5.11
288.608	5.36
288.822	5.32
289.035	5.17
289.248	5.53
289.462	5.66
289.675	5.38
289.889	5.4
290.102	5.51
290.315	5.35
290.529	5.36
290.742	5.33
290.955	5
291.169	5.06
291.382	4.9
291.595	4.74
291.808	4.61
292.022	4.55
292.235	4.39
292.448	4.73
292.661	5.02
292.875	5.08
293.088	5.17
293.301	5.67
293.514	5.73
293.727	5.93
293.94	5.63
294.153	5.61
294.367	5.74
294.58	5.89
294.793	5.78
295.006	5.76
295.219	5.96
295.432	6.12
295.645	6.14
295.858	6.27
296.071	6.3
296.284	6.67
296.497	6.69
296.71	6.66
296.923	6.88
297.136	6.94
297.349	6.82
297.562	6.67
297.775	6.62
297.988	6.75
298.201	6.81
298.414	6.91
298.626	6.69
298.839	6.57
299.052	7.12
299.265	7.01
299.478	6.88
299.691	7.07
299.903	7.44
300.116	7.47
300.329	7.74
300.542	7.47
300.755	7.56
300.967	7.64
301.18	7.93
301.393	7.36
301.605	7.84
301.818	7.81
302.031	7.75
302.243	7.47
302.456	7.69
302.669	7.89
302.881	8.26
303.094	8.1
303.307	8.27
303.519	8.5
303.732	9.1
303.944	8.67
304.157	9.02
304.37	9.23
304.582	9.46
304.795	9.38
305.007	9.1
305.22	9.24
305.432	9.41
305.645	9.31
305.857	9.22
306.069	9.2
306.282	9.47
306.494	9.24
306.707	9.3
306.919	9.62
307.132	9.55
307.344	9.41
307.556	9.53
307.769	9.61
307.981	9.5
308.193	9.41
308.406	9.28
308.618	9.14
308.83	9.03
309.043	8.97
309.255	8.77
309.467	8.83
309.679	8.8
309.892	8.35
310.104	8.57
310.316	8.87
310.528	8.69
310.74	8.55
310.953	8.63
311.165	8.78
311.377	8.71
311.589	8.77
311.801	8.81
312.013	9.23
312.225	9.59
312.437	9.2
312.649	9.14
312.862	9.45
313.074	9.76
313.286	9.76
313.498	9.86
313.71	9.9
313.922	10.1
314.134	10.38
314.346	10.32
314.558	10.13
314.77	10.4
314.982	10.66
315.193	10.92
315.405	10.68
315.617	10.88
315.829	11.16
316.041	11.46
316.253	11.32
316.465	11.5
316.677	11.62
316.888	11.94
317.1	11.98
317.312	11.9
317.524	11.85
317.736	12.21
317.947	12.53
318.159	11.67
318.371	11.82
318.583	11.58
318.794	11.11
319.006	10.82
319.218	10.67
319.43	10.84
319.641	11.09
319.853	11.27
320.064	11.1
320.276	10.9
320.488	11.64
320.699	11.61
320.911	12.24
321.123	12.31
321.334	12.06
321.546	12.08
321.757	12.13
321.969	12.38
322.18	12.05
322.392	12.3
322.603	11.94
322.815	11.98
323.026	11.74
323.238	11.17
323.449	11.28
323.661	11.15
323.872	11.21
324.083	10.79
324.295	10.4
324.506	10.64
324.718	10.93
324.929	10.88
325.14	10.95
325.352	11.29
325.563	11.41
325.774	11.39
325.986	11.71
326.197	11.77
326.408	12.11
326.62	11.97
326.831	11.83
327.042	11.21
327.253	11.22
327.464	11.07
327.676	10.65
327.887	10.85
328.098	10.98
328.309	11.09
328.52	11.18
328.732	11.16
328.943	11.81
329.154	12.2
329.365	12.41
329.576	12.87
329.787	13.28
329.998	13.77
330.209	13.86
330.42	13.99
330.631	14.14
330.842	14.31
331.053	14.44
331.264	14.46
331.475	14.67
331.686	15.25
331.897	15.39
332.108	15.21
332.319	15.36
332.53	15.65
332.741	15.7
332.952	15.93
333.163	16.46
333.374	16.74
333.585	16.32
333.795	16.26
334.006	15.86
334.217	15.71
334.428	16.16
334.639	15.63
334.849	15.45
335.06	15.39
335.271	15.29
335.482	14.66
335.692	14.27
335.903	14.4
336.114	14
336.325	14.31
336.535	14.28
336.746	13.93
336.957	14.23
337.167	14.05
337.378	14.01
337.589	13.91
337.799	14.2
338.01	14.35
338.22	14.29
338.431	14.49
338.642	14.11
338.852	14.39
339.063	14.77
339.273	14.79
339.484	15.15
339.694	15.37
339.905	15.28
340.115	14.97
340.326	15.12
340.536	15.23
340.746	15.29
340.957	15.4
341.167	15.26
341.378	15.11
341.588	15.05
341.799	15.09
342.009	15.15
342.219	15.17
342.43	15.2
342.64	15.12
342.85	15.09
343.061	14.82
343.271	14.76
343.481	14.81
343.691	14.63
343.902	14.62
344.112	14.28
344.322	14.03
344.532	13.81
344.743	13.68
344.953	13.36
345.163	13.53
345.373	13.61
345.583	13.6
345.793	13.51
346.004	13.37
346.214	13.54
346.424	13.52
346.634	13.33
346.844	13.31
347.054	13.51
347.264	13.82
347.474	13.52
347.684	13.6
347.894	13.67
348.104	13.76
348.314	13.74
348.524	13.54
348.734	13.93
348.944	13.8
349.154	14.05
349.364	14.04
349.574	13.78
349.784	14.05
349.994	13.87
350.204	13.77
350.413	13.81
350.623	13.73
350.833	13.86
351.043	13.48
351.253	13.76
351.463	13.78
351.672	13.77
351.882	14.05
352.092	13.73
352.302	13.84
352.511	14.08
352.721	14.01
352.931	14.32
353.141	14.26
353.35	14.58
353.56	14.54
353.77	14.51
353.979	14.41
354.189	14.18
354.399	14.1
354.608	14.03
354.818	13.82
355.027	13.53
355.237	13.58
355.447	13.32
355.656	13.11
355.866	13.13
356.075	13.24
356.285	13.32
356.494	13.5
356.704	13.83
356.913	13.88
357.123	13.77
357.332	13.72
357.542	13.69
357.751	13.88
357.96	13.91
358.17	13.82
358.379	13.69
358.589	13.6
358.798	13.46
359.007	13.34
359.217	13.57
359.426	13.54
359.635	13.83
359.845	13.71
360.054	13.59
360.263	13.24
360.472	13.15
360.682	13
360.891	12.76
361.1	12.64
361.309	12.53
361.519	12.19
361.728	12.31
361.937	12.24
362.146	12.04
362.355	11.96
362.564	12.08
362.774	12.01
362.983	12.05
363.192	12.21
363.401	12.15
363.61	12.21
363.819	12.16
364.028	12.04
364.237	11.74
364.446	11.87
364.655	11.92
364.864	12.03
365.073	12.21
365.282	12.26
365.491	12.43
365.7	12.68
365.909	12.58
366.118	12.76
366.327	12.76
366.536	13.07
366.745	13.03
366.954	13.02
367.162	12.75
367.371	12.56
367.58	12.42
367.789	12.36
367.998	12.21
368.207	12.36
368.415	12.26
368.624	12.3
368.833	12.08
369.042	11.95
369.25	12.05
369.459	12.22
369.668	12.43
369.877	12.69
370.085	12.61
370.294	12.61
370.503	12.32
370.711	12.37
370.92	12.46
371.129	12.66
371.337	12.81
371.546	12.73
371.754	12.73
371.963	12.8
372.171	12.57
372.38	12.65
372.589	12.58
372.797	12.69
373.006	12.4
373.214	12.23
373.423	11.96
373.631	11.63
373.84	11.41
374.048	11.25
374.256	10.94
374.465	10.8
374.673	10.3
374.882	10.38
375.09	10.31
375.298	10.37
375.507	10.44
375.715	10.16
375.923	10.2
376.132	10.25
376.34	10.2
376.548	10.2
376.757	10.23
376.965	10.56
377.173	10.41
377.381	10.49
377.59	10.51
377.798	10.17
378.006	10.3
378.214	10.38
378.423	10.51
378.631	10.69
378.839	10.54
379.047	10.66
379.255	10.55
379.463	10.51
379.671	10.42
379.879	10.47
380.088	10.39
380.296	10.46
380.504	10.32
380.712	10.25
380.92	9.98
381.128	10.15
381.336	10.09
381.544	10.05
381.752	10.34
381.96	10.4
382.168	10.44
382.376	10.55
382.584	10.49
382.791	10.35
382.999	10.33
383.207	10.31
383.415	10.46
383.623	10.52
383.831	10.44
384.039	10.07
384.247	10.16
384.454	9.97
384.662	10.03
384.87	10.05
385.078	10.23
385.285	10.12
385.493	10.15
385.701	9.96
385.909	9.72
386.116	9.74
386.324	9.91
386.532	9.5
386.739	9.37
386.947	9.32
387.155	9.45
387.362	9.38
387.57	9.35
387.778	9.26
387.985	9.2
388.193	9.37
388.4	9.32
388.608	9.22
388.816	9.43
389.023	9.43
389.231	9.52
389.438	9.4
389.646	9.55
389.853	9.57
390.061	9.69
390.268	9.55
390.475	9.5
390.683	9.56
390.89	9.4
391.098	9.3
391.305	9.55
391.512	9.53
391.72	9.47
391.927	9.36
392.135	9.47
392.342	9.44
392.549	9.67
392.756	9.46
392.964	9.5
393.171	9.69
393.378	9.81
393.586	9.73
393.793	9.41
394	9.4
394.207	9.33
394.414	9.24
394.622	9.27
394.829	9.21
395.036	9.24
395.243	8.96
395.45	8.8
395.657	8.71
395.864	8.59
396.072	8.7
396.279	8.74
396.486	8.78
396.693	8.72
396.9	8.55
397.107	8.47
397.314	8.51
397.521	8.59
397.728	8.58
397.935	8.5
398.142	8.62
398.349	8.59
398.556	8.46
398.763	8.33
398.97	8.13
399.177	8.21
399.383	8.12
399.59	8.24
399.797	8.35
400.004	8.27
400.211	8.28
400.418	8.17
400.625	8.28
400.831	8.26
401.038	8.31
401.245	8.54
401.452	8.59
401.658	8.53
401.865	8.26
402.072	8
402.279	8.01
402.485	7.91
402.692	7.74
402.899	7.73
403.105	7.97
403.312	8.03
403.519	7.95
403.725	7.88
403.932	7.99
404.138	7.97
404.345	8.1
404.552	8.15
404.758	8.19
404.965	8.45
405.171	8.49
405.378	8.4
405.584	8.13
405.791	8.09
405.997	8.11
406.204	8.23
406.41	8.24
406.617	8.11
406.823	8.09
407.029	8.12
407.236	7.96
407.442	8.06
407.649	8.01
407.855	8.29
408.061	8.2
408.268	8.07
408.474	7.86
408.68	7.91
408.887	7.92
409.093	7.97
409.299	7.95
409.505	7.95
409.712	7.79
409.918	7.71
410.124	7.69
410.33	7.72
410.537	7.83
410.743	7.92
410.949	7.89
411.155	8.13
411.361	8.09
411.567	8.14
411.773	8.14
411.98	8.13
412.186	8.05
412.392	7.9
412.598	7.99
412.804	7.86
413.01	7.61
413.216	7.62
413.422	7.47
413.628	7.55
413.834	7.61
414.04	7.57
414.246	7.5
414.452	7.43
414.658	7.49
414.864	7.5
415.07	7.48
415.275	7.7
415.481	7.63
415.687	7.7
415.893	7.53
416.099	7.43
416.305	7.37
416.511	7.46
416.716	7.62
416.922	7.66
417.128	7.61
417.334	7.64
417.539	7.64
417.745	7.59
417.951	7.53
418.157	7.51
418.362	7.55
418.568	7.54
418.774	7.53
418.979	7.42
419.185	7.3
419.391	7.34
419.596	7.27
419.802	7.18
420.008	7.31
420.213	7.31
420.419	7.33
420.624	7.24
420.83	7.23
421.035	7.18
421.241	7.18
421.446	7.24
421.652	7.15
421.857	7.26
422.063	7.25
422.268	7.13
422.474	7.09
422.679	7.11
422.885	7.04
423.09	7.08
423.295	7.1
423.501	7.12
423.706	7.11
423.911	7.07
424.117	6.96
424.322	7
424.527	7.05
424.733	7.05
424.938	7.02
425.143	7.12
425.349	7.1
425.554	7.06
425.759	7.11
425.964	7.11
426.169	7.17
426.375	7.22
426.58	7.17
426.785	7.08
426.99	7.06
427.195	7.07
427.4	7.08
427.605	7.04
427.811	6.96
428.016	6.89
428.221	7
428.426	6.99
428.631	7
428.836	7.02
429.041	7.14
429.246	7.16
429.451	7.23
429.656	7.21
429.861	7.31
430.066	7.49
430.271	7.59
430.476	7.52
430.681	7.48
430.886	7.44
431.09	7.55
431.295	7.61
431.5	7.61
431.705	7.57
431.91	7.58
432.115	7.53
432.32	7.5
432.524	7.42
432.729	7.35
432.934	7.29
433.139	7.28
433.343	7.34
433.548	7.26
433.753	7.25
433.958	7.26
434.162	7.22
434.367	7.15
434.572	7.19
434.776	7.23
434.981	7.24
435.186	7.27
435.39	7.4
435.595	7.3
435.799	7.34
436.004	7.37
436.209	7.2
436.413	7.13
436.618	7.21
436.822	7.13
437.027	7.01
437.231	7.07
437.436	7.19
437.64	7.01
437.845	6.91
438.049	6.86
438.253	6.84
438.458	6.94
438.662	6.99
438.867	6.96
439.071	7.01
439.275	6.99
439.48	6.87
439.684	6.83
439.888	6.88
440.093	6.89
440.297	6.87
440.501	6.84
440.706	6.86
440.91	6.84
441.114	6.85
441.318	6.79
441.523	6.9
441.727	6.98
441.931	6.93
442.135	7.01
442.339	7.04
442.543	7.09
442.748	7.2
442.952	7.15
443.156	7.13
443.36	7.08
443.564	7.18
443.768	7.16
443.972	7.1
444.176	7.15
444.38	7.14
444.584	7.12
444.788	7.09
444.992	7.05
445.196	7.17
445.4	7.18
445.604	7.19
445.808	7.18
446.012	7.07
446.216	7.03
446.42	7.02
446.624	7
446.828	6.93
447.032	6.91
447.235	6.84
447.439	6.77
447.643	6.78
447.847	6.85
448.051	6.82
448.254	6.89
448.458	6.92
448.662	6.87
448.866	6.88
449.069	6.88
449.273	6.9
449.477	6.94
449.681	6.99
449.884	7.06
450.088	7.09
450.292	7.03
450.495	7.04
450.699	7.04
450.902	7.03
451.106	6.96
451.31	7.09
451.513	7.08
451.717	7.06
451.92	7.01
452.124	6.93
452.327	6.8
452.531	6.81
452.734	6.82
452.938	6.77
453.141	6.76
453.345	6.76
453.548	6.71
453.752	6.73
453.955	6.67
454.158	6.69
454.362	6.68
454.565	6.68
454.769	6.82
454.972	6.81
455.175	6.87
455.379	6.94
455.582	6.92
455.785	6.93
455.988	6.93
456.192	6.96
456.395	6.96
456.598	6.97
456.801	6.89
457.005	6.76
457.208	6.84
457.411	6.79
457.614	6.82
457.817	6.79
458.021	6.72
458.224	6.74
458.427	6.65
458.63	6.69
458.833	6.57
459.036	6.68
459.239	6.6
459.442	6.66
459.645	6.61
459.848	6.54
460.051	6.58
460.254	6.64
460.457	6.59
460.66	6.67
460.863	6.59
461.066	6.66
461.269	6.71
461.472	6.79
461.675	6.63
461.878	6.73
462.081	6.75
462.284	6.79
462.486	6.69
462.689	6.77
462.892	6.72
463.095	6.72
463.298	6.83
463.5	6.82
463.703	6.86
463.906	6.91
464.109	6.9
464.311	7.01
464.514	7.05
464.717	7.05
464.92	7.02
465.122	7.09
465.325	7.01
465.528	6.96
465.73	6.92
465.933	6.94
466.135	6.89
466.338	6.9
466.541	6.82
466.743	6.84
466.946	6.96
467.148	7.1
467.351	7.07
467.553	7.21
467.756	7.22
467.958	7.22
468.161	7.14
468.363	7.22
468.566	7.23
468.768	7.22
468.971	7.13
469.173	7.06
469.375	6.93
469.578	6.83
469.78	6.81
469.983	6.83
470.185	6.75
470.387	6.79
470.59	6.84
470.792	6.91
470.994	7.04
471.196	7
471.399	7.13
471.601	7.13
471.803	7.31
472.005	7.33
472.208	7.3
472.41	7.36
472.612	7.28
472.814	7.18
473.016	7.16
473.218	7.01
473.421	7.14
473.623	6.95
473.825	6.94
474.027	6.95
474.229	6.98
474.431	7.04
474.633	7.13
474.835	7.17
475.037	7.19
475.239	7.13
475.441	7.26
475.643	7.11
475.845	7.19
476.047	7.12
476.249	7.11
476.451	7.15
476.653	7.07
476.855	6.98
477.057	6.96
477.258	6.92
477.46	6.91
477.662	6.75
477.864	6.88
478.066	6.94
478.268	6.95
478.469	6.98
478.671	6.92
478.873	6.91
479.075	6.86
479.276	6.87
479.478	6.89
479.68	6.92
479.882	6.95
480.083	6.9
480.285	6.83
480.487	6.83
480.688	6.78
480.89	6.75
481.091	6.7
481.293	6.67
481.495	6.62
481.696	6.6
481.898	6.55
482.099	6.56
482.301	6.54
482.502	6.5
482.704	6.52
482.905	6.5
483.107	6.5
483.308	6.49
483.51	6.5
483.711	6.51
483.913	6.5
484.114	6.49
484.315	6.47
484.517	6.47
484.718	6.48
484.92	6.44
485.121	6.43
485.322	6.38
485.524	6.38
485.725	6.36
485.926	6.35
486.127	6.34
486.329	6.35
486.53	6.36
486.731	6.36
486.932	6.36
487.134	6.36
487.335	6.36
487.536	6.38
487.737	6.4
487.938	6.37
488.139	6.36
488.341	6.37
488.542	6.39
488.743	6.4
488.944	6.4
489.145	6.39
489.346	6.43
489.547	6.43
489.748	6.43
489.949	6.47
490.15	6.48
490.351	6.52
490.552	6.54
490.753	6.53
490.954	6.53
491.155	6.49
491.356	6.48
491.557	6.48
491.758	6.47
491.959	6.49
492.159	6.47
492.36	6.52
492.561	6.52
492.762	6.49
492.963	6.5
493.164	6.52
493.364	6.59
493.565	6.59
493.766	6.58
493.967	6.6
494.167	6.62
494.368	6.67
494.569	6.61
494.769	6.65
494.97	6.76
495.171	6.71
495.371	6.74
495.572	6.77
495.773	6.81
495.973	6.83
496.174	6.9
496.375	6.92
496.575	6.82
496.776	6.9
496.976	6.91
497.177	6.87
497.377	6.85
497.578	6.85
497.778	6.86
497.979	6.87
498.179	6.9
498.38	6.89
498.58	6.93
498.78	7
498.981	6.93
499.181	6.91
499.382	6.95
499.582	6.99
499.782	7
499.983	7.07
500.183	7.08
500.383	6.99
500.584	7.09
500.784	7.12
500.984	7.14
501.184	7.24
501.385	7.27
501.585	7.35
501.785	7.45
501.985	7.57
502.185	7.59
502.386	7.58
502.586	7.72
502.786	7.69
502.986	7.68
503.186	7.62
503.386	7.7
503.586	7.74
503.786	7.7
503.987	7.75
504.187	7.82
504.387	7.78
504.587	7.92
504.787	7.94
504.987	7.97
505.187	8.01
505.387	8.03
505.587	8.03
505.786	8.08
505.986	8.12
506.186	8.15
506.386	8.03
506.586	8.09
506.786	8.13
506.986	8.18
507.186	8.17
507.386	8.19
507.585	8.27
507.785	8.31
507.985	8.35
508.185	8.39
508.384	8.35
508.584	8.35
508.784	8.37
508.984	8.35
509.183	8.4
509.383	8.44
509.583	8.5
509.782	8.55
509.982	8.59
510.182	8.66
510.381	8.61
510.581	8.68
510.781	8.8
510.98	8.87
511.18	8.94
511.379	9
511.579	9.03
511.778	9.11
511.978	9.18
512.177	9.24
512.377	9.17
512.576	9.32
512.776	9.38
512.975	9.42
513.175	9.48
513.374	9.51
513.573	9.57
513.773	9.69
513.972	9.78
514.172	9.85
514.371	9.95
514.57	10.1
514.77	10.15
514.969	10.25
515.168	10.37
515.367	10.47
515.567	10.54
515.766	10.54
515.965	10.6
516.164	10.64
516.364	10.81
516.563	10.82
516.762	10.92
516.961	10.96
517.16	11.11
517.359	11.21
517.559	11.26
517.758	11.33
517.957	11.51
518.156	11.55
518.355	11.6
518.554	11.66
518.753	11.71
518.952	11.76
519.151	11.89
519.35	11.87
519.549	11.91
519.748	11.97
519.947	12.08
520.146	12.05
520.345	12.16
520.544	12.21
520.743	12.21
520.942	12.36
521.141	12.39
521.339	12.5
521.538	12.64
521.737	12.71
521.936	12.82
522.135	12.88
522.333	13
522.532	13.07
522.731	13.23
522.93	13.35
523.129	13.35
523.327	13.5
523.526	13.51
523.725	13.58
523.923	13.73
524.122	13.88
524.321	14.05
524.519	14.14
524.718	14.3
524.917	14.41
525.115	14.51
525.314	14.66
525.512	14.77
525.711	14.92
525.909	15.05
526.108	15.13
526.306	15.13
526.505	15.18
526.703	15.27
526.902	15.34
527.1	15.42
527.299	15.52
527.497	15.61
527.696	15.68
527.894	15.75
528.092	15.79
528.291	15.83
528.489	15.89
528.688	15.96
528.886	16.01
529.084	16.05
529.283	16.08
529.481	16.1
529.679	16.15
529.877	16.21
530.076	16.24
530.274	16.32
530.472	16.42
530.67	16.56
530.869	16.61
531.067	16.7
531.265	16.83
531.463	16.97
531.661	17.12
531.859	17.17
532.057	17.27
532.255	17.42
532.454	17.51
532.652	17.59
532.85	17.65
533.048	17.77
533.246	17.88
533.444	17.96
533.642	18
533.84	18.08
534.038	18.17
534.236	18.21
534.434	18.3
534.632	18.4
534.83	18.47
535.027	18.56
535.225	18.59
535.423	18.69
535.621	18.76
535.819	18.88
536.017	18.92
536.215	19.01
536.412	19.17
536.61	19.19
536.808	19.23
537.006	19.22
537.203	19.3
537.401	19.4
537.599	19.42
537.797	19.43
537.994	19.51
538.192	19.64
538.39	19.74
538.587	19.76
538.785	19.8
538.983	19.87
539.18	20.06
539.378	20.19
539.575	20.32
539.773	20.48
539.97	20.65
540.168	20.7
540.366	20.71
540.563	20.79
540.761	20.86
540.958	20.96
541.155	20.99
541.353	21.02
541.55	21.04
541.748	21.06
541.945	21.06
542.143	21.04
542.34	21.03
542.537	21.06
542.735	21.09
542.932	21.11
543.129	21.15
543.327	21.27
543.524	21.35
543.721	21.4
543.919	21.49
544.116	21.62
544.313	21.75
544.51	21.94
544.708	22.16
544.905	22.26
545.102	22.37
545.299	22.48
545.496	22.52
545.693	22.65
545.891	22.71
546.088	22.78
546.285	22.77
546.482	22.77
546.679	22.73
546.876	22.74
547.073	22.67
547.27	22.66
547.467	22.64
547.664	22.59
547.861	22.55
548.058	22.57
548.255	22.54
548.452	22.6
548.649	22.74
548.846	22.83
549.043	22.71
549.24	22.81
549.437	22.86
549.633	22.89
549.83	23.07
550.027	23.1
550.224	23.15
550.421	23.22
550.618	23.26
550.814	23.2
551.011	23.19
551.208	23.11
551.405	23.19
551.601	23.25
551.798	23.33
551.995	23.19
552.191	23.26
552.388	23.16
552.585	23.17
552.781	23.11
552.978	23.12
553.175	23.17
553.371	23.26
553.568	23.26
553.764	23.21
553.961	23.24
554.157	23.29
554.354	23.27
554.55	23.44
554.747	23.42
554.943	23.56
555.14	23.53
555.336	23.57
555.533	23.6
555.729	23.69
555.926	23.69
556.122	23.64
556.318	23.75
556.515	23.82
556.711	23.78
556.907	23.77
557.104	23.72
557.3	23.78
557.496	23.84
557.693	23.94
557.889	23.91
558.085	23.91
558.281	23.92
558.478	23.85
558.674	23.89
558.87	24.06
559.066	24.11
559.262	24.06
559.459	24.08
559.655	23.9
559.851	23.88
560.047	23.84
560.243	24.06
560.439	24.11
560.635	24.24
560.831	24.17
561.027	24.13
561.223	24.2
561.419	24.33
561.615	24.41
561.811	24.49
562.007	24.5
562.203	24.51
562.399	24.35
562.595	24.27
562.791	24.23
562.987	24.18
563.183	24.12
563.379	23.93
563.575	23.83
563.771	23.73
563.966	23.88
564.162	23.95
564.358	23.88
564.554	23.88
564.75	23.85
564.945	23.96
565.141	24.04
565.337	24.11
565.533	24.2
565.728	24.25
565.924	24.26
566.12	24.18
566.315	24.11
566.511	24.18
566.707	24.25
566.902	24.34
567.098	24.17
567.293	24.15
567.489	24.12
567.684	24.05
567.88	23.99
568.076	24.02
568.271	24.05
568.467	24.03
568.662	23.99
568.858	23.88
569.053	23.88
569.248	23.99
569.444	24.05
569.639	23.96
569.835	24.08
570.03	24.06
570.225	23.98
570.421	24.05
570.616	24.08
570.812	24.15
571.007	24.2
571.202	24.2
571.397	24.19
571.593	24.1
571.788	24.17
571.983	24.11
572.178	24.16
572.374	24.18
572.569	24.21
572.764	24.2
572.959	24.18
573.154	24.27
573.35	24.18
573.545	24.14
573.74	24.2
573.935	24.26
574.13	24.29
574.325	24.4
574.52	24.59
574.715	24.56
574.91	24.47
575.105	24.59
575.3	24.55
575.495	24.66
575.69	24.71
575.885	24.83
576.08	24.79
576.275	24.88
576.47	24.89
576.665	24.81
576.86	24.91
577.055	25.06
577.25	24.98
577.444	25.11
577.639	25.18
577.834	25.18
578.029	25.24
578.224	25.32
578.418	25.41
578.613	25.29
578.808	25.2
579.003	25.2
579.197	25.34
579.392	25.25
579.587	25.13
579.781	25.16
579.976	25.23
580.171	25.18
580.365	25.21
580.56	25.12
580.755	25.22
580.949	25.4
581.144	25.58
581.338	25.51
581.533	25.68
581.727	25.74
581.922	25.67
582.116	25.7
582.311	25.68
582.505	25.78
582.7	25.84
582.894	25.92
583.089	25.99
583.283	25.85
583.478	26.05
583.672	26.01
583.866	26.17
584.061	26.43
584.255	26.33
584.449	26.37
584.644	26.36
584.838	26.35
585.032	26.39
585.226	26.28
585.421	26.23
585.615	26.04
585.809	26.18
586.003	26.23
586.198	26.22
586.392	26.32
586.586	26.36
586.78	26.38
586.974	26.51
587.168	26.48
587.363	26.62
587.557	26.54
587.751	26.7
587.945	26.75
588.139	26.66
588.333	26.62
588.527	26.73
588.721	26.75
588.915	26.71
589.109	26.68
589.303	26.63
589.497	26.62
589.691	26.7
589.885	26.49
590.079	26.55
590.273	26.52
590.466	26.64
590.66	26.7
590.854	26.83
591.048	26.96
591.242	27.03
591.436	27.28
591.629	27.36
591.823	27.59
592.017	27.86
592.211	27.86
592.404	28.08
592.598	28.02
592.792	28.06
592.986	28.01
593.179	27.96
593.373	27.96
593.567	27.88
593.76	27.83
593.954	27.65
594.147	27.63
594.341	27.59
594.535	27.54
594.728	27.55
594.922	27.51
595.115	27.47
595.309	27.57
595.502	27.62
595.696	27.59
595.889	27.58
596.083	27.64
596.276	27.61
596.47	27.59
596.663	27.65
596.856	27.58
597.05	27.61
597.243	27.59
597.437	27.55
597.63	27.54
597.823	27.69
598.017	27.74
598.21	27.79
598.403	27.89
598.596	28.02
598.79	27.93
598.983	28.11
599.176	28.2
599.369	28.37
599.563	28.37
599.756	28.44
599.949	28.42
600.142	28.57
600.335	28.51
600.528	28.56
600.722	28.58
600.915	28.58
601.108	28.6
601.301	28.47
601.494	28.55
601.687	28.61
601.88	28.48
602.073	28.41
602.266	28.27
602.459	28.31
602.652	28.27
602.845	28.22
603.038	28.21
603.231	28.18
603.424	28.13
603.617	28.1
603.809	28.13
604.002	28.19
604.195	28.29
604.388	28.39
604.581	28.44
604.774	28.42
604.966	28.49
605.159	28.65
605.352	28.59
605.545	28.75
605.737	28.64
605.93	28.69
606.123	28.73
606.316	28.61
606.508	28.68
606.701	28.78
606.894	28.93
607.086	28.93
607.279	28.74
607.471	28.91
607.664	29.15
607.857	29.29
608.049	29.47
608.242	29.53
608.434	29.86
608.627	30.21
608.819	30.54
609.012	30.85
609.204	31.32
609.397	31.88
609.589	32.45
609.782	32.87
609.974	33.63
610.166	34.16
610.359	34.84
610.551	35.25
610.743	35.6
610.936	36.02
611.128	36.48
611.32	36.66
611.513	36.82
611.705	36.76
611.897	36.65
612.09	36.49
612.282	36.28
612.474	36.24
612.666	36.12
612.858	35.85
613.051	35.61
613.243	35.38
613.435	35.09
613.627	34.85
613.819	34.67
614.011	34.82
614.203	34.52
614.395	34.29
614.588	33.92
614.78	33.84
614.972	33.59
615.164	33.2
615.356	32.78
615.548	32.75
615.74	32.71
615.932	32.26
616.124	31.71
616.315	31.52
616.507	31.38
616.699	31.2
616.891	31.07
617.083	30.93
617.275	30.81
617.467	30.71
617.659	30.74
617.85	30.51
618.042	30.65
618.234	30.66
618.426	30.6
618.618	30.54
618.809	30.44
619.001	30.37
619.193	30.36
619.384	30.33
619.576	30.55
619.768	30.4
619.959	30.6
620.151	30.7
620.343	30.7
620.534	30.72
620.726	30.79
620.917	30.78
621.109	30.72
621.301	30.71
621.492	30.86
621.684	30.9
621.875	30.89
622.067	30.67
622.258	30.69
622.45	30.8
622.641	30.85
622.832	30.85
623.024	31.06
623.215	30.98
623.407	30.97
623.598	31.01
623.789	30.76
623.981	30.79
624.172	30.94
624.363	30.86
624.555	30.93
624.746	30.9
624.937	30.92
625.129	30.74
625.32	30.77
625.511	30.74
625.702	30.49
625.893	30.57
626.085	30.61
626.276	30.39
626.467	30.51
626.658	30.41
626.849	30.28
627.04	30.42
627.231	30.49
627.422	30.49
627.614	30.51
627.805	30.67
627.996	30.75
628.187	30.75
628.378	30.86
628.569	30.75
628.76	30.72
628.951	31
629.142	30.93
629.332	31.11
629.523	31.35
629.714	31.6
629.905	31.78
630.096	31.72
630.287	31.89
630.478	32.04
630.669	31.98
630.859	32.15
631.05	31.97
631.241	31.81
631.432	31.79
631.623	31.55
631.813	31.37
632.004	31.2
632.195	31.16
632.385	30.9
632.576	30.88
632.767	31.04
632.957	30.82
633.148	30.75
633.339	30.6
633.529	30.38
633.72	30.31
633.91	30.24
634.101	29.96
634.292	30.02
634.482	30.05
634.673	29.97
634.863	29.82
635.054	29.91
635.244	29.88
635.435	29.98
635.625	30.11
635.815	30.07
636.006	29.93
636.196	30.21
636.387	30.1
636.577	30.16
636.767	30.18
636.958	30.17
637.148	30.09
637.338	30.26
637.529	30.5
637.719	30.45
637.909	30.59
638.099	30.84
638.29	30.91
638.48	30.98
638.67	30.79
638.86	30.81
639.05	30.69
639.241	30.69
639.431	30.54
639.621	30.32
639.811	30.27
640.001	30.2
640.191	30.07
640.381	30.15
640.571	30.07
640.761	30.25
640.951	30.24
641.141	30.25
641.331	30.46
641.521	30.63
641.711	30.57
641.901	30.7
642.091	30.91
642.281	31.11
642.471	30.97
642.661	30.96
642.851	31.08
643.041	31.02
643.231	31.53
643.42	31.39
643.61	31.14
643.8	31.34
643.99	31.22
644.18	31.27
644.369	31.12
644.559	31.11
644.749	31.11
644.939	30.93
645.128	31.14
645.318	30.68
645.508	30.65
645.697	30.91
645.887	30.92
646.076	31.02
646.266	30.8
646.456	30.94
646.645	30.9
646.835	30.96
647.024	31.08
647.214	30.91
647.403	31.05
647.593	31.23
647.782	31.08
647.972	31.1
648.161	31.24
648.351	31.32
648.54	31.34
648.73	31.6
648.919	31.64
649.108	31.58
649.298	31.57
649.487	31.59
649.677	31.62
649.866	31.73
650.055	31.72
650.244	31.77
650.434	31.9
650.623	31.93
650.812	31.93
651.002	32.19
651.191	32.32
651.38	32.4
651.569	32.52
651.758	32.4
651.947	32.51
652.137	32.61
652.326	32.23
652.515	32.1
652.704	32.11
652.893	31.9
653.082	31.65
653.271	31.68
653.46	31.73
653.649	31.84
653.838	31.86
654.027	31.58
654.216	31.37
654.405	31.72
654.594	31.73
654.783	31.53
654.972	31.64
655.161	31.79
655.35	31.59
655.539	31.52
655.728	31.19
655.916	31.23
656.105	31.4
656.294	31.37
656.483	31.27
656.672	31.3
656.86	31.03
657.049	30.81
657.238	30.85
657.427	30.92
657.615	30.93
657.804	30.98
657.993	30.98
658.181	30.9
658.37	31.18
658.559	31.07
658.747	31.01
658.936	31.16
659.125	31.25
659.313	31.27
659.502	31.26
659.69	31.3
659.879	31.54
660.067	31.51
660.256	31.58
660.444	31.35
660.633	31.55
660.821	31.78
661.01	32.09
661.198	31.98
661.387	31.89
661.575	31.96
661.763	32.01
661.952	31.64
662.14	31.96
662.328	32.1
662.517	32.2
662.705	32.09
662.893	32.14
663.082	31.99
663.27	32.26
663.458	32.24
663.646	32.29
663.834	32.25
664.023	32.53
664.211	32.1
664.399	32.05
664.587	32.23
664.775	32.46
664.963	32.29
665.152	32.59
665.34	32.61
665.528	32.58
665.716	32.32
665.904	32.32
666.092	32.28
666.28	32.46
666.468	32.47
666.656	32.22
666.844	32.25
667.032	32.31
667.22	32.01
667.408	31.8
667.596	31.79
667.784	31.93
667.971	32.01
668.159	32.01
668.347	32.06
668.535	31.95
668.723	32.03
668.911	31.81
669.098	31.82
669.286	31.72
669.474	31.82
669.662	31.8
669.849	31.73
670.037	31.86
670.225	31.85
670.413	31.63
670.6	31.83
670.788	31.82
670.976	31.91
671.163	32.04
671.351	32.3
671.538	32.36
671.726	32.49
671.913	32.74
672.101	32.62
672.289	32.78
672.476	32.85
672.664	32.97
672.851	32.98
673.039	32.92
673.226	32.87
673.413	32.93
673.601	33.02
673.788	33.02
673.976	32.9
674.163	32.9
674.35	33
674.538	33.2
674.725	32.89
674.912	32.88
675.1	33
675.287	32.84
675.474	32.63
675.662	32.75
675.849	32.85
676.036	32.97
676.223	32.89
676.411	32.63
676.598	32.59
676.785	33.08
676.972	33.15
677.159	33.02
677.346	32.85
677.533	32.75
677.721	32.65
677.908	32.37
678.095	32.22
678.282	32.34
678.469	32.27
678.656	32.31
678.843	32
679.03	32.23
679.217	32.14
679.404	32.21
679.591	32.5
679.778	32.28
679.964	32.52
680.151	32.68
680.338	32.5
680.525	32.63
680.712	32.6
680.899	32.65
681.086	32.63
681.272	32.79
681.459	33.03
681.646	32.98
681.833	33.26
682.02	33.18
682.206	33.17
682.393	33.45
682.58	33.64
682.766	33.67
682.953	33.86
683.14	33.71
683.326	33.91
683.513	33.77
683.7	33.87
683.886	33.67
684.073	33.66
684.259	33.48
684.446	33.49
684.632	33.57
684.819	33.19
685.005	33.09
685.192	33
685.378	32.86
685.565	32.92
685.751	32.36
685.938	32.63
686.124	32.79
686.31	33.07
686.497	32.97
686.683	32.4
686.87	32.72
687.056	32.68
687.242	32.66
687.429	32.83
687.615	32.89
687.801	33.15
687.987	32.97
688.174	32.81
688.36	32.76
688.546	32.81
688.732	33.2
688.918	33.28
689.105	33.21
689.291	33.33
689.477	33.21
689.663	33.36
689.849	33.55
690.035	33.72
690.221	33.88
690.407	33.68
690.593	33.76
690.779	33.74
690.965	33.86
691.151	34.12
691.337	34.15
691.523	34.05
691.709	33.92
691.895	33.83
692.081	34.07
692.267	34.38
692.453	34.78
692.639	34.8
692.825	34.8
693.011	34.75
693.196	34.42
693.382	34.31
693.568	34.4
693.754	34.34
693.94	34.96
694.125	34.69
694.311	34.31
694.497	33.85
694.682	33.74
694.868	33.43
695.054	33.33
695.239	33.17
695.425	33.26
695.611	33.09
695.796	33.16
695.982	32.65
696.168	32.77
696.353	32.8
696.539	32.73
696.724	32.69
696.91	33.18
697.095	32.99
697.281	33.08
697.466	32.97
697.652	33.25
697.837	33.26
698.023	33.29
698.208	33.24
698.393	33.06
698.579	33.29
698.764	33.15
698.949	32.73
699.135	32.84
699.32	33.01
699.505	33.13
699.691	32.84
699.876	32.71
700.061	32.64
700.246	32.45
700.432	32.82
700.617	32.82
700.802	32.84
700.987	33.25
701.172	33.56
701.358	33.62
701.543	33.61
701.728	34.32
701.913	34.33
702.098	34.33
702.283	34.6
702.468	34.46
702.653	34.55
702.838	35.13
703.023	35.25
703.208	35.26
703.393	35.18
703.578	35.05
703.763	34.29
703.948	34.33
704.133	34.33
704.318	34.32
704.503	34.13
704.688	34.13
704.873	34.07
705.057	33.99
705.242	34.02
705.427	34.33
705.612	34.38
705.797	34.75
705.981	35.25
706.166	35.71
706.351	35.85
706.536	36.19
706.72	36.38
706.905	36.59
707.09	36.65
707.274	36.53
707.459	36.21
707.644	36.47
707.828	36.67
708.013	36.47
708.197	36.43
708.382	36.63
708.567	36.47
708.751	36.6
708.936	36.17
709.12	36.33
709.305	36.35
709.489	36.6
709.673	36.53
709.858	36.51
710.042	36.63
710.227	36.35
710.411	36.13
710.596	36.19
710.78	36.19
710.964	36.3
711.149	36.39
711.333	36.39
711.517	36.61
711.702	36.45
711.886	36.1
712.07	36.14
712.254	36.27
712.438	36.16
712.623	36.17
712.807	35.69
712.991	36.03
713.175	35.69
713.359	35.62
713.544	34.74
713.728	34.65
713.912	34.55
714.096	34.36
714.28	33.7
714.464	33.67
714.648	33.46
714.832	33.68
715.016	33.35
715.2	33.33
715.384	33.32
715.568	33.68
715.752	33.68
715.936	33.85
716.12	33.93
716.304	34.59
716.488	34.5
716.671	34.34
716.855	34.31
717.039	34.09
717.223	33.81
717.407	33.68
717.59	33.54
717.774	33.66
717.958	33.95
718.142	33.24
718.325	33
718.509	33.19
718.693	33.48
718.877	33.14
719.06	33.42
719.244	33.82
719.428	33.75
719.611	34.64
719.795	34.34
719.978	33.6
720.162	34.13
720.345	34.59
720.529	35
720.713	35.05
720.896	34.95
721.08	35.05
721.263	35.06
721.446	35.22
721.63	34.8
721.813	35.12
721.997	35.06
722.18	34.94
722.364	34.36
722.547	33.96
722.73	33.84
722.914	34.09
723.097	33.45
723.28	33.6
723.464	33.88
723.647	34.03
723.83	34.23
724.013	35.13
724.197	34.93
724.38	34.74
724.563	34.82
724.746	35.24
724.929	35.37
725.112	35.65
725.296	34.83
725.479	34.7
725.662	34.89
725.845	34.53
726.028	34.44
726.211	35
726.394	35.48
726.577	35.31
726.76	35.46
726.943	35.79
727.126	35.93
727.309	36.33
727.492	35.69
727.675	35.32
727.858	35.93
728.041	35.74
728.224	35.54
728.407	35.55
728.589	35.67
728.772	35.44
728.955	35.01
729.138	34.9
729.321	35.13
729.503	35.46
729.686	35.41
729.869	34.83
730.052	34.87
730.234	34.96
730.417	34.95
730.6	34.5
730.782	33.93
730.965	33.98
731.148	34.23
731.33	34.06
731.513	33.97
731.695	33.52
731.878	33.75
732.061	33.57
732.243	33.54
732.426	33.54
732.608	34.01
732.791	34.36
732.973	34.69
733.156	34.59
733.338	34.6
733.52	34.77
733.703	35.22
733.885	35.01
734.068	35.12
734.25	35.44
734.432	35.26
734.615	35.05
734.797	34.92
734.979	34.27
735.162	34.2
735.344	34.38
735.526	34.03
735.708	33.76
735.891	33.94
736.073	33.75
736.255	33.53
736.437	33.74
736.619	33.92
736.802	34.11
736.984	33.8
737.166	33.96
737.348	34.04
737.53	34.63
737.712	35.18
737.894	35.22
738.076	35.49
738.258	35.68
738.44	35.54
738.622	35.67
738.804	35.36
738.986	36.17
739.168	36.25
739.35	36.67
739.532	36.08
739.714	35.97
739.896	36.04
740.078	36.11
740.259	36.27
740.441	36.14
740.623	36.62
740.805	36.81
740.987	36.69
741.168	36.68
741.35	36.71
741.532	37.24
741.714	36.82
741.895	36.72
742.077	36.49
742.259	36.04
742.44	36.21
742.622	35.35
742.804	35.67
742.985	35.88
743.167	35.66
743.348	34.11
743.53	33.9
743.711	34.24
743.893	34
744.075	33.87
744.256	34.15
744.438	34.55
744.619	34.49
744.8	34.81
744.982	34.89
745.163	34.99
745.345	35.49
745.526	35.89
745.707	35.35
745.889	35.85
746.07	35.92
746.252	35.9
746.433	35.69
746.614	36
746.795	35.78
746.977	36.19
747.158	35.85
747.339	36.12
747.52	36.22
747.702	36.5
747.883	36.99
748.064	37.84
748.245	37.15
748.426	37.4
748.607	37.88
748.788	37.08
748.97	36.58
749.151	37.24
749.332	37.03
749.513	36.82
749.694	36.78
749.875	36.04
750.056	35.97
750.237	36.78
750.418	36.19
750.599	35.1
750.78	35.92
750.96	36.29
751.141	36.26
751.322	36.26
751.503	36.44
751.684	36.82
751.865	37.19
752.046	36.57
752.226	36.45
752.407	36.59
752.588	37.66
752.769	38.01
752.949	37.19
753.13	37.46
753.311	38.7
753.492	38.57
753.672	39.01
753.853	39.01
754.034	39.47
754.214	39.84
754.395	39.93
754.575	40.07
754.756	39.98
754.937	39.98
755.117	39.58
755.298	38.7
755.478	38.57
755.659	38.25
755.839	38
756.02	37.69
756.2	37.19
756.381	37.16
756.561	36.13
756.741	36.14
756.922	36.28
757.102	36.29
757.283	36.44
757.463	36.11
757.643	35.46
757.823	35.92
758.004	35.61
758.184	35.22
758.364	34.51
758.545	35.01
758.725	35.17
758.905	34.91
759.085	34.79
759.265	34.33
759.446	34.27
759.626	34.54
759.806	34.17
759.986	34.83
760.166	35.25
760.346	35.65
760.526	34.98
760.706	34.5
760.886	34.39
761.066	34.25
761.246	34.54
761.426	34.88
761.606	35.07
761.786	34.59
761.966	34.24
762.146	34.25
762.326	34.01
762.506	33.99
762.686	33.91
762.866	34.84
763.046	34.97
763.225	34.94
763.405	35.33
763.585	35.21
763.765	35.74
763.945	35.43
764.124	34.69
764.304	35.1
764.484	35.27
764.664	35.18
764.843	34.35
765.023	34.44
765.203	34.28
765.382	33.7
765.562	33.67
765.741	33.5
765.921	33.77
766.101	34.59
766.28	34.58
766.46	35.04
766.639	35.21
766.819	35.71
766.998	35.11
767.178	35.42
767.357	35.75
767.537	35.97
767.716	35.89
767.896	36.17
768.075	35.61
768.254	35.62
768.434	36.09
768.613	36.13
768.792	36
768.972	36.85
769.151	36.66
769.33	36.51
769.51	35.84
769.689	35.93
769.868	36.06
770.047	36.86
770.226	36.71
770.406	36.19
770.585	37.17
770.764	37.39
770.943	37.35
771.122	37.17
771.301	36.7
771.48	37.42
771.66	37.4
771.839	37.39
772.018	37.72
772.197	38.1
772.376	38.95
772.555	38.16
772.734	38.4
772.913	38.44
773.092	39.58
773.271	39.66
773.449	40.3
773.628	40.34
773.807	39.34
773.986	38.75
774.165	38.96
774.344	38.34
774.523	38.54
774.701	38.26
774.88	37.44
775.059	37.44
775.238	38.2
775.417	37.69
775.595	37.98
775.774	38.22
775.953	38.28
776.131	36.92
776.31	36.44
776.489	36.09
776.667	36.32
776.846	36.6
777.025	35.79
777.203	35.12
777.382	34.75
777.56	34.69
777.739	35.03
777.917	35.54
778.096	36.5
778.274	36.76
778.453	36.96
778.631	36.83
778.81	36.84
778.988	37.39
779.166	37.81
779.345	38.26
779.523	37.37
779.702	38.13
779.88	38.03
780.058	37.8
780.237	37.26
780.415	37.04
780.593	36.79
780.771	37.28
780.95	37.05
781.128	37.31
781.306	37.37
781.484	37.78
781.662	37.12
781.841	37.4
782.019	37.14
782.197	37.47
782.375	37.43
782.553	38.29
782.731	38.63
782.909	38.54
783.087	38.38
783.265	37.94
783.443	38.73
783.621	38.98
783.799	38.1
783.977	37.73
784.155	37.46
784.333	37.81
784.511	37.59
784.689	36.84
784.867	37.69
785.045	38.3
785.223	38.9
785.4	38.15
785.578	38.17
785.756	39.15
785.934	40.02
786.112	40.68
786.289	40.69
786.467	40.86
786.645	40.59
786.823	38.87
787	38.26
787.178	38.15
787.356	39.19
787.533	38.48
787.711	36.94
787.889	36.1
788.066	35.22
788.244	34.56
788.421	34.43
788.599	35.06
788.776	35.86
788.954	35.59
789.131	34.63
789.309	33.98
789.486	34.44
789.664	35.58
789.841	35.87
790.019	36.54
790.196	37.4
790.373	37.18
790.551	37.33
790.728	37.07
790.906	37.19
791.083	37.46
791.26	37.48
791.437	37.7
791.615	37.6
791.792	37.76
791.969	37.3
792.146	36.66
792.324	35.92
792.501	36.87
792.678	37.39
792.855	37.18
793.032	37.91
793.209	37.8
793.387	37.68
793.564	37.82
793.741	38.26
793.918	38.37
794.095	38.66
794.272	38.67
794.449	37.39
794.626	36.91
794.803	38.96
794.98	38.23
795.157	38.36
795.334	38
795.511	38.18
795.688	38.26
795.864	37.73
796.041	36.96
796.218	36.76
796.395	36.82
796.572	37.83
796.749	36.44
796.925	36.8
797.102	36.76
797.279	37.3
797.456	36.68
797.632	37.13
797.809	37.12
797.986	37.23
798.162	37.97
798.339	37.8
798.516	37.79
798.692	36.92
798.869	36.68
799.046	36.64
799.222	37.2
799.399	37.31
799.575	36.82
799.752	37.19
799.928	38.04
800.105	38.45
800.281	38.49
800.458	37.75
800.634	38.5
800.811	39.76
800.987	39.79
801.163	38.64
801.34	38.91
801.516	38.99
801.692	38.54
801.869	37.03
802.045	37.76
802.221	37.88
802.398	38.06
802.574	37.8
802.75	37
802.926	36.99
803.103	37.63
803.279	37.55
803.455	37.31
803.631	38.09
803.807	38.46
803.983	37.5
804.16	36.6
804.336	35.81
804.512	35.29
804.688	34.81
804.864	34.08
805.04	33.64
805.216	33.81
805.392	33.01
805.568	34.38
805.744	35.38
805.92	35.6
806.096	37.13
806.272	38.76
806.448	40.64
806.623	40.32
806.799	40.71
806.975	40.52
807.151	40.01
807.327	41.43
807.503	40.07
807.678	41.41
807.854	42.02
808.03	42.26
808.206	41.12
808.381	39.75
808.557	40.41
808.733	40.55
808.908	41.26
809.084	41.95
809.26	40.47
809.435	41.32
809.611	40.48
809.787	39.89
809.962	39.57
810.138	40.29
810.313	40.79
810.489	40.62
810.664	39.4
810.84	39.58
811.015	39.64
811.191	41.23
811.366	41.4
811.542	42.11
811.717	40.75
811.892	40.12
812.068	40.01
812.243	40.32
812.419	40.07
812.594	40.94
812.769	40.72
812.944	39.95
813.12	38.88
813.295	37.17
813.47	36.95
813.645	37.34
813.821	37.13
813.996	36.07
814.171	35.64
814.346	34.93
814.521	35.33
814.697	35.92
814.872	35.32
815.047	37.16
815.222	37.94
815.397	36.37
815.572	37.7
815.747	38.29
815.922	39.4
816.097	40.25
816.272	41.27
816.447	41.29
816.622	40.74
816.797	41.98
816.972	40
817.147	39.79
817.322	41.52
817.496	39.87
817.671	40.03
817.846	40.15
818.021	38.95
818.196	38.87
818.371	37.59
818.545	37.13
818.72	36.43
818.895	36.6
819.069	35.99
819.244	34.52
819.419	34.97
819.594	35.06
819.768	34.56
819.943	34.33
820.117	34.1
820.292	33.73
820.467	32.88
820.641	31.98
820.816	31.68
820.99	31.11
821.165	30.55
821.339	30.14
821.514	29.7
821.688	29.02
821.863	28.57
822.037	28.44
822.212	28.55
822.386	28.47
822.56	28.36
822.735	28.22
822.909	28.27
823.084	28.29
823.258	28.2
823.432	27.92
823.606	28.11
823.781	28.17
823.955	28.34
824.129	28.08
824.303	28.18
824.478	28.24
824.652	28.38
824.826	28.83
825	29.06
825.174	29.02
825.348	29.49
825.523	29.27
825.697	30.12
825.871	29.77
826.045	30.15
826.219	29.99
826.393	30.25
826.567	29.83
826.741	29.01
826.915	28.78
827.089	29.06
827.263	29.44
827.437	29.55
827.611	28.56
827.784	28.74
827.958	28.86
828.132	28.91
828.306	28.94
828.48	28.84
828.654	29.24
828.827	29
829.001	29.29
829.175	28.91
829.349	29.56
829.522	30.87
829.696	31.4
829.87	32.11
830.044	32.92
830.217	33.42
830.391	35.08
830.565	35.54
830.738	37.18
830.912	36.89
831.085	38.01
831.259	37.71
831.432	37.92
831.606	36.04
831.779	35.75
831.953	33.77
832.126	33.76
832.3	32.26
832.473	31.89
832.647	31.52
832.82	30.82
832.994	29.72
833.167	30.3
833.34	30.05
833.514	30.73
833.687	30.5
833.86	31.04
834.034	30.76
834.207	31.1
834.38	31.26
834.553	31.41
834.727	32
834.9	32.77
835.073	32.34
835.246	32.49
835.419	32.39
835.593	31.34
835.766	31.98
835.939	31.61
836.112	31.63
836.285	32.48
836.458	32.25
836.631	32.51
836.804	32.4
836.977	31.29
837.15	31.87
837.323	32.82
837.496	35.75
837.669	35.9
837.842	38.02
838.015	41.74
838.188	41.51
838.361	43.64
838.533	44.63
838.706	45.49
838.879	47.83
839.052	45.87
839.225	46.55
839.398	46.46
839.57	47.08
839.743	46.09
839.916	42.91
840.088	42.2
840.261	41.87
840.434	40.9
840.607	41.02
840.779	41.88
840.952	42.13
841.124	41.1
841.297	41.73
841.47	42.32
841.642	42.59
841.815	42.5
841.987	42.25
842.16	43.48
842.332	45.13
842.505	44.1
842.677	43.57
842.85	44.57
843.022	44.72
843.194	43.87
843.367	43.46
843.539	45.6
843.712	46.08
843.884	48.17
844.056	46.52
844.229	46.36
844.401	46.5
844.573	45.09
844.745	45.71
844.918	45.95
845.09	47.35
845.262	46.59
845.434	47.92
845.606	46.76
845.779	44.92
845.951	43.56
846.123	43.39
846.295	45.27
846.467	47.83
846.639	46.32
846.811	46.03
846.983	42.88
847.155	41.19
847.327	36.94
847.499	40.25
847.671	42.22
847.843	44.3
848.015	43.03
848.187	40.2
848.359	40.15
848.531	41.66
848.703	43.33
848.875	45.97
849.047	48.04
849.218	50.17
849.39	48.17
849.562	48.19
849.734	48.25
849.905	49.78
850.077	50.15
850.249	49.39
850.421	50.19
850.592	50.97
850.764	50.97
850.936	48.94
851.107	47.51
851.279	49.79
851.451	48.28
851.622	48.92
851.794	46.99
851.965	50.29
852.137	49.4
852.308	47.63
852.48	43.58
852.651	43.69
852.823	48.79
852.994	47.12
853.166	45.62
853.337	47.08
853.509	45.09
853.68	47.1
853.851	45.64
854.023	48.51
854.194	52.27
854.365	56.36
854.537	55.89
854.708	52.91
854.879	56.94
855.05	58.82
855.222	60.37
855.393	63.51
855.564	68.14
855.735	67.38
855.906	63.32
856.078	58.62
856.249	56.42
856.42	59.61
856.591	57.86
856.762	57.15
856.933	56.98
857.104	55.56
857.275	52.91
857.446	49.83
857.617	48.73
857.788	47.71
857.959	49.6
858.13	49.88
858.301	46.82
858.472	45.4
858.643	46.01
858.814	49.78
858.985	50.04
859.155	51.21
859.326	51.62
859.497	50.65
859.668	53.59
859.839	56.02
860.009	52.62
860.18	53.1
860.351	55.22
860.522	50.49
860.692	45.98
860.863	47.49
861.034	48.25
861.204	48.47
861.375	53.74
861.546	53.34
861.716	49.39
861.887	56.37
862.057	60.14
862.228	62.08
862.398	65.23
862.569	66.42
862.739	61.56
862.91	60.88
863.08	58.25
863.251	56.4
863.421	56.74
863.592	58.68
863.762	54
863.932	45.59
864.103	41.83
864.273	44.33
864.443	43.14
864.614	44.97
864.784	45.77
864.954	48.47
865.125	46.94
865.295	47.94
865.465	47.72
865.635	50.62
865.805	53.84
865.976	57.81
866.146	61.38
866.316	64.49
866.486	65.51
866.656	60.68
866.826	63.05
866.996	62.26
867.166	64.44
867.336	69.71
867.506	67.49
867.676	67.96
867.846	69.16
868.016	62.48
868.186	57.04
868.356	56.76
868.526	63.56
868.696	59.44
868.866	62.97
869.036	59.72
869.206	54.09
869.376	53.25
869.545	52.46
869.715	49.18
869.885	53.06
870.055	57.35
870.224	57.02
870.394	56.9
870.564	58.7
870.734	61.36
870.903	63.06
871.073	63.51
871.243	64.52
871.412	71.59
871.582	73.85
871.751	72.1
871.921	70.94
872.091	70.02
872.26	65.72
872.43	64.01
872.599	57.88
872.769	54.43
872.938	53.56
873.108	51.01
873.277	43.06
873.446	41.23
873.616	42.38
873.785	41.63
873.955	43.43
874.124	47.16
874.293	49.11
874.463	53.46
874.632	53.57
874.801	55.3
874.971	55.68
875.14	60.22
875.309	59.74
875.478	60.37
875.647	59.42
875.817	54.61
875.986	52.89
876.155	52.55
876.324	52.84
876.493	55.46
876.662	52.32
876.831	54.5
877	53.77
877.17	54.74
877.339	55.87
877.508	51.6
877.677	57.18
877.846	54.44
878.015	50.69
878.184	48.38
878.352	48.68
878.521	50.82
878.69	50.21
878.859	49.46
879.028	47
879.197	47.4
879.366	49.58
879.534	45.88
879.703	42.04
879.872	42.03
880.041	40.82
880.21	38.66
880.378	36.91
880.547	35.4
880.716	33.8
880.884	33.61
881.053	30.58
881.222	30.1
881.39	30.01
881.559	30.68
881.727	29.42
881.896	28.6
882.065	28.21
882.233	27.46
882.402	27.31
882.57	27.22
882.739	27.27
882.907	27.3
883.076	26.93
883.244	26.85
883.412	26.8
883.581	27.82
883.749	28.1
883.918	28.23
884.086	28.89
884.254	29.1
884.423	29.93
884.591	29.95
884.759	30.98
884.927	32.02
885.096	32.6
885.264	33.47
885.432	33.11
885.6	33.33
885.769	34.39
885.937	35.67
886.105	37.02
886.273	38.85
886.441	37.5
886.609	36.21
886.777	37.19
886.945	39.13
887.113	41.12
887.281	43.84
887.449	46.82
887.617	48.29
887.785	47.49
887.953	46.01
888.121	46.99
888.289	52.47
888.457	57.97
888.625	61.28
888.793	64.74
888.961	64.61
889.129	63.11
889.296	59.78
889.464	59.58
889.632	62.95
889.8	66.58
889.967	64.78
890.135	63.96
