Data from 2938763__Reflection_01.txt Node
Date: Fri Mar 13 16:41:14 EDT 2015
User: robert
Spectrometer: USB4E03002
Autoset integration time: false
Trigger mode: 4
Integration Time (sec): 1.000000E-1
Scans to average: 10
Electric dark correction enabled: false
Nonlinearity correction enabled: false
Boxcar width: 5
Stray light correction enabled: false
XAxis mode: Wavelengths
Stop averaging: false
Number of Pixels in Spectrum: 3648
>>>>>Begin Spectral Data<<<<<
177.575	-1060.42
177.794	-5200
178.014	-900
178.233	-500.65
178.452	-317.43
178.672	-242.81
178.891	-117.74
179.11	-101.42
179.33	-138.37
179.549	-304
179.768	-198.98
179.987	-266.41
180.207	-221.36
180.426	-253.38
180.645	-962.22
180.864	-4814.29
181.084	1339.33
181.303	1298.85
181.522	425.66
181.741	571.92
181.96	898.94
182.179	418.14
182.398	364.46
182.618	281.39
182.837	186.93
183.056	211.7
183.275	204.94
183.494	149.58
183.713	157.01
183.932	131.66
184.151	137.41
184.37	116.71
184.589	100.1
184.808	101.56
185.027	100.77
185.246	79.3
185.465	66.99
185.684	89.63
185.903	100.46
186.122	129.2
186.341	188.99
186.56	674.47
186.779	423.42
186.998	-150
187.216	-613.64
187.435	342.86
187.654	-2940
187.873	-372.67
188.092	9066.67
188.311	595.1
188.53	200
188.748	191.5
188.967	170.06
189.186	135.93
189.405	117.52
189.623	130.61
189.842	177.01
190.061	328.76
190.28	180.3
190.498	220.63
190.717	176.86
190.936	218.92
191.154	199.56
191.373	215.04
191.592	162.12
191.81	232.35
192.029	318
192.248	448.72
192.466	167.04
192.685	136.57
192.904	166.67
193.122	161.7
193.341	153.27
193.559	465.98
193.778	795.71
193.996	2125.93
194.215	-921.95
194.433	1662.07
194.652	-619.72
194.87	-192.93
195.089	-2642.11
195.307	944.64
195.526	-3088.24
195.744	714.85
195.963	320.1
196.181	155.33
196.399	193.64
196.618	165.27
196.836	165.37
197.055	130.79
197.273	138.32
197.491	161.43
197.71	137.42
197.928	117.12
198.146	124.42
198.365	107.15
198.583	131.05
198.801	110.7
199.019	127.58
199.238	134.86
199.456	115.84
199.674	124.37
199.892	133.99
200.111	139.43
200.329	158.58
200.547	179.38
200.765	237.3
200.983	281.1
201.202	280.17
201.42	251.85
201.638	183.54
201.856	240.68
202.074	159.71
202.292	176.5
202.51	173.33
202.728	172.01
202.946	141.32
203.165	124.07
203.383	122.42
203.601	119.8
203.819	138.96
204.037	165.58
204.255	207.53
204.473	251.98
204.691	160.63
204.909	147.12
205.127	135.15
205.345	153.92
205.562	200
205.78	156
205.998	187.86
206.216	283.74
206.434	222.3
206.652	167.25
206.87	282.74
207.088	305.99
207.306	903.17
207.523	549.57
207.741	430.3
207.959	283.25
208.177	409.92
208.395	151.18
208.612	94.96
208.83	101.04
209.048	143.68
209.266	128.62
209.483	129.3
209.701	140.48
209.919	174.66
210.136	167.64
210.354	206.9
210.572	204.85
210.79	236.32
211.007	251.03
211.225	199.21
211.442	200.7
211.66	172.47
211.878	135.99
212.095	139.61
212.313	94.85
212.53	94.9
212.748	78.69
212.966	70.5
213.183	66.93
213.401	67.85
213.618	67.71
213.836	76.8
214.053	80.83
214.271	105.22
214.488	95.67
214.705	137.47
214.923	147.58
215.14	114.38
215.358	113.64
215.575	98.49
215.793	92.89
216.01	107.14
216.227	100.62
216.445	98.06
216.662	78.93
216.879	67.46
217.097	77.1
217.314	65.71
217.531	73.87
217.749	68.73
217.966	63.55
218.183	63.17
218.4	71.84
218.618	67.66
218.835	64.63
219.052	73.55
219.269	69.67
219.487	57.94
219.704	51.54
219.921	43.31
220.138	40.41
220.355	46.3
220.572	33.65
220.79	29.94
221.007	34.97
221.224	33.38
221.441	31.64
221.658	31.3
221.875	35.28
222.092	36.23
222.309	52.63
222.526	58.12
222.743	47.13
222.96	47.99
223.177	47.68
223.394	42.2
223.611	39.82
223.828	35.67
224.045	38.24
224.262	35
224.479	35.25
224.696	24.21
224.913	18.45
225.13	18.92
225.347	18.81
225.564	19.53
225.781	16.36
225.997	17.06
226.214	18.91
226.431	17.92
226.648	13.21
226.865	12.41
227.082	13.64
227.298	12.75
227.515	12.35
227.732	10.81
227.949	9.28
228.165	9.14
228.382	7.81
228.599	7.06
228.816	6.54
229.032	7.26
229.249	6.81
229.466	6.38
229.682	7.42
229.899	7.47
230.116	7.66
230.332	7.83
230.549	7.66
230.765	8.25
230.982	8.56
231.199	9.79
231.415	10.56
231.632	11.11
231.848	11.28
232.065	10.62
232.281	12.21
232.498	12.47
232.714	12.1
232.931	13.14
233.147	13.11
233.364	11.69
233.58	8.6
233.797	7.07
234.013	8.24
234.23	7.01
234.446	6.2
234.662	5.46
234.879	6.06
235.095	4.83
235.312	5.22
235.528	4.15
235.744	6.06
235.961	7.33
236.177	8.71
236.393	8.84
236.61	8.69
236.826	10.4
237.042	10.74
237.258	11.03
237.475	14.07
237.691	12.52
237.907	11
238.123	8.88
238.339	10.24
238.556	9.49
238.772	7.48
238.988	8.28
239.204	8.57
239.42	7.86
239.636	6.43
239.853	4.66
240.069	4.62
240.285	5.13
240.501	6.1
240.717	6.22
240.933	7.42
241.149	7.16
241.365	7.05
241.581	5.75
241.797	5.43
242.013	5.73
242.229	6.04
242.445	6.34
242.661	7.38
242.877	7.29
243.093	6.65
243.309	5.51
243.525	5.66
243.741	5.76
243.957	7.14
244.173	7.68
244.388	8.13
244.604	8.22
244.82	8.45
245.036	8.05
245.252	8.23
245.468	8.34
245.683	8.64
245.899	8.56
246.115	8.31
246.331	7.75
246.547	7.52
246.762	6.85
246.978	6.89
247.194	6.57
247.409	6.51
247.625	6.52
247.841	6.67
248.057	6.44
248.272	6.45
248.488	6.15
248.703	6.01
248.919	6.01
249.135	6.18
249.35	5.59
249.566	5.73
249.782	5.28
249.997	4.78
250.213	4.9
250.428	5.46
250.644	6.43
250.859	6.4
251.075	6.16
251.29	5.94
251.506	5.62
251.721	5.51
251.937	5.27
252.152	5.29
252.368	5.14
252.583	4.82
252.798	4.44
253.014	3.86
253.229	4.71
253.445	4.7
253.66	5.44
253.875	6.34
254.091	7.24
254.306	7.74
254.521	8.72
254.737	9.52
254.952	8.22
255.167	8.72
255.383	8.11
255.598	6.91
255.813	6.93
256.028	6.81
256.244	6.33
256.459	5.94
256.674	5.1
256.889	4.4
257.104	4.24
257.32	4.72
257.535	4.11
257.75	4.07
257.965	4.43
258.18	4.52
258.395	4.21
258.61	3.88
258.826	4.14
259.041	3.94
259.256	4.23
259.471	4.28
259.686	4.44
259.901	4.65
260.116	4.69
260.331	4.59
260.546	4.32
260.761	4.37
260.976	4.54
261.191	4.53
261.406	5.15
261.621	4.77
261.836	4.51
262.05	4.66
262.265	4.39
262.48	4.47
262.695	4.91
262.91	5.84
263.125	5.84
263.34	6.09
263.555	5.97
263.769	5.77
263.984	5.99
264.199	6.08
264.414	5.92
264.629	6.27
264.843	6.49
265.058	6.28
265.273	5.75
265.488	5.84
265.702	5.96
265.917	6.06
266.132	6.29
266.346	6.13
266.561	6.3
266.776	6.18
266.99	5.79
267.205	5.41
267.42	4.95
267.634	5.09
267.849	4.67
268.063	4.73
268.278	4.18
268.492	3.18
268.707	3.54
268.922	3.41
269.136	3.71
269.351	3.61
269.565	3.84
269.78	4.15
269.994	3.76
270.209	4.22
270.423	4.13
270.637	4.69
270.852	5.52
271.066	4.92
271.281	4.92
271.495	4.7
271.709	4.74
271.924	4.35
272.138	4.54
272.353	4.39
272.567	4.03
272.781	3.97
272.996	3.44
273.21	3.45
273.424	3.76
273.638	3.57
273.853	3.71
274.067	3.93
274.281	4.2
274.495	3.77
274.71	3.8
274.924	3.93
275.138	3.87
275.352	4.24
275.566	3.77
275.781	3.95
275.995	3.72
276.209	3.66
276.423	3.38
276.637	3.77
276.851	3.87
277.065	3.89
277.279	3.66
277.493	3.27
277.707	3.03
277.921	3.32
278.135	3.28
278.349	3.34
278.563	3.33
278.777	3.91
278.991	3.86
279.205	3.76
279.419	3.89
279.633	4.54
279.847	5.03
280.061	5.26
280.275	5.14
280.489	4.97
280.703	5.4
280.917	5.3
281.131	4.95
281.344	4.37
281.558	4.37
281.772	4.22
281.986	3.86
282.2	3.7
282.414	3.65
282.627	3.65
282.841	3.88
283.055	3.67
283.269	3.32
283.482	3.06
283.696	3.43
283.91	3.4
284.123	3.44
284.337	3.41
284.551	3.61
284.764	3.7
284.978	3.73
285.192	3.68
285.405	3.92
285.619	4.15
285.833	4.27
286.046	4.08
286.26	4.05
286.473	4.25
286.687	4.29
286.9	4.29
287.114	4.33
287.327	4.18
287.541	3.73
287.754	3.48
287.968	3.57
288.181	3.8
288.395	3.81
288.608	4.26
288.822	4.25
289.035	4.06
289.248	3.75
289.462	3.91
289.675	3.96
289.889	4.53
290.102	4.46
290.315	4.33
290.529	4.09
290.742	4.17
290.955	3.81
291.169	3.58
291.382	3.54
291.595	3.65
291.808	3.5
292.022	3.5
292.235	3.07
292.448	3.47
292.661	3.22
292.875	3.54
293.088	3.5
293.301	3.73
293.514	4.03
293.727	4.05
293.94	4.17
294.153	4.35
294.367	4.19
294.58	4.39
294.793	4.07
295.006	4.4
295.219	4.19
295.432	4.24
295.645	3.92
295.858	3.97
296.071	4.11
296.284	4.04
296.497	3.98
296.71	4.1
296.923	4.15
297.136	4.45
297.349	4.57
297.562	4.88
297.775	4.78
297.988	5.12
298.201	5.12
298.414	5.38
298.626	5.65
298.839	5.81
299.052	5.8
299.265	5.84
299.478	5.63
299.691	5.77
299.903	5.61
300.116	5.82
300.329	5.65
300.542	5.65
300.755	5.39
300.967	5.08
301.18	5.04
301.393	5.37
301.605	5.15
301.818	5.19
302.031	4.96
302.243	5.17
302.456	5.39
302.669	5.57
302.881	5.82
303.094	5.95
303.307	6.4
303.519	6.25
303.732	6.34
303.944	6.46
304.157	6.72
304.37	6.8
304.582	6.35
304.795	6.42
305.007	6.9
305.22	6.86
305.432	6.85
305.645	6.79
305.857	7.16
306.069	7.55
306.282	7.76
306.494	7.86
306.707	8.06
306.919	8.31
307.132	8.26
307.344	7.63
307.556	7.78
307.769	8.43
307.981	8.18
308.193	7.97
308.406	7.45
308.618	7.68
308.83	7.46
309.043	7.03
309.255	7.4
309.467	7.08
309.679	7.1
309.892	7.02
310.104	6.45
310.316	6.81
310.528	6.71
310.74	6.63
310.953	6.52
311.165	6.61
311.377	6.87
311.589	6.4
311.801	6.68
312.013	6.8
312.225	6.69
312.437	7
312.649	6.97
312.862	6.96
313.074	7.12
313.286	7.03
313.498	7.06
313.71	6.76
313.922	7.07
314.134	6.77
314.346	6.91
314.558	7
314.77	7.15
314.982	7.06
315.193	7.19
315.405	7.09
315.617	6.88
315.829	6.84
316.041	7.23
316.253	6.71
316.465	7.09
316.677	7
316.888	6.87
317.1	6.75
317.312	6.59
317.524	6.62
317.736	6.73
317.947	7.08
318.159	7.5
318.371	7.54
318.583	8.49
318.794	8.12
319.006	8.02
319.218	8.08
319.43	7.66
319.641	7.94
319.853	8.01
320.064	8.44
320.276	8.77
320.488	8.05
320.699	7.98
320.911	7.15
321.123	7.58
321.334	7.26
321.546	7.63
321.757	8.16
321.969	7.99
322.18	7.95
322.392	7.72
322.603	7.53
322.815	8.27
323.026	8.04
323.238	8.42
323.449	8.54
323.661	8.87
323.872	9.05
324.083	8.79
324.295	8.98
324.506	8.98
324.718	9.11
324.929	9.18
325.14	8.78
325.352	9.07
325.563	9.09
325.774	9.18
325.986	9.15
326.197	8.97
326.408	8.88
326.62	8.94
326.831	9.1
327.042	9.39
327.253	9.31
327.464	9.5
327.676	9.84
327.887	10.04
328.098	10.01
328.309	10.28
328.52	10.51
328.732	10.9
328.943	10.98
329.154	10.59
329.365	10.28
329.576	10.71
329.787	10.73
329.998	10.54
330.209	10.62
330.42	10.7
330.631	10.95
330.842	10.63
331.053	11.06
331.264	11.14
331.475	11.62
331.686	11.82
331.897	11.9
332.108	11.87
332.319	12.05
332.53	11.84
332.741	11.73
332.952	11.99
333.163	11.89
333.374	11.59
333.585	11.53
333.795	11.69
334.006	11.92
334.217	11.97
334.428	12.36
334.639	12.36
334.849	12.24
335.06	12.34
335.271	11.95
335.482	12.2
335.692	12.21
335.903	12.31
336.114	12.17
336.325	12.01
336.535	11.45
336.746	11.34
336.957	11.12
337.167	11.32
337.378	11.64
337.589	11.67
337.799	11.7
338.01	11.56
338.22	11.38
338.431	11.33
338.642	11.18
338.852	11.8
339.063	11.72
339.273	11.95
339.484	11.83
339.694	11.69
339.905	11.79
340.115	12
340.326	11.86
340.536	11.82
340.746	11.93
340.957	11.96
341.167	11.44
341.378	11.61
341.588	11.48
341.799	11.65
342.009	11.3
342.219	11.22
342.43	11.01
342.64	11.31
342.85	11.43
343.061	11.57
343.271	11.59
343.481	11.84
343.691	11.74
343.902	11.8
344.112	11.9
344.322	12.36
344.532	12.24
344.743	12.12
344.953	12.06
345.163	11.78
345.373	11.58
345.583	11.58
345.793	11.42
346.004	11.55
346.214	11.46
346.424	11.33
346.634	11.08
346.844	11.15
347.054	11.39
347.264	11.43
347.474	11.44
347.684	11.36
347.894	11.24
348.104	11.36
348.314	11.2
348.524	11.14
348.734	11.19
348.944	11.07
349.154	11.04
349.364	10.92
349.574	10.7
349.784	10.79
349.994	10.62
350.204	10.58
350.413	10.81
350.623	10.73
350.833	10.75
351.043	10.91
351.253	10.88
351.463	10.62
351.672	10.5
351.882	10.45
352.092	10.49
352.302	10.92
352.511	10.82
352.721	10.57
352.931	10.59
353.141	10.62
353.35	10.29
353.56	10.4
353.77	10.86
353.979	11.11
354.189	11.4
354.399	11.65
354.608	11.54
354.818	11.54
355.027	11.51
355.237	11.39
355.447	11.54
355.656	11.78
355.866	11.89
356.075	11.66
356.285	11.63
356.494	11.68
356.704	11.37
356.913	11.28
357.123	11.48
357.332	11.5
357.542	11.62
357.751	11.67
357.96	11.44
358.17	11.21
358.379	11.4
358.589	11.29
358.798	11.13
359.007	11.02
359.217	11.09
359.426	10.86
359.635	10.84
359.845	10.61
360.054	10.44
360.263	10.49
360.472	10.41
360.682	10.36
360.891	10.17
361.1	10.15
361.309	10.42
361.519	10.36
361.728	10.34
361.937	10.28
362.146	10.46
362.355	10.53
362.564	10.61
362.774	10.88
362.983	10.78
363.192	10.82
363.401	10.7
363.61	10.41
363.819	10.47
364.028	10.46
364.237	10.38
364.446	10.28
364.655	9.99
364.864	9.96
365.073	9.54
365.282	9.5
365.491	9.52
365.7	9.61
365.909	9.82
366.118	9.54
366.327	9.69
366.536	9.78
366.745	9.77
366.954	9.82
367.162	9.63
367.371	9.61
367.58	9.7
367.789	9.54
367.998	9.54
368.207	9.46
368.415	9.49
368.624	9.4
368.833	9.2
369.042	9.17
369.25	9.09
369.459	9
369.668	8.97
369.877	8.77
370.085	8.86
370.294	8.81
370.503	8.88
370.711	8.69
370.92	8.52
371.129	8.84
371.337	8.74
371.546	8.79
371.754	8.76
371.963	9.01
372.171	9.06
372.38	8.89
372.589	8.81
372.797	8.52
373.006	8.7
373.214	8.83
373.423	8.6
373.631	8.62
373.84	8.49
374.048	8.94
374.256	8.79
374.465	8.78
374.673	8.83
374.882	8.98
375.09	9.07
375.298	8.98
375.507	8.75
375.715	8.69
375.923	8.61
376.132	8.63
376.34	8.32
376.548	8.36
376.757	8.16
376.965	8.26
377.173	8.02
377.381	8
377.59	8.14
377.798	8.36
378.006	8.16
378.214	8.02
378.423	8
378.631	7.98
378.839	7.81
379.047	7.89
379.255	7.96
379.463	7.94
379.671	7.68
379.879	7.51
380.088	7.33
380.296	7.75
380.504	7.67
380.712	7.69
380.92	7.53
381.128	7.5
381.336	7.4
381.544	7.32
381.752	7.43
381.96	7.75
382.168	7.71
382.376	7.63
382.584	7.39
382.791	7.4
382.999	7.25
383.207	7.5
383.415	7.53
383.623	7.45
383.831	6.93
384.039	6.86
384.247	6.65
384.454	6.76
384.662	6.6
384.87	6.44
385.078	6.56
385.285	6.46
385.493	6.3
385.701	6.1
385.909	6.12
386.116	6.38
386.324	6.29
386.532	6.27
386.739	6.21
386.947	6.4
387.155	6.28
387.362	6.21
387.57	6.09
387.778	5.92
387.985	6.05
388.193	5.96
388.4	5.94
388.608	5.87
388.816	5.7
389.023	5.59
389.231	5.57
389.438	5.64
389.646	5.55
389.853	5.53
390.061	5.65
390.268	5.62
390.475	5.71
390.683	5.73
390.89	5.7
391.098	5.79
391.305	5.7
391.512	5.64
391.72	5.55
391.927	5.64
392.135	5.75
392.342	5.6
392.549	5.53
392.756	5.38
392.964	5.39
393.171	5.43
393.378	5.32
393.586	5.42
393.793	5.4
394	5.51
394.207	5.56
394.414	5.5
394.622	5.64
394.829	5.62
395.036	5.67
395.243	5.46
395.45	5.33
395.657	5.38
395.864	5.4
396.072	5.31
396.279	5.23
396.486	5.07
396.693	5.17
396.9	4.9
397.107	5.06
397.314	5.07
397.521	4.95
397.728	5.24
397.935	5.01
398.142	4.86
398.349	4.88
398.556	4.63
398.763	4.89
398.97	4.86
399.177	5.06
399.383	4.81
399.59	4.79
399.797	4.84
400.004	4.63
400.211	4.79
400.418	4.95
400.625	4.87
400.831	5.07
401.038	4.86
401.245	4.69
401.452	4.67
401.658	4.75
401.865	4.68
402.072	4.69
402.279	4.71
402.485	4.55
402.692	4.48
402.899	4.45
403.105	4.37
403.312	4.32
403.519	4.41
403.725	4.24
403.932	4.29
404.138	4.35
404.345	4.52
404.552	4.41
404.758	4.48
404.965	4.36
405.171	4.26
405.378	4.27
405.584	4.29
405.791	4.27
405.997	4.36
406.204	4.24
406.41	4.23
406.617	4.09
406.823	4.09
407.029	4.09
407.236	4.14
407.442	4.24
407.649	4.39
407.855	4.19
408.061	4.17
408.268	4.16
408.474	4.16
408.68	4.23
408.887	4.4
409.093	4.35
409.299	4.4
409.505	4.23
409.712	4.3
409.918	4.2
410.124	4.23
410.33	4.15
410.537	3.99
410.743	4.04
410.949	3.83
411.155	3.67
411.361	3.65
411.567	3.38
411.773	3.58
411.98	3.6
412.186	3.58
412.392	3.74
412.598	3.73
412.804	4
413.01	3.86
413.216	4.02
413.422	4.04
413.628	4.15
413.834	4.37
414.04	4.26
414.246	4.17
414.452	4.09
414.658	3.85
414.864	3.88
415.07	3.68
415.275	3.83
415.481	3.74
415.687	3.7
415.893	3.59
416.099	3.5
416.305	3.43
416.511	3.38
416.716	3.26
416.922	3.39
417.128	3.34
417.334	3.37
417.539	3.28
417.745	3.38
417.951	3.36
418.157	3.35
418.362	3.46
418.568	3.5
418.774	3.51
418.979	3.59
419.185	3.56
419.391	3.58
419.596	3.55
419.802	3.62
420.008	3.51
420.213	3.48
420.419	3.52
420.624	3.47
420.83	3.47
421.035	3.42
421.241	3.38
421.446	3.38
421.652	3.37
421.857	3.3
422.063	3.25
422.268	3.3
422.474	3.26
422.679	3.23
422.885	3.18
423.09	3.19
423.295	3.23
423.501	3.25
423.706	3.31
423.911	3.28
424.117	3.35
424.322	3.29
424.527	3.28
424.733	3.24
424.938	3.29
425.143	3.29
425.349	3.32
425.554	3.32
425.759	3.29
425.964	3.23
426.169	3.29
426.375	3.3
426.58	3.33
426.785	3.35
426.99	3.56
427.195	3.46
427.4	3.56
427.605	3.39
427.811	3.31
428.016	3.35
428.221	3.44
428.426	3.37
428.631	3.36
428.836	3.3
429.041	3.25
429.246	3.21
429.451	3.15
429.656	3.05
429.861	3.1
430.066	3.22
430.271	3.15
430.476	3.02
430.681	3.06
430.886	3.13
431.09	3.28
431.295	3.25
431.5	3.23
431.705	3.33
431.91	3.37
432.115	3.34
432.32	3.25
432.524	3.26
432.729	3.29
432.934	3.36
433.139	3.36
433.343	3.21
433.548	3.2
433.753	3.18
433.958	3.28
434.162	3.35
434.367	3.49
434.572	3.45
434.776	3.58
434.981	3.51
435.186	3.45
435.39	3.47
435.595	3.57
435.799	3.48
436.004	3.47
436.209	3.26
436.413	3.12
436.618	3.06
436.822	3.17
437.027	3.16
437.231	3.16
437.436	3.14
437.64	3.02
437.845	3.04
438.049	3.15
438.253	3.09
438.458	3.13
438.662	3.2
438.867	3.13
439.071	3.03
439.275	2.96
439.48	3.03
439.684	3.06
439.888	3.08
440.093	3.1
440.297	3.11
440.501	3.17
440.706	3.18
440.91	3.18
441.114	3.22
441.318	3.3
441.523	3.3
441.727	3.32
441.931	3.33
442.135	3.36
442.339	3.3
442.543	3.22
442.748	3.21
442.952	3.28
443.156	3.32
443.36	3.4
443.564	3.5
443.768	3.47
443.972	3.44
444.176	3.42
444.38	3.4
444.584	3.38
444.788	3.4
444.992	3.43
445.196	3.4
445.4	3.4
445.604	3.3
445.808	3.23
446.012	3.28
446.216	3.25
446.42	3.25
446.624	3.25
446.828	3.29
447.032	3.29
447.235	3.17
447.439	3.11
447.643	3.11
447.847	3.16
448.051	3.11
448.254	3.1
448.458	3.1
448.662	3.07
448.866	3.01
449.069	3.06
449.273	3.03
449.477	3.13
449.681	3.25
449.884	3.26
450.088	3.15
450.292	3.12
450.495	3.17
450.699	3.28
450.902	3.34
451.106	3.44
451.31	3.34
451.513	3.5
451.717	3.46
451.92	3.38
452.124	3.31
452.327	3.41
452.531	3.41
452.734	3.35
452.938	3.27
453.141	3.3
453.345	3.29
453.548	3.2
453.752	3.08
453.955	3.1
454.158	3.11
454.362	3.09
454.565	3.05
454.769	3.09
454.972	3.06
455.175	3.14
455.379	3
455.582	3.06
455.785	3.18
455.988	3.28
456.192	3.32
456.395	3.33
456.598	3.36
456.801	3.34
457.005	3.38
457.208	3.44
457.411	3.38
457.614	3.39
457.817	3.27
458.021	3.22
458.224	3.16
458.427	3.05
458.63	3.05
458.833	3.03
459.036	3.12
459.239	3.08
459.442	3.01
459.645	2.99
459.848	2.98
460.051	2.98
460.254	2.97
460.457	2.95
460.66	2.95
460.863	3.03
461.066	3.02
461.269	2.96
461.472	3
461.675	3.05
461.878	3.03
462.081	3.09
462.284	3.18
462.486	3.16
462.689	3.25
462.892	3.33
463.095	3.3
463.298	3.36
463.5	3.27
463.703	3.27
463.906	3.26
464.109	3.3
464.311	3.3
464.514	3.19
464.717	3.27
464.92	3.12
465.122	3.15
465.325	3.08
465.528	3.02
465.73	3.12
465.933	3.04
466.135	3.06
466.338	3.01
466.541	3.04
466.743	3.12
466.946	3.15
467.148	3.28
467.351	3.25
467.553	3.24
467.756	3.29
467.958	3.36
468.161	3.36
468.363	3.34
468.566	3.4
468.768	3.39
468.971	3.44
469.173	3.49
469.375	3.44
469.578	3.53
469.78	3.52
469.983	3.51
470.185	3.49
470.387	3.52
470.59	3.45
470.792	3.5
470.994	3.59
471.196	3.5
471.399	3.43
471.601	3.4
471.803	3.35
472.005	3.44
472.208	3.44
472.41	3.48
472.612	3.52
472.814	3.64
473.016	3.62
473.218	3.5
473.421	3.44
473.623	3.36
473.825	3.39
474.027	3.26
474.229	3.25
474.431	3.24
474.633	3.2
474.835	3.1
475.037	3.15
475.239	3.08
475.441	3.05
475.643	3.19
475.845	3.19
476.047	3.19
476.249	3.33
476.451	3.38
476.653	3.36
476.855	3.33
477.057	3.44
477.258	3.4
477.46	3.36
477.662	3.42
477.864	3.28
478.066	3.28
478.268	3.27
478.469	3.21
478.671	3.23
478.873	3.23
479.075	3.21
479.276	3.17
479.478	3.14
479.68	3.23
479.882	3.15
480.083	3.25
480.285	3.25
480.487	3.21
480.688	3.28
480.89	3.21
481.091	3.2
481.293	3.19
481.495	3.15
481.696	3.17
481.898	3.13
482.099	3.16
482.301	3.15
482.502	3.11
482.704	3.1
482.905	3.07
483.107	3.01
483.308	3
483.51	2.99
483.711	2.97
483.913	2.99
484.114	2.97
484.315	2.94
484.517	2.91
484.718	2.93
484.92	2.93
485.121	2.92
485.322	2.96
485.524	2.97
485.725	3
485.926	3
486.127	3.01
486.329	3.03
486.53	3.05
486.731	3.04
486.932	3.04
487.134	3.03
487.335	3.04
487.536	3.03
487.737	3.04
487.938	3.02
488.139	3.04
488.341	3.02
488.542	3
488.743	3.02
488.944	3.07
489.145	3.1
489.346	3.12
489.547	3.07
489.748	3.13
489.949	3.12
490.15	3.12
490.351	3.11
490.552	3.07
490.753	3.09
490.954	3.07
491.155	3.04
491.356	3.04
491.557	3.04
491.758	3.09
491.959	3.04
492.159	3.05
492.36	3.05
492.561	3.11
492.762	3.15
492.963	3.13
493.164	3.14
493.364	3.17
493.565	3.14
493.766	3.2
493.967	3.21
494.167	3.28
494.368	3.34
494.569	3.34
494.769	3.3
494.97	3.32
495.171	3.38
495.371	3.45
495.572	3.51
495.773	3.55
495.973	3.53
496.174	3.63
496.375	3.58
496.575	3.5
496.776	3.51
496.976	3.52
497.177	3.55
497.377	3.61
497.578	3.61
497.778	3.63
497.979	3.62
498.179	3.68
498.38	3.65
498.58	3.77
498.78	3.82
498.981	3.78
499.181	3.81
499.382	3.84
499.582	3.82
499.782	3.86
499.983	3.88
500.183	3.86
500.383	3.87
500.584	3.85
500.784	3.84
500.984	3.86
501.184	3.99
501.385	3.95
501.585	3.91
501.785	3.93
501.985	3.9
502.185	3.94
502.386	4.15
502.586	4.17
502.786	4.26
502.986	4.3
503.186	4.45
503.386	4.46
503.586	4.58
503.786	4.57
503.987	4.6
504.187	4.73
504.387	4.78
504.587	4.75
504.787	4.71
504.987	4.67
505.187	4.7
505.387	4.67
505.587	4.74
505.786	4.77
505.986	4.94
506.186	5.02
506.386	4.96
506.586	4.99
506.786	4.98
506.986	5.05
507.186	5.2
507.386	5.29
507.585	5.32
507.785	5.33
507.985	5.28
508.185	5.3
508.384	5.38
508.584	5.45
508.784	5.46
508.984	5.56
509.183	5.7
509.383	5.68
509.583	5.68
509.782	5.74
509.982	5.71
510.182	5.85
510.381	5.91
510.581	5.96
510.781	5.98
510.98	6.02
511.18	6.12
511.379	6.08
511.579	6.17
511.778	6.29
511.978	6.27
512.177	6.42
512.377	6.52
512.576	6.54
512.776	6.53
512.975	6.64
513.175	6.7
513.374	6.71
513.573	6.83
513.773	6.87
513.972	6.88
514.172	6.97
514.371	7.04
514.57	7.05
514.77	7.09
514.969	7.21
515.168	7.37
515.367	7.51
515.567	7.6
515.766	7.72
515.965	7.91
516.164	7.93
516.364	8.07
516.563	8.09
516.762	8.18
516.961	8.32
517.16	8.36
517.359	8.38
517.559	8.48
517.758	8.5
517.957	8.51
518.156	8.51
518.355	8.63
518.554	8.71
518.753	8.82
518.952	8.91
519.151	9.02
519.35	9.1
519.549	9.17
519.748	9.17
519.947	9.28
520.146	9.39
520.345	9.43
520.544	9.5
520.743	9.61
520.942	9.71
521.141	9.77
521.339	9.86
521.538	10.08
521.737	10.22
521.936	10.43
522.135	10.52
522.333	10.7
522.532	10.86
522.731	10.97
522.93	11.08
523.129	11.21
523.327	11.3
523.526	11.39
523.725	11.36
523.923	11.44
524.122	11.49
524.321	11.67
524.519	11.66
524.718	11.79
524.917	11.89
525.115	11.97
525.314	12.02
525.512	12.1
525.711	12.21
525.909	12.3
526.108	12.35
526.306	12.43
526.505	12.53
526.703	12.63
526.902	12.68
527.1	12.74
527.299	12.82
527.497	12.92
527.696	13.01
527.894	13.02
528.092	13.06
528.291	13.14
528.489	13.19
528.688	13.16
528.886	13.19
529.084	13.2
529.283	13.25
529.481	13.28
529.679	13.33
529.877	13.35
530.076	13.39
530.274	13.45
530.472	13.49
530.67	13.57
530.869	13.73
531.067	13.83
531.265	13.94
531.463	14.06
531.661	14.19
531.859	14.31
532.057	14.44
532.255	14.51
532.454	14.63
532.652	14.75
532.85	14.82
533.048	14.9
533.246	14.94
533.444	15.01
533.642	15.03
533.84	15.04
534.038	15.07
534.236	15.08
534.434	15.17
534.632	15.21
534.83	15.24
535.027	15.29
535.225	15.3
535.423	15.41
535.621	15.54
535.819	15.66
536.017	15.77
536.215	15.9
536.412	16.03
536.61	16.1
536.808	16.2
537.006	16.3
537.203	16.45
537.401	16.66
537.599	16.83
537.797	16.98
537.994	17.18
538.192	17.31
538.39	17.42
538.587	17.57
538.785	17.72
538.983	17.89
539.18	18.13
539.378	18.22
539.575	18.31
539.773	18.43
539.97	18.5
540.168	18.55
540.366	18.62
540.563	18.7
540.761	18.76
540.958	18.83
541.155	18.85
541.353	18.87
541.55	18.88
541.748	18.91
541.945	18.97
542.143	19.03
542.34	19.12
542.537	19.17
542.735	19.25
542.932	19.36
543.129	19.55
543.327	19.74
543.524	19.91
543.721	20.22
543.919	20.47
544.116	20.74
544.313	21.09
544.51	21.44
544.708	21.83
544.905	22.16
545.102	22.48
545.299	22.72
545.496	22.92
545.693	23.14
545.891	23.2
546.088	23.18
546.285	23.07
546.482	22.9
546.679	22.72
546.876	22.61
547.073	22.37
547.27	22.16
547.467	21.94
547.664	21.76
547.861	21.52
548.058	21.36
548.255	21.24
548.452	21.33
548.649	21.25
548.846	21.26
549.043	21.16
549.24	21.25
549.437	21.24
549.633	21.13
549.83	21.13
550.027	21.05
550.224	21
550.421	21.05
550.618	20.92
550.814	20.9
551.011	20.73
551.208	20.7
551.405	20.68
551.601	20.61
551.798	20.74
551.995	20.63
552.191	20.65
552.388	20.66
552.585	20.65
552.781	20.5
552.978	20.52
553.175	20.51
553.371	20.47
553.568	20.47
553.764	20.45
553.961	20.36
554.157	20.34
554.354	20.36
554.55	20.27
554.747	20.29
554.943	20.42
555.14	20.38
555.336	20.41
555.533	20.41
555.729	20.35
555.926	20.43
556.122	20.47
556.318	20.55
556.515	20.65
556.711	20.72
556.907	20.76
557.104	20.67
557.3	20.76
557.496	20.73
557.693	20.99
557.889	21.01
558.085	21
558.281	21.1
558.478	21.31
558.674	21.29
558.87	21.34
559.066	21.27
559.262	21.37
559.459	21.29
559.655	21.35
559.851	21.22
560.047	21.25
560.243	21.24
560.439	21.17
560.635	20.96
560.831	20.91
561.027	20.95
561.223	21.09
561.419	21.05
561.615	21.21
561.811	21.25
562.007	21.25
562.203	21.34
562.399	21.34
562.595	21.45
562.791	21.6
562.987	21.65
563.183	21.6
563.379	21.52
563.575	21.55
563.771	21.55
563.966	21.58
564.162	21.57
564.358	21.49
564.554	21.51
564.75	21.48
564.945	21.52
565.141	21.5
565.337	21.46
565.533	21.49
565.728	21.49
565.924	21.45
566.12	21.5
566.315	21.52
566.511	21.54
566.707	21.55
566.902	21.52
567.098	21.44
567.293	21.47
567.489	21.58
567.684	21.52
567.88	21.49
568.076	21.53
568.271	21.54
568.467	21.51
568.662	21.52
568.858	21.53
569.053	21.43
569.248	21.44
569.444	21.44
569.639	21.42
569.835	21.35
570.03	21.34
570.225	21.31
570.421	21.26
570.616	21.38
570.812	21.41
571.007	21.54
571.202	21.69
571.397	21.69
571.593	21.74
571.788	21.71
571.983	21.85
572.178	21.88
572.374	21.95
572.569	21.91
572.764	21.82
572.959	21.9
573.154	21.87
573.35	21.85
573.545	21.9
573.74	21.9
573.935	21.89
574.13	21.87
574.325	21.93
574.52	21.94
574.715	22.01
574.91	22.05
575.105	22.08
575.3	22.15
575.495	22.23
575.69	22.28
575.885	22.37
576.08	22.66
576.275	22.88
576.47	23.08
576.665	23.2
576.86	23.41
577.055	23.61
577.25	23.72
577.444	23.89
577.639	24.09
577.834	24.25
578.029	24.43
578.224	24.47
578.418	24.57
578.613	24.61
578.808	24.72
579.003	24.76
579.197	24.88
579.392	24.91
579.587	24.98
579.781	24.92
579.976	25
580.171	25.04
580.365	24.86
580.56	24.93
580.755	24.9
580.949	24.88
581.144	24.84
581.338	24.72
581.533	24.57
581.727	24.49
581.922	24.6
582.116	24.58
582.311	24.63
582.505	24.84
582.7	24.77
582.894	24.86
583.089	24.81
583.283	24.93
583.478	24.98
583.672	25.13
583.866	25.17
584.061	25.06
584.255	25.08
584.449	25.09
584.644	25.07
584.838	25.14
585.032	25.21
585.226	25.44
585.421	25.38
585.615	25.55
585.809	25.74
586.003	25.84
586.198	25.88
586.392	25.96
586.586	25.97
586.78	26.02
586.974	26.15
587.168	25.96
587.363	25.89
587.557	25.92
587.751	25.78
587.945	25.46
588.139	25.28
588.333	25.27
588.527	25.13
588.721	25.01
588.915	24.77
589.109	24.45
589.303	24.59
589.497	24.48
589.691	24.47
589.885	24.45
590.079	24.56
590.273	24.62
590.466	24.72
590.66	24.86
590.854	24.91
591.048	25.13
591.242	25.43
591.436	25.53
591.629	25.78
591.823	25.84
592.017	25.97
592.211	26.15
592.404	26.12
592.598	26.07
592.792	26.03
592.986	26.08
593.179	25.95
593.373	25.76
593.567	25.65
593.76	25.4
593.954	25.45
594.147	25.17
594.341	24.99
594.535	25.06
594.728	25.03
594.922	24.92
595.115	24.94
595.309	24.94
595.502	24.9
595.696	24.87
595.889	24.83
596.083	24.65
596.276	24.72
596.47	24.66
596.663	24.68
596.856	24.68
597.05	24.8
597.243	24.78
597.437	24.79
597.63	24.84
597.823	24.87
598.017	24.89
598.21	25.12
598.403	25.38
598.596	25.69
598.79	25.7
598.983	25.81
599.176	25.71
599.369	25.58
599.563	25.74
599.756	25.83
599.949	25.86
600.142	26
600.335	25.78
600.528	25.64
600.722	25.41
600.915	25.29
601.108	25.24
601.301	25.29
601.494	25.38
601.687	25.29
601.88	25.27
602.073	25.17
602.266	25.19
602.459	25.25
602.652	25.1
602.845	25.05
603.038	24.94
603.231	24.79
603.424	24.69
603.617	24.74
603.809	24.65
604.002	24.48
604.195	24.46
604.388	24.38
604.581	24.41
604.774	24.53
604.966	24.67
605.159	24.73
605.352	24.9
605.545	25.01
605.737	24.91
605.93	24.98
606.123	25.21
606.316	25.34
606.508	25.45
606.701	25.55
606.894	25.7
607.086	25.73
607.279	26.01
607.471	26.31
607.664	26.74
607.857	27.2
608.049	27.58
608.242	28.14
608.434	29.12
608.627	30.06
608.819	31.17
609.012	32.42
609.204	33.89
609.397	35.37
609.589	36.95
609.782	38.57
609.974	40.31
610.166	42.26
610.359	43.95
610.551	45.22
610.743	46.64
610.936	47.7
611.128	48.55
611.32	49.05
611.513	49.43
611.705	49.4
611.897	49.16
612.09	48.68
612.282	47.9
612.474	47.12
612.666	46.35
612.858	45.2
613.051	44.3
613.243	43.37
613.435	42.49
613.627	41.69
613.819	40.87
614.011	40.13
614.203	39.48
614.395	38.78
614.588	38.03
614.78	37.1
614.972	36.54
615.164	35.95
615.356	35.07
615.548	34.55
615.74	33.95
615.932	33.25
616.124	32.69
616.315	31.93
616.507	31.4
616.699	30.92
616.891	30.76
617.083	30.35
617.275	29.85
617.467	29.71
617.659	29.28
617.85	29.07
618.042	28.92
618.234	28.78
618.426	28.87
618.618	28.78
618.809	28.67
619.001	28.49
619.193	28.43
619.384	28.39
619.576	28.34
619.768	28.36
619.959	28.38
620.151	28.34
620.343	28.2
620.534	27.97
620.726	27.96
620.917	28.18
621.109	28.19
621.301	28.18
621.492	28.18
621.684	28.29
621.875	28.52
622.067	28.37
622.258	28.42
622.45	28.67
622.641	28.84
622.832	28.96
623.024	28.6
623.215	28.63
623.407	28.56
623.598	28.6
623.789	28.52
623.981	28.36
624.172	28.44
624.363	28.49
624.555	28.32
624.746	28.14
624.937	28.07
625.129	28.32
625.32	28.25
625.511	28.3
625.702	28.21
625.893	28.18
626.085	28.07
626.276	27.92
626.467	27.89
626.658	27.8
626.849	27.75
627.04	27.81
627.231	27.56
627.422	27.66
627.614	27.57
627.805	27.72
627.996	27.9
628.187	28.12
628.378	28.37
628.569	28.49
628.76	28.91
628.951	29.47
629.142	29.65
629.332	29.89
629.523	30.01
629.714	30.45
629.905	30.61
630.096	30.68
630.287	30.84
630.478	30.87
630.669	30.89
630.859	30.75
631.05	30.43
631.241	30.15
631.432	30.13
631.623	29.84
631.813	29.47
632.004	29.15
632.195	28.66
632.385	28.2
632.576	27.85
632.767	27.51
632.957	27.18
633.148	26.79
633.339	26.65
633.529	26.45
633.72	26.36
633.91	26.29
634.101	25.98
634.292	25.93
634.482	25.93
634.673	25.97
634.863	25.98
635.054	26.04
635.244	26
635.435	26.19
635.625	26.26
635.815	26.19
636.006	26
636.196	26.18
636.387	26.13
636.577	26.14
636.767	26.1
636.958	26.22
637.148	26.18
637.338	26.41
637.529	26.08
637.719	25.94
637.909	26.09
638.099	26.13
638.29	26.25
638.48	26.31
638.67	26.33
638.86	26.4
639.05	26.3
639.241	26.54
639.431	26.6
639.621	26.71
639.811	26.86
640.001	27.03
640.191	27.24
640.381	27.16
640.571	27.31
640.761	27.17
640.951	26.9
641.141	26.84
641.331	26.63
641.521	26.62
641.711	26.82
641.901	26.72
642.091	26.63
642.281	26.58
642.471	26.63
642.661	26.67
642.851	26.66
643.041	26.84
643.231	26.84
643.42	26.85
643.61	26.6
643.8	26.44
643.99	26.46
644.18	26.25
644.369	26.2
644.559	26.3
644.749	26.18
644.939	26.18
645.128	26.22
645.318	26.25
645.508	26.16
645.697	26.3
645.887	26.39
646.076	26.55
646.266	26.6
646.456	26.58
646.645	26.43
646.835	26.59
647.024	26.49
647.214	26.42
647.403	26.39
647.593	26.47
647.782	26.49
647.972	26.46
648.161	26.26
648.351	26.45
648.54	26.6
648.73	26.63
648.919	26.66
649.108	27.06
649.298	27.39
649.487	27.51
649.677	27.78
649.866	27.75
650.055	27.82
650.244	27.74
650.434	27.66
650.623	27.52
650.812	27.65
651.002	27.58
651.191	27.6
651.38	27.29
651.569	27.36
651.758	27.16
651.947	27.15
652.137	27.17
652.326	27.52
652.515	27.46
652.704	27.52
652.893	27.24
653.082	27.39
653.271	27.13
653.46	27.33
653.649	27.49
653.838	27.42
654.027	27.52
654.216	27.22
654.405	26.91
654.594	26.97
654.783	26.99
654.972	27.12
655.161	26.84
655.35	26.85
655.539	26.9
655.728	26.77
655.916	26.76
656.105	26.85
656.294	26.96
656.483	27.1
656.672	27.15
656.86	26.92
657.049	26.97
657.238	27.08
657.427	27.01
657.615	26.93
657.804	26.92
657.993	26.72
658.181	26.67
658.37	26.51
658.559	26.31
658.747	26.1
658.936	26.15
659.125	26.09
659.313	26.01
659.502	26.04
659.69	26.02
659.879	25.93
660.067	25.89
660.256	25.82
660.444	26.01
660.633	26.24
660.821	26.4
661.01	26.49
661.198	26.57
661.387	26.59
661.575	26.61
661.763	26.86
661.952	26.69
662.14	27
662.328	27.3
662.517	27.49
662.705	27.49
662.893	27.48
663.082	27.69
663.27	27.8
663.458	28.13
663.646	28.26
663.834	28.06
664.023	28.27
664.211	28.44
664.399	28.2
664.587	28.07
664.775	28.08
664.963	28.17
665.152	28.07
665.34	28.13
665.528	27.61
665.716	27.79
665.904	27.7
666.092	27.77
666.28	27.67
666.468	27.64
666.656	27.55
666.844	27.68
667.032	27.71
667.22	27.6
667.408	27.33
667.596	27.57
667.784	27.42
667.971	27.47
668.159	27.36
668.347	27.29
668.535	27.53
668.723	27.58
668.911	27.39
669.098	27.22
669.286	27.22
669.474	27.16
669.662	27.19
669.849	27.28
670.037	27.32
670.225	27.43
670.413	27.26
670.6	27.08
670.788	27.12
670.976	27.16
671.163	27.22
671.351	27.33
671.538	27.32
671.726	27.09
671.913	27.01
672.101	27.15
672.289	27.27
672.476	27.37
672.664	27.44
672.851	27.51
673.039	27.42
673.226	27.34
673.413	27.25
673.601	27.34
673.788	27.62
673.976	27.47
674.163	27.22
674.35	27.04
674.538	27.3
674.725	27.25
674.912	27.19
675.1	27.42
675.287	27.57
675.474	27.77
675.662	27.88
675.849	27.79
676.036	27.84
676.223	27.74
676.411	28.01
676.598	27.75
676.785	27.74
676.972	27.59
677.159	27.36
677.346	27.31
677.533	27.08
677.721	27.14
677.908	27.19
678.095	27.17
678.282	27.14
678.469	26.9
678.656	26.91
678.843	26.75
679.03	26.72
679.217	26.79
679.404	26.98
679.591	26.81
679.778	26.68
679.964	26.61
680.151	26.46
680.338	26.45
680.525	26.39
680.712	26.45
680.899	26.52
681.086	26.57
681.272	26.49
681.459	26.36
681.646	26.53
681.833	26.66
682.02	26.89
682.206	27.08
682.393	27.16
682.58	27.3
682.766	27.37
682.953	27.41
683.14	27.5
683.326	27.66
683.513	27.82
683.7	27.95
683.886	27.89
684.073	27.75
684.259	27.8
684.446	28.01
684.632	28.08
684.819	27.96
685.005	27.84
685.192	28.26
685.378	28.33
685.565	28.36
685.751	28.36
685.938	28.31
686.124	28.28
686.31	28.31
686.497	28.41
686.683	28.26
686.87	28.53
687.056	28.64
687.242	28.12
687.429	27.82
687.615	27.62
687.801	27.59
687.987	27.52
688.174	27.39
688.36	27.29
688.546	27.3
688.732	27.35
688.918	27.03
689.105	27.15
689.291	27.09
689.477	27.31
689.663	27.4
689.849	27.55
690.035	27.95
690.221	28.12
690.407	28.21
690.593	27.93
690.779	27.93
690.965	28.12
691.151	28.23
691.337	28.53
691.523	28.61
691.709	28.54
691.895	28.65
692.081	28.58
692.267	28.68
692.453	28.74
692.639	28.64
692.825	29
693.011	28.9
693.196	28.91
693.382	28.92
693.568	28.85
693.754	28.84
693.94	28.64
694.125	28.34
694.311	28
694.497	27.79
694.682	27.58
694.868	27.29
695.054	27.56
695.239	27.3
695.425	27.28
695.611	27.18
695.796	27.27
695.982	27.18
696.168	27.01
696.353	27.16
696.539	27.29
696.724	27.4
696.91	27.57
697.095	27.24
697.281	27.14
697.466	26.79
697.652	26.77
697.837	26.51
698.023	26.38
698.208	26.63
698.393	26.5
698.579	26.35
698.764	26.24
698.949	25.81
699.135	25.93
699.32	25.98
699.505	26.13
699.691	26.2
699.876	26.29
700.061	26.57
700.246	26.41
700.432	26.35
700.617	26.58
700.802	26.64
700.987	26.99
701.172	27.18
701.358	27.29
701.543	27.55
701.728	27.37
701.913	27.35
702.098	26.98
702.283	27.21
702.468	27.72
702.653	27.39
702.838	27.66
703.023	27.77
703.208	27.74
703.393	27.92
703.578	27.79
703.763	28.41
703.948	29.02
704.133	29.63
704.318	29.88
704.503	29.92
704.688	30.98
704.873	31.34
705.057	31.84
705.242	32.38
705.427	32.58
705.612	33.16
705.797	33.45
705.981	33.86
706.166	34.21
706.351	34.87
706.536	35.19
706.72	35.12
706.905	35.56
707.09	35.4
707.274	35.19
707.459	35.15
707.644	35.54
707.828	35.63
708.013	35.78
708.197	35.35
708.382	34.93
708.567	34.9
708.751	34.53
708.936	34.01
709.12	34.01
709.305	33.85
709.489	33.9
709.673	33.32
709.858	33.38
710.042	32.95
710.227	33.44
710.411	33.52
710.596	33.52
710.78	33.43
710.964	33.94
711.149	33.98
711.333	33.96
711.517	34.03
711.702	34.18
711.886	34
712.07	33.98
712.254	33.68
712.438	33.48
712.623	33.23
712.807	33.25
712.991	32.57
713.175	32.13
713.359	31.78
713.544	31.78
713.728	30.89
713.912	30.29
714.096	29.8
714.28	29.03
714.464	28.3
714.648	28.13
714.832	27.98
715.016	27.83
715.2	28.03
715.384	27.99
715.568	27.36
715.752	27.46
715.936	27.18
716.12	26.57
716.304	26.55
716.488	26.98
716.671	26.77
716.855	26.48
717.039	26.19
717.223	25.77
717.407	25.9
717.59	25.79
717.774	25.8
717.958	26.25
718.142	26.41
718.325	26.4
718.509	26.09
718.693	25.9
718.877	26.08
719.06	26.19
719.244	26.21
719.428	26.17
719.611	26.48
719.795	26.64
719.978	26.27
720.162	26.88
720.345	27.09
720.529	27.33
720.713	27.56
720.896	27.76
721.08	28.07
721.263	27.98
721.446	28.11
721.63	28.18
721.813	28.27
721.997	28.17
722.18	28.22
722.364	28.41
722.547	28.24
722.73	28.66
722.914	28.96
723.097	28.91
723.28	29.2
723.464	28.75
723.647	28.48
723.83	28.42
724.013	29.05
724.197	28.88
724.38	28.75
724.563	28.97
724.746	28.44
724.929	27.82
725.112	27.65
725.296	27.5
725.479	27.74
725.662	28.14
725.845	27.72
726.028	27.06
726.211	26.86
726.394	26.86
726.577	25.87
726.76	26.18
726.943	26.05
727.126	26.04
727.309	26.18
727.492	26.12
727.675	25.8
727.858	26.09
728.041	26.35
728.224	26.48
728.407	26.35
728.589	26.89
728.772	27.09
728.955	27.67
729.138	27.95
729.321	27.87
729.503	27.8
729.686	27.61
729.869	27.75
730.052	27.58
730.234	27.75
730.417	27.8
730.6	28.16
730.782	27.66
730.965	26.94
731.148	27.08
731.33	27.18
731.513	27.23
731.695	27.53
731.878	27.57
732.061	27.36
732.243	27.45
732.426	27.28
732.608	27.21
732.791	27.89
732.973	28.44
733.156	28.01
733.338	27.68
733.52	27.62
733.703	27.82
733.885	27.8
734.068	28.3
734.25	28.15
734.432	28.37
734.615	28.43
734.797	28.29
734.979	28.49
735.162	28.72
735.344	28.92
735.526	29.41
735.708	29.25
735.891	29.7
736.073	29.86
736.255	29.62
736.437	30.06
736.619	29.56
736.802	29.16
736.984	28.45
737.166	28.59
737.348	28.64
737.53	28.92
737.712	28.89
737.894	28.22
738.076	28.27
738.258	28.9
738.44	28.65
738.622	29.23
738.804	29.4
738.986	29.92
739.168	29.77
739.35	30.02
739.532	29.71
739.714	29.49
739.896	29.59
740.078	30.05
740.259	29.87
740.441	30.19
740.623	30.28
740.805	30.61
740.987	30.36
741.168	30.78
741.35	30.4
741.532	30.55
741.714	31.25
741.895	31.58
742.077	30.9
742.259	30.94
742.44	30.51
742.622	30.28
742.804	30.43
742.985	30.3
743.167	29.96
743.348	30.25
743.53	30.36
743.711	30.1
743.893	30.78
744.075	30.9
744.256	31.13
744.438	31.47
744.619	31.45
744.8	30.75
744.982	31.13
745.163	31.66
745.345	31.97
745.526	31.14
745.707	30.96
745.889	30
746.07	30.49
746.252	29.72
746.433	29.7
746.614	29.88
746.795	30.61
746.977	30.52
747.158	30.57
747.339	30.29
747.52	30.23
747.702	30.89
747.883	31.05
748.064	31.37
748.245	32.03
748.426	32.47
748.607	32.37
748.788	31.82
748.97	32.24
749.151	32.16
749.332	32.47
749.513	32.81
749.694	32.13
749.875	31.68
750.056	30.52
750.237	30.29
750.418	30.02
750.599	29.98
750.78	30.1
750.96	29.85
751.141	29.81
751.322	29.7
751.503	30.19
751.684	30.64
751.865	30.55
752.046	30.82
752.226	30.9
752.407	31.32
752.588	31.71
752.769	31.81
752.949	31.55
753.13	31.17
753.311	31.24
753.492	31.21
753.672	31.38
753.853	32.32
754.034	32.44
754.214	32.6
754.395	31.46
754.575	31.17
754.756	31.54
754.937	32.1
755.117	32.59
755.298	31.91
755.478	31.77
755.659	30.73
755.839	30.2
756.02	30.39
756.2	30.13
756.381	30.46
756.561	30.78
756.741	30.86
756.922	30.37
757.102	30
757.283	30.56
757.463	30.02
757.643	30.36
757.823	30.04
758.004	29.37
758.184	28.64
758.364	28.61
758.545	27.9
758.725	27.22
758.905	27.08
759.085	26.59
759.265	25.94
759.446	25.29
759.626	25.62
759.806	25.47
759.986	25.78
760.166	25.86
760.346	26.11
760.526	26.7
760.706	26.52
760.886	26.27
761.066	26.82
761.246	27.23
761.426	27.89
761.606	27.01
761.786	27.13
761.966	26.86
762.146	27.32
762.326	27
762.506	26.25
762.686	26.07
762.866	26.26
763.046	25.7
763.225	25.45
763.405	25.31
763.585	25.37
763.765	25.67
763.945	25.69
764.124	25.32
764.304	25.17
764.484	25.69
764.664	26
764.843	26.36
765.023	26.88
765.203	27.04
765.382	27.34
765.562	27.43
765.741	27.06
765.921	27.26
766.101	27.98
766.28	28.84
766.46	29.25
766.639	29.48
766.819	29.69
766.998	29.26
767.178	30.05
767.357	30.71
767.537	31.47
767.716	32.09
767.896	32.32
768.075	32.36
768.254	32.41
768.434	32.69
768.613	33.09
768.792	33.17
768.972	34
769.151	34.11
769.33	34.09
769.51	34.39
769.689	34.45
769.868	34.33
770.047	34.57
770.226	33.95
770.406	33.58
770.585	34.06
770.764	34.55
770.943	34.59
771.122	33.9
771.301	33.44
771.48	33.12
771.66	33.07
771.839	33.75
772.018	33.69
772.197	33.72
772.376	33.48
772.555	32.71
772.734	31.23
772.913	31.05
773.092	30.89
773.271	30.96
773.449	31.83
773.628	32.46
773.807	32.47
773.986	32.23
774.165	32.77
774.344	33.18
774.523	33.35
774.701	33.95
774.88	34.04
775.059	35.13
775.238	35.69
775.417	35.16
775.595	35.2
775.774	35.37
775.953	35.67
776.131	35.95
776.31	35.46
776.489	34.57
776.667	34.77
776.846	34.7
777.025	34.12
777.203	33.85
777.382	33.51
777.56	33.8
777.739	33.34
777.917	33.3
778.096	33.66
778.274	33.83
778.453	34.45
778.631	34.81
778.81	34.25
778.988	34.41
779.166	34.05
779.345	34.2
779.523	33.42
779.702	33.59
779.88	33.53
780.058	32.23
780.237	32.34
780.415	33.19
780.593	32.23
780.771	33.22
780.95	33.44
781.128	33.47
781.306	33.09
781.484	33.6
781.662	32.87
781.841	33.3
782.019	33.36
782.197	34.14
782.375	33.78
782.553	33.65
782.731	32.86
782.909	31.29
783.087	31.91
783.265	33.13
783.443	32.94
783.621	33.31
783.799	32.88
783.977	32.05
784.155	30.82
784.333	30.97
784.511	31.24
784.689	31.21
784.867	32.02
785.045	32.49
785.223	31.74
785.4	31.02
785.578	31.5
785.756	30.29
785.934	31.59
786.112	32.5
786.289	31.68
786.467	32
786.645	31.89
786.823	32.65
787	31.47
787.178	32.03
787.356	32.66
787.533	31.93
787.711	32.57
787.889	33.11
788.066	32.65
788.244	32.75
788.421	32.97
788.599	32.99
788.776	31.83
788.954	32.07
789.131	31.54
789.309	31.08
789.486	31.55
789.664	31.96
789.841	31.56
790.019	31.93
790.196	32.52
790.373	32.1
790.551	32.7
790.728	34.07
790.906	33.66
791.083	32.45
791.26	32.94
791.437	33.14
791.615	33.17
791.792	32.49
791.969	32.63
792.146	31.93
792.324	32.78
792.501	33
792.678	32.59
792.855	33.71
793.032	35.19
793.209	35.4
793.387	35.27
793.564	35.47
793.741	35.52
793.918	35
794.095	34.89
794.272	34.3
794.449	33.68
794.626	33.93
794.803	32.33
794.98	31.66
795.157	30.25
795.334	29.95
795.511	29.86
795.688	29.95
795.864	29.3
796.041	29.03
796.218	29.1
796.395	29.51
796.572	29.13
796.749	29.43
796.925	29.76
797.102	30.85
797.279	31.58
797.456	31.6
797.632	32.08
797.809	32.15
797.986	33.61
798.162	33.7
798.339	32.4
798.516	33.01
798.692	34.44
798.869	33.72
799.046	34.16
799.222	34.97
799.399	34.7
799.575	34.96
799.752	35.75
799.928	34.41
800.105	34.94
800.281	36.02
800.458	35.04
800.634	34.9
800.811	34.9
800.987	34.26
801.163	33.12
801.34	33.52
801.516	33.61
801.692	33.82
801.869	33.65
802.045	32.96
802.221	33.45
802.398	33.58
802.574	33.47
802.75	33.52
802.926	33.8
803.103	34.28
803.279	33.51
803.455	33.67
803.631	34.49
803.807	34.88
803.983	34.06
804.16	33.23
804.336	32.66
804.512	32
804.688	32.47
804.864	31.58
805.04	31.55
805.216	31.43
805.392	30.59
805.568	29.58
805.744	29.69
805.92	30.2
806.096	31.31
806.272	33.32
806.448	32.87
806.623	32.78
806.799	32.91
806.975	32.49
807.151	32.89
807.327	32.81
807.503	32.7
807.678	34.32
807.854	35.07
808.03	34.6
808.206	33.57
808.381	33.62
808.557	34.28
808.733	35.56
808.908	35.95
809.084	36.04
809.26	36.4
809.435	35.46
809.611	33.85
809.787	33.86
809.962	33.56
810.138	34.09
810.313	32.7
810.489	33.09
810.664	32.34
810.84	30.99
811.015	31.41
811.191	31.37
811.366	31.98
811.542	32.39
811.717	32.71
811.892	32.91
812.068	31.98
812.243	33.93
812.419	34.43
812.594	34.11
812.769	33.64
812.944	34.18
813.12	34.15
813.295	34.26
813.47	31.96
813.645	30.78
813.821	29.93
813.996	30.76
814.171	31.32
814.346	30.88
814.521	31.06
814.697	31.29
814.872	30.37
815.047	31.08
815.222	30.65
815.397	32.09
815.572	33.15
815.747	34.38
815.922	33.66
816.097	31.76
816.272	31.21
816.447	31.92
816.622	32.88
816.797	33.36
816.972	32.93
817.147	32.97
817.322	34.1
817.496	32.33
817.671	31.68
817.846	30.9
818.021	31.71
818.196	28.96
818.371	27.57
818.545	26.39
818.72	26.14
818.895	25.4
819.069	24.78
819.244	23.96
819.419	24.28
819.594	24.19
819.768	25.01
819.943	23.66
820.117	24.73
820.292	25.04
820.467	25.6
820.641	25.02
820.816	24.31
820.99	24.42
821.165	23.62
821.339	23.11
821.514	22.64
821.688	22.4
821.863	22.71
822.037	22.47
822.212	22.34
822.386	22.17
822.56	22.07
822.735	21.97
822.909	21.88
823.084	22.26
823.258	22.3
823.432	22.27
823.606	22.15
823.781	21.62
823.955	21.89
824.129	21.91
824.303	21.88
824.478	22.32
824.652	22.67
824.826	22.15
825	21.84
825.174	22.29
825.348	22.51
825.523	23.15
825.697	23.97
825.871	23.94
826.045	24.37
826.219	24.07
826.393	23.51
826.567	23.49
826.741	24.15
826.915	24.41
827.089	24.25
827.263	24.57
827.437	24.01
827.611	24.1
827.784	24.24
827.958	23.75
828.132	24.11
828.306	24.44
828.48	24.15
828.654	24.66
828.827	24.29
829.001	24.86
829.175	25.08
829.349	25.51
829.522	25.09
829.696	25.32
829.87	25.36
830.044	25.66
830.217	25.8
830.391	26.98
830.565	26.59
830.738	28.76
830.912	28.18
831.085	27.51
831.259	28.34
831.432	29.1
831.606	29.25
831.779	30.09
831.953	29.66
832.126	29.7
832.3	28.47
832.473	27.96
832.647	26.8
832.82	25.88
832.994	24.95
833.167	24.54
833.34	24.62
833.514	23.58
833.687	23.32
833.86	23.35
834.034	23.22
834.207	23.52
834.38	24
834.553	22.92
834.727	23.57
834.9	24.25
835.073	24.64
835.246	24.81
835.419	26.43
835.593	26.29
835.766	26.75
835.939	26.9
836.112	27.03
836.285	26.54
836.458	27.41
836.631	26.28
836.804	27.67
836.977	27.61
837.15	28.36
837.323	28.09
837.496	28.65
837.669	28.87
837.842	28.39
838.015	29.38
838.188	31.32
838.361	32.21
838.533	34.07
838.706	32.91
838.879	34.01
839.052	35.63
839.225	34.85
839.398	36.59
839.57	38.38
839.743	38.06
839.916	38.19
840.088	36.97
840.261	35.74
840.434	35.92
840.607	36.71
840.779	34.83
840.952	32.43
841.124	32.13
841.297	30.63
841.47	29.57
841.642	29.18
841.815	28.76
841.987	28.44
842.16	31.07
842.332	30.64
842.505	30.78
842.677	32.35
842.85	33.43
843.022	36.15
843.194	37.04
843.367	38.27
843.539	38.82
843.712	39.71
843.884	43.03
844.056	42.58
844.229	46.02
844.401	46.21
844.573	45.8
844.745	47.21
844.918	45.91
845.09	46.14
845.262	45.81
845.434	46.49
845.606	44.78
845.779	43.65
845.951	44.76
846.123	43.91
846.295	44.04
846.467	44.6
846.639	43.41
846.811	43.67
846.983	45.28
847.155	45.77
847.327	45.06
847.499	49.58
847.671	46.81
847.843	47.37
848.015	47.54
848.187	51.26
848.359	53.06
848.531	53.6
848.703	55.04
848.875	52.94
849.047	54.27
849.218	57.32
849.39	56.46
849.562	59.32
849.734	60.36
849.905	57.79
850.077	53.86
850.249	50.51
850.421	50.3
850.592	48.78
850.764	51.25
850.936	49.85
851.107	44.81
851.279	43.27
851.451	44.63
851.622	41.44
851.794	46.01
851.965	47.18
852.137	48.35
852.308	47.56
852.48	46.04
852.651	45.36
852.823	41.21
852.994	41.72
853.166	43.62
853.337	43.04
853.509	45.26
853.68	41.36
853.851	42.45
854.023	44.88
854.194	48.63
854.365	50.8
854.537	54.31
854.708	60.16
854.879	63.54
855.05	62.95
855.222	59.94
855.393	59.94
855.564	62.09
855.735	57.47
855.906	56.21
856.078	52.62
856.249	51.15
856.42	47.63
856.591	41.29
856.762	41.2
856.933	42.47
857.104	42.99
857.275	43.09
857.446	44.13
857.617	49.32
857.788	48.05
857.959	50.94
858.13	51.73
858.301	53.3
858.472	59.61
858.643	55.83
858.814	57.94
858.985	58.99
859.155	56.59
859.326	58.85
859.497	56.38
859.668	58.06
859.839	58.29
860.009	59.08
860.18	58.53
860.351	57.38
860.522	57.73
860.692	50.72
860.863	52.98
861.034	54.78
861.204	53.16
861.375	53.15
861.546	50.7
861.716	46.95
861.887	42.63
862.057	39.6
862.228	35.33
862.398	38.61
862.569	39.45
862.739	38.29
862.91	39.31
863.08	31.43
863.251	28.29
863.421	28.63
863.592	27.73
863.762	30.1
863.932	32.22
864.103	34.61
864.273	31.82
864.443	39.76
864.614	35.23
864.784	35.69
864.954	42.9
865.125	47.53
865.295	48.04
865.465	49.6
865.635	45.98
865.805	44.4
865.976	42.14
866.146	42.52
866.316	36.86
866.486	41.45
866.656	42.37
866.826	46.02
866.996	46.55
867.166	47.73
867.336	50.2
867.506	53.06
867.676	51.23
867.846	55.64
868.016	59.24
868.186	59.84
868.356	56.98
868.526	54.47
868.696	49.64
868.866	45.66
869.036	47.96
869.206	45.06
869.376	45.66
869.545	48.73
869.715	45.36
869.885	41.21
870.055	41.56
870.224	42.5
870.394	46.2
870.564	48.53
870.734	48.52
870.903	48.96
871.073	47.69
871.243	46.7
871.412	41.84
871.582	42.78
871.751	43.19
871.921	41.69
872.091	42.54
872.26	37.83
872.43	35.93
872.599	35.15
872.769	32.02
872.938	34.71
873.108	33.15
873.277	36.49
873.446	34.99
873.616	34.27
873.785	39.02
873.955	38.29
874.124	37.02
874.293	39.01
874.463	38.09
874.632	42.36
874.801	38.51
874.971	42.61
875.14	44.3
875.309	43.78
875.478	46.86
875.647	42.78
875.817	43.89
875.986	45.5
876.155	47.46
876.324	52.66
876.493	44.68
876.662	50.89
876.831	50.94
877	53.78
877.17	51.55
877.339	52.66
877.508	51.65
877.677	48.31
877.846	47.69
878.015	47.35
878.184	43.12
878.352	47.74
878.521	46.71
878.69	42.57
878.859	39.69
879.028	37.93
879.197	34.67
879.366	34.16
879.534	32.97
879.703	32.06
879.872	27.86
880.041	28.2
880.21	25.61
880.378	24.05
880.547	23.53
880.716	23.47
880.884	24.65
881.053	23.41
881.222	24.26
881.39	23.15
881.559	23.27
881.727	23.08
881.896	22.76
882.065	22.06
882.233	22.09
882.402	21.84
882.57	21.2
882.739	20.74
882.907	21.03
883.076	20.46
883.244	20.94
883.412	20.38
883.581	20.55
883.749	20.45
883.918	20.64
884.086	20.45
884.254	20.53
884.423	20.79
884.591	20.27
884.759	20.32
884.927	19.82
885.096	20.54
885.264	22.15
885.432	23.53
885.6	25.1
885.769	26.38
885.937	26.3
886.105	26.14
886.273	28.34
886.441	30.28
886.609	31.59
886.777	32.91
886.945	33.93
887.113	36.38
887.281	33.29
887.449	32.21
887.617	33.94
887.785	35.86
887.953	38.79
888.121	37.67
888.289	38.43
888.457	37.69
888.625	39.82
888.793	37.86
888.961	33.62
889.129	34.85
889.296	36.2
889.464	34.87
889.632	34.09
889.8	33.66
889.967	31.37
890.135	31.31
