Data from 2938733__Reflection_01.txt Node
Date: Sun Mar 15 18:35:37 EDT 2015
User: robert
Spectrometer: USB4E03002
Autoset integration time: false
Trigger mode: 4
Integration Time (sec): 1.000000E-1
Scans to average: 10
Electric dark correction enabled: false
Nonlinearity correction enabled: false
Boxcar width: 5
Stray light correction enabled: false
XAxis mode: Wavelengths
Stop averaging: false
Number of Pixels in Spectrum: 3648
>>>>>Begin Spectral Data<<<<<
177.575	66.67
177.794	2.19
178.014	16.96
178.233	3.3
178.452	7.66
178.672	-29.35
178.891	-14.99
179.11	-33.43
179.33	-43.18
179.549	-50.88
179.768	-81.32
179.987	-137.93
180.207	-31.35
180.426	-117.59
180.645	-431.08
180.864	-160.45
181.084	-86.07
181.303	1858.82
181.522	-228.31
181.741	-351.85
181.96	-275.56
182.179	-14.02
182.398	-60.83
182.618	-130.26
182.837	-44.32
183.056	-4.63
183.275	-71.59
183.494	-92.06
183.713	142.86
183.932	-166.91
184.151	-112.59
184.37	-118.18
184.589	-83.33
184.808	56.25
185.027	82.48
185.246	86.33
185.465	174.43
185.684	274.12
185.903	306.35
186.122	581.82
186.341	-75.2
186.56	-51.74
186.779	-41.52
186.998	-210
187.216	-110.75
187.435	62.26
187.654	53.15
187.873	90.1
188.092	95.24
188.311	62.45
188.53	64.62
188.748	87.14
188.967	48.81
189.186	170.47
189.405	101.3
189.623	59.83
189.842	61.27
190.061	59.43
190.28	44.61
190.498	34.63
190.717	64.32
190.936	42.42
191.154	-37.42
191.373	12.29
191.592	27.03
191.81	97.08
192.029	111.83
192.248	109.14
192.466	153.54
192.685	150.18
192.904	326.25
193.122	228.92
193.341	200.68
193.559	189.89
193.778	250.79
193.996	161.62
194.215	103.3
194.433	63.47
194.652	12.22
194.87	5.58
195.089	16.3
195.307	-39.64
195.526	-90.72
195.744	-140
195.963	-82.98
196.181	-73.37
196.399	-110.78
196.618	-175
196.836	-31.18
197.055	-74.93
197.273	-43.99
197.491	-45.7
197.71	-26.21
197.928	16.51
198.146	26.9
198.365	37.56
198.583	47.77
198.801	34.09
199.019	6.22
199.238	-2.36
199.456	36.46
199.674	4
199.892	-1.03
200.111	21.29
200.329	-6.48
200.547	-82.42
200.765	-68.86
200.983	-54.75
201.202	-26.07
201.42	-19.29
201.638	-8.08
201.856	-65.89
202.074	-13.03
202.292	28.35
202.51	-81.73
202.728	-35.91
202.946	0
203.165	-136.84
203.383	-139.77
203.601	-10.67
203.819	-46.34
204.037	-296.08
204.255	-400
204.473	-765.57
204.691	-478.26
204.909	-136.27
205.127	-122.91
205.345	-117.49
205.562	-108.43
205.78	-144.51
205.998	-261.08
206.216	-172.28
206.434	-129.23
206.652	-50.96
206.87	-17.15
207.088	25.71
207.306	42.99
207.523	121.12
207.741	42.86
207.959	63.32
208.177	80.95
208.395	72.52
208.612	52.37
208.83	41.87
209.048	49.9
209.266	41.31
209.483	18.8
209.701	30.35
209.919	27.74
210.136	32.7
210.354	1.24
210.572	-72.5
210.79	1.81
211.007	17.48
211.225	47.71
211.442	33.58
211.66	36.14
211.878	32.62
212.095	45.6
212.313	43.41
212.53	55.6
212.748	59.24
212.966	51.74
213.183	48.55
213.401	49.59
213.618	42.11
213.836	34.53
214.053	22.56
214.271	27.66
214.488	-4.83
214.705	2.15
214.923	-14.48
215.14	6.36
215.358	6.75
215.575	13.86
215.793	5.45
216.01	5.7
216.227	35.18
216.445	36.89
216.662	25.26
216.879	35.23
217.097	46.01
217.314	51.42
217.531	46.09
217.749	41.47
217.966	23.59
218.183	26.44
218.4	36.62
218.618	9.61
218.835	-23.28
219.052	-4.94
219.269	-124.26
219.487	-94.38
219.704	-53.46
219.921	-83.95
220.138	-58.04
220.355	-82.72
220.572	-98.79
220.79	-120.33
221.007	-105.71
221.224	-69.36
221.441	-59.79
221.658	-14.41
221.875	-16.93
222.092	-19.97
222.309	-14.29
222.526	-15.06
222.743	-12.94
222.96	-10.82
223.177	-7.31
223.394	6.73
223.611	2.75
223.828	-0
224.045	-2.55
224.262	1.66
224.479	-2.61
224.696	-5.82
224.913	0.3
225.13	0.86
225.347	7.67
225.564	8.99
225.781	4.68
225.997	3.59
226.214	1.78
226.431	-1.2
226.648	-1.78
226.865	-0.08
227.082	1.13
227.298	-1.5
227.515	-3.94
227.732	-5.32
227.949	-4.95
228.165	-4.21
228.382	-2.45
228.599	-1.4
228.816	-0.14
229.032	-0.32
229.249	0.16
229.466	-0.11
229.682	-0.11
229.899	0.79
230.116	1.88
230.332	1.7
230.549	1.89
230.765	0.82
230.982	-0.1
231.199	-0.61
231.415	-1.28
231.632	-1.58
231.848	0.7
232.065	1.78
232.281	4.56
232.498	4.27
232.714	2.78
232.931	2.63
233.147	3.5
233.364	5.24
233.58	3.43
233.797	3.44
234.013	3.49
234.23	2.35
234.446	0.47
234.662	-1.28
234.879	-0.73
235.095	3.29
235.312	4.94
235.528	5.61
235.744	3.64
235.961	5.89
236.177	6.97
236.393	4.6
236.61	3.73
236.826	5.12
237.042	4.85
237.258	4.25
237.475	3.52
237.691	1.77
237.907	-1.66
238.123	0.23
238.339	-0.67
238.556	0.07
238.772	2.19
238.988	2.19
239.204	1.8
239.42	2.58
239.636	2.05
239.853	1.11
240.069	1.69
240.285	3.42
240.501	3.47
240.717	2.53
240.933	1.67
241.149	1.63
241.365	1.77
241.581	0.76
241.797	0.42
242.013	0.12
242.229	-0.11
242.445	0.21
242.661	0.32
242.877	0.38
243.093	0.66
243.309	1.24
243.525	1.25
243.741	0.87
243.957	1.81
244.173	1.42
244.388	2.68
244.604	3.61
244.82	3.22
245.036	3
245.252	2
245.468	2.6
245.683	2.18
245.899	2.31
246.115	2.95
246.331	2.99
246.547	3.53
246.762	2.98
246.978	2.52
247.194	2.38
247.409	2.37
247.625	2.83
247.841	2.53
248.057	2.4
248.272	2.69
248.488	2.13
248.703	2.35
248.919	2.12
249.135	2.17
249.35	2.5
249.566	2.06
249.782	2.01
249.997	1.86
250.213	2.22
250.428	2.08
250.644	1.12
250.859	2.07
251.075	2.03
251.29	2.69
251.506	2.64
251.721	3.04
251.937	2.21
252.152	2.55
252.368	2.56
252.583	2.44
252.798	2.41
253.014	2.18
253.229	1.18
253.445	0.14
253.66	-1.34
253.875	-1.3
254.091	-1.87
254.306	-0.41
254.521	0.97
254.737	0.07
254.952	-1.03
255.167	-0.03
255.383	0.37
255.598	1.33
255.813	3.1
256.028	3.45
256.244	3.94
256.459	4.28
256.674	4.61
256.889	2.88
257.104	3.24
257.32	4.8
257.535	4.52
257.75	3.66
257.965	3.18
258.18	2.63
258.395	2.64
258.61	2.24
258.826	1.87
259.041	1.63
259.256	2.06
259.471	1.9
259.686	1.49
259.901	1.62
260.116	1.9
260.331	1.96
260.546	1.71
260.761	1.78
260.976	1.73
261.191	1.65
261.406	1.62
261.621	1.49
261.836	1.28
262.05	1.54
262.265	1.38
262.48	1.44
262.695	1.42
262.91	1.58
263.125	1.48
263.34	1.97
263.555	2
263.769	2.14
263.984	1.4
264.199	2.19
264.414	1.12
264.629	0.49
264.843	0.2
265.058	0.16
265.273	0.13
265.488	0.1
265.702	0.15
265.917	0.49
266.132	0.14
266.346	0.65
266.561	0.53
266.776	0.48
266.99	0.45
267.205	1.01
267.42	0.67
267.634	1.65
267.849	1.6
268.063	1.21
268.278	0.93
268.492	1.47
268.707	0.91
268.922	0.76
269.136	1.35
269.351	2.1
269.565	2.03
269.78	2.59
269.994	1.77
270.209	2.28
270.423	2.5
270.637	2.16
270.852	2.21
271.066	2.61
271.281	2.6
271.495	2.42
271.709	2.08
271.924	1.94
272.138	2.05
272.353	2.2
272.567	1.71
272.781	1.35
272.996	1.81
273.21	1.64
273.424	1.35
273.638	1.24
273.853	1.42
274.067	1.31
274.281	1.22
274.495	0.92
274.71	1.05
274.924	1
275.138	0.86
275.352	0.73
275.566	0.61
275.781	0.76
275.995	1.15
276.209	0.9
276.423	1
276.637	0.7
276.851	-0.1
277.065	-0.62
277.279	-0.81
277.493	-0.42
277.707	-0.1
277.921	-0.52
278.135	-0.03
278.349	-0.57
278.563	-0.65
278.777	-1.12
278.991	-0.92
279.205	-0.33
279.419	0.27
279.633	0.92
279.847	0.58
280.061	0.51
280.275	0.87
280.489	0.41
280.703	0.7
280.917	1.19
281.131	1.69
281.344	1.67
281.558	1.63
281.772	1.47
281.986	1.32
282.2	1.8
282.414	1.32
282.627	1.38
282.841	1.23
283.055	1.22
283.269	1.23
283.482	0.59
283.696	1.02
283.91	0.96
284.123	0.65
284.337	0.29
284.551	0.2
284.764	0.4
284.978	0.51
285.192	0.69
285.405	0.75
285.619	0.64
285.833	0.94
286.046	0.57
286.26	0.94
286.473	1.12
286.687	1.61
286.9	1.24
287.114	1.1
287.327	1.01
287.541	1.05
287.754	1.14
287.968	1.21
288.181	1.61
288.395	1.75
288.608	1.55
288.822	1.93
289.035	1.8
289.248	2.42
289.462	2.59
289.675	2.8
289.889	2.56
290.102	1.87
290.315	1.73
290.529	1.62
290.742	1.71
290.955	1.45
291.169	0.59
291.382	0.31
291.595	-0.07
291.808	-0.11
292.022	-0.68
292.235	-0.19
292.448	0.4
292.661	0.43
292.875	0.22
293.088	0.29
293.301	0.86
293.514	1.5
293.727	1.73
293.94	2.09
294.153	2.5
294.367	3.01
294.58	2.73
294.793	2.67
295.006	2.71
295.219	2.81
295.432	2.61
295.645	2.47
295.858	2.55
296.071	2.5
296.284	2.37
296.497	2.07
296.71	1.94
296.923	1.88
297.136	1.62
297.349	1.53
297.562	1.24
297.775	1.2
297.988	1.11
298.201	0.92
298.414	1.02
298.626	0.88
298.839	0.91
299.052	0.86
299.265	0.93
299.478	1.25
299.691	1.51
299.903	1.55
300.116	1.09
300.329	1.56
300.542	1.87
300.755	1.58
300.967	1.4
301.18	1.38
301.393	1.11
301.605	0.83
301.818	0.99
302.031	0.83
302.243	1.28
302.456	1.89
302.669	1.35
302.881	0.89
303.094	0.8
303.307	1.14
303.519	1.31
303.732	1.44
303.944	1.72
304.157	1.91
304.37	2.25
304.582	2.17
304.795	2.01
305.007	2.22
305.22	2.34
305.432	2.37
305.645	1.85
305.857	1.78
306.069	1.82
306.282	1.84
306.494	1.62
306.707	0.99
306.919	1.41
307.132	1.14
307.344	1.01
307.556	1.35
307.769	1.53
307.981	2.16
308.193	2.23
308.406	2.11
308.618	2.16
308.83	2.07
309.043	2.38
309.255	2.11
309.467	2.22
309.679	2.78
309.892	2.76
310.104	2.67
310.316	2.24
310.528	2.26
310.74	2.19
310.953	2.4
311.165	2.58
311.377	2.51
311.589	2.64
311.801	2.78
312.013	2.21
312.225	2.02
312.437	2.41
312.649	2.52
312.862	1.98
313.074	2.33
313.286	1.65
313.498	0.95
313.71	0.99
313.922	0.68
314.134	0.63
314.346	0.52
314.558	0.62
314.77	0.32
314.982	0.39
315.193	0.96
315.405	1.04
315.617	1.12
315.829	1.63
316.041	1.29
316.253	1.74
316.465	1.6
316.677	1.73
316.888	1.74
317.1	1.77
317.312	1.94
317.524	1.95
317.736	1.52
317.947	1.86
318.159	1.78
318.371	2.64
318.583	2.63
318.794	2.62
319.006	2.78
319.218	2.63
319.43	2.78
319.641	2.66
319.853	2.64
320.064	3.04
320.276	3.27
320.488	3.56
320.699	3
320.911	2.62
321.123	3.34
321.334	3.28
321.546	3.48
321.757	3.21
321.969	3.47
322.18	3.76
322.392	4.22
322.603	4.49
322.815	4.52
323.026	5.27
323.238	5.4
323.449	5.01
323.661	5.59
323.872	5.93
324.083	6.39
324.295	6.59
324.506	6.21
324.718	5.82
324.929	5.82
325.14	6
325.352	5.87
325.563	6.02
325.774	6.15
325.986	5.93
326.197	6.25
326.408	5.57
326.62	5.16
326.831	5.68
327.042	5.72
327.253	5.44
327.464	5.37
327.676	4.92
327.887	5.27
328.098	5.74
328.309	6.03
328.52	5.94
328.732	6.9
328.943	7.21
329.154	7.16
329.365	7.4
329.576	7.72
329.787	7.88
329.998	8.24
330.209	8.23
330.42	8.06
330.631	8.3
330.842	7.89
331.053	7.78
331.264	7.88
331.475	7.8
331.686	8.25
331.897	8.85
332.108	9.06
332.319	9.07
332.53	8.92
332.741	9.03
332.952	8.65
333.163	8.6
333.374	8.4
333.585	8.83
333.795	8.87
334.006	8.24
334.217	7.97
334.428	8.16
334.639	8.44
334.849	8.66
335.06	8.39
335.271	8.23
335.482	8.58
335.692	8.8
335.903	8.79
336.114	8.63
336.325	8.75
336.535	8.57
336.746	8.36
336.957	8.27
337.167	8.39
337.378	8.86
337.589	9.46
337.799	9.21
338.01	8.91
338.22	8.68
338.431	8.42
338.642	8.56
338.852	8.49
339.063	8.13
339.273	7.81
339.484	7.59
339.694	7.37
339.905	6.83
340.115	7.02
340.326	7.06
340.536	7.19
340.746	7.38
340.957	7.22
341.167	7.05
341.378	7.59
341.588	7.4
341.799	7.39
342.009	7.29
342.219	7.15
342.43	7.48
342.64	7.76
342.85	7.84
343.061	7.95
343.271	8.26
343.481	8.43
343.691	8
343.902	7.98
344.112	8
344.322	7.92
344.532	8.05
344.743	7.72
344.953	7.33
345.163	7.17
345.373	7.43
345.583	7.12
345.793	7.35
346.004	7.63
346.214	7.72
346.424	7.64
346.634	7.94
346.844	8.05
347.054	8.04
347.264	8
347.474	8.19
347.684	8.14
347.894	8.66
348.104	8.53
348.314	8.37
348.524	8.53
348.734	8.44
348.944	8.16
349.154	8.14
349.364	7.86
349.574	7.89
349.784	7.86
349.994	8.15
350.204	7.96
350.413	7.8
350.623	7.71
350.833	7.7
351.043	7.76
351.253	7.97
351.463	8.07
351.672	8.24
351.882	8.69
352.092	8.59
352.302	8.36
352.511	8.36
352.721	8.42
352.931	8.49
353.141	8.79
353.35	8.64
353.56	8.57
353.77	8.52
353.979	8.46
354.189	8.46
354.399	8.53
354.608	8.61
354.818	8.34
355.027	8.41
355.237	8.44
355.447	8.11
355.656	8.43
355.866	8.34
356.075	8.43
356.285	8.52
356.494	8.34
356.704	8.37
356.913	8.44
357.123	8.72
357.332	8.67
357.542	8.43
357.751	8.54
357.96	8.29
358.17	8.28
358.379	8.13
358.589	8.14
358.798	8.11
359.007	7.85
359.217	7.63
359.426	7.48
359.635	7.75
359.845	8.01
360.054	8.01
360.263	7.74
360.472	7.84
360.682	7.86
360.891	7.68
361.1	7.79
361.309	7.79
361.519	7.6
361.728	7.53
361.937	7.29
362.146	7.2
362.355	7.07
362.564	7.38
362.774	7.31
362.983	7.26
363.192	7.47
363.401	7.23
363.61	7.28
363.819	7.58
364.028	8.02
364.237	8.06
364.446	7.99
364.655	7.99
364.864	7.87
365.073	7.93
365.282	8.08
365.491	8.17
365.7	8.54
365.909	8.31
366.118	7.98
366.327	7.87
366.536	7.84
366.745	7.87
366.954	7.89
367.162	7.94
367.371	7.89
367.58	7.61
367.789	7.68
367.998	7.21
368.207	7.44
368.415	7.29
368.624	6.73
368.833	6.73
369.042	6.78
369.25	6.6
369.459	6.63
369.668	6.3
369.877	6.29
370.085	5.96
370.294	6.19
370.503	5.99
370.711	6.44
370.92	6.82
371.129	6.78
371.337	6.84
371.546	7.2
371.754	6.89
371.963	7.06
372.171	7.17
372.38	7.19
372.589	7.3
372.797	7.39
373.006	7.24
373.214	7.14
373.423	7.08
373.631	6.65
373.84	6.72
374.048	7.09
374.256	7.08
374.465	6.89
374.673	7.26
374.882	7.09
375.09	7.24
375.298	7.24
375.507	7.39
375.715	7.34
375.923	7.47
376.132	7.39
376.34	7.02
376.548	7.14
376.757	7.16
376.965	6.79
377.173	6.8
377.381	6.66
377.59	6.69
377.798	6.5
378.006	6.56
378.214	6.47
378.423	6.52
378.631	6.91
378.839	6.78
379.047	6.67
379.255	6.66
379.463	6.65
379.671	6.77
379.879	6.76
380.088	6.87
380.296	6.91
380.504	7.25
380.712	6.91
380.92	6.76
381.128	6.61
381.336	6.79
381.544	7.01
381.752	7.01
381.96	6.66
382.168	6.46
382.376	6.33
382.584	6.11
382.791	5.72
382.999	5.87
383.207	5.8
383.415	5.77
383.623	5.76
383.831	5.63
384.039	5.77
384.247	5.87
384.454	5.77
384.662	5.83
384.87	5.88
385.078	6.08
385.285	5.85
385.493	5.73
385.701	5.7
385.909	6.01
386.116	6.08
386.324	6.08
386.532	6.1
386.739	6.44
386.947	6.2
387.155	6.4
387.362	6.27
387.57	6.5
387.778	6.57
387.985	6.57
388.193	6.12
388.4	6.02
388.608	5.96
388.816	6.19
389.023	5.93
389.231	6.03
389.438	5.95
389.646	5.98
389.853	5.92
390.061	5.75
390.268	5.65
390.475	5.88
390.683	5.91
390.89	5.54
391.098	5.47
391.305	5.78
391.512	5.78
391.72	5.74
391.927	5.8
392.135	5.62
392.342	5.83
392.549	6.05
392.756	5.93
392.964	5.67
393.171	6.16
393.378	6.08
393.586	5.64
393.793	5.57
394	5.57
394.207	5.39
394.414	5.62
394.622	5.57
394.829	5.38
395.036	5.4
395.243	5.62
395.45	5.1
395.657	5.07
395.864	5.12
396.072	5.37
396.279	5.54
396.486	5.47
396.693	5.29
396.9	5.31
397.107	5.36
397.314	5.22
397.521	5
397.728	5.2
397.935	5.25
398.142	5.38
398.349	5.05
398.556	4.82
398.763	4.99
398.97	5.11
399.177	5.06
399.383	5.06
399.59	5.21
399.797	5.53
400.004	5.81
400.211	5.78
400.418	5.71
400.625	6.01
400.831	5.97
401.038	6.02
401.245	6.34
401.452	6.27
401.658	6.21
401.865	6.17
402.072	6.02
402.279	5.76
402.485	5.76
402.692	5.72
402.899	5.58
403.105	5.67
403.312	5.64
403.519	5.16
403.725	5.05
403.932	5.03
404.138	5.19
404.345	5.06
404.552	5.01
404.758	5.13
404.965	5.19
405.171	4.99
405.378	5.11
405.584	5.25
405.791	5.27
405.997	5.36
406.204	5.43
406.41	5.33
406.617	5.57
406.823	5.63
407.029	5.61
407.236	5.56
407.442	5.9
407.649	5.73
407.855	5.72
408.061	6.05
408.268	6.11
408.474	6.16
408.68	6.17
408.887	6.03
409.093	6.06
409.299	5.81
409.505	5.93
409.712	5.56
409.918	5.48
410.124	5.43
410.33	5.31
410.537	5.36
410.743	5.41
410.949	5.35
411.155	5.4
411.361	5.49
411.567	5.53
411.773	5.53
411.98	5.62
412.186	5.82
412.392	5.81
412.598	5.7
412.804	5.55
413.01	5.44
413.216	5.56
413.422	5.6
413.628	5.38
413.834	5.34
414.04	5.2
414.246	5.35
414.452	5.26
414.658	5.22
414.864	5.23
415.07	5.39
415.275	5.42
415.481	5.29
415.687	5.16
415.893	5.34
416.099	5.43
416.305	5.47
416.511	5.49
416.716	5.74
416.922	5.73
417.128	5.77
417.334	5.7
417.539	5.78
417.745	5.89
417.951	5.82
418.157	5.7
418.362	5.61
418.568	5.73
418.774	5.81
418.979	5.55
419.185	5.54
419.391	5.6
419.596	5.64
419.802	5.68
420.008	5.65
420.213	5.67
420.419	5.68
420.624	5.79
420.83	5.78
421.035	5.68
421.241	5.72
421.446	5.81
421.652	5.75
421.857	5.78
422.063	5.67
422.268	5.73
422.474	5.85
422.679	5.89
422.885	5.84
423.09	5.84
423.295	5.88
423.501	5.87
423.706	5.88
423.911	5.95
424.117	5.98
424.322	6.07
424.527	6.01
424.733	5.97
424.938	6.06
425.143	6.06
425.349	6
425.554	6.01
425.759	6.11
425.964	6.03
426.169	6.02
426.375	5.91
426.58	5.83
426.785	5.81
426.99	5.85
427.195	5.82
427.4	5.99
427.605	6.15
427.811	6.12
428.016	6.03
428.221	6.18
428.426	6.1
428.631	6.2
428.836	6.26
429.041	6.18
429.246	6.28
429.451	6.25
429.656	6.13
429.861	6.03
430.066	6.17
430.271	6.22
430.476	6.22
430.681	6.29
430.886	6.29
431.09	6.45
431.295	6.44
431.5	6.3
431.705	6.29
431.91	6.28
432.115	6.15
432.32	5.96
432.524	5.91
432.729	5.76
432.934	5.74
433.139	5.73
433.343	5.59
433.548	5.7
433.753	5.82
433.958	5.7
434.162	5.66
434.367	5.79
434.572	5.97
434.776	5.99
434.981	6.02
435.186	5.99
435.39	6.01
435.595	6.12
435.799	6.13
436.004	5.92
436.209	5.92
436.413	5.98
436.618	5.98
436.822	5.88
437.027	5.9
437.231	5.92
437.436	6
437.64	5.99
437.845	5.95
438.049	5.98
438.253	6.16
438.458	6.27
438.662	6.15
438.867	6.07
439.071	6.13
439.275	6.15
439.48	6.2
439.684	6.25
439.888	6.3
440.093	6.33
440.297	6.33
440.501	6.27
440.706	6.19
440.91	6.28
441.114	6.32
441.318	6.37
441.523	6.46
441.727	6.4
441.931	6.45
442.135	6.45
442.339	6.38
442.543	6.31
442.748	6.42
442.952	6.55
443.156	6.63
443.36	6.67
443.564	6.65
443.768	6.53
443.972	6.48
444.176	6.29
444.38	6.26
444.584	6.24
444.788	6.32
444.992	6.25
445.196	6.26
445.4	6.25
445.604	6.25
445.808	6.21
446.012	6.24
446.216	6.32
446.42	6.41
446.624	6.37
446.828	6.42
447.032	6.38
447.235	6.46
447.439	6.49
447.643	6.43
447.847	6.41
448.051	6.34
448.254	6.36
448.458	6.28
448.662	6.23
448.866	6.26
449.069	6.24
449.273	6.3
449.477	6.13
449.681	6.08
449.884	6.12
450.088	6.1
450.292	6.26
450.495	6.14
450.699	6.27
450.902	6.26
451.106	6.28
451.31	6.29
451.513	6.27
451.717	6.31
451.92	6.32
452.124	6.32
452.327	6.35
452.531	6.34
452.734	6.43
452.938	6.37
453.141	6.43
453.345	6.51
453.548	6.31
453.752	6.22
453.955	6.09
454.158	6.09
454.362	6.12
454.565	6.06
454.769	6.01
454.972	6.04
455.175	6.11
455.379	6.08
455.582	6.07
455.785	6.23
455.988	6.37
456.192	6.53
456.395	6.46
456.598	6.4
456.801	6.43
457.005	6.52
457.208	6.53
457.411	6.53
457.614	6.58
457.817	6.54
458.021	6.6
458.224	6.62
458.427	6.62
458.63	6.63
458.833	6.56
459.036	6.6
459.239	6.57
459.442	6.53
459.645	6.47
459.848	6.38
460.051	6.39
460.254	6.42
460.457	6.35
460.66	6.37
460.863	6.33
461.066	6.52
461.269	6.49
461.472	6.54
461.675	6.56
461.878	6.56
462.081	6.63
462.284	6.63
462.486	6.69
462.689	6.78
462.892	6.77
463.095	6.82
463.298	6.66
463.5	6.69
463.703	6.68
463.906	6.6
464.109	6.62
464.311	6.54
464.514	6.61
464.717	6.55
464.92	6.52
465.122	6.45
465.325	6.53
465.528	6.7
465.73	6.63
465.933	6.63
466.135	6.66
466.338	6.73
466.541	6.88
466.743	6.7
466.946	6.73
467.148	6.65
467.351	6.78
467.553	6.79
467.756	6.76
467.958	6.86
468.161	6.83
468.363	6.85
468.566	6.8
468.768	6.66
468.971	6.73
469.173	6.73
469.375	6.73
469.578	6.49
469.78	6.44
469.983	6.4
470.185	6.38
470.387	6.34
470.59	6.55
470.792	6.5
470.994	6.57
471.196	6.54
471.399	6.37
471.601	6.39
471.803	6.46
472.005	6.42
472.208	6.33
472.41	6.3
472.612	6.34
472.814	6.2
473.016	6.34
473.218	6.35
473.421	6.39
473.623	6.5
473.825	6.53
474.027	6.55
474.229	6.52
474.431	6.49
474.633	6.65
474.835	6.69
475.037	6.72
475.239	6.62
475.441	6.71
475.643	6.63
475.845	6.53
476.047	6.54
476.249	6.62
476.451	6.78
476.653	6.94
476.855	6.88
477.057	6.92
477.258	6.93
477.46	6.96
477.662	6.86
477.864	6.98
478.066	6.99
478.268	7.05
478.469	7.04
478.671	6.99
478.873	6.89
479.075	6.86
479.276	6.81
479.478	6.86
479.68	6.9
479.882	6.92
480.083	7
480.285	6.93
480.487	6.87
480.688	6.79
480.89	6.79
481.091	6.83
481.293	6.78
481.495	6.75
481.696	6.64
481.898	6.62
482.099	6.59
482.301	6.6
482.502	6.66
482.704	6.67
482.905	6.71
483.107	6.68
483.308	6.7
483.51	6.71
483.711	6.71
483.913	6.72
484.114	6.74
484.315	6.75
484.517	6.69
484.718	6.67
484.92	6.68
485.121	6.66
485.322	6.65
485.524	6.61
485.725	6.6
485.926	6.6
486.127	6.61
486.329	6.54
486.53	6.55
486.731	6.58
486.932	6.59
487.134	6.55
487.335	6.56
487.536	6.58
487.737	6.62
487.938	6.66
488.139	6.66
488.341	6.66
488.542	6.69
488.743	6.74
488.944	6.71
489.145	6.73
489.346	6.75
489.547	6.74
489.748	6.77
489.949	6.69
490.15	6.64
490.351	6.64
490.552	6.68
490.753	6.73
490.954	6.69
491.155	6.73
491.356	6.78
491.557	6.78
491.758	6.83
491.959	6.8
492.159	6.78
492.36	6.83
492.561	6.84
492.762	6.83
492.963	6.78
493.164	6.79
493.364	6.78
493.565	6.79
493.766	6.78
493.967	6.77
494.167	6.83
494.368	6.92
494.569	6.92
494.769	6.97
494.97	6.9
495.171	6.99
495.371	7.04
495.572	7.06
495.773	7.06
495.973	7.22
496.174	7.23
496.375	7.2
496.575	7.2
496.776	7.14
496.976	7.12
497.177	7.22
497.377	7.25
497.578	7.21
497.778	7.18
497.979	7.2
498.179	7.17
498.38	7.11
498.58	7.11
498.78	7.21
498.981	7.34
499.181	7.32
499.382	7.29
499.582	7.17
499.782	7.19
499.983	7.27
500.183	7.19
500.383	7.15
500.584	7.21
500.784	7.25
500.984	7.04
501.184	6.94
501.385	6.97
501.585	6.91
501.785	7.05
501.985	7.15
502.185	7.13
502.386	7.2
502.586	7.2
502.786	7.22
502.986	7.26
503.186	7.45
503.386	7.57
503.586	7.68
503.786	7.87
503.987	7.9
504.187	7.8
504.387	7.83
504.587	7.83
504.787	7.88
504.987	7.89
505.187	7.89
505.387	7.92
505.587	7.85
505.786	7.87
505.986	7.77
506.186	7.73
506.386	7.74
506.586	7.71
506.786	7.76
506.986	7.78
507.186	7.85
507.386	7.79
507.585	7.83
507.785	7.85
507.985	7.84
508.185	7.84
508.384	7.9
508.584	8.02
508.784	8.21
508.984	8.23
509.183	8.24
509.383	8.21
509.583	8.34
509.782	8.38
509.982	8.49
510.182	8.51
510.381	8.58
510.581	8.6
510.781	8.67
510.98	8.57
511.18	8.57
511.379	8.73
511.579	8.86
511.778	8.91
511.978	8.93
512.177	9.02
512.377	9.14
512.576	9.25
512.776	9.24
512.975	9.15
513.175	9.18
513.374	9.26
513.573	9.27
513.773	9.31
513.972	9.24
514.172	9.35
514.371	9.22
514.57	9.2
514.77	9.27
514.969	9.42
515.168	9.55
515.367	9.69
515.567	9.76
515.766	9.79
515.965	9.81
516.164	9.93
516.364	9.9
516.563	10.01
516.762	9.92
516.961	9.9
517.16	9.99
517.359	10.05
517.559	10.09
517.758	10.16
517.957	10.23
518.156	10.28
518.355	10.29
518.554	10.42
518.753	10.42
518.952	10.54
519.151	10.63
519.35	10.64
519.549	10.67
519.748	10.63
519.947	10.74
520.146	10.73
520.345	10.75
520.544	10.81
520.743	10.72
520.942	10.87
521.141	10.98
521.339	11.06
521.538	11.1
521.737	11.14
521.936	11.33
522.135	11.25
522.333	11.37
522.532	11.42
522.731	11.53
522.93	11.75
523.129	11.86
523.327	11.96
523.526	12.05
523.725	12.08
523.923	12.22
524.122	12.28
524.321	12.4
524.519	12.48
524.718	12.57
524.917	12.67
525.115	12.62
525.314	12.59
525.512	12.64
525.711	12.68
525.909	12.77
526.108	12.75
526.306	12.78
526.505	12.8
526.703	12.84
526.902	12.89
527.1	12.95
527.299	13.08
527.497	13.09
527.696	13.07
527.894	13.08
528.092	13.12
528.291	13.11
528.489	13.17
528.688	13.18
528.886	13.26
529.084	13.32
529.283	13.32
529.481	13.33
529.679	13.41
529.877	13.46
530.076	13.51
530.274	13.53
530.472	13.63
530.67	13.66
530.869	13.81
531.067	13.82
531.265	13.81
531.463	13.91
531.661	13.88
531.859	13.94
532.057	14.06
532.255	14.17
532.454	14.29
532.652	14.36
532.85	14.46
533.048	14.44
533.246	14.48
533.444	14.58
533.642	14.66
533.84	14.8
534.038	14.84
534.236	14.88
534.434	14.84
534.632	14.86
534.83	14.92
535.027	15
535.225	15.06
535.423	15.05
535.621	15.06
535.819	15.08
536.017	15.08
536.215	15.2
536.412	15.23
536.61	15.35
536.808	15.43
537.006	15.51
537.203	15.48
537.401	15.52
537.599	15.66
537.797	15.8
537.994	15.88
538.192	15.95
538.39	16.03
538.587	16.16
538.785	16.28
538.983	16.28
539.18	16.43
539.378	16.56
539.575	16.71
539.773	16.78
539.97	16.83
540.168	16.87
540.366	16.97
540.563	16.98
540.761	17.03
540.958	17.03
541.155	17.13
541.353	17.12
541.55	17.12
541.748	17.15
541.945	17.15
542.143	17.2
542.34	17.21
542.537	17.27
542.735	17.35
542.932	17.41
543.129	17.51
543.327	17.57
543.524	17.68
543.721	17.84
543.919	17.98
544.116	18.14
544.313	18.25
544.51	18.39
544.708	18.47
544.905	18.61
545.102	18.73
545.299	18.84
545.496	18.95
545.693	19.02
545.891	19.07
546.088	19.11
546.285	19.11
546.482	19.15
546.679	19.12
546.876	19.18
547.073	19.14
547.27	19.11
547.467	19.11
547.664	19.04
547.861	18.91
548.058	18.75
548.255	18.64
548.452	18.63
548.649	18.48
548.846	18.47
549.043	18.43
549.24	18.31
549.437	18.24
549.633	18.21
549.83	18.13
550.027	18.26
550.224	18.4
550.421	18.53
550.618	18.55
550.814	18.63
551.011	18.69
551.208	18.6
551.405	18.61
551.601	18.76
551.798	18.81
551.995	19.03
552.191	19.04
552.388	19.06
552.585	18.89
552.781	18.98
552.978	19
553.175	19.03
553.371	19.16
553.568	19.27
553.764	19.19
553.961	19.17
554.157	18.98
554.354	19.02
554.55	18.93
554.747	19.02
554.943	18.95
555.14	18.9
555.336	18.81
555.533	18.79
555.729	18.9
555.926	18.95
556.122	19.02
556.318	19.06
556.515	18.95
556.711	19.12
556.907	19.1
557.104	19.25
557.3	19.26
557.496	19.32
557.693	19.33
557.889	19.2
558.085	19.24
558.281	19.18
558.478	19.34
558.674	19.56
558.87	19.62
559.066	19.62
559.262	19.57
559.459	19.67
559.655	19.81
559.851	19.96
560.047	20.06
560.243	20.1
560.439	20.16
560.635	20.08
560.831	20.03
561.027	20.02
561.223	20.14
561.419	20.06
561.615	20.15
561.811	20.08
562.007	19.95
562.203	19.91
562.399	19.82
562.595	19.88
562.791	19.99
562.987	19.88
563.183	19.79
563.379	19.76
563.575	19.86
563.771	19.91
563.966	20.02
564.162	20
564.358	20.02
564.554	20.08
564.75	20.04
564.945	19.97
565.141	20.19
565.337	20.18
565.533	20.22
565.728	20.24
565.924	20.19
566.12	20.13
566.315	20.06
566.511	19.9
566.707	19.86
566.902	19.85
567.098	19.91
567.293	19.8
567.489	19.81
567.684	19.82
567.88	19.82
568.076	19.87
568.271	19.95
568.467	20.06
568.662	20.29
568.858	20.35
569.053	20.29
569.248	20.39
569.444	20.35
569.639	20.44
569.835	20.4
570.03	20.47
570.225	20.4
570.421	20.36
570.616	20.52
570.812	20.59
571.007	20.61
571.202	20.75
571.397	20.65
571.593	20.67
571.788	20.64
571.983	20.75
572.178	20.81
572.374	20.74
572.569	20.75
572.764	20.58
572.959	20.47
573.154	20.4
573.35	20.34
573.545	20.31
573.74	20.4
573.935	20.48
574.13	20.49
574.325	20.46
574.52	20.58
574.715	20.75
574.91	20.9
575.105	21
575.3	21.15
575.495	21.14
575.69	21.23
575.885	21.29
576.08	21.18
576.275	21.17
576.47	21.28
576.665	21.29
576.86	21.23
577.055	21.21
577.25	21.26
577.444	21.28
577.639	21.5
577.834	21.52
578.029	21.62
578.224	21.93
578.418	22.03
578.613	21.86
578.808	21.93
579.003	21.99
579.197	22.12
579.392	22.12
579.587	22.14
579.781	21.96
579.976	22.04
580.171	21.97
580.365	21.83
580.56	21.8
580.755	21.82
580.949	21.86
581.144	21.83
581.338	21.62
581.533	21.67
581.727	21.75
581.922	21.79
582.116	21.79
582.311	21.81
582.505	21.87
582.7	21.97
582.894	22.01
583.089	21.97
583.283	22.13
583.478	22.2
583.672	22.25
583.866	22.26
584.061	22.34
584.255	22.37
584.449	22.38
584.644	22.59
584.838	22.68
585.032	22.82
585.226	22.9
585.421	22.65
585.615	22.62
585.809	22.62
586.003	22.78
586.198	22.82
586.392	23.01
586.586	23.07
586.78	22.88
586.974	22.78
587.168	22.91
587.363	23.04
587.557	23.16
587.751	23.25
587.945	23.17
588.139	22.91
588.333	22.87
588.527	22.73
588.721	22.57
588.915	22.47
589.109	22.43
589.303	22.17
589.497	22.03
589.691	22.13
589.885	22.28
590.079	22.3
590.273	22.36
590.466	22.62
590.66	22.54
590.854	22.73
591.048	22.85
591.242	22.88
591.436	23.11
591.629	23.16
591.823	23.21
592.017	23.13
592.211	23.18
592.404	23.18
592.598	23.1
592.792	23.24
592.986	23.1
593.179	23.23
593.373	23.38
593.567	23.22
593.76	23.22
593.954	23.12
594.147	23.15
594.341	23.2
594.535	23.22
594.728	23.08
594.922	22.93
595.115	23.02
595.309	22.95
595.502	22.81
595.696	22.89
595.889	22.84
596.083	22.82
596.276	22.8
596.47	22.87
596.663	22.93
596.856	23.01
597.05	23.13
597.243	23.19
597.437	23.16
597.63	23.22
597.823	23.15
598.017	23.24
598.21	23.36
598.403	23.32
598.596	23.29
598.79	23.27
598.983	23.29
599.176	23.25
599.369	23.2
599.563	23.24
599.756	23.16
599.949	23.35
600.142	23.48
600.335	23.52
600.528	23.64
600.722	23.59
600.915	23.63
601.108	23.52
601.301	23.72
601.494	23.85
601.687	23.88
601.88	23.94
602.073	23.78
602.266	23.6
602.459	23.59
602.652	23.64
602.845	23.68
603.038	23.59
603.231	23.63
603.424	23.4
603.617	23.15
603.809	23.27
604.002	23.17
604.195	23.2
604.388	23.33
604.581	23.16
604.774	23.06
604.966	23.09
605.159	23.13
605.352	23.13
605.545	23.18
605.737	23.26
605.93	23.07
606.123	23.22
606.316	23.32
606.508	23.28
606.701	23.53
606.894	23.6
607.086	23.55
607.279	23.54
607.471	23.7
607.664	23.92
607.857	24.21
608.049	24.53
608.242	24.74
608.434	24.97
608.627	25.36
608.819	25.6
609.012	26.09
609.204	26.77
609.397	27.57
609.589	28.27
609.782	28.91
609.974	29.56
610.166	30.31
610.359	31.08
610.551	31.79
610.743	32.33
610.936	33.09
611.128	33.58
611.32	33.83
611.513	33.94
611.705	33.87
611.897	33.86
612.09	33.71
612.282	33.42
612.474	33.17
612.666	32.91
612.858	32.47
613.051	31.92
613.243	31.49
613.435	31.14
613.627	30.76
613.819	30.4
614.011	30.09
614.203	29.76
614.395	29.32
614.588	29.05
614.78	28.72
614.972	28.44
615.164	28.1
615.356	27.65
615.548	27.13
615.74	27.07
615.932	26.91
616.124	26.65
616.315	26.35
616.507	26.2
616.699	26
616.891	25.96
617.083	25.88
617.275	25.8
617.467	25.78
617.659	25.86
617.85	25.42
618.042	25.43
618.234	25.3
618.426	25.27
618.618	25.32
618.809	24.95
619.001	24.8
619.193	24.94
619.384	24.91
619.576	24.92
619.768	24.82
619.959	24.91
620.151	24.87
620.343	24.85
620.534	25.09
620.726	24.91
620.917	24.93
621.109	24.79
621.301	24.72
621.492	24.85
621.684	24.85
621.875	25.03
622.067	25.22
622.258	25.05
622.45	25.07
622.641	24.95
622.832	25
623.024	25.16
623.215	25.45
623.407	25.31
623.598	25.08
623.789	25.12
623.981	25.03
624.172	24.99
624.363	25.23
624.555	25.42
624.746	25.27
624.937	25.42
625.129	25.52
625.32	25.33
625.511	25.53
625.702	25.54
625.893	25.44
626.085	25.46
626.276	25.44
626.467	25.38
626.658	25.39
626.849	25.45
627.04	25.45
627.231	25.33
627.422	25.46
627.614	25.35
627.805	25.55
627.996	25.66
628.187	25.62
628.378	25.43
628.569	25.55
628.76	25.35
628.951	25.31
629.142	25.37
629.332	25.43
629.523	25.41
629.714	25.66
629.905	25.6
630.096	25.65
630.287	25.84
630.478	26.06
630.669	25.97
630.859	26.15
631.05	26.3
631.241	26.01
631.432	25.9
631.623	25.66
631.813	25.48
632.004	25.32
632.195	25.35
632.385	25.37
632.576	25.18
632.767	25.04
632.957	24.77
633.148	24.61
633.339	24.78
633.529	24.86
633.72	24.95
633.91	24.74
634.101	24.58
634.292	24.6
634.482	24.43
634.673	24.59
634.863	24.7
635.054	24.86
635.244	25.01
635.435	24.94
635.625	25.03
635.815	25.15
636.006	25.29
636.196	25.36
636.387	25.33
636.577	25.18
636.767	24.89
636.958	24.84
637.148	24.73
637.338	24.58
637.529	24.61
637.719	24.55
637.909	24.34
638.099	24.3
638.29	24.48
638.48	24.41
638.67	24.4
638.86	24.55
639.05	24.36
639.241	24.61
639.431	24.65
639.621	24.66
639.811	24.69
640.001	24.73
640.191	24.63
640.381	24.61
640.571	24.55
640.761	24.68
640.951	24.6
641.141	24.69
641.331	24.67
641.521	24.79
641.711	24.73
641.901	24.42
642.091	24.66
642.281	24.59
642.471	24.51
642.661	24.6
642.851	24.59
643.041	25
643.231	24.99
643.42	24.93
643.61	24.75
643.8	24.43
643.99	24.74
644.18	24.6
644.369	24.83
644.559	24.79
644.749	24.74
644.939	24.84
645.128	24.57
645.318	24.68
645.508	24.6
645.697	24.9
645.887	25.08
646.076	25.05
646.266	24.96
646.456	25.02
646.645	25.35
646.835	25.41
647.024	25.39
647.214	25.51
647.403	25.47
647.593	25.7
647.782	25.72
647.972	25.86
648.161	25.86
648.351	26.01
648.54	26.12
648.73	26.04
648.919	25.86
649.108	26.21
649.298	26.36
649.487	26.46
649.677	26.34
649.866	25.99
650.055	25.81
650.244	26.03
650.434	25.94
650.623	25.65
650.812	25.45
651.002	25.7
651.191	25.45
651.38	25.39
651.569	25.44
651.758	25.49
651.947	25.7
652.137	26
652.326	25.6
652.515	25.61
652.704	25.67
652.893	25.69
653.082	25.63
653.271	25.5
653.46	25.37
653.649	25.47
653.838	25.37
654.027	25.36
654.216	25.38
654.405	25.48
654.594	25.49
654.783	25.31
654.972	25.35
655.161	25.45
655.35	25.64
655.539	25.77
655.728	25.57
655.916	25.42
656.105	25.55
656.294	25.62
656.483	25.73
656.672	25.61
656.86	25.81
657.049	25.84
657.238	25.98
657.427	25.82
657.615	25.8
657.804	25.8
657.993	26.08
658.181	25.99
658.37	25.78
658.559	25.88
658.747	25.77
658.936	25.7
659.125	25.53
659.313	25.32
659.502	25.54
659.69	25.34
659.879	25.47
660.067	25.44
660.256	25.5
660.444	25.66
660.633	25.5
660.821	25.8
661.01	26.04
661.198	26.38
661.387	26.42
661.575	26.49
661.763	26.44
661.952	26.44
662.14	26.19
662.328	26.25
662.517	26.01
662.705	26
662.893	26.07
663.082	26.01
663.27	25.93
663.458	25.99
663.646	25.93
663.834	26.18
664.023	25.98
664.211	25.97
664.399	25.93
664.587	26.2
664.775	26.42
664.963	26.22
665.152	26.24
665.34	26.4
665.528	26.32
665.716	26.21
665.904	26.39
666.092	26.51
666.28	26.65
666.468	26.41
666.656	26.47
666.844	26.54
667.032	26.56
667.22	26.5
667.408	26.43
667.596	26.39
667.784	25.97
667.971	25.96
668.159	25.85
668.347	25.69
668.535	25.54
668.723	25.48
668.911	25.41
669.098	25.25
669.286	25.11
669.474	25.15
669.662	25.02
669.849	25.07
670.037	24.86
670.225	24.81
670.413	25.13
670.6	25.24
670.788	25.24
670.976	24.98
671.163	25.09
671.351	24.9
671.538	24.53
671.726	24.88
671.913	25.23
672.101	25.51
672.289	25.74
672.476	25.65
672.664	25.66
672.851	25.57
673.039	25.95
673.226	25.87
673.413	26.28
673.601	26.65
673.788	26.67
673.976	26.64
674.163	26.64
674.35	26.85
674.538	26.88
674.725	26.98
674.912	27.18
675.1	27.06
675.287	27.2
675.474	27.19
675.662	27.16
675.849	26.63
676.036	26.44
676.223	26.13
676.411	26.02
676.598	26.02
676.785	26.19
676.972	25.95
677.159	25.74
677.346	25.81
677.533	25.93
677.721	25.83
677.908	26.21
678.095	26.47
678.282	26.51
678.469	26.48
678.656	26.74
678.843	26.5
679.03	26.73
679.217	26.87
679.404	26.99
679.591	26.82
679.778	26.96
679.964	26.95
680.151	26.98
680.338	26.89
680.525	26.5
680.712	26.37
680.899	26.6
681.086	26.33
681.272	26.31
681.459	26.03
681.646	26.19
681.833	26.02
682.02	26.02
682.206	25.64
682.393	25.83
682.58	26.02
682.766	25.93
682.953	25.66
683.14	25.56
683.326	25.63
683.513	25.85
683.7	25.74
683.886	25.81
684.073	25.79
684.259	25.81
684.446	25.96
684.632	26.06
684.819	25.78
685.005	26.1
685.192	26.58
685.378	26.51
685.565	26.57
685.751	26.51
685.938	26.4
686.124	26.26
686.31	26.58
686.497	26.32
686.683	26.62
686.87	26.76
687.056	26.67
687.242	26.54
687.429	26.93
687.615	26.83
687.801	26.69
687.987	26.63
688.174	26.67
688.36	26.45
688.546	26.63
688.732	26.44
688.918	26.67
689.105	26.88
689.291	27.02
689.477	26.8
689.663	26.59
689.849	26.8
690.035	27.09
690.221	27.47
690.407	27.71
690.593	27.59
690.779	27.42
690.965	27.43
691.151	27.17
691.337	26.86
691.523	26.76
691.709	27.25
691.895	27.24
692.081	27
692.267	26.89
692.453	26.92
692.639	27.15
692.825	26.98
693.011	26.75
693.196	26.82
693.382	26.66
693.568	26.57
693.754	26.54
693.94	26.59
694.125	26.84
694.311	26.63
694.497	26.15
694.682	26.14
694.868	26.76
695.054	27.21
695.239	27.25
695.425	27.42
695.611	27.81
695.796	27.32
695.982	27.29
696.168	27.02
696.353	26.99
696.539	27.43
696.724	27.29
696.91	26.92
697.095	26.85
697.281	27.1
697.466	27.44
697.652	27.29
697.837	27.12
698.023	27.13
698.208	27.1
698.393	27.09
698.579	27.05
698.764	27.07
698.949	27.04
699.135	26.86
699.32	26.52
699.505	26.34
699.691	26.31
699.876	26.27
700.061	26.21
700.246	26.34
700.432	26.32
700.617	26.21
700.802	26.21
700.987	26.3
701.172	26.47
701.358	26.67
701.543	26.66
701.728	26.51
701.913	26.91
702.098	26.62
702.283	26.54
702.468	26.64
702.653	26.83
702.838	26.58
703.023	26.86
703.208	26.85
703.393	26.67
703.578	26.58
703.763	26.53
703.948	27.07
704.133	27.81
704.318	28.04
704.503	28.44
704.688	28.44
704.873	28.9
705.057	28.87
705.242	28.75
705.427	29.04
705.612	28.84
705.797	29.26
705.981	28.85
706.166	28.5
706.351	28.87
706.536	29.01
706.72	29.19
706.905	29.42
707.09	29.64
707.274	30.08
707.459	29.94
707.644	30.58
707.828	30.45
708.013	30.41
708.197	30.35
708.382	29.81
708.567	29.79
708.751	29.62
708.936	29.19
709.12	29.19
709.305	29.19
709.489	29.24
709.673	28.98
709.858	28.77
710.042	28.92
710.227	29.16
710.411	29.04
710.596	28.58
710.78	28.73
710.964	28.85
711.149	28.38
711.333	28.5
711.517	28.42
711.702	28.22
711.886	28.44
712.07	28.36
712.254	28.18
712.438	28.48
712.623	28.76
712.807	28.66
712.991	28.59
713.175	28.87
713.359	28.49
713.544	28.19
713.728	28.58
713.912	28.39
714.096	28.43
714.28	28.55
714.464	28.56
714.648	28.33
714.832	28.2
715.016	28.27
715.2	28.3
715.384	28.17
715.568	28.58
715.752	27.78
715.936	27.63
716.12	27.41
716.304	27.04
716.488	26.97
716.671	27.01
716.855	26.72
717.039	26.64
717.223	26.81
717.407	26.8
717.59	26.31
717.774	26.91
717.958	27.06
718.142	27.27
718.325	27.54
718.509	27.54
718.693	27.36
718.877	27.38
719.06	26.93
719.244	26.24
719.428	26.41
719.611	26.88
719.795	26.71
719.978	26.75
720.162	26.65
720.345	27.18
720.529	27.3
720.713	27.49
720.896	27.45
721.08	27.68
721.263	27.99
721.446	27.85
721.63	27.83
721.813	27.16
721.997	27.02
722.18	27.02
722.364	26.23
722.547	25.68
722.73	26.07
722.914	26.29
723.097	26.71
723.28	26.43
723.464	25.97
723.647	25.88
723.83	26.53
724.013	26.87
724.197	26.78
724.38	26.88
724.563	26.95
724.746	26.41
724.929	26.21
725.112	25.73
725.296	25.6
725.479	26.04
725.662	25.91
725.845	25.86
726.028	25.49
726.211	25.39
726.394	25.33
726.577	25.78
726.76	26.57
726.943	26.64
727.126	27.4
727.309	28.29
727.492	28.15
727.675	27.7
727.858	27.78
728.041	27.89
728.224	27.47
728.407	27.68
728.589	27.73
728.772	26.9
728.955	27.29
729.138	26.8
729.321	25.92
729.503	25.96
729.686	26.31
729.869	26.31
730.052	26.25
730.234	26.96
730.417	27.04
730.6	26.6
730.782	26.88
730.965	26.56
731.148	26.57
731.33	26.56
731.513	27.16
731.695	27.1
731.878	27.41
732.061	27.52
732.243	26.71
732.426	27.09
732.608	27.2
732.791	27.44
732.973	27.07
733.156	27.03
733.338	27.6
733.52	26.85
733.703	27.01
733.885	26.87
734.068	26.49
734.25	27.25
734.432	26.62
734.615	27.02
734.797	26.77
734.979	26.99
735.162	26.77
735.344	26.59
735.526	26.56
735.708	26.94
735.891	26.7
736.073	27.49
736.255	27.55
736.437	27.95
736.619	27.24
736.802	27.55
736.984	28.59
737.166	29.14
737.348	29.37
737.53	29.72
737.712	29.35
737.894	29.68
738.076	29.49
738.258	29.35
738.44	28.87
738.622	28.85
738.804	28.23
738.986	27.36
739.168	27.27
739.35	26.4
739.532	26.19
739.714	26.71
739.896	26.18
740.078	26.22
740.259	26.13
740.441	26.14
740.623	27.02
740.805	26.9
740.987	27.63
741.168	28.1
741.35	28.53
741.532	28.45
741.714	28.4
741.895	28.72
742.077	28.5
742.259	28.88
742.44	29.09
742.622	29.4
742.804	29.4
742.985	28.89
743.167	27.98
743.348	28.53
743.53	28.62
743.711	28.37
743.893	28.82
744.075	28.95
744.256	28.34
744.438	28.09
744.619	27.03
744.8	27.28
744.982	27.09
745.163	27.76
745.345	27.27
745.526	27.46
745.707	27.28
745.889	26.69
746.07	27.04
746.252	27.8
746.433	27.68
746.614	27.82
746.795	27.29
746.977	27.32
747.158	26.34
747.339	25.92
747.52	25.67
747.702	25.64
747.883	25.4
748.064	25.04
748.245	25.24
748.426	25.6
748.607	25.83
748.788	27.04
748.97	27.48
749.151	28.22
749.332	28.76
749.513	29.79
749.694	30.57
749.875	31
750.056	31.55
750.237	30.99
750.418	30.97
750.599	30.72
750.78	30.32
750.96	29.79
751.141	29.35
751.322	29.09
751.503	28.2
751.684	27.61
751.865	27.5
752.046	28.11
752.226	28.33
752.407	28.57
752.588	28.92
752.769	28.35
752.949	27.94
753.13	28.14
753.311	29.33
753.492	28.67
753.672	28.85
753.853	28.91
754.034	26.73
754.214	26.22
754.395	26.78
754.575	26.67
754.756	27.62
754.937	28.37
755.117	28.77
755.298	26.9
755.478	28.22
755.659	28.03
755.839	27.43
756.02	28.42
756.2	29.08
756.381	28.76
756.561	28.24
756.741	27.6
756.922	27.69
757.102	27.07
757.283	28.96
757.463	28.59
757.643	28.8
757.823	29.36
758.004	30.05
758.184	29.82
758.364	29.08
758.545	29.38
758.725	29.72
758.905	29.59
759.085	29.84
759.265	28.07
759.446	27.83
759.626	27.26
759.806	26.76
759.986	25.89
760.166	25.11
760.346	25.16
760.526	25.85
760.706	25.04
760.886	24.74
761.066	24.64
761.246	26.02
761.426	26.76
761.606	26.31
761.786	27.46
761.966	28.16
762.146	28.48
762.326	28.59
762.506	27.77
762.686	27.86
762.866	28.41
763.046	28.62
763.225	28.31
763.405	27.7
763.585	27.9
763.765	27.01
763.945	26.19
764.124	25.9
764.304	25.34
764.484	25.55
764.664	25.51
764.843	25.69
765.023	25.22
765.203	24.4
765.382	24.4
765.562	24.79
765.741	24.91
765.921	24.68
766.101	25.34
766.28	26.07
766.46	26.1
766.639	26.36
766.819	25.44
766.998	26.53
767.178	27.53
767.357	27.56
767.537	26.83
767.716	27.29
767.896	28.83
768.075	28.45
768.254	28.87
768.434	28.86
768.613	28.98
768.792	29.45
768.972	28.47
769.151	27.78
769.33	27.34
769.51	27.37
769.689	27.05
769.868	25.56
770.047	26.61
770.226	25.88
770.406	25.66
770.585	26.27
770.764	26.8
770.943	27.14
771.122	27.85
771.301	28.82
771.48	29.13
771.66	28.71
771.839	29.23
772.018	28.11
772.197	28.34
772.376	28.31
772.555	27.99
772.734	27.42
772.913	27.43
773.092	27
773.271	27.59
773.449	28.1
773.628	28.29
773.807	28.62
773.986	29.34
774.165	29.48
774.344	30.17
774.523	29.7
774.701	28.87
774.88	29.47
775.059	30.09
775.238	29.34
775.417	28.65
775.595	29.2
775.774	28.91
775.953	28.46
776.131	28.63
776.31	28.26
776.489	28.06
776.667	27.46
776.846	28.01
777.025	27.9
777.203	28.1
777.382	28.54
777.56	27.8
777.739	29.15
777.917	29.4
778.096	29.75
778.274	29.77
778.453	30.21
778.631	32.11
778.81	31.46
778.988	31.26
779.166	31.69
779.345	32.07
779.523	32.65
779.702	32.28
779.88	31.6
780.058	31.57
780.237	31.74
780.415	31.7
780.593	32.31
780.771	31.67
780.95	31.8
781.128	31.66
781.306	31.56
781.484	32.11
781.662	31.51
781.841	32.07
782.019	32.01
782.197	31.72
782.375	32.32
782.553	30.22
782.731	29.26
782.909	29.05
783.087	27.61
783.265	25.92
783.443	25.13
783.621	24.03
783.799	22.78
783.977	21.87
784.155	21.9
784.333	21.77
784.511	23.13
784.689	24.83
784.867	24.99
785.045	26.27
785.223	27.23
785.4	28.27
785.578	29.61
785.756	31.84
785.934	32.26
786.112	31.64
786.289	30.65
786.467	31.14
786.645	31.61
786.823	32.11
787	31.99
787.178	32.64
787.356	31.58
787.533	31.69
787.711	30.94
787.889	31.09
788.066	31.85
788.244	31.69
788.421	31.19
788.599	29.7
788.776	29.17
788.954	28.63
789.131	27.88
789.309	28.32
789.486	28.64
789.664	27.21
789.841	27.97
790.019	27.06
790.196	27.46
790.373	27.07
790.551	27.69
790.728	27.58
790.906	28.11
791.083	28.47
791.26	27.43
791.437	26.09
791.615	26.66
791.792	25.87
791.969	25.69
792.146	25.65
792.324	25.11
792.501	25.45
792.678	24.86
792.855	24.54
793.032	23.4
793.209	23.92
793.387	26.17
793.564	26.89
793.741	27.18
793.918	27.63
794.095	27.79
794.272	27.82
794.449	27.69
794.626	29.02
794.803	27.92
794.98	30.23
795.157	29.65
795.334	26.19
795.511	26.31
795.688	26.35
795.864	27.04
796.041	27.24
796.218	28.3
796.395	28.11
796.572	27.14
796.749	27.36
796.925	26.81
797.102	27.56
797.279	28.56
797.456	29.09
797.632	27.55
797.809	27.24
797.986	27.68
798.162	27.1
798.339	25.82
798.516	26.54
798.692	26.84
798.869	26.91
799.046	27.44
799.222	27.96
799.399	26.52
799.575	28.07
799.752	27.48
799.928	25.69
800.105	26.07
800.281	28.04
800.458	28.59
800.634	29.77
800.811	28.58
800.987	28.37
801.163	27.73
801.34	28.17
801.516	28.74
801.692	28.38
801.869	30.59
802.045	29.74
802.221	29.61
802.398	28.92
802.574	26.82
802.75	26.85
802.926	26.84
803.103	27.13
803.279	27.67
803.455	25.5
803.631	26.89
803.807	25.08
803.983	25.57
804.16	24.87
804.336	24.81
804.512	26.19
804.688	25.78
804.864	24.36
805.04	25.1
805.216	24.76
805.392	26.12
805.568	27.32
805.744	27.15
805.92	28.32
806.096	27.79
806.272	29.14
806.448	28.4
806.623	27.51
806.799	27.11
806.975	25.9
807.151	25.37
807.327	24.27
807.503	22.88
807.678	24.76
807.854	23.56
808.03	25.43
808.206	23.37
808.381	21.94
808.557	24.4
808.733	25.66
808.908	27.21
809.084	27.77
809.26	27.39
809.435	28.29
809.611	27.43
809.787	29.23
809.962	27.02
810.138	27.7
810.313	29.73
810.489	27.84
810.664	26.21
810.84	26.23
811.015	26.11
811.191	26.8
811.366	26.18
811.542	25.8
811.717	24.22
811.892	25.83
812.068	24.74
812.243	25.93
812.419	26.28
812.594	27.71
812.769	26.07
812.944	28.21
813.12	28.47
813.295	27.18
813.47	27.61
813.645	27.93
813.821	26.56
813.996	28.11
814.171	26.99
814.346	26.74
814.521	28.52
814.697	29.99
814.872	27.36
815.047	28.51
815.222	29.85
815.397	28.79
815.572	27.46
815.747	28.38
815.922	26.52
816.097	27.15
816.272	27.92
816.447	26.45
816.622	24.84
816.797	24.83
816.972	24.94
817.147	24.98
817.322	25.21
817.496	26.6
817.671	25.05
817.846	25.8
818.021	24.93
818.196	25.98
818.371	24.64
818.545	25.82
818.72	25.95
818.895	24.8
819.069	24.47
819.244	25.25
819.419	24.07
819.594	24.58
819.768	24.47
819.943	24.46
820.117	24.36
820.292	25.87
820.467	26.19
820.641	25.94
820.816	25.66
820.99	24.93
821.165	24.6
821.339	24.83
821.514	24.94
821.688	25.3
821.863	25.06
822.037	24.65
822.212	24.44
822.386	24.16
822.56	24.1
822.735	24.32
822.909	24.43
823.084	24.62
823.258	24.44
823.432	24.21
823.606	23.82
823.781	24.02
823.955	24.18
824.129	23.75
824.303	23.56
824.478	23.84
824.652	23.59
824.826	23.8
825	23.59
825.174	23.42
825.348	23.8
825.523	24.04
825.697	24.06
825.871	23.72
826.045	24.25
826.219	24.51
826.393	23.61
826.567	23.55
826.741	23.37
826.915	23.27
827.089	23.99
827.263	24.18
827.437	24.29
827.611	24.5
827.784	25.2
827.958	24.77
828.132	24.59
828.306	24.83
828.48	24.31
828.654	25.05
828.827	25.1
829.001	24.6
829.175	25.05
829.349	24.44
829.522	24.25
829.696	23.53
829.87	24.95
830.044	25.97
830.217	26.59
830.391	27.17
830.565	26.32
830.738	27.05
830.912	28.78
831.085	26.09
831.259	26.43
831.432	25.85
831.606	26.19
831.779	25.54
831.953	24.95
832.126	24.79
832.3	24.78
832.473	26.2
832.647	25.18
832.82	23.84
832.994	25.03
833.167	26.18
833.34	26.46
833.514	25.93
833.687	25.76
833.86	25.46
834.034	25.68
834.207	25.45
834.38	24.41
834.553	24.92
834.727	24.99
834.9	24.24
835.073	23.28
835.246	23.23
835.419	24.11
835.593	24.53
835.766	24.78
835.939	24.19
836.112	24.95
836.285	25.81
836.458	25.49
836.631	24.88
836.804	26.16
836.977	27.82
837.15	27.24
837.323	25.53
837.496	24.5
837.669	26.2
837.842	26.99
838.015	26.2
838.188	23.52
838.361	23.37
838.533	26.16
838.706	25.35
838.879	23.83
839.052	24.11
839.225	26.04
839.398	25.47
839.57	23.04
839.743	23.32
839.916	25.74
840.088	26.42
840.261	27.99
840.434	27.6
840.607	27.4
840.779	28.02
840.952	27.51
841.124	26.93
841.297	27.85
841.47	27.64
841.642	27.72
841.815	27.17
841.987	28.66
842.16	27.26
842.332	27.53
842.505	28.15
842.677	28.13
842.85	26.55
843.022	27.58
843.194	25.16
843.367	29.43
843.539	27.96
843.712	27.09
843.884	22.86
844.056	20.7
844.229	16.82
844.401	14.69
844.573	11.52
844.745	14.94
844.918	14.29
845.09	17.92
845.262	17.94
845.434	20.09
845.606	16.87
845.779	21.61
845.951	19.58
846.123	19.41
846.295	21.15
846.467	21.66
846.639	20.43
846.811	21.58
846.983	19.78
847.155	13.42
847.327	14.65
847.499	13.13
847.671	15.24
847.843	13.68
848.015	19.62
848.187	20.77
848.359	24.04
848.531	23.73
848.703	19.09
848.875	21.57
849.047	22.02
849.218	23.21
849.39	26.91
849.562	23.29
849.734	29.05
849.905	26.59
850.077	27.78
850.249	25
850.421	27.49
850.592	27.96
850.764	29.58
850.936	24.57
851.107	24.37
851.279	21.68
851.451	19.62
851.622	19.22
851.794	13.07
851.965	8.24
852.137	14.87
852.308	6.77
852.48	9.43
852.651	3.6
852.823	10.34
852.994	8.12
853.166	8.92
853.337	8.79
853.509	6.24
853.68	7.59
853.851	11.46
854.023	3.94
854.194	8.49
854.365	10.73
854.537	10.32
854.708	15.96
854.879	14.97
855.05	17.12
855.222	18.3
855.393	18.23
855.564	23.98
855.735	24.59
855.906	27.27
856.078	27.16
856.249	23.51
856.42	25.57
856.591	23.88
856.762	21.64
856.933	18.64
857.104	18.99
857.275	14.72
857.446	9.37
857.617	0.65
857.788	2.64
857.959	3.94
858.13	9.34
858.301	7.27
858.472	7.64
858.643	12.27
858.814	14.6
858.985	15.91
859.155	19.02
859.326	24.04
859.497	26.04
859.668	24.4
859.839	24.09
860.009	20.64
860.18	26.93
860.351	24.49
860.522	19.27
860.692	21.3
860.863	18.94
861.034	21.66
861.204	13.38
861.375	16.5
861.546	15.68
861.716	17.78
861.887	17.38
862.057	15.43
862.228	14.78
862.398	19.4
862.569	18.95
862.739	13.11
862.91	15.96
863.08	21.1
863.251	20.89
863.421	24.16
863.592	23.28
863.762	23.88
863.932	22.99
864.103	19.15
864.273	14.36
864.443	14.55
864.614	21.69
864.784	23.86
864.954	19.6
865.125	18.06
865.295	19.37
865.465	22.12
865.635	21.97
865.805	23.04
865.976	26.47
866.146	29.41
866.316	25.51
866.486	23.8
866.656	14.86
866.826	22.72
866.996	21.16
867.166	17.64
867.336	11.74
867.506	13.53
867.676	7.88
867.846	9.32
868.016	15.59
868.186	21.87
868.356	21.03
868.526	19.16
868.696	12.68
868.866	19.83
869.036	24.23
869.206	31.97
869.376	28.47
869.545	34.02
869.715	30.15
869.885	24.2
870.055	20.15
870.224	25.15
870.394	30.08
870.564	32.41
870.734	31.99
870.903	26.64
871.073	21.21
871.243	20.61
871.412	15.68
871.582	24.37
871.751	22.36
871.921	22.03
872.091	18.05
872.26	14.01
872.43	13.58
872.599	9.1
872.769	13.4
872.938	13.14
873.108	18.77
873.277	22.24
873.446	12.93
873.616	14.69
873.785	17.84
873.955	17.67
874.124	18.05
874.293	13.28
874.463	13.19
874.632	11.78
874.801	17.15
874.971	17.9
875.14	20.59
875.309	19.76
875.478	20.78
875.647	15.9
875.817	20.57
875.986	23.62
876.155	21.69
876.324	18.62
876.493	22.16
876.662	18.83
876.831	13.48
877	3.4
877.17	-5.03
877.339	-2.13
877.508	1.29
877.677	-5.64
877.846	-9.49
878.015	5.1
878.184	6.69
878.352	2.92
878.521	1.51
878.69	4.21
878.859	9.58
879.028	17.71
879.197	17.68
879.366	20.74
879.534	22.01
879.703	25.4
879.872	23.15
880.041	24.74
880.21	23.28
880.378	23.28
880.547	23.34
880.716	22.72
880.884	21.9
881.053	21.27
881.222	20.16
881.39	19.37
881.559	19.76
881.727	19.82
881.896	20.32
882.065	22.49
882.233	23.77
882.402	23
882.57	22.86
882.739	23.94
882.907	24.17
883.076	25.3
883.244	26.45
883.412	25.82
883.581	25.66
883.749	25.09
883.918	23.13
884.086	22.21
884.254	22.82
884.423	23.37
884.591	22.98
884.759	24.05
884.927	22.6
885.096	21.39
885.264	23.04
885.432	21.44
885.6	22.11
885.769	21.08
885.937	21.23
886.105	22.93
886.273	21.57
886.441	22.01
886.609	20.47
886.777	18.28
886.945	20.8
887.113	16.22
887.281	18.71
887.449	16.57
887.617	19.12
887.785	18.21
887.953	15.3
888.121	14.64
888.289	12.58
888.457	10.97
888.625	14.89
888.793	15.87
888.961	16.55
889.129	18.44
889.296	20.93
889.464	22.01
889.632	23.1
889.8	23.53
889.967	31.03
890.135	32.73
