Data from 2938772__Reflection_01.txt Node
Date: Fri Mar 13 14:47:18 EDT 2015
User: robert
Spectrometer: USB4E03002
Autoset integration time: false
Trigger mode: 4
Integration Time (sec): 1.000000E-1
Scans to average: 10
Electric dark correction enabled: false
Nonlinearity correction enabled: false
Boxcar width: 5
Stray light correction enabled: false
XAxis mode: Wavelengths
Stop averaging: false
Number of Pixels in Spectrum: 3648
>>>>>Begin Spectral Data<<<<<
177.575	-241.67
177.794	-617.81
178.014	-1988.89
178.233	962.69
178.452	1732.43
178.672	410.23
178.891	401.83
179.11	2547.83
179.33	-761.19
179.549	-364.29
179.768	-2076.67
179.987	1022.39
180.207	2962.96
180.426	1369.23
180.645	-2497.14
180.864	-1543.55
181.084	-363.39
181.303	-442.52
181.522	-1923.4
181.741	6420
181.96	348.25
182.179	281.96
182.398	222.51
182.618	200.8
182.837	350.18
183.056	274.43
183.275	243.88
183.494	185.88
183.713	226.01
183.932	250.15
184.151	178.52
184.37	232.95
184.589	406.18
184.808	854.44
185.027	273.68
185.246	176.23
185.465	137.86
185.684	172.62
185.903	211.7
186.122	177.41
186.341	162.54
186.56	189.11
186.779	273.67
186.998	209.49
187.216	237.5
187.435	638.14
187.654	317.47
187.873	238.83
188.092	203.01
188.311	296.53
188.53	189.9
188.748	640.62
188.967	-1520.83
189.186	340.58
189.405	374.1
189.623	246.38
189.842	243.24
190.061	240.63
190.28	382.08
190.498	248.4
190.717	206.24
190.936	262.25
191.154	230
191.373	261.38
191.592	245.68
191.81	203.66
192.029	202.77
192.248	201.05
192.466	191
192.685	180.72
192.904	219.26
193.122	210.71
193.341	250.18
193.559	405
193.778	184.95
193.996	267.66
194.215	2256
194.433	500
194.652	312.16
194.87	631.91
195.089	11740
195.307	2492.31
195.526	-646.73
195.744	1923.4
195.963	483.61
196.181	414.05
196.399	295.47
196.618	314.07
196.836	349.16
197.055	577.92
197.273	836.26
197.491	2238.24
197.71	1475.93
197.928	457.54
198.146	480.51
198.365	757.33
198.583	836.36
198.801	-148.03
199.019	-109.31
199.238	-95.8
199.456	-82.44
199.674	-120.53
199.892	-90.24
200.111	-93.04
200.329	-46.99
200.547	-67.66
200.765	-183.89
200.983	-161.32
201.202	-252.34
201.42	-897.92
201.638	2213.04
201.856	597.94
202.074	1373.17
202.292	394.21
202.51	396.12
202.728	297.45
202.946	405.37
203.165	807.94
203.383	55100
203.601	560.56
203.819	366.34
204.037	137.97
204.255	109.22
204.473	87.53
204.691	140.88
204.909	85.18
205.127	160.67
205.345	129.29
205.562	121.4
205.78	96.08
205.998	89.95
206.216	114.05
206.434	125
206.652	158.33
206.87	178.17
207.088	166.03
207.306	224.15
207.523	180.18
207.741	165.83
207.959	177.15
208.177	182.58
208.395	213.66
208.612	278.3
208.83	263.71
209.048	288.48
209.266	2293.33
209.483	-1794.12
209.701	-2864
209.919	864.06
210.136	13420
210.354	-1327.78
210.572	-220.77
210.79	606.54
211.007	294.34
211.225	991.53
211.442	283.71
211.66	167.19
211.878	146.76
212.095	143.3
212.313	168.88
212.53	141.91
212.748	160.65
212.966	114.99
213.183	130.41
213.401	123.5
213.618	113.59
213.836	100.67
214.053	111.27
214.271	100.63
214.488	87.84
214.705	82.87
214.923	81.73
215.14	82.19
215.358	79.45
215.575	77.57
215.793	73.49
216.01	77.57
216.227	90.48
216.445	87.34
216.662	85.02
216.879	89.57
217.097	91.67
217.314	95.44
217.531	98.59
217.749	111.76
217.966	118.8
218.183	118.79
218.4	115.81
218.618	113.19
218.835	92.39
219.052	96.42
219.269	93.98
219.487	91.05
219.704	77.95
219.921	64.2
220.138	49.07
220.355	38.78
220.572	48.56
220.79	41.49
221.007	24.7
221.224	31.66
221.441	21.66
221.658	27.96
221.875	35.42
222.092	38.6
222.309	38.81
222.526	42.75
222.743	44.98
222.96	35.84
223.177	42.64
223.394	45.97
223.611	49.17
223.828	52.5
224.045	45.09
224.262	46.25
224.479	40.6
224.696	42.69
224.913	42.83
225.13	42.27
225.347	45.18
225.564	37.28
225.781	35.65
225.997	31.02
226.214	27.53
226.431	27.74
226.648	20.5
226.865	19.56
227.082	15.58
227.298	14
227.515	12.18
227.732	9.48
227.949	8.22
228.165	7.51
228.382	7.3
228.599	7
228.816	7.16
229.032	7.04
229.249	7.1
229.466	7.46
229.682	6.9
229.899	6.6
230.116	6.54
230.332	6.86
230.549	6.8
230.765	6.98
230.982	6.57
231.199	5.78
231.415	6.14
231.632	7.35
231.848	9.57
232.065	8.77
232.281	8.98
232.498	8.76
232.714	11.07
232.931	13.75
233.147	14.49
233.364	16.38
233.58	15.79
233.797	16.06
234.013	14.81
234.23	11.57
234.446	13.28
234.662	13.05
234.879	13.72
235.095	12.78
235.312	12.4
235.528	9.9
235.744	7.77
235.961	10.11
236.177	8.44
236.393	8.63
236.61	7.48
236.826	5.61
237.042	6.82
237.258	5.72
237.475	5.36
237.691	3.86
237.907	3.84
238.123	5.56
238.339	5.71
238.556	5.63
238.772	5.39
238.988	4.89
239.204	6.67
239.42	7.04
239.636	8.3
239.853	8.37
240.069	9.46
240.285	9.57
240.501	9.26
240.717	7.25
240.933	8.07
241.149	7.84
241.365	8.29
241.581	7.57
241.797	7.09
242.013	6.69
242.229	6.95
242.445	6.17
242.661	6.85
242.877	6.89
243.093	7.53
243.309	7.47
243.525	7.39
243.741	8.08
243.957	8.17
244.173	7.89
244.388	8.46
244.604	7.86
244.82	8.09
245.036	7.49
245.252	6.88
245.468	6.55
245.683	6.89
245.899	6.65
246.115	6.15
246.331	5.92
246.547	6.02
246.762	5.59
246.978	5.46
247.194	5.57
247.409	5.8
247.625	5.7
247.841	5.44
248.057	5.04
248.272	5.02
248.488	5.37
248.703	5.51
248.919	5.41
249.135	5.86
249.35	6.6
249.566	6.4
249.782	6.07
249.997	6.43
250.213	7.83
250.428	8.31
250.644	8.1
250.859	7.42
251.075	8
251.29	8.22
251.506	8.39
251.721	7.87
251.937	8.1
252.152	7.85
252.368	8.41
252.583	7.55
252.798	7.67
253.014	7.69
253.229	8.09
253.445	7.4
253.66	7.31
253.875	6.84
254.091	6.45
254.306	6.24
254.521	6.47
254.737	5.75
254.952	6.09
255.167	5.69
255.383	6.4
255.598	5.73
255.813	6.74
256.028	7.44
256.244	6.86
256.459	7.22
256.674	7.14
256.889	7.18
257.104	6.15
257.32	6.25
257.535	6.02
257.75	5.77
257.965	5.47
258.18	4.78
258.395	4.11
258.61	4.7
258.826	4.32
259.041	4.28
259.256	3.97
259.471	4.09
259.686	3.75
259.901	3.83
260.116	3.6
260.331	3.96
260.546	3.89
260.761	4.02
260.976	3.63
261.191	3.81
261.406	3.58
261.621	3.65
261.836	3.45
262.05	3.19
262.265	3.29
262.48	3.25
262.695	2.75
262.91	2.88
263.125	2.93
263.34	2.73
263.555	2.64
263.769	2.86
263.984	2.61
264.199	2.74
264.414	3.56
264.629	3.27
264.843	3.41
265.058	3.53
265.273	3.63
265.488	3.46
265.702	4.28
265.917	4.1
266.132	4.28
266.346	4.4
266.561	5.14
266.776	5.05
266.99	4.65
267.205	4.77
267.42	4.61
267.634	4.79
267.849	4.63
268.063	4.64
268.278	4.92
268.492	4.41
268.707	4.4
268.922	3.7
269.136	4.05
269.351	4.06
269.565	3.88
269.78	4.01
269.994	3.9
270.209	3.77
270.423	3.42
270.637	3.31
270.852	3.67
271.066	4.01
271.281	4.33
271.495	3.95
271.709	4.09
271.924	4.18
272.138	4.43
272.353	4.29
272.567	4.47
272.781	4.41
272.996	4.25
273.21	4.56
273.424	4.75
273.638	4.65
273.853	4.58
274.067	4.47
274.281	4.84
274.495	4.36
274.71	4.63
274.924	4.86
275.138	5.11
275.352	5.5
275.566	5.4
275.781	4.73
275.995	5.05
276.209	5.33
276.423	5.13
276.637	4.49
276.851	4.94
277.065	5.18
277.279	5.08
277.493	5.41
277.707	5.12
277.921	4.75
278.135	4.67
278.349	4.26
278.563	4.53
278.777	5.08
278.991	5.77
279.205	5.74
279.419	5.14
279.633	4.77
279.847	4.27
280.061	4.32
280.275	4.12
280.489	4.33
280.703	4.03
280.917	3.47
281.131	3.39
281.344	3.04
281.558	2.58
281.772	2.73
281.986	2.84
282.2	2.97
282.414	2.61
282.627	2.65
282.841	2.48
283.055	2.67
283.269	2.69
283.482	2.52
283.696	2.62
283.91	2.6
284.123	2.59
284.337	3.1
284.551	3.08
284.764	3.54
284.978	3.53
285.192	3.78
285.405	3.6
285.619	3.48
285.833	3.6
286.046	3.41
286.26	3.62
286.473	3.87
286.687	3.55
286.9	3.4
287.114	3.22
287.327	3.43
287.541	3.24
287.754	3.49
287.968	3.78
288.181	3.68
288.395	3.97
288.608	4.23
288.822	3.71
289.035	3.74
289.248	3.94
289.462	4.14
289.675	3.89
289.889	3.99
290.102	4.05
290.315	4.06
290.529	4.16
290.742	4.25
290.955	3.77
291.169	4.32
291.382	4.28
291.595	4.35
291.808	4.35
292.022	4.34
292.235	4.23
292.448	4.22
292.661	4.01
292.875	4.01
293.088	4.24
293.301	4.51
293.514	4.22
293.727	4.65
293.94	4.39
294.153	4.53
294.367	4.48
294.58	4.45
294.793	4.22
295.006	4.43
295.219	4.42
295.432	3.86
295.645	3.99
295.858	3.78
296.071	3.51
296.284	3.48
296.497	3.31
296.71	3.85
296.923	4.22
297.136	4.38
297.349	4.46
297.562	4.73
297.775	4.86
297.988	5.13
298.201	5.47
298.414	5.67
298.626	5.76
298.839	5.75
299.052	5.42
299.265	5.13
299.478	5.35
299.691	5.26
299.903	5.1
300.116	5.29
300.329	4.98
300.542	5.11
300.755	4.65
300.967	4.7
301.18	4.69
301.393	5.09
301.605	5.14
301.818	4.92
302.031	4.97
302.243	4.64
302.456	4.72
302.669	4.34
302.881	4.07
303.094	4.34
303.307	4.49
303.519	4.47
303.732	4.37
303.944	4.25
304.157	4.38
304.37	4.36
304.582	4.38
304.795	3.89
305.007	4.52
305.22	4.44
305.432	4.36
305.645	4.19
305.857	4.64
306.069	4.32
306.282	4.6
306.494	4.62
306.707	4.74
306.919	4.77
307.132	5.1
307.344	4.91
307.556	5.18
307.769	5.43
307.981	5.59
308.193	5.38
308.406	5.33
308.618	5.23
308.83	5.09
309.043	4.8
309.255	4.89
309.467	4.81
309.679	4.7
309.892	4.74
310.104	4.68
310.316	4.48
310.528	4.28
310.74	4.5
310.953	4.6
311.165	4.74
311.377	4.75
311.589	5.11
311.801	5.09
312.013	5.23
312.225	5.11
312.437	5.21
312.649	5.38
312.862	5.58
313.074	5.26
313.286	5.6
313.498	5.52
313.71	5.89
313.922	5.76
314.134	6
314.346	5.71
314.558	5.98
314.77	6.1
314.982	6.28
315.193	6.55
315.405	7.13
315.617	6.77
315.829	6.8
316.041	6.93
316.253	6.56
316.465	6.64
316.677	6.92
316.888	6.91
317.1	6.66
317.312	6.78
317.524	6.61
317.736	6.74
317.947	6.64
318.159	7.08
318.371	6.93
318.583	7.13
318.794	7.23
319.006	7.27
319.218	7.07
319.43	6.71
319.641	6.78
319.853	7.15
320.064	6.77
320.276	7.17
320.488	7.27
320.699	7.5
320.911	7.95
321.123	7.55
321.334	7.58
321.546	7.79
321.757	8.02
321.969	7.52
322.18	7.32
322.392	7.7
322.603	7.34
322.815	7.05
323.026	6.84
323.238	6.56
323.449	6.89
323.661	6.86
323.872	6.85
324.083	6.96
324.295	7.46
324.506	7.47
324.718	7.09
324.929	7.24
325.14	6.95
325.352	6.96
325.563	7.08
325.774	7
325.986	7.13
326.197	7.29
326.408	7.57
326.62	7.33
326.831	7.31
327.042	7.57
327.253	7.45
327.464	8.08
327.676	8.21
327.887	8.26
328.098	8.55
328.309	8.46
328.52	8.46
328.732	8.84
328.943	9.38
329.154	9.56
329.365	9.55
329.576	9.65
329.787	9.35
329.998	8.98
330.209	8.81
330.42	9.05
330.631	9.38
330.842	9.12
331.053	9.05
331.264	8.76
331.475	8.57
331.686	8.51
331.897	8.65
332.108	8.69
332.319	9.41
332.53	9.45
332.741	9.41
332.952	9.29
333.163	8.9
333.374	8.65
333.585	8.47
333.795	8.46
334.006	8.7
334.217	8.93
334.428	8.95
334.639	8.71
334.849	8.83
335.06	8.46
335.271	8.86
335.482	9.54
335.692	9.52
335.903	9.64
336.114	9.76
336.325	9.75
336.535	9.31
336.746	9.44
336.957	9.38
337.167	9.41
337.378	9.65
337.589	9.17
337.799	8.94
338.01	9.1
338.22	9.25
338.431	9.01
338.642	8.84
338.852	9.12
339.063	9.14
339.273	9.2
339.484	9.38
339.694	9.04
339.905	9.1
340.115	9.12
340.326	8.96
340.536	8.85
340.746	9.12
340.957	9.19
341.167	9.21
341.378	9.05
341.588	8.77
341.799	8.48
342.009	8.84
342.219	8.74
342.43	8.65
342.64	8.77
342.85	8.73
343.061	8.37
343.271	8.24
343.481	8.22
343.691	8.11
343.902	8.58
344.112	8.53
344.322	8.29
344.532	8.39
344.743	8.49
344.953	8.57
345.163	8.51
345.373	8.67
345.583	8.72
345.793	8.66
346.004	8.61
346.214	8.15
346.424	8.38
346.634	8.16
346.844	8.12
347.054	8.19
347.264	7.87
347.474	8.2
347.684	8.45
347.894	8.75
348.104	8.85
348.314	9.11
348.524	9.32
348.734	9.11
348.944	9.41
349.154	9.55
349.364	9.23
349.574	9.19
349.784	8.85
349.994	8.92
350.204	8.73
350.413	8.7
350.623	8.63
350.833	8.4
351.043	8.36
351.253	8.52
351.463	8.37
351.672	8.39
351.882	8.63
352.092	8.56
352.302	8.19
352.511	8.22
352.721	8.08
352.931	8.17
353.141	8
353.35	7.84
353.56	7.76
353.77	7.79
353.979	7.95
354.189	7.83
354.399	8
354.608	8.16
354.818	8.14
355.027	8.13
355.237	8.07
355.447	8.2
355.656	8.22
355.866	7.89
356.075	7.85
356.285	7.73
356.494	7.73
356.704	7.54
356.913	7.72
357.123	7.68
357.332	7.7
357.542	7.72
357.751	7.82
357.96	7.85
358.17	8
358.379	7.78
358.589	8.01
358.798	8.18
359.007	8.21
359.217	8.04
359.426	8.13
359.635	8.18
359.845	7.98
360.054	7.84
360.263	7.93
360.472	7.94
360.682	8.1
360.891	7.9
361.1	7.56
361.309	7.74
361.519	7.64
361.728	7.7
361.937	7.73
362.146	7.69
362.355	7.93
362.564	7.84
362.774	7.83
362.983	7.82
363.192	7.89
363.401	8.03
363.61	7.84
363.819	7.8
364.028	7.51
364.237	7.28
364.446	7.04
364.655	6.8
364.864	6.79
365.073	6.74
365.282	6.81
365.491	6.55
365.7	6.63
365.909	6.68
366.118	6.74
366.327	6.73
366.536	6.89
366.745	7.29
366.954	7.22
367.162	7.23
367.371	7.28
367.58	7.12
367.789	7.19
367.998	6.99
368.207	6.88
368.415	6.63
368.624	6.62
368.833	6.45
369.042	6.47
369.25	6.71
369.459	6.75
369.668	6.5
369.877	6.74
370.085	7.02
370.294	7.17
370.503	7.5
370.711	7.5
370.92	7.55
371.129	7.49
371.337	7.23
371.546	6.96
371.754	7.13
371.963	7.08
372.171	6.99
372.38	6.83
372.589	6.85
372.797	6.55
373.006	6.48
373.214	6.39
373.423	6.35
373.631	6.59
373.84	6.81
374.048	6.42
374.256	6.78
374.465	6.93
374.673	7.03
374.882	6.79
375.09	6.76
375.298	7.23
375.507	7.29
375.715	7.27
375.923	7.02
376.132	6.78
376.34	6.91
376.548	6.9
376.757	6.69
376.965	6.59
377.173	6.79
377.381	6.79
377.59	6.49
377.798	6.59
378.006	6.58
378.214	6.71
378.423	6.78
378.631	6.6
378.839	6.3
379.047	6.24
379.255	6.31
379.463	6.13
379.671	6.03
379.879	6.09
380.088	5.99
380.296	6.12
380.504	5.94
380.712	5.98
380.92	6.1
381.128	6.33
381.336	6.15
381.544	5.99
381.752	5.81
381.96	5.84
382.168	5.84
382.376	5.84
382.584	5.97
382.791	5.84
382.999	5.91
383.207	6.01
383.415	6.03
383.623	5.96
383.831	5.96
384.039	6.34
384.247	6.31
384.454	6.32
384.662	6.22
384.87	5.91
385.078	6
385.285	5.69
385.493	5.52
385.701	5.16
385.909	5.31
386.116	5.41
386.324	5.13
386.532	5.29
386.739	5.25
386.947	5.22
387.155	5.32
387.362	5.49
387.57	5.61
387.778	5.78
387.985	6.02
388.193	6.16
388.4	6.17
388.608	6.37
388.816	6.27
389.023	6.23
389.231	6.31
389.438	6.27
389.646	6.21
389.853	6.34
390.061	6.2
390.268	6.07
390.475	5.91
390.683	5.81
390.89	5.52
391.098	5.41
391.305	5.51
391.512	5.43
391.72	5.39
391.927	5.35
392.135	5.23
392.342	5.12
392.549	5.33
392.756	5.22
392.964	5.12
393.171	5.15
393.378	5.01
393.586	4.81
393.793	4.9
394	4.81
394.207	4.89
394.414	4.88
394.622	4.9
394.829	4.77
395.036	4.82
395.243	4.9
395.45	4.87
395.657	5.12
395.864	5.2
396.072	5.05
396.279	5.25
396.486	4.78
396.693	4.96
396.9	4.96
397.107	4.83
397.314	4.76
397.521	4.74
397.728	4.86
397.935	4.77
398.142	4.76
398.349	4.75
398.556	4.45
398.763	4.65
398.97	4.46
399.177	4.51
399.383	4.56
399.59	4.7
399.797	4.74
400.004	4.58
400.211	4.41
400.418	4.45
400.625	4.53
400.831	4.67
401.038	4.81
401.245	4.88
401.452	4.96
401.658	4.96
401.865	4.85
402.072	4.81
402.279	4.83
402.485	4.82
402.692	4.68
402.899	4.64
403.105	4.61
403.312	4.47
403.519	4.44
403.725	4.49
403.932	4.52
404.138	4.47
404.345	4.55
404.552	4.58
404.758	4.58
404.965	4.56
405.171	4.53
405.378	4.52
405.584	4.53
405.791	4.53
405.997	4.34
406.204	4.2
406.41	4.36
406.617	4.41
406.823	4.54
407.029	4.71
407.236	4.66
407.442	4.58
407.649	4.66
407.855	4.68
408.061	4.58
408.268	4.4
408.474	4.5
408.68	4.41
408.887	4.25
409.093	4.09
409.299	3.96
409.505	3.99
409.712	4.01
409.918	3.92
410.124	4.04
410.33	4.24
410.537	4.5
410.743	4.4
410.949	4.28
411.155	4.25
411.361	4.21
411.567	4.31
411.773	4.47
411.98	4.47
412.186	4.58
412.392	4.46
412.598	4.35
412.804	4.29
413.01	4.24
413.216	4.4
413.422	4.25
413.628	4.36
413.834	4.32
414.04	4.16
414.246	4.16
414.452	4.19
414.658	4.22
414.864	4.15
415.07	4.17
415.275	4.18
415.481	4.16
415.687	4.31
415.893	4.29
416.099	4.15
416.305	4.24
416.511	4.17
416.716	4.08
416.922	4.03
417.128	4
417.334	3.88
417.539	3.87
417.745	3.81
417.951	3.63
418.157	3.57
418.362	3.6
418.568	3.5
418.774	3.5
418.979	3.47
419.185	3.49
419.391	3.44
419.596	3.47
419.802	3.45
420.008	3.36
420.213	3.49
420.419	3.42
420.624	3.44
420.83	3.44
421.035	3.41
421.241	3.34
421.446	3.28
421.652	3.25
421.857	3.21
422.063	3.23
422.268	3.32
422.474	3.28
422.679	3.34
422.885	3.31
423.09	3.3
423.295	3.32
423.501	3.38
423.706	3.37
423.911	3.41
424.117	3.39
424.322	3.37
424.527	3.24
424.733	3.25
424.938	3.2
425.143	3.22
425.349	3.2
425.554	3.26
425.759	3.24
425.964	3.24
426.169	3.27
426.375	3.33
426.58	3.36
426.785	3.4
426.99	3.34
427.195	3.37
427.4	3.37
427.605	3.4
427.811	3.34
428.016	3.33
428.221	3.29
428.426	3.2
428.631	3.18
428.836	3.19
429.041	3.26
429.246	3.22
429.451	3.31
429.656	3.33
429.861	3.37
430.066	3.41
430.271	3.41
430.476	3.43
430.681	3.48
430.886	3.39
431.09	3.41
431.295	3.5
431.5	3.68
431.705	3.67
431.91	3.48
432.115	3.45
432.32	3.47
432.524	3.42
432.729	3.38
432.934	3.39
433.139	3.4
433.343	3.33
433.548	3.19
433.753	3.15
433.958	3.16
434.162	3.3
434.367	3.3
434.572	3.25
434.776	3.23
434.981	3.22
435.186	3.28
435.39	3.33
435.595	3.36
435.799	3.38
436.004	3.3
436.209	3.25
436.413	3.29
436.618	3.32
436.822	3.31
437.027	3.3
437.231	3.32
437.436	3.23
437.64	3.2
437.845	3.23
438.049	3.3
438.253	3.3
438.458	3.28
438.662	3.11
438.867	3.11
439.071	3.05
439.275	3.14
439.48	3.12
439.684	3.11
439.888	3.17
440.093	3.12
440.297	3.05
440.501	3.07
440.706	3.06
440.91	3.18
441.114	3.14
441.318	3.23
441.523	3.14
441.727	3.2
441.931	3.13
442.135	3.12
442.339	3.19
442.543	3.19
442.748	3.16
442.952	3.1
443.156	3.05
443.36	3.12
443.564	3.1
443.768	3.14
443.972	3
444.176	3.11
444.38	3.09
444.584	3.15
444.788	3.16
444.992	3.18
445.196	3.16
445.4	3.24
445.604	3.15
445.808	3.1
446.012	3.05
446.216	3.22
446.42	3.17
446.624	3.03
446.828	2.97
447.032	2.89
447.235	2.85
447.439	2.85
447.643	2.75
447.847	2.8
448.051	2.8
448.254	2.8
448.458	2.72
448.662	2.72
448.866	2.85
449.069	2.83
449.273	2.94
449.477	3.02
449.681	3.03
449.884	2.96
450.088	3
450.292	3.01
450.495	3.17
450.699	3.17
450.902	3.26
451.106	3.08
451.31	3.23
451.513	3.29
451.717	3.15
451.92	3.16
452.124	3.12
452.327	3.03
452.531	3.05
452.734	2.97
452.938	2.95
453.141	2.86
453.345	3.01
453.548	2.94
453.752	2.8
453.955	2.85
454.158	2.9
454.362	3.01
454.565	3.1
454.769	2.97
454.972	2.97
455.175	3.03
455.379	3.09
455.582	3.15
455.785	3
455.988	2.96
456.192	3.02
456.395	2.97
456.598	3.01
456.801	2.94
457.005	3.2
457.208	3.16
457.411	3.11
457.614	3.01
457.817	2.88
458.021	2.85
458.224	2.96
458.427	3
458.63	2.97
458.833	2.94
459.036	2.91
459.239	2.8
459.442	2.79
459.645	2.76
459.848	2.79
460.051	2.87
460.254	2.92
460.457	2.89
460.66	2.81
460.863	2.84
461.066	2.82
461.269	2.9
461.472	2.94
461.675	3.02
461.878	3.09
462.081	3.13
462.284	3.2
462.486	3.17
462.689	3.16
462.892	3.25
463.095	3.29
463.298	3.32
463.5	3.26
463.703	3.17
463.906	3.23
464.109	3.22
464.311	3.15
464.514	3.16
464.717	3.2
464.92	3.3
465.122	3.23
465.325	3.29
465.528	3.26
465.73	3.28
465.933	3.43
466.135	3.36
466.338	3.4
466.541	3.54
466.743	3.4
466.946	3.46
467.148	3.4
467.351	3.37
467.553	3.37
467.756	3.34
467.958	3.33
468.161	3.3
468.363	3.38
468.566	3.3
468.768	3.2
468.971	3.24
469.173	3.24
469.375	3.33
469.578	3.38
469.78	3.43
469.983	3.51
470.185	3.47
470.387	3.42
470.59	3.29
470.792	3.24
470.994	3.27
471.196	3.27
471.399	3.31
471.601	3.22
471.803	3.26
472.005	3.23
472.208	3.18
472.41	3.3
472.612	3.41
472.814	3.34
473.016	3.47
473.218	3.51
473.421	3.41
473.623	3.35
473.825	3.31
474.027	3.3
474.229	3.22
474.431	3.29
474.633	3.21
474.835	3.08
475.037	3.18
475.239	3.21
475.441	3.22
475.643	3.32
475.845	3.32
476.047	3.35
476.249	3.39
476.451	3.41
476.653	3.36
476.855	3.32
477.057	3.35
477.258	3.35
477.46	3.25
477.662	3.28
477.864	3.27
478.066	3.24
478.268	3.29
478.469	3.2
478.671	3.14
478.873	3.24
479.075	3.19
479.276	3.19
479.478	3.17
479.68	3.18
479.882	3.1
480.083	3.09
480.285	3.13
480.487	3.09
480.688	3.08
480.89	3.21
481.091	3.1
481.293	3.12
481.495	3.04
481.696	3.01
481.898	3
482.099	2.98
482.301	2.96
482.502	2.89
482.704	2.84
482.905	2.82
483.107	2.74
483.308	2.71
483.51	2.71
483.711	2.71
483.913	2.71
484.114	2.69
484.315	2.66
484.517	2.66
484.718	2.65
484.92	2.67
485.121	2.68
485.322	2.71
485.524	2.74
485.725	2.72
485.926	2.72
486.127	2.71
486.329	2.72
486.53	2.74
486.731	2.77
486.932	2.77
487.134	2.76
487.335	2.77
487.536	2.78
487.737	2.74
487.938	2.75
488.139	2.8
488.341	2.81
488.542	2.82
488.743	2.81
488.944	2.83
489.145	2.86
489.346	2.89
489.547	2.88
489.748	2.88
489.949	2.94
490.15	2.96
490.351	2.9
490.552	2.9
490.753	2.91
490.954	2.96
491.155	2.91
491.356	2.92
491.557	2.9
491.758	2.91
491.959	2.9
492.159	2.88
492.36	2.89
492.561	2.9
492.762	2.93
492.963	2.93
493.164	2.94
493.364	2.93
493.565	2.9
493.766	2.94
493.967	2.99
494.167	2.99
494.368	3.01
494.569	3.12
494.769	3.19
494.97	3.25
495.171	3.28
495.371	3.19
495.572	3.29
495.773	3.38
495.973	3.35
496.174	3.32
496.375	3.39
496.575	3.37
496.776	3.3
496.976	3.3
497.177	3.26
497.377	3.28
497.578	3.41
497.778	3.42
497.979	3.34
498.179	3.39
498.38	3.42
498.58	3.41
498.78	3.45
498.981	3.49
499.181	3.48
499.382	3.53
499.582	3.49
499.782	3.44
499.983	3.43
500.183	3.48
500.383	3.35
500.584	3.34
500.784	3.34
500.984	3.39
501.184	3.4
501.385	3.49
501.585	3.47
501.785	3.56
501.985	3.57
502.185	3.62
502.386	3.82
502.586	4
502.786	4
502.986	4.04
503.186	4.07
503.386	4.03
503.586	4.01
503.786	4.06
503.987	4.09
504.187	4.1
504.387	3.98
504.587	3.87
504.787	3.91
504.987	3.97
505.187	4.04
505.387	4.05
505.587	4.15
505.786	4.16
505.986	4.16
506.186	4.19
506.386	4.21
506.586	4.38
506.786	4.4
506.986	4.43
507.186	4.46
507.386	4.46
507.585	4.44
507.785	4.42
507.985	4.54
508.185	4.57
508.384	4.46
508.584	4.5
508.784	4.45
508.984	4.54
509.183	4.51
509.383	4.61
509.583	4.65
509.782	4.67
509.982	4.7
510.182	4.69
510.381	4.74
510.581	4.83
510.781	4.83
510.98	4.83
511.18	4.83
511.379	4.88
511.579	4.84
511.778	4.86
511.978	4.9
512.177	4.99
512.377	5.05
512.576	5.1
512.776	5.13
512.975	5.19
513.175	5.3
513.374	5.2
513.573	5.18
513.773	5.21
513.972	5.25
514.172	5.34
514.371	5.39
514.57	5.32
514.77	5.31
514.969	5.35
515.168	5.42
515.367	5.42
515.567	5.63
515.766	5.7
515.965	5.75
516.164	5.82
516.364	5.84
516.563	5.74
516.762	5.84
516.961	5.87
517.16	5.88
517.359	5.94
517.559	5.98
517.758	5.98
517.957	6.02
518.156	6.03
518.355	6.01
518.554	6.05
518.753	6.14
518.952	6.18
519.151	6.27
519.35	6.34
519.549	6.37
519.748	6.38
519.947	6.41
520.146	6.54
520.345	6.52
520.544	6.57
520.743	6.59
520.942	6.71
521.141	6.78
521.339	6.81
521.538	6.88
521.737	6.94
521.936	7.06
522.135	7.13
522.333	7.16
522.532	7.3
522.731	7.37
522.93	7.38
523.129	7.44
523.327	7.46
523.526	7.38
523.725	7.41
523.923	7.43
524.122	7.44
524.321	7.47
524.519	7.45
524.718	7.51
524.917	7.52
525.115	7.62
525.314	7.63
525.512	7.61
525.711	7.76
525.909	7.81
526.108	7.86
526.306	7.86
526.505	7.88
526.703	7.92
526.902	7.92
527.1	7.9
527.299	7.92
527.497	7.93
527.696	7.97
527.894	7.95
528.092	7.92
528.291	7.9
528.489	7.93
528.688	7.93
528.886	7.98
529.084	7.97
529.283	8.02
529.481	8.02
529.679	8.04
529.877	8.07
530.076	8.1
530.274	8.18
530.472	8.22
530.67	8.31
530.869	8.41
531.067	8.46
531.265	8.56
531.463	8.6
531.661	8.66
531.859	8.71
532.057	8.73
532.255	8.83
532.454	8.9
532.652	8.93
532.85	8.9
533.048	8.93
533.246	8.92
533.444	8.92
533.642	8.97
533.84	9.01
534.038	9.07
534.236	9.16
534.434	9.15
534.632	9.17
534.83	9.24
535.027	9.29
535.225	9.3
535.423	9.43
535.621	9.49
535.819	9.58
536.017	9.62
536.215	9.61
536.412	9.59
536.61	9.67
536.808	9.72
537.006	9.82
537.203	9.9
537.401	9.97
537.599	9.95
537.797	9.99
537.994	10.04
538.192	10.14
538.39	10.23
538.587	10.28
538.785	10.38
538.983	10.44
539.18	10.47
539.378	10.54
539.575	10.68
539.773	10.76
539.97	10.87
540.168	10.92
540.366	10.93
540.563	10.98
540.761	11.05
540.958	11.06
541.155	11.08
541.353	11.09
541.55	11.12
541.748	11.11
541.945	11.12
542.143	11.19
542.34	11.23
542.537	11.29
542.735	11.34
542.932	11.38
543.129	11.46
543.327	11.6
543.524	11.72
543.721	11.89
543.919	12.09
544.116	12.31
544.313	12.51
544.51	12.71
544.708	12.87
544.905	13.05
545.102	13.28
545.299	13.41
545.496	13.62
545.693	13.76
545.891	13.73
546.088	13.67
546.285	13.66
546.482	13.63
546.679	13.56
546.876	13.55
547.073	13.46
547.27	13.37
547.467	13.33
547.664	13.19
547.861	13.08
548.058	13.17
548.255	13.23
548.452	13.19
548.649	13.1
548.846	13.13
549.043	13.13
549.24	13.15
549.437	13.14
549.633	13.11
549.83	13.09
550.027	13.18
550.224	13.11
550.421	13.01
550.618	13
550.814	12.98
551.011	12.92
551.208	12.97
551.405	12.91
551.601	13.01
551.798	13.05
551.995	13.03
552.191	12.91
552.388	12.94
552.585	13.03
552.781	13.03
552.978	13.08
553.175	13.16
553.371	13.05
553.568	13.09
553.764	13.11
553.961	13.07
554.157	13.08
554.354	13.19
554.55	13.24
554.747	13.19
554.943	13.21
555.14	13.12
555.336	13.02
555.533	13.27
555.729	13.31
555.926	13.22
556.122	13.33
556.318	13.43
556.515	13.38
556.711	13.29
556.907	13.25
557.104	13.29
557.3	13.37
557.496	13.46
557.693	13.3
557.889	13.4
558.085	13.39
558.281	13.35
558.478	13.33
558.674	13.42
558.87	13.48
559.066	13.68
559.262	13.79
559.459	13.79
559.655	13.78
559.851	13.86
560.047	13.87
560.243	13.95
560.439	13.95
560.635	13.98
560.831	13.95
561.027	13.98
561.223	13.81
561.419	13.67
561.615	13.77
561.811	13.77
562.007	13.7
562.203	13.77
562.399	13.82
562.595	13.93
562.791	13.87
562.987	13.93
563.183	13.97
563.379	14.17
563.575	14.19
563.771	14.13
563.966	14.23
564.162	14.23
564.358	14.12
564.554	14
564.75	13.94
564.945	13.96
565.141	13.99
565.337	13.92
565.533	13.9
565.728	13.99
565.924	14.07
566.12	13.99
566.315	14.01
566.511	14.08
566.707	14.1
566.902	14.16
567.098	14.17
567.293	14.15
567.489	14.28
567.684	14.27
567.88	14.19
568.076	14.18
568.271	14.38
568.467	14.34
568.662	14.37
568.858	14.34
569.053	14.28
569.248	14.25
569.444	14.28
569.639	14.16
569.835	14.11
570.03	14.2
570.225	14.12
570.421	13.99
570.616	14
570.812	13.89
571.007	13.99
571.202	14.03
571.397	14.09
571.593	14.06
571.788	14.17
571.983	14.13
572.178	14.1
572.374	14.2
572.569	14.21
572.764	14.31
572.959	14.36
573.154	14.32
573.35	14.33
573.545	14.32
573.74	14.4
573.935	14.36
574.13	14.42
574.325	14.47
574.52	14.55
574.715	14.57
574.91	14.56
575.105	14.6
575.3	14.8
575.495	14.93
575.69	15.04
575.885	15.1
576.08	15.33
576.275	15.46
576.47	15.64
576.665	15.67
576.86	15.82
577.055	15.88
577.25	15.9
577.444	15.98
577.639	16
577.834	16.02
578.029	16.08
578.224	16.01
578.418	16.08
578.613	16.1
578.808	16.04
579.003	16.13
579.197	16.3
579.392	16.48
579.587	16.53
579.781	16.58
579.976	16.58
580.171	16.62
580.365	16.53
580.56	16.59
580.755	16.55
580.949	16.69
581.144	16.65
581.338	16.72
581.533	16.69
581.727	16.68
581.922	16.7
582.116	16.78
582.311	16.73
582.505	16.91
582.7	16.88
582.894	16.99
583.089	17.01
583.283	17.21
583.478	17.23
583.672	17.32
583.866	17.19
584.061	17.25
584.255	17.26
584.449	17.4
584.644	17.44
584.838	17.66
585.032	17.66
585.226	17.68
585.421	17.54
585.615	17.5
585.809	17.61
586.003	17.73
586.198	17.8
586.392	17.9
586.586	17.91
586.78	17.91
586.974	17.74
587.168	17.64
587.363	17.46
587.557	17.45
587.751	17.29
587.945	17.18
588.139	17.09
588.333	17.04
588.527	16.93
588.721	16.8
588.915	16.67
589.109	16.57
589.303	16.51
589.497	16.58
589.691	16.6
589.885	16.74
590.079	16.83
590.273	16.94
590.466	16.98
590.66	17.07
590.854	17.05
591.048	17.23
591.242	17.36
591.436	17.46
591.629	17.6
591.823	17.59
592.017	17.52
592.211	17.49
592.404	17.42
592.598	17.32
592.792	17.19
592.986	17.27
593.179	17.19
593.373	17.18
593.567	17.08
593.76	16.96
593.954	16.89
594.147	16.9
594.341	16.78
594.535	16.77
594.728	16.78
594.922	16.85
595.115	16.72
595.309	16.59
595.502	16.49
595.696	16.52
595.889	16.4
596.083	16.33
596.276	16.22
596.47	16.2
596.663	16.08
596.856	16.03
597.05	15.97
597.243	16.08
597.437	16.18
597.63	16.29
597.823	16.34
598.017	16.52
598.21	16.68
598.403	16.76
598.596	16.89
598.79	17.08
598.983	17.25
599.176	17.4
599.369	17.48
599.563	17.38
599.756	17.43
599.949	17.42
600.142	17.28
600.335	17.27
600.528	17.57
600.722	17.45
600.915	17.3
601.108	17.15
601.301	17.03
601.494	16.86
601.687	16.95
601.88	16.88
602.073	16.87
602.266	16.99
602.459	16.85
602.652	16.45
602.845	16.45
603.038	16.53
603.231	16.51
603.424	16.4
603.617	16.32
603.809	16.22
604.002	16.18
604.195	16.13
604.388	16.03
604.581	16.1
604.774	16.17
604.966	16.07
605.159	16.06
605.352	16.03
605.545	16.16
605.737	16.31
605.93	16.51
606.123	16.43
606.316	16.54
606.508	16.72
606.701	16.89
606.894	17.2
607.086	17.54
607.279	17.76
607.471	18.02
607.664	18.18
607.857	18.47
608.049	18.59
608.242	19.11
608.434	19.53
608.627	20
608.819	20.56
609.012	21.33
609.204	22.07
609.397	22.91
609.589	23.9
609.782	25.02
609.974	26.08
610.166	27.35
610.359	28.48
610.551	29.48
610.743	30.57
610.936	31.46
611.128	31.98
611.32	32.49
611.513	32.91
611.705	33.15
611.897	33.09
612.09	32.83
612.282	32.6
612.474	32
612.666	31.63
612.858	31.01
613.051	30.37
613.243	29.77
613.435	29.18
613.627	28.52
613.819	27.83
614.011	27.47
614.203	26.96
614.395	26.36
614.588	25.9
614.78	25.43
614.972	24.83
615.164	24.27
615.356	23.8
615.548	23.21
615.74	22.75
615.932	22.57
616.124	22.09
616.315	21.74
616.507	21.17
616.699	20.86
616.891	20.35
617.083	20.06
617.275	20.13
617.467	20.07
617.659	20.15
617.85	20.09
618.042	19.8
618.234	19.76
618.426	19.99
618.618	20.05
618.809	20.07
619.001	20.15
619.193	20.25
619.384	20.15
619.576	20.04
619.768	20.02
619.959	20.05
620.151	19.96
620.343	20.02
620.534	19.63
620.726	19.68
620.917	19.49
621.109	19.54
621.301	19.43
621.492	19.25
621.684	19.19
621.875	19.14
622.067	18.98
622.258	19.2
622.45	19.19
622.641	19.37
622.832	19.63
623.024	19.82
623.215	19.79
623.407	19.93
623.598	19.99
623.789	20.23
623.981	20.33
624.172	20.46
624.363	20.47
624.555	20.2
624.746	20.12
624.937	19.7
625.129	19.62
625.32	19.6
625.511	19.5
625.702	19.39
625.893	19.25
626.085	19.02
626.276	18.88
626.467	18.82
626.658	18.91
626.849	18.82
627.04	18.92
627.231	19.01
627.422	18.99
627.614	18.94
627.805	19.15
627.996	19.2
628.187	19.58
628.378	19.88
628.569	20.09
628.76	20.31
628.951	20.64
629.142	20.93
629.332	21.1
629.523	21.24
629.714	21.48
629.905	21.54
630.096	21.64
630.287	21.61
630.478	21.31
630.669	21.15
630.859	21.14
631.05	21.03
631.241	20.88
631.432	20.65
631.623	20.56
631.813	20.38
632.004	20.07
632.195	20.08
632.385	19.88
632.576	19.85
632.767	19.67
632.957	19.37
633.148	19.19
633.339	19.03
633.529	18.94
633.72	18.86
633.91	18.72
634.101	18.81
634.292	18.46
634.482	18.34
634.673	18.22
634.863	18.25
635.054	18.29
635.244	18.31
635.435	18.39
635.625	18.44
635.815	18.41
636.006	18.3
636.196	18.27
636.387	18.26
636.577	18.16
636.767	18.39
636.958	18.36
637.148	18.32
637.338	18.29
637.529	18.31
637.719	18.41
637.909	18.41
638.099	18.55
638.29	18.64
638.48	18.65
638.67	18.86
638.86	18.57
639.05	18.75
639.241	18.58
639.431	18.74
639.621	18.64
639.811	18.59
640.001	19.02
640.191	19.14
640.381	19.23
640.571	19.34
640.761	19.33
640.951	19.47
641.141	19.53
641.331	19.78
641.521	19.61
641.711	19.88
641.901	19.89
642.091	19.65
642.281	19.6
642.471	19.42
642.661	19.62
642.851	19.7
643.041	19.8
643.231	19.66
643.42	19.69
643.61	19.59
643.8	19.52
643.99	19.47
644.18	19.28
644.369	19.42
644.559	19.49
644.749	19.34
644.939	19.34
645.128	19.55
645.318	19.55
645.508	19.54
645.697	19.73
645.887	19.5
646.076	19.58
646.266	19.68
646.456	19.42
646.645	19.49
646.835	19.56
647.024	19.53
647.214	19.48
647.403	19.41
647.593	19.39
647.782	19.38
647.972	19.5
648.161	19.63
648.351	19.64
648.54	19.76
648.73	19.84
648.919	19.75
649.108	19.67
649.298	19.65
649.487	19.74
649.677	19.78
649.866	19.74
650.055	19.92
650.244	19.75
650.434	19.89
650.623	20.01
650.812	19.84
651.002	19.75
651.191	19.99
651.38	19.84
651.569	19.81
651.758	19.86
651.947	19.84
652.137	19.56
652.326	19.6
652.515	19.5
652.704	19.29
652.893	19.4
653.082	19.61
653.271	19.51
653.46	19.39
653.649	19.37
653.838	19.27
654.027	19.21
654.216	19.21
654.405	19.12
654.594	19.01
654.783	19.08
654.972	18.82
655.161	18.82
655.35	18.77
655.539	18.91
655.728	18.92
655.916	18.88
656.105	18.69
656.294	18.99
656.483	18.96
656.672	18.89
656.86	18.79
657.049	18.85
657.238	18.8
657.427	18.61
657.615	18.67
657.804	18.59
657.993	18.19
658.181	18.18
658.37	17.93
658.559	17.82
658.747	17.96
658.936	17.97
659.125	17.96
659.313	18
659.502	17.98
659.69	17.82
659.879	17.93
660.067	18.37
660.256	18.57
660.444	18.63
660.633	18.93
660.821	18.98
661.01	19.03
661.198	19.18
661.387	19.36
661.575	19.52
661.763	19.68
661.952	19.65
662.14	19.76
662.328	19.83
662.517	19.82
662.705	19.74
662.893	19.59
663.082	19.61
663.27	19.65
663.458	19.62
663.646	19.87
663.834	20.01
664.023	19.99
664.211	20.04
664.399	20.08
664.587	20.01
664.775	20.02
664.963	20.19
665.152	20.29
665.34	20.33
665.528	20.12
665.716	20
665.904	20.08
666.092	20.1
666.28	20.01
666.468	19.92
666.656	20.2
666.844	20.14
667.032	20.28
667.22	20.33
667.408	20.43
667.596	20.22
667.784	20.04
667.971	19.93
668.159	20.11
668.347	19.87
668.535	20.06
668.723	19.93
668.911	20
669.098	19.88
669.286	19.68
669.474	19.76
669.662	20.13
669.849	20.25
670.037	20.27
670.225	20.21
670.413	20.35
670.6	20.53
670.788	20.51
670.976	20.33
671.163	20.35
671.351	20.57
671.538	20.44
671.726	20.34
671.913	20.43
672.101	20.43
672.289	20.35
672.476	20.41
672.664	20.14
672.851	20.2
673.039	20.29
673.226	20.32
673.413	20.4
673.601	20.34
673.788	20.24
673.976	20.07
674.163	20.21
674.35	20.36
674.538	20.28
674.725	20.44
674.912	20.47
675.1	20.75
675.287	20.87
675.474	20.68
675.662	20.87
675.849	20.99
676.036	21.2
676.223	21.09
676.411	20.88
676.598	20.85
676.785	20.84
676.972	20.84
677.159	20.63
677.346	20.5
677.533	20.45
677.721	20.13
677.908	20.12
678.095	20.17
678.282	20.01
678.469	19.86
678.656	19.88
678.843	19.91
679.03	20.03
679.217	19.87
679.404	19.93
679.591	20.01
679.778	20.11
679.964	19.97
680.151	19.71
680.338	19.78
680.525	19.67
680.712	19.67
680.899	19.52
681.086	19.33
681.272	19.39
681.459	19.55
681.646	19.42
681.833	19.42
682.02	19.36
682.206	19.35
682.393	19.32
682.58	19.68
682.766	19.72
682.953	19.89
683.14	19.97
683.326	20.23
683.513	20.1
683.7	20.37
683.886	20.54
684.073	20.88
684.259	21.09
684.446	21.41
684.632	21.63
684.819	21.69
685.005	21.41
685.192	21.56
685.378	21.68
685.565	21.8
685.751	21.84
685.938	21.57
686.124	21.75
686.31	21.4
686.497	21.34
686.683	21.25
686.87	21.15
687.056	21.24
687.242	20.91
687.429	20.66
687.615	20.48
687.801	20.37
687.987	20.73
688.174	20.31
688.36	20.4
688.546	20.18
688.732	20.24
688.918	20.62
689.105	20.61
689.291	21.06
689.477	21.07
689.663	20.93
689.849	20.96
690.035	20.96
690.221	21.4
690.407	21.86
690.593	22.05
690.779	21.91
690.965	21.77
691.151	22.14
691.337	22.01
691.523	22.01
691.709	22.22
691.895	22.4
692.081	22.09
692.267	21.85
692.453	21.9
692.639	21.8
692.825	21.85
693.011	21.59
693.196	21.73
693.382	21.77
693.568	21.78
693.754	21.95
693.94	21.93
694.125	22.06
694.311	21.79
694.497	21.57
694.682	21.38
694.868	21.18
695.054	21.5
695.239	21.12
695.425	21.1
695.611	21
695.796	20.49
695.982	20.22
696.168	20.04
696.353	20.18
696.539	19.7
696.724	19.95
696.91	19.72
697.095	19.63
697.281	19.77
697.466	19.84
697.652	19.58
697.837	19.81
698.023	19.63
698.208	19.55
698.393	19.44
698.579	19.77
698.764	19.7
698.949	19.74
699.135	19.74
699.32	19.61
699.505	19.28
699.691	19.42
699.876	19.31
700.061	19.59
700.246	19.63
700.432	19.8
700.617	19.62
700.802	19.91
700.987	20.46
701.172	19.88
701.358	20.01
701.543	20.37
701.728	20.7
701.913	20.75
702.098	21.01
702.283	21.75
702.468	21.63
702.653	22
702.838	21.85
703.023	22.41
703.208	23.48
703.393	23.73
703.578	23.93
703.763	24.18
703.948	24.8
704.133	24.81
704.318	24.69
704.503	25.4
704.688	25.65
704.873	25.83
705.057	25.35
705.242	25.61
705.427	25.86
705.612	25.74
705.797	26.06
705.981	26.16
706.166	26.49
706.351	27.11
706.536	27.25
706.72	27.67
706.905	28.1
707.09	28.08
707.274	27.85
707.459	27.65
707.644	28.03
707.828	27.82
708.013	27.62
708.197	27.44
708.382	27.03
708.567	26.77
708.751	26.45
708.936	25.99
709.12	25.99
709.305	26.11
709.489	26.01
709.673	25.79
709.858	25.89
710.042	25.71
710.227	25.72
710.411	25.34
710.596	24.94
710.78	24.71
710.964	24.85
711.149	24.89
711.333	24.8
711.517	24.71
711.702	25.12
711.886	25.21
712.07	25.17
712.254	24.83
712.438	25.05
712.623	25.22
712.807	24.97
712.991	25.05
713.175	24.95
713.359	24.73
713.544	24.46
713.728	23.88
713.912	23.36
714.096	23.35
714.28	23.25
714.464	23.07
714.648	22.89
714.832	22.82
715.016	22.31
715.2	21.75
715.384	21.62
715.568	21.49
715.752	21.5
715.936	21.72
716.12	21.52
716.304	21.25
716.488	21.37
716.671	21.38
716.855	21.31
717.039	21.2
717.223	21.41
717.407	21.77
717.59	21.81
717.774	21.59
717.958	21.26
718.142	21.28
718.325	21.38
718.509	21.23
718.693	20.95
718.877	21.11
719.06	21.71
719.244	21.45
719.428	21.58
719.611	21.84
719.795	22.13
719.978	21.76
720.162	21.68
720.345	22.17
720.529	21.9
720.713	22.55
720.896	22.53
721.08	22.33
721.263	22.72
721.446	22.24
721.63	22.1
721.813	22.31
721.997	22.92
722.18	23.27
722.364	23.18
722.547	23.17
722.73	22.82
722.914	23.18
723.097	22.95
723.28	22.86
723.464	22.51
723.647	22.63
723.83	21.83
724.013	21.88
724.197	21.87
724.38	21.77
724.563	22.18
724.746	22.1
724.929	21.83
725.112	22.17
725.296	22.18
725.479	22.09
725.662	21.96
725.845	22.65
726.028	22.52
726.211	22.31
726.394	22.11
726.577	22.06
726.76	22.24
726.943	22.4
727.126	21.68
727.309	21.8
727.492	22.32
727.675	22.62
727.858	22.13
728.041	22.33
728.224	22.51
728.407	22.54
728.589	22.51
728.772	22.5
728.955	22.64
729.138	22.72
729.321	22.49
729.503	22.39
729.686	21.93
729.869	22.31
730.052	22.29
730.234	22.17
730.417	22.09
730.6	21.73
730.782	21.49
730.965	21.09
731.148	21.36
731.33	21.45
731.513	21.22
731.695	21.61
731.878	21.33
732.061	21.56
732.243	22.31
732.426	22.52
732.608	22.84
732.791	23.42
732.973	23.93
733.156	24.05
733.338	24.25
733.52	24.52
733.703	24.67
733.885	25.07
734.068	24.67
734.25	24.17
734.432	24.61
734.615	24.73
734.797	24.43
734.979	24.19
735.162	23.96
735.344	23.97
735.526	24.44
735.708	24.14
735.891	23.86
736.073	23.84
736.255	23.86
736.437	23.79
736.619	23.68
736.802	23.67
736.984	23.66
737.166	24.36
737.348	24.46
737.53	24.1
737.712	24.14
737.894	24.72
738.076	25.08
738.258	25.04
738.44	24.88
738.622	25.02
738.804	25.1
738.986	25.16
739.168	24.87
739.35	24.52
739.532	24.48
739.714	24.83
739.896	24.51
740.078	24.75
740.259	24.81
740.441	24.75
740.623	24.39
740.805	24.19
740.987	24.58
741.168	24.22
741.35	24.56
741.532	24.83
741.714	25.09
741.895	25.22
742.077	25.26
742.259	25.08
742.44	25
742.622	24.89
742.804	25.06
742.985	24.66
743.167	24.98
743.348	24.85
743.53	24.48
743.711	24.36
743.893	24.73
744.075	24.31
744.256	24.76
744.438	25
744.619	25.04
744.8	25.42
744.982	25.39
745.163	25.83
745.345	26.42
745.526	26.99
745.707	27.04
745.889	26.94
746.07	27.23
746.252	27.34
746.433	27.69
746.614	28.6
746.795	28.89
746.977	29.23
747.158	28.91
747.339	28.99
747.52	29.38
747.702	29.27
747.883	28.99
748.064	29.42
748.245	29.5
748.426	29.1
748.607	28.79
748.788	28.42
748.97	28.03
749.151	28.29
749.332	28.27
749.513	28.21
749.694	28.41
749.875	28.68
750.056	27.74
750.237	27.81
750.418	28.23
750.599	27.7
750.78	27.77
750.96	27.8
751.141	27.35
751.322	26.52
751.503	26.13
751.684	25.89
751.865	25.77
752.046	25.27
752.226	25.2
752.407	24.72
752.588	25.38
752.769	25.21
752.949	25.55
753.13	25.93
753.311	25.98
753.492	26.13
753.672	26.11
753.853	26.14
754.034	27.53
754.214	27.46
754.395	27.79
754.575	27.58
754.756	27.58
754.937	27.33
755.117	27.51
755.298	28.1
755.478	28.43
755.659	28.47
755.839	28.33
756.02	28.24
756.2	28.24
756.381	28
756.561	27.94
756.741	28.13
756.922	28.08
757.102	27.48
757.283	28.02
757.463	27.52
757.643	27.32
757.823	26.43
758.004	25.63
758.184	24.93
758.364	24.68
758.545	24.09
758.725	22.94
758.905	22.24
759.085	21.51
759.265	20.23
759.446	19.1
759.626	19.35
759.806	19.26
759.986	19.58
760.166	19.35
760.346	19.24
760.526	19.68
760.706	20.25
760.886	20.89
761.066	21.86
761.246	21.76
761.426	21.87
761.606	20.84
761.786	20.65
761.966	20.32
762.146	20.58
762.326	20.55
762.506	20.32
762.686	20.17
762.866	19.97
763.046	19.44
763.225	19.7
763.405	19.56
763.585	19.76
763.765	20.23
763.945	20.3
764.124	20.63
764.304	20.77
764.484	20.69
764.664	20.84
764.843	21.21
765.023	21.29
765.203	21.54
765.382	22.32
765.562	22.73
765.741	22.74
765.921	23.33
766.101	22.63
766.28	22.13
766.46	22.28
766.639	22.54
766.819	22.3
766.998	22.42
767.178	23.31
767.357	23.11
767.537	23.59
767.716	24.2
767.896	24.25
768.075	24.82
768.254	25.92
768.434	26.32
768.613	26.27
768.792	26.34
768.972	27.54
769.151	26.87
769.33	27.59
769.51	28.15
769.689	28.1
769.868	28.21
770.047	28.05
770.226	28.54
770.406	29.03
770.585	29.18
770.764	29.53
770.943	28.76
771.122	28.59
771.301	28.85
771.48	28.33
771.66	27.88
771.839	27.54
772.018	27.99
772.197	27.62
772.376	27.73
772.555	28.53
772.734	28.32
772.913	28.52
773.092	29.17
773.271	28.68
773.449	29.18
773.628	29.76
773.807	30.07
773.986	30.09
774.165	30.32
774.344	30.24
774.523	29.89
774.701	29.88
774.88	30.02
775.059	28.93
775.238	28.88
775.417	28.29
775.595	28.77
775.774	28.46
775.953	28.24
776.131	27.67
776.31	27.34
776.489	27.13
776.667	27.82
776.846	27.87
777.025	28.69
777.203	28.79
777.382	29.13
777.56	28.61
777.739	28.81
777.917	29.6
778.096	30.02
778.274	30.07
778.453	30.78
778.631	30.65
778.81	29.96
778.988	30.67
779.166	30.88
779.345	30.42
779.523	30.52
779.702	30.66
779.88	30.72
780.058	31.1
780.237	30.62
780.415	30.74
780.593	30.71
780.771	30.75
780.95	30.05
781.128	29.8
781.306	29.82
781.484	30.04
781.662	30.21
781.841	29.72
782.019	28.25
782.197	28.33
782.375	28.12
782.553	28.07
782.731	28.66
782.909	28.05
783.087	28.62
783.265	29.11
783.443	28.83
783.621	28.11
783.799	29.51
783.977	31.12
784.155	32.04
784.333	31.92
784.511	31.39
784.689	31.86
784.867	31.89
785.045	30.83
785.223	30.38
785.4	30.59
785.578	32.71
785.756	31.45
785.934	30.53
786.112	29.87
786.289	30.35
786.467	30.93
786.645	30.67
786.823	30.65
787	31.16
787.178	31.29
787.356	31.04
787.533	28.87
787.711	28.81
787.889	28.93
788.066	28.42
788.244	27.22
788.421	26.84
788.599	26.44
788.776	26.61
788.954	26.8
789.131	26.4
789.309	26.66
789.486	28.06
789.664	29.04
789.841	29.76
790.019	30.18
790.196	31.02
790.373	31.64
790.551	31.96
790.728	32.53
790.906	32.94
791.083	33.17
791.26	33.26
791.437	31.52
791.615	30.83
791.792	30.18
791.969	31.52
792.146	31.78
792.324	31.87
792.501	31.73
792.678	31.66
792.855	31.47
793.032	32.37
793.209	31.91
793.387	32.12
793.564	31.38
793.741	32.25
793.918	30.77
794.095	30.2
794.272	30.32
794.449	30.26
794.626	30.64
794.803	31.13
794.98	31.06
795.157	30.76
795.334	31.73
795.511	31.82
795.688	30.13
795.864	30.75
796.041	31.01
796.218	30.45
796.395	30.47
796.572	29.68
796.749	28.17
796.925	27.34
797.102	27.7
797.279	26.18
797.456	26.58
797.632	26.92
797.809	26.36
797.986	25.62
798.162	25.47
798.339	26.15
798.516	26.33
798.692	27.19
798.869	26.95
799.046	26.81
799.222	28.23
799.399	28.63
799.575	29.11
799.752	29.65
799.928	30.81
800.105	29.7
800.281	29.53
800.458	30.2
800.634	30.33
800.811	30.83
800.987	31.83
801.163	30.72
801.34	29.73
801.516	29.37
801.692	29.12
801.869	28.44
802.045	29.17
802.221	29.24
802.398	28.32
802.574	27.67
802.75	27.98
802.926	26.85
803.103	28.68
803.279	28.65
803.455	28.3
803.631	28.6
803.807	28.55
803.983	30.06
804.16	29.14
804.336	28.56
804.512	30.05
804.688	30.97
804.864	32.99
805.04	33.06
805.216	33.24
805.392	34.62
805.568	33.74
805.744	33.44
805.92	31.82
806.096	32.63
806.272	33.83
806.448	31.7
806.623	31.16
806.799	29.38
806.975	28.82
807.151	30.26
807.327	29.29
807.503	29.39
807.678	30.81
807.854	31.3
808.03	31.47
808.206	31.12
808.381	32.14
808.557	31.29
808.733	31.16
808.908	32.04
809.084	30.72
809.26	31.94
809.435	33.42
809.611	33.47
809.787	34.9
809.962	34.33
810.138	34.41
810.313	34.19
810.489	33.72
810.664	33.13
810.84	32.32
811.015	33.44
811.191	33.9
811.366	32.74
811.542	31.67
811.717	31.08
811.892	32.18
812.068	32.97
812.243	33.33
812.419	34.8
812.594	34.71
812.769	34.52
812.944	33.61
813.12	33.55
813.295	34.06
813.47	33.31
813.645	30.73
813.821	29.7
813.996	30.53
814.171	31.09
814.346	29.77
814.521	28.52
814.697	27.81
814.872	27.95
815.047	26.99
815.222	26.42
815.397	26.49
815.572	28.86
815.747	28.64
815.922	26.93
816.097	26.07
816.272	26.87
816.447	29.53
816.622	30.79
816.797	30.23
816.972	29.77
817.147	30.01
817.322	30.1
817.496	29.12
817.671	28.81
817.846	27.51
818.021	26.58
818.196	26.06
818.371	25.03
818.545	23.3
818.72	23.32
818.895	23.5
819.069	22.6
819.244	22.25
819.419	22.29
819.594	22.65
819.768	23.46
819.943	23.94
820.117	23.61
820.292	23.31
820.467	23.79
820.641	23.01
820.816	22.42
820.99	21.89
821.165	20.9
821.339	20.35
821.514	19.71
821.688	19.11
821.863	18.54
822.037	18.19
822.212	18
822.386	17.78
822.56	17.32
822.735	17.27
822.909	17.09
823.084	17.31
823.258	17.3
823.432	17.45
823.606	17.69
823.781	18.16
823.955	18.24
824.129	18.35
824.303	18.27
824.478	18.59
824.652	18.87
824.826	19.34
825	19.17
825.174	19.25
825.348	19.47
825.523	19.43
825.697	18.79
825.871	19.19
826.045	19.39
826.219	19.49
826.393	19.65
826.567	19.55
826.741	19.08
826.915	19.43
827.089	19.33
827.263	18.56
827.437	18.51
827.611	18.83
827.784	18.36
827.958	17.75
828.132	18.08
828.306	18.53
828.48	18.1
828.654	18.74
828.827	18.53
829.001	19.41
829.175	20.51
829.349	20.14
829.522	20.3
829.696	21.67
829.87	23.17
830.044	23.24
830.217	23.64
830.391	24.03
830.565	24.7
830.738	26.37
830.912	26.23
831.085	25.51
831.259	27.67
831.432	26.8
831.606	26.73
831.779	26.34
831.953	26.56
832.126	25.18
832.3	25.45
832.473	24.52
832.647	22.94
832.82	22.02
832.994	22.34
833.167	22.27
833.34	23.19
833.514	22.85
833.687	22.57
833.86	22.15
834.034	22.47
834.207	21.84
834.38	21.54
834.553	22.41
834.727	22.81
834.9	22.91
835.073	22.19
835.246	21.94
835.419	21.65
835.593	21.42
835.766	21.88
835.939	22.39
836.112	23.31
836.285	24.18
836.458	23.54
836.631	23.5
836.804	23.65
836.977	24.86
837.15	25.79
837.323	25.94
837.496	27.91
837.669	27.9
837.842	30.13
838.015	30.05
838.188	30.49
838.361	30.38
838.533	32.02
838.706	33.05
838.879	33.08
839.052	31.63
839.225	33.17
839.398	32.06
839.57	31.24
839.743	29.75
839.916	29.98
840.088	29.71
840.261	31.54
840.434	30.69
840.607	30.44
840.779	29.29
840.952	29.29
841.124	28.71
841.297	29.47
841.47	29.22
841.642	29.87
841.815	31.07
841.987	32.08
842.16	30.69
842.332	28.42
842.505	30.36
842.677	32.27
842.85	33.69
843.022	34
843.194	34.31
843.367	36.06
843.539	33.82
843.712	32.08
843.884	34.55
844.056	34.4
844.229	37.79
844.401	35.35
844.573	37.21
844.745	39.96
844.918	41
845.09	40.47
845.262	38.53
845.434	38.2
845.606	40.7
845.779	36.51
845.951	39.67
846.123	40.4
846.295	40.72
846.467	39.93
846.639	38.04
846.811	38.83
846.983	38.89
847.155	40.95
847.327	39.96
847.499	35.66
847.671	41.67
847.843	39.83
848.015	39.15
848.187	39.32
848.359	37.97
848.531	39.04
848.703	38.6
848.875	40.17
849.047	38.54
849.218	43.12
849.39	44.85
849.562	40.58
849.734	41.14
849.905	43.01
850.077	45.17
850.249	45.52
850.421	44.81
850.592	45.99
850.764	43.55
850.936	48.17
851.107	48.53
851.279	51.78
851.451	54.88
851.622	54.31
851.794	53.25
851.965	49.01
852.137	46.5
852.308	48.41
852.48	47.82
852.651	49.29
852.823	46.24
852.994	47.87
853.166	47.77
853.337	43.91
853.509	46.09
853.68	44.46
853.851	46.42
854.023	52.03
854.194	47.42
854.365	48.99
854.537	50.47
854.708	53.74
854.879	50.16
855.05	50.2
855.222	50.05
855.393	50.57
855.564	54.97
855.735	51.71
855.906	48.46
856.078	50.09
856.249	51.04
856.42	45.7
856.591	48.49
856.762	48.73
856.933	49.71
857.104	50.13
857.275	49.22
857.446	45.41
857.617	50.02
857.788	52.98
857.959	56.06
858.13	54.97
858.301	60.4
858.472	56.31
858.643	57.62
858.814	54.73
858.985	56.03
859.155	52.02
859.326	54.25
859.497	55.3
859.668	52.64
859.839	49.93
860.009	49.39
860.18	49.23
860.351	48.03
860.522	49.68
860.692	51
860.863	51.69
861.034	55.79
861.204	54.28
861.375	49.51
861.546	47.17
861.716	46.18
861.887	45.23
862.057	46.93
862.228	50.6
862.398	47.53
862.569	48.44
862.739	48.44
862.91	47.39
863.08	49.82
863.251	53.72
863.421	55.19
863.592	54.9
863.762	56.92
863.932	55.98
864.103	54.23
864.273	53.73
864.443	51.38
864.614	50.64
864.784	47.74
864.954	48.07
865.125	51.27
865.295	51.51
865.465	50.21
865.635	46.98
865.805	45.59
865.976	44.26
866.146	48.34
866.316	50.61
866.486	49.9
866.656	52.59
866.826	49.43
866.996	45.63
867.166	47.4
867.336	45.51
867.506	46.86
867.676	43.11
867.846	40.9
868.016	38.44
868.186	35.63
868.356	31.29
868.526	32.73
868.696	30.28
868.866	29.58
869.036	26.29
869.206	30.88
869.376	33.4
869.545	31.47
869.715	35.91
869.885	37.06
870.055	38.62
870.224	43.35
870.394	43.33
870.564	50.04
870.734	52.15
870.903	53.45
871.073	54.18
871.243	53.05
871.412	59.74
871.582	55.84
871.751	52.15
871.921	48.45
872.091	50.74
872.26	47.8
872.43	45.88
872.599	44.72
872.769	41.62
872.938	40.6
873.108	39.32
873.277	37.37
873.446	41.92
873.616	38.11
873.785	40.81
873.955	37.68
874.124	31.5
874.293	28.71
874.463	27.57
874.632	30.16
874.801	31.36
874.971	30.16
875.14	26.53
875.309	24.37
875.478	29.45
875.647	30.85
875.817	32.38
875.986	40.14
876.155	41.27
876.324	43.19
876.493	44.18
876.662	43.4
876.831	45.54
877	48.37
877.17	49.59
877.339	47.5
877.508	48.01
877.677	50.71
877.846	50.31
878.015	48.21
878.184	48.46
878.352	46.03
878.521	41.84
878.69	40.83
878.859	37.51
879.028	39.04
879.197	37.39
879.366	35.21
879.534	30.43
879.703	26.83
879.872	25.97
880.041	24.88
880.21	25.64
880.378	25.79
880.547	24.38
880.716	23.88
880.884	21.69
881.053	19.42
881.222	19.1
881.39	18.85
881.559	19.64
881.727	19.24
881.896	17.84
882.065	16.76
882.233	17.29
882.402	17.64
882.57	17.41
882.739	17.3
882.907	18.31
883.076	18.6
883.244	18.1
883.412	17.52
883.581	17.8
883.749	18.83
883.918	19.54
884.086	18.94
884.254	19.09
884.423	19.53
884.591	19.18
884.759	19.58
884.927	19.97
885.096	21.81
885.264	23.39
885.432	24.12
885.6	24.15
885.769	24.95
885.937	24.55
886.105	25.42
886.273	24.69
886.441	27.31
886.609	30.76
886.777	32.17
886.945	34.37
887.113	36.71
887.281	38.76
887.449	42.22
887.617	42.88
887.785	41.06
887.953	40.98
888.121	42.89
888.289	44.66
888.457	44.09
888.625	40.53
888.793	41.72
888.961	37.94
889.129	38.44
889.296	38.43
889.464	38.31
889.632	46.35
889.8	47.38
889.967	49.6
890.135	48.18
