Data from 2938773__Reflection_04.txt Node
Date: Fri Mar 13 14:34:17 EDT 2015
User: robert
Spectrometer: USB4E03002
Autoset integration time: false
Trigger mode: 4
Integration Time (sec): 1.000000E-1
Scans to average: 10
Electric dark correction enabled: false
Nonlinearity correction enabled: false
Boxcar width: 5
Stray light correction enabled: false
XAxis mode: Wavelengths
Stop averaging: false
Number of Pixels in Spectrum: 3648
>>>>>Begin Spectral Data<<<<<
177.575	-202.78
177.794	-464.38
178.014	-1692.59
178.233	932.84
178.452	1808.11
178.672	410.23
178.891	442.68
179.11	2865.22
179.33	-956.72
179.549	-418.25
179.768	-1473.33
179.987	677.61
180.207	1777.78
180.426	713.85
180.645	-1017.14
180.864	-658.06
181.084	-173.62
181.303	-256.07
181.522	-1204.26
181.741	3653.33
181.96	251.11
182.179	236.6
182.398	176.22
182.618	177.26
182.837	249.45
183.056	214.66
183.275	175.51
183.494	117.02
183.713	129.77
183.932	112.69
184.151	104.6
184.37	130.65
184.589	143.26
184.808	310
185.027	163.16
185.246	159.29
185.465	142.3
185.684	124.5
185.903	142.98
186.122	116.39
186.341	133.18
186.56	169.85
186.779	211.44
186.998	166.46
187.216	224.53
187.435	534.75
187.654	223.05
187.873	191.76
188.092	243.84
188.311	484.97
188.53	413.46
188.748	1223.44
188.967	-2454.17
189.186	523.19
189.405	569.06
189.623	266.3
189.842	194.93
190.061	243.99
190.28	264.82
190.498	176.84
190.717	158.11
190.936	156.63
191.154	131.69
191.373	141.23
191.592	158.27
191.81	138.22
192.029	157.21
192.248	182.08
192.466	166.08
192.685	198.95
192.904	232.38
193.122	217.31
193.341	304.3
193.559	503.75
193.778	284.59
193.996	316.42
194.215	2284
194.433	482.24
194.652	299.32
194.87	441.49
195.089	4540
195.307	846.15
195.526	-57.94
195.744	627.66
195.963	175.96
196.181	171.49
196.399	142.67
196.618	158.08
196.836	218.39
197.055	318.18
197.273	516.48
197.491	1676.47
197.71	966.67
197.928	335.75
198.146	377.97
198.365	645.33
198.583	715.15
198.801	-183.84
199.019	-110.34
199.238	-51.18
199.456	-47.07
199.674	-80.79
199.892	-43.09
200.111	-73.63
200.329	-81.02
200.547	-69.76
200.765	-172.99
200.983	-188.48
201.202	-430.84
201.42	-1029.17
201.638	2652.17
201.856	572.16
202.074	1234.15
202.292	310.53
202.51	396.9
202.728	223.83
202.946	450.34
203.165	1026.98
203.383	56000
203.601	418.31
203.819	506.93
204.037	243.85
204.255	288.02
204.473	210.02
204.691	488.95
204.909	210.8
205.127	312.97
205.345	172.19
205.562	128.43
205.78	69.9
205.998	62.2
206.216	77.19
206.434	93.7
206.652	112.67
206.87	90.87
207.088	82.84
207.306	149.89
207.523	120.89
207.741	106.83
207.959	128.31
208.177	140.72
208.395	146.06
208.612	175.16
208.83	136.29
209.048	133.74
209.266	670
209.483	-223.53
209.701	-12
209.919	362.5
210.136	5120
210.354	-658.33
210.572	-136.61
210.79	499.07
211.007	219.62
211.225	889.83
211.442	193.18
211.66	123.63
211.878	115.29
212.095	120
212.313	120.14
212.53	123.23
212.748	91.08
212.966	80.19
213.183	80.66
213.401	81.83
213.618	80.65
213.836	68.73
214.053	54.08
214.271	66.98
214.488	56.67
214.705	50
214.923	52.16
215.14	69.41
215.358	72.1
215.575	79.63
215.793	79.03
216.01	70.69
216.227	91.47
216.445	102.8
216.662	92.55
216.879	101.13
217.097	100.17
217.314	105.53
217.531	100.32
217.749	90.44
217.966	97.51
218.183	91.05
218.4	74.04
218.618	67.63
218.835	56.56
219.052	50.6
219.269	48.27
219.487	30.7
219.704	32.01
219.921	32.84
220.138	28.75
220.355	20.48
220.572	21.36
220.79	27.8
221.007	26.42
221.224	26.12
221.441	32.9
221.658	39.27
221.875	45.95
222.092	53.38
222.309	60.46
222.526	61.59
222.743	62.56
222.96	63.18
223.177	58.13
223.394	50.63
223.611	52.91
223.828	53.61
224.045	49.64
224.262	57.51
224.479	50.42
224.696	43.94
224.913	43.86
225.13	39.93
225.347	38.42
225.564	37.14
225.781	39.84
225.997	36.21
226.214	30.71
226.431	27.43
226.648	16.54
226.865	15.93
227.082	13.74
227.298	13.47
227.515	11.68
227.732	10.85
227.949	10.16
228.165	9.17
228.382	9.23
228.599	9.15
228.816	9.05
229.032	9.31
229.249	8.65
229.466	8.9
229.682	8.4
229.899	8.4
230.116	7.66
230.332	7.96
230.549	8.07
230.765	8.78
230.982	8.96
231.199	9.65
231.415	10.92
231.632	11.2
231.848	13.38
232.065	12.7
232.281	14.59
232.498	16.29
232.714	18.96
232.931	19.94
233.147	18.24
233.364	18.16
233.58	15.71
233.797	15.5
234.013	15.97
234.23	13.93
234.446	15.36
234.662	13.67
234.879	14.16
235.095	12.77
235.312	13
235.528	13.18
235.744	12.23
235.961	15.49
236.177	15.33
236.393	14.76
236.61	13.61
236.826	12.51
237.042	12.69
237.258	10.26
237.475	10.37
237.691	8.54
237.907	7.56
238.123	8.91
238.339	7.91
238.556	8.01
238.772	8.86
238.988	8.26
239.204	8.06
239.42	9.43
239.636	10.44
239.853	10.13
240.069	10.92
240.285	10.83
240.501	10.21
240.717	9.54
240.933	9.14
241.149	8.71
241.365	8.65
241.581	8.38
241.797	7.9
242.013	7.94
242.229	7.64
242.445	7.07
242.661	7.39
242.877	7.27
243.093	7.2
243.309	6.76
243.525	6.62
243.741	7.23
243.957	7.53
244.173	7.57
244.388	7.45
244.604	6.37
244.82	6.59
245.036	5.93
245.252	5.16
245.468	5.45
245.683	5.88
245.899	5.5
246.115	5.24
246.331	4.95
246.547	4.95
246.762	4.89
246.978	5.42
247.194	5.52
247.409	5.87
247.625	6.11
247.841	5.86
248.057	5.78
248.272	5.97
248.488	6.35
248.703	6.61
248.919	6.75
249.135	7.01
249.35	7.43
249.566	7.47
249.782	7.28
249.997	8.13
250.213	8.96
250.428	9.88
250.644	9.42
250.859	8.68
251.075	8.57
251.29	7.91
251.506	8.12
251.721	7.35
251.937	7.13
252.152	7.23
252.368	6.61
252.583	6.08
252.798	5.45
253.014	6.15
253.229	6.37
253.445	6.47
253.66	6.97
253.875	6.61
254.091	6.94
254.306	7.45
254.521	7.23
254.737	7.6
254.952	7.67
255.167	7.35
255.383	6.34
255.598	5.49
255.813	4.92
256.028	4.72
256.244	3.99
256.459	4.6
256.674	3.84
256.889	3.96
257.104	3.75
257.32	4.42
257.535	4.37
257.75	4.83
257.965	4.94
258.18	4.99
258.395	4.74
258.61	5.14
258.826	4.56
259.041	4.78
259.256	4.71
259.471	4.29
259.686	3.79
259.901	3.95
260.116	3.78
260.331	3.85
260.546	3.65
260.761	3.73
260.976	3.33
261.191	3.45
261.406	3.19
261.621	3.04
261.836	3
262.05	2.83
262.265	2.69
262.48	2.63
262.695	2.32
262.91	2.56
263.125	2.46
263.34	2.63
263.555	2.76
263.769	3.34
263.984	3.15
264.199	3.16
264.414	3.58
264.629	3.75
264.843	4.3
265.058	4.33
265.273	4.64
265.488	4.7
265.702	5.61
265.917	5.43
266.132	4.99
266.346	4.92
266.561	5.79
266.776	5.84
266.99	5.8
267.205	5.38
267.42	5.51
267.634	5.55
267.849	5.6
268.063	5.45
268.278	5.34
268.492	5.06
268.707	5.21
268.922	4.44
269.136	4.72
269.351	4.41
269.565	4.52
269.78	4.65
269.994	4.79
270.209	4.76
270.423	4.32
270.637	4.02
270.852	3.88
271.066	3.96
271.281	4.09
271.495	3.87
271.709	3.88
271.924	4.03
272.138	3.76
272.353	3.61
272.567	3.61
272.781	3.52
272.996	3.83
273.21	4.28
273.424	4.58
273.638	4.66
273.853	4.66
274.067	4.61
274.281	4.69
274.495	4.55
274.71	4.3
274.924	4.26
275.138	4.5
275.352	4.4
275.566	4.3
275.781	3.61
275.995	3.96
276.209	4.34
276.423	4.05
276.637	3.5
276.851	3.84
277.065	4.27
277.279	4.37
277.493	4.15
277.707	4.47
277.921	4.15
278.135	4.53
278.349	4.05
278.563	3.94
278.777	4.45
278.991	4.95
279.205	5.12
279.419	4.62
279.633	4.63
279.847	4.48
280.061	4.12
280.275	4.07
280.489	4.14
280.703	4.15
280.917	4.02
281.131	3.7
281.344	3.36
281.558	2.75
281.772	3.24
281.986	2.94
282.2	3.19
282.414	3.25
282.627	3.45
282.841	3.28
283.055	3.51
283.269	3.16
283.482	3.35
283.696	3.38
283.91	3.5
284.123	3.03
284.337	3.39
284.551	3.4
284.764	3.38
284.978	3.19
285.192	3.37
285.405	3.19
285.619	3.12
285.833	2.95
286.046	2.9
286.26	2.9
286.473	3.13
286.687	2.82
286.9	2.77
287.114	2.83
287.327	2.75
287.541	2.49
287.754	2.63
287.968	2.97
288.181	3.15
288.395	3.45
288.608	3.91
288.822	3.89
289.035	3.94
289.248	3.82
289.462	3.69
289.675	3.95
289.889	3.92
290.102	3.66
290.315	3.5
290.529	3.52
290.742	3.64
290.955	3.25
291.169	3.36
291.382	3.4
291.595	3.53
291.808	3.56
292.022	3.51
292.235	3.31
292.448	3.31
292.661	3.5
292.875	3.2
293.088	3.19
293.301	3.32
293.514	3.26
293.727	3.51
293.94	3.39
294.153	3.47
294.367	3.22
294.58	3.32
294.793	3.19
295.006	3.2
295.219	3.36
295.432	3.18
295.645	3.5
295.858	3.22
296.071	3.1
296.284	3.05
296.497	3.17
296.71	3.43
296.923	3.86
297.136	4.21
297.349	4
297.562	4.13
297.775	4.23
297.988	4.23
298.201	4.32
298.414	4.37
298.626	4.7
298.839	4.58
299.052	4.53
299.265	4.12
299.478	4
299.691	3.87
299.903	3.73
300.116	3.69
300.329	3.43
300.542	3.8
300.755	3.55
300.967	3.32
301.18	3.53
301.393	3.73
301.605	4.05
301.818	4.11
302.031	4.46
302.243	4.33
302.456	4.37
302.669	4.59
302.881	4.43
303.094	4.34
303.307	4.7
303.519	4.46
303.732	4.41
303.944	4.19
304.157	4.01
304.37	4.03
304.582	4.17
304.795	4.2
305.007	4.37
305.22	4.45
305.432	4.71
305.645	4.56
305.857	4.86
306.069	4.74
306.282	4.94
306.494	4.96
306.707	4.74
306.919	4.72
307.132	4.48
307.344	4.49
307.556	4.6
307.769	4.68
307.981	4.69
308.193	4.28
308.406	4.36
308.618	4.31
308.83	4.61
309.043	4.79
309.255	4.85
309.467	4.78
309.679	4.26
309.892	4.12
310.104	4.16
310.316	3.95
310.528	4.07
310.74	4.23
310.953	4.38
311.165	4.25
311.377	4.12
311.589	4.64
311.801	4.7
312.013	5.04
312.225	4.88
312.437	5.01
312.649	5.07
312.862	5.25
313.074	4.86
313.286	4.86
313.498	4.75
313.71	5.26
313.922	5.01
314.134	5.43
314.346	5.28
314.558	5.94
314.77	6.01
314.982	6.11
315.193	6.11
315.405	6.43
315.617	6.28
315.829	6.67
316.041	6.51
316.253	6.12
316.465	6.51
316.677	6.66
316.888	6.59
317.1	6.34
317.312	6.81
317.524	6.75
317.736	7.04
317.947	7.27
318.159	7.7
318.371	8.17
318.583	8.01
318.794	7.72
319.006	7.89
319.218	7.89
319.43	7.74
319.641	7.67
319.853	7.79
320.064	7.51
320.276	7.63
320.488	7.03
320.699	6.73
320.911	7.33
321.123	7.14
321.334	6.71
321.546	6.7
321.757	6.82
321.969	6.56
322.18	6.92
322.392	7.41
322.603	7.23
322.815	7.72
323.026	8.2
323.238	7.95
323.449	7.76
323.661	7.98
323.872	7.94
324.083	8.51
324.295	8.84
324.506	8.73
324.718	8.52
324.929	8.63
325.14	8.28
325.352	7.9
325.563	7.88
325.774	7.86
325.986	8.32
326.197	8.56
326.408	8.64
326.62	8.82
326.831	9.09
327.042	9.33
327.253	9.69
327.464	10.04
327.676	10.41
327.887	10.74
328.098	11.26
328.309	11.45
328.52	11.8
328.732	12.03
328.943	12.34
329.154	12.26
329.365	12.57
329.576	12.43
329.787	12.61
329.998	12.1
330.209	12.34
330.42	12.92
330.631	13.13
330.842	13.09
331.053	13.36
331.264	13.04
331.475	12.82
331.686	12.93
331.897	13.46
332.108	13.45
332.319	14.18
332.53	14.4
332.741	14.26
332.952	13.98
333.163	13.71
333.374	13.09
333.585	13.3
333.795	13.68
334.006	13.41
334.217	13.34
334.428	13.24
334.639	13.45
334.849	12.88
335.06	12.64
335.271	12.81
335.482	12.75
335.692	13.1
335.903	13.07
336.114	13.29
336.325	13.38
336.535	13.41
336.746	13.55
336.957	13.24
337.167	13.73
337.378	13.95
337.589	14.08
337.799	14.05
338.01	13.91
338.22	13.95
338.431	13.76
338.642	13.55
338.852	13.3
339.063	13.49
339.273	13.59
339.484	13.88
339.694	13.38
339.905	13.13
340.115	13.59
340.326	13.5
340.536	13.17
340.746	13.18
340.957	13.67
341.167	13.74
341.378	13.58
341.588	13.36
341.799	13.26
342.009	13.25
342.219	13.21
342.43	12.91
342.64	13.27
342.85	13.48
343.061	13.32
343.271	13.02
343.481	13.01
343.691	12.94
343.902	13.25
344.112	13.16
344.322	13.22
344.532	13.24
344.743	13.55
344.953	13.39
345.163	13.37
345.373	13.49
345.583	13.76
345.793	13.75
346.004	13.59
346.214	13.52
346.424	13.51
346.634	13.82
346.844	13.49
347.054	13.11
347.264	13.04
347.474	13.21
347.684	13.13
347.894	12.9
348.104	13.07
348.314	13.38
348.524	13.11
348.734	12.81
348.944	12.72
349.154	13.2
349.364	13.19
349.574	13.08
349.784	12.97
349.994	13.12
350.204	13.21
350.413	13
350.623	12.96
350.833	12.79
351.043	12.85
351.253	13.05
351.463	12.94
351.672	12.96
351.882	13.32
352.092	13.41
352.302	13.16
352.511	12.9
352.721	12.87
352.931	12.85
353.141	12.6
353.35	12.47
353.56	12.24
353.77	12.14
353.979	12.17
354.189	11.88
354.399	11.7
354.608	11.87
354.818	12.03
355.027	12.03
355.237	12.03
355.447	12.52
355.656	12.75
355.866	12.63
356.075	12.5
356.285	12.46
356.494	12.35
356.704	12.31
356.913	12.42
357.123	12.26
357.332	12.25
357.542	12.31
357.751	12.27
357.96	12.2
358.17	12.31
358.379	12.47
358.589	12.41
358.798	12.62
359.007	12.67
359.217	12.54
359.426	12.61
359.635	12.78
359.845	12.56
360.054	12.33
360.263	12.24
360.472	12.13
360.682	12.16
360.891	12.28
361.1	12.23
361.309	12.21
361.519	12.1
361.728	12.12
361.937	11.95
362.146	11.96
362.355	12.04
362.564	12.01
362.774	12.19
362.983	12.08
363.192	12.02
363.401	11.96
363.61	11.91
363.819	12.01
364.028	11.82
364.237	11.72
364.446	11.57
364.655	11.57
364.864	11.62
365.073	11.38
365.282	11.34
365.491	11.19
365.7	11.16
365.909	11.31
366.118	11.44
366.327	11.4
366.536	11.55
366.745	11.58
366.954	11.32
367.162	11.15
367.371	11.19
367.58	11.43
367.789	11.46
367.998	11.28
368.207	11.17
368.415	10.92
368.624	10.84
368.833	10.7
369.042	10.9
369.25	11.24
369.459	11.35
369.668	11.29
369.877	10.99
370.085	11.09
370.294	11.27
370.503	11.36
370.711	11.29
370.92	11.53
371.129	11.32
371.337	11.15
371.546	11.02
371.754	11.27
371.963	11.18
372.171	11.32
372.38	11.25
372.589	11.21
372.797	10.91
373.006	10.77
373.214	10.53
373.423	10.68
373.631	10.58
373.84	10.6
374.048	10.24
374.256	10.01
374.465	9.9
374.673	9.93
374.882	9.87
375.09	9.99
375.298	10.36
375.507	10.31
375.715	10.04
375.923	9.95
376.132	9.71
376.34	9.56
376.548	9.93
376.757	9.7
376.965	9.52
377.173	9.22
377.381	9.15
377.59	8.93
377.798	9
378.006	9.13
378.214	9.2
378.423	9.19
378.631	9.31
378.839	9.02
379.047	9.18
379.255	9.32
379.463	9.34
379.671	9.15
379.879	9.25
380.088	9.09
380.296	9.02
380.504	8.86
380.712	8.81
380.92	8.71
381.128	8.74
381.336	8.4
381.544	8.23
381.752	8.18
381.96	8.25
382.168	8.07
382.376	8.29
382.584	8.46
382.791	8.36
382.999	8.55
383.207	8.46
383.415	8.61
383.623	8.57
383.831	8.6
384.039	8.92
384.247	8.83
384.454	8.8
384.662	8.62
384.87	8.38
385.078	8.35
385.285	8.17
385.493	8.15
385.701	7.9
385.909	8.15
386.116	8.23
386.324	8.07
386.532	8.02
386.739	7.83
386.947	7.75
387.155	7.88
387.362	8.12
387.57	8.11
387.778	8.41
387.985	8.3
388.193	8.26
388.4	8.16
388.608	8.21
388.816	8.15
389.023	8.15
389.231	8.08
389.438	7.89
389.646	7.65
389.853	7.81
390.061	7.52
390.268	7.49
390.475	7.35
390.683	7.13
390.89	6.86
391.098	6.9
391.305	6.81
391.512	6.67
391.72	6.64
391.927	6.73
392.135	6.52
392.342	6.5
392.549	6.57
392.756	6.45
392.964	6.54
393.171	6.61
393.378	6.54
393.586	6.62
393.793	6.86
394	6.86
394.207	6.84
394.414	6.83
394.622	6.76
394.829	6.77
395.036	6.92
395.243	6.72
395.45	6.66
395.657	6.53
395.864	6.49
396.072	6.29
396.279	6.52
396.486	6.17
396.693	6.27
396.9	6.48
397.107	6.29
397.314	6.21
397.521	6.34
397.728	6.29
397.935	6.36
398.142	6.4
398.349	6.5
398.556	6.18
398.763	6.53
398.97	6.34
399.177	6.06
399.383	6.06
399.59	6.12
399.797	6.1
400.004	6.14
400.211	6.25
400.418	6.17
400.625	6.14
400.831	6.16
401.038	6.14
401.245	6.33
401.452	6.53
401.658	6.54
401.865	6.3
402.072	6.22
402.279	6.23
402.485	6.17
402.692	6.28
402.899	6.11
403.105	6.36
403.312	6.25
403.519	6.04
403.725	6.12
403.932	6.22
404.138	6.44
404.345	6.55
404.552	6.44
404.758	6.4
404.965	6.2
405.171	6.36
405.378	6.1
405.584	6.14
405.791	6.3
405.997	6.11
406.204	6.06
406.41	6.13
406.617	6.18
406.823	6.24
407.029	6.29
407.236	6.28
407.442	6.18
407.649	6.31
407.855	6.28
408.061	6.12
408.268	5.96
408.474	6.07
408.68	5.85
408.887	5.79
409.093	5.89
409.299	5.62
409.505	5.69
409.712	5.75
409.918	5.69
410.124	5.68
410.33	5.89
410.537	6.09
410.743	5.91
410.949	5.79
411.155	5.71
411.361	5.7
411.567	5.92
411.773	5.95
411.98	5.92
412.186	5.79
412.392	5.77
412.598	5.64
412.804	5.56
413.01	5.57
413.216	5.72
413.422	5.69
413.628	5.62
413.834	5.66
414.04	5.61
414.246	5.73
414.452	5.81
414.658	5.94
414.864	5.95
415.07	6.03
415.275	5.99
415.481	6
415.687	6.11
415.893	6.16
416.099	6.05
416.305	6.07
416.511	5.92
416.716	5.98
416.922	5.85
417.128	5.8
417.334	5.64
417.539	5.65
417.745	5.68
417.951	5.6
418.157	5.53
418.362	5.56
418.568	5.48
418.774	5.5
418.979	5.5
419.185	5.51
419.391	5.52
419.596	5.61
419.802	5.64
420.008	5.58
420.213	5.6
420.419	5.65
420.624	5.66
420.83	5.75
421.035	5.77
421.241	5.7
421.446	5.66
421.652	5.65
421.857	5.65
422.063	5.67
422.268	5.75
422.474	5.8
422.679	5.82
422.885	5.83
423.09	5.8
423.295	5.75
423.501	5.85
423.706	5.89
423.911	5.86
424.117	5.84
424.322	5.77
424.527	5.68
424.733	5.65
424.938	5.59
425.143	5.59
425.349	5.57
425.554	5.52
425.759	5.42
425.964	5.44
426.169	5.46
426.375	5.48
426.58	5.56
426.785	5.54
426.99	5.47
427.195	5.51
427.4	5.48
427.605	5.56
427.811	5.73
428.016	5.75
428.221	5.73
428.426	5.67
428.631	5.74
428.836	5.73
429.041	5.81
429.246	5.77
429.451	5.75
429.656	5.76
429.861	5.8
430.066	5.81
430.271	5.91
430.476	5.86
430.681	5.98
430.886	5.91
431.09	5.9
431.295	6.12
431.5	6.23
431.705	6.24
431.91	6.24
432.115	6.18
432.32	6.17
432.524	6.16
432.729	6.32
432.934	6.39
433.139	6.37
433.343	6.35
433.548	6.18
433.753	6.24
433.958	6.29
434.162	6.28
434.367	6.32
434.572	6.21
434.776	6.13
434.981	6.02
435.186	5.89
435.39	5.86
435.595	5.89
435.799	5.89
436.004	5.86
436.209	5.85
436.413	6.01
436.618	5.97
436.822	6.03
437.027	6.05
437.231	6.03
437.436	6.07
437.64	6.09
437.845	6.12
438.049	6.18
438.253	6.13
438.458	6.12
438.662	5.95
438.867	6.03
439.071	6.04
439.275	6.06
439.48	6
439.684	6.01
439.888	6.09
440.093	6.09
440.297	6.07
440.501	6.05
440.706	6.05
440.91	6.12
441.114	6.09
441.318	6.1
441.523	6.15
441.727	6.19
441.931	6.2
442.135	6.11
442.339	6.09
442.543	6.06
442.748	6.13
442.952	6.08
443.156	6.07
443.36	6.08
443.564	6.06
443.768	6.04
443.972	6
444.176	6.13
444.38	6.18
444.584	6.21
444.788	6.3
444.992	6.29
445.196	6.25
445.4	6.27
445.604	6.19
445.808	6.23
446.012	6.16
446.216	6.19
446.42	6.05
446.624	5.98
446.828	5.95
447.032	5.86
447.235	5.84
447.439	5.86
447.643	5.82
447.847	5.88
448.051	5.85
448.254	5.92
448.458	5.92
448.662	6.01
448.866	6.05
449.069	6.08
449.273	6.05
449.477	6.08
449.681	6.07
449.884	6.12
450.088	6.15
450.292	6.27
450.495	6.26
450.699	6.3
450.902	6.36
451.106	6.27
451.31	6.34
451.513	6.47
451.717	6.45
451.92	6.45
452.124	6.36
452.327	6.28
452.531	6.18
452.734	6.14
452.938	6.1
453.141	6
453.345	6.06
453.548	5.92
453.752	5.85
453.955	5.86
454.158	5.92
454.362	6
454.565	6.15
454.769	6.08
454.972	6.15
455.175	6.27
455.379	6.35
455.582	6.36
455.785	6.36
455.988	6.34
456.192	6.33
456.395	6.31
456.598	6.35
456.801	6.23
457.005	6.32
457.208	6.22
457.411	6.17
457.614	6.09
457.817	6.04
458.021	6.05
458.224	6.18
458.427	6.23
458.63	6.13
458.833	6.1
459.036	6.03
459.239	6.04
459.442	6.08
459.645	6.09
459.848	6
460.051	6.09
460.254	6.11
460.457	5.97
460.66	5.95
460.863	6
461.066	6
461.269	6.09
461.472	6.05
461.675	6.06
461.878	6.04
462.081	6.16
462.284	6.16
462.486	6.15
462.689	6.27
462.892	6.23
463.095	6.3
463.298	6.35
463.5	6.33
463.703	6.32
463.906	6.33
464.109	6.31
464.311	6.26
464.514	6.19
464.717	6.26
464.92	6.27
465.122	6.24
465.325	6.33
465.528	6.21
465.73	6.2
465.933	6.35
466.135	6.28
466.338	6.4
466.541	6.5
466.743	6.52
466.946	6.47
467.148	6.52
467.351	6.48
467.553	6.5
467.756	6.59
467.958	6.63
468.161	6.53
468.363	6.59
468.566	6.4
468.768	6.3
468.971	6.28
469.173	6.29
469.375	6.29
469.578	6.5
469.78	6.36
469.983	6.32
470.185	6.29
470.387	6.33
470.59	6.32
470.792	6.49
470.994	6.56
471.196	6.64
471.399	6.8
471.601	6.75
471.803	6.61
472.005	6.67
472.208	6.62
472.41	6.64
472.612	6.61
472.814	6.55
473.016	6.48
473.218	6.39
473.421	6.25
473.623	6.19
473.825	6.12
474.027	6.19
474.229	6.18
474.431	6.28
474.633	6.27
474.835	6.25
475.037	6.43
475.239	6.51
475.441	6.54
475.643	6.63
475.845	6.51
476.047	6.56
476.249	6.56
476.451	6.59
476.653	6.51
476.855	6.47
477.057	6.49
477.258	6.4
477.46	6.36
477.662	6.42
477.864	6.43
478.066	6.39
478.268	6.4
478.469	6.34
478.671	6.27
478.873	6.37
479.075	6.32
479.276	6.4
479.478	6.37
479.68	6.39
479.882	6.35
480.083	6.39
480.285	6.47
480.487	6.49
480.688	6.44
480.89	6.49
481.091	6.38
481.293	6.43
481.495	6.32
481.696	6.28
481.898	6.3
482.099	6.26
482.301	6.21
482.502	6.18
482.704	6.13
482.905	6.16
483.107	6.13
483.308	6.1
483.51	6.09
483.711	6.08
483.913	6.06
484.114	6.02
484.315	6.02
484.517	6.02
484.718	5.99
484.92	6.01
485.121	5.99
485.322	6
485.524	6.05
485.725	6.02
485.926	6.03
486.127	6.09
486.329	6.11
486.53	6.1
486.731	6.13
486.932	6.15
487.134	6.16
487.335	6.21
487.536	6.23
487.737	6.19
487.938	6.23
488.139	6.25
488.341	6.21
488.542	6.19
488.743	6.23
488.944	6.25
489.145	6.29
489.346	6.3
489.547	6.28
489.748	6.28
489.949	6.34
490.15	6.34
490.351	6.33
490.552	6.38
490.753	6.43
490.954	6.43
491.155	6.35
491.356	6.32
491.557	6.33
491.758	6.33
491.959	6.32
492.159	6.36
492.36	6.35
492.561	6.39
492.762	6.38
492.963	6.35
493.164	6.42
493.364	6.44
493.565	6.46
493.766	6.43
493.967	6.41
494.167	6.38
494.368	6.31
494.569	6.4
494.769	6.45
494.97	6.5
495.171	6.52
495.371	6.5
495.572	6.62
495.773	6.66
495.973	6.65
496.174	6.69
496.375	6.77
496.575	6.89
496.776	6.81
496.976	6.81
497.177	6.78
497.377	6.86
497.578	6.86
497.778	6.88
497.979	6.89
498.179	6.94
498.38	6.97
498.58	6.97
498.78	6.94
498.981	7.05
499.181	6.94
499.382	7.02
499.582	6.98
499.782	7
499.983	6.98
500.183	7
500.383	6.98
500.584	6.98
500.784	6.96
500.984	7.01
501.184	7.05
501.385	7.16
501.585	7.14
501.785	7.13
501.985	7.15
502.185	7.16
502.386	7.41
502.586	7.47
502.786	7.42
502.986	7.46
503.186	7.46
503.386	7.43
503.586	7.46
503.786	7.53
503.987	7.65
504.187	7.67
504.387	7.72
504.587	7.62
504.787	7.77
504.987	7.9
505.187	8
505.387	8.06
505.587	8.19
505.786	8.38
505.986	8.34
506.186	8.32
506.386	8.35
506.586	8.38
506.786	8.42
506.986	8.42
507.186	8.41
507.386	8.46
507.585	8.34
507.785	8.27
507.985	8.23
508.185	8.3
508.384	8.33
508.584	8.38
508.784	8.46
508.984	8.45
509.183	8.44
509.383	8.57
509.583	8.66
509.782	8.79
509.982	8.89
510.182	8.95
510.381	9.05
510.581	9.1
510.781	9.14
510.98	9.18
511.18	9.26
511.379	9.4
511.579	9.41
511.778	9.41
511.978	9.47
512.177	9.48
512.377	9.57
512.576	9.57
512.776	9.69
512.975	9.8
513.175	9.86
513.374	9.83
513.573	9.81
513.773	9.86
513.972	9.94
514.172	10.01
514.371	10.19
514.57	10.21
514.77	10.24
514.969	10.28
515.168	10.43
515.367	10.5
515.567	10.74
515.766	10.77
515.965	10.79
516.164	10.85
516.364	10.89
516.563	10.86
516.762	10.9
516.961	11.05
517.16	11.18
517.359	11.22
517.559	11.28
517.758	11.32
517.957	11.48
518.156	11.55
518.355	11.64
518.554	11.78
518.753	11.93
518.952	12.04
519.151	12.06
519.35	12.12
519.549	12.21
519.748	12.32
519.947	12.38
520.146	12.49
520.345	12.62
520.544	12.67
520.743	12.68
520.942	12.75
521.141	12.92
521.339	13.08
521.538	13.21
521.737	13.38
521.936	13.48
522.135	13.58
522.333	13.74
522.532	13.85
522.731	14.05
522.93	14.23
523.129	14.36
523.327	14.43
523.526	14.47
523.725	14.51
523.923	14.6
524.122	14.71
524.321	14.8
524.519	14.84
524.718	14.91
524.917	15.05
525.115	15.15
525.314	15.31
525.512	15.4
525.711	15.6
525.909	15.77
526.108	15.9
526.306	15.98
526.505	16.13
526.703	16.3
526.902	16.46
527.1	16.53
527.299	16.72
527.497	16.83
527.696	16.91
527.894	16.94
528.092	17
528.291	17.06
528.489	17.17
528.688	17.24
528.886	17.32
529.084	17.4
529.283	17.49
529.481	17.53
529.679	17.58
529.877	17.66
530.076	17.78
530.274	17.92
530.472	18.05
530.67	18.2
530.869	18.44
531.067	18.54
531.265	18.68
531.463	18.8
531.661	18.96
531.859	19.09
532.057	19.25
532.255	19.38
532.454	19.5
532.652	19.59
532.85	19.65
533.048	19.69
533.246	19.81
533.444	19.89
533.642	20
533.84	20.08
534.038	20.23
534.236	20.3
534.434	20.43
534.632	20.51
534.83	20.66
535.027	20.77
535.225	20.92
535.423	21.1
535.621	21.24
535.819	21.42
536.017	21.47
536.215	21.54
536.412	21.73
536.61	21.83
536.808	21.94
537.006	22.06
537.203	22.16
537.401	22.2
537.599	22.27
537.797	22.36
537.994	22.48
538.192	22.69
538.39	22.85
538.587	22.92
538.785	23.07
538.983	23.31
539.18	23.43
539.378	23.55
539.575	23.65
539.773	23.8
539.97	23.97
540.168	24.05
540.366	24.09
540.563	24.15
540.761	24.2
540.958	24.23
541.155	24.19
541.353	24.26
541.55	24.33
541.748	24.45
541.945	24.44
542.143	24.46
542.34	24.5
542.537	24.61
542.735	24.64
542.932	24.72
543.129	24.76
543.327	24.87
543.524	24.87
543.721	25
543.919	25.08
544.116	25.26
544.313	25.36
544.51	25.52
544.708	25.68
544.905	25.84
545.102	26.06
545.299	26.34
545.496	26.6
545.693	26.75
545.891	26.77
546.088	26.83
546.285	26.85
546.482	26.93
546.679	26.91
546.876	26.86
547.073	26.88
547.27	26.82
547.467	26.71
547.664	26.67
547.861	26.75
548.058	26.82
548.255	26.84
548.452	26.84
548.649	26.89
548.846	27.02
549.043	27.01
549.24	27.02
549.437	27.07
549.633	27.14
549.83	27.12
550.027	27.14
550.224	27.32
550.421	27.37
550.618	27.43
550.814	27.53
551.011	27.47
551.208	27.55
551.405	27.61
551.601	27.75
551.798	27.79
551.995	27.82
552.191	27.74
552.388	27.66
552.585	27.75
552.781	27.77
552.978	27.73
553.175	27.79
553.371	27.76
553.568	27.77
553.764	27.81
553.961	27.84
554.157	27.78
554.354	27.95
554.55	28.06
554.747	27.94
554.943	28.07
555.14	28.12
555.336	28.13
555.533	28.28
555.729	28.44
555.926	28.38
556.122	28.51
556.318	28.65
556.515	28.61
556.711	28.46
556.907	28.47
557.104	28.41
557.3	28.28
557.496	28.23
557.693	28.23
557.889	28.28
558.085	28.33
558.281	28.25
558.478	28.27
558.674	28.37
558.87	28.52
559.066	28.74
559.262	28.95
559.459	29.13
559.655	29.27
559.851	29.31
560.047	29.35
560.243	29.39
560.439	29.45
560.635	29.44
560.831	29.48
561.027	29.51
561.223	29.46
561.419	29.31
561.615	29.39
561.811	29.44
562.007	29.39
562.203	29.38
562.399	29.41
562.595	29.59
562.791	29.63
562.987	29.65
563.183	29.7
563.379	29.86
563.575	29.92
563.771	29.93
563.966	29.96
564.162	30.03
564.358	29.88
564.554	29.83
564.75	29.75
564.945	29.79
565.141	29.76
565.337	29.85
565.533	29.76
565.728	29.91
565.924	30
566.12	30.01
566.315	30.1
566.511	30.28
566.707	30.41
566.902	30.51
567.098	30.49
567.293	30.54
567.489	30.51
567.684	30.41
567.88	30.33
568.076	30.26
568.271	30.38
568.467	30.34
568.662	30.31
568.858	30.3
569.053	30.21
569.248	30.43
569.444	30.47
569.639	30.56
569.835	30.72
570.03	30.78
570.225	30.81
570.421	30.69
570.616	30.61
570.812	30.73
571.007	30.85
571.202	30.95
571.397	30.8
571.593	30.76
571.788	30.73
571.983	30.67
572.178	30.7
572.374	30.75
572.569	30.81
572.764	30.94
572.959	30.86
573.154	30.82
573.35	30.83
573.545	30.89
573.74	31.02
573.935	31
574.13	31.14
574.325	31.16
574.52	31.25
574.715	31.26
574.91	31.35
575.105	31.26
575.3	31.26
575.495	31.2
575.69	31.21
575.885	31.23
576.08	31.35
576.275	31.36
576.47	31.41
576.665	31.48
576.86	31.55
577.055	31.57
577.25	31.81
577.444	31.96
577.639	32.06
577.834	32.18
578.029	32.26
578.224	32.27
578.418	32.37
578.613	32.42
578.808	32.19
579.003	32.39
579.197	32.36
579.392	32.34
579.587	32.38
579.781	32.51
579.976	32.5
580.171	32.48
580.365	32.38
580.56	32.51
580.755	32.49
580.949	32.6
581.144	32.52
581.338	32.65
581.533	32.75
581.727	32.67
581.922	32.64
582.116	32.58
582.311	32.57
582.505	32.77
582.7	32.72
582.894	32.75
583.089	32.83
583.283	32.79
583.478	32.8
583.672	32.78
583.866	32.81
584.061	32.95
584.255	33.13
584.449	33.19
584.644	33.33
584.838	33.47
585.032	33.63
585.226	33.84
585.421	33.81
585.615	33.71
585.809	33.82
586.003	33.97
586.198	33.92
586.392	33.94
586.586	34.1
586.78	34.11
586.974	33.89
587.168	33.85
587.363	33.66
587.557	33.7
587.751	33.74
587.945	33.92
588.139	33.81
588.333	33.85
588.527	33.81
588.721	33.58
588.915	33.43
589.109	33.49
589.303	33.5
589.497	33.53
589.691	33.41
589.885	33.39
590.079	33.17
590.273	33.17
590.466	33.2
590.66	33.3
590.854	33.37
591.048	33.36
591.242	33.34
591.436	33.34
591.629	33.59
591.823	33.79
592.017	33.88
592.211	34.1
592.404	34.17
592.598	33.98
592.792	33.95
592.986	33.99
593.179	34.18
593.373	34.2
593.567	34.09
593.76	33.87
593.954	33.91
594.147	33.89
594.341	33.7
594.535	33.73
594.728	33.93
594.922	34.03
595.115	33.99
595.309	33.77
595.502	33.66
595.696	33.73
595.889	33.66
596.083	33.67
596.276	33.79
596.47	33.84
596.663	33.7
596.856	33.57
597.05	33.52
597.243	33.58
597.437	33.68
597.63	33.76
597.823	33.77
598.017	33.93
598.21	33.83
598.403	33.85
598.596	33.84
598.79	33.96
598.983	34.11
599.176	34.01
599.369	34.11
599.563	34.14
599.756	34.26
599.949	34.37
600.142	34.32
600.335	34.52
600.528	34.44
600.722	34.38
600.915	34.33
601.108	34.29
601.301	34.35
601.494	34.2
601.687	34.27
601.88	34.23
602.073	34.27
602.266	34.32
602.459	34.31
602.652	34.3
602.845	34.39
603.038	34.49
603.231	34.47
603.424	34.5
603.617	34.61
603.809	34.63
604.002	34.62
604.195	34.65
604.388	34.67
604.581	34.67
604.774	34.84
604.966	34.81
605.159	34.82
605.352	34.83
605.545	34.86
605.737	34.87
605.93	34.89
606.123	34.9
606.316	34.91
606.508	34.88
606.701	34.86
606.894	34.76
607.086	34.7
607.279	34.71
607.471	34.86
607.664	34.92
607.857	35
608.049	35.1
608.242	35.45
608.434	35.64
608.627	35.94
608.819	36.25
609.012	36.61
609.204	37.19
609.397	37.67
609.589	38.06
609.782	38.71
609.974	39.2
610.166	39.74
610.359	40.23
610.551	40.61
610.743	41.07
610.936	41.58
611.128	41.86
611.32	41.99
611.513	42.11
611.705	42.27
611.897	42.12
612.09	41.98
612.282	41.9
612.474	41.61
612.666	41.51
612.858	41.25
613.051	40.87
613.243	40.56
613.435	40.31
613.627	39.95
613.819	39.62
614.011	39.34
614.203	39.31
614.395	39.1
614.588	38.88
614.78	38.75
614.972	38.47
615.164	38.2
615.356	38.21
615.548	38.11
615.74	38.21
615.932	38.28
616.124	38.08
616.315	37.98
616.507	37.82
616.699	37.62
616.891	37.29
617.083	37.2
617.275	37.34
617.467	37.18
617.659	37.26
617.85	37.05
618.042	36.8
618.234	36.87
618.426	36.79
618.618	36.66
618.809	36.86
619.001	36.91
619.193	36.91
619.384	36.66
619.576	36.57
619.768	36.6
619.959	36.41
620.151	36.53
620.343	36.58
620.534	36.51
620.726	36.65
620.917	36.41
621.109	36.55
621.301	36.65
621.492	36.67
621.684	36.78
621.875	36.71
622.067	36.9
622.258	36.92
622.45	36.9
622.641	36.84
622.832	37.08
623.024	37.26
623.215	37.2
623.407	37.02
623.598	37.07
623.789	37.19
623.981	37.26
624.172	37.21
624.363	37.34
624.555	37.29
624.746	37.55
624.937	37.23
625.129	37.13
625.32	37.12
625.511	37.31
625.702	37.5
625.893	37.53
626.085	37.36
626.276	37.47
626.467	37.29
626.658	37.34
626.849	37.14
627.04	37.19
627.231	37.27
627.422	37.19
627.614	37.24
627.805	37.08
627.996	36.93
628.187	37.1
628.378	37.08
628.569	37.28
628.76	37.39
628.951	37.41
629.142	37.42
629.332	37.6
629.523	37.77
629.714	37.73
629.905	37.77
630.096	37.91
630.287	37.73
630.478	37.66
630.669	37.56
630.859	37.45
631.05	37.46
631.241	37.52
631.432	37.35
631.623	37.38
631.813	37.41
632.004	37.29
632.195	37.18
632.385	37.25
632.576	37.38
632.767	37.29
632.957	37.37
633.148	37.32
633.339	37.34
633.529	37.32
633.72	37.28
633.91	37.19
634.101	37.26
634.292	37.26
634.482	37.22
634.673	37.08
634.863	37.04
635.054	37.01
635.244	36.97
635.435	36.96
635.625	36.8
635.815	36.7
636.006	36.7
636.196	36.69
636.387	36.65
636.577	36.7
636.767	36.67
636.958	36.86
637.148	36.76
637.338	36.95
637.529	37.05
637.719	37.26
637.909	37.19
638.099	37.39
638.29	37.44
638.48	37.31
638.67	37.31
638.86	37.39
639.05	37.42
639.241	37.5
639.431	37.5
639.621	37.33
639.811	36.96
640.001	37.24
640.191	36.91
640.381	36.94
640.571	37.25
640.761	37.27
640.951	37.24
641.141	37.15
641.331	37.14
641.521	37.15
641.711	37.37
641.901	37.55
642.091	37.37
642.281	37.52
642.471	37.42
642.661	37.24
642.851	37.22
643.041	37.28
643.231	37.31
643.42	37.43
643.61	37.12
643.8	36.99
643.99	37.27
644.18	37.36
644.369	37.57
644.559	37.68
644.749	37.92
644.939	37.84
645.128	37.85
645.318	37.81
645.508	37.55
645.697	37.8
645.887	37.72
646.076	37.42
646.266	37.3
646.456	37.08
646.645	37.08
646.835	36.95
647.024	37.1
647.214	37.16
647.403	37.1
647.593	37.23
647.782	37.33
647.972	37.55
648.161	37.79
648.351	37.78
648.54	37.9
648.73	37.95
648.919	37.92
649.108	37.91
649.298	37.91
649.487	38.09
649.677	38.14
649.866	38
650.055	37.84
650.244	37.78
650.434	38.06
650.623	37.95
650.812	37.99
651.002	37.96
651.191	37.96
651.38	37.85
651.569	37.68
651.758	37.58
651.947	37.6
652.137	37.71
652.326	37.75
652.515	37.39
652.704	37.44
652.893	37.36
653.082	37.37
653.271	37.41
653.46	37.53
653.649	37.58
653.838	38.01
654.027	38.05
654.216	37.9
654.405	37.88
654.594	38.1
654.783	37.97
654.972	38.27
655.161	38.44
655.35	38.43
655.539	38.51
655.728	38.49
655.916	38.23
656.105	37.98
656.294	38.02
656.483	38.07
656.672	37.96
656.86	37.92
657.049	37.66
657.238	37.46
657.427	37.23
657.615	36.89
657.804	37.06
657.993	36.77
658.181	36.8
658.37	36.77
658.559	36.91
658.747	37.11
658.936	37.11
659.125	37.25
659.313	37.4
659.502	37.55
659.69	37.66
659.879	37.62
660.067	37.87
660.256	37.87
660.444	37.72
660.633	37.51
660.821	37.32
661.01	37.42
661.198	37.24
661.387	37.38
661.575	37.3
661.763	37.4
661.952	37.22
662.14	37.22
662.328	37.46
662.517	37.78
662.705	37.85
662.893	38.05
663.082	38.02
663.27	37.95
663.458	37.9
663.646	38.03
663.834	38
664.023	38.06
664.211	37.97
664.399	37.89
664.587	37.8
664.775	37.87
664.963	37.91
665.152	37.9
665.34	38
665.528	37.8
665.716	37.96
665.904	37.98
666.092	37.86
666.28	37.89
666.468	37.91
666.656	38.23
666.844	38.35
667.032	38.26
667.22	38.4
667.408	38.35
667.596	38.28
667.784	37.96
667.971	38.02
668.159	38.24
668.347	38.23
668.535	38.13
668.723	37.84
668.911	37.58
669.098	37.5
669.286	37.22
669.474	37.43
669.662	37.72
669.849	37.99
670.037	37.96
670.225	38.05
670.413	38.06
670.6	38.43
670.788	38.36
670.976	38.52
671.163	38.8
671.351	38.83
671.538	38.7
671.726	38.35
671.913	38.24
672.101	38.23
672.289	38.14
672.476	38.23
672.664	38.05
672.851	38.27
673.039	38.24
673.226	38.07
673.413	38.34
673.601	38.34
673.788	38.48
673.976	38.62
674.163	38.69
674.35	38.71
674.538	38.75
674.725	38.78
674.912	38.67
675.1	38.69
675.287	38.96
675.474	38.88
675.662	39.02
675.849	38.93
676.036	38.93
676.223	38.83
676.411	38.91
676.598	39.14
676.785	39.07
676.972	39.08
677.159	38.96
677.346	38.78
677.533	38.8
677.721	38.61
677.908	38.53
678.095	38.38
678.282	38.58
678.469	38.16
678.656	37.93
678.843	38.21
679.03	38.26
679.217	38.26
679.404	38
679.591	38.03
679.778	37.91
679.964	38.03
680.151	38.12
680.338	37.92
680.525	38.02
680.712	37.9
680.899	37.66
681.086	37.62
681.272	37.59
681.459	37.8
681.646	37.62
681.833	37.68
682.02	37.6
682.206	37.32
682.393	37.25
682.58	37.33
682.766	37.56
682.953	37.67
683.14	37.64
683.326	37.71
683.513	37.63
683.7	37.79
683.886	37.84
684.073	38.18
684.259	38.33
684.446	38.49
684.632	38.74
684.819	38.61
685.005	38.52
685.192	38.56
685.378	38.77
685.565	38.92
685.751	39.17
685.938	39.22
686.124	39.11
686.31	39.04
686.497	39.22
686.683	39.2
686.87	39.31
687.056	39.36
687.242	38.99
687.429	38.68
687.615	38.43
687.801	38.3
687.987	38.17
688.174	38.01
688.36	38.15
688.546	37.98
688.732	37.95
688.918	38.05
689.105	37.92
689.291	38.22
689.477	38.33
689.663	38.4
689.849	38.22
690.035	38.66
690.221	38.88
690.407	38.63
690.593	38.7
690.779	38.49
690.965	38
691.151	38.08
691.337	38.29
691.523	38.43
691.709	38.77
691.895	38.84
692.081	38.73
692.267	38.45
692.453	38.94
692.639	38.46
692.825	38.7
693.011	38.97
693.196	39.11
693.382	38.79
693.568	38.66
693.754	38.41
693.94	38.73
694.125	38.44
694.311	38.49
694.497	38.19
694.682	38.55
694.868	38.32
695.054	38.45
695.239	38.19
695.425	38.54
695.611	38.58
695.796	38.35
695.982	37.87
696.168	37.92
696.353	37.9
696.539	37.94
696.724	37.88
696.91	37.89
697.095	38.04
697.281	38.26
697.466	38.3
697.652	38.19
697.837	38.25
698.023	38.42
698.208	38.27
698.393	38.19
698.579	38.09
698.764	38.09
698.949	37.9
699.135	37.64
699.32	37.47
699.505	37.31
699.691	37.33
699.876	37.3
700.061	37.2
700.246	37.23
700.432	37.37
700.617	37.55
700.802	37.7
700.987	38.18
701.172	38.04
701.358	38.24
701.543	38.12
701.728	38.29
701.913	38.4
702.098	38.34
702.283	38.73
702.468	38.38
702.653	38.4
702.838	38.59
703.023	38.72
703.208	38.93
703.393	38.72
703.578	38.84
703.763	39.01
703.948	39.08
704.133	39.29
704.318	39.34
704.503	39.88
704.688	39.92
704.873	39.93
705.057	39.99
705.242	40.33
705.427	40.73
705.612	40.53
705.797	40.58
705.981	40.75
706.166	40.86
706.351	40.96
706.536	41.19
706.72	41.36
706.905	41.38
707.09	40.91
707.274	40.7
707.459	40.75
707.644	41.24
707.828	41.13
708.013	40.87
708.197	40.81
708.382	40.39
708.567	40.39
708.751	40.08
708.936	40.17
709.12	40.37
709.305	40.75
709.489	40.82
709.673	40.5
709.858	40.34
710.042	40.43
710.227	40.63
710.411	40.85
710.596	40.51
710.78	40.95
710.964	40.72
711.149	40.65
711.333	40.38
711.517	39.81
711.702	39.79
711.886	39.82
712.07	39.99
712.254	39.91
712.438	39.79
712.623	39.79
712.807	39.29
712.991	39.5
713.175	39.58
713.359	39.23
713.544	39.23
713.728	39.01
713.912	39.03
714.096	38.95
714.28	38.8
714.464	38.89
714.648	38.7
714.832	38.71
715.016	38.11
715.2	37.76
715.384	38.06
715.568	37.96
715.752	38.1
715.936	38.03
716.12	37.92
716.304	37.61
716.488	37.45
716.671	37.69
716.855	37.76
717.039	37.83
717.223	38.3
717.407	38.27
717.59	38.51
717.774	38.72
717.958	38.73
718.142	38.79
718.325	39.47
718.509	39.54
718.693	39.33
718.877	38.82
719.06	39.16
719.244	38.83
719.428	39.15
719.611	39.57
719.795	39.97
719.978	39.45
720.162	39.78
720.345	39.42
720.529	39.28
720.713	39.51
720.896	40.34
721.08	40.37
721.263	40.47
721.446	40.24
721.63	40.27
721.813	39.72
721.997	40.29
722.18	39.67
722.364	39.73
722.547	39.79
722.73	39.18
722.914	38.83
723.097	38.84
723.28	38.78
723.464	38.26
723.647	38.39
723.83	38.13
724.013	38.06
724.197	38.32
724.38	38.44
724.563	38.88
724.746	39.37
724.929	39.28
725.112	39.89
725.296	39.92
725.479	40.34
725.662	39.72
725.845	40.12
726.028	40.16
726.211	40.52
726.394	40.29
726.577	40.04
726.76	39.77
726.943	39.93
727.126	38.9
727.309	39.46
727.492	39.42
727.675	39.37
727.858	39.15
728.041	39.08
728.224	38.64
728.407	38.54
728.589	38.63
728.772	38.9
728.955	38.53
729.138	38.54
729.321	37.91
729.503	38.12
729.686	38.5
729.869	38.8
730.052	38.6
730.234	38.81
730.417	39.12
730.6	39.02
730.782	38.81
730.965	38.57
731.148	38.98
731.33	38.93
731.513	38.6
731.695	38.47
731.878	38.3
732.061	38.51
732.243	38.57
732.426	38.47
732.608	38.29
732.791	38.65
732.973	38.92
733.156	39.11
733.338	38.81
733.52	38.62
733.703	38.41
733.885	38.46
734.068	38.3
734.25	38.36
734.432	38.51
734.615	38.71
734.797	38.52
734.979	38.54
735.162	37.86
735.344	38.44
735.526	38.77
735.708	38.74
735.891	38.67
736.073	38.69
736.255	38.25
736.437	37.82
736.619	37.59
736.802	37.99
736.984	38.41
737.166	39.38
737.348	39.43
737.53	39.55
737.712	39.36
737.894	39.35
738.076	39.39
738.258	39.38
738.44	39.48
738.622	39.4
738.804	39.23
738.986	39.09
739.168	38.41
739.35	38.09
739.532	38.1
739.714	37.95
739.896	38.33
740.078	38.33
740.259	38.42
740.441	38.39
740.623	38.68
740.805	38.3
740.987	38.2
741.168	38.22
741.35	38.42
741.532	38.03
741.714	39.32
741.895	38.83
742.077	38.99
742.259	39.22
742.44	39.26
742.622	39.48
742.804	39.82
742.985	40.31
743.167	40.39
743.348	39.71
743.53	39.77
743.711	39.15
743.893	39.27
744.075	39.33
744.256	39.57
744.438	39.57
744.619	38.92
744.8	38.6
744.982	38.62
745.163	38.52
745.345	39.58
745.526	39.72
745.707	39.48
745.889	39.75
746.07	39.66
746.252	39.5
746.433	39.58
746.614	40.52
746.795	41.07
746.977	40.78
747.158	40.92
747.339	41.11
747.52	41.65
747.702	41.69
747.883	41.62
748.064	41.42
748.245	41.22
748.426	41.24
748.607	41.29
748.788	40.57
748.97	40.06
749.151	39.76
749.332	39.39
749.513	39.57
749.694	39.23
749.875	39.03
750.056	39.13
750.237	39.18
750.418	39.66
750.599	38.98
750.78	39.21
750.96	39.46
751.141	40.15
751.322	40.09
751.503	40.14
751.684	39.96
751.865	40.89
752.046	40.4
752.226	39.85
752.407	39.72
752.588	39.92
752.769	39.79
752.949	39.51
753.13	39.43
753.311	38.84
753.492	38.05
753.672	38.9
753.853	38
754.034	38.83
754.214	40.31
754.395	39.9
754.575	39.62
754.756	39.79
754.937	40.47
755.117	40.65
755.298	41.37
755.478	41.66
755.659	41.3
755.839	41
756.02	41.25
756.2	40.07
756.381	39.89
756.561	39.64
756.741	39.14
756.922	38.5
757.102	37.46
757.283	37.12
757.463	36.44
757.643	36.6
757.823	36.38
758.004	35.98
758.184	36.05
758.364	36.04
758.545	36.66
758.725	36.82
758.905	36.38
759.085	36.75
759.265	36.35
759.446	36.03
759.626	36.11
759.806	36.01
759.986	35.95
760.166	35.93
760.346	35.77
760.526	35.32
760.706	35.67
760.886	36.35
761.066	36.24
761.246	37.21
761.426	38.02
761.606	37.39
761.786	36.94
761.966	36.71
762.146	36.4
762.326	36.69
762.506	36.73
762.686	36.69
762.866	36.7
763.046	36.23
763.225	35.76
763.405	35.53
763.585	35.9
763.765	36.59
763.945	36.69
764.124	37.08
764.304	37.14
764.484	37.43
764.664	37.37
764.843	37.51
765.023	37.92
765.203	37.71
765.382	38.24
765.562	37.91
765.741	37.64
765.921	37.78
766.101	37.34
766.28	37.11
766.46	36.21
766.639	36.28
766.819	36.26
766.998	36.18
767.178	36.32
767.357	35.34
767.537	35.47
767.716	36.27
767.896	36.61
768.075	36.69
768.254	36.5
768.434	36.89
768.613	36.63
768.792	36.7
768.972	37.37
769.151	37.86
769.33	38.66
769.51	39.35
769.689	38.76
769.868	38.71
770.047	38.93
770.226	39.44
770.406	39.16
770.585	39.67
770.764	39.26
770.943	39.23
771.122	39.46
771.301	39.72
771.48	39.89
771.66	39.56
771.839	39.19
772.018	39.89
772.197	40.11
772.376	40.95
772.555	41.07
772.734	41.72
772.913	41.62
773.092	41.83
773.271	41.54
773.449	40.88
773.628	40.86
773.807	41.68
773.986	41.53
774.165	41.23
774.344	41.05
774.523	40.13
774.701	39.89
774.88	40.17
775.059	39.72
775.238	39.45
775.417	39.29
775.595	40.17
775.774	39.05
775.953	38.27
776.131	37.56
776.31	38.63
776.489	39.23
776.667	39.73
776.846	39.26
777.025	40.32
777.203	40.97
777.382	41.78
777.56	41.9
777.739	43.01
777.917	43.25
778.096	43.97
778.274	42.75
778.453	42.84
778.631	41.62
778.81	41.23
778.988	41.23
779.166	40.52
779.345	39.59
779.523	39.08
779.702	38.94
779.88	39.2
780.058	39.6
780.237	39.75
780.415	41.04
780.593	41.44
780.771	40.91
780.95	40.36
781.128	40.86
781.306	41.01
781.484	41.11
781.662	40.23
781.841	40.18
782.019	39.37
782.197	39.12
782.375	37.42
782.553	37.98
782.731	38.79
782.909	38.79
783.087	38.35
783.265	38.94
783.443	37.58
783.621	37.71
783.799	37.85
783.977	38.76
784.155	38.57
784.333	39.67
784.511	39.1
784.689	39.86
784.867	39.49
785.045	40.02
785.223	39.65
785.4	40.44
785.578	41.31
785.756	42.26
785.934	41.45
786.112	40.57
786.289	40.77
786.467	41.27
786.645	41.27
786.823	41.29
787	41.18
787.178	41.38
787.356	41.91
787.533	40.59
787.711	38.72
787.889	38.57
788.066	39.29
788.244	37.66
788.421	37.12
788.599	37.38
788.776	37.42
788.954	38.79
789.131	38.41
789.309	37.65
789.486	38.21
789.664	39.04
789.841	39.44
790.019	39.43
790.196	40.37
790.373	40.62
790.551	40.93
790.728	41.23
790.906	40.33
791.083	42.45
791.26	43.76
791.437	43.1
791.615	43.24
791.792	43.23
791.969	44.58
792.146	44.56
792.324	44.93
792.501	44.54
792.678	43.84
792.855	42.55
793.032	41.03
793.209	40.69
793.387	41.65
793.564	41.91
793.741	42.02
793.918	41.04
794.095	41.44
794.272	41.28
794.449	39.77
794.626	40.62
794.803	41.07
794.98	40.91
795.157	40.31
795.334	41.04
795.511	40.89
795.688	40.76
795.864	40.88
796.041	40.15
796.218	39.89
796.395	41
796.572	40.9
796.749	41.34
796.925	41.17
797.102	41.91
797.279	40.48
797.456	39.96
797.632	39.03
797.809	39.3
797.986	40.01
798.162	39.8
798.339	39.68
798.516	39.92
798.692	39.78
798.869	39.74
799.046	38.84
799.222	39.44
799.399	39.73
799.575	40.5
799.752	41.07
799.928	41.68
800.105	41.75
800.281	41.01
800.458	39.23
800.634	39.05
800.811	37.5
800.987	38.72
801.163	38.97
801.34	38.73
801.516	38.55
801.692	37.87
801.869	37.16
802.045	38.27
802.221	39
802.398	40.26
802.574	40.42
802.75	42.35
802.926	41.5
803.103	41.82
803.279	42.64
803.455	42.83
803.631	41.6
803.807	41.54
803.983	41.5
804.16	41.32
804.336	41.76
804.512	40.96
804.688	41.01
804.864	41.88
805.04	41.85
805.216	40.77
805.392	41.86
805.568	42.57
805.744	42.58
805.92	41.22
806.096	41.33
806.272	41.7
806.448	40.98
806.623	41.32
806.799	40.32
806.975	39.76
807.151	40.8
807.327	40.08
807.503	40.14
807.678	41.1
807.854	41.53
808.03	42.03
808.206	41.45
808.381	43.12
808.557	41.08
808.733	42.04
808.908	41.44
809.084	40.35
809.26	40.34
809.435	40.53
809.611	40.79
809.787	41.18
809.962	40.46
810.138	39.55
810.313	38.98
810.489	39.18
810.664	37.27
810.84	37.63
811.015	39.07
811.191	39.6
811.366	40.65
811.542	39.06
811.717	38.69
811.892	38.93
812.068	39.76
812.243	39.73
812.419	40.41
812.594	40.73
812.769	41.14
812.944	40.38
813.12	39.91
813.295	39.06
813.47	37.55
813.645	36.95
813.821	38.04
813.996	37.54
814.171	38.55
814.346	38.99
814.521	40.09
814.697	40.55
814.872	41.21
815.047	41.77
815.222	41.05
815.397	42.62
815.572	42.68
815.747	41.47
815.922	42.99
816.097	42.27
816.272	43.77
816.447	43.88
816.622	45.07
816.797	44.18
816.972	44.77
817.147	43.85
817.322	43.3
817.496	43.48
817.671	43.77
817.846	42.04
818.021	41.27
818.196	39.41
818.371	39.66
818.545	38.02
818.72	39.32
818.895	37.37
819.069	38.57
819.244	37.59
819.419	36.54
819.594	34.37
819.768	34.18
819.943	34.62
820.117	34.42
820.292	33.33
820.467	33.6
820.641	33.12
820.816	33.45
820.99	33.32
821.165	34.05
821.339	34.3
821.514	34.67
821.688	34.42
821.863	34.13
822.037	34.08
822.212	33.88
822.386	33.6
822.56	33.18
822.735	33.14
822.909	32.86
823.084	32.88
823.258	32.68
823.432	32.57
823.606	32.53
823.781	32.4
823.955	32.16
824.129	32.27
824.303	32.4
824.478	32.59
824.652	32.65
824.826	33.29
825	32.83
825.174	33.14
825.348	33.65
825.523	33.61
825.697	33.97
825.871	34.7
826.045	34.81
826.219	34.76
826.393	34.36
826.567	34.34
826.741	33.41
826.915	33.75
827.089	33.84
827.263	33.36
827.437	33.68
827.611	34.02
827.784	33.66
827.958	33.24
828.132	33.45
828.306	34.06
828.48	33.52
828.654	33.66
828.827	33.38
829.001	33.7
829.175	33.72
829.349	33.31
829.522	33.04
829.696	32.78
829.87	34.2
830.044	33.21
830.217	32.86
830.391	34.29
830.565	35.21
830.738	35.45
830.912	34.44
831.085	35.16
831.259	36.59
831.432	35.31
831.606	36.24
831.779	34.39
831.953	35.76
832.126	35.92
832.3	35.21
832.473	35.86
832.647	35.26
832.82	35.26
832.994	34.38
833.167	34.63
833.34	35.27
833.514	34.38
833.687	35.09
833.86	34.71
834.034	34.14
834.207	34.04
834.38	33.84
834.553	34.16
834.727	34.5
834.9	34.54
835.073	33.87
835.246	34.27
835.419	35.26
835.593	34.62
835.766	35.02
835.939	36.08
836.112	37.14
836.285	37.43
836.458	37.91
836.631	36.8
836.804	37.33
836.977	38.35
837.15	38.41
837.323	38.52
837.496	41.12
837.669	42.03
837.842	42.87
838.015	41.12
838.188	41.36
838.361	40.68
838.533	43.54
838.706	44.43
838.879	44.6
839.052	43.39
839.225	42.48
839.398	41.17
839.57	39.86
839.743	38.98
839.916	39.4
840.088	37.51
840.261	39.29
840.434	37.9
840.607	37.99
840.779	38.15
840.952	39.41
841.124	41.14
841.297	41.27
841.47	39.63
841.642	38.62
841.815	39.04
841.987	41.59
842.16	38.81
842.332	39.72
842.505	41.27
842.677	41.82
842.85	41.76
843.022	38.86
843.194	37.99
843.367	39.42
843.539	42.67
843.712	43.77
843.884	45.64
844.056	48.68
844.229	48.63
844.401	45.23
844.573	44.91
844.745	44.14
844.918	45.51
845.09	48.79
845.262	49.58
845.434	45.38
845.606	46.56
845.779	42.59
845.951	43.9
846.123	45.94
846.295	48.18
846.467	46.4
846.639	46.11
846.811	47.43
846.983	44.33
847.155	48.48
847.327	50.62
847.499	46.91
847.671	51.58
847.843	49.65
848.015	48.63
848.187	50.59
848.359	48.78
848.531	50.57
848.703	50.26
848.875	50.56
849.047	43.66
849.218	46.87
849.39	50.3
849.562	44.78
849.734	42.14
849.905	41.97
850.077	37.94
850.249	39.82
850.421	37.22
850.592	36.78
850.764	39.83
850.936	44.67
851.107	41.37
851.279	37.8
851.451	43.46
851.622	44.66
851.794	43.17
851.965	45.58
852.137	44.47
852.308	47.74
852.48	50.32
852.651	48.56
852.823	46.92
852.994	48.27
853.166	49.61
853.337	45.96
853.509	51.5
853.68	50.69
853.851	49.06
854.023	52.67
854.194	49.59
854.365	47.76
854.537	47.23
854.708	49.7
854.879	47.88
855.05	50.59
855.222	52.69
855.393	49.23
855.564	49.08
855.735	44.59
855.906	46.12
856.078	49.24
856.249	53.56
856.42	51.43
856.591	50.32
856.762	50.49
856.933	45.86
857.104	40.98
857.275	41.93
857.446	42.41
857.617	43.95
857.788	43.48
857.959	41.85
858.13	43.44
858.301	45.63
858.472	44.67
858.643	47.06
858.814	49.93
858.985	55.71
859.155	52.31
859.326	58.71
859.497	61.24
859.668	60.62
859.839	60.79
860.009	51.48
860.18	51.82
860.351	51.3
860.522	47.62
860.692	46.34
860.863	43.41
861.034	46.85
861.204	42.83
861.375	43.77
861.546	40.26
861.716	38.67
861.887	41.92
862.057	41.47
862.228	43.24
862.398	46.66
862.569	53.59
862.739	53.46
862.91	52.8
863.08	53.29
863.251	54.62
863.421	58.95
863.592	60.13
863.762	57.95
863.932	54.72
864.103	49.77
864.273	45.8
864.443	40.34
864.614	42.7
864.784	41.75
864.954	39.77
865.125	37.72
865.295	39.24
865.465	37.82
865.635	39.08
865.805	41.35
865.976	41.53
866.146	48.09
866.316	50.64
866.486	51.04
866.656	51.45
866.826	50.7
866.996	50.84
867.166	47.82
867.336	47.31
867.506	47.41
867.676	46.39
867.846	50.19
868.016	49.54
868.186	45.43
868.356	44.11
868.526	44.46
868.696	42.74
868.866	42.44
869.036	43.81
869.206	40.34
869.376	42.66
869.545	42.3
869.715	43.81
869.885	39.66
870.055	39.93
870.224	39.87
870.394	37.35
870.564	44.13
870.734	46.13
870.903	43.42
871.073	48.17
871.243	48.05
871.412	50.21
871.582	47
871.751	43.96
871.921	42.51
872.091	43
872.26	45.46
872.43	42.38
872.599	38.7
872.769	38.15
872.938	37.6
873.108	36.22
873.277	34.72
873.446	36.59
873.616	36.11
873.785	39.22
873.955	38.44
874.124	34.83
874.293	33.21
874.463	38.27
874.632	42.66
874.801	41.97
874.971	42.29
875.14	42.46
875.309	42.15
875.478	48.06
875.647	47.3
875.817	51.75
875.986	56.77
876.155	54.23
876.324	47.59
876.493	45.51
876.662	46.08
876.831	43.21
877	43.6
877.17	44.34
877.339	39.85
877.508	42.04
877.677	41.35
877.846	37.05
878.015	42.27
878.184	45.02
878.352	45.03
878.521	43.8
878.69	47.71
878.859	45.18
879.028	45.61
879.197	48.71
879.366	48.5
879.534	46.56
879.703	46.21
879.872	41.34
880.041	41.16
880.21	38.63
880.378	37.75
880.547	36.04
880.716	36.44
880.884	35.93
881.053	33.57
881.222	31.85
881.39	31.28
881.559	31.55
881.727	32.06
881.896	30.77
882.065	30.94
882.233	31.34
882.402	31.79
882.57	31.52
882.739	31.09
882.907	31.77
883.076	31.67
883.244	31.39
883.412	31.79
883.581	31.52
883.749	31.86
883.918	32.71
884.086	32.54
884.254	32.57
884.423	33.52
884.591	33.14
884.759	33.16
884.927	34.99
885.096	35.61
885.264	35.8
885.432	36.64
885.6	37.96
885.769	37.7
885.937	38.03
886.105	38.36
886.273	38.74
886.441	41.94
886.609	42.64
886.777	41.5
886.945	44.84
887.113	47.94
887.281	50.14
887.449	51.76
887.617	49.88
887.785	52.01
887.953	50.84
888.121	50.32
888.289	49.85
888.457	52.45
888.625	50.97
888.793	50.38
888.961	46.65
889.129	43.98
889.296	46.24
889.464	50.24
889.632	49.75
889.8	53.36
889.967	51.38
890.135	49.15
