Data from 2938848__Reflection_01.txt Node
Date: Wed Mar 11 13:35:12 EDT 2015
User: robert
Spectrometer: USB4E03002
Autoset integration time: false
Trigger mode: 4
Integration Time (sec): 1.000000E-1
Scans to average: 10
Electric dark correction enabled: false
Nonlinearity correction enabled: false
Boxcar width: 5
Stray light correction enabled: false
XAxis mode: Wavelengths
Stop averaging: false
Number of Pixels in Spectrum: 3648
>>>>>Begin Spectral Data<<<<<
177.575	637.04
177.794	-385.42
178.014	-163.7
178.233	-325
178.452	-166.42
178.672	-8.54
178.891	-3.19
179.11	33.99
179.33	32.96
179.549	25.31
179.768	31.25
179.987	-48.4
180.207	-29.92
180.426	-58.3
180.645	-99.15
180.864	-90.82
181.084	-332.98
181.303	-1545.24
181.522	-622.12
181.741	-380.47
181.96	-469.5
182.179	-1232.76
182.398	-817.65
182.618	926.37
182.837	1190.77
183.056	1755.32
183.275	298.93
183.494	236.99
183.713	303.64
183.932	164.96
184.151	188.39
184.37	209.18
184.589	401.32
184.808	443.07
185.027	-821.43
185.246	-324.44
185.465	-14.76
185.684	12.88
185.903	-14.07
186.122	-12.08
186.341	-19.67
186.56	-11.88
186.779	-23.48
186.998	0.48
187.216	19.75
187.435	-0
187.654	10.98
187.873	0.49
188.092	-10.15
188.311	3.02
188.53	8.92
188.748	5.17
188.967	13.25
189.186	24.63
189.405	4.09
189.623	2.56
189.842	6.85
190.061	7.98
190.28	2.56
190.498	5.72
190.717	-2.07
190.936	-23.15
191.154	-7.57
191.373	-6.18
191.592	-14.65
191.81	-2.09
192.029	-16.05
192.248	-42.48
192.466	-98.07
192.685	-108.33
192.904	-113.19
193.122	-107.74
193.341	-289.51
193.559	-339.33
193.778	-730.86
193.996	-418.66
194.215	-330.49
194.433	-168.61
194.652	-124.44
194.87	-115.98
195.089	-108.28
195.307	-110.99
195.526	-161.42
195.744	-62.06
195.963	-71.38
196.181	-72.5
196.399	-71.91
196.618	-52.65
196.836	-50.46
197.055	-27.94
197.273	-12.38
197.491	-38.2
197.71	-48.86
197.928	-15.24
198.146	-28
198.365	-27.74
198.583	-4.26
198.801	9.12
199.019	11.91
199.238	10.18
199.456	7.21
199.674	-10.13
199.892	34.99
200.111	36.48
200.329	24.74
200.547	33.78
200.765	18.49
200.983	-24.45
201.202	-41.84
201.42	-46.94
201.638	-49.88
201.856	-53.48
202.074	-70.17
202.292	-106.15
202.51	-155.42
202.728	-214.32
202.946	-155.44
203.165	-171.32
203.383	-105
203.601	-126.97
203.819	-162.02
204.037	-182.01
204.255	-109.23
204.473	-120.72
204.691	-107.66
204.909	-116.87
205.127	-86.73
205.345	-145.09
205.562	-87.17
205.78	-122.41
205.998	-204.96
206.216	-202.2
206.434	-75.24
206.652	-59.64
206.87	-35.89
207.088	-25.03
207.306	-16.47
207.523	-7.11
207.741	-4.96
207.959	-17.14
208.177	-4.77
208.395	-5.37
208.612	-12.09
208.83	-52.4
209.048	-58.41
209.266	-48.87
209.483	-75.43
209.701	-85.96
209.919	-66.1
210.136	-87.85
210.354	-37.17
210.572	-38.52
210.79	-52.64
211.007	-56.24
211.225	-44.1
211.442	-52.87
211.66	-102.66
211.878	-75.08
212.095	-174.39
212.313	-200
212.53	-151.03
212.748	-127.19
212.966	-125.03
213.183	-100.52
213.401	-65.32
213.618	-72.7
213.836	-58.59
214.053	-45.86
214.271	-54.43
214.488	0.43
214.705	-6.92
214.923	-14.58
215.14	-27.28
215.358	-29.61
215.575	-23.84
215.793	-32.83
216.01	-46.41
216.227	-36.52
216.445	-22.66
216.662	-14.36
216.879	-17.78
217.097	-12.97
217.314	-6.29
217.531	-4.18
217.749	2.28
217.966	-1.84
218.183	12.66
218.4	21.43
218.618	12.12
218.835	15.2
219.052	11.24
219.269	23.84
219.487	29.96
219.704	21.2
219.921	17.46
220.138	19.49
220.355	20.81
220.572	11.54
220.79	10.43
221.007	16.11
221.224	5.73
221.441	2.97
221.658	1.55
221.875	-4.46
222.092	-0.99
222.309	-1.51
222.526	-6.34
222.743	-7.61
222.96	-9.22
223.177	-10.28
223.394	-9.56
223.611	-6.77
223.828	-0.19
224.045	-0.13
224.262	2.32
224.479	6.37
224.696	8.05
224.913	12.06
225.13	13.85
225.347	12.38
225.564	10.29
225.781	5.96
225.997	7.2
226.214	5.67
226.431	5.64
226.648	5.15
226.865	2.16
227.082	3.27
227.298	2.12
227.515	2.29
227.732	2.55
227.949	2.7
228.165	2.81
228.382	2.35
228.599	1.89
228.816	2.06
229.032	2.3
229.249	2.19
229.466	1.11
229.682	0.25
229.899	0.01
230.116	-0.14
230.332	0.14
230.549	-0.01
230.765	-0.05
230.982	-0.34
231.199	-1.66
231.415	-2.21
231.632	-2.43
231.848	-3.29
232.065	-1.24
232.281	-1.42
232.498	-0.59
232.714	-2.94
232.931	-2.61
233.147	-3.33
233.364	-2.47
233.58	-1.26
233.797	0.29
234.013	0.82
234.23	1.68
234.446	1.68
234.662	0.85
234.879	-1.02
235.095	1.44
235.312	2.16
235.528	2.73
235.744	2.38
235.961	1.02
236.177	0.37
236.393	0.82
236.61	0.03
236.826	0.31
237.042	0.94
237.258	0.64
237.475	-0.36
237.691	-0.55
237.907	0.35
238.123	0.15
238.339	2.32
238.556	0.61
238.772	0.24
238.988	2.27
239.204	1.44
239.42	1.96
239.636	2.65
239.853	2.72
240.069	2.53
240.285	2.99
240.501	3.44
240.717	3.27
240.933	3.99
241.149	3.75
241.365	2.96
241.581	2.71
241.797	1.96
242.013	2.48
242.229	2.39
242.445	2.49
242.661	1.9
242.877	1.59
243.093	1.06
243.309	0.69
243.525	0.91
243.741	1.43
243.957	1.48
244.173	1.48
244.388	1.08
244.604	1.55
244.82	0.91
245.036	1.21
245.252	1.6
245.468	2.46
245.683	3.02
245.899	2.88
246.115	3.11
246.331	3.18
246.547	3.28
246.762	3.07
246.978	2.92
247.194	3.35
247.409	3.41
247.625	3.59
247.841	3.28
248.057	3.22
248.272	3.05
248.488	2.56
248.703	2.53
248.919	2.48
249.135	2.71
249.35	2.48
249.566	1.73
249.782	1.46
249.997	0.72
250.213	1.19
250.428	0.48
250.644	1.03
250.859	0.88
251.075	0.73
251.29	1.01
251.506	1.01
251.721	1.31
251.937	1.82
252.152	2.1
252.368	2.33
252.583	1.6
252.798	1.58
253.014	1.67
253.229	1.74
253.445	1.9
253.66	1.47
253.875	1.89
254.091	0.82
254.306	1.39
254.521	0.42
254.737	1.34
254.952	1.11
255.167	1.43
255.383	0.93
255.598	0.48
255.813	0.43
256.028	0.65
256.244	0.92
256.459	2.8
256.674	1.82
256.889	1.92
257.104	0.85
257.32	1.2
257.535	1.2
257.75	1.26
257.965	2.05
258.18	2.2
258.395	2.5
258.61	2.39
258.826	1.88
259.041	1.83
259.256	1.99
259.471	1.97
259.686	2.1
259.901	2.28
260.116	2.43
260.331	2.39
260.546	2.51
260.761	2.2
260.976	1.98
261.191	2.07
261.406	2.29
261.621	2.26
261.836	2.21
262.05	1.86
262.265	1.42
262.48	0.92
262.695	0.38
262.91	-0.14
263.125	0.04
263.34	0.13
263.555	0.21
263.769	0.02
263.984	-0.01
264.199	0.34
264.414	1.11
264.629	1.57
264.843	1.59
265.058	2
265.273	2.11
265.488	1.61
265.702	1.31
265.917	2.16
266.132	1.76
266.346	2.32
266.561	2.36
266.776	2.22
266.99	1.94
267.205	1.59
267.42	1.74
267.634	1.82
267.849	2.51
268.063	2.87
268.278	2.18
268.492	2.61
268.707	2.25
268.922	2.07
269.136	1.87
269.351	1.61
269.565	1.92
269.78	1.61
269.994	1.45
270.209	1.45
270.423	1.33
270.637	1.37
270.852	1.08
271.066	0.91
271.281	1.05
271.495	1.23
271.709	1.22
271.924	1.85
272.138	1.73
272.353	1.5
272.567	1.21
272.781	1.3
272.996	1.06
273.21	1.18
273.424	1.45
273.638	1.19
273.853	1.19
274.067	1.93
274.281	1.74
274.495	1.95
274.71	2.05
274.924	2.12
275.138	2.16
275.352	2.52
275.566	2.67
275.781	1.95
275.995	2.1
276.209	1.89
276.423	1.52
276.637	0.92
276.851	0.92
277.065	1.04
277.279	0.8
277.493	0.47
277.707	0.2
277.921	-0.05
278.135	0.35
278.349	0.46
278.563	0.13
278.777	0.38
278.991	0.86
279.205	0.57
279.419	0.64
279.633	0.71
279.847	1.2
280.061	1.34
280.275	1.78
280.489	1.86
280.703	1.91
280.917	2.35
281.131	2.08
281.344	1.98
281.558	2.12
281.772	2.05
281.986	2.31
282.2	1.94
282.414	1.79
282.627	1.61
282.841	1.79
283.055	1.85
283.269	1.87
283.482	1.81
283.696	1.85
283.91	1.82
284.123	1.89
284.337	1.97
284.551	2.1
284.764	2.11
284.978	2.13
285.192	2.28
285.405	2.22
285.619	2.2
285.833	2.31
286.046	2.18
286.26	2.29
286.473	2.32
286.687	2.23
286.9	2.38
287.114	2.82
287.327	2.97
287.541	2.89
287.754	3.15
287.968	2.92
288.181	3.21
288.395	3.1
288.608	3.11
288.822	3.05
289.035	2.97
289.248	2.92
289.462	2.73
289.675	2.67
289.889	2.53
290.102	2.31
290.315	2.29
290.529	2.05
290.742	2.1
290.955	1.87
291.169	2
291.382	2.33
291.595	2.45
291.808	2.27
292.022	2.23
292.235	2.07
292.448	2.14
292.661	2.32
292.875	2.25
293.088	2.74
293.301	3.05
293.514	2.95
293.727	2.76
293.94	2.61
294.153	2.61
294.367	2.75
294.58	3.12
294.793	2.99
295.006	2.97
295.219	3.02
295.432	2.71
295.645	2.96
295.858	3.18
296.071	2.99
296.284	3.1
296.497	3.17
296.71	3.21
296.923	3.2
297.136	3.35
297.349	3.49
297.562	3.62
297.775	3.63
297.988	3.55
298.201	3.47
298.414	3.63
298.626	3.66
298.839	3.84
299.052	3.79
299.265	3.81
299.478	3.93
299.691	4.05
299.903	3.96
300.116	4.32
300.329	4.57
300.542	4.66
300.755	5.05
300.967	5.03
301.18	5.08
301.393	5.18
301.605	5.36
301.818	5.47
302.031	5.76
302.243	6.02
302.456	5.87
302.669	5.53
302.881	5.74
303.094	5.51
303.307	5.72
303.519	5.68
303.732	5.61
303.944	5.66
304.157	5.55
304.37	5.59
304.582	5.6
304.795	5.46
305.007	5.82
305.22	5.99
305.432	6.38
305.645	6.21
305.857	5.8
306.069	5.65
306.282	5.56
306.494	5.54
306.707	5.11
306.919	5.15
307.132	5.5
307.344	5.65
307.556	5.28
307.769	5.27
307.981	5.45
308.193	5.97
308.406	6.4
308.618	6.63
308.83	6.83
309.043	7.06
309.255	6.97
309.467	6.95
309.679	7.03
309.892	7.12
310.104	7.5
310.316	7.61
310.528	7.67
310.74	7.78
310.953	7.67
311.165	7.49
311.377	7.66
311.589	7.68
311.801	7.85
312.013	7.65
312.225	7.79
312.437	7.49
312.649	7.63
312.862	7.65
313.074	7.57
313.286	7.45
313.498	8.05
313.71	7.94
313.922	7.89
314.134	7.81
314.346	7.62
314.558	7.94
314.77	7.79
314.982	7.56
315.193	7.75
315.405	7.67
315.617	7.74
315.829	7.2
316.041	7.35
316.253	7.39
316.465	7.5
316.677	7.9
316.888	7.62
317.1	7.7
317.312	7.6
317.524	7.6
317.736	7.33
317.947	7.77
318.159	8.27
318.371	8.07
318.583	8.72
318.794	9.01
319.006	9.25
319.218	9.36
319.43	9.25
319.641	9.34
319.853	9.21
320.064	9.59
320.276	9.55
320.488	9.58
320.699	9.55
320.911	9.77
321.123	9.71
321.334	9.38
321.546	9.6
321.757	10
321.969	10.3
322.18	10.33
322.392	10.93
322.603	10.74
322.815	10.6
323.026	10.76
323.238	10.36
323.449	10.12
323.661	10.38
323.872	10.38
324.083	10.18
324.295	10.28
324.506	10.11
324.718	9.84
324.929	10.05
325.14	9.76
325.352	10.05
325.563	10.38
325.774	10.52
325.986	10.49
326.197	10.24
326.408	10.41
326.62	10.16
326.831	10.66
327.042	10.58
327.253	10.49
327.464	10.67
327.676	10.49
327.887	10.46
328.098	10.76
328.309	10.74
328.52	10.93
328.732	10.82
328.943	11.25
329.154	11.44
329.365	11.74
329.576	12.13
329.787	12.28
329.998	12.59
330.209	12.72
330.42	12.71
330.631	13.02
330.842	13.21
331.053	13.58
331.264	13.58
331.475	13.7
331.686	13.69
331.897	13.88
332.108	13.8
332.319	13.92
332.53	13.79
332.741	13.71
332.952	13.61
333.163	13.76
333.374	14.03
333.585	13.84
333.795	13.81
334.006	13.88
334.217	13.77
334.428	14.26
334.639	14.04
334.849	14.4
335.06	14.46
335.271	14.59
335.482	14.9
335.692	14.71
335.903	14.82
336.114	14.76
336.325	14.78
336.535	14.62
336.746	14.37
336.957	14.15
337.167	13.71
337.378	13.72
337.589	13.79
337.799	13.43
338.01	13.52
338.22	13.58
338.431	13.47
338.642	13.43
338.852	13.52
339.063	13.46
339.273	13.72
339.484	13.86
339.694	13.98
339.905	14.13
340.115	14.22
340.326	14.24
340.536	13.92
340.746	13.93
340.957	13.79
341.167	13.84
341.378	14.21
341.588	14.31
341.799	14.5
342.009	14.31
342.219	14.14
342.43	14.13
342.64	14.04
342.85	14.07
343.061	14.24
343.271	14.48
343.481	14.25
343.691	13.82
343.902	14.17
344.112	13.79
344.322	13.68
344.532	13.59
344.743	13.47
344.953	13.32
345.163	13.66
345.373	13.43
345.583	13.21
345.793	13.42
346.004	13.72
346.214	13.18
346.424	13.6
346.634	13.65
346.844	13.82
347.054	13.7
347.264	13.83
347.474	13.63
347.684	13.87
347.894	13.81
348.104	13.64
348.314	13.57
348.524	13.87
348.734	13.59
348.944	13.65
349.154	13.53
349.364	13.75
349.574	13.62
349.784	13.57
349.994	13.38
350.204	13.5
350.413	13.54
350.623	13.29
350.833	13.18
351.043	12.82
351.253	12.76
351.463	12.79
351.672	12.65
351.882	12.78
352.092	12.87
352.302	12.68
352.511	12.73
352.721	12.62
352.931	12.89
353.141	12.89
353.35	13.2
353.56	13.23
353.77	13.2
353.979	13.18
354.189	13.02
354.399	12.86
354.608	13.08
354.818	13.17
355.027	13.45
355.237	13.28
355.447	13.11
355.656	13.13
355.866	12.93
356.075	13.1
356.285	13.25
356.494	13.31
356.704	13.52
356.913	13.58
357.123	13.32
357.332	13.14
357.542	13.24
357.751	13.4
357.96	13.44
358.17	13.71
358.379	13.52
358.589	13.33
358.798	13.32
359.007	13.06
359.217	13.05
359.426	13.33
359.635	13.31
359.845	13.02
360.054	12.98
360.263	13.12
360.472	13.03
360.682	12.69
360.891	12.8
361.1	12.8
361.309	12.9
361.519	12.75
361.728	12.64
361.937	12.79
362.146	12.84
362.355	12.69
362.564	12.53
362.774	12.55
362.983	12.78
363.192	12.75
363.401	12.74
363.61	12.75
363.819	12.53
364.028	12.49
364.237	12.34
364.446	12.53
364.655	12.75
364.864	12.76
365.073	12.72
365.282	12.7
365.491	12.76
365.7	12.9
365.909	12.75
366.118	12.92
366.327	12.86
366.536	12.78
366.745	12.37
366.954	12.31
367.162	12.59
367.371	12.42
367.58	12.42
367.789	12.37
367.998	12.17
368.207	12.2
368.415	12.2
368.624	12.21
368.833	12.09
369.042	12.54
369.25	12.41
369.459	11.97
369.668	12.16
369.877	12.08
370.085	11.78
370.294	11.84
370.503	11.81
370.711	11.75
370.92	11.66
371.129	11.84
371.337	11.61
371.546	11.59
371.754	11.67
371.963	11.52
372.171	11.6
372.38	11.76
372.589	11.6
372.797	11.75
373.006	11.82
373.214	11.88
373.423	11.66
373.631	11.64
373.84	11.59
374.048	11.44
374.256	11.48
374.465	11.27
374.673	11.12
374.882	11.44
375.09	11.43
375.298	11.33
375.507	11.28
375.715	11.35
375.923	11.27
376.132	11.32
376.34	11.42
376.548	11.28
376.757	11.54
376.965	11.77
377.173	11.59
377.381	11.6
377.59	11.73
377.798	11.87
378.006	11.99
378.214	12.01
378.423	12
378.631	11.81
378.839	11.98
379.047	11.85
379.255	11.71
379.463	11.66
379.671	11.5
379.879	11.36
380.088	11.33
380.296	11.07
380.504	11.24
380.712	11.33
380.92	11.31
381.128	11.07
381.336	11.15
381.544	11.32
381.752	11.26
381.96	11.37
382.168	11.54
382.376	11.33
382.584	11.4
382.791	11.23
382.999	11.09
383.207	11.21
383.415	11.27
383.623	11.06
383.831	10.89
384.039	11.04
384.247	10.81
384.454	10.92
384.662	11.03
384.87	11.24
385.078	11.36
385.285	11.27
385.493	11.3
385.701	11.34
385.909	11.67
386.116	11.74
386.324	11.71
386.532	11.96
386.739	11.69
386.947	11.54
387.155	11.53
387.362	11.52
387.57	11.61
387.778	11.64
387.985	11.56
388.193	11.37
388.4	11.08
388.608	10.89
388.816	10.86
389.023	10.8
389.231	10.93
389.438	10.79
389.646	10.63
389.853	10.69
390.061	10.62
390.268	10.76
390.475	10.72
390.683	10.94
390.89	11.01
391.098	10.91
391.305	10.89
391.512	10.85
391.72	10.85
391.927	10.82
392.135	10.7
392.342	10.7
392.549	10.74
392.756	10.65
392.964	10.64
393.171	10.75
393.378	10.73
393.586	10.78
393.793	10.69
394	10.59
394.207	10.69
394.414	10.81
394.622	10.88
394.829	10.77
395.036	10.76
395.243	10.78
395.45	10.5
395.657	10.63
395.864	10.75
396.072	10.91
396.279	11.07
396.486	11.16
396.693	10.96
396.9	10.94
397.107	10.89
397.314	11.06
397.521	10.93
397.728	11.06
397.935	11.03
398.142	10.94
398.349	10.9
398.556	10.74
398.763	10.53
398.97	10.57
399.177	10.56
399.383	10.64
399.59	10.75
399.797	11.02
400.004	11.03
400.211	11.06
400.418	11
400.625	11.07
400.831	11.24
401.038	11.3
401.245	11.4
401.452	11.3
401.658	11.32
401.865	11.1
402.072	10.91
402.279	10.94
402.485	10.91
402.692	11
402.899	10.8
403.105	10.8
403.312	10.81
403.519	10.76
403.725	10.73
403.932	10.7
404.138	10.67
404.345	10.73
404.552	10.67
404.758	10.59
404.965	10.61
405.171	10.65
405.378	10.72
405.584	10.76
405.791	10.84
405.997	11.03
406.204	11.08
406.41	11.05
406.617	10.87
406.823	10.83
407.029	10.92
407.236	10.94
407.442	10.96
407.649	10.77
407.855	10.78
408.061	10.68
408.268	10.61
408.474	10.64
408.68	10.82
408.887	10.86
409.093	10.98
409.299	11.02
409.505	10.81
409.712	10.76
409.918	10.83
410.124	10.86
410.33	10.88
410.537	10.91
410.743	10.79
410.949	10.81
411.155	10.74
411.361	10.71
411.567	10.73
411.773	10.96
411.98	11.02
412.186	11
412.392	10.99
412.598	11.23
412.804	11.27
413.01	11.36
413.216	11.4
413.422	11.53
413.628	11.55
413.834	11.39
414.04	11.34
414.246	11.36
414.452	11.36
414.658	11.37
414.864	11.09
415.07	11.03
415.275	11.04
415.481	11.02
415.687	10.99
415.893	11.02
416.099	11.04
416.305	10.94
416.511	10.9
416.716	10.95
416.922	10.99
417.128	11.01
417.334	11.02
417.539	11.01
417.745	10.99
417.951	11.09
418.157	11.06
418.362	11.1
418.568	11.07
418.774	11.1
418.979	11.04
419.185	11.01
419.391	11.04
419.596	11.05
419.802	11.04
420.008	10.99
420.213	11.01
420.419	10.99
420.624	10.94
420.83	11.01
421.035	11
421.241	11.07
421.446	11.11
421.652	11.13
421.857	11.13
422.063	11.18
422.268	11.18
422.474	11.14
422.679	11.21
422.885	11.27
423.09	11.29
423.295	11.31
423.501	11.22
423.706	11.18
423.911	11.29
424.117	11.25
424.322	11.24
424.527	11.34
424.733	11.44
424.938	11.42
425.143	11.4
425.349	11.35
425.554	11.41
425.759	11.49
425.964	11.47
426.169	11.4
426.375	11.38
426.58	11.37
426.785	11.31
426.99	11.27
427.195	11.32
427.4	11.31
427.605	11.37
427.811	11.29
428.016	11.29
428.221	11.35
428.426	11.38
428.631	11.56
428.836	11.56
429.041	11.54
429.246	11.5
429.451	11.49
429.656	11.61
429.861	11.67
430.066	11.7
430.271	11.75
430.476	11.82
430.681	11.72
430.886	11.63
431.09	11.56
431.295	11.64
431.5	11.65
431.705	11.73
431.91	11.67
432.115	11.66
432.32	11.69
432.524	11.7
432.729	11.66
432.934	11.77
433.139	11.78
433.343	11.93
433.548	11.88
433.753	11.91
433.958	11.88
434.162	11.99
434.367	11.93
434.572	11.95
434.776	12.07
434.981	12.11
435.186	12.05
435.39	12.07
435.595	12
435.799	12.01
436.004	12
436.209	11.91
436.413	11.77
436.618	11.85
436.822	11.92
437.027	11.8
437.231	11.86
437.436	11.89
437.64	11.94
437.845	11.92
438.049	11.95
438.253	12
438.458	12.03
438.662	12.12
438.867	12.12
439.071	12.08
439.275	12.23
439.48	12.22
439.684	12.21
439.888	12.25
440.093	12.25
440.297	12.24
440.501	12.21
440.706	12.2
440.91	12.2
441.114	12.19
441.318	12.2
441.523	12.08
441.727	12.12
441.931	12.18
442.135	12.1
442.339	12.1
442.543	12.13
442.748	12.11
442.952	12.19
443.156	12.1
443.36	12.07
443.564	12.12
443.768	12.06
443.972	11.99
444.176	12.07
444.38	12.06
444.584	12.08
444.788	12.09
444.992	12.15
445.196	12.12
445.4	12.13
445.604	12.2
445.808	12.15
446.012	12.17
446.216	12.11
446.42	11.98
446.624	11.99
446.828	11.95
447.032	11.97
447.235	11.87
447.439	11.88
447.643	11.94
447.847	11.93
448.051	11.91
448.254	11.94
448.458	11.93
448.662	12
448.866	12.09
449.069	12.12
449.273	12.08
449.477	12.07
449.681	12.06
449.884	12
450.088	11.98
450.292	11.98
450.495	11.99
450.699	12.08
450.902	12.09
451.106	12.04
451.31	12.02
451.513	12.13
451.717	12.15
451.92	12.14
452.124	12.17
452.327	12.14
452.531	12.16
452.734	12.19
452.938	12.14
453.141	12.09
453.345	12.12
453.548	12.14
453.752	12.07
453.955	12.07
454.158	12.08
454.362	12.11
454.565	12.17
454.769	12.25
454.972	12.24
455.175	12.35
455.379	12.34
455.582	12.36
455.785	12.27
455.988	12.33
456.192	12.48
456.395	12.47
456.598	12.46
456.801	12.45
457.005	12.42
457.208	12.46
457.411	12.38
457.614	12.46
457.817	12.42
458.021	12.52
458.224	12.41
458.427	12.32
458.63	12.26
458.833	12.21
459.036	12.18
459.239	12.09
459.442	12.03
459.645	11.98
459.848	12
460.051	12.01
460.254	11.98
460.457	12.03
460.66	12.02
460.863	12.08
461.066	12.09
461.269	12.05
461.472	12.14
461.675	12.09
461.878	12.09
462.081	12
462.284	12.05
462.486	12.07
462.689	12.13
462.892	12.15
463.095	12.12
463.298	12.15
463.5	12.2
463.703	12.13
463.906	12.13
464.109	12.21
464.311	12.24
464.514	12.15
464.717	12.12
464.92	12.07
465.122	12.19
465.325	12.26
465.528	12.23
465.73	12.29
465.933	12.22
466.135	12.28
466.338	12.23
466.541	12.31
466.743	12.3
466.946	12.3
467.148	12.3
467.351	12.31
467.553	12.23
467.756	12.3
467.958	12.23
468.161	12.31
468.363	12.34
468.566	12.38
468.768	12.23
468.971	12.28
469.173	12.33
469.375	12.4
469.578	12.29
469.78	12.33
469.983	12.4
470.185	12.42
470.387	12.36
470.59	12.37
470.792	12.39
470.994	12.54
471.196	12.47
471.399	12.43
471.601	12.33
471.803	12.35
472.005	12.34
472.208	12.32
472.41	12.34
472.612	12.41
472.814	12.34
473.016	12.36
473.218	12.24
473.421	12.34
473.623	12.41
473.825	12.4
474.027	12.38
474.229	12.41
474.431	12.36
474.633	12.37
474.835	12.39
475.037	12.44
475.239	12.51
475.441	12.48
475.643	12.42
475.845	12.47
476.047	12.44
476.249	12.42
476.451	12.36
476.653	12.41
476.855	12.4
477.057	12.3
477.258	12.33
477.46	12.29
477.662	12.36
477.864	12.35
478.066	12.34
478.268	12.38
478.469	12.4
478.671	12.41
478.873	12.37
479.075	12.37
479.276	12.48
479.478	12.41
479.68	12.32
479.882	12.35
480.083	12.31
480.285	12.26
480.487	12.26
480.688	12.33
480.89	12.39
481.091	12.37
481.293	12.36
481.495	12.28
481.696	12.33
481.898	12.4
482.099	12.37
482.301	12.41
482.502	12.39
482.704	12.38
482.905	12.33
483.107	12.31
483.308	12.31
483.51	12.3
483.711	12.3
483.913	12.28
484.114	12.27
484.315	12.27
484.517	12.24
484.718	12.23
484.92	12.2
485.121	12.2
485.322	12.15
485.524	12.14
485.725	12.13
485.926	12.13
486.127	12.14
486.329	12.1
486.53	12.08
486.731	12.06
486.932	12.1
487.134	12.08
487.335	12.12
487.536	12.19
487.737	12.17
487.938	12.16
488.139	12.17
488.341	12.16
488.542	12.21
488.743	12.25
488.944	12.31
489.145	12.29
489.346	12.37
489.547	12.38
489.748	12.36
489.949	12.38
490.15	12.46
490.351	12.43
490.552	12.42
490.753	12.4
490.954	12.39
491.155	12.38
491.356	12.38
491.557	12.35
491.758	12.36
491.959	12.31
492.159	12.32
492.36	12.25
492.561	12.26
492.762	12.28
492.963	12.27
493.164	12.3
493.364	12.33
493.565	12.41
493.766	12.43
493.967	12.43
494.167	12.51
494.368	12.55
494.569	12.59
494.769	12.65
494.97	12.7
495.171	12.76
495.371	12.74
495.572	12.67
495.773	12.63
495.973	12.66
496.174	12.62
496.375	12.56
496.575	12.61
496.776	12.62
496.976	12.58
497.177	12.57
497.377	12.51
497.578	12.49
497.778	12.46
497.979	12.41
498.179	12.45
498.38	12.47
498.58	12.48
498.78	12.43
498.981	12.42
499.181	12.43
499.382	12.46
499.582	12.49
499.782	12.6
499.983	12.61
500.183	12.62
500.383	12.52
500.584	12.55
500.784	12.6
500.984	12.63
501.184	12.67
501.385	12.7
501.585	12.73
501.785	12.81
501.985	12.79
502.185	12.87
502.386	12.96
502.586	13.05
502.786	13.07
502.986	13.09
503.186	13.06
503.386	13.15
503.586	13.16
503.786	13.2
503.987	13.21
504.187	13.16
504.387	13.25
504.587	13.2
504.787	13.28
504.987	13.37
505.187	13.41
505.387	13.51
505.587	13.53
505.786	13.58
505.986	13.61
506.186	13.64
506.386	13.68
506.586	13.65
506.786	13.73
506.986	13.68
507.186	13.71
507.386	13.79
507.585	13.78
507.785	13.8
507.985	13.84
508.185	13.78
508.384	13.79
508.584	13.84
508.784	13.82
508.984	13.86
509.183	13.92
509.383	13.85
509.583	13.83
509.782	13.92
509.982	13.95
510.182	13.97
510.381	14.08
510.581	14.05
510.781	14.1
510.98	14.21
511.18	14.19
511.379	14.17
511.579	14.22
511.778	14.31
511.978	14.29
512.177	14.35
512.377	14.46
512.576	14.5
512.776	14.62
512.975	14.72
513.175	14.73
513.374	14.8
513.573	14.88
513.773	14.95
513.972	14.97
514.172	14.97
514.371	14.94
514.57	14.85
514.77	14.84
514.969	14.76
515.168	14.68
515.367	14.66
515.567	14.66
515.766	14.69
515.965	14.7
516.164	14.72
516.364	14.83
516.563	14.93
516.762	15.07
516.961	15.12
517.16	15.24
517.359	15.37
517.559	15.49
517.758	15.56
517.957	15.61
518.156	15.69
518.355	15.73
518.554	15.79
518.753	15.77
518.952	15.81
519.151	15.82
519.35	15.86
519.549	15.84
519.748	15.87
519.947	15.96
520.146	16.04
520.345	16.09
520.544	16.08
520.743	16.11
520.942	16.22
521.141	16.19
521.339	16.27
521.538	16.23
521.737	16.35
521.936	16.36
522.135	16.37
522.333	16.46
522.532	16.49
522.731	16.7
522.93	16.75
523.129	16.76
523.327	16.89
523.526	17
523.725	17.05
523.923	17.04
524.122	17.18
524.321	17.25
524.519	17.23
524.718	17.27
524.917	17.31
525.115	17.34
525.314	17.42
525.512	17.46
525.711	17.48
525.909	17.56
526.108	17.7
526.306	17.7
526.505	17.75
526.703	17.83
526.902	17.94
527.1	17.99
527.299	18.05
527.497	18.11
527.696	18.16
527.894	18.25
528.092	18.34
528.291	18.4
528.489	18.46
528.688	18.51
528.886	18.56
529.084	18.59
529.283	18.64
529.481	18.7
529.679	18.73
529.877	18.78
530.076	18.81
530.274	18.83
530.472	18.83
530.67	18.95
530.869	19.04
531.067	19.09
531.265	19.14
531.463	19.2
531.661	19.31
531.859	19.41
532.057	19.51
532.255	19.65
532.454	19.75
532.652	19.81
532.85	19.84
533.048	19.9
533.246	19.97
533.444	20.04
533.642	20.11
533.84	20.15
534.038	20.23
534.236	20.21
534.434	20.19
534.632	20.25
534.83	20.35
535.027	20.36
535.225	20.41
535.423	20.47
535.621	20.55
535.819	20.65
536.017	20.72
536.215	20.73
536.412	20.87
536.61	20.96
536.808	21.01
537.006	21.08
537.203	21.16
537.401	21.23
537.599	21.3
537.797	21.43
537.994	21.49
538.192	21.56
538.39	21.72
538.587	21.85
538.785	22.01
538.983	22.14
539.18	22.25
539.378	22.37
539.575	22.52
539.773	22.67
539.97	22.66
540.168	22.72
540.366	22.82
540.563	22.87
540.761	22.92
540.958	23.02
541.155	23.05
541.353	23.08
541.55	23.16
541.748	23.2
541.945	23.22
542.143	23.3
542.34	23.33
542.537	23.34
542.735	23.39
542.932	23.49
543.129	23.48
543.327	23.57
543.524	23.73
543.721	23.88
543.919	24.05
544.116	24.19
544.313	24.41
544.51	24.67
544.708	25
544.905	25.21
545.102	25.4
545.299	25.57
545.496	25.74
545.693	25.82
545.891	25.85
546.088	25.78
546.285	25.8
546.482	25.73
546.679	25.68
546.876	25.58
547.073	25.52
547.27	25.36
547.467	25.31
547.664	25.2
547.861	25.12
548.058	25.03
548.255	25.11
548.452	25.11
548.649	25.07
548.846	25.01
549.043	24.92
549.24	24.97
549.437	25.07
549.633	25.11
549.83	25.11
550.027	25.12
550.224	25.2
550.421	25.16
550.618	25.08
550.814	25.04
551.011	25.04
551.208	25.06
551.405	25.01
551.601	24.93
551.798	24.87
551.995	24.92
552.191	24.92
552.388	24.84
552.585	24.73
552.781	24.81
552.978	24.84
553.175	24.82
553.371	24.84
553.568	24.84
553.764	24.8
553.961	24.68
554.157	24.64
554.354	24.63
554.55	24.63
554.747	24.75
554.943	24.86
555.14	24.85
555.336	24.75
555.533	24.84
555.729	24.78
555.926	24.67
556.122	24.81
556.318	24.8
556.515	24.77
556.711	24.79
556.907	24.76
557.104	24.59
557.3	24.6
557.496	24.71
557.693	24.59
557.889	24.69
558.085	24.89
558.281	24.97
558.478	24.97
558.674	25.13
558.87	25.19
559.066	25.26
559.262	25.31
559.459	25.35
559.655	25.41
559.851	25.5
560.047	25.42
560.243	25.53
560.439	25.57
560.635	25.52
560.831	25.42
561.027	25.51
561.223	25.46
561.419	25.42
561.615	25.46
561.811	25.4
562.007	25.4
562.203	25.42
562.399	25.25
562.595	25.23
562.791	25.38
562.987	25.23
563.183	25.08
563.379	25.13
563.575	25.16
563.771	25.14
563.966	25.16
564.162	25.16
564.358	25.35
564.554	25.39
564.75	25.38
564.945	25.45
565.141	25.62
565.337	25.69
565.533	25.71
565.728	25.83
565.924	25.92
566.12	25.92
566.315	25.86
566.511	25.71
566.707	25.68
566.902	25.75
567.098	25.75
567.293	25.74
567.489	25.72
567.684	25.67
567.88	25.64
568.076	25.72
568.271	25.83
568.467	25.84
568.662	25.93
568.858	26.03
569.053	25.98
569.248	25.99
569.444	26.07
569.639	26.09
569.835	26.11
570.03	26.08
570.225	25.98
570.421	25.96
570.616	26.1
570.812	26.02
571.007	26.01
571.202	26.04
571.397	25.96
571.593	26.04
571.788	26.1
571.983	26.2
572.178	26.23
572.374	26.25
572.569	26.19
572.764	26.12
572.959	26.17
573.154	26.29
573.35	26.35
573.545	26.4
573.74	26.36
573.935	26.38
574.13	26.33
574.325	26.36
574.52	26.38
574.715	26.51
574.91	26.5
575.105	26.63
575.3	26.57
575.495	26.47
575.69	26.46
575.885	26.47
576.08	26.53
576.275	26.63
576.47	26.67
576.665	26.81
576.86	26.83
577.055	26.9
577.25	27
577.444	27.03
577.639	27.26
577.834	27.36
578.029	27.35
578.224	27.33
578.418	27.44
578.613	27.54
578.808	27.46
579.003	27.55
579.197	27.68
579.392	27.53
579.587	27.6
579.781	27.67
579.976	27.64
580.171	27.79
580.365	27.71
580.56	27.65
580.755	27.61
580.949	27.69
581.144	27.51
581.338	27.48
581.533	27.62
581.727	27.66
581.922	27.65
582.116	27.69
582.311	27.65
582.505	27.79
582.7	27.75
582.894	27.8
583.089	27.79
583.283	27.84
583.478	27.88
583.672	27.85
583.866	27.83
584.061	27.78
584.255	27.74
584.449	27.8
584.644	27.89
584.838	27.97
585.032	28.1
585.226	28.1
585.421	28.23
585.615	28.27
585.809	28.32
586.003	28.43
586.198	28.45
586.392	28.54
586.586	28.58
586.78	28.49
586.974	28.61
587.168	28.43
587.363	28.32
587.557	28.31
587.751	28.27
587.945	28.25
588.139	28.28
588.333	28.17
588.527	28.16
588.721	28.05
588.915	28.17
589.109	28.04
589.303	28.16
589.497	28.21
589.691	28.16
589.885	28.15
590.079	28.11
590.273	28.05
590.466	28.18
590.66	28.24
590.854	28.32
591.048	28.32
591.242	28.37
591.436	28.37
591.629	28.58
591.823	28.71
592.017	28.8
592.211	28.99
592.404	28.9
592.598	28.84
592.792	28.9
592.986	28.83
593.179	28.72
593.373	28.66
593.567	28.68
593.76	28.44
593.954	28.42
594.147	28.33
594.341	28.19
594.535	28.14
594.728	28.17
594.922	28.22
595.115	28.3
595.309	28.32
595.502	28.38
595.696	28.31
595.889	28.28
596.083	28.27
596.276	28.24
596.47	28.25
596.663	28.35
596.856	28.3
597.05	28.29
597.243	28.25
597.437	28.3
597.63	28.24
597.823	28.26
598.017	28.43
598.21	28.53
598.403	28.58
598.596	28.67
598.79	28.7
598.983	28.85
599.176	28.78
599.369	28.78
599.563	28.76
599.756	28.85
599.949	28.87
600.142	28.82
600.335	28.65
600.528	28.66
600.722	28.53
600.915	28.46
601.108	28.14
601.301	28.15
601.494	28.31
601.687	28.36
601.88	28.24
602.073	28.17
602.266	28.09
602.459	28.13
602.652	28.1
602.845	28.17
603.038	28.12
603.231	28.21
603.424	28.35
603.617	28.28
603.809	28.24
604.002	28.31
604.195	28.35
604.388	28.33
604.581	28.39
604.774	28.41
604.966	28.43
605.159	28.47
605.352	28.54
605.545	28.42
605.737	28.43
605.93	28.49
606.123	28.57
606.316	28.57
606.508	28.56
606.701	28.57
606.894	28.79
607.086	28.95
607.279	29.15
607.471	29.4
607.664	29.56
607.857	29.7
608.049	30.12
608.242	30.5
608.434	31.15
608.627	31.97
608.819	32.78
609.012	33.52
609.204	34.5
609.397	35.63
609.589	36.69
609.782	37.89
609.974	39.19
610.166	40.16
610.359	41.36
610.551	42.4
610.743	43.27
610.936	43.9
611.128	44.48
611.32	44.76
611.513	44.85
611.705	44.93
611.897	44.81
612.09	44.41
612.282	44.02
612.474	43.24
612.666	42.5
612.858	41.8
613.051	40.95
613.243	40.4
613.435	39.69
613.627	39.13
613.819	38.47
614.011	37.93
614.203	37.26
614.395	36.73
614.588	36.38
614.78	36
614.972	35.62
615.164	35.48
615.356	34.95
615.548	34.75
615.74	34.35
615.932	33.8
616.124	33.23
616.315	32.94
616.507	32.73
616.699	32.46
616.891	32.15
617.083	31.93
617.275	31.56
617.467	31.47
617.659	31.13
617.85	30.76
618.042	30.69
618.234	30.71
618.426	30.67
618.618	30.59
618.809	30.53
619.001	30.58
619.193	30.51
619.384	30.49
619.576	30.44
619.768	30.63
619.959	30.86
620.151	31.02
620.343	30.99
620.534	31.04
620.726	31.05
620.917	30.87
621.109	30.79
621.301	30.81
621.492	30.86
621.684	30.73
621.875	30.75
622.067	30.6
622.258	30.55
622.45	30.66
622.641	30.55
622.832	30.39
623.024	30.88
623.215	30.99
623.407	30.95
623.598	30.99
623.789	30.99
623.981	30.82
624.172	30.89
624.363	30.95
624.555	30.79
624.746	30.95
624.937	31.12
625.129	30.8
625.32	30.64
625.511	30.62
625.702	30.67
625.893	30.62
626.085	30.53
626.276	30.67
626.467	30.66
626.658	30.85
626.849	30.77
627.04	30.74
627.231	30.7
627.422	30.78
627.614	30.96
627.805	31.15
627.996	31.18
628.187	31.33
628.378	31.41
628.569	31.58
628.76	31.6
628.951	31.81
629.142	31.96
629.332	32.25
629.523	32.35
629.714	32.17
629.905	32.18
630.096	32.32
630.287	32.5
630.478	32.3
630.669	32.11
630.859	32.1
631.05	31.97
631.241	31.95
631.432	31.73
631.623	31.49
631.813	31.64
632.004	31.38
632.195	31.29
632.385	30.93
632.576	30.92
632.767	30.81
632.957	30.65
633.148	30.48
633.339	30.21
633.529	30.02
633.72	29.93
633.91	29.68
634.101	29.55
634.292	29.44
634.482	29.27
634.673	29.2
634.863	29.17
635.054	29.04
635.244	29.08
635.435	29.19
635.625	29.24
635.815	29.25
636.006	29.24
636.196	29.34
636.387	29.45
636.577	29.67
636.767	29.65
636.958	29.73
637.148	29.75
637.338	29.74
637.529	29.63
637.719	29.61
637.909	29.8
638.099	29.88
638.29	29.87
638.48	29.84
638.67	29.88
638.86	29.86
639.05	29.83
639.241	29.77
639.431	29.8
639.621	29.97
639.811	29.98
640.001	30.19
640.191	30.21
640.381	30.2
640.571	30.17
640.761	30.21
640.951	30.24
641.141	30.28
641.331	30.33
641.521	30.19
641.711	29.98
641.901	30.08
642.091	29.89
642.281	29.96
642.471	29.89
642.661	29.84
642.851	29.7
643.041	29.58
643.231	29.65
643.42	29.93
643.61	30.18
643.8	30.36
643.99	30.21
644.18	29.97
644.369	30.04
644.559	30.28
644.749	30.42
644.939	30.56
645.128	30.71
645.318	30.68
645.508	30.44
645.697	30.24
645.887	30.19
646.076	30.45
646.266	30.49
646.456	30.14
646.645	30.01
646.835	29.84
647.024	29.71
647.214	29.84
647.403	29.63
647.593	29.91
647.782	29.77
647.972	29.89
648.161	29.81
648.351	30.03
648.54	30.29
648.73	30.33
648.919	30.56
649.108	30.78
649.298	30.74
649.487	31
649.677	31.04
649.866	31.29
650.055	31.31
650.244	31.4
650.434	31.35
650.623	31.32
650.812	31.45
651.002	31.27
651.191	31.17
651.38	30.93
651.569	30.84
651.758	30.65
651.947	30.68
652.137	30.68
652.326	30.45
652.515	30.53
652.704	30.51
652.893	30.36
653.082	30.55
653.271	30.48
653.46	30.65
653.649	30.77
653.838	30.82
654.027	30.58
654.216	30.49
654.405	30.77
654.594	30.48
654.783	30.55
654.972	30.43
655.161	30.58
655.35	30.5
655.539	30.8
655.728	30.68
655.916	30.53
656.105	30.68
656.294	30.63
656.483	30.47
656.672	30.47
656.86	30.19
657.049	30.41
657.238	30.1
657.427	30.15
657.615	29.9
657.804	29.77
657.993	29.98
658.181	30.04
658.37	30.13
658.559	30.17
658.747	30.32
658.936	30.32
659.125	29.99
659.313	29.99
659.502	30.05
659.69	30.09
659.879	30.27
660.067	30.32
660.256	30.34
660.444	30.15
660.633	30.01
660.821	29.91
661.01	30.26
661.198	30.48
661.387	30.74
661.575	30.82
661.763	30.83
661.952	30.66
662.14	30.67
662.328	30.74
662.517	30.91
662.705	31.04
662.893	31.26
663.082	31.38
663.27	31.49
663.458	31.54
663.646	31.57
663.834	31.57
664.023	31.74
664.211	31.59
664.399	31.46
664.587	31.39
664.775	31.4
664.963	31.26
665.152	31.01
665.34	31.12
665.528	30.99
665.716	30.88
665.904	30.97
666.092	31.14
666.28	31.13
666.468	31.1
666.656	31.18
666.844	31.08
667.032	31.28
667.22	31.26
667.408	31.07
667.596	31.16
667.784	31.23
667.971	31.28
668.159	30.98
668.347	31.02
668.535	31.01
668.723	31.11
668.911	31.15
669.098	30.9
669.286	30.68
669.474	30.66
669.662	30.7
669.849	30.81
670.037	30.65
670.225	30.75
670.413	30.7
670.6	30.9
670.788	30.51
670.976	30.77
671.163	30.84
671.351	31.04
671.538	31.16
671.726	31.05
671.913	30.85
672.101	30.88
672.289	30.93
672.476	30.86
672.664	30.78
672.851	31.04
673.039	30.89
673.226	30.85
673.413	31.08
673.601	30.8
673.788	30.92
673.976	31.04
674.163	31.12
674.35	31.04
674.538	31.11
674.725	31.05
674.912	31.02
675.1	31.14
675.287	31.07
675.474	30.97
675.662	31.14
675.849	30.82
676.036	30.61
676.223	30.67
676.411	30.86
676.598	30.95
676.785	30.93
676.972	31.14
677.159	30.96
677.346	31.16
677.533	30.94
677.721	31.18
677.908	31.51
678.095	31.51
678.282	31.48
678.469	31.43
678.656	31.29
678.843	31.21
679.03	31.17
679.217	31.24
679.404	31.27
679.591	31.37
679.778	31.3
679.964	31.14
680.151	31.03
680.338	31.07
680.525	30.86
680.712	30.87
680.899	31.18
681.086	31.15
681.272	31.15
681.459	31.16
681.646	31.27
681.833	31.32
682.02	31.21
682.206	31.19
682.393	31.14
682.58	31.31
682.766	31.48
682.953	31.25
683.14	31.39
683.326	31.34
683.513	31.41
683.7	31.37
683.886	31.27
684.073	31.25
684.259	31.63
684.446	31.64
684.632	31.64
684.819	31.57
685.005	31.69
685.192	31.87
685.378	31.97
685.565	31.98
685.751	32.16
685.938	32.28
686.124	32.48
686.31	32.17
686.497	32.41
686.683	32.38
686.87	32.19
687.056	32.36
687.242	32.15
687.429	32.2
687.615	32.28
687.801	32.24
687.987	32
688.174	31.83
688.36	32.4
688.546	32.05
688.732	32.09
688.918	32.43
689.105	32.37
689.291	32.53
689.477	32.31
689.663	32.33
689.849	32.17
690.035	32.08
690.221	31.97
690.407	31.64
690.593	31.54
690.779	31.54
690.965	31.37
691.151	30.9
691.337	30.96
691.523	30.91
691.709	30.76
691.895	30.87
692.081	31.05
692.267	31.22
692.453	31.26
692.639	31.44
692.825	31.45
693.011	31.66
693.196	31.85
693.382	31.4
693.568	31.87
693.754	31.82
693.94	31.63
694.125	31.5
694.311	31.67
694.497	31.64
694.682	31.71
694.868	31.34
695.054	31.24
695.239	31.44
695.425	31.54
695.611	31.09
695.796	31.17
695.982	31.51
696.168	31.56
696.353	31.5
696.539	31.38
696.724	31.47
696.91	31.82
697.095	31.76
697.281	31.74
697.466	31.57
697.652	31.72
697.837	31.6
698.023	31.42
698.208	31.51
698.393	31.64
698.579	31.81
698.764	31.63
698.949	31.59
699.135	31.54
699.32	31.55
699.505	31.75
699.691	31.97
699.876	32.13
700.061	32.32
700.246	32.33
700.432	32.19
700.617	32.3
700.802	32.36
700.987	32.35
701.172	32.63
701.358	32.64
701.543	32.62
701.728	32.46
701.913	32.51
702.098	32.24
702.283	32.51
702.468	32.69
702.653	32.38
702.838	32.75
703.023	33.03
703.208	32.98
703.393	33.23
703.578	33.31
703.763	33.27
703.948	33.13
704.133	33.7
704.318	33.82
704.503	33.89
704.688	34.16
704.873	34.53
705.057	34.6
705.242	34.98
705.427	34.85
705.612	35.37
705.797	35.29
705.981	35.79
706.166	35.97
706.351	35.99
706.536	36.24
706.72	36.48
706.905	36.24
707.09	36.33
707.274	36.15
707.459	36.37
707.644	36.07
707.828	36.48
708.013	36.75
708.197	36.17
708.382	36.23
708.567	36.12
708.751	36.26
708.936	36.06
709.12	36.22
709.305	36.15
709.489	36.17
709.673	36.04
709.858	36.02
710.042	35.4
710.227	35.62
710.411	35.45
710.596	35.16
710.78	35.07
710.964	35.29
711.149	34.83
711.333	34.85
711.517	34.94
711.702	34.86
711.886	34.98
712.07	35.2
712.254	34.94
712.438	34.57
712.623	34.83
712.807	34.41
712.991	33.93
713.175	33.98
713.359	33.73
713.544	33.1
713.728	33.09
713.912	32.64
714.096	32.6
714.28	32.51
714.464	32.64
714.648	32.6
714.832	32.67
715.016	32.85
715.2	33.02
715.384	32.69
715.568	33
715.752	32.97
715.936	32.86
716.12	32.57
716.304	32.77
716.488	32.73
716.671	32.06
716.855	32.04
717.039	32.32
717.223	31.84
717.407	32.21
717.59	32.14
717.774	32.03
717.958	32.29
718.142	31.92
718.325	31.76
718.509	31.56
718.693	31.75
718.877	31.15
719.06	30.71
719.244	30.97
719.428	30.95
719.611	30.74
719.795	30.78
719.978	30.67
720.162	31.03
720.345	30.94
720.529	31.12
720.713	31.34
720.896	31.88
721.08	31.64
721.263	31.5
721.446	31.54
721.63	31.55
721.813	31.32
721.997	31.33
722.18	31.19
722.364	31.06
722.547	30.76
722.73	30.77
722.914	30.65
723.097	30.73
723.28	30.58
723.464	30.22
723.647	30.17
723.83	30.72
724.013	30.56
724.197	30.63
724.38	30.79
724.563	31.06
724.746	31.25
724.929	31.66
725.112	31.41
725.296	31.53
725.479	31.74
725.662	31.77
725.845	31.45
726.028	31.37
726.211	31.61
726.394	32.2
726.577	32.44
726.76	32.34
726.943	32.04
727.126	32.24
727.309	32.31
727.492	32.4
727.675	32.58
727.858	32.35
728.041	32.81
728.224	32.77
728.407	31.86
728.589	31.53
728.772	31.48
728.955	31.54
729.138	31.53
729.321	31.59
729.503	31.74
729.686	31.67
729.869	31.91
730.052	31.46
730.234	31.44
730.417	31.56
730.6	31.68
730.782	31.79
730.965	31.93
731.148	32.23
731.33	32.42
731.513	32.14
731.695	31.84
731.878	31.45
732.061	31.48
732.243	31.53
732.426	31.72
732.608	31.84
732.791	31.58
732.973	31.64
733.156	31.7
733.338	31.62
733.52	31.71
733.703	32.13
733.885	32.8
734.068	32.97
734.25	33.2
734.432	33.49
734.615	33.66
734.797	33.95
734.979	33.91
735.162	33.57
735.344	33.87
735.526	33.98
735.708	33.67
735.891	33.45
736.073	33.53
736.255	33.05
736.437	32.87
736.619	32.4
736.802	32.37
736.984	31.93
737.166	31.83
737.348	31.43
737.53	31.56
737.712	31.71
737.894	31.19
738.076	31.03
738.258	31.21
738.44	31.34
738.622	31.5
738.804	31.56
738.986	31.59
739.168	32.24
739.35	32.48
739.532	32.36
739.714	32.31
739.896	33.16
740.078	33.01
740.259	32.89
740.441	32.62
740.623	32.96
740.805	32.82
740.987	33.23
741.168	33.14
741.35	32.9
741.532	33.1
741.714	33.11
741.895	32.62
742.077	33.28
742.259	33.31
742.44	33.41
742.622	32.95
742.804	33.37
742.985	33.35
743.167	32.84
743.348	32.31
743.53	31.57
743.711	31.93
743.893	32.37
744.075	31.8
744.256	31.66
744.438	31.81
744.619	32.17
744.8	31.14
744.982	31.13
745.163	31.61
745.345	32.3
745.526	33.41
745.707	33.48
745.889	33.05
746.07	32.96
746.252	33.55
746.433	33.38
746.614	33.23
746.795	34.23
746.977	34.14
747.158	33.84
747.339	33.89
747.52	33.15
747.702	32.61
747.883	32.79
748.064	33.02
748.245	32.2
748.426	32.24
748.607	32.14
748.788	31.74
748.97	31.83
749.151	31.96
749.332	31.72
749.513	31.58
749.694	31.91
749.875	31.84
750.056	32.16
750.237	32.99
750.418	32.84
750.599	32.39
750.78	32.72
750.96	32.49
751.141	32.6
751.322	33.01
751.503	33.48
751.684	33.58
751.865	33.5
752.046	33.42
752.226	33.09
752.407	33.57
752.588	34.09
752.769	34.46
752.949	34.49
753.13	33.66
753.311	33.39
753.492	33.37
753.672	32.85
753.853	33.02
754.034	33.02
754.214	32.78
754.395	32.36
754.575	32.78
754.756	31.92
754.937	31.9
755.117	33.01
755.298	32.9
755.478	33.04
755.659	33.52
755.839	33.7
756.02	33.52
756.2	34.04
756.381	34.06
756.561	33.45
756.741	33.88
756.922	34.32
757.102	33.99
757.283	33.39
757.463	33.31
757.643	32.96
757.823	32.82
758.004	32.4
758.184	32
758.364	32.03
758.545	32.01
758.725	31.63
758.905	31.67
759.085	31.8
759.265	32.47
759.446	32.05
759.626	32.01
759.806	31.56
759.986	31.72
760.166	31.75
760.346	31.17
760.526	31.13
760.706	30.99
760.886	30.79
761.066	30.1
761.246	29.92
761.426	30.07
761.606	29.94
761.786	30.36
761.966	30.2
762.146	30.25
762.326	30.33
762.506	30.65
762.686	30.98
762.866	30.65
763.046	31.1
763.225	31.44
763.405	31.67
763.585	31.81
763.765	31.5
763.945	31.9
764.124	31.72
764.304	32.16
764.484	32.12
764.664	32.02
764.843	32.05
765.023	32.1
765.203	31.69
765.382	31.45
765.562	31.32
765.741	31.83
765.921	31.19
766.101	31.07
766.28	30.81
766.46	31.11
766.639	31.07
766.819	31.22
766.998	31.5
767.178	32.12
767.357	31.97
767.537	32.38
767.716	31.42
767.896	31.76
768.075	32.52
768.254	32.31
768.434	31.7
768.613	31.97
768.792	31.61
768.972	31.06
769.151	30.04
769.33	29.74
769.51	30.05
769.689	30.49
769.868	30.38
770.047	30.12
770.226	30.03
770.406	30.32
770.585	30.41
770.764	30.89
770.943	30.34
771.122	30.28
771.301	30.35
771.48	29.84
771.66	30.36
771.839	30.35
772.018	30.75
772.197	30.97
772.376	31.17
772.555	30.99
772.734	31.43
772.913	31.54
773.092	32.27
773.271	33.26
773.449	33
773.628	32.48
773.807	32.64
773.986	32.1
774.165	32.19
774.344	32.75
774.523	31.83
774.701	31.16
774.88	31.97
775.059	32.22
775.238	31.99
775.417	32.05
775.595	32.3
775.774	32.04
775.953	32.27
776.131	33.1
776.31	32.07
776.489	32.25
776.667	32.43
776.846	31.94
777.025	31.46
777.203	30.66
777.382	30.81
777.56	30.98
777.739	30.4
777.917	29.69
778.096	29.39
778.274	29.41
778.453	30.7
778.631	30.9
778.81	30.64
778.988	30.9
779.166	32.01
779.345	32.42
779.523	32.87
779.702	33.86
779.88	34.26
780.058	33.66
780.237	33.59
780.415	32.73
780.593	32.95
780.771	32.66
780.95	32.56
781.128	32.03
781.306	32.66
781.484	31.56
781.662	31.02
781.841	30.97
782.019	30.68
782.197	30.69
782.375	30.75
782.553	29.43
782.731	30.11
782.909	29.69
783.087	28.95
783.265	28.11
783.443	29.14
783.621	29.34
783.799	29.27
783.977	29.72
784.155	29.69
784.333	30.78
784.511	31.35
784.689	31.17
784.867	31.35
785.045	32.17
785.223	31.35
785.4	31.07
785.578	31.72
785.756	32.13
785.934	32.29
786.112	33.11
786.289	31.79
786.467	32.45
786.645	32.65
786.823	33.2
787	32.98
787.178	33.59
787.356	32.58
787.533	32.52
787.711	32.34
787.889	32.97
788.066	32.41
788.244	32.92
788.421	32.95
788.599	33.21
788.776	32.83
788.954	32.44
789.131	32.63
789.309	33.39
789.486	33.42
789.664	33.3
789.841	32.98
790.019	32.08
790.196	31.12
790.373	31.1
790.551	31.23
790.728	31.19
790.906	31.05
791.083	30.12
791.26	29.98
791.437	29.81
791.615	29.94
791.792	29.67
791.969	30.6
792.146	30.97
792.324	29.2
792.501	28.21
792.678	28.23
792.855	29.16
793.032	29.5
793.209	29.48
793.387	29.27
793.564	28.49
793.741	28.29
793.918	27.37
794.095	27.16
794.272	28.98
794.449	28.77
794.626	27.96
794.803	28.23
794.98	28.83
795.157	28.14
795.334	29.29
795.511	30.04
795.688	29.9
795.864	30.41
796.041	31.29
796.218	29.98
796.395	30.58
796.572	30.72
796.749	30.52
796.925	29.63
797.102	30.71
797.279	29.91
797.456	29.27
797.632	29.17
797.809	28.73
797.986	29.54
798.162	30.59
798.339	30.76
798.516	32.06
798.692	32.07
798.869	33.15
799.046	32.84
799.222	31.59
799.399	32.48
799.575	32.64
799.752	33.35
799.928	31.55
800.105	31.79
800.281	31.63
800.458	30.71
800.634	30.06
800.811	29.87
800.987	29.94
801.163	31.41
801.34	30.57
801.516	30.23
801.692	31.08
801.869	30.7
802.045	29.94
802.221	30.52
802.398	31.14
802.574	31.02
802.75	31.08
802.926	30.66
803.103	30
803.279	29.13
803.455	29.43
803.631	28
803.807	28.99
803.983	28.99
804.16	29.55
804.336	27.49
804.512	29.43
804.688	27.84
804.864	27.93
805.04	27.23
805.216	27.32
805.392	27.67
805.568	27.38
805.744	27.01
805.92	26.69
806.096	24.57
806.272	25.13
806.448	23.09
806.623	24.92
806.799	25.35
806.975	26.2
807.151	27.63
807.327	28.5
807.503	28.58
807.678	29.24
807.854	28.85
808.03	29.96
808.206	30.08
808.381	31.04
808.557	31
808.733	31.28
808.908	31.7
809.084	31.49
809.26	30.49
809.435	32
809.611	30.2
809.787	30.11
809.962	29.81
810.138	30.49
810.313	29.51
810.489	28.86
810.664	28.14
810.84	27.06
811.015	28.45
811.191	29.89
811.366	29.39
811.542	30.46
811.717	30.43
811.892	30.72
812.068	30.78
812.243	30.31
812.419	30.93
812.594	31.27
812.769	32.23
812.944	29.24
813.12	27.44
813.295	26.8
813.47	26.2
813.645	27.68
813.821	27.84
813.996	28.43
814.171	29.2
814.346	29.06
814.521	28.88
814.697	27.59
814.872	29.04
815.047	28.49
815.222	29.27
815.397	29.22
815.572	27.83
815.747	25.92
815.922	25
816.097	24.83
816.272	25.11
816.447	25.29
816.622	25.8
816.797	25.27
816.972	25.92
817.147	24.9
817.322	24.76
817.496	25.24
817.671	25.44
817.846	25.05
818.021	24.73
818.196	23.39
818.371	23.72
818.545	23.17
818.72	24.78
818.895	25.26
819.069	25.34
819.244	26.44
819.419	26.22
819.594	27.24
819.768	28.09
819.943	28.42
820.117	29.13
820.292	28.64
820.467	28.3
820.641	27.69
820.816	27.73
820.99	28.15
821.165	28.34
821.339	28.62
821.514	28.89
821.688	28.71
821.863	28.46
822.037	28.4
822.212	28.4
822.386	28.66
822.56	28.64
822.735	28.6
822.909	28.47
823.084	28.38
823.258	28.09
823.432	27.95
823.606	27.79
823.781	27.87
823.955	27.95
824.129	27.95
824.303	27.85
824.478	28.08
824.652	27.66
824.826	27.4
825	27.55
825.174	27.96
825.348	27.72
825.523	27.21
825.697	27.08
825.871	26.89
826.045	26.64
826.219	26.53
826.393	26.37
826.567	26.83
826.741	27.22
826.915	26.77
827.089	26.94
827.263	26.78
827.437	27.16
827.611	27.47
827.784	27.5
827.958	27.8
828.132	27.81
828.306	27.66
828.48	28.11
828.654	27.79
828.827	27.79
829.001	27.6
829.175	27.72
829.349	27.85
829.522	27.72
829.696	27.29
829.87	26.91
830.044	26.87
830.217	27.06
830.391	26.17
830.565	25.42
830.738	26.51
830.912	26.97
831.085	25.8
831.259	25.94
831.432	25.99
831.606	25.85
831.779	25.59
831.953	26.12
832.126	26.3
832.3	25.73
832.473	26.93
832.647	26.09
832.82	25.33
832.994	27.01
833.167	27.7
833.34	27.66
833.514	27.99
833.687	28.34
833.86	27.97
834.034	27.98
834.207	28.31
834.38	27.89
834.553	27.34
834.727	27.99
834.9	27.12
835.073	26.47
835.246	26.6
835.419	26.27
835.593	26.15
835.766	26.18
835.939	25.76
836.112	25.48
836.285	25.16
836.458	26.53
836.631	25.13
836.804	24.64
836.977	24.81
837.15	23.88
837.323	23.72
837.496	23.06
837.669	21.68
837.842	20.28
838.015	19.45
838.188	19.62
838.361	18.03
838.533	19.31
838.706	21.76
838.879	21.7
839.052	24.02
839.225	24.9
839.398	26.21
839.57	27.9
839.743	29.73
839.916	29.82
840.088	32.7
840.261	31.27
840.434	31.95
840.607	31.29
840.779	30.63
840.952	29.05
841.124	27.89
841.297	25.8
841.47	25.63
841.642	24.16
841.815	25.23
841.987	22.99
842.16	23.69
842.332	24.37
842.505	22.87
842.677	23.68
842.85	23.41
843.022	23.49
843.194	24.27
843.367	23.2
843.539	24.52
843.712	23.11
843.884	21.33
844.056	20.82
844.229	17.71
844.401	21.23
844.573	21.06
844.745	21.15
844.918	20.89
845.09	22.9
845.262	24.61
845.434	23.85
845.606	20.64
845.779	24.8
845.951	26.56
846.123	28.09
846.295	24.27
846.467	26.28
846.639	26.72
846.811	27.87
846.983	26.68
847.155	26.02
847.327	25.27
847.499	31.09
847.671	28.56
847.843	27.95
848.015	27.54
848.187	29.06
848.359	28.26
848.531	26.36
848.703	21.73
848.875	20.56
849.047	18.06
849.218	18.32
849.39	15.71
849.562	17.49
849.734	19.23
849.905	16.62
850.077	17
850.249	17.83
850.421	19.32
850.592	23.91
850.764	23.97
850.936	27
851.107	28.13
851.279	29.65
851.451	27.24
851.622	23.64
851.794	24.48
851.965	26.73
852.137	25.98
852.308	21.7
852.48	22.15
852.651	24.02
852.823	23.7
852.994	21.82
853.166	23.8
853.337	23.24
853.509	26.85
853.68	30.05
853.851	28.29
854.023	27.63
854.194	35.51
854.365	32.16
854.537	30.09
854.708	27.6
854.879	26.75
855.05	24.4
855.222	25.48
855.393	26.64
855.564	20.99
855.735	17.27
855.906	19.01
856.078	13.27
856.249	10.85
856.42	14.29
856.591	18.04
856.762	20.18
856.933	20.23
857.104	19.64
857.275	16.14
857.446	16.93
857.617	17.43
857.788	14.01
857.959	13.95
858.13	15.59
858.301	12.07
858.472	10.62
858.643	10.92
858.814	8.41
858.985	4.75
859.155	4.03
859.326	8.42
859.497	13.01
859.668	13.12
859.839	14.5
860.009	19.93
860.18	21.61
860.351	21.62
860.522	17.93
860.692	19.45
860.863	21.42
861.034	24.47
861.204	25.19
861.375	24.19
861.546	24.42
861.716	23.91
861.887	22.46
862.057	24.95
862.228	25.54
862.398	24.62
862.569	25.53
862.739	27.2
862.91	26.47
863.08	24.27
863.251	22.86
863.421	23.64
863.592	22.17
863.762	23.7
863.932	20.49
864.103	15.69
864.273	18.93
864.443	20.13
864.614	18.91
864.784	14.52
864.954	11.12
865.125	12.07
865.295	13.85
865.465	12.74
865.635	9.92
865.805	7.91
865.976	13.79
866.146	11.99
866.316	9.44
866.486	9.47
866.656	11.89
866.826	16.21
866.996	14.05
867.166	14.28
867.336	10.78
867.506	8.36
867.676	8.93
867.846	7.93
868.016	10.69
868.186	13.33
868.356	14.54
868.526	14.65
868.696	15.5
868.866	15.49
869.036	11.72
869.206	15.97
869.376	20.88
869.545	25.87
869.715	24.67
869.885	26.29
870.055	29.37
870.224	28.55
870.394	26.37
870.564	24
870.734	25.1
870.903	27.64
871.073	28.67
871.243	19.85
871.412	16.02
871.582	15.9
871.751	12.23
871.921	2.36
872.091	6.05
872.26	5.42
872.43	6.62
872.599	5.32
872.769	6.84
872.938	3.95
873.108	8.08
873.277	9.59
873.446	7.77
873.616	7.74
873.785	16.6
873.955	13.79
874.124	16.36
874.293	11.53
874.463	15.09
874.632	14.57
874.801	18
874.971	18.43
875.14	17.08
875.309	20.58
875.478	22.97
875.647	17.24
875.817	16.99
875.986	13.03
876.155	17.11
876.324	16.07
876.493	16.07
876.662	16.82
876.831	19.17
877	20.35
877.17	17.94
877.339	16.93
877.508	17.33
877.677	17.91
877.846	24
878.015	26.6
878.184	24.62
878.352	23.41
878.521	20.81
878.69	20.74
878.859	20.56
879.028	22.57
879.197	21.78
879.366	22.41
879.534	21.11
879.703	19.85
879.872	21.24
880.041	22.21
880.21	21.13
880.378	21.36
880.547	20.81
880.716	21.52
880.884	21.27
881.053	21.2
881.222	21.32
881.39	21.83
881.559	22.15
881.727	22.59
881.896	22.8
882.065	23.54
882.233	23.28
882.402	23.73
882.57	23.47
882.739	23.33
882.907	23.29
883.076	22.9
883.244	22.82
883.412	22.34
883.581	21.77
883.749	21.31
883.918	21.09
884.086	20.73
884.254	20.73
884.423	20.27
884.591	20.32
884.759	20.46
884.927	20.62
885.096	19.89
885.264	20.56
885.432	20.77
885.6	20.59
885.769	19.4
885.937	20.48
886.105	18.78
886.273	20.17
886.441	18.64
886.609	19.5
886.777	21.95
886.945	22.36
887.113	20.45
887.281	17.78
887.449	18.64
887.617	19.74
887.785	17.88
887.953	20.53
888.121	16.63
888.289	16.59
888.457	13.37
888.625	8.43
888.793	8.85
888.961	6.97
889.129	9.86
889.296	8.93
889.464	6.9
889.632	9.06
889.8	2.4
889.967	4.11
890.135	6.49
