Data from 2938750__Reflection_02.txt Node
Date: Sat Mar 14 14:42:42 EDT 2015
User: robert
Spectrometer: USB4E03002
Autoset integration time: false
Trigger mode: 4
Integration Time (sec): 1.000000E-1
Scans to average: 10
Electric dark correction enabled: false
Nonlinearity correction enabled: false
Boxcar width: 5
Stray light correction enabled: false
XAxis mode: Wavelengths
Stop averaging: false
Number of Pixels in Spectrum: 3648
>>>>>Begin Spectral Data<<<<<
177.575	-81.68
177.794	-17.82
178.014	-33.88
178.233	-73.76
178.452	-101.31
178.672	-4325
178.891	134.29
179.11	73.33
179.33	52.82
179.549	79.3
179.768	95.8
179.987	98.9
180.207	152.78
180.426	121.76
180.645	105.99
180.864	130.34
181.084	218.07
181.303	266.67
181.522	259.19
181.741	255.22
181.96	173.02
182.179	132.65
182.398	67.16
182.618	49.3
182.837	58.82
183.056	75.7
183.275	53.06
183.494	64.36
183.713	8.99
183.932	-36.7
184.151	-96.3
184.37	8.86
184.589	61.77
184.808	65.36
185.027	28.05
185.246	29.96
185.465	43.73
185.684	42.33
185.903	7.38
186.122	18.12
186.341	4.58
186.56	11.26
186.779	54.28
186.998	4.46
187.216	763.64
187.435	412.24
187.654	1180
187.873	747.62
188.092	625.93
188.311	233.13
188.53	916.28
188.748	-1218.75
188.967	-1908.7
189.186	-330.63
189.405	1180.56
189.623	193.13
189.842	119.02
190.061	151.54
190.28	154.55
190.498	179.6
190.717	404
190.936	164.86
191.154	228.85
191.373	176.77
191.592	134.19
191.81	144.94
192.029	140.69
192.248	150.84
192.466	135.26
192.685	118.69
192.904	161.22
193.122	130.53
193.341	-2075
193.559	-76.14
193.778	13.38
193.996	31.97
194.215	-11.06
194.433	2.05
194.652	14.84
194.87	3.36
195.089	-30.73
195.307	-22.47
195.526	15.79
195.744	-22.73
195.963	181.18
196.181	81.55
196.399	107.14
196.618	79.66
196.836	57.72
197.055	61.67
197.273	52.64
197.491	21.47
197.71	50.07
197.928	79.68
198.146	74.92
198.365	58.24
198.583	47.91
198.801	21.74
199.019	42.59
199.238	81.49
199.456	87.01
199.674	82.8
199.892	118.58
200.111	96.6
200.329	94.6
200.547	79.95
200.765	75.86
200.983	95.96
201.202	119.57
201.42	107.39
201.638	76.99
201.856	96.09
202.074	101.51
202.292	77.88
202.51	80.71
202.728	1.51
202.946	35.5
203.165	-67.65
203.383	-96.95
203.601	-148.31
203.819	-55.81
204.037	-28.53
204.255	-40.42
204.473	-5.74
204.691	-28.94
204.909	2.85
205.127	16.65
205.345	15.99
205.562	13.7
205.78	1.67
205.998	33.77
206.216	13.22
206.434	19.59
206.652	49.93
206.87	31.14
207.088	57.36
207.306	69.48
207.523	74.94
207.741	133.1
207.959	286.72
208.177	203.64
208.395	113.09
208.612	169.8
208.83	154.59
209.048	114.39
209.266	121.95
209.483	76.24
209.701	48.5
209.919	50.64
210.136	60.99
210.354	55.74
210.572	22.32
210.79	44.86
211.007	-25.31
211.225	-44.63
211.442	-29.73
211.66	55.2
211.878	58.13
212.095	55.53
212.313	34.46
212.53	23.13
212.748	40.87
212.966	25.5
213.183	13
213.401	8.05
213.618	10.76
213.836	1.84
214.053	-40.92
214.271	-63.3
214.488	9.42
214.705	42.11
214.923	43.37
215.14	7.48
215.358	36.48
215.575	38.41
215.793	35.34
216.01	53.29
216.227	86.99
216.445	81.74
216.662	51.22
216.879	30.23
217.097	18.91
217.314	7.38
217.531	18.17
217.749	46.46
217.966	48.07
218.183	42.74
218.4	38.2
218.618	37.52
218.835	43.66
219.052	34.83
219.269	36.22
219.487	41.23
219.704	47.73
219.921	39.74
220.138	33.39
220.355	30.24
220.572	31.88
220.79	27.9
221.007	28.8
221.224	27.41
221.441	33.82
221.658	32.33
221.875	34.23
222.092	33.43
222.309	24.13
222.526	8.37
222.743	6.58
222.96	3.7
223.177	7
223.394	12.79
223.611	1.71
223.828	2.1
224.045	-0.23
224.262	2.99
224.479	2.47
224.696	3.61
224.913	-0.51
225.13	1.5
225.347	4.93
225.564	3.55
225.781	-4.22
225.997	-1
226.214	-3.37
226.431	-3.82
226.648	-6.69
226.865	-6.3
227.082	-2.65
227.298	2.32
227.515	3.48
227.732	3.38
227.949	2.27
228.165	2.97
228.382	3.13
228.599	2.92
228.816	2.85
229.032	3.55
229.249	3.37
229.466	3.95
229.682	2.83
229.899	2.76
230.116	1.26
230.332	2.03
230.549	0.73
230.765	-0.12
230.982	-0.74
231.199	-0.81
231.415	-0.72
231.632	-0.87
231.848	-3.74
232.065	-2.24
232.281	-2.24
232.498	-0.02
232.714	-0.37
232.931	1.77
233.147	2.3
233.364	2.42
233.58	2.56
233.797	2.29
234.013	2.13
234.23	1.62
234.446	1.37
234.662	1.57
234.879	3.3
235.095	3.97
235.312	4.2
235.528	4.56
235.744	6.06
235.961	6.76
236.177	6.77
236.393	8.54
236.61	11.68
236.826	10.37
237.042	10.15
237.258	9.6
237.475	8.64
237.691	10.32
237.907	9.28
238.123	7.51
238.339	9.26
238.556	10.78
238.772	9.21
238.988	7.84
239.204	7.96
239.42	6.53
239.636	5.99
239.853	6.44
240.069	5.93
240.285	5.81
240.501	6.53
240.717	5.09
240.933	3.02
241.149	2.72
241.365	2.52
241.581	3.44
241.797	3.21
242.013	3.68
242.229	3.4
242.445	2.41
242.661	2.16
242.877	1.67
243.093	1.54
243.309	1.83
243.525	1.62
243.741	1.28
243.957	0.38
244.173	-0.1
244.388	-1.09
244.604	-0.76
244.82	-1.02
245.036	-0.1
245.252	0.1
245.468	0.69
245.683	0.86
245.899	1.97
246.115	1.96
246.331	2.26
246.547	2.9
246.762	2.87
246.978	2.94
247.194	3.14
247.409	2.99
247.625	3.27
247.841	2.87
248.057	2.61
248.272	2.43
248.488	2.61
248.703	3.11
248.919	2.77
249.135	2.89
249.35	2.76
249.566	3.59
249.782	3.83
249.997	3.05
250.213	3.96
250.428	4.88
250.644	4.73
250.859	4.3
251.075	3.34
251.29	3.09
251.506	3.61
251.721	3.15
251.937	1.31
252.152	0.88
252.368	1.28
252.583	0.14
252.798	-0.26
253.014	-0.32
253.229	0.11
253.445	-0.38
253.66	0.05
253.875	-0.97
254.091	-1.39
254.306	-0.46
254.521	0.09
254.737	1.03
254.952	2.42
255.167	2.27
255.383	2.41
255.598	2.05
255.813	1.75
256.028	1.74
256.244	2.31
256.459	2.4
256.674	3.52
256.889	4.25
257.104	4.09
257.32	4.06
257.535	3.4
257.75	2.41
257.965	3.17
258.18	2.77
258.395	2.7
258.61	2.19
258.826	2.63
259.041	2.52
259.256	2.28
259.471	2.21
259.686	2.15
259.901	2.62
260.116	2.78
260.331	2.77
260.546	2.89
260.761	2.89
260.976	3.06
261.191	2.76
261.406	2.52
261.621	2.34
261.836	1.92
262.05	2.03
262.265	1.58
262.48	1.76
262.695	1.49
262.91	2.24
263.125	2.15
263.34	2.49
263.555	2.79
263.769	2.62
263.984	2.77
264.199	2.91
264.414	2.78
264.629	3.18
264.843	3.16
265.058	2.73
265.273	2.29
265.488	1.66
265.702	1.4
265.917	1.12
266.132	1.73
266.346	1.64
266.561	2.43
266.776	2.87
266.99	2.93
267.205	2.7
267.42	2.49
267.634	2.59
267.849	2.68
268.063	3.02
268.278	2.99
268.492	2.7
268.707	2.77
268.922	2.65
269.136	2.47
269.351	2.21
269.565	1.38
269.78	1.42
269.994	0.99
270.209	1.21
270.423	1.2
270.637	1.35
270.852	0.81
271.066	0.6
271.281	0.07
271.495	-0.12
271.709	-0.27
271.924	0.55
272.138	0.63
272.353	0.91
272.567	1.49
272.781	1.26
272.996	1.49
273.21	1.64
273.424	1.73
273.638	2.21
273.853	1.83
274.067	1.94
274.281	1.75
274.495	2.01
274.71	1.82
274.924	1.28
275.138	0.83
275.352	0.86
275.566	1
275.781	0.92
275.995	1
276.209	1.25
276.423	1.34
276.637	1.43
276.851	1.21
277.065	1.1
277.279	0.85
277.493	1.73
277.707	1.7
277.921	2.17
278.135	2.44
278.349	2.44
278.563	2.8
278.777	2.64
278.991	2.5
279.205	2.7
279.419	2.96
279.633	2.64
279.847	2.25
280.061	2.09
280.275	1.27
280.489	0.96
280.703	0.76
280.917	0.48
281.131	0.68
281.344	1.15
281.558	0.86
281.772	0.98
281.986	0.98
282.2	1
282.414	0.85
282.627	1.12
282.841	1.05
283.055	1.01
283.269	1.39
283.482	1.59
283.696	1.09
283.91	1.09
284.123	0.88
284.337	1.44
284.551	1.37
284.764	1.37
284.978	1.34
285.192	1.54
285.405	1.61
285.619	1.46
285.833	1.54
286.046	1.73
286.26	1.82
286.473	1.95
286.687	1.85
286.9	1.95
287.114	1.87
287.327	2.18
287.541	2.09
287.754	2.05
287.968	1.73
288.181	1.39
288.395	1.15
288.608	1.28
288.822	1.56
289.035	1.62
289.248	1.64
289.462	1.84
289.675	1.89
289.889	1.98
290.102	1.9
290.315	2.27
290.529	2.4
290.742	2.55
290.955	2.31
291.169	1.98
291.382	2.12
291.595	1.85
291.808	2.02
292.022	1.98
292.235	2.36
292.448	2.42
292.661	2.09
292.875	2.21
293.088	2.34
293.301	2.61
293.514	2.73
293.727	2.45
293.94	2.78
294.153	2.6
294.367	2.34
294.58	1.87
294.793	1.87
295.006	2.34
295.219	1.99
295.432	1.74
295.645	1.74
295.858	1.28
296.071	1.22
296.284	1.06
296.497	1.12
296.71	1.17
296.923	1.28
297.136	1.41
297.349	1.27
297.562	1.42
297.775	1.58
297.988	1.26
298.201	1.45
298.414	1.51
298.626	1.53
298.839	1.4
299.052	1.56
299.265	1.76
299.478	1.73
299.691	1.32
299.903	1.37
300.116	1.27
300.329	1.58
300.542	1.95
300.755	2.22
300.967	2.28
301.18	2.78
301.393	2.79
301.605	2.81
301.818	2.72
302.031	2.88
302.243	2.91
302.456	2.84
302.669	2.94
302.881	2.49
303.094	2.21
303.307	2.33
303.519	1.8
303.732	1.84
303.944	1.51
304.157	1.59
304.37	1.83
304.582	1.7
304.795	1.97
305.007	1.94
305.22	2.1
305.432	2.01
305.645	2.03
305.857	1.95
306.069	1.81
306.282	2.24
306.494	2.42
306.707	2.27
306.919	2.18
307.132	2.17
307.344	2.54
307.556	2.78
307.769	2.78
307.981	2.65
308.193	2.88
308.406	2.55
308.618	1.95
308.83	1.78
309.043	1.89
309.255	2.36
309.467	2.15
309.679	1.88
309.892	2.06
310.104	2.12
310.316	2.15
310.528	2.34
310.74	2.43
310.953	2.8
311.165	2.68
311.377	2.71
311.589	2.66
311.801	2.68
312.013	2.3
312.225	2.07
312.437	2.02
312.649	2.21
312.862	1.76
313.074	1.96
313.286	1.85
313.498	1.95
313.71	1.83
313.922	1.66
314.134	1.83
314.346	2.16
314.558	2.27
314.77	2.54
314.982	2.46
315.193	2.43
315.405	2.49
315.617	2.4
315.829	2.43
316.041	2.97
316.253	3.26
316.465	3.04
316.677	3.18
316.888	2.93
317.1	2.98
317.312	3.14
317.524	3.34
317.736	3.72
317.947	4.16
318.159	4.56
318.371	4.52
318.583	4.56
318.794	4.74
319.006	4.4
319.218	4.64
319.43	4.35
319.641	4.37
319.853	3.92
320.064	3.62
320.276	3.68
320.488	3.78
320.699	3.8
320.911	3.67
321.123	4.11
321.334	4.81
321.546	5.01
321.757	6.05
321.969	5.63
322.18	6.46
322.392	6.52
322.603	6.3
322.815	5.93
323.026	5.7
323.238	5.59
323.449	5.67
323.661	5.84
323.872	5.42
324.083	4.96
324.295	5.37
324.506	5.43
324.718	5.69
324.929	5.8
325.14	5.8
325.352	5.87
325.563	5.97
325.774	5.85
325.986	5.42
326.197	5.7
326.408	5.52
326.62	5.3
326.831	5.3
327.042	4.96
327.253	4.98
327.464	5.23
327.676	5.7
327.887	5.78
328.098	5.75
328.309	6.13
328.52	6.82
328.732	7.36
328.943	7.44
329.154	7.59
329.365	8.09
329.576	8.39
329.787	8.42
329.998	8.03
330.209	8.75
330.42	8.65
330.631	8.63
330.842	8.63
331.053	8.59
331.264	9.32
331.475	9.35
331.686	9.38
331.897	9.29
332.108	9.29
332.319	9.61
332.53	9.39
332.741	9.38
332.952	9.41
333.163	9.17
333.374	9.24
333.585	8.77
333.795	9.2
334.006	9.22
334.217	9.29
334.428	9.44
334.639	9.3
334.849	8.81
335.06	9.11
335.271	9.36
335.482	9.39
335.692	9.41
335.903	9.67
336.114	9.58
336.325	9.43
336.535	9.55
336.746	9.81
336.957	9.87
337.167	10.36
337.378	10.59
337.589	10.49
337.799	10.11
338.01	9.83
338.22	9.77
338.431	9.63
338.642	9.7
338.852	9.81
339.063	9.53
339.273	9.59
339.484	9.18
339.694	9.05
339.905	9.24
340.115	9.61
340.326	9.84
340.536	10.01
340.746	10.19
340.957	10
341.167	9.67
341.378	10.01
341.588	9.95
341.799	10.23
342.009	10.01
342.219	10.05
342.43	9.69
342.64	9.57
342.85	9.55
343.061	9.66
343.271	9.91
343.481	10.29
343.691	9.94
343.902	9.76
344.112	9.7
344.322	9.87
344.532	9.84
344.743	10.19
344.953	10.16
345.163	9.8
345.373	9.24
345.583	8.91
345.793	8.59
346.004	8.47
346.214	8.8
346.424	8.85
346.634	8.8
346.844	8.99
347.054	8.97
347.264	9.1
347.474	8.97
347.684	9.3
347.894	9.65
348.104	9.73
348.314	10.09
348.524	9.95
348.734	9.86
348.944	9.67
349.154	9.11
349.364	8.99
349.574	9.12
349.784	9.36
349.994	9.14
350.204	9.06
350.413	9.14
350.623	8.76
350.833	8.68
351.043	8.37
351.253	8.65
351.463	8.83
351.672	9.14
351.882	8.77
352.092	8.8
352.302	9.17
352.511	9.09
352.721	8.69
352.931	8.89
353.141	8.79
353.35	9.09
353.56	8.98
353.77	8.79
353.979	8.42
354.189	8.52
354.399	8.72
354.608	8.54
354.818	8.5
355.027	8.81
355.237	8.73
355.447	8.87
355.656	8.86
355.866	8.68
356.075	8.69
356.285	8.64
356.494	8.77
356.704	8.42
356.913	8.47
357.123	8.39
357.332	8.46
357.542	8.48
357.751	8.25
357.96	7.93
358.17	7.83
358.379	8.04
358.589	8.24
358.798	8.19
359.007	8.17
359.217	8.07
359.426	8.21
359.635	8.34
359.845	8.08
360.054	8.18
360.263	8.37
360.472	8.62
360.682	8.4
360.891	8.39
361.1	8.5
361.309	8.67
361.519	8.74
361.728	8.72
361.937	8.62
362.146	8.74
362.355	8.89
362.564	8.96
362.774	8.87
362.983	9.02
363.192	8.84
363.401	8.68
363.61	8.52
363.819	8.47
364.028	8.42
364.237	7.99
364.446	8.16
364.655	7.83
364.864	7.84
365.073	7.79
365.282	7.6
365.491	7.82
365.7	7.87
365.909	8.01
366.118	8.03
366.327	7.99
366.536	8.11
366.745	7.97
366.954	8.22
367.162	7.83
367.371	7.9
367.58	7.97
367.789	7.83
367.998	7.79
368.207	7.88
368.415	8.06
368.624	8.24
368.833	8.61
369.042	8.64
369.25	8.59
369.459	8.9
369.668	8.98
369.877	8.97
370.085	9.06
370.294	9.29
370.503	8.94
370.711	8.67
370.92	8.42
371.129	8.17
371.337	8.2
371.546	7.98
371.754	7.8
371.963	7.53
372.171	7.51
372.38	7.52
372.589	7.33
372.797	7.68
373.006	7.74
373.214	7.71
373.423	7.87
373.631	7.79
373.84	7.81
374.048	7.96
374.256	8.22
374.465	8.21
374.673	8.09
374.882	8.33
375.09	7.96
375.298	7.97
375.507	8.15
375.715	8.1
375.923	8.25
376.132	8.5
376.34	8.4
376.548	8.39
376.757	8.55
376.965	8.66
377.173	8.43
377.381	8.61
377.59	8.6
377.798	8.52
378.006	8.44
378.214	8.4
378.423	8.29
378.631	8.35
378.839	8.32
379.047	8.28
379.255	7.94
379.463	7.85
379.671	7.65
379.879	7.49
380.088	7.46
380.296	7.65
380.504	7.75
380.712	7.88
380.92	7.67
381.128	7.7
381.336	7.61
381.544	7.79
381.752	7.92
381.96	8.01
382.168	7.99
382.376	8.14
382.584	7.83
382.791	7.7
382.999	7.36
383.207	7.65
383.415	7.77
383.623	7.84
383.831	8.04
384.039	7.88
384.247	8.11
384.454	8.16
384.662	8.15
384.87	8.38
385.078	8.31
385.285	8.53
385.493	8.41
385.701	8.12
385.909	8.11
386.116	7.91
386.324	8.06
386.532	7.81
386.739	7.76
386.947	7.75
387.155	7.6
387.362	7.64
387.57	7.57
387.778	7.41
387.985	7.37
388.193	7.48
388.4	7.5
388.608	7.33
388.816	7.46
389.023	7.59
389.231	7.53
389.438	7.65
389.646	7.84
389.853	7.67
390.061	8.03
390.268	8.18
390.475	8.03
390.683	8.07
390.89	8.17
391.098	8.29
391.305	8.17
391.512	8.22
391.72	8.1
391.927	7.92
392.135	8.01
392.342	7.85
392.549	7.83
392.756	7.9
392.964	7.81
393.171	7.8
393.378	7.7
393.586	7.93
393.793	7.83
394	7.76
394.207	7.73
394.414	7.87
394.622	7.8
394.829	7.76
395.036	7.67
395.243	7.71
395.45	7.65
395.657	7.67
395.864	7.47
396.072	7.32
396.279	7.34
396.486	7.26
396.693	7.32
396.9	7.43
397.107	7.46
397.314	7.57
397.521	7.49
397.728	7.47
397.935	7.49
398.142	7.4
398.349	7.55
398.556	7.76
398.763	7.92
398.97	7.7
399.177	7.56
399.383	7.57
399.59	7.32
399.797	7.58
400.004	7.6
400.211	7.47
400.418	7.58
400.625	7.63
400.831	7.52
401.038	7.34
401.245	7.42
401.452	7.38
401.658	7.38
401.865	7.44
402.072	7.37
402.279	7.46
402.485	7.58
402.692	7.7
402.899	7.66
403.105	7.73
403.312	7.87
403.519	7.97
403.725	8.13
403.932	8.1
404.138	8.1
404.345	7.88
404.552	8.03
404.758	8.05
404.965	8.01
405.171	8.09
405.378	7.93
405.584	7.91
405.791	7.74
405.997	7.86
406.204	7.97
406.41	8.11
406.617	8.2
406.823	8.15
407.029	8.03
407.236	7.87
407.442	7.88
407.649	7.87
407.855	7.89
408.061	8.02
408.268	7.93
408.474	7.99
408.68	8.01
408.887	8.07
409.093	8.04
409.299	8.03
409.505	8.24
409.712	8.21
409.918	8.4
410.124	8.5
410.33	8.56
410.537	8.56
410.743	8.34
410.949	8.26
411.155	8.33
411.361	8.24
411.567	8.33
411.773	8.27
411.98	8.3
412.186	8.1
412.392	8.01
412.598	7.96
412.804	7.92
413.01	8.06
413.216	8.33
413.422	8.31
413.628	8.33
413.834	8.37
414.04	8.39
414.246	8.22
414.452	8.49
414.658	8.47
414.864	8.47
415.07	8.39
415.275	8.44
415.481	8.16
415.687	8.14
415.893	8.01
416.099	7.83
416.305	7.79
416.511	7.91
416.716	7.76
416.922	7.74
417.128	7.82
417.334	7.85
417.539	7.86
417.745	7.91
417.951	7.94
418.157	7.97
418.362	8.04
418.568	7.99
418.774	7.97
418.979	8.03
419.185	8.08
419.391	8.04
419.596	8.05
419.802	8.04
420.008	8.01
420.213	8.59
420.419	8.6
420.624	8.56
420.83	8.62
421.035	8.6
421.241	8.54
421.446	8.45
421.652	8.39
421.857	8.47
422.063	8.37
422.268	8.46
422.474	7.83
422.679	7.81
422.885	7.84
423.09	7.77
423.295	7.77
423.501	7.77
423.706	7.84
423.911	7.75
424.117	7.66
424.322	7.79
424.527	7.7
424.733	7.7
424.938	7.78
425.143	7.78
425.349	7.75
425.554	7.78
425.759	7.78
425.964	7.77
426.169	7.88
426.375	7.91
426.58	7.84
426.785	7.85
426.99	7.92
427.195	7.87
427.4	7.87
427.605	7.92
427.811	7.9
428.016	7.88
428.221	7.86
428.426	7.84
428.631	7.76
428.836	7.71
429.041	7.82
429.246	7.87
429.451	7.89
429.656	7.94
429.861	8.04
430.066	8.06
430.271	8.13
430.476	8.12
430.681	8
430.886	8.1
431.09	8.15
431.295	8.04
431.5	8.07
431.705	8.06
431.91	8.07
432.115	8.01
432.32	8.12
432.524	8.05
432.729	8.06
432.934	8.24
433.139	8.17
433.343	8.19
433.548	8.32
433.753	8.26
433.958	8.31
434.162	8.27
434.367	8.45
434.572	8.33
434.776	8.53
434.981	8.58
435.186	8.58
435.39	8.75
435.595	8.88
435.799	8.75
436.004	8.85
436.209	8.79
436.413	8.85
436.618	8.68
436.822	8.73
437.027	8.63
437.231	8.48
437.436	8.47
437.64	8.33
437.845	8.12
438.049	8.17
438.253	8.14
438.458	8.09
438.662	7.96
438.867	7.96
439.071	7.9
439.275	7.84
439.48	7.97
439.684	7.95
439.888	7.97
440.093	8.09
440.297	8.06
440.501	8.07
440.706	8.05
440.91	8.03
441.114	8.04
441.318	8.02
441.523	8.13
441.727	8.14
441.931	8.1
442.135	8.19
442.339	8.16
442.543	8.11
442.748	8.15
442.952	8.26
443.156	8.36
443.36	8.36
443.564	8.35
443.768	8.25
443.972	8.18
444.176	8.23
444.38	8.15
444.584	8.16
444.788	8.15
444.992	8.11
445.196	8.08
445.4	7.99
445.604	7.93
445.808	7.93
446.012	7.97
446.216	7.96
446.42	7.96
446.624	7.95
446.828	7.89
447.032	7.89
447.235	7.88
447.439	7.93
447.643	7.96
447.847	8.01
448.051	8.08
448.254	8.05
448.458	8.11
448.662	8.12
448.866	8.11
449.069	8.09
449.273	8.2
449.477	8.16
449.681	8.15
449.884	8.14
450.088	8.07
450.292	8.04
450.495	8.08
450.699	8.01
450.902	7.96
451.106	7.98
451.31	8.02
451.513	7.91
451.717	7.96
451.92	7.83
452.124	7.76
452.327	7.85
452.531	7.81
452.734	7.8
452.938	7.89
453.141	7.95
453.345	8
453.548	8.01
453.752	8.07
453.955	8.1
454.158	8.2
454.362	8.41
454.565	8.45
454.769	8.52
454.972	8.44
455.175	8.45
455.379	8.5
455.582	8.49
455.785	8.47
455.988	8.57
456.192	8.61
456.395	8.6
456.598	8.53
456.801	8.43
457.005	8.32
457.208	8.37
457.411	8.28
457.614	8.2
457.817	8.17
458.021	8.17
458.224	8.11
458.427	8.01
458.63	8
458.833	7.99
459.036	8.06
459.239	8.18
459.442	8.12
459.645	8.17
459.848	8.19
460.051	8.21
460.254	8.26
460.457	8.29
460.66	8.39
460.863	8.43
461.066	8.45
461.269	8.48
461.472	8.42
461.675	8.53
461.878	8.57
462.081	8.6
462.284	8.58
462.486	8.61
462.689	8.57
462.892	8.52
463.095	8.45
463.298	8.49
463.5	8.46
463.703	8.48
463.906	8.41
464.109	8.44
464.311	8.43
464.514	8.44
464.717	8.42
464.92	8.39
465.122	8.39
465.325	8.37
465.528	8.4
465.73	8.43
465.933	8.48
466.135	8.55
466.338	8.43
466.541	8.49
466.743	8.46
466.946	8.45
467.148	8.5
467.351	8.55
467.553	8.64
467.756	8.61
467.958	8.71
468.161	8.63
468.363	8.61
468.566	8.62
468.768	8.59
468.971	8.65
469.173	8.59
469.375	8.6
469.578	8.53
469.78	8.49
469.983	8.46
470.185	8.36
470.387	8.48
470.59	8.52
470.792	8.61
470.994	8.59
471.196	8.59
471.399	8.59
471.601	8.46
471.803	8.45
472.005	8.49
472.208	8.44
472.41	8.39
472.612	8.32
472.814	8.28
473.016	8.16
473.218	8.09
473.421	8.05
473.623	8.11
473.825	8.18
474.027	8.22
474.229	8.24
474.431	8.23
474.633	8.31
474.835	8.37
475.037	8.31
475.239	8.48
475.441	8.44
475.643	8.49
475.845	8.5
476.047	8.51
476.249	8.45
476.451	8.33
476.653	8.37
476.855	8.26
477.057	8.28
477.258	8.44
477.46	8.4
477.662	8.57
477.864	8.49
478.066	8.45
478.268	8.51
478.469	8.56
478.671	8.62
478.873	8.63
479.075	8.63
479.276	8.58
479.478	8.55
479.68	8.42
479.882	8.31
480.083	8.42
480.285	8.43
480.487	8.4
480.688	8.41
480.89	8.43
481.091	8.43
481.293	8.42
481.495	8.45
481.696	8.36
481.898	8.37
482.099	8.35
482.301	8.27
482.502	8.24
482.704	8.23
482.905	8.2
483.107	8.19
483.308	8.17
483.51	8.18
483.711	8.15
483.913	8.14
484.114	8.15
484.315	8.15
484.517	8.17
484.718	8.2
484.92	8.19
485.121	8.22
485.322	8.23
485.524	8.28
485.725	8.28
485.926	8.27
486.127	8.31
486.329	8.33
486.53	8.35
486.731	8.34
486.932	8.31
487.134	8.34
487.335	8.33
487.536	8.3
487.737	8.26
487.938	8.27
488.139	8.33
488.341	8.37
488.542	8.41
488.743	8.42
488.944	8.41
489.145	8.45
489.346	8.43
489.547	8.4
489.748	8.46
489.949	8.52
490.15	8.57
490.351	8.51
490.552	8.45
490.753	8.38
490.954	8.41
491.155	8.4
491.356	8.36
491.557	8.39
491.758	8.45
491.959	8.41
492.159	8.42
492.36	8.38
492.561	8.44
492.762	8.5
492.963	8.52
493.164	8.5
493.364	8.56
493.565	8.61
493.766	8.57
493.967	8.58
494.167	8.69
494.368	8.67
494.569	8.74
494.769	8.67
494.97	8.68
495.171	8.75
495.371	8.76
495.572	8.82
495.773	8.78
495.973	8.82
496.174	8.79
496.375	8.76
496.575	8.74
496.776	8.72
496.976	8.78
497.177	8.74
497.377	8.67
497.578	8.7
497.778	8.62
497.979	8.73
498.179	8.73
498.38	8.75
498.58	8.7
498.78	8.65
498.981	8.61
499.181	8.56
499.382	8.58
499.582	8.58
499.782	8.51
499.983	8.57
500.183	8.66
500.383	8.71
500.584	8.64
500.784	8.66
500.984	8.7
501.184	8.84
501.385	8.86
501.585	8.88
501.785	8.94
501.985	9.01
502.185	9.02
502.386	8.86
502.586	8.82
502.786	9
502.986	9.1
503.186	9.12
503.386	9.11
503.586	9.05
503.786	9.05
503.987	9.02
504.187	8.98
504.387	9.07
504.587	9.04
504.787	9.09
504.987	9.02
505.187	8.98
505.387	9.01
505.587	8.98
505.786	8.98
505.986	9.04
506.186	9.1
506.386	9.2
506.586	9.2
506.786	9.18
506.986	9.11
507.186	9.05
507.386	9.05
507.585	9.01
507.785	9.06
507.985	9.13
508.185	9.16
508.384	9.18
508.584	9.14
508.784	9.08
508.984	9.22
509.183	9.21
509.383	9.32
509.583	9.34
509.782	9.32
509.982	9.27
510.182	9.27
510.381	9.23
510.581	9.25
510.781	9.29
510.98	9.27
511.18	9.25
511.379	9.31
511.579	9.25
511.778	9.21
511.978	9.23
512.177	9.28
512.377	9.31
512.576	9.3
512.776	9.29
512.975	9.28
513.175	9.38
513.374	9.35
513.573	9.39
513.773	9.43
513.972	9.46
514.172	9.52
514.371	9.51
514.57	9.54
514.77	9.53
514.969	9.56
515.168	9.55
515.367	9.48
515.567	9.49
515.766	9.46
515.965	9.48
516.164	9.47
516.364	9.45
516.563	9.45
516.762	9.44
516.961	9.49
517.16	9.5
517.359	9.49
517.559	9.52
517.758	9.47
517.957	9.41
518.156	9.39
518.355	9.42
518.554	9.46
518.753	9.48
518.952	9.51
519.151	9.45
519.35	9.4
519.549	9.46
519.748	9.54
519.947	9.6
520.146	9.65
520.345	9.71
520.544	9.72
520.743	9.71
520.942	9.68
521.141	9.74
521.339	9.81
521.538	9.81
521.737	9.78
521.936	9.71
522.135	9.71
522.333	9.73
522.532	9.74
522.731	9.83
522.93	9.81
523.129	9.81
523.327	9.78
523.526	9.78
523.725	9.79
523.923	9.91
524.122	9.86
524.321	9.92
524.519	9.97
524.718	9.91
524.917	9.88
525.115	9.89
525.314	9.91
525.512	9.9
525.711	9.91
525.909	9.91
526.108	9.81
526.306	9.78
526.505	9.76
526.703	9.77
526.902	9.78
527.1	9.71
527.299	9.65
527.497	9.6
527.696	9.55
527.894	9.54
528.092	9.5
528.291	9.52
528.489	9.52
528.688	9.48
528.886	9.43
529.084	9.4
529.283	9.41
529.481	9.47
529.679	9.48
529.877	9.52
530.076	9.52
530.274	9.56
530.472	9.57
530.67	9.6
530.869	9.63
531.067	9.68
531.265	9.75
531.463	9.78
531.661	9.75
531.859	9.8
532.057	9.79
532.255	9.81
532.454	9.8
532.652	9.79
532.85	9.83
533.048	9.83
533.246	9.82
533.444	9.83
533.642	9.83
533.84	9.9
534.038	9.9
534.236	9.95
534.434	9.94
534.632	10.04
534.83	10.12
535.027	10.08
535.225	10.15
535.423	10.1
535.621	10.09
535.819	10.1
536.017	10.06
536.215	10.12
536.412	10.12
536.61	10.15
536.808	10.11
537.006	10.06
537.203	10.13
537.401	10.18
537.599	10.34
537.797	10.35
537.994	10.37
538.192	10.44
538.39	10.46
538.587	10.48
538.785	10.5
538.983	10.57
539.18	10.69
539.378	10.71
539.575	10.73
539.773	10.69
539.97	10.82
540.168	10.86
540.366	10.9
540.563	10.89
540.761	10.9
540.958	10.94
541.155	10.92
541.353	10.92
541.55	10.94
541.748	10.94
541.945	10.98
542.143	10.94
542.34	10.99
542.537	11.01
542.735	11.09
542.932	11.17
543.129	11.24
543.327	11.34
543.524	11.39
543.721	11.54
543.919	11.75
544.116	11.9
544.313	12.08
544.51	12.25
544.708	12.38
544.905	12.52
545.102	12.65
545.299	12.77
545.496	12.82
545.693	12.94
545.891	12.86
546.088	12.77
546.285	12.75
546.482	12.69
546.679	12.63
546.876	12.56
547.073	12.52
547.27	12.4
547.467	12.29
547.664	12.26
547.861	12.17
548.058	12.2
548.255	12.17
548.452	12.18
548.649	12.27
548.846	12.23
549.043	12.22
549.24	12.12
549.437	12.07
549.633	12.04
549.83	11.96
550.027	11.94
550.224	11.92
550.421	11.87
550.618	11.73
550.814	11.62
551.011	11.58
551.208	11.5
551.405	11.55
551.601	11.53
551.798	11.5
551.995	11.44
552.191	11.4
552.388	11.36
552.585	11.32
552.781	11.36
552.978	11.36
553.175	11.29
553.371	11.35
553.568	11.3
553.764	11.34
553.961	11.35
554.157	11.4
554.354	11.34
554.55	11.34
554.747	11.36
554.943	11.3
555.14	11.25
555.336	11.31
555.533	11.21
555.729	11.19
555.926	11.21
556.122	11.27
556.318	11.35
556.515	11.41
556.711	11.4
556.907	11.4
557.104	11.37
557.3	11.41
557.496	11.31
557.693	11.26
557.889	11.07
558.085	11.02
558.281	10.99
558.478	10.93
558.674	10.97
558.87	10.99
559.066	11.14
559.262	11.2
559.459	11.21
559.655	11.23
559.851	11.31
560.047	11.52
560.243	11.59
560.439	11.53
560.635	11.56
560.831	11.5
561.027	11.45
561.223	11.38
561.419	11.39
561.615	11.34
561.811	11.45
562.007	11.63
562.203	11.7
562.399	11.74
562.595	11.81
562.791	11.82
562.987	11.92
563.183	12.07
563.379	12.12
563.575	12.01
563.771	12.05
563.966	11.97
564.162	11.78
564.358	11.68
564.554	11.64
564.75	11.64
564.945	11.7
565.141	11.44
565.337	11.4
565.533	11.24
565.728	11.32
565.924	11.3
566.12	11.3
566.315	11.29
566.511	11.34
566.707	11.19
566.902	11.19
567.098	11.16
567.293	11.37
567.489	11.3
567.684	11.35
567.88	11.32
568.076	11.34
568.271	11.38
568.467	11.44
568.662	11.35
568.858	11.46
569.053	11.43
569.248	11.4
569.444	11.38
569.639	11.39
569.835	11.45
570.03	11.38
570.225	11.31
570.421	11.3
570.616	11.27
570.812	11.32
571.007	11.32
571.202	11.35
571.397	11.36
571.593	11.27
571.788	11.41
571.983	11.39
572.178	11.47
572.374	11.55
572.569	11.59
572.764	11.61
572.959	11.67
573.154	11.65
573.35	11.62
573.545	11.58
573.74	11.67
573.935	11.65
574.13	11.66
574.325	11.7
574.52	11.66
574.715	11.67
574.91	11.73
575.105	11.73
575.3	11.83
575.495	11.94
575.69	12.09
575.885	12.05
576.08	12.01
576.275	12.17
576.47	12.22
576.665	12.32
576.86	12.3
577.055	12.34
577.25	12.4
577.444	12.55
577.639	12.57
577.834	12.62
578.029	12.86
578.224	12.89
578.418	12.87
578.613	12.97
578.808	13.01
579.003	13.08
579.197	13.22
579.392	13.16
579.587	13.15
579.781	13.12
579.976	13.01
580.171	12.95
580.365	12.96
580.56	12.95
580.755	12.88
580.949	12.92
581.144	12.89
581.338	12.8
581.533	12.79
581.727	12.71
581.922	12.79
582.116	12.89
582.311	12.79
582.505	13
582.7	13.01
582.894	12.98
583.089	13.02
583.283	13.06
583.478	13.2
583.672	13.28
583.866	13.24
584.061	13.1
584.255	13.18
584.449	13.3
584.644	13.23
584.838	13.28
585.032	13.28
585.226	13.25
585.421	13.33
585.615	13.31
585.809	13.48
586.003	13.62
586.198	13.84
586.392	13.98
586.586	13.97
586.78	13.88
586.974	13.69
587.168	13.7
587.363	13.71
587.557	13.63
587.751	13.53
587.945	13.48
588.139	13.46
588.333	13.36
588.527	13.21
588.721	13.27
588.915	13.49
589.109	13.59
589.303	13.57
589.497	13.54
589.691	13.52
589.885	13.54
590.079	13.46
590.273	13.42
590.466	13.54
590.66	13.61
590.854	13.67
591.048	13.48
591.242	13.58
591.436	13.73
591.629	13.74
591.823	13.78
592.017	13.83
592.211	13.77
592.404	13.91
592.598	13.86
592.792	13.77
592.986	13.78
593.179	13.84
593.373	13.77
593.567	13.66
593.76	13.75
593.954	13.79
594.147	13.92
594.341	14.02
594.535	13.8
594.728	13.61
594.922	13.63
595.115	13.53
595.309	13.43
595.502	13.45
595.696	13.31
595.889	13.21
596.083	13.17
596.276	12.98
596.47	12.94
596.663	13.05
596.856	13.23
597.05	13.18
597.243	13.12
597.437	13.2
597.63	13.16
597.823	13.34
598.017	13.37
598.21	13.47
598.403	13.67
598.596	13.77
598.79	13.76
598.983	13.75
599.176	13.69
599.369	13.75
599.563	13.83
599.756	13.87
599.949	13.89
600.142	14.06
600.335	13.98
600.528	13.79
600.722	13.69
600.915	13.73
601.108	13.71
601.301	13.7
601.494	13.58
601.687	13.43
601.88	13.55
602.073	13.5
602.266	13.43
602.459	13.46
602.652	13.54
602.845	13.61
603.038	13.5
603.231	13.45
603.424	13.58
603.617	13.65
603.809	13.67
604.002	13.55
604.195	13.6
604.388	13.54
604.581	13.56
604.774	13.55
604.966	13.53
605.159	13.64
605.352	13.66
605.545	13.54
605.737	13.64
605.93	13.79
606.123	14
606.316	13.94
606.508	13.93
606.701	13.93
606.894	14.01
607.086	14.14
607.279	14.12
607.471	14.27
607.664	14.63
607.857	14.77
608.049	14.91
608.242	15.04
608.434	15.44
608.627	15.97
608.819	16.4
609.012	16.9
609.204	17.44
609.397	18.23
609.589	18.95
609.782	19.7
609.974	20.44
610.166	21.3
610.359	22.18
610.551	22.97
610.743	23.78
610.936	24.4
611.128	24.86
611.32	25.3
611.513	25.4
611.705	25.52
611.897	25.43
612.09	25.34
612.282	25.21
612.474	24.88
612.666	24.54
612.858	23.99
613.051	23.64
613.243	23.41
613.435	22.96
613.627	22.67
613.819	22.24
614.011	21.84
614.203	21.46
614.395	20.78
614.588	20.41
614.78	20.02
614.972	19.52
615.164	19.14
615.356	18.7
615.548	18.24
615.74	17.96
615.932	17.77
616.124	17.51
616.315	17.35
616.507	17.2
616.699	16.9
616.891	16.68
617.083	16.54
617.275	16.51
617.467	16.53
617.659	16.52
617.85	16.34
618.042	16.09
618.234	16.07
618.426	16.03
618.618	16.07
618.809	15.92
619.001	15.84
619.193	15.85
619.384	15.69
619.576	15.51
619.768	15.61
619.959	15.73
620.151	15.87
620.343	15.9
620.534	15.74
620.726	15.7
620.917	15.99
621.109	16.02
621.301	16.14
621.492	16.11
621.684	16.15
621.875	16.1
622.067	16.12
622.258	16.2
622.45	16.33
622.641	16.49
622.832	16.49
623.024	16.42
623.215	16.43
623.407	16.45
623.598	16.47
623.789	16.5
623.981	16.52
624.172	16.41
624.363	16.44
624.555	16.31
624.746	16.06
624.937	16.04
625.129	15.99
625.32	16
625.511	15.95
625.702	16
625.893	15.98
626.085	15.95
626.276	15.95
626.467	15.85
626.658	15.85
626.849	15.95
627.04	15.98
627.231	16.07
627.422	16.09
627.614	16.13
627.805	16.05
627.996	16.12
628.187	16.09
628.378	16.26
628.569	16.3
628.76	16.41
628.951	16.55
629.142	16.61
629.332	16.6
629.523	16.64
629.714	16.84
629.905	17.27
630.096	17.32
630.287	17.5
630.478	17.44
630.669	17.53
630.859	17.43
631.05	17.44
631.241	17.39
631.432	17.36
631.623	17.25
631.813	17.04
632.004	16.72
632.195	16.44
632.385	16.23
632.576	16.29
632.767	16.28
632.957	16.18
633.148	16.09
633.339	15.96
633.529	15.83
633.72	15.96
633.91	15.92
634.101	15.92
634.292	15.91
634.482	15.92
634.673	15.81
634.863	15.69
635.054	15.98
635.244	16.08
635.435	16.04
635.625	15.95
635.815	15.93
636.006	15.93
636.196	15.92
636.387	15.99
636.577	16.1
636.767	16.11
636.958	16.05
637.148	16.01
637.338	15.88
637.529	16.09
637.719	16.35
637.909	16.28
638.099	16.46
638.29	16.48
638.48	16.66
638.67	16.76
638.86	16.86
639.05	16.98
639.241	16.88
639.431	16.77
639.621	16.89
639.811	16.78
640.001	16.72
640.191	16.66
640.381	16.6
640.571	16.3
640.761	16.3
640.951	16.17
641.141	16.3
641.331	16.31
641.521	16.52
641.711	16.45
641.901	16.49
642.091	16.49
642.281	16.57
642.471	16.66
642.661	16.97
642.851	17.01
643.041	17.01
643.231	16.87
643.42	16.76
643.61	16.94
643.8	16.97
643.99	17.07
644.18	17.29
644.369	17.32
644.559	17.24
644.749	17.15
644.939	17.07
645.128	17.29
645.318	17.32
645.508	17.47
645.697	17.02
645.887	17.29
646.076	17.13
646.266	17.13
646.456	16.93
646.645	17.1
646.835	17.15
647.024	17.15
647.214	17.07
647.403	17.17
647.593	17.23
647.782	17.38
647.972	17.01
648.161	17.45
648.351	17.41
648.54	17.48
648.73	17.55
648.919	17.48
649.108	17.41
649.298	17.49
649.487	17.47
649.677	17.22
649.866	17.22
650.055	17.55
650.244	17.21
650.434	17.1
650.623	17.26
650.812	17.18
651.002	17.24
651.191	17.54
651.38	17.44
651.569	17.55
651.758	17.71
651.947	17.81
652.137	17.76
652.326	17.82
652.515	17.95
652.704	17.92
652.893	17.98
653.082	18.14
653.271	18
653.46	17.96
653.649	17.77
653.838	17.87
654.027	18
654.216	17.8
654.405	17.86
654.594	17.74
654.783	17.67
654.972	17.76
655.161	17.56
655.35	17.3
655.539	17.51
655.728	17.66
655.916	17.76
656.105	17.73
656.294	17.91
656.483	18.09
656.672	18.31
656.86	18.35
657.049	18.45
657.238	18.62
657.427	18.79
657.615	18.7
657.804	18.61
657.993	18.36
658.181	18.29
658.37	18.18
658.559	17.99
658.747	17.81
658.936	17.89
659.125	17.78
659.313	17.82
659.502	17.83
659.69	17.84
659.879	17.96
660.067	18.16
660.256	18.15
660.444	18.19
660.633	18.2
660.821	18.23
661.01	18.39
661.198	18.44
661.387	18.44
661.575	18.53
661.763	18.82
661.952	18.76
662.14	18.8
662.328	19.12
662.517	19.09
662.705	19.21
662.893	19.39
663.082	19.28
663.27	19.13
663.458	19.17
663.646	19.2
663.834	18.93
664.023	18.91
664.211	18.63
664.399	18.44
664.587	18.54
664.775	18.6
664.963	18.7
665.152	18.73
665.34	19.04
665.528	18.95
665.716	18.73
665.904	18.73
666.092	18.7
666.28	18.9
666.468	18.91
666.656	18.83
666.844	18.78
667.032	18.74
667.22	18.72
667.408	18.49
667.596	18.8
667.784	19.09
667.971	19.13
668.159	19.37
668.347	19.46
668.535	19.66
668.723	19.94
668.911	20.04
669.098	20.14
669.286	19.94
669.474	20.15
669.662	19.84
669.849	20.08
670.037	20.09
670.225	20.03
670.413	20.1
670.6	19.86
670.788	19.8
670.976	19.83
671.163	19.76
671.351	19.85
671.538	19.73
671.726	20.08
671.913	19.88
672.101	19.78
672.289	20.19
672.476	19.93
672.664	20.02
672.851	19.89
673.039	20
673.226	19.92
673.413	20.18
673.601	20.23
673.788	19.97
673.976	19.93
674.163	20.09
674.35	19.78
674.538	19.87
674.725	20
674.912	20.22
675.1	20.19
675.287	20.46
675.474	20.36
675.662	20.43
675.849	20.52
676.036	20.38
676.223	20.52
676.411	20.71
676.598	20.83
676.785	20.59
676.972	20.33
677.159	20.23
677.346	20.2
677.533	20.34
677.721	20.59
677.908	21
678.095	20.85
678.282	20.54
678.469	20.2
678.656	20.15
678.843	20.16
679.03	20.3
679.217	20.3
679.404	20.12
679.591	19.97
679.778	19.66
679.964	19.38
680.151	19.74
680.338	20.1
680.525	20.07
680.712	20.13
680.899	20.33
681.086	20.55
681.272	20.54
681.459	20.81
681.646	20.99
681.833	21.25
682.02	21.33
682.206	21.19
682.393	21.08
682.58	21.38
682.766	21.53
682.953	21.41
683.14	21.21
683.326	21.09
683.513	21.12
683.7	20.95
683.886	20.84
684.073	20.86
684.259	20.82
684.446	21.01
684.632	21.28
684.819	21.11
685.005	21.53
685.192	21.68
685.378	22.15
685.565	21.96
685.751	22.25
685.938	22.17
686.124	22.11
686.31	22.31
686.497	22.24
686.683	21.86
686.87	22.11
687.056	22.14
687.242	22.08
687.429	21.92
687.615	22.01
687.801	21.99
687.987	22.29
688.174	22.36
688.36	22.36
688.546	22.15
688.732	22.19
688.918	22.1
689.105	21.95
689.291	22.06
689.477	22.08
689.663	21.94
689.849	21.79
690.035	21.55
690.221	21.42
690.407	21.44
690.593	21.64
690.779	21.83
690.965	21.8
691.151	21.96
691.337	22.11
691.523	22.4
691.709	22.87
691.895	23.05
692.081	23.29
692.267	23.32
692.453	23.75
692.639	24.03
692.825	23.99
693.011	24.06
693.196	24
693.382	24.02
693.568	23.92
693.754	23.88
693.94	23.63
694.125	23.75
694.311	23.8
694.497	23.39
694.682	23.44
694.868	23.28
695.054	23.19
695.239	23.21
695.425	23.1
695.611	23.4
695.796	23.36
695.982	23.83
696.168	23.57
696.353	23.63
696.539	23.7
696.724	23.49
696.91	23.52
697.095	23.51
697.281	23.29
697.466	23.41
697.652	23.29
697.837	23.08
698.023	22.69
698.208	22.78
698.393	22.75
698.579	22.58
698.764	22.52
698.949	22.69
699.135	22.77
699.32	22.77
699.505	22.76
699.691	22.53
699.876	22.74
700.061	23.13
700.246	23.25
700.432	23.54
700.617	23.63
700.802	23.71
700.987	23.73
701.172	23.69
701.358	23.99
701.543	23.99
701.728	24.02
701.913	23.89
702.098	23.84
702.283	23.67
702.468	23.71
702.653	23.55
702.838	23.48
703.023	23.75
703.208	24.11
703.393	23.98
703.578	23.9
703.763	24.42
703.948	24.88
704.133	24.96
704.318	25.33
704.503	25.28
704.688	25.59
704.873	25.89
705.057	25.69
705.242	25.93
705.427	25.58
705.612	25.97
705.797	25.75
705.981	25.42
706.166	25.61
706.351	25.7
706.536	26.27
706.72	27.17
706.905	27.14
707.09	27.37
707.274	27.29
707.459	27.87
707.644	27.84
707.828	27.86
708.013	27.9
708.197	27.88
708.382	27.52
708.567	27
708.751	26.72
708.936	26.84
709.12	26.42
709.305	26.42
709.489	26.33
709.673	26.03
709.858	25.76
710.042	25.89
710.227	25.79
710.411	26.33
710.596	26.35
710.78	26.14
710.964	26.31
711.149	26.46
711.333	26.32
711.517	26.17
711.702	26.65
711.886	27
712.07	26.79
712.254	26.92
712.438	26.66
712.623	26.7
712.807	26.54
712.991	26.36
713.175	26.68
713.359	26.8
713.544	26.6
713.728	26.03
713.912	25.81
714.096	25.83
714.28	25.47
714.464	25.19
714.648	24.87
714.832	24.97
715.016	24.92
715.2	24.89
715.384	24.38
715.568	24.71
715.752	24.6
715.936	24.56
716.12	24.5
716.304	24.46
716.488	24.64
716.671	24.85
716.855	25.13
717.039	24.98
717.223	24.75
717.407	24.85
717.59	24.4
717.774	24.87
717.958	25.05
718.142	24.93
718.325	25.12
718.509	25.4
718.693	25.36
718.877	25.12
719.06	25.53
719.244	25.55
719.428	26.39
719.611	27.1
719.795	26.99
719.978	27.12
720.162	27.38
720.345	27.34
720.529	27.08
720.713	27.25
720.896	26.99
721.08	27.05
721.263	27.06
721.446	26.61
721.63	26.21
721.813	26.3
721.997	25.89
722.18	25.96
722.364	25.91
722.547	25.57
722.73	25.68
722.914	25.94
723.097	25.6
723.28	25.37
723.464	25.31
723.647	25.6
723.83	25.53
724.013	25.88
724.197	26.32
724.38	26.46
724.563	26.53
724.746	26.44
724.929	26.39
725.112	26.41
725.296	27.33
725.479	27.45
725.662	27.17
725.845	27.27
726.028	27.26
726.211	27.07
726.394	26.55
726.577	26.79
726.76	26.71
726.943	26.64
727.126	26.6
727.309	25.97
727.492	25.87
727.675	25.95
727.858	25.89
728.041	25.76
728.224	26.05
728.407	26.33
728.589	26.32
728.772	25.99
728.955	26.25
729.138	26.34
729.321	26.15
729.503	26.34
729.686	26.25
729.869	26.17
730.052	26.11
730.234	25.68
730.417	25.82
730.6	25.83
730.782	26.06
730.965	25.83
731.148	25.46
731.33	25.71
731.513	25.78
731.695	25.9
731.878	26.25
732.061	26.08
732.243	26.19
732.426	26.32
732.608	26.49
732.791	26.91
732.973	26.88
733.156	27.14
733.338	27.19
733.52	27.16
733.703	27.16
733.885	27.05
734.068	27.42
734.25	27.61
734.432	27.51
734.615	27.35
734.797	26.8
734.979	26.81
735.162	27.03
735.344	26.59
735.526	26.4
735.708	26.14
735.891	26.19
736.073	26.28
736.255	26.35
736.437	26.7
736.619	26.99
736.802	27.33
736.984	27.33
737.166	27.34
737.348	27.31
737.53	27.95
737.712	28.71
737.894	28.55
738.076	28.64
738.258	28.5
738.44	28.21
738.622	27.43
738.804	27.47
738.986	28.17
739.168	28.36
739.35	28.9
739.532	28.75
739.714	28.05
739.896	28.12
740.078	28.18
740.259	28.36
740.441	28.26
740.623	29.12
740.805	28.71
740.987	28.36
741.168	28.16
741.35	27.53
741.532	27.49
741.714	28.05
741.895	28.13
742.077	27.92
742.259	27.43
742.44	28.25
742.622	27.73
742.804	28.31
742.985	27.87
743.167	27.87
743.348	28.68
743.53	28.64
743.711	28.68
743.893	28.86
744.075	28.98
744.256	29.53
744.438	29.18
744.619	29.55
744.8	29.23
744.982	29.64
745.163	29.89
745.345	29.73
745.526	29.78
745.707	29.62
745.889	29.48
746.07	29.23
746.252	29.03
746.433	28.84
746.614	29.39
746.795	29.58
746.977	29.27
747.158	28.81
747.339	28.38
747.52	27.71
747.702	27.12
747.883	27.3
748.064	27.37
748.245	26.87
748.426	26.61
748.607	26.16
748.788	25.84
748.97	26.08
749.151	26.41
749.332	27.07
749.513	26.99
749.694	27.12
749.875	27.11
750.056	27.77
750.237	28.12
750.418	28.33
750.599	28.19
750.78	28.7
750.96	28.88
751.141	29.41
751.322	29.18
751.503	29.85
751.684	31.01
751.865	31.14
752.046	30.66
752.226	30.44
752.407	30.68
752.588	30.4
752.769	30.81
752.949	31.04
753.13	30.34
753.311	31.1
753.492	30.82
753.672	30.28
753.853	29.69
754.034	30.13
754.214	30.21
754.395	30.08
754.575	30.76
754.756	30.41
754.937	29.72
755.117	29.58
755.298	28.71
755.478	28.45
755.659	28.48
755.839	28.95
756.02	28.72
756.2	28.94
756.381	29.14
756.561	28.62
756.741	28.15
756.922	28.11
757.102	28.75
757.283	29.21
757.463	29.65
757.643	29.55
757.823	29.31
758.004	28.85
758.184	28.6
758.364	28.2
758.545	27.81
758.725	27.77
758.905	28.06
759.085	27.6
759.265	27.54
759.446	27.04
759.626	26.96
759.806	27.13
759.986	27.44
760.166	27.5
760.346	27.26
760.526	27.37
760.706	27.19
760.886	27.01
761.066	27.41
761.246	27.2
761.426	27.7
761.606	27.84
761.786	27.2
761.966	27.35
762.146	27.05
762.326	27.41
762.506	27.1
762.686	27.13
762.866	27.61
763.046	27.48
763.225	27.21
763.405	27.27
763.585	27.1
763.765	27.59
763.945	27.15
764.124	27.44
764.304	27.41
764.484	28.11
764.664	28.32
764.843	28.32
765.023	28.23
765.203	28.59
765.382	29.14
765.562	29.47
765.741	29.65
765.921	29.97
766.101	29.86
766.28	30.21
766.46	30.35
766.639	30.56
766.819	30.93
766.998	31.62
767.178	31.2
767.357	30.43
767.537	30.07
767.716	29.85
767.896	30.25
768.075	29.8
768.254	29.85
768.434	29.36
768.613	29.96
768.792	29.92
768.972	29.56
769.151	30.08
769.33	30.62
769.51	31.57
769.689	31.68
769.868	31.48
770.047	32.29
770.226	32.53
770.406	32.59
770.585	31.72
770.764	31.31
770.943	31.27
771.122	31.13
771.301	30.66
771.48	31.29
771.66	31.37
771.839	31.98
772.018	32.4
772.197	32.31
772.376	32.89
772.555	33.53
772.734	33.6
772.913	33.79
773.092	34.59
773.271	34.52
773.449	33.87
773.628	34.11
773.807	33.71
773.986	33.58
774.165	33.48
774.344	33.21
774.523	33.37
774.701	33.38
774.88	33.32
775.059	32.55
775.238	32.67
775.417	32.54
775.595	32.53
775.774	32.06
775.953	32.15
776.131	32.44
776.31	32.54
776.489	32.51
776.667	32.52
776.846	32.53
777.025	32.44
777.203	32.77
777.382	32.36
777.56	32
777.739	32.56
777.917	32.31
778.096	32.11
778.274	32.37
778.453	32.41
778.631	31.7
778.81	31.39
778.988	31.86
779.166	31.98
779.345	31.47
779.523	31.9
779.702	31.4
779.88	31.35
780.058	30.93
780.237	30.68
780.415	29.78
780.593	29.86
780.771	30.08
780.95	29.94
781.128	29.83
781.306	31.67
781.484	31.12
781.662	32.4
781.841	31.77
782.019	31.99
782.197	31.53
782.375	32.09
782.553	32.93
782.731	33.23
782.909	33.84
783.087	33.68
783.265	32.75
783.443	32.45
783.621	32.46
783.799	33.26
783.977	33.16
784.155	33.01
784.333	33.78
784.511	33.63
784.689	34.11
784.867	34.01
785.045	33.67
785.223	32.89
785.4	34.31
785.578	33.97
785.756	34.72
785.934	34.7
786.112	35.53
786.289	34.4
786.467	33.02
786.645	32.46
786.823	32.48
787	32.34
787.178	32.46
787.356	30.81
787.533	30.88
787.711	30.47
787.889	29.71
788.066	29.04
788.244	29.86
788.421	30.29
788.599	29.6
788.776	29.71
788.954	29.68
789.131	28.97
789.309	30.09
789.486	29.55
789.664	28.75
789.841	29.69
790.019	29.91
790.196	28.61
790.373	29.54
790.551	29.85
790.728	29.58
790.906	29.42
791.083	30.3
791.26	29.89
791.437	30.59
791.615	31.74
791.792	30.82
791.969	31
792.146	32.45
792.324	32.33
792.501	32.4
792.678	32.97
792.855	34.13
793.032	34.01
793.209	34.5
793.387	34.36
793.564	33.87
793.741	34.16
793.918	33.77
794.095	33.07
794.272	32.28
794.449	33.24
794.626	31.32
794.803	30.18
794.98	31.23
795.157	29.22
795.334	28.63
795.511	29.14
795.688	29.99
795.864	29.41
796.041	30.07
796.218	29.63
796.395	28.91
796.572	29.55
796.749	29.45
796.925	29
797.102	30.57
797.279	30.1
797.456	30.64
797.632	30.44
797.809	30.58
797.986	29.22
798.162	30.74
798.339	31.29
798.516	31.69
798.692	31.71
798.869	31.23
799.046	31.92
799.222	32.58
799.399	32.31
799.575	32.02
799.752	32.19
799.928	32.94
800.105	32.58
800.281	31.19
800.458	31.51
800.634	33.09
800.811	32.86
800.987	32.04
801.163	31.44
801.34	30.58
801.516	30.16
801.692	30.92
801.869	31.93
802.045	31.15
802.221	31.47
802.398	30.52
802.574	29.82
802.75	30.79
802.926	31.21
803.103	30.64
803.279	30.57
803.455	31.04
803.631	30.23
803.807	28.44
803.983	28.19
804.16	28.7
804.336	28.42
804.512	28.78
804.688	28.51
804.864	26.59
805.04	27.76
805.216	26.42
805.392	26.7
805.568	26.92
805.744	28.11
805.92	28.76
806.096	29.22
806.272	30.05
806.448	29.58
806.623	28.68
806.799	29.46
806.975	29.11
807.151	31.04
807.327	28.74
807.503	29.26
807.678	29.24
807.854	29.62
808.03	29.24
808.206	29.33
808.381	29.22
808.557	28.89
808.733	29.56
808.908	30.02
809.084	29.67
809.26	32.01
809.435	32.14
809.611	33.69
809.787	33.8
809.962	34.13
810.138	33.83
810.313	33.3
810.489	34.88
810.664	34.69
810.84	34.09
811.015	34.43
811.191	32.64
811.366	33.31
811.542	31.62
811.717	30.8
811.892	29.96
812.068	32.1
812.243	32.47
812.419	32.52
812.594	32.07
812.769	31.39
812.944	31.32
813.12	31.99
813.295	31.87
813.47	31.51
813.645	32.18
813.821	32.65
813.996	30.91
814.171	30.89
814.346	29.21
814.521	29.65
814.697	31.01
814.872	30.74
815.047	31.05
815.222	30.54
815.397	29.84
815.572	29.67
815.747	29.85
815.922	29.05
816.097	29.57
816.272	30.78
816.447	31.01
816.622	31.05
816.797	31.2
816.972	32.07
817.147	31.41
817.322	33.56
817.496	32.66
817.671	33.58
817.846	34.03
818.021	32.63
818.196	31.92
818.371	31.34
818.545	30.97
818.72	30.46
818.895	29.48
819.069	29.04
819.244	27.59
819.419	28.43
819.594	27.88
819.768	26.93
819.943	28.26
820.117	28.88
820.292	29.34
820.467	28.88
820.641	29.18
820.816	29.3
820.99	28.79
821.165	28.28
821.339	27.54
821.514	27.07
821.688	27.37
821.863	26.91
822.037	26.68
822.212	26.4
822.386	26.49
822.56	26.28
822.735	26.25
822.909	26.18
823.084	26.33
823.258	26.68
823.432	26.81
823.606	26.63
823.781	26.52
823.955	26.4
824.129	26.4
824.303	26.17
824.478	26.16
824.652	25.68
824.826	26.19
825	26.27
825.174	25.7
825.348	25.71
825.523	25.89
825.697	25.64
825.871	25.99
826.045	25.97
826.219	25.81
826.393	25.94
826.567	25.79
826.741	25.82
826.915	25.59
827.089	25.52
827.263	25.42
827.437	25.19
827.611	25.55
827.784	25.48
827.958	25.59
828.132	25.77
828.306	25.53
828.48	25.84
828.654	25.59
828.827	25.17
829.001	25.44
829.175	25.07
829.349	25.25
829.522	25.87
829.696	26.52
829.87	26.26
830.044	26.74
830.217	27.25
830.391	27.58
830.565	27.13
830.738	27.17
830.912	26.47
831.085	26.54
831.259	26.94
831.432	26.35
831.606	25.62
831.779	26.08
831.953	25.72
832.126	25.99
832.3	27.05
832.473	26.73
832.647	27.22
832.82	27.83
832.994	27.96
833.167	27.32
833.34	27.82
833.514	27.03
833.687	26.6
833.86	26.92
834.034	26.45
834.207	26.45
834.38	27.17
834.553	26.91
834.727	26.9
834.9	27.38
835.073	27.52
835.246	27.13
835.419	27.7
835.593	28.55
835.766	28.28
835.939	28.61
836.112	28.16
836.285	27.13
836.458	28.59
836.631	28.34
836.804	28.25
836.977	28.64
837.15	28.27
837.323	29.17
837.496	29.38
837.669	29.72
837.842	29.36
838.015	29.43
838.188	31.05
838.361	29.1
838.533	28.15
838.706	27.84
838.879	27.98
839.052	27.74
839.225	26.38
839.398	24.91
839.57	25.18
839.743	25.95
839.916	26.37
840.088	27.46
840.261	29.12
840.434	31.47
840.607	31.52
840.779	31.44
840.952	33.04
841.124	33.08
841.297	33.13
841.47	33.68
841.642	33.62
841.815	34.27
841.987	32.05
842.16	32.39
842.332	32.87
842.505	33.1
842.677	34.06
842.85	32.91
843.022	32.74
843.194	32.19
843.367	32.27
843.539	33.48
843.712	30.98
843.884	32.43
844.056	31.72
844.229	29.23
844.401	26.82
844.573	26.02
844.745	25.74
844.918	27.72
845.09	29.79
845.262	29.42
845.434	29.25
845.606	29.41
845.779	28.49
845.951	27.26
846.123	28.34
846.295	30.54
846.467	30.69
846.639	30.16
846.811	31.94
846.983	31.21
847.155	34.02
847.327	36.15
847.499	36.9
847.671	35.98
847.843	35.5
848.015	33.74
848.187	34.79
848.359	33.76
848.531	32.09
848.703	28.32
848.875	30.34
849.047	27.46
849.218	24.62
849.39	27.79
849.562	31.86
849.734	28.14
849.905	35.17
850.077	39.48
850.249	40.07
850.421	43.47
850.592	41.95
850.764	41.74
850.936	41.58
851.107	38.84
851.279	33.45
851.451	27.98
851.622	31.29
851.794	26.29
851.965	21.81
852.137	20.45
852.308	20.35
852.48	22.38
852.651	18.16
852.823	15.34
852.994	16.34
853.166	18.26
853.337	23.78
853.509	25.34
853.68	25.91
853.851	27.21
854.023	25.5
854.194	27.79
854.365	25.19
854.537	26.66
854.708	31.32
854.879	33.46
855.05	35.18
855.222	32.01
855.393	31
855.564	31.28
855.735	28.32
855.906	32.15
856.078	32.21
856.249	31.48
856.42	33.37
856.591	31.64
856.762	30.57
856.933	28.9
857.104	29.77
857.275	30.42
857.446	28.7
857.617	30.81
857.788	28.23
857.959	29.92
858.13	35.07
858.301	31.67
858.472	32.19
858.643	33.45
858.814	33.45
858.985	26.52
859.155	21.24
859.326	24.83
859.497	26.02
859.668	26.78
859.839	21.31
860.009	17.46
860.18	16.03
860.351	11.73
860.522	13.21
860.692	14.89
860.863	21.74
861.034	26.78
861.204	23.41
861.375	18.85
861.546	22.68
861.716	23.33
861.887	24.42
862.057	30.54
862.228	34.1
862.398	32.93
862.569	34.06
862.739	35.37
862.91	35.5
863.08	38.17
863.251	40.51
863.421	37.03
863.592	32.87
863.762	36.88
863.932	33.22
864.103	32.44
864.273	30.95
864.443	28.43
864.614	23.26
864.784	25.36
864.954	23.4
865.125	21.23
865.295	20.69
865.465	23.58
865.635	21.51
865.805	24.91
865.976	27.31
866.146	28.05
866.316	27.23
866.486	32.33
866.656	30.99
866.826	34.96
866.996	37.43
867.166	38.05
867.336	38.38
867.506	36.01
867.676	30.31
867.846	29.43
868.016	33.06
868.186	33
868.356	31.5
868.526	27.58
868.696	27.95
868.866	30.25
869.036	29.54
869.206	30.91
869.376	28.73
869.545	34.11
869.715	36.83
869.885	34.94
870.055	40.92
870.224	40.41
870.394	42.75
870.564	40.76
870.734	42.47
870.903	43.73
871.073	44.48
871.243	43.88
871.412	40.72
871.582	36.78
871.751	35.43
871.921	28.81
872.091	27.68
872.26	26.44
872.43	27.93
872.599	23.47
872.769	23.1
872.938	20.64
873.108	24.42
873.277	27.97
873.446	32.53
873.616	32.55
873.785	29.94
873.955	29.55
874.124	30.99
874.293	26.05
874.463	28.9
874.632	28.3
874.801	26.56
874.971	24.6
875.14	22.57
875.309	18.64
875.478	19.68
875.647	27.96
875.817	27.94
875.986	30.45
876.155	34.55
876.324	32.68
876.493	31.37
876.662	34.11
876.831	30.64
877	28.9
877.17	25.85
877.339	28.69
877.508	27.99
877.677	30.66
877.846	29.11
878.015	24.23
878.184	25.46
878.352	27.05
878.521	27.88
878.69	31.41
878.859	32.27
879.028	34.33
879.197	30.44
879.366	27.49
879.534	24.61
879.703	22.4
879.872	24.34
880.041	24.74
880.21	23.97
880.378	23.79
880.547	22.66
880.716	23.06
880.884	22.78
881.053	22.4
881.222	22.39
881.39	22.96
881.559	23.43
881.727	22.89
881.896	22.2
882.065	22.11
882.233	21.68
882.402	21.39
882.57	21.01
882.739	20.6
882.907	20.78
883.076	20.63
883.244	20.28
883.412	19.47
883.581	19.88
883.749	19.15
883.918	18.77
884.086	18.85
884.254	19.39
884.423	19.52
884.591	19.68
884.759	20.14
884.927	19.61
885.096	18.46
885.264	18.91
885.432	18.05
885.6	19.59
885.769	19.09
885.937	17.74
886.105	16.87
886.273	18.44
886.441	18.74
886.609	17.38
886.777	19.27
886.945	22.82
887.113	23.81
887.281	20.76
887.449	21.51
887.617	23.35
887.785	26.34
887.953	30
888.121	28.05
888.289	27.46
888.457	27.8
888.625	28.14
888.793	25.91
888.961	28.63
889.129	26.54
889.296	25.6
889.464	26.08
889.632	24.35
889.8	20.62
889.967	19.05
890.135	22.22
