Data from 2938822__Reflection_01.txt Node
Date: Thu Mar 12 14:21:51 EDT 2015
User: robert
Spectrometer: USB4E03002
Autoset integration time: false
Trigger mode: 4
Integration Time (sec): 1.000000E-1
Scans to average: 10
Electric dark correction enabled: false
Nonlinearity correction enabled: false
Boxcar width: 5
Stray light correction enabled: false
XAxis mode: Wavelengths
Stop averaging: false
Number of Pixels in Spectrum: 3648
>>>>>Begin Spectral Data<<<<<
177.575	-12.41
177.794	-27.22
178.014	18.98
178.233	21.74
178.452	14.95
178.672	9.09
178.891	18.61
179.11	-5.49
179.33	6.68
179.549	8.35
179.768	-13.81
179.987	-8.04
180.207	-34.19
180.426	-133.96
180.645	-394.74
180.864	-453.4
181.084	-1029.27
181.303	345.16
181.522	2945.45
181.741	-868.42
181.96	-267.95
182.179	-518.84
182.398	-1428
182.618	-556.25
182.837	170
183.056	97.39
183.275	55.9
183.494	53.02
183.713	96.25
183.932	82.44
184.151	110.03
184.37	80.32
184.589	45.14
184.808	59.19
185.027	73.11
185.246	75.51
185.465	104.01
185.684	132.68
185.903	97.93
186.122	81.11
186.341	61.87
186.56	38.1
186.779	41.81
186.998	99.48
187.216	98.62
187.435	111.04
187.654	128.69
187.873	71.26
188.092	51.26
188.311	90.18
188.53	112.28
188.748	113.37
188.967	123.93
189.186	73.55
189.405	64.67
189.623	32.83
189.842	16.67
190.061	-1.46
190.28	35.55
190.498	88.97
190.717	68.59
190.936	87.67
191.154	78.17
191.373	60.04
191.592	88.31
191.81	75.68
192.029	106.81
192.248	110.57
192.466	118.18
192.685	140.3
192.904	135.23
193.122	177.08
193.341	148.57
193.559	143.68
193.778	312.9
193.996	-160.18
194.215	-94.83
194.433	-464.71
194.652	88.65
194.87	52.87
195.089	64.24
195.307	8.26
195.526	20.69
195.744	31.58
195.963	33.66
196.181	132.99
196.399	109.28
196.618	191.74
196.836	465.45
197.055	4.44
197.273	227.08
197.491	300
197.71	576.67
197.928	478.05
198.146	260.66
198.365	110.41
198.583	106.4
198.801	34.54
199.019	57.42
199.238	59.02
199.456	84.14
199.674	95.58
199.892	33.16
200.111	40.83
200.329	64.36
200.547	73.63
200.765	-1000
200.983	121.05
201.202	-1377.78
201.42	1707.14
201.638	253.77
201.856	1975
202.074	-1653.33
202.292	569.12
202.51	1002.04
202.728	304.84
202.946	407.64
203.165	226.01
203.383	285.43
203.601	188.53
203.819	107.58
204.037	151.38
204.255	207.06
204.473	236.78
204.691	522.11
204.909	326.95
205.127	480
205.345	329.86
205.562	-3637.5
205.78	64.84
205.998	62.77
206.216	126.86
206.434	69.12
206.652	50
206.87	52.63
207.088	58.4
207.306	38.56
207.523	24.67
207.741	16.67
207.959	37.16
208.177	52.57
208.395	65.02
208.612	51
208.83	60.87
209.048	83.8
209.266	70.16
209.483	72.17
209.701	89.8
209.919	103.39
210.136	125.87
210.354	90.16
210.572	86.05
210.79	71.3
211.007	77.14
211.225	71.92
211.442	57.02
211.66	50.43
211.878	46.18
212.095	41.24
212.313	31.99
212.53	22.35
212.748	47.18
212.966	43.83
213.183	60.32
213.401	58.53
213.618	55.49
213.836	67.02
214.053	71.12
214.271	72.46
214.488	88.29
214.705	79.12
214.923	85.02
215.14	66.91
215.358	69.08
215.575	48.4
215.793	49.15
216.01	45.2
216.227	34.01
216.445	40.9
216.662	38.24
216.879	31.83
217.097	35.29
217.314	32.7
217.531	54.22
217.749	63.4
217.966	34.78
218.183	39.74
218.4	45.07
218.618	48.97
218.835	41.17
219.052	26.13
219.269	41.9
219.487	37.92
219.704	40.41
219.921	33.04
220.138	30.43
220.355	43.8
220.572	42.28
220.79	42.23
221.007	30.88
221.224	34.32
221.441	45.53
221.658	32.72
221.875	29.03
222.092	27.23
222.309	34.37
222.526	32.84
222.743	33.81
222.96	26.45
223.177	29.43
223.394	33.17
223.611	30.15
223.828	21.54
224.045	28.41
224.262	28.8
224.479	24.26
224.696	18.51
224.913	21.72
225.13	17.71
225.347	22.24
225.564	16.29
225.781	11.27
225.997	13.9
226.214	14.33
226.431	11.22
226.648	13.83
226.865	12.64
227.082	12.3
227.298	11.04
227.515	10.02
227.732	9.89
227.949	10.05
228.165	10.12
228.382	9.13
228.599	8.98
228.816	9.44
229.032	8.82
229.249	8.66
229.466	8.38
229.682	8.34
229.899	8.07
230.116	7.91
230.332	7.39
230.549	8.68
230.765	7.89
230.982	7.97
231.199	6.87
231.415	6.94
231.632	7.5
231.848	7.09
232.065	6.45
232.281	7.82
232.498	6.87
232.714	9.89
232.931	8.97
233.147	9.93
233.364	8.78
233.58	10.33
233.797	9.01
234.013	9.23
234.23	9.36
234.446	8.57
234.662	7.36
234.879	7.51
235.095	5.44
235.312	6.07
235.528	6.8
235.744	7.8
235.961	9
236.177	10
236.393	9.55
236.61	10.11
236.826	11.13
237.042	11.22
237.258	12.02
237.475	14.46
237.691	14.6
237.907	13.77
238.123	12.84
238.339	12.02
238.556	9.83
238.772	10.11
238.988	8.81
239.204	9.47
239.42	9.07
239.636	9.12
239.853	6.88
240.069	6.18
240.285	7.21
240.501	7.44
240.717	7
240.933	7.65
241.149	8.34
241.365	8.76
241.581	8.08
241.797	8.44
242.013	8.19
242.229	7.79
242.445	7.7
242.661	7.12
242.877	6.99
243.093	7
243.309	7.79
243.525	6.62
243.741	6.21
243.957	7.18
244.173	6.66
244.388	6.52
244.604	7.22
244.82	7.34
245.036	7.26
245.252	7.81
245.468	7.59
245.683	6.45
245.899	6.9
246.115	6.93
246.331	6.16
246.547	6.55
246.762	6.77
246.978	6.54
247.194	6.56
247.409	6.56
247.625	6.67
247.841	6.84
248.057	7.24
248.272	7.32
248.488	7.64
248.703	7.66
248.919	7.54
249.135	7.51
249.35	7.59
249.566	7.58
249.782	8
249.997	7.37
250.213	7.09
250.428	6.55
250.644	5.88
250.859	5.55
251.075	5.36
251.29	5.43
251.506	5.06
251.721	4.97
251.937	5.1
252.152	5.59
252.368	5.91
252.583	5.74
252.798	6.09
253.014	6.09
253.229	6.02
253.445	6.55
253.66	6.33
253.875	7.17
254.091	7.27
254.306	7.27
254.521	6.8
254.737	6.67
254.952	5.56
255.167	5.81
255.383	6.33
255.598	6.17
255.813	5.55
256.028	6.05
256.244	5.85
256.459	6.43
256.674	5.79
256.889	5.83
257.104	5.7
257.32	6.58
257.535	6.3
257.75	6.69
257.965	6.71
258.18	7.11
258.395	6.61
258.61	6.21
258.826	5.79
259.041	5.68
259.256	5.48
259.471	5.7
259.686	5.76
259.901	5.59
260.116	5.34
260.331	5.49
260.546	5.38
260.761	5.55
260.976	5.53
261.191	6.09
261.406	6.7
261.621	6.74
261.836	6.4
262.05	6.29
262.265	6.27
262.48	6.14
262.695	5.85
262.91	5.99
263.125	5.61
263.34	5.32
263.555	4.14
263.769	3.96
263.984	3.95
264.199	3.9
264.414	4.18
264.629	4.46
264.843	5.14
265.058	5.11
265.273	4.86
265.488	5.57
265.702	6.11
265.917	6.41
266.132	5.85
266.346	5.87
266.561	6.19
266.776	6.09
266.99	6.04
267.205	6.01
267.42	6.3
267.634	6.66
267.849	6.12
268.063	5.97
268.278	6.18
268.492	6.72
268.707	6.62
268.922	6.65
269.136	6.56
269.351	6.49
269.565	6.18
269.78	5.82
269.994	5.48
270.209	5.78
270.423	5.65
270.637	5.71
270.852	5.35
271.066	5.43
271.281	5.12
271.495	5.15
271.709	5.19
271.924	5.26
272.138	5.37
272.353	5.28
272.567	5.5
272.781	5.7
272.996	5.46
273.21	5.22
273.424	5.49
273.638	5.56
273.853	5.3
274.067	5.18
274.281	5.31
274.495	5.3
274.71	5.67
274.924	5.26
275.138	4.48
275.352	4.49
275.566	4.55
275.781	4.71
275.995	4.7
276.209	4.92
276.423	5.23
276.637	5.17
276.851	5.56
277.065	5.32
277.279	5.28
277.493	5.69
277.707	5.37
277.921	5.18
278.135	4.83
278.349	5.04
278.563	4.95
278.777	4.81
278.991	4.78
279.205	4.37
279.419	4.72
279.633	4.83
279.847	5.2
280.061	5.84
280.275	6.1
280.489	6.17
280.703	5.75
280.917	5.9
281.131	5.56
281.344	5.55
281.558	5.41
281.772	5.16
281.986	4.89
282.2	4.57
282.414	4.31
282.627	4.2
282.841	4.45
283.055	4.84
283.269	4.94
283.482	5.21
283.696	5.04
283.91	4.79
284.123	4.93
284.337	5.14
284.551	5.26
284.764	5.19
284.978	5.33
285.192	5.16
285.405	4.93
285.619	4.68
285.833	4.77
286.046	4.81
286.26	4.99
286.473	4.96
286.687	4.95
286.9	5.22
287.114	5.44
287.327	5.37
287.541	4.99
287.754	5.55
287.968	5.68
288.181	5.78
288.395	5.83
288.608	6.12
288.822	5.94
289.035	6.11
289.248	5.92
289.462	5.91
289.675	5.9
289.889	6.13
290.102	5.75
290.315	5.89
290.529	5.76
290.742	6.1
290.955	6.06
291.169	6.06
291.382	5.83
291.595	6
291.808	6.02
292.022	6.33
292.235	6.52
292.448	6.63
292.661	6.7
292.875	6.85
293.088	6.67
293.301	6.56
293.514	7.18
293.727	7.68
293.94	7.34
294.153	7.3
294.367	7.18
294.58	7.37
294.793	7.51
295.006	7.5
295.219	7.22
295.432	7.36
295.645	7.55
295.858	7.26
296.071	7.25
296.284	7.68
296.497	7.81
296.71	7.35
296.923	7.4
297.136	7.42
297.349	7.64
297.562	7.88
297.775	7.88
297.988	7.73
298.201	7.72
298.414	7.63
298.626	7.33
298.839	7.41
299.052	8.05
299.265	7.81
299.478	7.74
299.691	7.52
299.903	7.69
300.116	7.93
300.329	8.25
300.542	8.4
300.755	8.64
300.967	8.84
301.18	8.56
301.393	8.42
301.605	8.57
301.818	8.77
302.031	9.11
302.243	8.84
302.456	8.45
302.669	8.49
302.881	8.18
303.094	8.26
303.307	8.31
303.519	8.41
303.732	8.62
303.944	8.79
304.157	8.81
304.37	8.65
304.582	9.02
304.795	9.18
305.007	9.59
305.22	10.04
305.432	9.59
305.645	9.57
305.857	9.43
306.069	9.78
306.282	9.81
306.494	9.77
306.707	9.93
306.919	9.94
307.132	10.29
307.344	9.96
307.556	10.15
307.769	10.62
307.981	11.21
308.193	11.39
308.406	11.03
308.618	11.16
308.83	11.43
309.043	11.4
309.255	11.4
309.467	11.3
309.679	11.14
309.892	11.04
310.104	11.08
310.316	10.94
310.528	11.26
310.74	11.41
310.953	11.38
311.165	11.42
311.377	11.43
311.589	11.44
311.801	11.73
312.013	11.65
312.225	11.62
312.437	11.51
312.649	11.35
312.862	11.18
313.074	11.13
313.286	11.05
313.498	10.88
313.71	10.94
313.922	10.92
314.134	10.13
314.346	10.06
314.558	10.08
314.77	9.95
314.982	10.2
315.193	10.52
315.405	10.33
315.617	10.42
315.829	10.25
316.041	10.33
316.253	10.63
316.465	10.96
316.677	11.63
316.888	11.56
317.1	11.67
317.312	11.36
317.524	11.01
317.736	11.79
317.947	12.15
318.159	12.55
318.371	12.87
318.583	12.88
318.794	12.83
319.006	12.48
319.218	12.82
319.43	12.71
319.641	12.99
319.853	13.25
320.064	12.71
320.276	12.32
320.488	12.05
320.699	11.78
320.911	11.4
321.123	11.73
321.334	11.9
321.546	11.84
321.757	11.87
321.969	11.38
322.18	11.35
322.392	11.3
322.603	11.18
322.815	11.23
323.026	11.11
323.238	10.89
323.449	10.95
323.661	10.97
323.872	10.89
324.083	11.16
324.295	11.22
324.506	11.31
324.718	11.53
324.929	11.71
325.14	11.75
325.352	11.61
325.563	11.81
325.774	11.44
325.986	11.22
326.197	11.13
326.408	10.9
326.62	11.09
326.831	10.88
327.042	10.7
327.253	10.44
327.464	10.67
327.676	10.43
327.887	10.78
328.098	11.03
328.309	11.23
328.52	11.35
328.732	11.68
328.943	11.94
329.154	11.99
329.365	11.85
329.576	11.4
329.787	11.32
329.998	11.73
330.209	11.45
330.42	11.59
330.631	12.22
330.842	12.42
331.053	12.1
331.264	11.79
331.475	11.98
331.686	12.05
331.897	12.54
332.108	12.51
332.319	12.29
332.53	12.21
332.741	12.31
332.952	11.74
333.163	11.76
333.374	11.86
333.585	11.82
333.795	11.47
334.006	11.39
334.217	11.36
334.428	11.16
334.639	11.35
334.849	10.78
335.06	10.45
335.271	10.37
335.482	9.91
335.692	10.21
335.903	10.45
336.114	10.43
336.325	10.9
336.535	11.13
336.746	11.04
336.957	10.93
337.167	11.32
337.378	11.2
337.589	11.3
337.799	11.59
338.01	11.33
338.22	11.12
338.431	11.35
338.642	10.76
338.852	10.53
339.063	10.48
339.273	10.6
339.484	10.92
339.694	10.95
339.905	10.97
340.115	10.88
340.326	10.8
340.536	10.79
340.746	10.65
340.957	10.61
341.167	10.77
341.378	11.04
341.588	10.84
341.799	10.6
342.009	10.66
342.219	10.36
342.43	10.22
342.64	10.16
342.85	9.94
343.061	9.85
343.271	9.8
343.481	9.62
343.691	9.32
343.902	9.53
344.112	9.25
344.322	9.22
344.532	9.29
344.743	9.72
344.953	9.67
345.163	9.81
345.373	9.83
345.583	10.12
345.793	10.21
346.004	10.59
346.214	10.58
346.424	10.99
346.634	10.99
346.844	11.17
347.054	10.87
347.264	10.73
347.474	10.52
347.684	10.68
347.894	10.48
348.104	10.23
348.314	10.07
348.524	9.82
348.734	9.65
348.944	9.84
349.154	9.89
349.364	9.76
349.574	9.65
349.784	10.1
349.994	10.09
350.204	9.9
350.413	9.86
350.623	9.75
350.833	9.9
351.043	9.97
351.253	9.91
351.463	10.05
351.672	9.99
351.882	10.19
352.092	9.77
352.302	9.62
352.511	9.7
352.721	10.01
352.931	9.96
353.141	9.65
353.35	9.36
353.56	9.43
353.77	8.88
353.979	8.79
354.189	8.95
354.399	9.1
354.608	9.11
354.818	8.91
355.027	8.86
355.237	8.7
355.447	8.87
355.656	8.94
355.866	8.66
356.075	8.63
356.285	8.9
356.494	8.51
356.704	8.7
356.913	8.63
357.123	9.16
357.332	9.19
357.542	9.33
357.751	9.36
357.96	9.52
358.17	9.62
358.379	9.86
358.589	9.93
358.798	10.01
359.007	9.87
359.217	9.77
359.426	9.43
359.635	9.29
359.845	9.17
360.054	9.15
360.263	9
360.472	9.01
360.682	8.89
360.891	8.78
361.1	8.84
361.309	8.81
361.519	8.94
361.728	9.14
361.937	9.23
362.146	9.27
362.355	9.24
362.564	9.2
362.774	9.23
362.983	9.21
363.192	9.16
363.401	9.14
363.61	9.1
363.819	8.93
364.028	8.84
364.237	8.53
364.446	8.49
364.655	8.45
364.864	8.59
365.073	8.7
365.282	8.56
365.491	8.41
365.7	8.42
365.909	8.53
366.118	8.66
366.327	8.5
366.536	8.88
366.745	8.87
366.954	9.07
367.162	8.98
367.371	8.76
367.58	9.11
367.789	8.9
367.998	8.8
368.207	8.65
368.415	8.78
368.624	9
368.833	8.82
369.042	8.56
369.25	8.31
369.459	8.24
369.668	8.13
369.877	8.06
370.085	8.24
370.294	8.41
370.503	8.24
370.711	8.18
370.92	7.73
371.129	7.81
371.337	7.76
371.546	7.73
371.754	7.69
371.963	7.7
372.171	7.61
372.38	7.52
372.589	7.6
372.797	7.87
373.006	7.81
373.214	7.9
373.423	7.7
373.631	8.16
373.84	8.14
374.048	7.98
374.256	8.02
374.465	7.86
374.673	8.11
374.882	7.9
375.09	7.63
375.298	7.66
375.507	7.84
375.715	7.88
375.923	7.51
376.132	7.49
376.34	7.55
376.548	7.52
376.757	7.65
376.965	7.7
377.173	7.67
377.381	7.66
377.59	7.52
377.798	7.48
378.006	7.44
378.214	7.49
378.423	7.35
378.631	7.32
378.839	7.3
379.047	7.19
379.255	7.15
379.463	7.26
379.671	7.21
379.879	7.06
380.088	6.98
380.296	7.15
380.504	7.27
380.712	7.44
380.92	7.47
381.128	7.44
381.336	7.41
381.544	7.01
381.752	6.85
381.96	6.74
382.168	6.96
382.376	7.13
382.584	6.88
382.791	6.63
382.999	6.56
383.207	6.48
383.415	6.41
383.623	6.15
383.831	6.42
384.039	6.4
384.247	6.53
384.454	6.45
384.662	6.16
384.87	6.01
385.078	6.34
385.285	6.2
385.493	6.31
385.701	6.36
385.909	6.47
386.116	6.46
386.324	6.44
386.532	6.27
386.739	6.33
386.947	6.53
387.155	6.45
387.362	6.43
387.57	6.45
387.778	6.3
387.985	6.29
388.193	6.39
388.4	6.34
388.608	6.58
388.816	6.87
389.023	6.76
389.231	6.4
389.438	6.57
389.646	6.43
389.853	6.4
390.061	6.37
390.268	6.39
390.475	6.29
390.683	6.22
390.89	5.93
391.098	5.72
391.305	5.53
391.512	5.87
391.72	6
391.927	5.76
392.135	5.71
392.342	5.73
392.549	5.78
392.756	5.81
392.964	5.84
393.171	5.96
393.378	6.1
393.586	6.44
393.793	6.11
394	6.06
394.207	6.15
394.414	6.24
394.622	6.24
394.829	6.18
395.036	5.97
395.243	5.99
395.45	5.99
395.657	6.03
395.864	5.94
396.072	6
396.279	5.87
396.486	5.88
396.693	5.88
396.9	5.86
397.107	5.67
397.314	5.91
397.521	6.02
397.728	6.04
397.935	5.88
398.142	5.77
398.349	5.92
398.556	5.86
398.763	5.75
398.97	5.65
399.177	5.85
399.383	5.87
399.59	5.6
399.797	5.42
400.004	5.2
400.211	5.09
400.418	5.11
400.625	4.92
400.831	4.97
401.038	5.08
401.245	5.11
401.452	4.88
401.658	4.87
401.865	5.11
402.072	5.18
402.279	5.31
402.485	5.37
402.692	5.27
402.899	5.4
403.105	5.34
403.312	5.35
403.519	5.26
403.725	5.34
403.932	5.29
404.138	5.42
404.345	5.43
404.552	5.3
404.758	5.34
404.965	5.42
405.171	5.41
405.378	5.58
405.584	5.69
405.791	5.81
405.997	5.67
406.204	5.69
406.41	5.57
406.617	5.64
406.823	5.67
407.029	5.79
407.236	5.85
407.442	5.8
407.649	5.69
407.855	5.56
408.061	5.67
408.268	5.78
408.474	5.94
408.68	6.03
408.887	5.91
409.093	5.96
409.299	5.74
409.505	5.64
409.712	5.7
409.918	5.73
410.124	5.7
410.33	5.59
410.537	5.56
410.743	5.47
410.949	5.28
411.155	5.28
411.361	5.39
411.567	5.41
411.773	5.29
411.98	5.15
412.186	5.07
412.392	4.92
412.598	4.92
412.804	4.94
413.01	4.98
413.216	5.05
413.422	4.85
413.628	4.88
413.834	4.95
414.04	5.06
414.246	5.23
414.452	5.27
414.658	5.32
414.864	5.35
415.07	5.45
415.275	5.48
415.481	5.51
415.687	5.63
415.893	5.51
416.099	5.48
416.305	5.35
416.511	5.27
416.716	5.26
416.922	5.27
417.128	5.29
417.334	5.17
417.539	5.11
417.745	5.09
417.951	5.1
418.157	5.13
418.362	5.15
418.568	5.27
418.774	5.24
418.979	5.2
419.185	5.19
419.391	5.1
419.596	5.14
419.802	5.16
420.008	5.14
420.213	5.12
420.419	5.07
420.624	5
420.83	4.94
421.035	4.93
421.241	4.93
421.446	4.97
421.652	4.93
421.857	4.87
422.063	4.84
422.268	4.87
422.474	4.76
422.679	4.73
422.885	4.78
423.09	4.81
423.295	4.76
423.501	4.78
423.706	4.74
423.911	4.76
424.117	4.77
424.322	4.76
424.527	4.83
424.733	4.88
424.938	4.85
425.143	4.74
425.349	4.74
425.554	4.78
425.759	4.77
425.964	4.79
426.169	4.89
426.375	4.92
426.58	4.93
426.785	4.8
426.99	4.8
427.195	4.79
427.4	4.94
427.605	4.9
427.811	4.86
428.016	4.86
428.221	4.84
428.426	4.73
428.631	4.62
428.836	4.67
429.041	4.7
429.246	4.84
429.451	4.95
429.656	4.78
429.861	4.75
430.066	4.9
430.271	4.87
430.476	4.91
430.681	4.89
430.886	4.95
431.09	4.96
431.295	4.82
431.5	4.7
431.705	4.71
431.91	4.79
432.115	4.78
432.32	4.7
432.524	4.76
432.729	4.75
432.934	4.76
433.139	4.82
433.343	4.77
433.548	4.83
433.753	4.77
433.958	4.72
434.162	4.79
434.367	4.82
434.572	4.9
434.776	4.9
434.981	4.85
435.186	5
435.39	4.91
435.595	4.86
435.799	4.82
436.004	4.87
436.209	4.95
436.413	4.81
436.618	4.77
436.822	4.62
437.027	4.6
437.231	4.58
437.436	4.41
437.64	4.45
437.845	4.48
438.049	4.51
438.253	4.55
438.458	4.52
438.662	4.53
438.867	4.6
439.071	4.59
439.275	4.54
439.48	4.48
439.684	4.52
439.888	4.5
440.093	4.51
440.297	4.6
440.501	4.59
440.706	4.6
440.91	4.55
441.114	4.47
441.318	4.57
441.523	4.58
441.727	4.67
441.931	4.72
442.135	4.75
442.339	4.73
442.543	4.57
442.748	4.45
442.952	4.42
443.156	4.58
443.36	4.62
443.564	4.58
443.768	4.51
443.972	4.48
444.176	4.55
444.38	4.58
444.584	4.54
444.788	4.73
444.992	4.91
445.196	4.79
445.4	4.73
445.604	4.72
445.808	4.75
446.012	4.77
446.216	4.76
446.42	4.67
446.624	4.61
446.828	4.62
447.032	4.52
447.235	4.45
447.439	4.48
447.643	4.49
447.847	4.46
448.051	4.36
448.254	4.35
448.458	4.36
448.662	4.28
448.866	4.31
449.069	4.24
449.273	4.19
449.477	4.11
449.681	4.19
449.884	4.11
450.088	4.11
450.292	4.16
450.495	4.1
450.699	4.17
450.902	4.25
451.106	4.24
451.31	4.28
451.513	4.4
451.717	4.42
451.92	4.37
452.124	4.41
452.327	4.56
452.531	4.55
452.734	4.61
452.938	4.51
453.141	4.55
453.345	4.57
453.548	4.67
453.752	4.63
453.955	4.72
454.158	4.72
454.362	4.69
454.565	4.59
454.769	4.65
454.972	4.8
455.175	4.93
455.379	4.88
455.582	4.88
455.785	4.81
455.988	4.86
456.192	4.76
456.395	4.79
456.598	4.81
456.801	4.84
457.005	4.74
457.208	4.55
457.411	4.51
457.614	4.37
457.817	4.42
458.021	4.47
458.224	4.47
458.427	4.53
458.63	4.57
458.833	4.55
459.036	4.47
459.239	4.53
459.442	4.65
459.645	4.56
459.848	4.56
460.051	4.53
460.254	4.52
460.457	4.5
460.66	4.51
460.863	4.49
461.066	4.51
461.269	4.5
461.472	4.49
461.675	4.46
461.878	4.44
462.081	4.6
462.284	4.6
462.486	4.57
462.689	4.5
462.892	4.45
463.095	4.49
463.298	4.51
463.5	4.6
463.703	4.57
463.906	4.62
464.109	4.68
464.311	4.7
464.514	4.7
464.717	4.75
464.92	4.77
465.122	4.8
465.325	4.8
465.528	4.78
465.73	4.78
465.933	4.74
466.135	4.59
466.338	4.7
466.541	4.68
466.743	4.61
466.946	4.6
467.148	4.63
467.351	4.71
467.553	4.76
467.756	4.72
467.958	4.63
468.161	4.76
468.363	4.87
468.566	4.77
468.768	4.63
468.971	4.63
469.173	4.5
469.375	4.43
469.578	4.34
469.78	4.2
469.983	4.29
470.185	4.4
470.387	4.37
470.59	4.22
470.792	4.17
470.994	4.29
471.196	4.3
471.399	4.35
471.601	4.45
471.803	4.45
472.005	4.45
472.208	4.32
472.41	4.21
472.612	4.17
472.814	4.08
473.016	4.1
473.218	4.03
473.421	4.14
473.623	4.19
473.825	4.1
474.027	4.11
474.229	4.14
474.431	4.23
474.633	4.34
474.835	4.32
475.037	4.46
475.239	4.56
475.441	4.65
475.643	4.52
475.845	4.51
476.047	4.52
476.249	4.5
476.451	4.49
476.653	4.4
476.855	4.41
477.057	4.35
477.258	4.31
477.46	4.21
477.662	4.14
477.864	4.18
478.066	4.15
478.268	4.11
478.469	4.01
478.671	3.99
478.873	4.07
479.075	4.02
479.276	3.99
479.478	4
479.68	4.09
479.882	4.14
480.083	4.1
480.285	4.09
480.487	4.11
480.688	4.19
480.89	4.22
481.091	4.16
481.293	4.17
481.495	4.23
481.696	4.26
481.898	4.21
482.099	4.21
482.301	4.22
482.502	4.24
482.704	4.26
482.905	4.28
483.107	4.27
483.308	4.27
483.51	4.25
483.711	4.23
483.913	4.21
484.114	4.19
484.315	4.17
484.517	4.2
484.718	4.21
484.92	4.19
485.121	4.15
485.322	4.12
485.524	4.12
485.725	4.13
485.926	4.12
486.127	4.13
486.329	4.16
486.53	4.18
486.731	4.13
486.932	4.12
487.134	4.14
487.335	4.16
487.536	4.17
487.737	4.14
487.938	4.14
488.139	4.13
488.341	4.14
488.542	4.13
488.743	4.07
488.944	4.1
489.145	4.08
489.346	4.08
489.547	4.09
489.748	4.07
489.949	4.09
490.15	4.11
490.351	4.15
490.552	4.16
490.753	4.12
490.954	4.17
491.155	4.16
491.356	4.18
491.557	4.15
491.758	4.15
491.959	4.16
492.159	4.2
492.36	4.16
492.561	4.16
492.762	4.13
492.963	4.16
493.164	4.16
493.364	4.16
493.565	4.16
493.766	4.2
493.967	4.14
494.167	4.14
494.368	4.12
494.569	4.22
494.769	4.24
494.97	4.29
495.171	4.36
495.371	4.37
495.572	4.37
495.773	4.36
495.973	4.39
496.174	4.49
496.375	4.54
496.575	4.48
496.776	4.49
496.976	4.53
497.177	4.51
497.377	4.5
497.578	4.46
497.778	4.47
497.979	4.54
498.179	4.47
498.38	4.37
498.58	4.39
498.78	4.43
498.981	4.38
499.181	4.35
499.382	4.32
499.582	4.28
499.782	4.27
499.983	4.29
500.183	4.28
500.383	4.33
500.584	4.37
500.784	4.26
500.984	4.34
501.184	4.37
501.385	4.38
501.585	4.43
501.785	4.5
501.985	4.59
502.185	4.6
502.386	4.6
502.586	4.6
502.786	4.63
502.986	4.8
503.186	4.83
503.386	4.75
503.586	4.79
503.786	4.87
503.987	4.84
504.187	4.86
504.387	4.8
504.587	4.85
504.787	4.89
504.987	4.97
505.187	4.86
505.387	4.78
505.587	4.86
505.786	4.8
505.986	4.74
506.186	4.78
506.386	4.85
506.586	4.93
506.786	4.87
506.986	4.96
507.186	4.96
507.386	5.13
507.585	5.24
507.785	5.31
507.985	5.36
508.185	5.47
508.384	5.44
508.584	5.43
508.784	5.43
508.984	5.37
509.183	5.29
509.383	5.35
509.583	5.36
509.782	5.37
509.982	5.31
510.182	5.39
510.381	5.37
510.581	5.47
510.781	5.53
510.98	5.6
511.18	5.72
511.379	5.77
511.579	5.69
511.778	5.65
511.978	5.67
512.177	5.79
512.377	5.74
512.576	5.8
512.776	5.72
512.975	5.7
513.175	5.7
513.374	5.69
513.573	5.75
513.773	5.88
513.972	5.9
514.172	5.94
514.371	5.96
514.57	5.94
514.77	5.9
514.969	5.96
515.168	6
515.367	6.04
515.567	6.11
515.766	6.13
515.965	6.2
516.164	6.34
516.364	6.41
516.563	6.48
516.762	6.69
516.961	6.83
517.16	6.91
517.359	7.01
517.559	7.1
517.758	7.1
517.957	7.13
518.156	7.1
518.355	7.15
518.554	7.17
518.753	7.17
518.952	7.12
519.151	7.08
519.35	7.08
519.549	7.03
519.748	7.14
519.947	7.23
520.146	7.36
520.345	7.4
520.544	7.39
520.743	7.46
520.942	7.46
521.141	7.58
521.339	7.65
521.538	7.82
521.737	7.94
521.936	7.97
522.135	8.02
522.333	8.05
522.532	8.19
522.731	8.31
522.93	8.35
523.129	8.56
523.327	8.68
523.526	8.76
523.725	8.85
523.923	8.95
524.122	8.94
524.321	9.03
524.519	9.11
524.718	9.19
524.917	9.23
525.115	9.37
525.314	9.41
525.512	9.44
525.711	9.56
525.909	9.58
526.108	9.64
526.306	9.76
526.505	9.87
526.703	9.92
526.902	10.01
527.1	10.11
527.299	10.14
527.497	10.16
527.696	10.19
527.894	10.23
528.092	10.26
528.291	10.29
528.489	10.33
528.688	10.34
528.886	10.35
529.084	10.34
529.283	10.35
529.481	10.34
529.679	10.39
529.877	10.44
530.076	10.45
530.274	10.5
530.472	10.55
530.67	10.56
530.869	10.63
531.067	10.71
531.265	10.82
531.463	10.91
531.661	11.05
531.859	11.14
532.057	11.2
532.255	11.27
532.454	11.35
532.652	11.42
532.85	11.51
533.048	11.55
533.246	11.67
533.444	11.68
533.642	11.71
533.84	11.73
534.038	11.83
534.236	11.88
534.434	11.97
534.632	12.04
534.83	12.08
535.027	12.11
535.225	12.19
535.423	12.21
535.621	12.31
535.819	12.4
536.017	12.51
536.215	12.49
536.412	12.61
536.61	12.65
536.808	12.71
537.006	12.86
537.203	12.94
537.401	12.98
537.599	12.99
537.797	13.09
537.994	13.09
538.192	13.11
538.39	13.19
538.587	13.22
538.785	13.27
538.983	13.28
539.18	13.22
539.378	13.35
539.575	13.41
539.773	13.5
539.97	13.54
540.168	13.63
540.366	13.7
540.563	13.74
540.761	13.75
540.958	13.77
541.155	13.81
541.353	13.88
541.55	13.95
541.748	14
541.945	14.07
542.143	14.13
542.34	14.13
542.537	14.14
542.735	14.21
542.932	14.22
543.129	14.24
543.327	14.31
543.524	14.37
543.721	14.36
543.919	14.38
544.116	14.39
544.313	14.4
544.51	14.43
544.708	14.52
544.905	14.5
545.102	14.66
545.299	14.74
545.496	14.82
545.693	14.88
545.891	14.85
546.088	14.94
546.285	14.99
546.482	15
546.679	15.1
546.876	15.09
547.073	15.12
547.27	15.05
547.467	15.1
547.664	15.05
547.861	15.01
548.058	15.1
548.255	15.03
548.452	15
548.649	15.02
548.846	15.14
549.043	15.19
549.24	15.22
549.437	15.26
549.633	15.19
549.83	15.17
550.027	15.23
550.224	15.17
550.421	15.21
550.618	15.24
550.814	15.27
551.011	15.27
551.208	15.31
551.405	15.33
551.601	15.35
551.798	15.44
551.995	15.6
552.191	15.59
552.388	15.61
552.585	15.63
552.781	15.67
552.978	15.63
553.175	15.57
553.371	15.59
553.568	15.61
553.764	15.62
553.961	15.65
554.157	15.53
554.354	15.58
554.55	15.66
554.747	15.76
554.943	15.82
555.14	15.89
555.336	15.87
555.533	15.85
555.729	15.89
555.926	16.03
556.122	15.95
556.318	15.95
556.515	15.89
556.711	15.86
556.907	15.74
557.104	15.72
557.3	15.73
557.496	15.79
557.693	15.72
557.889	15.69
558.085	15.78
558.281	15.95
558.478	15.99
558.674	16.14
558.87	16.24
559.066	16.31
559.262	16.34
559.459	16.32
559.655	16.26
559.851	16.44
560.047	16.58
560.243	16.46
560.439	16.45
560.635	16.47
560.831	16.29
561.027	16.32
561.223	16.3
561.419	16.31
561.615	16.29
561.811	16.35
562.007	16.27
562.203	16.19
562.399	16.17
562.595	16.19
562.791	16.07
562.987	16.21
563.183	16.12
563.379	16.25
563.575	16.19
563.771	16.23
563.966	16.17
564.162	16.24
564.358	16.26
564.554	16.23
564.75	16.22
564.945	16.38
565.141	16.35
565.337	16.32
565.533	16.17
565.728	16.1
565.924	16.12
566.12	16.2
566.315	16.23
566.511	16.2
566.707	16.21
566.902	16.25
567.098	16.19
567.293	16.3
567.489	16.37
567.684	16.53
567.88	16.63
568.076	16.64
568.271	16.59
568.467	16.51
568.662	16.6
568.858	16.63
569.053	16.63
569.248	16.69
569.444	16.52
569.639	16.46
569.835	16.37
570.03	16.29
570.225	16.38
570.421	16.4
570.616	16.45
570.812	16.43
571.007	16.4
571.202	16.4
571.397	16.45
571.593	16.48
571.788	16.59
571.983	16.7
572.178	16.88
572.374	16.76
572.569	16.71
572.764	16.67
572.959	16.6
573.154	16.67
573.35	16.61
573.545	16.64
573.74	16.7
573.935	16.66
574.13	16.62
574.325	16.48
574.52	16.53
574.715	16.67
574.91	16.73
575.105	16.87
575.3	16.81
575.495	16.82
575.69	16.86
575.885	16.87
576.08	16.78
576.275	16.85
576.47	16.94
576.665	16.97
576.86	17.01
577.055	17
577.25	16.84
577.444	16.88
577.639	17.11
577.834	17.1
578.029	17.17
578.224	17.41
578.418	17.34
578.613	17.38
578.808	17.35
579.003	17.32
579.197	17.37
579.392	17.49
579.587	17.64
579.781	17.42
579.976	17.46
580.171	17.37
580.365	17.3
580.56	17.23
580.755	17.23
580.949	17.34
581.144	17.33
581.338	17.38
581.533	17.31
581.727	17.4
581.922	17.43
582.116	17.34
582.311	17.38
582.505	17.38
582.7	17.47
582.894	17.48
583.089	17.53
583.283	17.5
583.478	17.52
583.672	17.68
583.866	17.59
584.061	17.63
584.255	17.71
584.449	17.62
584.644	17.59
584.838	17.74
585.032	17.68
585.226	17.71
585.421	17.83
585.615	17.81
585.809	17.88
586.003	17.95
586.198	18.07
586.392	18.09
586.586	18.21
586.78	18.02
586.974	17.97
587.168	17.95
587.363	17.9
587.557	17.72
587.751	17.65
587.945	17.55
588.139	17.52
588.333	17.38
588.527	17.42
588.721	17.45
588.915	17.68
589.109	17.65
589.303	17.85
589.497	17.85
589.691	17.84
589.885	17.84
590.079	17.9
590.273	17.89
590.466	17.91
590.66	17.89
590.854	17.98
591.048	17.89
591.242	17.78
591.436	17.61
591.629	17.59
591.823	17.82
592.017	17.88
592.211	17.8
592.404	17.76
592.598	17.83
592.792	17.77
592.986	17.65
593.179	17.64
593.373	17.82
593.567	17.82
593.76	17.92
593.954	17.77
594.147	17.81
594.341	17.71
594.535	17.77
594.728	17.75
594.922	17.7
595.115	17.71
595.309	17.85
595.502	17.85
595.696	17.92
595.889	17.84
596.083	17.85
596.276	17.84
596.47	18.02
596.663	18.01
596.856	17.96
597.05	18.02
597.243	18.01
597.437	17.98
597.63	17.97
597.823	18.03
598.017	18.13
598.21	18.2
598.403	18.37
598.596	18.43
598.79	18.3
598.983	18.36
599.176	18.35
599.369	18.46
599.563	18.54
599.756	18.55
599.949	18.48
600.142	18.43
600.335	18.45
600.528	18.34
600.722	18.26
600.915	18.47
601.108	18.59
601.301	18.58
601.494	18.5
601.687	18.56
601.88	18.61
602.073	18.64
602.266	18.59
602.459	18.52
602.652	18.51
602.845	18.43
603.038	18.47
603.231	18.4
603.424	18.41
603.617	18.38
603.809	18.28
604.002	18.37
604.195	18.4
604.388	18.5
604.581	18.56
604.774	18.55
604.966	18.64
605.159	18.62
605.352	18.68
605.545	18.74
605.737	18.8
605.93	18.9
606.123	18.76
606.316	18.75
606.508	18.69
606.701	18.73
606.894	18.67
607.086	18.64
607.279	18.73
607.471	18.82
607.664	18.86
607.857	19
608.049	19.1
608.242	19.19
608.434	19.36
608.627	19.59
608.819	19.74
609.012	19.96
609.204	20.18
609.397	20.34
609.589	20.65
609.782	20.97
609.974	21.3
610.166	21.45
610.359	21.91
610.551	22.14
610.743	22.31
610.936	22.46
611.128	22.69
611.32	22.83
611.513	22.99
611.705	22.86
611.897	22.87
612.09	22.64
612.282	22.69
612.474	22.35
612.666	22.12
612.858	22.09
613.051	21.99
613.243	21.88
613.435	21.78
613.627	21.58
613.819	21.49
614.011	21.3
614.203	21.41
614.395	21.14
614.588	21.18
614.78	21.09
614.972	20.81
615.164	20.69
615.356	20.56
615.548	20.47
615.74	20.36
615.932	20.28
616.124	20.09
616.315	19.86
616.507	19.74
616.699	19.53
616.891	19.57
617.083	19.54
617.275	19.68
617.467	19.74
617.659	19.7
617.85	19.62
618.042	19.67
618.234	19.88
618.426	19.82
618.618	19.93
618.809	20.05
619.001	19.97
619.193	20.06
619.384	19.85
619.576	19.73
619.768	19.64
619.959	19.79
620.151	19.85
620.343	19.74
620.534	19.82
620.726	19.84
620.917	19.77
621.109	19.75
621.301	19.84
621.492	20.2
621.684	20.34
621.875	20.42
622.067	20.28
622.258	19.98
622.45	20.28
622.641	20.26
622.832	20.35
623.024	20.22
623.215	20.33
623.407	20.33
623.598	20.16
623.789	19.97
623.981	19.81
624.172	19.85
624.363	19.91
624.555	19.67
624.746	19.67
624.937	19.61
625.129	19.78
625.32	19.66
625.511	19.61
625.702	19.47
625.893	19.59
626.085	19.73
626.276	19.88
626.467	19.96
626.658	19.85
626.849	19.85
627.04	19.92
627.231	19.86
627.422	19.94
627.614	19.96
627.805	20.09
627.996	20.12
628.187	20.14
628.378	19.98
628.569	19.97
628.76	20.12
628.951	20.24
629.142	20.23
629.332	20.19
629.523	20.16
629.714	20.23
629.905	20.2
630.096	20.26
630.287	20.27
630.478	20.42
630.669	20.45
630.859	20.41
631.05	20.27
631.241	20.31
631.432	20.23
631.623	20.25
631.813	20.09
632.004	19.96
632.195	19.78
632.385	19.73
632.576	19.47
632.767	19.52
632.957	19.34
633.148	19.31
633.339	19.23
633.529	19.31
633.72	19.45
633.91	19.26
634.101	19.29
634.292	19.39
634.482	19.49
634.673	19.57
634.863	19.56
635.054	19.93
635.244	19.91
635.435	19.9
635.625	20.01
635.815	19.97
636.006	20.03
636.196	20.04
636.387	19.84
636.577	19.65
636.767	19.58
636.958	19.48
637.148	19.26
637.338	19.39
637.529	19.61
637.719	19.41
637.909	19.2
638.099	19.44
638.29	19.53
638.48	19.55
638.67	19.7
638.86	19.77
639.05	19.72
639.241	19.87
639.431	19.9
639.621	19.57
639.811	19.85
640.001	19.83
640.191	19.62
640.381	19.59
640.571	19.75
640.761	19.64
640.951	19.77
641.141	19.9
641.331	19.75
641.521	19.66
641.711	19.79
641.901	19.53
642.091	19.53
642.281	19.64
642.471	19.6
642.661	19.42
642.851	19.49
643.041	19.36
643.231	19.27
643.42	19.26
643.61	19.02
643.8	19.15
643.99	19.39
644.18	19.61
644.369	19.84
644.559	19.81
644.749	19.83
644.939	20.04
645.128	20.2
645.318	20.14
645.508	20.08
645.697	20.18
645.887	20.11
646.076	20.08
646.266	20.03
646.456	19.95
646.645	20.13
646.835	20.14
647.024	19.86
647.214	19.9
647.403	20.07
647.593	20.29
647.782	20.34
647.972	20.27
648.161	20.21
648.351	20.09
648.54	20.17
648.73	20.02
648.919	20.29
649.108	20.43
649.298	20.33
649.487	20.28
649.677	20.12
649.866	20.3
650.055	20.28
650.244	20.29
650.434	20.49
650.623	20.21
650.812	20.16
651.002	20.1
651.191	20.1
651.38	20.05
651.569	20.14
651.758	20.29
651.947	20.03
652.137	20.05
652.326	19.84
652.515	19.76
652.704	20.08
652.893	20.15
653.082	19.97
653.271	20.02
653.46	19.98
653.649	20.06
653.838	20.03
654.027	20.29
654.216	20.16
654.405	20.53
654.594	20.39
654.783	20.3
654.972	20.33
655.161	20.29
655.35	20.22
655.539	20.24
655.728	20.08
655.916	19.89
656.105	19.83
656.294	20
656.483	20.09
656.672	20.13
656.86	19.95
657.049	19.93
657.238	20.21
657.427	20.23
657.615	20.43
657.804	20.6
657.993	20.47
658.181	20.53
658.37	20.55
658.559	20.27
658.747	20.43
658.936	20.43
659.125	20.4
659.313	20.39
659.502	20.49
659.69	20.36
659.879	20.24
660.067	20.47
660.256	20.61
660.444	20.62
660.633	20.7
660.821	20.77
661.01	20.92
661.198	20.96
661.387	20.88
661.575	20.6
661.763	20.64
661.952	20.87
662.14	20.86
662.328	20.89
662.517	20.93
662.705	21.06
662.893	20.96
663.082	20.8
663.27	20.88
663.458	20.96
663.646	21.19
663.834	21.23
664.023	20.98
664.211	21.12
664.399	20.95
664.587	20.9
664.775	20.85
664.963	20.7
665.152	20.93
665.34	20.78
665.528	20.72
665.716	20.53
665.904	20.28
666.092	20.49
666.28	20.38
666.468	20.49
666.656	20.51
666.844	20.6
667.032	20.81
667.22	20.47
667.408	20.63
667.596	20.56
667.784	20.6
667.971	21
668.159	20.87
668.347	20.76
668.535	20.49
668.723	20.45
668.911	20.29
669.098	20.1
669.286	20.29
669.474	20.56
669.662	20.68
669.849	20.89
670.037	20.79
670.225	20.8
670.413	20.93
670.6	21.3
670.788	21.29
670.976	21.32
671.163	21.61
671.351	21.62
671.538	21.18
671.726	21.2
671.913	21.11
672.101	20.96
672.289	20.87
672.476	20.87
672.664	20.61
672.851	20.72
673.039	20.69
673.226	20.58
673.413	20.55
673.601	20.7
673.788	20.66
673.976	20.69
674.163	20.95
674.35	20.87
674.538	20.86
674.725	21
674.912	21.09
675.1	21.19
675.287	21.24
675.474	21.43
675.662	21.45
675.849	21.41
676.036	21.39
676.223	21.3
676.411	21.5
676.598	21.79
676.785	21.79
676.972	21.72
677.159	21.7
677.346	21.57
677.533	21.49
677.721	21.4
677.908	21.56
678.095	21.43
678.282	21.28
678.469	21.32
678.656	21.1
678.843	21.03
679.03	21.28
679.217	21.12
679.404	21.14
679.591	21.09
679.778	21.27
679.964	21.27
680.151	21.4
680.338	21.35
680.525	21.32
680.712	21.18
680.899	21.15
681.086	20.82
681.272	21.03
681.459	20.82
681.646	20.93
681.833	20.99
682.02	20.87
682.206	20.93
682.393	21.03
682.58	20.69
682.766	20.72
682.953	20.71
683.14	20.67
683.326	20.75
683.513	21.01
683.7	21.34
683.886	21.18
684.073	21.25
684.259	21
684.446	20.91
684.632	21.35
684.819	21.38
685.005	21.53
685.192	21.78
685.378	21.48
685.565	21.48
685.751	21.21
685.938	21.28
686.124	21.22
686.31	21.49
686.497	21.67
686.683	21.79
686.87	22.06
687.056	21.99
687.242	21.91
687.429	22.32
687.615	22.45
687.801	22.29
687.987	22.75
688.174	22.79
688.36	22.48
688.546	22.28
688.732	22.3
688.918	22.15
689.105	22.21
689.291	22.07
689.477	21.95
689.663	21.45
689.849	21.48
690.035	21.02
690.221	21.28
690.407	21.55
690.593	21.82
690.779	21.57
690.965	21.48
691.151	21.28
691.337	21.56
691.523	21.68
691.709	22.13
691.895	22.14
692.081	22.26
692.267	22.2
692.453	22.51
692.639	22.39
692.825	22.59
693.011	22.86
693.196	22.96
693.382	22.95
693.568	22.49
693.754	22.53
693.94	22.44
694.125	22.09
694.311	21.84
694.497	21.59
694.682	21.6
694.868	21.81
695.054	21.93
695.239	22.43
695.425	22.43
695.611	22.38
695.796	22.36
695.982	22.27
696.168	22.66
696.353	22.99
696.539	23.02
696.724	23.13
696.91	22.72
697.095	22.17
697.281	21.64
697.466	21.3
697.652	21.82
697.837	21.84
698.023	22.05
698.208	21.9
698.393	21.82
698.579	21.84
698.764	21.85
698.949	21.95
699.135	22.37
699.32	22.46
699.505	22.52
699.691	22.16
699.876	22.04
700.061	21.99
700.246	22.13
700.432	22.24
700.617	22.01
700.802	22.07
700.987	21.89
701.172	21.87
701.358	22.04
701.543	22.35
701.728	22.64
701.913	23.19
702.098	23.38
702.283	23.33
702.468	22.9
702.653	23.29
702.838	23.14
703.023	23.61
703.208	23.32
703.393	23.09
703.578	23.07
703.763	23.21
703.948	22.88
704.133	22.39
704.318	22.47
704.503	22.56
704.688	22.69
704.873	22.61
705.057	22.24
705.242	22.51
705.427	22.86
705.612	22.97
705.797	23.02
705.981	23.01
706.166	23.34
706.351	23.39
706.536	23.74
706.72	23.37
706.905	23.33
707.09	23.72
707.274	23.72
707.459	23.81
707.644	23.75
707.828	23.74
708.013	23.96
708.197	23.9
708.382	23.8
708.567	23.6
708.751	23.57
708.936	23.8
709.12	23.72
709.305	23.6
709.489	23.84
709.673	24.14
709.858	24.12
710.042	24.13
710.227	24.35
710.411	24.46
710.596	24.74
710.78	24.89
710.964	25.24
711.149	25.26
711.333	25.23
711.517	24.93
711.702	24.59
711.886	24.39
712.07	24.16
712.254	24.3
712.438	24.4
712.623	24.26
712.807	24.38
712.991	24.09
713.175	24.1
713.359	24.02
713.544	24.04
713.728	24.03
713.912	23.98
714.096	23.85
714.28	23.55
714.464	23.33
714.648	23.33
714.832	22.99
715.016	22.86
715.2	22.45
715.384	22.44
715.568	22.23
715.752	22.26
715.936	22.17
716.12	22.1
716.304	22.13
716.488	21.93
716.671	21.44
716.855	21.97
717.039	21.55
717.223	21.97
717.407	22.1
717.59	22.23
717.774	22.3
717.958	22.59
718.142	22.62
718.325	22.78
718.509	23.04
718.693	23.38
718.877	23.27
719.06	23.58
719.244	23.5
719.428	23.81
719.611	23.61
719.795	23.48
719.978	23.16
720.162	23.19
720.345	22.82
720.529	22.82
720.713	23.14
720.896	22.78
721.08	23.02
721.263	23.15
721.446	22.76
721.63	23.17
721.813	23.45
721.997	24.1
722.18	24.39
722.364	24.57
722.547	24.12
722.73	23.85
722.914	23.81
723.097	23.89
723.28	23.27
723.464	23.3
723.647	23.02
723.83	22.82
724.013	22.64
724.197	22.89
724.38	23.29
724.563	23.72
724.746	23.63
724.929	23.88
725.112	24.71
725.296	25.16
725.479	24.86
725.662	24.56
725.845	24.65
726.028	24.66
726.211	24.63
726.394	24.47
726.577	23.88
726.76	24.39
726.943	24.48
727.126	23.54
727.309	23.28
727.492	23.49
727.675	23.91
727.858	23.72
728.041	23.78
728.224	23.57
728.407	23.43
728.589	23.8
728.772	23.57
728.955	23.52
729.138	23.68
729.321	24.25
729.503	24.15
729.686	24.35
729.869	24.23
730.052	23.95
730.234	24.21
730.417	23.7
730.6	23.87
730.782	23.78
730.965	23.83
731.148	23.76
731.33	23.62
731.513	23.79
731.695	23.75
731.878	23.94
732.061	23.89
732.243	23.32
732.426	24.04
732.608	23.83
732.791	23.87
732.973	23.54
733.156	23.6
733.338	23.36
733.52	23.72
733.703	23.52
733.885	23.58
734.068	23.91
734.25	23.91
734.432	23.67
734.615	23.97
734.797	24.07
734.979	24.36
735.162	23.84
735.344	23.86
735.526	23.71
735.708	24.2
735.891	24.22
736.073	23.82
736.255	24.55
736.437	24.15
736.619	24.25
736.802	24.08
736.984	24.6
737.166	25.24
737.348	25.43
737.53	26.01
737.712	25.42
737.894	25.51
738.076	25.99
738.258	25.73
738.44	26.43
738.622	26.26
738.804	26.2
738.986	25.85
739.168	26.22
739.35	25.84
739.532	24.68
739.714	24.98
739.896	25.05
740.078	24.89
740.259	24.74
740.441	24.56
740.623	24.65
740.805	24.85
740.987	25.06
741.168	24.64
741.35	25.14
741.532	25.99
741.714	25.79
741.895	25.37
742.077	25.35
742.259	25.46
742.44	25.29
742.622	25.01
742.804	25.03
742.985	24.5
743.167	24.49
743.348	24.73
743.53	24.32
743.711	24.38
743.893	24.63
744.075	24.91
744.256	24.99
744.438	25.08
744.619	25.52
744.8	25.9
744.982	25.84
745.163	26.22
745.345	26.03
745.526	26.91
745.707	27.46
745.889	27.39
746.07	27.65
746.252	28.01
746.433	27.44
746.614	27.42
746.795	26.83
746.977	27.3
747.158	26.89
747.339	26.34
747.52	25.77
747.702	25.41
747.883	25.18
748.064	24.93
748.245	23.82
748.426	24.13
748.607	24.31
748.788	24.67
748.97	24.77
749.151	25
749.332	24.8
749.513	24.45
749.694	24.38
749.875	24.62
750.056	24.33
750.237	25.37
750.418	25.42
750.599	25.14
750.78	24.67
750.96	24.54
751.141	24.02
751.322	24.55
751.503	24.63
751.684	24.34
751.865	24.65
752.046	24.04
752.226	23.86
752.407	23.99
752.588	23.3
752.769	23.68
752.949	23.77
753.13	24.04
753.311	23.82
753.492	23.75
753.672	24.27
753.853	24.31
754.034	25.69
754.214	25.77
754.395	25.81
754.575	26.91
754.756	26.61
754.937	26.71
755.117	27.01
755.298	27.11
755.478	27.69
755.659	27.72
755.839	27.67
756.02	27.51
756.2	27.29
756.381	27.55
756.561	27.21
756.741	27.67
756.922	27.81
757.102	27.76
757.283	27.5
757.463	26.53
757.643	26.31
757.823	26.44
758.004	25.76
758.184	25.77
758.364	25.57
758.545	25.05
758.725	25.77
758.905	25.34
759.085	24.46
759.265	25.05
759.446	25.88
759.626	25.8
759.806	25.45
759.986	25.33
760.166	24.61
760.346	24.78
760.526	24.88
760.706	23.33
760.886	23.33
761.066	23.91
761.246	23.31
761.426	23.09
761.606	23.19
761.786	23.21
761.966	23.37
762.146	23.72
762.326	23.09
762.506	22.84
762.686	23.3
762.866	23.21
763.046	23.17
763.225	23.34
763.405	23.28
763.585	23.05
763.765	23.01
763.945	23
764.124	23.06
764.304	23.63
764.484	23.79
764.664	23.7
764.843	23.67
765.023	23.42
765.203	23.36
765.382	23.41
765.562	23.58
765.741	23.87
765.921	24.06
766.101	24.31
766.28	23.59
766.46	24.1
766.639	24.43
766.819	24.76
766.998	24.94
767.178	25.5
767.357	25.4
767.537	25.4
767.716	25.95
767.896	25.59
768.075	25.4
768.254	26.6
768.434	26.63
768.613	27.11
768.792	27.96
768.972	28.47
769.151	28.72
769.33	29.2
769.51	29.57
769.689	28.97
769.868	29.28
770.047	29.82
770.226	29.29
770.406	28.94
770.585	28.45
770.764	28.11
770.943	28.29
771.122	27.56
771.301	26.79
771.48	26.75
771.66	26.73
771.839	27.04
772.018	27.43
772.197	27.46
772.376	28.32
772.555	28.38
772.734	28.55
772.913	28.19
773.092	29.02
773.271	29.71
773.449	29.32
773.628	30.25
773.807	30.25
773.986	29.59
774.165	30.69
774.344	30.24
774.523	30.64
774.701	30.41
774.88	31.31
775.059	30.51
775.238	30.31
775.417	30.52
775.595	30.36
775.774	30.54
775.953	31.03
776.131	30.08
776.31	30.64
776.489	30.42
776.667	30.23
776.846	29.4
777.025	29.67
777.203	30.22
777.382	29.94
777.56	29.07
777.739	29.01
777.917	29.2
778.096	29.36
778.274	27.91
778.453	27.87
778.631	27.77
778.81	28.12
778.988	28
779.166	27.46
779.345	27.98
779.523	28.2
779.702	28.32
779.88	27.69
780.058	27.97
780.237	27.94
780.415	28.08
780.593	28.74
780.771	29.03
780.95	28.95
781.128	29.27
781.306	28.39
781.484	27.89
781.662	28.02
781.841	27.96
782.019	27.66
782.197	29.61
782.375	29.32
782.553	27.89
782.731	27.71
782.909	27.78
783.087	27.49
783.265	27.91
783.443	28.52
783.621	29.2
783.799	29.23
783.977	28.39
784.155	27.64
784.333	28.12
784.511	28.94
784.689	27.95
784.867	29.97
785.045	30.06
785.223	30.89
785.4	30.85
785.578	30.08
785.756	30.42
785.934	30.5
786.112	29.67
786.289	29.2
786.467	29.39
786.645	30.43
786.823	28.69
787	28.95
787.178	28.72
787.356	29.24
787.533	28.87
787.711	28.78
787.889	29.49
788.066	29.39
788.244	29.3
788.421	28.58
788.599	28.62
788.776	29.45
788.954	29.39
789.131	29.15
789.309	29.16
789.486	29.76
789.664	29.65
789.841	29.24
790.019	29.03
790.196	28.84
790.373	28.98
790.551	28.43
790.728	27.24
790.906	27.07
791.083	26.45
791.26	25.75
791.437	25.31
791.615	24.86
791.792	25.95
791.969	27.2
792.146	27.49
792.324	28.12
792.501	28.48
792.678	29.53
792.855	29.9
793.032	30.66
793.209	30.42
793.387	30.22
793.564	31.01
793.741	30.17
793.918	30.38
794.095	30.86
794.272	30.65
794.449	30.4
794.626	29.79
794.803	29.47
794.98	29.39
795.157	30.8
795.334	30.7
795.511	30.24
795.688	30.47
795.864	28.74
796.041	28.77
796.218	29.02
796.395	28.55
796.572	28.2
796.749	28.18
796.925	28.72
797.102	28.17
797.279	27.52
797.456	28.43
797.632	28.74
797.809	30.58
797.986	30.42
798.162	30.54
798.339	30.56
798.516	31.55
798.692	31.66
798.869	30.46
799.046	30.66
799.222	30.76
799.399	30.67
799.575	30.78
799.752	30.01
799.928	28.97
800.105	28.88
800.281	29.8
800.458	29.57
800.634	30.1
800.811	30.79
800.987	30.57
801.163	30.98
801.34	31.24
801.516	30.26
801.692	31.08
801.869	32.66
802.045	32.17
802.221	31.93
802.398	32.1
802.574	30.45
802.75	30.91
802.926	31.31
803.103	30.65
803.279	30.09
803.455	29.08
803.631	28.36
803.807	27.22
803.983	26.81
804.16	27.03
804.336	26.2
804.512	26.92
804.688	26.8
804.864	25.37
805.04	26.17
805.216	26.33
805.392	28.7
805.568	28.36
805.744	29.97
805.92	30.62
806.096	30.54
806.272	31.52
806.448	31.83
806.623	32.27
806.799	33.23
806.975	33.77
807.151	34.87
807.327	33.45
807.503	33.9
807.678	31.7
807.854	31.31
808.03	31.45
808.206	31.07
808.381	30.71
808.557	30.72
808.733	30.69
808.908	29.7
809.084	28.47
809.26	28.62
809.435	28.37
809.611	28.93
809.787	29.09
809.962	28.65
810.138	27.28
810.313	27.02
810.489	27.49
810.664	27.58
810.84	28.58
811.015	28.65
811.191	28.81
811.366	29.02
811.542	29.65
811.717	30.26
811.892	31.19
812.068	31.85
812.243	31.43
812.419	31.06
812.594	29.5
812.769	30.16
812.944	31.34
813.12	30.97
813.295	30.43
813.47	29.7
813.645	30.58
813.821	29.93
813.996	30.66
814.171	31.74
814.346	30.56
814.521	31.61
814.697	30.64
814.872	29.46
815.047	29.8
815.222	30.39
815.397	30.51
815.572	28.24
815.747	27.8
815.922	27.62
816.097	26.26
816.272	26.26
816.447	26.02
816.622	26.34
816.797	25.2
816.972	24.36
817.147	24.7
817.322	24.87
817.496	24.89
817.671	25.47
817.846	24.46
818.021	26.11
818.196	26.73
818.371	27.47
818.545	27.87
818.72	29.1
818.895	28.97
819.069	28.05
819.244	28.12
819.419	28.5
819.594	28.61
819.768	28.97
819.943	28.47
820.117	28.52
820.292	28.17
820.467	27.12
820.641	26.55
820.816	26.31
820.99	25.66
821.165	24.99
821.339	25.01
821.514	24.29
821.688	24
821.863	23.85
822.037	23.63
822.212	23.53
822.386	23.54
822.56	23.38
822.735	23.64
822.909	23.78
823.084	23.9
823.258	23.84
823.432	24.03
823.606	24.19
823.781	24.48
823.955	24.36
824.129	24.24
824.303	24.18
824.478	24
824.652	23.85
824.826	24.17
825	24.13
825.174	23.89
825.348	24.04
825.523	24.1
825.697	23.7
825.871	24.22
826.045	24.3
826.219	24.05
826.393	24.14
826.567	23.92
826.741	23.33
826.915	23.76
827.089	23.72
827.263	23.54
827.437	23.16
827.611	22.77
827.784	22.22
827.958	22.25
828.132	22.11
828.306	22.48
828.48	22.7
828.654	23.3
828.827	22.94
829.001	23.5
829.175	23.55
829.349	23.72
829.522	24.79
829.696	25.61
829.87	25.46
830.044	27.04
830.217	27.37
830.391	27.13
830.565	26.49
830.738	26.03
830.912	25.32
831.085	24.43
831.259	25.02
831.432	23.73
831.606	23.14
831.779	22.68
831.953	22.13
832.126	22.19
832.3	24.15
832.473	24.88
832.647	25.99
832.82	26.76
832.994	27.28
833.167	27.45
833.34	27.12
833.514	27.19
833.687	27.39
833.86	27.03
834.034	26.43
834.207	25.67
834.38	25.98
834.553	25.44
834.727	25.15
834.9	25.83
835.073	25.95
835.246	26.18
835.419	26.26
835.593	26.49
835.766	26.16
835.939	26.83
836.112	27.33
836.285	27.19
836.458	27.74
836.631	28.56
836.804	28
836.977	28.03
837.15	28.81
837.323	28.62
837.496	28.87
837.669	29.62
837.842	29.56
838.015	29.43
838.188	28.89
838.361	29.12
838.533	29.46
838.706	28.58
838.879	28.83
839.052	29.41
839.225	29.29
839.398	29.42
839.57	30.21
839.743	30.21
839.916	30.28
840.088	30.45
840.261	30.41
840.434	29.45
840.607	30.33
840.779	28.75
840.952	29.18
841.124	30.76
841.297	33.16
841.47	33.07
841.642	32.5
841.815	32.37
841.987	31.14
842.16	31.25
842.332	31.45
842.505	30.71
842.677	33
842.85	31.11
843.022	30.43
843.194	26.08
843.367	28.69
843.539	28.61
843.712	26.72
843.884	27.37
844.056	29.26
844.229	27.25
844.401	31.5
844.573	28.84
844.745	29.76
844.918	30.38
845.09	34.01
845.262	28.85
845.434	31.07
845.606	36.29
845.779	36.96
845.951	33.59
846.123	35.46
846.295	34.08
846.467	33.81
846.639	36.39
846.811	33.8
846.983	34.93
847.155	37.47
847.327	35.09
847.499	33.11
847.671	36.68
847.843	39.79
848.015	38.93
848.187	37.68
848.359	39.27
848.531	38.92
848.703	41.77
848.875	37.04
849.047	38.72
849.218	39.99
849.39	38.61
849.562	36.57
849.734	36.28
849.905	36.57
850.077	37
850.249	36.36
850.421	36.75
850.592	38.6
850.764	36.41
850.936	33.2
851.107	32.96
851.279	33.62
851.451	32.27
851.622	32.14
851.794	32.74
851.965	32.47
852.137	36.62
852.308	35.06
852.48	34.38
852.651	38.61
852.823	41.82
852.994	40.02
853.166	38.64
853.337	39.61
853.509	38.11
853.68	36.96
853.851	34.21
854.023	28.29
854.194	31.72
854.365	30.12
854.537	31.46
854.708	35.26
854.879	35.4
855.05	39.72
855.222	37.09
855.393	40.18
855.564	40.89
855.735	44.23
855.906	46.01
856.078	46.39
856.249	46.06
856.42	45.9
856.591	40.35
856.762	43.03
856.933	42.94
857.104	42.93
857.275	40.7
857.446	45.83
857.617	46.84
857.788	49.02
857.959	46.55
858.13	46.88
858.301	47.82
858.472	47.76
858.643	48.87
858.814	49.75
858.985	50.58
859.155	51.76
859.326	51.36
859.497	50.9
859.668	47.84
859.839	45.93
860.009	45.31
860.18	44.89
860.351	47.6
860.522	47.42
860.692	41.1
860.863	43.28
861.034	41.38
861.204	39.84
861.375	38.79
861.546	42
861.716	42.64
861.887	42.4
862.057	38.69
862.228	39.24
862.398	35.64
862.569	36.55
862.739	36.42
862.91	37.52
863.08	34.86
863.251	35.63
863.421	37.33
863.592	39.93
863.762	44.14
863.932	50.5
864.103	47.47
864.273	48.73
864.443	48
864.614	49.09
864.784	48.11
864.954	49.89
865.125	49.67
865.295	47.6
865.465	44.42
865.635	38.83
865.805	33.36
865.976	34.9
866.146	35.97
866.316	34.07
866.486	29.23
866.656	30.08
866.826	29.85
866.996	33.23
867.166	28.63
867.336	28.81
867.506	31.63
867.676	35.28
867.846	35.02
868.016	37.35
868.186	42.91
868.356	44.63
868.526	44.49
868.696	43.68
868.866	35.16
869.036	39.37
869.206	39.76
869.376	39.45
869.545	40.13
869.715	42.11
869.885	39.62
870.055	37.35
870.224	37.92
870.394	37.03
870.564	31.55
870.734	35.6
870.903	34.09
871.073	32.62
871.243	35.15
871.412	31.02
871.582	30.66
871.751	31.28
871.921	31.58
872.091	31.48
872.26	33.37
872.43	38.91
872.599	39.38
872.769	40.41
872.938	38.25
873.108	35.85
873.277	36.88
873.446	37.57
873.616	35.7
873.785	33.3
873.955	34.31
874.124	29.2
874.293	30.72
874.463	26.65
874.632	30.19
874.801	34.39
874.971	31.21
875.14	36.41
875.309	40.46
875.478	40.2
875.647	43.63
875.817	46.13
875.986	52.73
876.155	54.29
876.324	60.01
876.493	59.03
876.662	58.46
876.831	63.26
877	59.62
877.17	53.57
877.339	54.94
877.508	50.81
877.677	44.75
877.846	38.54
878.015	35.71
878.184	34.15
878.352	34.28
878.521	33.87
878.69	33.16
878.859	31.78
879.028	32.78
879.197	31.53
879.366	33.07
879.534	33.75
879.703	33.25
879.872	32.91
880.041	31.75
880.21	32.18
880.378	30
880.547	27.84
880.716	27.42
880.884	26.06
881.053	24.46
881.222	25.43
881.39	25.68
881.559	26.1
881.727	24.99
881.896	24.41
882.065	23.76
882.233	23.4
882.402	24.09
882.57	23.63
882.739	23.63
882.907	23.8
883.076	22.63
883.244	22.16
883.412	21.94
883.581	22.54
883.749	22.98
883.918	23.39
884.086	23.42
884.254	23.64
884.423	23.82
884.591	23.48
884.759	24.48
884.927	25.38
885.096	26.85
885.264	27.03
885.432	26.15
885.6	27.59
885.769	25.67
885.937	27.85
886.105	26.16
886.273	27.83
886.441	29.69
886.609	29.23
886.777	31.08
886.945	27.11
887.113	25.37
887.281	29.99
887.449	27.93
887.617	32.74
887.785	29.58
887.953	31.75
888.121	31.39
888.289	31.13
888.457	32.14
888.625	31.75
888.793	34.33
888.961	37.19
889.129	31.9
889.296	32.83
889.464	30.91
889.632	33.03
889.8	31.42
889.967	30.26
890.135	31.31
