Data from 2938789__Reflection_01.txt Node
Date: Fri Mar 13 11:31:22 EDT 2015
User: robert
Spectrometer: USB4E03002
Autoset integration time: false
Trigger mode: 4
Integration Time (sec): 1.000000E-1
Scans to average: 10
Electric dark correction enabled: false
Nonlinearity correction enabled: false
Boxcar width: 5
Stray light correction enabled: false
XAxis mode: Wavelengths
Stop averaging: false
Number of Pixels in Spectrum: 3648
>>>>>Begin Spectral Data<<<<<
177.575	-720
177.794	-8364.29
178.014	-1131.3
178.233	-797.25
178.452	-515.58
178.672	-387.39
178.891	-424.04
179.11	-446.44
179.33	-436.54
179.549	-507.73
179.768	-542.4
179.987	-852.57
180.207	-494.94
180.426	-875
180.645	-1653.21
180.864	-6653.66
181.084	2074.63
181.303	3098.88
181.522	1548.59
181.741	3729.73
181.96	1585.8
182.179	745.5
182.398	642.13
182.618	552.49
182.837	564.93
183.056	403.46
183.275	379.49
183.494	406.96
183.713	368.84
183.932	368.42
184.151	337.55
184.37	396.88
184.589	489.62
184.808	598.29
185.027	576.56
185.246	609.69
185.465	2273.5
185.684	1252.54
185.903	1528.57
186.122	1718.44
186.341	5911.76
186.56	2644.83
186.779	3444.58
186.998	1610.92
187.216	-4192.19
187.435	-992.28
187.654	-1108.76
187.873	-1463.64
188.092	-3437.68
188.311	17961.54
188.53	-2956.79
188.748	7659.38
188.967	-1138.46
189.186	-1338.95
189.405	-660.84
189.623	-2210.78
189.842	5370.21
190.061	1796.92
190.28	2788.04
190.498	-1558.82
190.717	-1205.96
190.936	-943.7
191.154	-597.58
191.373	-1811.41
191.592	-1601.74
191.81	-1353.81
192.029	-1114
192.248	-1118.47
192.466	-4329.58
192.685	-20707.14
192.904	-1011.24
193.122	-4890.91
193.341	1146.8
193.559	647.33
193.778	733.51
193.996	557.95
194.215	579.37
194.433	595.04
194.652	485.54
194.87	938.13
195.089	729.19
195.307	392.78
195.526	424.71
195.744	500.34
195.963	433.85
196.181	394.87
196.399	435.12
196.618	376.25
196.836	422.81
197.055	529.64
197.273	538.59
197.491	651.84
197.71	612.28
197.928	915.88
198.146	951.77
198.365	8562.5
198.583	-5252.83
198.801	-2156.82
199.019	-2243.75
199.238	-5504
199.456	1792.62
199.674	950.34
199.892	741.6
200.111	1166.09
200.329	1067.09
200.547	956.18
200.765	707.43
200.983	630.14
201.202	635.27
201.42	794.43
201.638	864.02
201.856	1447.96
202.074	1852.23
202.292	-4498.39
202.51	17906.25
202.728	9803.45
202.946	-3316.88
203.165	-3082.5
203.383	4903.85
203.601	1906.67
203.819	4589.09
204.037	929.5
204.255	983.6
204.473	1071.89
204.691	603
204.909	512.78
205.127	503.99
205.345	593.41
205.562	762.58
205.78	922.67
205.998	926.81
206.216	524.01
206.434	817.11
206.652	504.13
206.87	543.37
207.088	521.46
207.306	816.12
207.523	693.1
207.741	568.71
207.959	532.2
208.177	716.88
208.395	769.07
208.612	1183.85
208.83	825.95
209.048	971.29
209.266	1217.74
209.483	1083.86
209.701	1122.35
209.919	1798.18
210.136	1348.88
210.354	1077.9
210.572	817.72
210.79	598.85
211.007	579.76
211.225	687.02
211.442	720
211.66	498.66
211.878	516.17
212.095	-1281.15
212.313	-3165.96
212.53	-1940
212.748	-1418.54
212.966	-2521.37
213.183	-1679.52
213.401	-2407.14
213.618	5023.64
213.836	-16158.82
214.053	-9303.23
214.271	11523.08
214.488	281.32
214.705	289.33
214.923	256.15
215.14	266.19
215.358	295.4
215.575	330.4
215.793	334.39
216.01	504.8
216.227	486.67
216.445	488.51
216.662	541.84
216.879	710.36
217.097	613.29
217.314	553.33
217.531	355.4
217.749	302.74
217.966	256.22
218.183	222.35
218.4	214.78
218.618	208.4
218.835	190.86
219.052	188.68
219.269	166.9
219.487	173.13
219.704	181.84
219.921	195.6
220.138	189.87
220.355	197.86
220.572	195.83
220.79	176.7
221.007	164.47
221.224	172
221.441	167.65
221.658	166.8
221.875	160.42
222.092	155.46
222.309	144.66
222.526	143.67
222.743	140
222.96	140.75
223.177	138.35
223.394	137.45
223.611	127.51
223.828	125.04
224.045	130.47
224.262	129.13
224.479	121.92
224.696	120.65
224.913	109.95
225.13	100.5
225.347	87.39
225.564	80.75
225.781	75.67
225.997	69.97
226.214	60.41
226.431	50.58
226.648	44.08
226.865	37.9
227.082	33.74
227.298	32.07
227.515	28.47
227.732	27.43
227.949	25.38
228.165	23.25
228.382	22.8
228.599	22.94
228.816	22.77
229.032	21.42
229.249	21.05
229.466	19.98
229.682	19.76
229.899	21.12
230.116	20.72
230.332	21.63
230.549	21.84
230.765	22.01
230.982	21.74
231.199	22.49
231.415	24.64
231.632	26.92
231.848	28.86
232.065	30.3
232.281	29.92
232.498	30.15
232.714	29.81
232.931	31.27
233.147	32.88
233.364	33.93
233.58	33.31
233.797	33.26
234.013	32.76
234.23	31.31
234.446	31.13
234.662	31.31
234.879	31.77
235.095	31.3
235.312	30.81
235.528	29.85
235.744	30.15
235.961	30.4
236.177	30.91
236.393	31.84
236.61	33.07
236.826	32.29
237.042	32.07
237.258	31.68
237.475	32.57
237.691	32.23
237.907	32.96
238.123	32.94
238.339	32.65
238.556	32.55
238.772	30.74
238.988	30.03
239.204	28.97
239.42	28.96
239.636	28.86
239.853	27
240.069	25.86
240.285	24.25
240.501	21.36
240.717	20.64
240.933	18.98
241.149	18.17
241.365	17.53
241.581	17.34
241.797	16.49
242.013	15.55
242.229	15.53
242.445	15.39
242.661	15.17
242.877	15.66
243.093	15.7
243.309	16.12
243.525	16.17
243.741	16.08
243.957	15.77
244.173	16.18
244.388	16.35
244.604	16.14
244.82	16.64
245.036	16.62
245.252	15.57
245.468	15.1
245.683	14.73
245.899	14.39
246.115	13.61
246.331	13.23
246.547	13.05
246.762	12.45
246.978	12.01
247.194	11.44
247.409	11.17
247.625	11.44
247.841	10.93
248.057	10.58
248.272	10.35
248.488	10.61
248.703	10.92
248.919	10.8
249.135	11.13
249.35	12.41
249.566	13.25
249.782	13.78
249.997	14.15
250.213	14.85
250.428	16.39
250.644	17.37
250.859	18.05
251.075	17.35
251.29	17.57
251.506	17.28
251.721	16.13
251.937	15.18
252.152	15
252.368	15.33
252.583	15.3
252.798	14.8
253.014	15.48
253.229	15.01
253.445	16.24
253.66	15.98
253.875	17.05
254.091	17.67
254.306	18.91
254.521	20.8
254.737	21.49
254.952	22.13
255.167	22.07
255.383	20.81
255.598	20.56
255.813	20.15
256.028	20.41
256.244	19.83
256.459	19.74
256.674	18.98
256.889	16.71
257.104	15.99
257.32	15.63
257.535	14.22
257.75	13.65
257.965	13.55
258.18	12.57
258.395	11.76
258.61	10.91
258.826	10.22
259.041	10.02
259.256	9.92
259.471	9.11
259.686	8.86
259.901	8.72
260.116	8.48
260.331	8.18
260.546	8.25
260.761	8.37
260.976	8.65
261.191	8.45
261.406	8.27
261.621	8.81
261.836	8.95
262.05	9.3
262.265	10.17
262.48	10.67
262.695	11.33
262.91	11.92
263.125	12.07
263.34	12.03
263.555	13.24
263.769	13.97
263.984	13.54
264.199	14.58
264.414	14.53
264.629	14.44
264.843	14.61
265.058	14
265.273	13.57
265.488	13.51
265.702	13.46
265.917	12.97
266.132	12.35
266.346	12.18
266.561	11.88
266.776	11.95
266.99	11.69
267.205	11.2
267.42	11.39
267.634	11.1
267.849	11.15
268.063	11.18
268.278	11.19
268.492	11.46
268.707	11.35
268.922	11.12
269.136	11.3
269.351	11.11
269.565	11.44
269.78	11.12
269.994	10.86
270.209	10.72
270.423	10.48
270.637	10.15
270.852	9.83
271.066	9.96
271.281	10.21
271.495	9.75
271.709	9.83
271.924	9.42
272.138	9.8
272.353	10.25
272.567	9.97
272.781	10.08
272.996	10.32
273.21	10.78
273.424	10.47
273.638	10.09
273.853	9.97
274.067	9.78
274.281	10.41
274.495	10.68
274.71	10.48
274.924	10.74
275.138	10.94
275.352	10.87
275.566	11.24
275.781	11.47
275.995	12.07
276.209	12.49
276.423	12.73
276.637	12.6
276.851	12.46
277.065	12.41
277.279	12.35
277.493	11.94
277.707	12.11
277.921	11.42
278.135	11.39
278.349	10.96
278.563	10.85
278.777	11.06
278.991	11.01
279.205	10.89
279.419	11.14
279.633	11.16
279.847	11.22
280.061	10.7
280.275	10.25
280.489	10.47
280.703	10.76
280.917	10.46
281.131	10.14
281.344	9.73
281.558	9.61
281.772	9.43
281.986	9.51
282.2	9.68
282.414	9.84
282.627	9.68
282.841	9.58
283.055	9.17
283.269	9.31
283.482	9.3
283.696	9.2
283.91	9.11
284.123	8.48
284.337	8.13
284.551	8.12
284.764	8.02
284.978	7.83
285.192	7.48
285.405	7.57
285.619	7.35
285.833	7.45
286.046	7.66
286.26	7.63
286.473	8.08
286.687	8.26
286.9	8.04
287.114	7.89
287.327	8.19
287.541	8.7
287.754	8.78
287.968	9.28
288.181	9.3
288.395	9.4
288.608	9.44
288.822	9.49
289.035	9.38
289.248	9.25
289.462	9.18
289.675	9.3
289.889	9.09
290.102	8.76
290.315	8.47
290.529	8.47
290.742	8.4
290.955	8.4
291.169	8.51
291.382	8.54
291.595	8.7
291.808	9.07
292.022	9.12
292.235	9.25
292.448	9.59
292.661	9.79
292.875	9.56
293.088	9.62
293.301	9.51
293.514	9.23
293.727	9.1
293.94	9.17
294.153	8.87
294.367	8.92
294.58	8.3
294.793	8.13
295.006	7.86
295.219	7.91
295.432	8.03
295.645	7.93
295.858	7.83
296.071	7.67
296.284	7.36
296.497	7.29
296.71	7.12
296.923	7.48
297.136	7.46
297.349	7.35
297.562	7.41
297.775	7.07
297.988	7.08
298.201	7.11
298.414	7.17
298.626	7.27
298.839	7.35
299.052	7.38
299.265	7.52
299.478	7.73
299.691	8.22
299.903	8.46
300.116	9.17
300.329	9.55
300.542	9.71
300.755	9.96
300.967	10.3
301.18	10.28
301.393	10.42
301.605	10.18
301.818	9.96
302.031	9.77
302.243	9.44
302.456	8.95
302.669	8.77
302.881	8.59
303.094	8.8
303.307	8.89
303.519	9.03
303.732	9.15
303.944	8.98
304.157	9.19
304.37	9.07
304.582	9.23
304.795	9.43
305.007	9.28
305.22	9.55
305.432	9.4
305.645	9.19
305.857	9.54
306.069	9.86
306.282	9.64
306.494	9.79
306.707	9.99
306.919	9.86
307.132	9.57
307.344	9.66
307.556	9.73
307.769	9.59
307.981	9.37
308.193	8.84
308.406	8.55
308.618	8.9
308.83	8.87
309.043	8.73
309.255	8.81
309.467	8.84
309.679	8.85
309.892	8.69
310.104	8.61
310.316	8.82
310.528	8.97
310.74	8.92
310.953	8.64
311.165	8.66
311.377	8.99
311.589	9.17
311.801	9.23
312.013	9.25
312.225	9.14
312.437	9.29
312.649	9.52
312.862	9.64
313.074	9.53
313.286	9.86
313.498	9.93
313.71	9.46
313.922	9.29
314.134	9.44
314.346	9.44
314.558	9.76
314.77	10.05
314.982	9.77
315.193	9.79
315.405	10.32
315.617	10.52
315.829	10.49
316.041	11.19
316.253	11.11
316.465	10.98
316.677	11.01
316.888	10.94
317.1	10.98
317.312	11.18
317.524	11.56
317.736	11.37
317.947	11.91
318.159	12.55
318.371	12.12
318.583	12.23
318.794	12.64
319.006	12.83
319.218	13.03
319.43	12.99
319.641	12.91
319.853	12.45
320.064	12.69
320.276	11.98
320.488	11.83
320.699	11.99
320.911	12.68
321.123	12.73
321.334	12.62
321.546	12.77
321.757	12.9
321.969	13.38
322.18	14.09
322.392	13.79
322.603	14
322.815	13.21
323.026	13.39
323.238	12.81
323.449	12.16
323.661	12.29
323.872	12.03
324.083	11.83
324.295	11.44
324.506	10.95
324.718	10.63
324.929	10.93
325.14	11.24
325.352	10.85
325.563	11.39
325.774	11.65
325.986	11.83
326.197	12.02
326.408	12.37
326.62	12.4
326.831	12.16
327.042	12.72
327.253	12.78
327.464	13.26
327.676	13.39
327.887	13.3
328.098	13.67
328.309	13.44
328.52	13.5
328.732	13.42
328.943	13.76
329.154	14.47
329.365	14.58
329.576	14.53
329.787	14.46
329.998	15.33
330.209	15.34
330.42	15.32
330.631	15.63
330.842	15.85
331.053	15.94
331.264	15.62
331.475	15.49
331.686	15.61
331.897	15.97
332.108	15.88
332.319	15.38
332.53	15.3
332.741	15.26
332.952	15.24
333.163	15.44
333.374	15.31
333.585	15.76
333.795	15.78
334.006	15.5
334.217	14.86
334.428	14.93
334.639	15.12
334.849	14.75
335.06	14.7
335.271	14.66
335.482	14.83
335.692	14.86
335.903	14.99
336.114	14.59
336.325	14.8
336.535	14.88
336.746	14.53
336.957	14.55
337.167	15
337.378	15.18
337.589	15.36
337.799	14.78
338.01	14.86
338.22	14.29
338.431	14.69
338.642	14.64
338.852	14.59
339.063	14.9
339.273	14.83
339.484	14.43
339.694	14.58
339.905	14.54
340.115	14.82
340.326	14.46
340.536	14.75
340.746	14.78
340.957	14.72
341.167	15.14
341.378	15.19
341.588	15.13
341.799	15.5
342.009	14.93
342.219	14.78
342.43	14.47
342.64	14.89
342.85	14.8
343.061	14.49
343.271	14.69
343.481	14.41
343.691	14.07
343.902	14.22
344.112	14.1
344.322	14.14
344.532	14.23
344.743	14.08
344.953	13.67
345.163	13.58
345.373	13.56
345.583	13.34
345.793	13.54
346.004	13.65
346.214	13.4
346.424	13.48
346.634	14.02
346.844	13.71
347.054	14.12
347.264	14.08
347.474	14.19
347.684	14.31
347.894	14.53
348.104	14.28
348.314	14.03
348.524	13.73
348.734	13.55
348.944	13.13
349.154	13.22
349.364	12.86
349.574	13.26
349.784	13.38
349.994	13.46
350.204	13.37
350.413	13.31
350.623	13.44
350.833	13.57
351.043	13.59
351.253	13.57
351.463	13.4
351.672	13.95
351.882	13.81
352.092	13.8
352.302	13.61
352.511	13.69
352.721	13.75
352.931	13.73
353.141	13.76
353.35	13.82
353.56	13.63
353.77	13.55
353.979	13
354.189	12.93
354.399	12.71
354.608	12.69
354.818	12.24
355.027	12.22
355.237	12.37
355.447	12.47
355.656	12.17
355.866	12.44
356.075	12.61
356.285	12.89
356.494	12.88
356.704	12.87
356.913	13
357.123	13.33
357.332	13.25
357.542	13.06
357.751	12.89
357.96	13.23
358.17	12.97
358.379	12.93
358.589	12.8
358.798	12.84
359.007	12.79
359.217	12.77
359.426	12.37
359.635	12.27
359.845	12.23
360.054	12.18
360.263	11.8
360.472	11.78
360.682	11.68
360.891	11.59
361.1	11.44
361.309	11.37
361.519	11.35
361.728	11.19
361.937	11.14
362.146	11.14
362.355	11.06
362.564	11.19
362.774	11.16
362.983	11.12
363.192	11.2
363.401	11.15
363.61	11.16
363.819	11.1
364.028	11.5
364.237	11.63
364.446	11.64
364.655	11.82
364.864	11.64
365.073	11.77
365.282	11.71
365.491	11.46
365.7	11.45
365.909	11.31
366.118	11.45
366.327	11.68
366.536	11.73
366.745	11.72
366.954	11.61
367.162	11.73
367.371	11.69
367.58	12.01
367.789	12.07
367.998	12.24
368.207	12.29
368.415	12.18
368.624	12.05
368.833	12.01
369.042	12.03
369.25	12.19
369.459	12.48
369.668	12.43
369.877	12.23
370.085	12.35
370.294	12.42
370.503	12.59
370.711	12.42
370.92	12.2
371.129	12.23
371.337	12.12
371.546	12.06
371.754	11.93
371.963	11.89
372.171	11.92
372.38	12.09
372.589	11.79
372.797	11.64
373.006	11.76
373.214	11.58
373.423	11.58
373.631	11.52
373.84	11.47
374.048	11.28
374.256	11.34
374.465	11.53
374.673	11.39
374.882	11.55
375.09	11.84
375.298	11.88
375.507	11.97
375.715	11.89
375.923	11.93
376.132	11.91
376.34	11.83
376.548	11.63
376.757	11.42
376.965	11.46
377.173	11.39
377.381	11.01
377.59	11.12
377.798	11.13
378.006	11.06
378.214	11.24
378.423	11.21
378.631	11.26
378.839	11.46
379.047	11.45
379.255	11.38
379.463	11.36
379.671	11.49
379.879	11.11
380.088	10.96
380.296	10.77
380.504	10.59
380.712	10.39
380.92	10.49
381.128	10.33
381.336	10.32
381.544	10.15
381.752	10.01
381.96	9.96
382.168	10.06
382.376	10.17
382.584	10.3
382.791	10.37
382.999	10.45
383.207	10.28
383.415	10.43
383.623	10.41
383.831	10.35
384.039	10.3
384.247	10.3
384.454	10.48
384.662	10.51
384.87	10.57
385.078	10.5
385.285	10.44
385.493	10.45
385.701	10.24
385.909	10.18
386.116	10.36
386.324	10.38
386.532	10.27
386.739	10.09
386.947	10.02
387.155	10
387.362	9.93
387.57	9.81
387.778	9.79
387.985	9.81
388.193	9.76
388.4	9.66
388.608	9.83
388.816	9.86
389.023	9.93
389.231	9.93
389.438	9.7
389.646	9.67
389.853	9.84
390.061	9.77
390.268	9.9
390.475	9.7
390.683	9.77
390.89	9.52
391.098	9.47
391.305	9.39
391.512	9.15
391.72	9.24
391.927	9.23
392.135	9.29
392.342	9.33
392.549	9.16
392.756	9.22
392.964	8.98
393.171	9.18
393.378	9.22
393.586	9.11
393.793	9.11
394	9.05
394.207	9.05
394.414	8.94
394.622	8.86
394.829	8.7
395.036	8.75
395.243	8.78
395.45	8.62
395.657	8.49
395.864	8.57
396.072	8.59
396.279	8.69
396.486	8.62
396.693	8.49
396.9	8.44
397.107	8.65
397.314	8.82
397.521	8.8
397.728	8.81
397.935	8.87
398.142	8.67
398.349	8.84
398.556	8.79
398.763	8.8
398.97	8.86
399.177	8.89
399.383	8.78
399.59	8.68
399.797	8.68
400.004	8.63
400.211	8.68
400.418	8.86
400.625	8.7
400.831	8.75
401.038	8.8
401.245	8.81
401.452	8.82
401.658	8.75
401.865	8.9
402.072	8.89
402.279	9.01
402.485	8.78
402.692	8.54
402.899	8.43
403.105	8.3
403.312	8.19
403.519	8
403.725	7.93
403.932	7.86
404.138	7.62
404.345	7.63
404.552	7.4
404.758	7.48
404.965	7.44
405.171	7.52
405.378	7.47
405.584	7.45
405.791	7.53
405.997	7.54
406.204	7.74
406.41	7.69
406.617	7.71
406.823	7.84
407.029	7.86
407.236	7.88
407.442	7.9
407.649	7.97
407.855	8.09
408.061	8.2
408.268	8.32
408.474	8.26
408.68	8.39
408.887	8.3
409.093	8.21
409.299	8.3
409.505	8.52
409.712	8.5
409.918	8.41
410.124	8.24
410.33	8.14
410.537	7.94
410.743	7.78
410.949	7.74
411.155	7.8
411.361	7.86
411.567	7.64
411.773	7.55
411.98	7.53
412.186	7.56
412.392	7.76
412.598	7.8
412.804	7.77
413.01	7.9
413.216	7.86
413.422	7.78
413.628	7.67
413.834	7.83
414.04	7.86
414.246	7.9
414.452	7.76
414.658	7.64
414.864	7.47
415.07	7.6
415.275	7.49
415.481	7.46
415.687	7.26
415.893	7.3
416.099	7.26
416.305	7.12
416.511	7.12
416.716	6.98
416.922	6.76
417.128	6.76
417.334	6.6
417.539	6.64
417.745	6.4
417.951	6.41
418.157	6.32
418.362	6.18
418.568	6.11
418.774	5.82
418.979	5.91
419.185	5.96
419.391	5.86
419.596	5.8
419.802	5.64
420.008	5.73
420.213	5.71
420.419	5.73
420.624	5.71
420.83	5.77
421.035	5.84
421.241	5.72
421.446	5.69
421.652	5.7
421.857	5.7
422.063	5.75
422.268	5.7
422.474	5.73
422.679	5.69
422.885	5.6
423.09	5.52
423.295	5.5
423.501	5.53
423.706	5.53
423.911	5.51
424.117	5.47
424.322	5.35
424.527	5.34
424.733	5.31
424.938	5.3
425.143	5.39
425.349	5.35
425.554	5.36
425.759	5.41
425.964	5.42
426.169	5.53
426.375	5.57
426.58	5.73
426.785	5.78
426.99	5.84
427.195	5.84
427.4	5.87
427.605	5.96
427.811	6
428.016	5.96
428.221	6.06
428.426	6.02
428.631	5.98
428.836	6.03
429.041	6.05
429.246	6.02
429.451	6
429.656	5.91
429.861	5.95
430.066	5.98
430.271	6.04
430.476	6
430.681	6.05
430.886	6.12
431.09	6.15
431.295	6.15
431.5	6.11
431.705	6.15
431.91	6.25
432.115	6.15
432.32	6.14
432.524	6.02
432.729	6.02
432.934	5.9
433.139	5.87
433.343	5.85
433.548	5.84
433.753	5.93
433.958	5.91
434.162	5.95
434.367	6.1
434.572	6.19
434.776	6.24
434.981	6.27
435.186	6.38
435.39	6.54
435.595	6.54
435.799	6.48
436.004	6.39
436.209	6.48
436.413	6.41
436.618	6.24
436.822	6.15
437.027	6.13
437.231	6
437.436	5.98
437.64	5.89
437.845	5.78
438.049	5.86
438.253	5.87
438.458	5.76
438.662	5.71
438.867	5.71
439.071	5.66
439.275	5.59
439.48	5.59
439.684	5.49
439.888	5.41
440.093	5.46
440.297	5.4
440.501	5.4
440.706	5.35
440.91	5.35
441.114	5.41
441.318	5.49
441.523	5.54
441.727	5.52
441.931	5.58
442.135	5.65
442.339	5.7
442.543	5.73
442.748	5.75
442.952	5.81
443.156	5.79
443.36	5.73
443.564	5.6
443.768	5.66
443.972	5.59
444.176	5.53
444.38	5.45
444.584	5.33
444.788	5.31
444.992	5.24
445.196	5.17
445.4	5.21
445.604	5.21
445.808	5.26
446.012	5.16
446.216	5.19
446.42	5.19
446.624	5.21
446.828	5.21
447.032	5.13
447.235	5.18
447.439	5.2
447.643	5.18
447.847	5.15
448.051	5.17
448.254	5.21
448.458	5.23
448.662	5.22
448.866	5.21
449.069	5.34
449.273	5.45
449.477	5.38
449.681	5.42
449.884	5.48
450.088	5.64
450.292	5.58
450.495	5.66
450.699	5.63
450.902	5.64
451.106	5.66
451.31	5.57
451.513	5.58
451.717	5.64
451.92	5.65
452.124	5.67
452.327	5.53
452.531	5.54
452.734	5.42
452.938	5.47
453.141	5.65
453.345	5.67
453.548	5.67
453.752	5.66
453.955	5.67
454.158	5.64
454.362	5.61
454.565	5.65
454.769	5.66
454.972	5.7
455.175	5.67
455.379	5.65
455.582	5.66
455.785	5.68
455.988	5.58
456.192	5.65
456.395	5.68
456.598	5.69
456.801	5.69
457.005	5.7
457.208	5.7
457.411	5.71
457.614	5.52
457.817	5.45
458.021	5.45
458.224	5.52
458.427	5.33
458.63	5.25
458.833	5.24
459.036	5.15
459.239	5.06
459.442	4.98
459.645	4.89
459.848	4.89
460.051	4.93
460.254	4.95
460.457	4.94
460.66	5.06
460.863	5.14
461.066	5.1
461.269	5.12
461.472	5.28
461.675	5.38
461.878	5.49
462.081	5.59
462.284	5.57
462.486	5.53
462.689	5.52
462.892	5.54
463.095	5.55
463.298	5.61
463.5	5.74
463.703	5.67
463.906	5.74
464.109	5.69
464.311	5.61
464.514	5.65
464.717	5.68
464.92	5.67
465.122	5.67
465.325	5.74
465.528	5.71
465.73	5.81
465.933	5.8
466.135	5.75
466.338	5.74
466.541	5.71
466.743	5.69
466.946	5.6
467.148	5.61
467.351	5.62
467.553	5.53
467.756	5.6
467.958	5.43
468.161	5.55
468.363	5.59
468.566	5.63
468.768	5.72
468.971	5.74
469.173	5.88
469.375	5.92
469.578	5.84
469.78	5.88
469.983	5.88
470.185	5.9
470.387	5.97
470.59	5.87
470.792	5.91
470.994	5.94
471.196	5.93
471.399	5.94
471.601	5.96
471.803	6.04
472.005	5.97
472.208	5.9
472.41	5.9
472.612	5.82
472.814	5.88
473.016	5.89
473.218	5.96
473.421	6.01
473.623	5.94
473.825	5.99
474.027	5.96
474.229	5.96
474.431	5.94
474.633	6.01
474.835	6.02
475.037	6.03
475.239	5.94
475.441	5.81
475.643	5.89
475.845	5.84
476.047	5.69
476.249	5.71
476.451	5.76
476.653	5.77
476.855	5.68
477.057	5.53
477.258	5.46
477.46	5.46
477.662	5.48
477.864	5.35
478.066	5.43
478.268	5.46
478.469	5.37
478.671	5.29
478.873	5.33
479.075	5.31
479.276	5.36
479.478	5.4
479.68	5.43
479.882	5.38
480.083	5.42
480.285	5.34
480.487	5.36
480.688	5.33
480.89	5.35
481.091	5.29
481.293	5.27
481.495	5.19
481.696	5.14
481.898	5.07
482.099	5.04
482.301	4.92
482.502	4.85
482.704	4.82
482.905	4.81
483.107	4.72
483.308	4.65
483.51	4.6
483.711	4.59
483.913	4.57
484.114	4.57
484.315	4.53
484.517	4.53
484.718	4.53
484.92	4.49
485.121	4.46
485.322	4.49
485.524	4.52
485.725	4.53
485.926	4.56
486.127	4.55
486.329	4.53
486.53	4.55
486.731	4.55
486.932	4.52
487.134	4.54
487.335	4.55
487.536	4.51
487.737	4.5
487.938	4.5
488.139	4.51
488.341	4.55
488.542	4.57
488.743	4.57
488.944	4.59
489.145	4.63
489.346	4.66
489.547	4.67
489.748	4.7
489.949	4.75
490.15	4.78
490.351	4.74
490.552	4.72
490.753	4.74
490.954	4.74
491.155	4.75
491.356	4.8
491.557	4.81
491.758	4.86
491.959	4.88
492.159	4.92
492.36	4.89
492.561	4.93
492.762	4.96
492.963	5
493.164	5.03
493.364	5.04
493.565	4.99
493.766	4.98
493.967	4.93
494.167	4.97
494.368	5.02
494.569	5.09
494.769	5.15
494.97	5.22
495.171	5.27
495.371	5.4
495.572	5.46
495.773	5.49
495.973	5.55
496.174	5.62
496.375	5.64
496.575	5.56
496.776	5.7
496.976	5.72
497.177	5.67
497.377	5.56
497.578	5.47
497.778	5.52
497.979	5.61
498.179	5.63
498.38	5.68
498.58	5.74
498.78	5.78
498.981	5.74
499.181	5.76
499.382	5.82
499.582	5.99
499.782	6.11
499.983	6.08
500.183	6.16
500.383	6.16
500.584	6.18
500.784	6.08
500.984	6.15
501.184	6.11
501.385	6.12
501.585	6.11
501.785	6.03
501.985	6.05
502.185	6.18
502.386	6.18
502.586	6.28
502.786	6.31
502.986	6.4
503.186	6.46
503.386	6.52
503.586	6.5
503.786	6.52
503.987	6.59
504.187	6.53
504.387	6.49
504.587	6.43
504.787	6.39
504.987	6.42
505.187	6.45
505.387	6.38
505.587	6.4
505.786	6.36
505.986	6.35
506.186	6.34
506.386	6.41
506.586	6.46
506.786	6.5
506.986	6.64
507.186	6.66
507.386	6.63
507.585	6.71
507.785	6.67
507.985	6.78
508.185	6.84
508.384	6.88
508.584	6.9
508.784	6.81
508.984	6.96
509.183	6.87
509.383	6.85
509.583	7.01
509.782	7.05
509.982	7.09
510.182	7.04
510.381	7.12
510.581	7.18
510.781	7.19
510.98	7.32
511.18	7.23
511.379	7.31
511.579	7.38
511.778	7.35
511.978	7.38
512.177	7.44
512.377	7.53
512.576	7.46
512.776	7.46
512.975	7.56
513.175	7.65
513.374	7.67
513.573	7.73
513.773	7.84
513.972	7.91
514.172	7.96
514.371	8.12
514.57	8.26
514.77	8.4
514.969	8.43
515.168	8.45
515.367	8.46
515.567	8.61
515.766	8.61
515.965	8.57
516.164	8.52
516.364	8.53
516.563	8.39
516.762	8.31
516.961	8.24
517.16	8.26
517.359	8.34
517.559	8.32
517.758	8.26
517.957	8.23
518.156	8.24
518.355	8.24
518.554	8.16
518.753	8.23
518.952	8.27
519.151	8.34
519.35	8.42
519.549	8.39
519.748	8.44
519.947	8.51
520.146	8.59
520.345	8.73
520.544	8.83
520.743	9.01
520.942	9.05
521.141	9.11
521.339	9.2
521.538	9.21
521.737	9.28
521.936	9.33
522.135	9.45
522.333	9.56
522.532	9.56
522.731	9.59
522.93	9.58
523.129	9.67
523.327	9.72
523.526	9.75
523.725	9.82
523.923	9.85
524.122	9.89
524.321	9.87
524.519	9.86
524.718	9.83
524.917	9.82
525.115	9.85
525.314	9.85
525.512	9.9
525.711	9.89
525.909	9.96
526.108	9.97
526.306	9.93
526.505	9.98
526.703	10.04
526.902	10.05
527.1	10.09
527.299	10.11
527.497	10.09
527.696	10.09
527.894	10.13
528.092	10.08
528.291	10.08
528.489	10.15
528.688	10.16
528.886	10.18
529.084	10.22
529.283	10.28
529.481	10.32
529.679	10.4
529.877	10.45
530.076	10.51
530.274	10.6
530.472	10.68
530.67	10.78
530.869	10.84
531.067	10.88
531.265	10.99
531.463	11.06
531.661	11.15
531.859	11.18
532.057	11.25
532.255	11.3
532.454	11.36
532.652	11.4
532.85	11.41
533.048	11.45
533.246	11.53
533.444	11.6
533.642	11.68
533.84	11.72
534.038	11.78
534.236	11.86
534.434	11.91
534.632	11.98
534.83	12.08
535.027	12.17
535.225	12.24
535.423	12.3
535.621	12.36
535.819	12.34
536.017	12.48
536.215	12.55
536.412	12.62
536.61	12.71
536.808	12.7
537.006	12.82
537.203	12.89
537.401	13.02
537.599	13.09
537.797	13.23
537.994	13.42
538.192	13.52
538.39	13.72
538.587	13.85
538.785	13.95
538.983	14.13
539.18	14.21
539.378	14.35
539.575	14.41
539.773	14.52
539.97	14.53
540.168	14.59
540.366	14.63
540.563	14.67
540.761	14.71
540.958	14.77
541.155	14.87
541.353	14.91
541.55	14.93
541.748	14.99
541.945	15.02
542.143	15.09
542.34	15.18
542.537	15.25
542.735	15.34
542.932	15.45
543.129	15.64
543.327	15.8
543.524	16.08
543.721	16.34
543.919	16.65
544.116	16.93
544.313	17.25
544.51	17.56
544.708	17.9
544.905	18.2
545.102	18.58
545.299	18.77
545.496	18.96
545.693	19.06
545.891	19.14
546.088	19.18
546.285	19.27
546.482	19.23
546.679	19.17
546.876	19.11
547.073	19.03
547.27	18.89
547.467	18.84
547.664	18.78
547.861	18.76
548.058	18.81
548.255	18.81
548.452	18.83
548.649	18.95
548.846	19.08
549.043	19.16
549.24	19.31
549.437	19.34
549.633	19.49
549.83	19.6
550.027	19.7
550.224	19.73
550.421	19.76
550.618	19.72
550.814	19.74
551.011	19.78
551.208	19.91
551.405	19.91
551.601	20.03
551.798	19.92
551.995	19.92
552.191	19.88
552.388	19.95
552.585	20.01
552.781	20.09
552.978	20.16
553.175	20.11
553.371	20.16
553.568	20.28
553.764	20.3
553.961	20.37
554.157	20.4
554.354	20.51
554.55	20.57
554.747	20.6
554.943	20.79
555.14	20.84
555.336	20.9
555.533	20.93
555.729	20.96
555.926	21.14
556.122	21.35
556.318	21.54
556.515	21.69
556.711	21.73
556.907	21.87
557.104	21.94
557.3	22.02
557.496	22.22
557.693	22.31
557.889	22.4
558.085	22.33
558.281	22.4
558.478	22.46
558.674	22.36
558.87	22.49
559.066	22.59
559.262	22.64
559.459	22.72
559.655	22.81
559.851	22.91
560.047	22.97
560.243	23.15
560.439	23.21
560.635	23.29
560.831	23.43
561.027	23.6
561.223	23.62
561.419	23.6
561.615	23.61
561.811	23.69
562.007	23.77
562.203	23.86
562.399	23.97
562.595	23.92
562.791	24.07
562.987	24.19
563.183	24.1
563.379	24.18
563.575	24.32
563.771	24.52
563.966	24.4
564.162	24.38
564.358	24.41
564.554	24.42
564.75	24.65
564.945	24.64
565.141	24.67
565.337	24.72
565.533	24.7
565.728	24.61
565.924	24.6
566.12	24.67
566.315	24.71
566.511	24.78
566.707	24.8
566.902	24.66
567.098	24.82
567.293	24.87
567.489	24.97
567.684	25.14
567.88	25.3
568.076	25.47
568.271	25.65
568.467	25.79
568.662	25.79
568.858	25.95
569.053	26.22
569.248	26.16
569.444	26.16
569.639	26.1
569.835	26.18
570.03	26.17
570.225	26.01
570.421	26
570.616	25.93
570.812	26.01
571.007	26.08
571.202	25.96
571.397	26
571.593	26.08
571.788	26.27
571.983	26.28
572.178	26.37
572.374	26.51
572.569	26.55
572.764	26.79
572.959	26.89
573.154	26.85
573.35	26.9
573.545	26.98
573.74	27.07
573.935	27.05
574.13	27.1
574.325	27.2
574.52	27.38
574.715	27.62
574.91	27.62
575.105	27.77
575.3	27.92
575.495	28.17
575.69	28.29
575.885	28.45
576.08	28.73
576.275	28.99
576.47	29.29
576.665	29.32
576.86	29.38
577.055	29.58
577.25	29.82
577.444	30.08
577.639	30.36
577.834	30.63
578.029	30.82
578.224	30.89
578.418	31.03
578.613	31.16
578.808	31.38
579.003	31.52
579.197	31.69
579.392	31.56
579.587	31.49
579.781	31.46
579.976	31.4
580.171	31.35
580.365	31.42
580.56	31.42
580.755	31.37
580.949	31.37
581.144	31.35
581.338	31.24
581.533	31.45
581.727	31.63
581.922	31.62
582.116	31.9
582.311	31.91
582.505	31.94
582.7	31.91
582.894	32.01
583.089	32.09
583.283	32.11
583.478	32.27
583.672	32.25
583.866	32.22
584.061	32.24
584.255	31.96
584.449	32.07
584.644	32.3
584.838	32.55
585.032	32.46
585.226	32.55
585.421	32.75
585.615	32.84
585.809	32.87
586.003	32.9
586.198	33.08
586.392	33.38
586.586	33.52
586.78	33.52
586.974	33.53
587.168	33.57
587.363	33.58
587.557	33.35
587.751	33.32
587.945	33.24
588.139	33.14
588.333	33
588.527	32.78
588.721	32.51
588.915	32.26
589.109	32.06
589.303	32.01
589.497	31.74
589.691	31.77
589.885	31.6
590.079	31.68
590.273	31.63
590.466	31.77
590.66	31.89
590.854	32.18
591.048	32.33
591.242	32.44
591.436	32.52
591.629	32.81
591.823	33.14
592.017	33.48
592.211	33.44
592.404	33.65
592.598	33.62
592.792	33.61
592.986	33.54
593.179	33.36
593.373	33.28
593.567	33.32
593.76	33.18
593.954	32.92
594.147	32.63
594.341	32.63
594.535	32.56
594.728	32.4
594.922	32.26
595.115	32.13
595.309	32.11
595.502	31.98
595.696	31.79
595.889	31.81
596.083	31.75
596.276	31.73
596.47	31.73
596.663	31.61
596.856	31.65
597.05	31.73
597.243	31.7
597.437	31.78
597.63	32.01
597.823	32.19
598.017	32.26
598.21	32.52
598.403	32.71
598.596	32.9
598.79	33.06
598.983	33.14
599.176	33.3
599.369	33.45
599.563	33.45
599.756	33.47
599.949	33.5
600.142	33.41
600.335	33.43
600.528	33.28
600.722	33.14
600.915	33.2
601.108	33.27
601.301	33.23
601.494	33.24
601.687	33.24
601.88	33.21
602.073	33.09
602.266	33.1
602.459	32.8
602.652	32.72
602.845	32.6
603.038	32.43
603.231	32.27
603.424	31.99
603.617	31.84
603.809	31.75
604.002	31.48
604.195	31.36
604.388	31.38
604.581	31.51
604.774	31.52
604.966	31.49
605.159	31.58
605.352	31.67
605.545	32.04
605.737	32.19
605.93	32.35
606.123	32.65
606.316	33.05
606.508	33.28
606.701	33.31
606.894	33.48
607.086	33.87
607.279	34.16
607.471	34.48
607.664	34.46
607.857	34.88
608.049	35.31
608.242	35.81
608.434	36.37
608.627	37.18
608.819	38.23
609.012	39.46
609.204	40.76
609.397	42.23
609.589	43.89
609.782	45.62
609.974	47.33
610.166	49.14
610.359	50.91
610.551	52.56
610.743	53.87
610.936	55.12
611.128	56.14
611.32	56.84
611.513	57.14
611.705	56.99
611.897	56.98
612.09	56.58
612.282	55.95
612.474	55.16
612.666	54.21
612.858	53.46
613.051	52.64
613.243	51.5
613.435	50.55
613.627	49.78
613.819	49.1
614.011	48.49
614.203	47.7
614.395	46.95
614.588	46.23
614.78	45.77
614.972	45.07
615.164	44.49
615.356	43.99
615.548	43.3
615.74	42.65
615.932	42.04
616.124	41.34
616.315	40.94
616.507	40.62
616.699	40.21
616.891	39.73
617.083	39.38
617.275	38.64
617.467	38.5
617.659	38.3
617.85	38.22
618.042	38.01
618.234	37.8
618.426	37.44
618.618	36.97
618.809	36.77
619.001	36.65
619.193	36.46
619.384	36.66
619.576	36.65
619.768	36.59
619.959	36.64
620.151	36.55
620.343	36.56
620.534	36.59
620.726	36.83
620.917	36.98
621.109	37.07
621.301	37.25
621.492	37.34
621.684	37.36
621.875	37.44
622.067	37.33
622.258	37.48
622.45	37.52
622.641	37.59
622.832	37.69
623.024	37.87
623.215	37.78
623.407	37.79
623.598	37.74
623.789	37.72
623.981	37.58
624.172	37.58
624.363	37.54
624.555	37.49
624.746	37.47
624.937	37.33
625.129	37.2
625.32	37.18
625.511	36.9
625.702	36.72
625.893	36.64
626.085	36.56
626.276	36.52
626.467	36.53
626.658	36.35
626.849	36.33
627.04	36.24
627.231	36.13
627.422	36.1
627.614	36.18
627.805	36.33
627.996	36.32
628.187	36.58
628.378	36.56
628.569	36.67
628.76	37.07
628.951	37.38
629.142	37.73
629.332	37.98
629.523	38.32
629.714	38.63
629.905	38.93
630.096	39.12
630.287	39.18
630.478	39.31
630.669	39.37
630.859	39.25
631.05	39.12
631.241	38.92
631.432	38.64
631.623	38.33
631.813	38.06
632.004	37.59
632.195	37.2
632.385	36.95
632.576	36.88
632.767	36.6
632.957	36.43
633.148	36.25
633.339	36.12
633.529	35.97
633.72	35.67
633.91	35.61
634.101	35.58
634.292	35.51
634.482	35.44
634.673	35.35
634.863	35.31
635.054	35.25
635.244	35.05
635.435	34.98
635.625	34.86
635.815	34.96
636.006	35.01
636.196	34.97
636.387	35.16
636.577	35.02
636.767	35.21
636.958	35.3
637.148	35.26
637.338	35.37
637.529	35.48
637.719	35.84
637.909	35.88
638.099	35.76
638.29	35.93
638.48	36.12
638.67	36.32
638.86	36.1
639.05	36.02
639.241	36.09
639.431	36.17
639.621	36.2
639.811	36.05
640.001	36.23
640.191	36.36
640.381	36.21
640.571	35.94
640.761	35.87
640.951	35.97
641.141	35.76
641.331	35.88
641.521	36.16
641.711	35.99
641.901	36.22
642.091	36.2
642.281	36.27
642.471	36.4
642.661	36.6
642.851	36.78
643.041	36.72
643.231	36.99
643.42	36.99
643.61	36.91
643.8	36.95
643.99	36.82
644.18	36.84
644.369	36.79
644.559	36.84
644.749	36.81
644.939	36.66
645.128	36.73
645.318	36.51
645.508	36.33
645.697	36.1
645.887	36.37
646.076	36.27
646.266	36.33
646.456	36.39
646.645	36.27
646.835	36.16
647.024	36.42
647.214	36.39
647.403	36.8
647.593	36.99
647.782	37.35
647.972	37.13
648.161	37.22
648.351	37.16
648.54	36.96
648.73	37.13
648.919	37.08
649.108	37.06
649.298	37.25
649.487	37.15
649.677	37.18
649.866	36.8
650.055	36.83
650.244	36.93
650.434	36.95
650.623	37.05
650.812	37.05
651.002	37.2
651.191	36.98
651.38	36.96
651.569	37.07
651.758	36.91
651.947	36.98
652.137	36.99
652.326	36.84
652.515	36.82
652.704	36.65
652.893	36.7
653.082	36.54
653.271	36.51
653.46	36.45
653.649	36.45
653.838	36.49
654.027	36.69
654.216	36.66
654.405	36.9
654.594	36.79
654.783	36.93
654.972	36.95
655.161	37.18
655.35	37.28
655.539	37.13
655.728	36.85
655.916	36.75
656.105	36.74
656.294	36.88
656.483	36.61
656.672	36.54
656.86	36.63
657.049	36.39
657.238	36.08
657.427	35.9
657.615	35.86
657.804	35.69
657.993	35.56
658.181	35.34
658.37	35.11
658.559	35.34
658.747	35.34
658.936	35.22
659.125	35.13
659.313	35.37
659.502	35.5
659.69	35.57
659.879	35.7
660.067	35.87
660.256	36
660.444	36.13
660.633	36.19
660.821	36.43
661.01	36.54
661.198	36.87
661.387	36.79
661.575	37.09
661.763	37.3
661.952	37.66
662.14	37.83
662.328	37.8
662.517	37.93
662.705	37.69
662.893	37.64
663.082	37.67
663.27	37.66
663.458	37.71
663.646	37.66
663.834	37.75
664.023	37.54
664.211	37.69
664.399	38.02
664.587	37.92
664.775	38.03
664.963	38.18
665.152	38.28
665.34	38.19
665.528	38.65
665.716	38.65
665.904	38.31
666.092	38.62
666.28	38.45
666.468	38.05
666.656	38.27
666.844	38.2
667.032	38.16
667.22	38.18
667.408	38.38
667.596	37.9
667.784	37.94
667.971	38.02
668.159	37.61
668.347	37.65
668.535	37.6
668.723	37.54
668.911	37.57
669.098	37.57
669.286	37.58
669.474	37.46
669.662	37.66
669.849	37.54
670.037	37.81
670.225	38.04
670.413	38.14
670.6	38.5
670.788	38.7
670.976	38.76
671.163	38.63
671.351	38.51
671.538	38.67
671.726	38.76
671.913	38.77
672.101	38.42
672.289	38.55
672.476	38.28
672.664	38.11
672.851	38.18
673.039	38.28
673.226	38.28
673.413	38.33
673.601	38.12
673.788	38.23
673.976	38.4
674.163	38.63
674.35	38.82
674.538	39.3
674.725	39.67
674.912	39.56
675.1	39.63
675.287	39.85
675.474	39.91
675.662	40.13
675.849	39.95
676.036	40.01
676.223	40.14
676.411	39.79
676.598	39.49
676.785	39.04
676.972	38.94
677.159	38.88
677.346	38.63
677.533	38.75
677.721	38.51
677.908	38.3
678.095	38.01
678.282	37.81
678.469	37.4
678.656	37.31
678.843	37.29
679.03	37.24
679.217	37.35
679.404	37.38
679.591	37.14
679.778	36.97
679.964	37.1
680.151	37.14
680.338	36.99
680.525	37.28
680.712	37.17
680.899	37.33
681.086	37.33
681.272	37.08
681.459	37.17
681.646	37.38
681.833	37.59
682.02	37.59
682.206	37.75
682.393	38.14
682.58	38.27
682.766	38.54
682.953	38.79
683.14	38.67
683.326	39.02
683.513	39.11
683.7	39.02
683.886	39.15
684.073	39.23
684.259	39.12
684.446	39.2
684.632	39.4
684.819	39.6
685.005	39.48
685.192	39.71
685.378	39.53
685.565	39.48
685.751	39.39
685.938	39.35
686.124	39.22
686.31	39.35
686.497	39.03
686.683	38.82
686.87	38.68
687.056	38.52
687.242	38.54
687.429	38.49
687.615	38.45
687.801	38.48
687.987	38.55
688.174	38.68
688.36	38.71
688.546	38.9
688.732	38.71
688.918	38.57
689.105	38.59
689.291	38.6
689.477	38.83
689.663	38.9
689.849	39.08
690.035	39.2
690.221	39.6
690.407	39.72
690.593	39.83
690.779	39.96
690.965	39.87
691.151	40.19
691.337	40.45
691.523	40.64
691.709	40.71
691.895	40.78
692.081	40.8
692.267	40.82
692.453	40.66
692.639	40.84
692.825	41.07
693.011	41.56
693.196	41.3
693.382	41.12
693.568	40.84
693.754	40.98
693.94	41.19
694.125	41.23
694.311	40.93
694.497	40.95
694.682	40.67
694.868	40.89
695.054	40.71
695.239	40.95
695.425	40.98
695.611	41.07
695.796	40.73
695.982	40.24
696.168	39.93
696.353	39.66
696.539	39.44
696.724	39.12
696.91	38.56
697.095	38.11
697.281	37.74
697.466	37.37
697.652	37.13
697.837	36.91
698.023	36.93
698.208	36.65
698.393	36.51
698.579	36.34
698.764	36.34
698.949	36.39
699.135	36.43
699.32	36.43
699.505	36.56
699.691	36.56
699.876	36.77
700.061	37.02
700.246	37.21
700.432	37.42
700.617	37.71
700.802	37.94
700.987	38.21
701.172	38.61
701.358	39.15
701.543	39.38
701.728	39.95
701.913	40.29
702.098	40.59
702.283	41.12
702.468	41.58
702.653	41.94
702.838	42.68
703.023	42.99
703.208	43.28
703.393	43.38
703.578	43.5
703.763	43.49
703.948	44.06
704.133	44.06
704.318	44.23
704.503	44.58
704.688	44.95
704.873	44.99
705.057	45.35
705.242	45.88
705.427	46.02
705.612	46.53
705.797	46.93
705.981	46.57
706.166	47.07
706.351	47.57
706.536	47.54
706.72	47.42
706.905	47.72
707.09	47.63
707.274	47.23
707.459	47.4
707.644	47.58
707.828	47.28
708.013	47.52
708.197	47.33
708.382	47.1
708.567	47.04
708.751	47.17
708.936	46.41
709.12	46.58
709.305	46.61
709.489	46.42
709.673	45.83
709.858	46.05
710.042	45.87
710.227	45.63
710.411	45.62
710.596	45.52
710.78	45.43
710.964	45.63
711.149	45.48
711.333	45.67
711.517	45.76
711.702	46.11
711.886	45.69
712.07	45.49
712.254	45.53
712.438	45.03
712.623	44.88
712.807	44.56
712.991	44.57
713.175	44.06
713.359	43.45
713.544	43.03
713.728	42.6
713.912	42.58
714.096	42.31
714.28	41.93
714.464	42.28
714.648	42.15
714.832	41.81
715.016	41.43
715.2	41.21
715.384	41.09
715.568	41.2
715.752	40.9
715.936	40.92
716.12	40.79
716.304	40.85
716.488	40.76
716.671	40.65
716.855	40.9
717.039	40.79
717.223	40.71
717.407	40.65
717.59	40.5
717.774	40.56
717.958	40.5
718.142	40.73
718.325	40.53
718.509	40.09
718.693	40.1
718.877	39.93
719.06	39.92
719.244	40.66
719.428	41.4
719.611	41.34
719.795	41.3
719.978	41.56
720.162	41.96
720.345	42.09
720.529	42.31
720.713	42.64
720.896	42.82
721.08	43.35
721.263	43.42
721.446	43.25
721.63	43.41
721.813	43.96
721.997	43.82
722.18	43.84
722.364	43.88
722.547	43.79
722.73	43.66
722.914	44.09
723.097	43.58
723.28	43.19
723.464	43.39
723.647	43.3
723.83	43.12
724.013	42.57
724.197	42.8
724.38	43.11
724.563	43.33
724.746	43.37
724.929	42.79
725.112	43.03
725.296	43.01
725.479	43.13
725.662	43.12
725.845	43.06
726.028	43.41
726.211	42.87
726.394	42.67
726.577	42.45
726.76	42.24
726.943	42.25
727.126	41.54
727.309	41.26
727.492	40.75
727.675	41.08
727.858	41.13
728.041	40.89
728.224	40.9
728.407	40.75
728.589	40.89
728.772	40.59
728.955	40.4
729.138	41.18
729.321	41.15
729.503	41.27
729.686	40.7
729.869	40.92
730.052	40.96
730.234	40.88
730.417	41.32
730.6	40.91
730.782	41.21
730.965	41.43
731.148	40.82
731.33	41.21
731.513	41.04
731.695	41.17
731.878	41.13
732.061	41.41
732.243	41.84
732.426	41.58
732.608	42.12
732.791	42.35
732.973	42.45
733.156	42.98
733.338	42.81
733.52	42.99
733.703	43.04
733.885	43.07
734.068	43.06
734.25	43.21
734.432	43.51
734.615	43.69
734.797	43.68
734.979	43.64
735.162	43.64
735.344	43.71
735.526	43.86
735.708	44.46
735.891	44.39
736.073	44.9
736.255	44.77
736.437	44.55
736.619	44.37
736.802	44.02
736.984	44.31
737.166	45.07
737.348	45.61
737.53	45.29
737.712	45.18
737.894	45.43
738.076	45.12
738.258	44.67
738.44	44.73
738.622	45.02
738.804	45.41
738.986	45.39
739.168	44.56
739.35	44.68
739.532	45.01
739.714	45.07
739.896	44.58
740.078	44.58
740.259	45.19
740.441	45.3
740.623	45.16
740.805	45.61
740.987	45.34
741.168	46.11
741.35	46.1
741.532	45.89
741.714	45.97
741.895	46.42
742.077	47.04
742.259	47.45
742.44	47.7
742.622	47.52
742.804	47.46
742.985	48.39
743.167	47.94
743.348	48.02
743.53	48.32
743.711	48.21
743.893	48.16
744.075	47.79
744.256	47.89
744.438	48.04
744.619	48.39
744.8	48.76
744.982	48.69
745.163	49.22
745.345	49.41
745.526	50.12
745.707	50.18
745.889	50.89
746.07	51.42
746.252	51.24
746.433	51.42
746.614	51.33
746.795	50.76
746.977	50.48
747.158	50.47
747.339	50.3
747.52	50.11
747.702	50.48
747.883	50.23
748.064	49.6
748.245	49.36
748.426	48.87
748.607	49.36
748.788	49.28
748.97	49.63
749.151	49.74
749.332	49.74
749.513	49.02
749.694	48.95
749.875	49.67
750.056	49.62
750.237	49.44
750.418	49.46
750.599	49.38
750.78	49.71
750.96	49.52
751.141	49.79
751.322	49.6
751.503	49.97
751.684	49.5
751.865	48.24
752.046	48.14
752.226	47.39
752.407	47.45
752.588	46.46
752.769	46.24
752.949	46.01
753.13	45.51
753.311	45.12
753.492	45.19
753.672	45.42
753.853	46.08
754.034	46.63
754.214	47.26
754.395	47.73
754.575	48.78
754.756	48.99
754.937	49.54
755.117	49.66
755.298	50.75
755.478	51.09
755.659	51.36
755.839	51.2
756.02	50.9
756.2	50.94
756.381	51.1
756.561	50.74
756.741	50.15
756.922	49.69
757.102	49.75
757.283	49.08
757.463	48.79
757.643	48.63
757.823	48
758.004	47.63
758.184	47.62
758.364	47.38
758.545	46.55
758.725	45.77
758.905	45.14
759.085	44.67
759.265	43.47
759.446	43.02
759.626	42.72
759.806	43.02
759.986	43.26
760.166	42.64
760.346	41.44
760.526	41.69
760.706	42.56
760.886	42.8
761.066	42.89
761.246	43.59
761.426	43.52
761.606	43.2
761.786	42.85
761.966	41.83
762.146	41.11
762.326	41.75
762.506	41.39
762.686	40.95
762.866	40.22
763.046	39.45
763.225	39.18
763.405	39.13
763.585	38.62
763.765	38.75
763.945	38.75
764.124	39.32
764.304	39.1
764.484	39.42
764.664	39.8
764.843	40.42
765.023	40.89
765.203	41.6
765.382	41.99
765.562	42.76
765.741	43.18
765.921	44.04
766.101	44.78
766.28	45.21
766.46	45.68
766.639	46.35
766.819	46.56
766.998	47.19
767.178	47.53
767.357	47.69
767.537	47.95
767.716	47.79
767.896	48.51
768.075	48.99
768.254	49.6
768.434	49.84
768.613	50.26
768.792	51.18
768.972	51.46
769.151	51.54
769.33	52
769.51	52.58
769.689	53.62
769.868	54.15
770.047	53.81
770.226	53.63
770.406	53.41
770.585	52.74
770.764	52.63
770.943	52.81
771.122	52.67
771.301	52.16
771.48	53.19
771.66	52.75
771.839	52.09
772.018	51.92
772.197	51.59
772.376	52.45
772.555	53.46
772.734	53.45
772.913	53.33
773.092	53.67
773.271	54.57
773.449	53.72
773.628	54.2
773.807	54.68
773.986	55.31
774.165	56.66
774.344	56.07
774.523	54.88
774.701	56.02
774.88	56.9
775.059	57.52
775.238	56.45
775.417	56.18
775.595	56.01
775.774	56.17
775.953	56.33
776.131	55.26
776.31	55
776.489	55.71
776.667	54.2
776.846	54.03
777.025	53.14
777.203	53.95
777.382	53.46
777.56	53.54
777.739	53.19
777.917	52.71
778.096	52.7
778.274	53.55
778.453	53.71
778.631	55.02
778.81	54.85
778.988	54.66
779.166	54.26
779.345	54.13
779.523	53.96
779.702	54.71
779.88	55.26
780.058	56.22
780.237	56.99
780.415	56.65
780.593	55.64
780.771	54.93
780.95	54.77
781.128	56.23
781.306	57.36
781.484	57.56
781.662	56.42
781.841	55.63
782.019	54.63
782.197	54.01
782.375	53.71
782.553	54.32
782.731	56.12
782.909	57.61
783.087	57
783.265	57.08
783.443	56.77
783.621	56.92
783.799	58.23
783.977	58.52
784.155	58.14
784.333	58.94
784.511	58.35
784.689	57.09
784.867	56.68
785.045	55.87
785.223	55.54
785.4	55.65
785.578	56.02
785.756	55.49
785.934	56.16
786.112	55.76
786.289	55.88
786.467	56
786.645	55.54
786.823	55.37
787	55.39
787.178	55.68
787.356	55.04
787.533	54.51
787.711	53.8
787.889	52.48
788.066	52.63
788.244	51.18
788.421	51.05
788.599	50.85
788.776	51.64
788.954	52.32
789.131	50.96
789.309	51.46
789.486	52.43
789.664	53.02
789.841	53.33
790.019	53.66
790.196	54.14
790.373	53.99
790.551	54.91
790.728	54.09
790.906	54.5
791.083	57.36
791.26	57.22
791.437	56.82
791.615	56.88
791.792	57.4
791.969	57.65
792.146	58.63
792.324	58.1
792.501	57.27
792.678	58.21
792.855	57.59
793.032	56.11
793.209	56.93
793.387	56.45
793.564	56.28
793.741	57.42
793.918	56.43
794.095	56.51
794.272	57.76
794.449	57.82
794.626	57.11
794.803	57.37
794.98	57.57
795.157	57.39
795.334	57.24
795.511	57.47
795.688	55.85
795.864	55.49
796.041	55.24
796.218	55.53
796.395	55.76
796.572	55.31
796.749	54.56
796.925	54.13
797.102	53.75
797.279	53.74
797.456	53.44
797.632	53.6
797.809	54.56
797.986	54.25
798.162	54.14
798.339	53.4
798.516	54.32
798.692	55.41
798.869	55.72
799.046	56.32
799.222	56.74
799.399	56.69
799.575	57.57
799.752	58.42
799.928	58.81
800.105	57.64
800.281	58.65
800.458	58.19
800.634	57.23
800.811	56.16
800.987	56.94
801.163	55.95
801.34	56.05
801.516	56.29
801.692	56.17
801.869	55.94
802.045	56.13
802.221	55.95
802.398	56.03
802.574	55.63
802.75	57.28
802.926	55.79
803.103	56.91
803.279	57.39
803.455	56.36
803.631	55.94
803.807	55.95
803.983	57.58
804.16	58.79
804.336	58.91
804.512	61.06
804.688	60.98
804.864	60.8
805.04	61.05
805.216	61.32
805.392	62.62
805.568	62.86
805.744	63.25
805.92	62.11
806.096	61.08
806.272	60.59
806.448	60.44
806.623	59.89
806.799	59.68
806.975	59.58
807.151	60.35
807.327	60.11
807.503	60.53
807.678	62.5
807.854	61.44
808.03	61.44
808.206	62.37
808.381	61.07
808.557	61.88
808.733	63.3
808.908	64.68
809.084	63.38
809.26	63.19
809.435	62.81
809.611	60.18
809.787	60.33
809.962	60.88
810.138	60.88
810.313	61.59
810.489	62.36
810.664	61.69
810.84	60.12
811.015	60.63
811.191	60.71
811.366	60.53
811.542	60.99
811.717	62.37
811.892	61.57
812.068	61.44
812.243	60.84
812.419	59.48
812.594	60.53
812.769	60.98
812.944	60.41
813.12	59.86
813.295	60.16
813.47	60.49
813.645	58.26
813.821	58.57
813.996	57.9
814.171	58.84
814.346	58.98
814.521	58.48
814.697	58.45
814.872	58.17
815.047	57.37
815.222	56.89
815.397	55.06
815.572	57.7
815.747	57.41
815.922	57.01
816.097	55.95
816.272	54.91
816.447	55.88
816.622	56.41
816.797	55.77
816.972	56.48
817.147	55.83
817.322	56.01
817.496	54.36
817.671	55.1
817.846	54.88
818.021	54.11
818.196	53.19
818.371	51.15
818.545	49.51
818.72	50.23
818.895	51.29
819.069	49.75
819.244	49.75
819.419	49.09
819.594	47.29
819.768	46.28
819.943	45.57
820.117	44.6
820.292	43.29
820.467	42.64
820.641	40.95
820.816	38.9
820.99	38.19
821.165	36.59
821.339	35.78
821.514	35.06
821.688	34.51
821.863	33.57
822.037	33.07
822.212	32.72
822.386	32.27
822.56	31.92
822.735	31.68
822.909	31.67
823.084	32.08
823.258	31.99
823.432	31.79
823.606	31.58
823.781	32.18
823.955	32.39
824.129	32.45
824.303	32.68
824.478	33.05
824.652	33.77
824.826	34.17
825	34.53
825.174	35.33
825.348	36.15
825.523	36.79
825.697	36.92
825.871	37.39
826.045	38.15
826.219	38.6
826.393	38.85
826.567	38.93
826.741	38.74
826.915	38.29
827.089	37.94
827.263	37.71
827.437	37.78
827.611	37.78
827.784	37.81
827.958	37.7
828.132	37.43
828.306	37.72
828.48	37.45
828.654	38.05
828.827	38.78
829.001	39.78
829.175	41.3
829.349	42.88
829.522	43.83
829.696	44.9
829.87	46.33
830.044	48.21
830.217	49.83
830.391	51.2
830.565	51.51
830.738	51.75
830.912	52
831.085	51.61
831.259	51.88
831.432	52.05
831.606	53.14
831.779	53.22
831.953	53.27
832.126	51.62
832.3	50.72
832.473	49.25
832.647	48.78
832.82	47.87
832.994	46.93
833.167	46.12
833.34	46.09
833.514	44.79
833.687	43.17
833.86	41.67
834.034	41.4
834.207	41.69
834.38	42.7
834.553	42.73
834.727	43.22
834.9	42.9
835.073	42.73
835.246	41.97
835.419	43.49
835.593	45.09
835.766	46.01
835.939	47.28
836.112	47.02
836.285	47.65
836.458	48.45
836.631	49.47
836.804	52.19
836.977	54.58
837.15	57.06
837.323	58
837.496	57.82
837.669	58.55
837.842	58.65
838.015	61.2
838.188	61.8
838.361	64.2
838.533	64.06
838.706	63.34
838.879	61.58
839.052	61.57
839.225	60.81
839.398	62.75
839.57	64.3
839.743	65.75
839.916	66.28
840.088	66.58
840.261	65.21
840.434	66.98
840.607	67.2
840.779	68.92
840.952	70.23
841.124	68.02
841.297	66.9
841.47	66.3
841.642	66.87
841.815	67.61
841.987	67.79
842.16	69.82
842.332	70.72
842.505	73.1
842.677	74.13
842.85	73.89
843.022	77.56
843.194	80.99
843.367	83.83
843.539	85.02
843.712	84.19
843.884	86.05
844.056	85.99
844.229	82.82
844.401	84.64
844.573	85.99
844.745	88.81
844.918	90.24
845.09	89.2
845.262	92.4
845.434	96.26
845.606	98.48
845.779	102.3
845.951	104.25
846.123	105
846.295	104.51
846.467	103.1
846.639	102.15
846.811	98.84
846.983	102.57
847.155	98.02
847.327	93.43
847.499	93.03
847.671	93.47
847.843	92.79
848.015	95.69
848.187	94.07
848.359	91.86
848.531	94.19
848.703	100.02
848.875	96.99
849.047	97.84
849.218	95.88
849.39	97.81
849.562	96.9
849.734	95.21
849.905	93.14
850.077	93.89
850.249	98.37
850.421	97.18
850.592	96.24
850.764	100.44
850.936	101.19
851.107	107.08
851.279	104.69
851.451	105.3
851.622	107.71
851.794	112.35
851.965	115.5
852.137	117.37
852.308	115.75
852.48	116.63
852.651	111.27
852.823	111.74
852.994	111.63
853.166	111.81
853.337	111.18
853.509	111.21
853.68	110.09
853.851	106.86
854.023	110.32
854.194	110.14
854.365	108.39
854.537	113.15
854.708	109.36
854.879	111.29
855.05	116.3
855.222	112.67
855.393	114.3
855.564	113.83
855.735	118.8
855.906	116.64
856.078	118.68
856.249	118.91
856.42	117.04
856.591	123.76
856.762	120.64
856.933	116.04
857.104	116.53
857.275	113.51
857.446	111.46
857.617	106.89
857.788	101.81
857.959	99.66
858.13	102.19
858.301	103.01
858.472	100.78
858.643	97.58
858.814	99.23
858.985	103.09
859.155	106.1
859.326	111.01
859.497	113.67
859.668	118.22
859.839	124.59
860.009	121.55
860.18	121.94
860.351	121.02
860.522	129.81
860.692	127.73
860.863	121.19
861.034	124.05
861.204	127.53
861.375	123.39
861.546	130.29
861.716	129.66
861.887	126.14
862.057	125.87
862.228	122.67
862.398	116.46
862.569	117.73
862.739	125.61
862.91	122.33
863.08	114.59
863.251	113.16
863.421	106.73
863.592	101.24
863.762	108.24
863.932	104.22
864.103	111.99
864.273	114.85
864.443	111.07
864.614	107.35
864.784	107.19
864.954	109.32
865.125	107.97
865.295	106.36
865.465	109.46
865.635	105.5
865.805	106.27
865.976	100.58
866.146	98.89
866.316	103.82
866.486	105.53
866.656	107.22
866.826	108.57
866.996	116.87
867.166	121.34
867.336	125.67
867.506	130.07
867.676	135.52
867.846	142.58
868.016	143.34
868.186	133.28
868.356	133.26
868.526	130.56
868.696	129.71
868.866	126.73
869.036	123.62
869.206	123.98
869.376	115.93
869.545	113.36
869.715	110.79
869.885	114.86
870.055	121.12
870.224	120.71
870.394	122.05
870.564	123.13
870.734	122.59
870.903	124.17
871.073	122.34
871.243	124.28
871.412	122.49
871.582	122.31
871.751	119.05
871.921	114.66
872.091	112.09
872.26	106.73
872.43	107.55
872.599	102.92
872.769	103.2
872.938	97.38
873.108	96.33
873.277	96.25
873.446	92.43
873.616	91.48
873.785	96.48
873.955	95.02
874.124	99.65
874.293	96.94
874.463	99.39
874.632	99.11
874.801	104.54
874.971	105.88
875.14	109.71
875.309	111.75
875.478	120.61
875.647	114.56
875.817	121.32
875.986	116.67
876.155	118.43
876.324	113.43
876.493	111.6
876.662	108.43
876.831	110.08
877	107.19
877.17	105.85
877.339	99.77
877.508	101.07
877.677	97.71
877.846	100.03
878.015	95.57
878.184	99.79
878.352	98.27
878.521	98.01
878.69	95.11
878.859	93.09
879.028	94.68
879.197	90.16
879.366	86.01
879.534	81.37
879.703	75.9
879.872	70.77
880.041	65.63
880.21	60.86
880.378	58.2
880.547	54.95
880.716	52.82
880.884	49.23
881.053	46.91
881.222	44.71
881.39	41.91
881.559	40.57
881.727	39.55
881.896	38.64
882.065	38.79
882.233	37.06
882.402	35.9
882.57	35.6
882.739	35.69
882.907	35.84
883.076	36.96
883.244	37.58
883.412	37.11
883.581	37.73
883.749	38.21
883.918	37.64
884.086	39.03
884.254	39.98
884.423	40.28
884.591	41.18
884.759	42.14
884.927	42.74
885.096	44.17
885.264	46.65
885.432	48.02
885.6	50.45
885.769	53.34
885.937	54.46
886.105	58.48
886.273	61.1
886.441	63.71
886.609	66.06
886.777	66.47
886.945	69.26
887.113	74.16
887.281	73.67
887.449	74.56
887.617	79.35
887.785	85.65
887.953	88.18
888.121	90.31
888.289	89.51
888.457	92.61
888.625	95.78
888.793	99.02
888.961	101.21
889.129	107.91
889.296	112.01
889.464	110.04
889.632	108.88
889.8	106.89
889.967	109.36
890.135	118.18
