Data from 2938720__Reflection_02.txt Node
Date: Tue Mar 17 10:57:14 EDT 2015
User: robert
Spectrometer: USB4E03002
Autoset integration time: false
Trigger mode: 4
Integration Time (sec): 1.000000E-1
Scans to average: 10
Electric dark correction enabled: false
Nonlinearity correction enabled: false
Boxcar width: 5
Stray light correction enabled: false
XAxis mode: Wavelengths
Stop averaging: false
Number of Pixels in Spectrum: 3648
>>>>>Begin Spectral Data<<<<<
177.575	193.48
177.794	238.3
178.014	70.48
178.233	4.8
178.452	32.73
178.672	-40.68
178.891	-23.08
179.11	-47.89
179.33	15.03
179.549	-86.18
179.768	-404.4
179.987	-428.13
180.207	-114.12
180.426	308.33
180.645	171.43
180.864	128.46
181.084	107
181.303	104.71
181.522	123.23
181.741	133.87
181.96	42.4
182.179	-11.48
182.398	91.1
182.618	28.06
182.837	-205.26
183.056	-273.68
183.275	515
183.494	139.09
183.713	108.65
183.932	75.67
184.151	110.73
184.37	108.4
184.589	12.5
184.808	37.86
185.027	-29.94
185.246	-90.78
185.465	-344.14
185.684	-66.18
185.903	-46.74
186.122	-250.49
186.341	-2160
186.56	1220
186.779	-558.33
186.998	619.23
187.216	297.3
187.435	185.16
187.654	119.08
187.873	183.33
188.092	55.11
188.311	13.21
188.53	82.88
188.748	107.48
188.967	128.32
189.186	72.44
189.405	39.57
189.623	-69.44
189.842	80
190.061	-33.96
190.28	89.19
190.498	-142
190.717	115.75
190.936	-28.78
191.154	17.25
191.373	-42.47
191.592	-105.29
191.81	-76.86
192.029	15.23
192.248	31.1
192.466	32.79
192.685	53.67
192.904	49.19
193.122	63.32
193.341	71.26
193.559	110.98
193.778	91.16
193.996	68.55
194.215	53.54
194.433	52.26
194.652	67.43
194.87	92.33
195.089	46.59
195.307	80.45
195.526	71.73
195.744	45.21
195.963	223.08
196.181	48.29
196.399	-19.15
196.618	11.78
196.836	10.14
197.055	22
197.273	47.52
197.491	-82.19
197.71	228.3
197.928	-5.37
198.146	7.69
198.365	3.91
198.583	-25
198.801	23.22
199.019	19.02
199.238	-6.92
199.456	-53.57
199.674	-67.13
199.892	-81.12
200.111	-37.19
200.329	-75.99
200.547	-276.09
200.765	-59.18
200.983	-35.29
201.202	-81.22
201.42	-166.09
201.638	-102.44
201.856	-44.41
202.074	-9.48
202.292	11.5
202.51	-6.79
202.728	-53.88
202.946	-78.95
203.165	-69
203.383	-196.43
203.601	-122.59
203.819	-95.44
204.037	-55.15
204.255	-58.94
204.473	-106.19
204.691	-359.5
204.909	-169.67
205.127	-69.85
205.345	-61.66
205.562	-84.53
205.78	-73.07
205.998	-144.27
206.216	-113.11
206.434	-61.58
206.652	-72.77
206.87	-50.59
207.088	-63.9
207.306	-78.91
207.523	-67.1
207.741	-40.55
207.959	-27.96
208.177	-20.98
208.395	-8.29
208.612	-14.26
208.83	-74.1
209.048	-104.29
209.266	-72.64
209.483	10.37
209.701	17.6
209.919	33.82
210.136	11.5
210.354	-0.88
210.572	-17.52
210.79	-6.12
211.007	-6.03
211.225	-4.39
211.442	4.39
211.66	15.34
211.878	10.42
212.095	-89.62
212.313	-70.95
212.53	-95.52
212.748	-91.99
212.966	-71.46
213.183	-100.39
213.401	-100.76
213.618	-68.92
213.836	-62.38
214.053	-70.47
214.271	-102.65
214.488	29.2
214.705	27.54
214.923	41.34
215.14	9.35
215.358	12.36
215.575	39.66
215.793	43.82
216.01	37.99
216.227	25.93
216.445	23.75
216.662	25.86
216.879	33.87
217.097	23.49
217.314	13.23
217.531	28.65
217.749	27.62
217.966	13.29
218.183	-3.68
218.4	-1.53
218.618	17.6
218.835	14.49
219.052	13.53
219.269	8.54
219.487	15.69
219.704	20.89
219.921	2.95
220.138	2.85
220.355	1.55
220.572	14.52
220.79	12.1
221.007	-6.34
221.224	2.33
221.441	3.73
221.658	-11.17
221.875	-12.91
222.092	-21.55
222.309	-2.63
222.526	-7.42
222.743	-14.38
222.96	-28.8
223.177	-30.38
223.394	-27
223.611	-32.7
223.828	-34.3
224.045	-29.1
224.262	-20.85
224.479	-17.87
224.696	-22.34
224.913	-22.14
225.13	-8.35
225.347	-2.77
225.564	3.87
225.781	4.35
225.997	6.21
226.214	4.63
226.431	9.55
226.648	7.91
226.865	8.82
227.082	8.52
227.298	7.54
227.515	5.1
227.732	5
227.949	2.29
228.165	2.7
228.382	2.84
228.599	3.75
228.816	3.69
229.032	3.26
229.249	3.17
229.466	3.07
229.682	3.5
229.899	3.79
230.116	3.5
230.332	4.11
230.549	4.4
230.765	3.74
230.982	5
231.199	4.31
231.415	4.08
231.632	2.67
231.848	0.15
232.065	0.11
232.281	-2.44
232.498	-2.68
232.714	-0.7
232.931	-0.71
233.147	-0.75
233.364	-4.67
233.58	-4.08
233.797	-5.38
234.013	-4.2
234.23	-0.3
234.446	-0.77
234.662	0.62
234.879	0.35
235.095	-0.98
235.312	-2.98
235.528	-1.37
235.744	1.49
235.961	1.6
236.177	3.54
236.393	4.4
236.61	4.31
236.826	4.42
237.042	5.18
237.258	4.77
237.475	5.01
237.691	7.8
237.907	6.24
238.123	5.14
238.339	4.87
238.556	6.17
238.772	6.09
238.988	5.42
239.204	5.14
239.42	5.55
239.636	4.61
239.853	5.61
240.069	4.5
240.285	5.53
240.501	4.65
240.717	4.41
240.933	4.39
241.149	4.42
241.365	3.61
241.581	3.77
241.797	2.97
242.013	3.38
242.229	2.32
242.445	2.16
242.661	2.19
242.877	2.45
243.093	2.78
243.309	2.14
243.525	1.94
243.741	2.48
243.957	1.87
244.173	2.18
244.388	3.09
244.604	3.76
244.82	3.91
245.036	3.34
245.252	3.55
245.468	3.05
245.683	3.45
245.899	3.73
246.115	3.75
246.331	3.6
246.547	3.95
246.762	3.43
246.978	3.35
247.194	3.2
247.409	3.35
247.625	3.22
247.841	3.28
248.057	3.35
248.272	3.09
248.488	3.27
248.703	3.79
248.919	3.31
249.135	2.97
249.35	2.83
249.566	2.99
249.782	2.57
249.997	1.87
250.213	2.21
250.428	2.62
250.644	2.44
250.859	1.84
251.075	1.28
251.29	2.04
251.506	2.24
251.721	2.63
251.937	2.89
252.152	3.21
252.368	3.48
252.583	3.03
252.798	1.68
253.014	1.42
253.229	1.76
253.445	1.57
253.66	1.22
253.875	1.69
254.091	1.28
254.306	1.6
254.521	-0.2
254.737	-1.18
254.952	-1.52
255.167	-0.62
255.383	0.41
255.598	0.36
255.813	0.67
256.028	0.55
256.244	1.79
256.459	1.6
256.674	0.7
256.889	2.54
257.104	3.03
257.32	2.5
257.535	2.85
257.75	2.36
257.965	1.88
258.18	1.51
258.395	1.49
258.61	1.5
258.826	1.46
259.041	1.98
259.256	1.55
259.471	1.79
259.686	1.79
259.901	1.66
260.116	1.79
260.331	1.65
260.546	1.9
260.761	1.74
260.976	1.4
261.191	1.47
261.406	1.35
261.621	1.35
261.836	1.06
262.05	1.5
262.265	0.91
262.48	0.39
262.695	0.98
262.91	0.86
263.125	1.37
263.34	1.18
263.555	1.37
263.769	0.85
263.984	1.16
264.199	1.71
264.414	1.99
264.629	2.27
264.843	3.1
265.058	2.88
265.273	2.99
265.488	1.95
265.702	2.39
265.917	2.55
266.132	3.43
266.346	3.6
266.561	3.68
266.776	3.15
266.99	3.12
267.205	2.74
267.42	3.09
267.634	2.72
267.849	3.31
268.063	3.19
268.278	3.07
268.492	2.42
268.707	2.44
268.922	1.57
269.136	2.09
269.351	2.03
269.565	2.15
269.78	1.54
269.994	1.55
270.209	1.15
270.423	0.78
270.637	0.47
270.852	0.99
271.066	0.88
271.281	1.3
271.495	0.54
271.709	0.83
271.924	0.86
272.138	1.04
272.353	1.02
272.567	1.23
272.781	1.4
272.996	1.86
273.21	1.39
273.424	1.38
273.638	1.19
273.853	1.48
274.067	1.67
274.281	1.42
274.495	1.45
274.71	1.42
274.924	1.34
275.138	1.47
275.352	1.14
275.566	1.2
275.781	1.9
275.995	2.89
276.209	3.27
276.423	2.78
276.637	3.3
276.851	3.19
277.065	3.19
277.279	3.33
277.493	3.17
277.707	3.71
277.921	3.74
278.135	2.93
278.349	1.75
278.563	1.54
278.777	1.95
278.991	1.21
279.205	1.45
279.419	1.71
279.633	1.96
279.847	1.88
280.061	1.17
280.275	0.78
280.489	0.86
280.703	1.29
280.917	1.16
281.131	0.87
281.344	1.59
281.558	1.51
281.772	1.5
281.986	1.76
282.2	2.07
282.414	1.76
282.627	1.71
282.841	2.11
283.055	2.15
283.269	1.82
283.482	1.92
283.696	1.42
283.91	1.23
284.123	1.04
284.337	0.44
284.551	0.08
284.764	0.69
284.978	1.27
285.192	1.07
285.405	0.91
285.619	1.42
285.833	1.61
286.046	1.79
286.26	1.93
286.473	2.15
286.687	2.44
286.9	2.42
287.114	2.1
287.327	1.9
287.541	1.65
287.754	1.95
287.968	1.71
288.181	1.28
288.395	1.43
288.608	1.27
288.822	1.32
289.035	1.25
289.248	1.44
289.462	1.96
289.675	1.93
289.889	2.37
290.102	2.32
290.315	2.72
290.529	2.88
290.742	2.6
290.955	3.02
291.169	2.63
291.382	2.77
291.595	3.02
291.808	2.73
292.022	2.82
292.235	2.29
292.448	2.08
292.661	1.55
292.875	1.52
293.088	2.07
293.301	1.85
293.514	1.88
293.727	1.71
293.94	1.83
294.153	2.02
294.367	2.19
294.58	2.31
294.793	2.68
295.006	2.56
295.219	2.61
295.432	2.33
295.645	2.69
295.858	2.89
296.071	3.19
296.284	2.94
296.497	2.95
296.71	3.11
296.923	3.31
297.136	3.23
297.349	3.29
297.562	3.42
297.775	3.52
297.988	3.14
298.201	3.29
298.414	3.17
298.626	3.25
298.839	2.97
299.052	3.01
299.265	3.03
299.478	2.77
299.691	2.59
299.903	2.44
300.116	2.31
300.329	2.34
300.542	2.21
300.755	1.9
300.967	1.59
301.18	1.64
301.393	1.26
301.605	0.8
301.818	1.03
302.031	1.37
302.243	1.14
302.456	1.05
302.669	1.24
302.881	1.33
303.094	1.78
303.307	1.85
303.519	2.28
303.732	2.42
303.944	3.09
304.157	2.99
304.37	2.98
304.582	3.68
304.795	3.51
305.007	3.65
305.22	3.66
305.432	3.51
305.645	3.87
305.857	3.87
306.069	3.7
306.282	3.24
306.494	3.55
306.707	3.18
306.919	2.83
307.132	3.17
307.344	3
307.556	2.61
307.769	2.88
307.981	2.86
308.193	2.74
308.406	3.03
308.618	3.18
308.83	3.25
309.043	3.79
309.255	3.92
309.467	3.67
309.679	3.59
309.892	4.13
310.104	3.95
310.316	4.09
310.528	4.22
310.74	4.14
310.953	4.15
311.165	4.01
311.377	4.08
311.589	4.03
311.801	4.18
312.013	4.24
312.225	4.26
312.437	4.37
312.649	4.27
312.862	4.09
313.074	4.03
313.286	3.99
313.498	4.11
313.71	3.94
313.922	3.42
314.134	3.57
314.346	4.05
314.558	3.76
314.77	3.55
314.982	3.77
315.193	3.93
315.405	3.93
315.617	4.41
315.829	4.59
316.041	4.73
316.253	4.85
316.465	4.68
316.677	3.84
316.888	4.66
317.1	4.69
317.312	4.45
317.524	4.62
317.736	4.75
317.947	4.77
318.159	4.51
318.371	4.65
318.583	5.32
318.794	5.41
319.006	5.82
319.218	5.2
319.43	5.3
319.641	5.87
319.853	5.89
320.064	5.74
320.276	5.46
320.488	5.84
320.699	5.47
320.911	5.35
321.123	5.32
321.334	5.02
321.546	5.25
321.757	6.12
321.969	5.98
322.18	5.59
322.392	5.87
322.603	5.98
322.815	5.74
323.026	6.14
323.238	6.36
323.449	6.56
323.661	6.75
323.872	6.62
324.083	5.86
324.295	5.92
324.506	5.96
324.718	6.07
324.929	6.35
325.14	6.61
325.352	6.86
325.563	6.82
325.774	6.97
325.986	7.3
326.197	7.37
326.408	7.54
326.62	7.47
326.831	7.72
327.042	8.01
327.253	7.66
327.464	8.05
327.676	7.86
327.887	8.08
328.098	8.32
328.309	8.47
328.52	8.74
328.732	9.29
328.943	9.63
329.154	10.2
329.365	10.43
329.576	10.68
329.787	10.29
329.998	10.86
330.209	11.01
330.42	11.19
330.631	11.18
330.842	11.06
331.053	10.97
331.264	11.1
331.475	10.69
331.686	10.39
331.897	10.75
332.108	10.69
332.319	10.9
332.53	10.78
332.741	10.54
332.952	10.59
333.163	10.74
333.374	10.72
333.585	10.8
333.795	11.45
334.006	11.62
334.217	11.62
334.428	11.76
334.639	11.28
334.849	11.59
335.06	11.67
335.271	11.61
335.482	11.57
335.692	11.53
335.903	11.64
336.114	11.23
336.325	10.92
336.535	11.05
336.746	11.38
336.957	11.23
337.167	11.18
337.378	11.08
337.589	10.94
337.799	10.72
338.01	10.69
338.22	10.35
338.431	10.16
338.642	10.46
338.852	10.06
339.063	9.87
339.273	9.84
339.484	9.66
339.694	9.91
339.905	9.92
340.115	10.41
340.326	10.36
340.536	10.62
340.746	11
340.957	11.42
341.167	12.2
341.378	12.16
341.588	12.26
341.799	12.17
342.009	11.98
342.219	12.28
342.43	12.12
342.64	12.15
342.85	12.05
343.061	11.66
343.271	11.45
343.481	11
343.691	10.78
343.902	10.73
344.112	10.62
344.322	10.85
344.532	11.07
344.743	10.89
344.953	11.1
345.163	11.17
345.373	11.65
345.583	11.51
345.793	11.32
346.004	11.68
346.214	11.99
346.424	12.13
346.634	12.21
346.844	12.25
347.054	12.58
347.264	12.29
347.474	12.11
347.684	11.75
347.894	11.64
348.104	12.01
348.314	11.72
348.524	11.49
348.734	11.37
348.944	11.46
349.154	11.06
349.364	11.12
349.574	11.66
349.784	11.58
349.994	11.47
350.204	11.57
350.413	11.35
350.623	11.25
350.833	11.23
351.043	11.19
351.253	10.85
351.463	10.93
351.672	10.59
351.882	10.43
352.092	10.66
352.302	11.06
352.511	10.87
352.721	11
352.931	11.21
353.141	11.37
353.35	11.66
353.56	11.4
353.77	11.72
353.979	11.84
354.189	11.34
354.399	11.12
354.608	10.89
354.818	10.99
355.027	10.85
355.237	10.78
355.447	10.71
355.656	10.63
355.866	10.83
356.075	10.47
356.285	10.66
356.494	10.98
356.704	11.09
356.913	11.2
357.123	11.29
357.332	11.02
357.542	11.08
357.751	11.24
357.96	11.4
358.17	11.37
358.379	11.38
358.589	11.11
358.798	10.91
359.007	10.93
359.217	10.95
359.426	10.84
359.635	10.98
359.845	10.67
360.054	10.51
360.263	10.38
360.472	10.45
360.682	10.05
360.891	10.04
361.1	10.16
361.309	10.03
361.519	9.94
361.728	9.79
361.937	9.86
362.146	10.17
362.355	10.31
362.564	10.28
362.774	10.15
362.983	10.62
363.192	10.57
363.401	10.55
363.61	10.69
363.819	10.71
364.028	10.98
364.237	11.04
364.446	10.87
364.655	10.82
364.864	10.88
365.073	11.1
365.282	10.89
365.491	11.07
365.7	10.94
365.909	10.77
366.118	10.77
366.327	10.45
366.536	10.24
366.745	10.29
366.954	10.08
367.162	9.76
367.371	9.55
367.58	9.72
367.789	9.68
367.998	9.78
368.207	9.97
368.415	9.63
368.624	9.62
368.833	9.96
369.042	9.79
369.25	9.92
369.459	10.22
369.668	10.19
369.877	9.89
370.085	9.72
370.294	9.61
370.503	9.43
370.711	10
370.92	10.1
371.129	10.18
371.337	10.06
371.546	10.05
371.754	9.96
371.963	10.23
372.171	10.27
372.38	10.26
372.589	10.6
372.797	10.7
373.006	10.44
373.214	10.5
373.423	10.32
373.631	10.61
373.84	10.47
374.048	10.61
374.256	10.4
374.465	10.62
374.673	10.88
374.882	10.6
375.09	10.6
375.298	10.52
375.507	10.42
375.715	10.57
375.923	10.47
376.132	10.41
376.34	10.28
376.548	10.28
376.757	10.33
376.965	10.13
377.173	10.12
377.381	10.21
377.59	10.27
377.798	10.3
378.006	9.88
378.214	10.08
378.423	10.31
378.631	10.22
378.839	10.3
379.047	10.33
379.255	10.28
379.463	10.16
379.671	10
379.879	9.88
380.088	9.92
380.296	9.98
380.504	10.02
380.712	9.81
380.92	9.68
381.128	9.55
381.336	9.27
381.544	9.41
381.752	9.52
381.96	9.44
382.168	9.53
382.376	9.49
382.584	9.66
382.791	9.35
382.999	9.37
383.207	9.73
383.415	9.86
383.623	10.17
383.831	10.13
384.039	9.98
384.247	9.91
384.454	9.86
384.662	9.75
384.87	9.62
385.078	9.63
385.285	9.6
385.493	9.29
385.701	9.21
385.909	8.88
386.116	8.53
386.324	8.37
386.532	8.44
386.739	8.34
386.947	8.43
387.155	8.43
387.362	8.51
387.57	8.55
387.778	8.67
387.985	8.76
388.193	8.82
388.4	9.11
388.608	9.23
388.816	9.12
389.023	9.08
389.231	9.14
389.438	9.24
389.646	9.2
389.853	9.02
390.061	8.87
390.268	8.74
390.475	8.75
390.683	8.8
390.89	8.78
391.098	8.94
391.305	9
391.512	8.93
391.72	8.74
391.927	8.91
392.135	8.9
392.342	9.05
392.549	9.06
392.756	9.03
392.964	8.96
393.171	9.13
393.378	9.02
393.586	9.08
393.793	8.95
394	9.11
394.207	8.89
394.414	9.04
394.622	8.95
394.829	9.01
395.036	8.88
395.243	9.02
395.45	8.79
395.657	8.71
395.864	8.55
396.072	8.79
396.279	8.69
396.486	8.71
396.693	8.66
396.9	8.62
397.107	8.52
397.314	8.6
397.521	8.3
397.728	8.6
397.935	8.76
398.142	8.82
398.349	8.79
398.556	8.83
398.763	8.91
398.97	8.97
399.177	9.1
399.383	9.06
399.59	9.07
399.797	9.24
400.004	9.24
400.211	9.23
400.418	9.28
400.625	9.15
400.831	9.08
401.038	8.89
401.245	8.9
401.452	8.71
401.658	8.7
401.865	8.68
402.072	8.76
402.279	8.79
402.485	8.81
402.692	8.66
402.899	8.64
403.105	8.66
403.312	8.65
403.519	8.58
403.725	8.73
403.932	8.85
404.138	8.85
404.345	8.72
404.552	8.64
404.758	8.43
404.965	8.5
405.171	8.48
405.378	8.46
405.584	8.46
405.791	8.45
405.997	8.26
406.204	8.16
406.41	8.31
406.617	8.36
406.823	8.16
407.029	8.22
407.236	8.27
407.442	8.34
407.649	8.32
407.855	8.45
408.061	8.47
408.268	8.58
408.474	8.77
408.68	8.69
408.887	8.78
409.093	8.92
409.299	9.1
409.505	9.05
409.712	9.22
409.918	9.21
410.124	9.33
410.33	9.29
410.537	9.25
410.743	9.06
410.949	9.11
411.155	9.03
411.361	9.07
411.567	8.97
411.773	8.97
411.98	8.85
412.186	8.79
412.392	8.61
412.598	8.68
412.804	8.68
413.01	8.63
413.216	8.59
413.422	8.59
413.628	8.51
413.834	8.63
414.04	8.66
414.246	8.71
414.452	8.92
414.658	8.88
414.864	8.97
415.07	8.93
415.275	8.84
415.481	8.74
415.687	8.7
415.893	8.71
416.099	8.53
416.305	8.54
416.511	8.43
416.716	8.36
416.922	8.42
417.128	8.39
417.334	8.49
417.539	8.53
417.745	8.6
417.951	8.65
418.157	8.74
418.362	8.86
418.568	8.85
418.774	8.9
418.979	8.98
419.185	9.02
419.391	9.04
419.596	9.07
419.802	9.11
420.008	9.1
420.213	9.63
420.419	9.51
420.624	9.45
420.83	9.48
421.035	9.48
421.241	9.45
421.446	9.34
421.652	9.24
421.857	9.22
422.063	9.21
422.268	9.22
422.474	8.69
422.679	8.72
422.885	8.74
423.09	8.76
423.295	8.73
423.501	8.76
423.706	8.82
423.911	8.84
424.117	8.78
424.322	8.79
424.527	8.79
424.733	8.88
424.938	8.89
425.143	8.91
425.349	8.88
425.554	8.86
425.759	8.81
425.964	8.8
426.169	8.8
426.375	8.91
426.58	8.91
426.785	8.93
426.99	8.83
427.195	8.9
427.4	8.82
427.605	8.9
427.811	8.89
428.016	8.85
428.221	8.99
428.426	9.04
428.631	8.99
428.836	8.93
429.041	8.92
429.246	8.9
429.451	8.87
429.656	8.87
429.861	8.81
430.066	8.86
430.271	8.96
430.476	8.82
430.681	8.9
430.886	8.82
431.09	8.86
431.295	8.87
431.5	8.94
431.705	8.95
431.91	9.04
432.115	9.1
432.32	9.01
432.524	8.9
432.729	8.89
432.934	8.86
433.139	8.84
433.343	8.86
433.548	8.89
433.753	8.87
433.958	8.89
434.162	8.91
434.367	8.82
434.572	8.88
434.776	8.82
434.981	8.78
435.186	8.76
435.39	8.91
435.595	8.95
435.799	8.95
436.004	8.94
436.209	8.83
436.413	8.85
436.618	8.85
436.822	8.9
437.027	9
437.231	9.1
437.436	9.18
437.64	9.02
437.845	9.04
438.049	9.01
438.253	8.99
438.458	9.02
438.662	9
438.867	9.15
439.071	9.15
439.275	9.16
439.48	9.2
439.684	9.16
439.888	9.25
440.093	9.19
440.297	9.21
440.501	9.18
440.706	9.28
440.91	9.32
441.114	9.17
441.318	9.15
441.523	9.13
441.727	9.1
441.931	9.07
442.135	9.04
442.339	9.04
442.543	8.98
442.748	9.06
442.952	8.95
443.156	8.89
443.36	9.04
443.564	9.1
443.768	9.13
443.972	9.16
444.176	9.2
444.38	9.23
444.584	9.28
444.788	9.42
444.992	9.33
445.196	9.34
445.4	9.37
445.604	9.32
445.808	9.32
446.012	9.29
446.216	9.27
446.42	9.25
446.624	9.27
446.828	9.27
447.032	9.18
447.235	9.31
447.439	9.34
447.643	9.29
447.847	9.24
448.051	9.24
448.254	9.22
448.458	9.2
448.662	9.24
448.866	9.23
449.069	9.22
449.273	9.1
449.477	8.91
449.681	8.9
449.884	8.89
450.088	8.98
450.292	8.96
450.495	9.07
450.699	9.11
450.902	9.1
451.106	9.15
451.31	9.18
451.513	9.33
451.717	9.3
451.92	9.26
452.124	9.34
452.327	9.23
452.531	9.2
452.734	9.06
452.938	8.93
453.141	8.9
453.345	8.89
453.548	8.8
453.752	8.77
453.955	8.96
454.158	8.92
454.362	8.85
454.565	8.88
454.769	8.97
454.972	8.96
455.175	9.07
455.379	9.03
455.582	8.94
455.785	9.02
455.988	9.09
456.192	8.96
456.395	9.13
456.598	9.2
456.801	9.26
457.005	9.14
457.208	9.17
457.411	9.27
457.614	9.27
457.817	9.24
458.021	9.27
458.224	9.2
458.427	9.2
458.63	9.11
458.833	9.01
459.036	8.92
459.239	9
459.442	9.06
459.645	9.02
459.848	8.97
460.051	8.99
460.254	8.87
460.457	8.83
460.66	8.85
460.863	8.83
461.066	8.82
461.269	8.85
461.472	8.77
461.675	8.74
461.878	8.7
462.081	8.75
462.284	8.74
462.486	8.78
462.689	8.85
462.892	8.9
463.095	8.92
463.298	8.97
463.5	9
463.703	9.06
463.906	9.02
464.109	8.97
464.311	8.93
464.514	8.87
464.717	8.9
464.92	8.8
465.122	8.71
465.325	8.65
465.528	8.6
465.73	8.55
465.933	8.53
466.135	8.64
466.338	8.53
466.541	8.51
466.743	8.53
466.946	8.65
467.148	8.75
467.351	8.8
467.553	8.98
467.756	8.99
467.958	9.04
468.161	9.12
468.363	9.03
468.566	9.21
468.768	9.3
468.971	9.39
469.173	9.25
469.375	9.29
469.578	9.35
469.78	9.31
469.983	9.34
470.185	9.32
470.387	9.35
470.59	9.34
470.792	9.37
470.994	9.33
471.196	9.28
471.399	9.4
471.601	9.45
471.803	9.45
472.005	9.39
472.208	9.34
472.41	9.37
472.612	9.31
472.814	9.34
473.016	9.34
473.218	9.31
473.421	9.33
473.623	9.23
473.825	9.19
474.027	9.16
474.229	9.22
474.431	9.3
474.633	9.29
474.835	9.3
475.037	9.32
475.239	9.27
475.441	9.4
475.643	9.32
475.845	9.35
476.047	9.33
476.249	9.35
476.451	9.21
476.653	9.16
476.855	9.23
477.057	9.23
477.258	9.22
477.46	9.21
477.662	9.19
477.864	9.35
478.066	9.4
478.268	9.37
478.469	9.26
478.671	9.26
478.873	9.3
479.075	9.27
479.276	9.34
479.478	9.35
479.68	9.44
479.882	9.45
480.083	9.4
480.285	9.46
480.487	9.5
480.688	9.59
480.89	9.65
481.091	9.61
481.293	9.63
481.495	9.51
481.696	9.5
481.898	9.45
482.099	9.42
482.301	9.42
482.502	9.37
482.704	9.34
482.905	9.34
483.107	9.37
483.308	9.39
483.51	9.35
483.711	9.34
483.913	9.32
484.114	9.3
484.315	9.3
484.517	9.28
484.718	9.26
484.92	9.28
485.121	9.28
485.322	9.27
485.524	9.25
485.725	9.25
485.926	9.28
486.127	9.29
486.329	9.28
486.53	9.28
486.731	9.28
486.932	9.32
487.134	9.31
487.335	9.32
487.536	9.31
487.737	9.31
487.938	9.3
488.139	9.28
488.341	9.26
488.542	9.29
488.743	9.28
488.944	9.26
489.145	9.21
489.346	9.24
489.547	9.2
489.748	9.22
489.949	9.25
490.15	9.28
490.351	9.28
490.552	9.33
490.753	9.35
490.954	9.38
491.155	9.38
491.356	9.4
491.557	9.37
491.758	9.39
491.959	9.36
492.159	9.33
492.36	9.29
492.561	9.3
492.762	9.3
492.963	9.26
493.164	9.2
493.364	9.23
493.565	9.22
493.766	9.22
493.967	9.27
494.167	9.25
494.368	9.29
494.569	9.39
494.769	9.39
494.97	9.37
495.171	9.34
495.371	9.3
495.572	9.38
495.773	9.42
495.973	9.41
496.174	9.35
496.375	9.41
496.575	9.38
496.776	9.34
496.976	9.4
497.177	9.4
497.377	9.38
497.578	9.49
497.778	9.44
497.979	9.48
498.179	9.49
498.38	9.52
498.58	9.47
498.78	9.44
498.981	9.48
499.181	9.43
499.382	9.39
499.582	9.49
499.782	9.42
499.983	9.39
500.183	9.35
500.383	9.38
500.584	9.33
500.784	9.37
500.984	9.37
501.184	9.38
501.385	9.5
501.585	9.62
501.785	9.76
501.985	9.77
502.185	9.87
502.386	9.86
502.586	9.84
502.786	9.82
502.986	9.81
503.186	9.88
503.386	9.86
503.586	9.75
503.786	9.66
503.987	9.63
504.187	9.66
504.387	9.57
504.587	9.58
504.787	9.58
504.987	9.64
505.187	9.7
505.387	9.67
505.587	9.73
505.786	9.76
505.986	9.85
506.186	9.77
506.386	9.83
506.586	10
506.786	10.01
506.986	10.11
507.186	10.1
507.386	10.23
507.585	10.23
507.785	10.23
507.985	10.29
508.185	10.27
508.384	10.42
508.584	10.43
508.784	10.4
508.984	10.49
509.183	10.63
509.383	10.68
509.583	10.66
509.782	10.7
509.982	10.8
510.182	10.84
510.381	10.87
510.581	10.86
510.781	10.91
510.98	10.87
511.18	10.87
511.379	10.74
511.579	10.73
511.778	10.8
511.978	10.87
512.177	10.79
512.377	10.75
512.576	10.78
512.776	10.78
512.975	10.77
513.175	10.88
513.374	10.82
513.573	10.95
513.773	10.95
513.972	10.94
514.172	10.9
514.371	11.05
514.57	11.21
514.77	11.29
514.969	11.33
515.168	11.39
515.367	11.35
515.567	11.5
515.766	11.46
515.965	11.54
516.164	11.57
516.364	11.73
516.563	11.64
516.762	11.63
516.961	11.67
517.16	11.75
517.359	11.76
517.559	11.91
517.758	11.94
517.957	12.02
518.156	12.04
518.355	12.14
518.554	12.16
518.753	12.2
518.952	12.17
519.151	12.25
519.35	12.23
519.549	12.31
519.748	12.33
519.947	12.36
520.146	12.37
520.345	12.48
520.544	12.43
520.743	12.39
520.942	12.48
521.141	12.56
521.339	12.54
521.538	12.62
521.737	12.7
521.936	12.73
522.135	12.77
522.333	12.83
522.532	12.87
522.731	12.96
522.93	13.03
523.129	13.02
523.327	13.1
523.526	13.11
523.725	13.24
523.923	13.3
524.122	13.28
524.321	13.36
524.519	13.28
524.718	13.27
524.917	13.25
525.115	13.27
525.314	13.37
525.512	13.48
525.711	13.61
525.909	13.65
526.108	13.68
526.306	13.73
526.505	13.75
526.703	13.88
526.902	13.95
527.1	14.09
527.299	14.17
527.497	14.18
527.696	14.18
527.894	14.17
528.092	14.12
528.291	14.13
528.489	14.15
528.688	14.18
528.886	14.19
529.084	14.21
529.283	14.16
529.481	14.15
529.679	14.17
529.877	14.19
530.076	14.23
530.274	14.28
530.472	14.28
530.67	14.34
530.869	14.4
531.067	14.46
531.265	14.49
531.463	14.55
531.661	14.63
531.859	14.7
532.057	14.72
532.255	14.75
532.454	14.83
532.652	14.91
532.85	14.98
533.048	14.96
533.246	15.02
533.444	15.07
533.642	15.11
533.84	15.12
534.038	15.19
534.236	15.19
534.434	15.26
534.632	15.28
534.83	15.33
535.027	15.39
535.225	15.43
535.423	15.47
535.621	15.53
535.819	15.56
536.017	15.6
536.215	15.63
536.412	15.69
536.61	15.68
536.808	15.67
537.006	15.62
537.203	15.56
537.401	15.6
537.599	15.6
537.797	15.66
537.994	15.68
538.192	15.76
538.39	15.72
538.587	15.8
538.785	15.83
538.983	15.94
539.18	16.13
539.378	16.24
539.575	16.35
539.773	16.41
539.97	16.44
540.168	16.55
540.366	16.59
540.563	16.63
540.761	16.61
540.958	16.66
541.155	16.7
541.353	16.7
541.55	16.72
541.748	16.76
541.945	16.77
542.143	16.81
542.34	16.81
542.537	16.81
542.735	16.86
542.932	16.92
543.129	16.94
543.327	16.97
543.524	17.01
543.721	17.1
543.919	17.22
544.116	17.36
544.313	17.43
544.51	17.5
544.708	17.58
544.905	17.69
545.102	17.8
545.299	17.93
545.496	18.01
545.693	18.09
545.891	18.06
546.088	17.94
546.285	17.88
546.482	17.91
546.679	17.92
546.876	17.92
547.073	17.99
547.27	17.97
547.467	18.05
547.664	18.03
547.861	17.99
548.058	18.02
548.255	18.06
548.452	18.05
548.649	17.95
548.846	17.98
549.043	17.93
549.24	17.87
549.437	17.86
549.633	17.72
549.83	17.72
550.027	17.7
550.224	17.7
550.421	17.76
550.618	17.85
550.814	18.05
551.011	18.12
551.208	18.25
551.405	18.25
551.601	18.33
551.798	18.31
551.995	18.44
552.191	18.5
552.388	18.55
552.585	18.51
552.781	18.52
552.978	18.42
553.175	18.51
553.371	18.47
553.568	18.44
553.764	18.44
553.961	18.52
554.157	18.52
554.354	18.42
554.55	18.51
554.747	18.48
554.943	18.61
555.14	18.77
555.336	18.71
555.533	18.89
555.729	19.03
555.926	19.05
556.122	19.04
556.318	19.02
556.515	19.26
556.711	19.26
556.907	19.41
557.104	19.31
557.3	19.19
557.496	19.13
557.693	19.09
557.889	19.01
558.085	19.04
558.281	19.2
558.478	19.19
558.674	19.16
558.87	19.24
559.066	19.25
559.262	19.31
559.459	19.49
559.655	19.57
559.851	19.52
560.047	19.73
560.243	19.82
560.439	19.78
560.635	19.68
560.831	19.64
561.027	19.71
561.223	19.72
561.419	19.79
561.615	19.73
561.811	19.76
562.007	19.89
562.203	19.89
562.399	19.95
562.595	20.01
562.791	20.25
562.987	20.39
563.183	20.41
563.379	20.43
563.575	20.35
563.771	20.57
563.966	20.55
564.162	20.55
564.358	20.51
564.554	20.46
564.75	20.34
564.945	20.29
565.141	20.36
565.337	20.29
565.533	20.4
565.728	20.52
565.924	20.43
566.12	20.51
566.315	20.46
566.511	20.54
566.707	20.52
566.902	20.54
567.098	20.52
567.293	20.46
567.489	20.5
567.684	20.49
567.88	20.48
568.076	20.45
568.271	20.42
568.467	20.5
568.662	20.47
568.858	20.56
569.053	20.64
569.248	20.76
569.444	20.81
569.639	20.8
569.835	20.9
570.03	20.96
570.225	21
570.421	21.04
570.616	21.08
570.812	21.07
571.007	21.03
571.202	21.1
571.397	21.05
571.593	21.1
571.788	21.2
571.983	21.19
572.178	21.16
572.374	21.19
572.569	21.25
572.764	21.19
572.959	21.32
573.154	21.37
573.35	21.34
573.545	21.45
573.74	21.38
573.935	21.43
574.13	21.41
574.325	21.5
574.52	21.63
574.715	21.58
574.91	21.71
575.105	21.6
575.3	21.67
575.495	21.78
575.69	21.7
575.885	21.82
576.08	21.82
576.275	21.93
576.47	21.81
576.665	21.66
576.86	21.85
577.055	21.79
577.25	21.81
577.444	21.82
577.639	21.82
577.834	21.99
578.029	22.09
578.224	22.03
578.418	22.01
578.613	22.17
578.808	22.31
579.003	22.17
579.197	22.15
579.392	22.24
579.587	22.33
579.781	22.33
579.976	22.3
580.171	22.18
580.365	22.21
580.56	22.12
580.755	22.06
580.949	22.14
581.144	22.18
581.338	22.34
581.533	22.31
581.727	22.23
581.922	22.16
582.116	22.15
582.311	22.3
582.505	22.39
582.7	22.55
582.894	22.66
583.089	22.71
583.283	22.84
583.478	22.71
583.672	22.81
583.866	22.98
584.061	23.08
584.255	23.29
584.449	23.19
584.644	23.11
584.838	23
585.032	22.95
585.226	22.75
585.421	22.75
585.615	22.98
585.809	22.94
586.003	22.76
586.198	22.8
586.392	22.78
586.586	22.78
586.78	22.84
586.974	22.92
587.168	22.89
587.363	22.99
587.557	23.02
587.751	22.9
587.945	22.93
588.139	23.08
588.333	22.95
588.527	22.85
588.721	22.98
588.915	23.01
589.109	22.9
589.303	22.99
589.497	23
589.691	22.92
589.885	22.94
590.079	23.06
590.273	23
590.466	23.14
590.66	23.24
590.854	23.18
591.048	23.18
591.242	23.28
591.436	23.17
591.629	23.27
591.823	23.31
592.017	23.36
592.211	23.27
592.404	23.21
592.598	23.17
592.792	23.02
592.986	23.04
593.179	22.98
593.373	22.94
593.567	23.04
593.76	23.06
593.954	23.1
594.147	23.12
594.341	23
594.535	22.96
594.728	22.97
594.922	23.02
595.115	23.1
595.309	23.05
595.502	23.14
595.696	23.15
595.889	23.06
596.083	22.98
596.276	22.91
596.47	22.93
596.663	22.95
596.856	22.95
597.05	22.99
597.243	22.99
597.437	23.1
597.63	23.1
597.823	23.13
598.017	23.17
598.21	23.34
598.403	23.4
598.596	23.43
598.79	23.61
598.983	23.71
599.176	23.79
599.369	23.84
599.563	23.79
599.756	23.63
599.949	23.63
600.142	23.49
600.335	23.5
600.528	23.42
600.722	23.46
600.915	23.36
601.108	23.39
601.301	23.18
601.494	23.05
601.687	23.06
601.88	23.13
602.073	23.14
602.266	23.24
602.459	23.04
602.652	23.2
602.845	23.29
603.038	23.35
603.231	23.33
603.424	23.44
603.617	23.47
603.809	23.47
604.002	23.51
604.195	23.45
604.388	23.44
604.581	23.51
604.774	23.42
604.966	23.42
605.159	23.4
605.352	23.28
605.545	23.2
605.737	23.19
605.93	23.29
606.123	23.38
606.316	23.41
606.508	23.47
606.701	23.68
606.894	23.72
607.086	23.76
607.279	23.85
607.471	24.03
607.664	24.24
607.857	24.33
608.049	24.32
608.242	24.35
608.434	24.61
608.627	24.78
608.819	24.97
609.012	25.36
609.204	25.62
609.397	25.97
609.589	26.3
609.782	26.7
609.974	27.12
610.166	27.49
610.359	27.85
610.551	28.23
610.743	28.68
610.936	28.88
611.128	28.98
611.32	29.23
611.513	29.23
611.705	29.31
611.897	29.25
612.09	29.05
612.282	29.01
612.474	29.01
612.666	28.71
612.858	28.55
613.051	28.29
613.243	28.28
613.435	28.03
613.627	27.86
613.819	27.62
614.011	27.33
614.203	27.26
614.395	27.08
614.588	26.87
614.78	26.74
614.972	26.47
615.164	26.41
615.356	25.96
615.548	25.73
615.74	25.58
615.932	25.52
616.124	25.43
616.315	25.29
616.507	25.04
616.699	24.89
616.891	24.84
617.083	24.75
617.275	24.55
617.467	24.6
617.659	24.43
617.85	24.46
618.042	24.33
618.234	24.33
618.426	24.3
618.618	24.39
618.809	24.37
619.001	24.22
619.193	24.09
619.384	24.2
619.576	24.19
619.768	24.34
619.959	24.24
620.151	24.38
620.343	24.5
620.534	24.52
620.726	24.63
620.917	24.52
621.109	24.8
621.301	24.8
621.492	24.83
621.684	24.87
621.875	24.93
622.067	25.08
622.258	25.15
622.45	25.07
622.641	25.02
622.832	24.88
623.024	25.05
623.215	24.84
623.407	24.96
623.598	24.95
623.789	24.95
623.981	25.03
624.172	25.14
624.363	24.97
624.555	25.01
624.746	25.09
624.937	25.22
625.129	25.31
625.32	25.43
625.511	25.44
625.702	25.5
625.893	25.34
626.085	25.19
626.276	24.99
626.467	25.05
626.658	24.96
626.849	24.98
627.04	25
627.231	24.86
627.422	24.89
627.614	24.92
627.805	24.79
627.996	25.04
628.187	24.99
628.378	25.13
628.569	25.24
628.76	25.34
628.951	25.29
629.142	25.18
629.332	25.37
629.523	25.34
629.714	25.37
629.905	25.44
630.096	25.33
630.287	25.43
630.478	25.4
630.669	25.15
630.859	25.06
631.05	25.11
631.241	25.18
631.432	25.12
631.623	25.19
631.813	25.15
632.004	25.15
632.195	25.14
632.385	25.13
632.576	25.06
632.767	25.01
632.957	25.07
633.148	24.93
633.339	24.86
633.529	24.76
633.72	24.42
633.91	24.45
634.101	24.39
634.292	24.19
634.482	24.15
634.673	24.19
634.863	24.3
635.054	24.09
635.244	24.37
635.435	24.41
635.625	24.36
635.815	24.53
636.006	24.31
636.196	24.38
636.387	24.54
636.577	24.65
636.767	24.66
636.958	24.68
637.148	24.82
637.338	24.57
637.529	24.65
637.719	24.81
637.909	24.89
638.099	25.09
638.29	25.07
638.48	25.09
638.67	25.06
638.86	24.95
639.05	24.96
639.241	25.01
639.431	25.2
639.621	25.03
639.811	25.11
640.001	24.88
640.191	24.94
640.381	24.78
640.571	24.94
640.761	24.67
640.951	24.83
641.141	24.93
641.331	24.88
641.521	24.64
641.711	24.55
641.901	24.36
642.091	24.52
642.281	24.41
642.471	24.37
642.661	24.12
642.851	24.27
643.041	24.16
643.231	24.1
643.42	24.21
643.61	24.41
643.8	24.47
643.99	24.55
644.18	24.32
644.369	24.32
644.559	24.57
644.749	24.65
644.939	24.64
645.128	24.6
645.318	24.55
645.508	24.5
645.697	24.49
645.887	24.58
646.076	24.48
646.266	24.62
646.456	24.68
646.645	24.64
646.835	24.69
647.024	24.86
647.214	24.95
647.403	25.18
647.593	25.33
647.782	25.35
647.972	25.43
648.161	25.46
648.351	25.63
648.54	25.57
648.73	25.56
648.919	25.52
649.108	25.51
649.298	25.62
649.487	25.51
649.677	25.38
649.866	25.27
650.055	25.22
650.244	25.31
650.434	25.29
650.623	25.31
650.812	25.5
651.002	25.71
651.191	25.54
651.38	25.4
651.569	25.45
651.758	25.34
651.947	25.34
652.137	25.5
652.326	25.51
652.515	25.66
652.704	25.68
652.893	25.62
653.082	25.4
653.271	25.59
653.46	25.72
653.649	25.82
653.838	26.06
654.027	26.02
654.216	25.64
654.405	25.63
654.594	25.64
654.783	25.63
654.972	25.3
655.161	25.4
655.35	25.31
655.539	25.2
655.728	24.83
655.916	24.77
656.105	24.85
656.294	25.06
656.483	25.04
656.672	24.93
656.86	24.89
657.049	25.21
657.238	25.02
657.427	25
657.615	25.07
657.804	25.36
657.993	25.38
658.181	25.52
658.37	25.42
658.559	25.41
658.747	25.35
658.936	25.47
659.125	25.18
659.313	25.39
659.502	25.64
659.69	25.33
659.879	25.1
660.067	25.06
660.256	24.87
660.444	24.94
660.633	24.96
660.821	24.94
661.01	24.93
661.198	25.2
661.387	25.05
661.575	24.98
661.763	25.19
661.952	25.41
662.14	25.36
662.328	25.51
662.517	25.64
662.705	25.61
662.893	25.49
663.082	25.5
663.27	25.35
663.458	25.45
663.646	25.3
663.834	25.38
664.023	25.28
664.211	25.58
664.399	25.46
664.587	25.41
664.775	25.41
664.963	25.61
665.152	25.35
665.34	25.51
665.528	25.36
665.716	25.18
665.904	25.17
666.092	25.02
666.28	24.88
666.468	24.95
666.656	25.12
666.844	25.41
667.032	25.22
667.22	25.43
667.408	25.36
667.596	25.61
667.784	25.93
667.971	26.25
668.159	26.47
668.347	26.48
668.535	26.5
668.723	26.73
668.911	26.36
669.098	26.5
669.286	26.44
669.474	26.59
669.662	26.51
669.849	26.46
670.037	26.42
670.225	26.36
670.413	26.39
670.6	26.3
670.788	25.97
670.976	25.92
671.163	25.94
671.351	25.9
671.538	25.97
671.726	26.05
671.913	25.99
672.101	25.8
672.289	25.82
672.476	25.59
672.664	25.75
672.851	25.82
673.039	25.97
673.226	26.12
673.413	26.11
673.601	25.97
673.788	26.12
673.976	25.99
674.163	26
674.35	25.92
674.538	25.93
674.725	26.08
674.912	25.95
675.1	25.85
675.287	25.65
675.474	25.55
675.662	25.6
675.849	25.19
676.036	25.31
676.223	25.23
676.411	25.49
676.598	25.76
676.785	25.68
676.972	25.94
677.159	26.22
677.346	26.21
677.533	26.56
677.721	26.43
677.908	26.75
678.095	26.83
678.282	26.83
678.469	26.59
678.656	26.47
678.843	26.46
679.03	26.27
679.217	26.08
679.404	26.32
679.591	26.18
679.778	26.21
679.964	25.86
680.151	26.04
680.338	26.07
680.525	26.34
680.712	26.48
680.899	26.29
681.086	26.56
681.272	26.7
681.459	26.48
681.646	26.35
681.833	26.54
682.02	26.84
682.206	26.63
682.393	26.53
682.58	26.25
682.766	26.05
682.953	26.18
683.14	25.98
683.326	25.69
683.513	25.65
683.7	25.73
683.886	25.53
684.073	25.27
684.259	25.32
684.446	25.26
684.632	25.31
684.819	25.32
685.005	25.54
685.192	25.66
685.378	26.02
685.565	26.23
685.751	26.25
685.938	26.02
686.124	26.14
686.31	26.09
686.497	26.37
686.683	26.67
686.87	26.68
687.056	26.1
687.242	25.78
687.429	25.6
687.615	25.67
687.801	26
687.987	26.43
688.174	26.68
688.36	26.65
688.546	26.72
688.732	26.42
688.918	26.35
689.105	26.57
689.291	26.56
689.477	26.93
689.663	26.86
689.849	26.52
690.035	26.27
690.221	26.37
690.407	26.21
690.593	26.25
690.779	26.38
690.965	26.5
691.151	26.69
691.337	26.85
691.523	26.63
691.709	26.67
691.895	26.64
692.081	26.36
692.267	26.07
692.453	26.23
692.639	26.01
692.825	25.92
693.011	25.94
693.196	25.66
693.382	25.5
693.568	25.43
693.754	25.26
693.94	25.54
694.125	26.01
694.311	26.04
694.497	25.74
694.682	25.69
694.868	25.49
695.054	25.72
695.239	25.75
695.425	25.78
695.611	25.77
695.796	25.88
695.982	26.04
696.168	26.13
696.353	26.04
696.539	26.48
696.724	26.61
696.91	26.65
697.095	26.41
697.281	26.59
697.466	26.67
697.652	27
697.837	27.15
698.023	26.95
698.208	26.75
698.393	26.74
698.579	26.41
698.764	26.45
698.949	26.39
699.135	26.41
699.32	26.17
699.505	26.24
699.691	25.74
699.876	25.5
700.061	25.53
700.246	25.73
700.432	25.92
700.617	26.08
700.802	26.08
700.987	26.18
701.172	26.27
701.358	26.39
701.543	26.53
701.728	26.73
701.913	26.91
702.098	27.05
702.283	27.32
702.468	27.05
702.653	27.23
702.838	27.14
703.023	27.2
703.208	27.28
703.393	27.69
703.578	27.72
703.763	27.97
703.948	28.01
704.133	27.93
704.318	28.29
704.503	28.67
704.688	28.75
704.873	29.12
705.057	29.64
705.242	29.75
705.427	29.71
705.612	29.48
705.797	29.56
705.981	29.28
706.166	29.48
706.351	29.14
706.536	29.37
706.72	29.64
706.905	29.6
707.09	29.4
707.274	29.54
707.459	29.59
707.644	29.73
707.828	29.9
708.013	29.87
708.197	29.75
708.382	29.76
708.567	29.56
708.751	29.41
708.936	29.38
709.12	29.42
709.305	29.45
709.489	29.47
709.673	29.42
709.858	29.23
710.042	29.59
710.227	29.58
710.411	29.56
710.596	29.65
710.78	29.57
710.964	29.52
711.149	29.3
711.333	29.01
711.517	28.8
711.702	29.02
711.886	29.11
712.07	28.95
712.254	28.67
712.438	28.26
712.623	27.94
712.807	27.96
712.991	28.02
713.175	28.29
713.359	28.41
713.544	28.26
713.728	28.02
713.912	27.84
714.096	27.89
714.28	28.14
714.464	28.23
714.648	28.18
714.832	28.1
715.016	27.93
715.2	27.57
715.384	27.36
715.568	27.52
715.752	27.33
715.936	27.3
716.12	27.35
716.304	27.38
716.488	27.21
716.671	27.56
716.855	27.37
717.039	27.74
717.223	27.69
717.407	27.38
717.59	27.43
717.774	27.39
717.958	27.28
718.142	26.73
718.325	26.27
718.509	26.08
718.693	25.75
718.877	25.85
719.06	25.61
719.244	26.32
719.428	26.56
719.611	26.47
719.795	26.38
719.978	26.78
720.162	26.98
720.345	27.24
720.529	27.63
720.713	27.63
720.896	27.36
721.08	26.99
721.263	26.55
721.446	26.67
721.63	26.55
721.813	26.38
721.997	25.9
722.18	26.3
722.364	26.14
722.547	26.19
722.73	26.12
722.914	26.51
723.097	26.54
723.28	26.41
723.464	26.39
723.647	26.59
723.83	26.61
724.013	26.79
724.197	26.08
724.38	26.39
724.563	26.4
724.746	26.69
724.929	26.33
725.112	26.34
725.296	25.9
725.479	25.69
725.662	25.76
725.845	25.68
726.028	25.61
726.211	25.91
726.394	25.83
726.577	25.68
726.76	25.4
726.943	25.45
727.126	25.78
727.309	26.39
727.492	26.15
727.675	25.99
727.858	26.33
728.041	26.23
728.224	26.1
728.407	26.23
728.589	26.34
728.772	26.22
728.955	26.14
729.138	25.71
729.321	25.8
729.503	26.13
729.686	25.86
729.869	25.61
730.052	25.77
730.234	26.03
730.417	25.91
730.6	25.93
730.782	26.21
730.965	26.47
731.148	26.57
731.33	25.98
731.513	26.39
731.695	26.64
731.878	27.38
732.061	27.37
732.243	27.4
732.426	27.14
732.608	27.11
732.791	26.77
732.973	26.82
733.156	26.91
733.338	27.13
733.52	26.74
733.703	27.03
733.885	26.6
734.068	27.1
734.25	27.3
734.432	27.69
734.615	27.75
734.797	28.38
734.979	28.37
735.162	28.47
735.344	28.45
735.526	28.57
735.708	28.63
735.891	28.63
736.073	28.19
736.255	27.91
736.437	28.15
736.619	28.16
736.802	27.69
736.984	27.73
737.166	27.24
737.348	27.57
737.53	27.71
737.712	27.69
737.894	27.85
738.076	27.38
738.258	27.48
738.44	27.12
738.622	27.11
738.804	27.07
738.986	27.56
739.168	28.07
739.35	28.12
739.532	28.41
739.714	28.41
739.896	28.61
740.078	29.76
740.259	29.9
740.441	30.03
740.623	29.54
740.805	29.71
740.987	28.98
741.168	28.69
741.35	28.71
741.532	29.11
741.714	28.56
741.895	28.64
742.077	27.19
742.259	26.82
742.44	26.77
742.622	27.3
742.804	27.39
742.985	27.99
743.167	28.07
743.348	27.6
743.53	27.56
743.711	28.23
743.893	29
744.075	29.73
744.256	30.31
744.438	30.29
744.619	30.44
744.8	29.9
744.982	29.6
745.163	29.51
745.345	30.08
745.526	29.31
745.707	29.16
745.889	28.22
746.07	28.54
746.252	29.1
746.433	29.71
746.614	29.7
746.795	29.58
746.977	29.45
747.158	30.03
747.339	29.92
747.52	29.97
747.702	30.25
747.883	29.83
748.064	29.31
748.245	28.79
748.426	28.34
748.607	27.87
748.788	28.82
748.97	29.5
749.151	29.41
749.332	28.96
749.513	29.47
749.694	28.63
749.875	28.52
750.056	28.45
750.237	28.11
750.418	27.73
750.599	27.9
750.78	27.53
750.96	26.72
751.141	26.1
751.322	26.23
751.503	26.18
751.684	27
751.865	27.25
752.046	27.56
752.226	27.36
752.407	27.66
752.588	27.33
752.769	27.93
752.949	28.13
753.13	28.27
753.311	28.19
753.492	27.95
753.672	27.47
753.853	27.77
754.034	28.07
754.214	27.7
754.395	27.49
754.575	28.29
754.756	27.94
754.937	28.24
755.117	29
755.298	28.75
755.478	28.74
755.659	28.99
755.839	28.81
756.02	28.38
756.2	29.46
756.381	29.9
756.561	29.47
756.741	28.91
756.922	28.27
757.102	27.76
757.283	27.93
757.463	27.67
757.643	27.53
757.823	27.39
758.004	27.19
758.184	27.05
758.364	26.92
758.545	26.29
758.725	26.21
758.905	26.75
759.085	26.17
759.265	26.4
759.446	26.08
759.626	26.54
759.806	26.91
759.986	26.86
760.166	26.44
760.346	26.68
760.526	27.65
760.706	28.32
760.886	28.41
761.066	28.71
761.246	28.19
761.426	27.79
761.606	27.75
761.786	27
761.966	27.26
762.146	26.74
762.326	26.3
762.506	25.77
762.686	25.63
762.866	25.38
763.046	25.76
763.225	25.89
763.405	26.67
763.585	26.45
763.765	26.37
763.945	26.57
764.124	27.01
764.304	26.88
764.484	27.67
764.664	27.32
764.843	27.3
765.023	27.43
765.203	27.69
765.382	27.35
765.562	27.39
765.741	27.73
765.921	27.61
766.101	27.36
766.28	27.71
766.46	27.61
766.639	27.68
766.819	27.77
766.998	27.11
767.178	26.91
767.357	26.43
767.537	26.19
767.716	26.81
767.896	26.99
768.075	27.18
768.254	27.65
768.434	26.86
768.613	27.09
768.792	26.69
768.972	27.53
769.151	27.75
769.33	28.61
769.51	28.08
769.689	27.99
769.868	28.23
770.047	28.55
770.226	28.01
770.406	28.27
770.585	28.5
770.764	28.96
770.943	27.73
771.122	26.73
771.301	27.13
771.48	28.44
771.66	27.24
771.839	25.96
772.018	26.15
772.197	26.5
772.376	27
772.555	26.47
772.734	25.88
772.913	27.2
773.092	28.24
773.271	27.71
773.449	27.4
773.628	28.27
773.807	29.22
773.986	28.36
774.165	28.04
774.344	27.5
774.523	28.17
774.701	27.5
774.88	26.83
775.059	26.24
775.238	26.57
775.417	27.12
775.595	27.94
775.774	28.5
775.953	28.54
776.131	29.34
776.31	29.71
776.489	29.44
776.667	30.07
776.846	30.98
777.025	31.48
777.203	32.09
777.382	31.52
777.56	31.04
777.739	29.97
777.917	29.97
778.096	29.14
778.274	28.65
778.453	29.3
778.631	30.22
778.81	28.83
778.988	30.1
779.166	29.47
779.345	29.9
779.523	30.03
779.702	29.18
779.88	29.4
780.058	29.5
780.237	29.36
780.415	28.81
780.593	28
780.771	27.79
780.95	26.85
781.128	26.33
781.306	25.92
781.484	25.59
781.662	27.45
781.841	27.9
782.019	28.01
782.197	28.39
782.375	28.78
782.553	29.45
782.731	30.54
782.909	31.11
783.087	31.29
783.265	31.11
783.443	30.61
783.621	29.39
783.799	29.44
783.977	28.69
784.155	28.4
784.333	27.28
784.511	26.89
784.689	27.1
784.867	26.62
785.045	26.86
785.223	26.78
785.4	26.39
785.578	26.87
785.756	26.55
785.934	28.09
786.112	27.25
786.289	28.19
786.467	29.24
786.645	29.16
786.823	28.69
787	28.76
787.178	28.71
787.356	29.68
787.533	29.03
787.711	29.01
787.889	28.17
788.066	29.37
788.244	28.44
788.421	27.38
788.599	27.08
788.776	26.88
788.954	26.05
789.131	25.8
789.309	25.66
789.486	26.65
789.664	26.91
789.841	26.21
790.019	26.13
790.196	25.38
790.373	25.53
790.551	25.06
790.728	24.96
790.906	26.37
791.083	26.6
791.26	26.07
791.437	25.94
791.615	25.59
791.792	27
791.969	25.85
792.146	27.06
792.324	27.62
792.501	27.81
792.678	27.25
792.855	26.28
793.032	26.03
793.209	25.7
793.387	25.17
793.564	25.08
793.741	24.93
793.918	25.52
794.095	25.24
794.272	24.93
794.449	25.28
794.626	26.61
794.803	25.91
794.98	26.24
795.157	27.4
795.334	27.11
795.511	27.22
795.688	26.75
795.864	26.31
796.041	26.91
796.218	26.43
796.395	26.56
796.572	26.42
796.749	26.74
796.925	26.3
797.102	26.42
797.279	27.14
797.456	26.62
797.632	26.31
797.809	27.25
797.986	27.16
798.162	27.47
798.339	27.22
798.516	27.61
798.692	28.77
798.869	29.25
799.046	28.06
799.222	27.95
799.399	28.09
799.575	28.33
799.752	26.93
799.928	26.71
800.105	26.33
800.281	27.93
800.458	27.83
800.634	27.52
800.811	26.89
800.987	28.12
801.163	27.65
801.34	29.2
801.516	29.83
801.692	30.82
801.869	30.88
802.045	31.26
802.221	28.44
802.398	27.69
802.574	25.54
802.75	25.33
802.926	25.54
803.103	25.45
803.279	23.38
803.455	21.88
803.631	21.63
803.807	21.72
803.983	21.98
804.16	23.46
804.336	24.14
804.512	25.18
804.688	26.62
804.864	25.41
805.04	25.26
805.216	27.12
805.392	27.79
805.568	27.66
805.744	27.82
805.92	26.55
806.096	25.61
806.272	24.64
806.448	25.58
806.623	24.64
806.799	25.2
806.975	25.45
807.151	24.07
807.327	24.52
807.503	23.79
807.678	24.4
807.854	25.53
808.03	26.45
808.206	26.97
808.381	26.48
808.557	27.27
808.733	26.73
808.908	27.12
809.084	27.45
809.26	27.28
809.435	28.16
809.611	27.36
809.787	27.08
809.962	27.04
810.138	27.17
810.313	26.85
810.489	26.62
810.664	27.82
810.84	27.51
811.015	27.59
811.191	28.64
811.366	28.68
811.542	29.4
811.717	29.23
811.892	28.55
812.068	27.8
812.243	28.98
812.419	28.69
812.594	26.72
812.769	27.05
812.944	25.84
813.12	24.5
813.295	23.49
813.47	21.37
813.645	21.36
813.821	20.8
813.996	22.06
814.171	21.5
814.346	21.89
814.521	23.69
814.697	24.69
814.872	26.72
815.047	26.98
815.222	27.75
815.397	29.5
815.572	30.02
815.747	30.76
815.922	28.96
816.097	29.87
816.272	28.85
816.447	26.69
816.622	26.79
816.797	25.64
816.972	25.78
817.147	25.52
817.322	24.82
817.496	24.48
817.671	25.6
817.846	25.65
818.021	24.14
818.196	24.45
818.371	26.33
818.545	24.65
818.72	24.92
818.895	24.11
819.069	24.32
819.244	24.34
819.419	24.65
819.594	23.88
819.768	25.05
819.943	25.84
820.117	25.24
820.292	23.74
820.467	24.27
820.641	24.59
820.816	25.48
820.99	25.58
821.165	25.38
821.339	25.1
821.514	25.05
821.688	24.64
821.863	24.75
822.037	24.46
822.212	24.71
822.386	24.62
822.56	24.37
822.735	24
822.909	23.74
823.084	23.83
823.258	23.76
823.432	23.63
823.606	23.9
823.781	23.8
823.955	24.07
824.129	24.15
824.303	24.21
824.478	24.4
824.652	24.56
824.826	24.65
825	24.64
825.174	24.7
825.348	24.96
825.523	24.24
825.697	24.14
825.871	24.29
826.045	24.41
826.219	23.87
826.393	24.01
826.567	24.33
826.741	24.57
826.915	24.6
827.089	24.36
827.263	24.39
827.437	24.55
827.611	24.19
827.784	24.26
827.958	24.27
828.132	24.52
828.306	23.96
828.48	23.77
828.654	23.28
828.827	22.77
829.001	23.29
829.175	22.79
829.349	23.29
829.522	23.52
829.696	23.39
829.87	22.77
830.044	22.94
830.217	24.39
830.391	24.05
830.565	25.26
830.738	25.58
830.912	24.27
831.085	24.02
831.259	23.09
831.432	23.48
831.606	23.5
831.779	24.1
831.953	24.84
832.126	24.32
832.3	25.3
832.473	24.21
832.647	24.88
832.82	25.85
832.994	26.72
833.167	26.88
833.34	26.46
833.514	26.57
833.687	26.18
833.86	25.15
834.034	24.76
834.207	23.89
834.38	24.68
834.553	25.01
834.727	25.46
834.9	25.55
835.073	25.41
835.246	26.45
835.419	25.79
835.593	25.79
835.766	26.71
835.939	27.04
836.112	27.57
836.285	27.05
836.458	27.34
836.631	26.17
836.804	27.54
836.977	28.05
837.15	26.54
837.323	27.37
837.496	28.2
837.669	27.84
837.842	28.36
838.015	28.42
838.188	29.37
838.361	28.43
838.533	29.75
838.706	25.61
838.879	24.43
839.052	25.42
839.225	26.18
839.398	24.36
839.57	24.47
839.743	24.31
839.916	25.22
840.088	24.57
840.261	24.9
840.434	23.87
840.607	25.05
840.779	26.2
840.952	23.85
841.124	23.12
841.297	24.38
841.47	24.43
841.642	25.04
841.815	24.48
841.987	25.39
842.16	23.35
842.332	21.46
842.505	18.6
842.677	17.91
842.85	20.51
843.022	20.29
843.194	19.55
843.367	18.45
843.539	15.03
843.712	15.79
843.884	14.7
844.056	17.08
844.229	20
844.401	23.06
844.573	22.74
844.745	21.99
844.918	21.96
845.09	22.51
845.262	22.21
845.434	24.9
845.606	23.41
845.779	26.26
845.951	26.43
846.123	27.44
846.295	27.48
846.467	28.16
846.639	30.22
846.811	32.09
846.983	31.71
847.155	31.92
847.327	29.48
847.499	30.57
847.671	27.72
847.843	28.5
848.015	28.42
848.187	31.26
848.359	30.98
848.531	28.71
848.703	26.48
848.875	28.54
849.047	31.36
849.218	32.28
849.39	27.86
849.562	27.21
849.734	22.27
849.905	20.86
850.077	18.68
850.249	18.85
850.421	14.3
850.592	17.76
850.764	20.09
850.936	19.14
851.107	18.58
851.279	19.4
851.451	17.65
851.622	21.21
851.794	22
851.965	21.6
852.137	21.7
852.308	26.58
852.48	27.25
852.651	23.77
852.823	22.24
852.994	24.24
853.166	28.64
853.337	31.3
853.509	28.73
853.68	30.44
853.851	34.49
854.023	34.67
854.194	34.57
854.365	29.42
854.537	32.28
854.708	32.91
854.879	33.36
855.05	32.73
855.222	32.02
855.393	30.41
855.564	27.18
855.735	24.91
855.906	24.69
856.078	22.39
856.249	25.55
856.42	19.54
856.591	19.99
856.762	21.89
856.933	22.27
857.104	18.67
857.275	22.7
857.446	26.2
857.617	25.77
857.788	27.66
857.959	29.15
858.13	23.38
858.301	25.25
858.472	25.48
858.643	22.65
858.814	21.87
858.985	25.49
859.155	27.43
859.326	25.4
859.497	21.1
859.668	15.46
859.839	9.35
860.009	11.7
860.18	12.6
860.351	8.87
860.522	9.68
860.692	9.41
860.863	9.73
861.034	8.54
861.204	8.86
861.375	12.75
861.546	17.85
861.716	22.41
861.887	26.3
862.057	27.66
862.228	30.3
862.398	30.24
862.569	28.21
862.739	28.43
862.91	25.43
863.08	26.92
863.251	26.22
863.421	25.72
863.592	22.47
863.762	25.46
863.932	28.91
864.103	29.87
864.273	28.4
864.443	29.32
864.614	29.34
864.784	30.09
864.954	25.98
865.125	23.68
865.295	19.86
865.465	22.04
865.635	21.98
865.805	14.86
865.976	10.53
866.146	9.24
866.316	9.01
866.486	13.55
866.656	16.79
866.826	18.29
866.996	21.43
867.166	22.15
867.336	24.46
867.506	18.96
867.676	22.35
867.846	26.98
868.016	35.01
868.186	38.11
868.356	35.06
868.526	34.61
868.696	35.84
868.866	30.52
869.036	29.8
869.206	24.7
869.376	27.1
869.545	26.99
869.715	26.52
869.885	21.22
870.055	20.71
870.224	20.66
870.394	17.06
870.564	15.75
870.734	18.18
870.903	17.47
871.073	12.84
871.243	13.75
871.412	12.56
871.582	14.72
871.751	16.23
871.921	9.84
872.091	11.53
872.26	11.61
872.43	17.43
872.599	21.34
872.769	22.05
872.938	28.13
873.108	24.16
873.277	22.15
873.446	21.3
873.616	20.11
873.785	26.61
873.955	23.63
874.124	24.28
874.293	23.33
874.463	21.53
874.632	20.29
874.801	21.9
874.971	23.43
875.14	22.9
875.309	22.29
875.478	19.62
875.647	17.17
875.817	21.96
875.986	20.38
876.155	17.16
876.324	17.23
876.493	21.77
876.662	24.12
876.831	27.31
877	27.67
877.17	25.42
877.339	31.23
877.508	34.45
877.677	31.95
877.846	35.15
878.015	40.18
878.184	38.07
878.352	33.61
878.521	29.13
878.69	24.5
878.859	25.36
879.028	26.69
879.197	22.11
879.366	24.15
879.534	22.95
879.703	22.54
879.872	19.68
880.041	21.1
880.21	22.81
880.378	22.16
880.547	22.27
880.716	22.2
880.884	22.76
881.053	23.69
881.222	21.26
881.39	21.44
881.559	21.91
881.727	22.16
881.896	22.01
882.065	21.56
882.233	22.11
882.402	22.8
882.57	22.72
882.739	22.52
882.907	21.8
883.076	22.31
883.244	22.68
883.412	22.35
883.581	22.59
883.749	22.61
883.918	23.45
884.086	23.49
884.254	22.37
884.423	23.23
884.591	23.56
884.759	23.6
884.927	23.57
885.096	23.15
885.264	22.93
885.432	21.76
885.6	21.26
885.769	19.8
885.937	17.09
886.105	17.73
886.273	16.87
886.441	16.9
886.609	18.11
886.777	18.64
886.945	17.15
887.113	17.96
887.281	18.41
887.449	18.11
887.617	15.12
887.785	19.81
887.953	23.26
888.121	20.75
888.289	19.98
888.457	19.19
888.625	19.8
888.793	24.48
888.961	21.78
889.129	21.72
889.296	21.49
889.464	25.9
889.632	25.3
889.8	21.74
889.967	24.48
890.135	20.35
