Data from 2938728__Reflection_02.txt Node
Date: Sun Mar 15 19:17:57 EDT 2015
User: robert
Spectrometer: USB4E03002
Autoset integration time: false
Trigger mode: 4
Integration Time (sec): 1.000000E-1
Scans to average: 10
Electric dark correction enabled: false
Nonlinearity correction enabled: false
Boxcar width: 5
Stray light correction enabled: false
XAxis mode: Wavelengths
Stop averaging: false
Number of Pixels in Spectrum: 3648
>>>>>Begin Spectral Data<<<<<
177.575	76.35
177.794	93.58
178.014	106.11
178.233	137.58
178.452	87.47
178.672	66.9
178.891	51.2
179.11	16.08
179.33	154.69
179.549	121.05
179.768	115.62
179.987	197.32
180.207	283.54
180.426	-1141.94
180.645	-237.67
180.864	-356.1
181.084	-169.57
181.303	-60.34
181.522	-80.44
181.741	-137
181.96	-356.1
182.179	-303.23
182.398	260.16
182.618	204.17
182.837	99.31
183.056	97.17
183.275	50.29
183.494	16.77
183.713	25.45
183.932	13.18
184.151	21.49
184.37	12.58
184.589	3.67
184.808	-16
185.027	-14.48
185.246	-24.57
185.465	-158.99
185.684	-50.45
185.903	212.36
186.122	87.04
186.341	51.61
186.56	62.97
186.779	47.24
186.998	44.98
187.216	88.97
187.435	67.09
187.654	114.58
187.873	142.99
188.092	404.26
188.311	-5033.33
188.53	-14.89
188.748	-20.53
188.967	29.11
189.186	9.76
189.405	13.36
189.623	59.37
189.842	58.44
190.061	127.72
190.28	33.71
190.498	51.43
190.717	40.6
190.936	34.16
191.154	41.18
191.373	68.27
191.592	69.57
191.81	44.03
192.029	39.94
192.248	25.45
192.466	23.59
192.685	46.36
192.904	32.02
193.122	52.73
193.341	42.08
193.559	29.83
193.778	-23.94
193.996	-29.43
194.215	5.34
194.433	14.64
194.652	16.54
194.87	-90.13
195.089	-72.05
195.307	-76.34
195.526	-56.13
195.744	-112.98
195.963	-11.23
196.181	-120.62
196.399	-80.67
196.618	-13.75
196.836	-62.45
197.055	-85.02
197.273	-6.6
197.491	-37.78
197.71	2542.86
197.928	5420
198.146	-1222.73
198.365	-643.37
198.583	-70.18
198.801	-104.69
199.019	-188.89
199.238	-106.69
199.456	-130.04
199.674	-72.83
199.892	-26.36
200.111	-21.04
200.329	-17.66
200.547	-64.06
200.765	-15.64
200.983	-39.22
201.202	-96.62
201.42	-80
201.638	-51.79
201.856	-26.71
202.074	-70.39
202.292	-131.97
202.51	-29.61
202.728	37.59
202.946	72.66
203.165	173.91
203.383	-469.7
203.601	-326.87
203.819	-160.77
204.037	-139.86
204.255	-373.33
204.473	-1323.81
204.691	-2288.24
204.909	195.24
205.127	82
205.345	148.23
205.562	92.31
205.78	76.49
205.998	50
206.216	14.32
206.434	-17.17
206.652	-39.82
206.87	-47.24
207.088	-84.09
207.306	-25.8
207.523	-17.28
207.741	-22.1
207.959	-35.5
208.177	-100.72
208.395	-86.94
208.612	-33.86
208.83	-13.33
209.048	32.77
209.266	9.37
209.483	26.62
209.701	24.5
209.919	26.56
210.136	-3.53
210.354	11.36
210.572	8.8
210.79	-12.03
211.007	-33.62
211.225	-29.9
211.442	-52.45
211.66	-44.59
211.878	-74.19
212.095	-125.35
212.313	-119.72
212.53	-135.94
212.748	-126.47
212.966	-75.17
213.183	-26.77
213.401	-12.54
213.618	-17.82
213.836	-19.96
214.053	-30.73
214.271	-12.67
214.488	-15.27
214.705	-0.08
214.923	-0.7
215.14	-4.49
215.358	-4.14
215.575	-4.83
215.793	-5.59
216.01	0.32
216.227	2.42
216.445	6.65
216.662	13.74
216.879	23.18
217.097	14.55
217.314	8.76
217.531	12.07
217.749	6.3
217.966	-2.32
218.183	-3.89
218.4	-32.72
218.618	-11.34
218.835	3.71
219.052	-13.45
219.269	-27.97
219.487	-35.19
219.704	-44.32
219.921	-42.7
220.138	-33.02
220.355	-38.1
220.572	-47.47
220.79	-22.48
221.007	-32.35
221.224	-55.02
221.441	-40.35
221.658	-23.66
221.875	-25.48
222.092	-8.29
222.309	-5.65
222.526	-11.2
222.743	-5.9
222.96	-8
223.177	-12.71
223.394	-10.75
223.611	-6.46
223.828	-9.22
224.045	-19.54
224.262	-13.2
224.479	-13.2
224.696	-22.9
224.913	-20.7
225.13	-16.16
225.347	-13.22
225.564	-7.96
225.781	-10.35
225.997	-10.13
226.214	-8.95
226.431	-4.78
226.648	-8.17
226.865	-8.14
227.082	-4.57
227.298	-4.22
227.515	-4.85
227.732	-3.19
227.949	-3.26
228.165	-2.57
228.382	-2.07
228.599	-2.63
228.816	-2.31
229.032	-1.83
229.249	-1.61
229.466	-1.33
229.682	-0.93
229.899	-0.12
230.116	0.44
230.332	-0.66
230.549	-1.54
230.765	-1.19
230.982	0.65
231.199	0.09
231.415	1.31
231.632	0.65
231.848	-0.32
232.065	0.24
232.281	-2.14
232.498	-3.3
232.714	-1.87
232.931	0.01
233.147	-2.95
233.364	-1.82
233.58	0
233.797	-1.25
234.013	-2.61
234.23	-0.93
234.446	0.15
234.662	1.64
234.879	0.26
235.095	1.4
235.312	0.19
235.528	2.97
235.744	0.15
235.961	-0.45
236.177	-0.6
236.393	1.95
236.61	2.11
236.826	1.4
237.042	0.9
237.258	0.99
237.475	0.63
237.691	0.53
237.907	-1.57
238.123	-0.03
238.339	-1.67
238.556	-0.11
238.772	0.36
238.988	-0.79
239.204	-1.85
239.42	-0.21
239.636	-0.26
239.853	-0.62
240.069	0.28
240.285	1.04
240.501	0.34
240.717	1.8
240.933	1.06
241.149	0.11
241.365	0.84
241.581	0.67
241.797	0.09
242.013	0.33
242.229	-0.06
242.445	-0.21
242.661	0.21
242.877	-0.02
243.093	-0.52
243.309	-1.15
243.525	-1.45
243.741	-2.23
243.957	-1.42
244.173	-1.49
244.388	-1.99
244.604	-1.97
244.82	-2.22
245.036	-2.37
245.252	-2.22
245.468	-2.25
245.683	-1.25
245.899	-0.64
246.115	-0.13
246.331	-0.51
246.547	-0.21
246.762	0.39
246.978	0.75
247.194	1.09
247.409	0.87
247.625	1.11
247.841	1.16
248.057	1.3
248.272	1.34
248.488	1.32
248.703	1.55
248.919	1.79
249.135	1.6
249.35	1.92
249.566	1.91
249.782	1.92
249.997	2.19
250.213	1.97
250.428	1.83
250.644	1.46
250.859	1.29
251.075	0.96
251.29	0.51
251.506	0.29
251.721	-0.18
251.937	-0.53
252.152	0.08
252.368	-0.14
252.583	0.35
252.798	0.23
253.014	0.7
253.229	0.51
253.445	0.58
253.66	0.4
253.875	0.1
254.091	-0.61
254.306	-1.29
254.521	-2.07
254.737	-2.99
254.952	-3.42
255.167	-3.18
255.383	-3.31
255.598	-2.44
255.813	-2.57
256.028	-2.23
256.244	-0.74
256.459	-0.92
256.674	0.01
256.889	-0.45
257.104	-0.44
257.32	0.54
257.535	-0.68
257.75	-1.03
257.965	-0.78
258.18	-0.59
258.395	-0.4
258.61	-0.66
258.826	-0.35
259.041	-0.22
259.256	0.25
259.471	0.61
259.686	0.22
259.901	0.51
260.116	0.67
260.331	0.17
260.546	0.12
260.761	0.29
260.976	0.26
261.191	0.09
261.406	-0.13
261.621	-0.51
261.836	-0.62
262.05	-0.54
262.265	-0.59
262.48	-0.87
262.695	0.14
262.91	0.29
263.125	-0.55
263.34	-1.16
263.555	-0.97
263.769	-1.1
263.984	-1.71
264.199	-1.86
264.414	-2.11
264.629	-2.23
264.843	-2.28
265.058	-2.46
265.273	-2.46
265.488	-2.55
265.702	-1.75
265.917	-1.86
266.132	-1.24
266.346	-0.66
266.561	-0.84
266.776	-0.32
266.99	-0.37
267.205	-0.06
267.42	-0.65
267.634	-0.73
267.849	-0.76
268.063	-1.15
268.278	-1.42
268.492	-1.85
268.707	-1.43
268.922	-0.78
269.136	-1.11
269.351	-0.85
269.565	-1.27
269.78	-0.91
269.994	-0.61
270.209	-0.22
270.423	-0.47
270.637	-0.13
270.852	-0.25
271.066	-0.59
271.281	-0.96
271.495	-1.02
271.709	-0.78
271.924	-0.99
272.138	-0.89
272.353	-1.12
272.567	-1.05
272.781	-0.8
272.996	-0.7
273.21	-0.41
273.424	-0.31
273.638	-0.05
273.853	0.02
274.067	-0.11
274.281	0.25
274.495	0.04
274.71	0.09
274.924	-0.02
275.138	0.19
275.352	-0.13
275.566	-0.01
275.781	0.24
275.995	-0.24
276.209	0.07
276.423	0.01
276.637	0.16
276.851	-0.23
277.065	0.19
277.279	0.21
277.493	0.01
277.707	0.3
277.921	0.39
278.135	-0.39
278.349	-0.87
278.563	-1.5
278.777	-1.19
278.991	-1.17
279.205	-1.24
279.419	-1.57
279.633	-1.4
279.847	-1.38
280.061	-1.3
280.275	-1.93
280.489	-1.56
280.703	-0.74
280.917	-0.56
281.131	-0.61
281.344	-0.99
281.558	-0.53
281.772	-0.31
281.986	-0.25
282.2	0.04
282.414	0.25
282.627	0.62
282.841	1.01
283.055	0.57
283.269	0.8
283.482	0.81
283.696	1.28
283.91	1.45
284.123	1.21
284.337	0.92
284.551	0.56
284.764	0.36
284.978	0.2
285.192	-0.24
285.405	0.17
285.619	-0.02
285.833	-0.12
286.046	-0.6
286.26	-0.73
286.473	-0.79
286.687	-0.64
286.9	-0.16
287.114	-0.06
287.327	0.06
287.541	0.74
287.754	0.86
287.968	0.74
288.181	0.63
288.395	1.19
288.608	1.43
288.822	1.47
289.035	1.52
289.248	1.59
289.462	1.76
289.675	1.86
289.889	1.28
290.102	1.12
290.315	1.35
290.529	1.45
290.742	1.24
290.955	1.02
291.169	1.14
291.382	1.11
291.595	0.48
291.808	0.35
292.022	-0.05
292.235	0.03
292.448	-0.16
292.661	-0.25
292.875	-0.41
293.088	-0.24
293.301	-0.11
293.514	-0.21
293.727	-0.32
293.94	-0.15
294.153	-0.57
294.367	-0.09
294.58	-0.02
294.793	0.15
295.006	0.29
295.219	0.63
295.432	0.99
295.645	1.04
295.858	1.06
296.071	1.39
296.284	1.23
296.497	1.57
296.71	1.39
296.923	1.48
297.136	1.35
297.349	1.33
297.562	1.22
297.775	0.75
297.988	0.54
298.201	0.36
298.414	0.06
298.626	0.62
298.839	0.36
299.052	0.38
299.265	0.03
299.478	0.05
299.691	0.24
299.903	0.26
300.116	0.14
300.329	0.21
300.542	0.44
300.755	0.47
300.967	0.18
301.18	0.24
301.393	0.08
301.605	0.6
301.818	0.69
302.031	0.34
302.243	0.46
302.456	0.84
302.669	0.74
302.881	0.63
303.094	0.51
303.307	0.12
303.519	0.18
303.732	0.71
303.944	0.71
304.157	0.68
304.37	1.19
304.582	0.92
304.795	1.27
305.007	1.73
305.22	2.12
305.432	2.18
305.645	2.19
305.857	2.54
306.069	1.84
306.282	1.4
306.494	1.45
306.707	1.02
306.919	1.09
307.132	0.63
307.344	0.13
307.556	-0.12
307.769	-0.39
307.981	0.28
308.193	0.11
308.406	0.44
308.618	0.46
308.83	0.61
309.043	0.4
309.255	0.78
309.467	0.59
309.679	0.89
309.892	0.76
310.104	1.14
310.316	0.85
310.528	1.19
310.74	1.22
310.953	1.76
311.165	1.89
311.377	2.36
311.589	2.2
311.801	2.4
312.013	2.19
312.225	2.62
312.437	2.63
312.649	2.97
312.862	2.55
313.074	2.37
313.286	2.53
313.498	2.31
313.71	2.05
313.922	2.08
314.134	2.49
314.346	2.8
314.558	2.59
314.77	2.39
314.982	2.25
315.193	1.98
315.405	2.01
315.617	1.37
315.829	1.17
316.041	1.1
316.253	0.61
316.465	0.63
316.677	0.53
316.888	0.81
317.1	0.99
317.312	0.78
317.524	1.14
317.736	1.23
317.947	1.01
318.159	1.01
318.371	1.45
318.583	2.26
318.794	1.97
319.006	1.88
319.218	1.6
319.43	1.68
319.641	1.82
319.853	2.2
320.064	2.67
320.276	2.94
320.488	2.97
320.699	2.77
320.911	2.59
321.123	3.08
321.334	3.5
321.546	3.74
321.757	3.67
321.969	3.96
322.18	3.53
322.392	3.21
322.603	3.47
322.815	4
323.026	4.2
323.238	4.08
323.449	3.95
323.661	3.62
323.872	4.04
324.083	4.03
324.295	3.9
324.506	4.38
324.718	4.97
324.929	4.8
325.14	4.87
325.352	4.92
325.563	5.07
325.774	5.24
325.986	5.49
326.197	5.31
326.408	5.71
326.62	6.44
326.831	6.69
327.042	6.93
327.253	7.93
327.464	8.02
327.676	8.24
327.887	8.56
328.098	8.62
328.309	8.85
328.52	9.07
328.732	9.12
328.943	8.73
329.154	8.8
329.365	8.51
329.576	8.02
329.787	8.17
329.998	8.43
330.209	8.73
330.42	8.96
330.631	9.23
330.842	9.19
331.053	9.26
331.264	9.34
331.475	9.5
331.686	9.99
331.897	10.38
332.108	10.51
332.319	10.71
332.53	10.66
332.741	10.48
332.952	10.74
333.163	10.99
333.374	10.97
333.585	11.6
333.795	11.61
334.006	11.64
334.217	11.39
334.428	11.42
334.639	11.53
334.849	11.46
335.06	11.85
335.271	11.87
335.482	12.38
335.692	12.88
335.903	12.28
336.114	12.25
336.325	12.34
336.535	12.48
336.746	12.73
336.957	12.38
337.167	12.85
337.378	12.82
337.589	12.91
337.799	12.32
338.01	12.33
338.22	12.53
338.431	12.56
338.642	12.26
338.852	12.5
339.063	12.18
339.273	12.27
339.484	12.15
339.694	12.71
339.905	12.69
340.115	12.74
340.326	12.6
340.536	13.02
340.746	13.28
340.957	13.57
341.167	13.4
341.378	13.67
341.588	13.79
341.799	13.6
342.009	13.07
342.219	13.07
342.43	13.43
342.64	13.18
342.85	12.94
343.061	12.66
343.271	12.42
343.481	12.15
343.691	12
343.902	11.98
344.112	11.68
344.322	11.79
344.532	11.8
344.743	11.93
344.953	12.19
345.163	12.14
345.373	12.29
345.583	12.39
345.793	12.31
346.004	12.49
346.214	12.81
346.424	12.86
346.634	12.84
346.844	12.55
347.054	11.99
347.264	12.09
347.474	12.3
347.684	12.01
347.894	12.09
348.104	12.29
348.314	11.89
348.524	11.35
348.734	11.37
348.944	11.21
349.154	11.59
349.364	12.09
349.574	12.17
349.784	12.19
349.994	12.31
350.204	12.38
350.413	12.51
350.623	12.97
350.833	13.01
351.043	12.96
351.253	13.05
351.463	13.13
351.672	12.88
351.882	12.99
352.092	13.04
352.302	13.01
352.511	12.87
352.721	12.77
352.931	12.65
353.141	12.93
353.35	13.36
353.56	13.18
353.77	12.71
353.979	12.63
354.189	12.51
354.399	12.37
354.608	12.32
354.818	12.67
355.027	12.6
355.237	12.5
355.447	12.68
355.656	12.54
355.866	12.7
356.075	12.85
356.285	12.9
356.494	12.91
356.704	12.93
356.913	13.1
357.123	12.87
357.332	12.85
357.542	12.71
357.751	12.36
357.96	12.37
358.17	12.37
358.379	12.61
358.589	12.63
358.798	12.53
359.007	12.46
359.217	12.23
359.426	12.24
359.635	12.28
359.845	12.46
360.054	12.37
360.263	12.13
360.472	12.34
360.682	12.27
360.891	12.49
361.1	12.42
361.309	12.49
361.519	12.52
361.728	12.55
361.937	12.69
362.146	12.86
362.355	13.01
362.564	13.05
362.774	12.88
362.983	12.64
363.192	12.38
363.401	12.37
363.61	12.46
363.819	12.45
364.028	12.24
364.237	12.14
364.446	11.92
364.655	11.91
364.864	12.3
365.073	12.2
365.282	12.35
365.491	12.52
365.7	12.6
365.909	12.25
366.118	12.46
366.327	12.68
366.536	12.59
366.745	12.44
366.954	12.61
367.162	12.39
367.371	12.45
367.58	12.48
367.789	12.29
367.998	12.31
368.207	12.48
368.415	12.46
368.624	12.31
368.833	12.4
369.042	12.44
369.25	12.09
369.459	11.82
369.668	11.97
369.877	11.83
370.085	12.01
370.294	11.85
370.503	11.73
370.711	11.59
370.92	11.47
371.129	11.46
371.337	11.42
371.546	11.55
371.754	12.13
371.963	12.23
372.171	12.57
372.38	12.35
372.589	12.39
372.797	12.38
373.006	12.37
373.214	12.55
373.423	12.57
373.631	12.88
373.84	12.9
374.048	12.41
374.256	11.95
374.465	11.61
374.673	11.77
374.882	11.92
375.09	12.18
375.298	12.29
375.507	12.32
375.715	12.38
375.923	11.96
376.132	12.04
376.34	12.08
376.548	12.23
376.757	12.18
376.965	12.02
377.173	11.89
377.381	11.8
377.59	11.75
377.798	11.72
378.006	11.63
378.214	11.78
378.423	11.72
378.631	11.65
378.839	11.63
379.047	11.79
379.255	12.02
379.463	12.07
379.671	11.79
379.879	11.8
380.088	11.67
380.296	11.79
380.504	11.91
380.712	12.01
380.92	12.12
381.128	12.07
381.336	11.9
381.544	11.81
381.752	11.84
381.96	11.99
382.168	11.97
382.376	12.27
382.584	12.44
382.791	12.44
382.999	12.09
383.207	12.03
383.415	12.02
383.623	12.16
383.831	12.11
384.039	12.2
384.247	12.2
384.454	12.19
384.662	12.24
384.87	11.92
385.078	11.79
385.285	11.92
385.493	12.05
385.701	12.2
385.909	12.14
386.116	11.98
386.324	12.18
386.532	12.17
386.739	12.01
386.947	11.76
387.155	11.69
387.362	11.7
387.57	11.61
387.778	11.58
387.985	11.58
388.193	11.46
388.4	11.74
388.608	11.59
388.816	11.65
389.023	11.9
389.231	11.97
389.438	12.11
389.646	12.26
389.853	12.55
390.061	12.33
390.268	12.29
390.475	12.29
390.683	12.2
390.89	11.93
391.098	11.9
391.305	11.9
391.512	11.91
391.72	12.02
391.927	11.81
392.135	11.66
392.342	12.05
392.549	11.95
392.756	12.31
392.964	12.31
393.171	12.43
393.378	12.31
393.586	12.29
393.793	12.37
394	12.33
394.207	12.55
394.414	12.66
394.622	12.48
394.829	12.51
395.036	12.19
395.243	12.12
395.45	12.21
395.657	12.21
395.864	12.36
396.072	12.29
396.279	12.33
396.486	12.39
396.693	12.22
396.9	12.18
397.107	12.18
397.314	12.39
397.521	12.54
397.728	12.48
397.935	12.56
398.142	12.43
398.349	12.26
398.556	12.14
398.763	11.86
398.97	12.05
399.177	12.18
399.383	12.41
399.59	12.31
399.797	12.31
400.004	12.51
400.211	12.59
400.418	12.67
400.625	12.94
400.831	12.89
401.038	13.04
401.245	12.96
401.452	12.9
401.658	12.79
401.865	12.87
402.072	12.76
402.279	12.72
402.485	12.85
402.692	12.98
402.899	12.83
403.105	12.98
403.312	12.94
403.519	13.04
403.725	13.14
403.932	13.15
404.138	12.98
404.345	13.02
404.552	12.88
404.758	12.76
404.965	12.5
405.171	12.6
405.378	12.55
405.584	12.68
405.791	12.59
405.997	12.45
406.204	12.51
406.41	12.62
406.617	12.66
406.823	12.58
407.029	12.49
407.236	12.49
407.442	12.32
407.649	12.23
407.855	12.23
408.061	12.16
408.268	12.17
408.474	12.02
408.68	12.22
408.887	12.3
409.093	12.19
409.299	12.36
409.505	12.41
409.712	12.5
409.918	12.63
410.124	12.64
410.33	12.94
410.537	12.84
410.743	12.96
410.949	12.8
411.155	12.86
411.361	13.05
411.567	12.94
411.773	12.91
411.98	12.94
412.186	12.85
412.392	12.91
412.598	12.64
412.804	12.87
413.01	13.05
413.216	13.11
413.422	13.17
413.628	13.39
413.834	13.6
414.04	13.66
414.246	13.73
414.452	13.96
414.658	13.83
414.864	13.91
415.07	13.87
415.275	13.76
415.481	13.69
415.687	13.56
415.893	13.63
416.099	13.6
416.305	13.66
416.511	13.62
416.716	13.47
416.922	13.64
417.128	13.66
417.334	13.65
417.539	13.69
417.745	13.69
417.951	13.79
418.157	13.81
418.362	13.94
418.568	14.05
418.774	14.15
418.979	14.21
419.185	14.17
419.391	14.28
419.596	14.36
419.802	14.39
420.008	14.49
420.213	14.57
420.419	14.49
420.624	14.47
420.83	14.37
421.035	14.39
421.241	14.36
421.446	14.39
421.652	14.39
421.857	14.38
422.063	14.43
422.268	14.46
422.474	14.41
422.679	14.46
422.885	14.49
423.09	14.64
423.295	14.72
423.501	14.82
423.706	14.93
423.911	14.9
424.117	14.99
424.322	14.98
424.527	15.01
424.733	15.12
424.938	15.21
425.143	15.18
425.349	15.15
425.554	15.06
425.759	15.13
425.964	15.06
426.169	15.07
426.375	14.98
426.58	14.99
426.785	14.92
426.99	14.78
427.195	14.71
427.4	14.71
427.605	14.67
427.811	14.72
428.016	14.67
428.221	14.71
428.426	14.71
428.631	14.9
428.836	14.94
429.041	14.95
429.246	15.06
429.451	15.2
429.656	15.22
429.861	15.27
430.066	15.35
430.271	15.41
430.476	15.36
430.681	15.52
430.886	15.46
431.09	15.53
431.295	15.59
431.5	15.59
431.705	15.58
431.91	15.63
432.115	15.65
432.32	15.6
432.524	15.67
432.729	15.75
432.934	15.7
433.139	15.64
433.343	15.55
433.548	15.57
433.753	15.52
433.958	15.48
434.162	15.55
434.367	15.54
434.572	15.57
434.776	15.57
434.981	15.48
435.186	15.55
435.39	15.64
435.595	15.75
435.799	15.88
436.004	15.93
436.209	15.89
436.413	15.83
436.618	15.95
436.822	16.01
437.027	16.04
437.231	16.12
437.436	16.13
437.64	16.05
437.845	16.06
438.049	16.04
438.253	16.17
438.458	16.25
438.662	16.35
438.867	16.42
439.071	16.45
439.275	16.49
439.48	16.56
439.684	16.63
439.888	16.64
440.093	16.66
440.297	16.61
440.501	16.57
440.706	16.57
440.91	16.58
441.114	16.47
441.318	16.49
441.523	16.39
441.727	16.41
441.931	16.27
442.135	16.28
442.339	16.28
442.543	16.31
442.748	16.3
442.952	16.29
443.156	16.28
443.36	16.35
443.564	16.33
443.768	16.43
443.972	16.31
444.176	16.33
444.38	16.49
444.584	16.4
444.788	16.42
444.992	16.42
445.196	16.43
445.4	16.47
445.604	16.51
445.808	16.58
446.012	16.63
446.216	16.71
446.42	16.73
446.624	16.66
446.828	16.75
447.032	16.8
447.235	16.78
447.439	16.91
447.643	16.94
447.847	16.87
448.051	16.89
448.254	16.85
448.458	16.72
448.662	16.79
448.866	16.85
449.069	16.8
449.273	16.67
449.477	16.79
449.681	16.63
449.884	16.56
450.088	16.56
450.292	16.53
450.495	16.56
450.699	16.65
450.902	16.55
451.106	16.42
451.31	16.41
451.513	16.45
451.717	16.39
451.92	16.51
452.124	16.42
452.327	16.5
452.531	16.53
452.734	16.34
452.938	16.36
453.141	16.43
453.345	16.34
453.548	16.32
453.752	16.48
453.955	16.47
454.158	16.38
454.362	16.45
454.565	16.45
454.769	16.35
454.972	16.58
455.175	16.58
455.379	16.57
455.582	16.76
455.785	16.82
455.988	16.67
456.192	16.83
456.395	16.84
456.598	16.87
456.801	16.86
457.005	16.87
457.208	16.87
457.411	16.97
457.614	17.13
457.817	17.23
458.021	17.3
458.224	17.25
458.427	17.13
458.63	17.18
458.833	17.15
459.036	17.13
459.239	17.19
459.442	17.1
459.645	17.16
459.848	17.11
460.051	17.01
460.254	17.01
460.457	17.11
460.66	17.18
460.863	17.16
461.066	17.19
461.269	17.15
461.472	17.08
461.675	17.15
461.878	16.94
462.081	16.85
462.284	16.79
462.486	16.7
462.689	16.56
462.892	16.54
463.095	16.48
463.298	16.46
463.5	16.47
463.703	16.55
463.906	16.55
464.109	16.73
464.311	16.77
464.514	16.86
464.717	17.01
464.92	17.09
465.122	17.09
465.325	17.27
465.528	17.23
465.73	17.37
465.933	17.28
466.135	17.15
466.338	17.06
466.541	17.03
466.743	17.05
466.946	17.06
467.148	17.04
467.351	17.07
467.553	16.89
467.756	16.92
467.958	16.95
468.161	16.96
468.363	17.15
468.566	17.4
468.768	17.44
468.971	17.5
469.173	17.4
469.375	17.52
469.578	17.43
469.78	17.46
469.983	17.43
470.185	17.33
470.387	17.3
470.59	17.13
470.792	16.94
470.994	17.12
471.196	17.08
471.399	17.17
471.601	17.15
471.803	17.17
472.005	17.18
472.208	17.27
472.41	17.34
472.612	17.43
472.814	17.59
473.016	17.52
473.218	17.2
473.421	17.21
473.623	17.24
473.825	17.31
474.027	17.43
474.229	17.4
474.431	17.27
474.633	17.21
474.835	17.14
475.037	17
475.239	17.04
475.441	17.27
475.643	17.23
475.845	17.23
476.047	17.1
476.249	17.07
476.451	17.04
476.653	17.21
476.855	17.2
477.057	17.27
477.258	17.27
477.46	17.31
477.662	17.3
477.864	17.33
478.066	17.27
478.268	17.34
478.469	17.24
478.671	17.34
478.873	17.28
479.075	17.3
479.276	17.35
479.478	17.5
479.68	17.43
479.882	17.4
480.083	17.49
480.285	17.48
480.487	17.5
480.688	17.6
480.89	17.61
481.091	17.62
481.293	17.68
481.495	17.71
481.696	17.7
481.898	17.78
482.099	17.82
482.301	17.87
482.502	17.93
482.704	17.93
482.905	17.9
483.107	17.93
483.308	17.94
483.51	17.95
483.711	17.95
483.913	18
484.114	17.99
484.315	18.02
484.517	17.99
484.718	17.96
484.92	17.97
485.121	18
485.322	18.02
485.524	18
485.725	18.02
485.926	18.02
486.127	18.01
486.329	18.01
486.53	17.98
486.731	17.99
486.932	18.04
487.134	18.01
487.335	18.04
487.536	18.02
487.737	18.08
487.938	18.08
488.139	18.1
488.341	18.09
488.542	18.13
488.743	18.18
488.944	18.24
489.145	18.26
489.346	18.3
489.547	18.3
489.748	18.37
489.949	18.32
490.15	18.3
490.351	18.26
490.552	18.31
490.753	18.3
490.954	18.28
491.155	18.24
491.356	18.19
491.557	18.19
491.758	18.19
491.959	18.13
492.159	18.18
492.36	18.21
492.561	18.25
492.762	18.2
492.963	18.25
493.164	18.29
493.364	18.27
493.565	18.34
493.766	18.34
493.967	18.34
494.167	18.39
494.368	18.3
494.569	18.28
494.769	18.22
494.97	18.2
495.171	18.22
495.371	18.19
495.572	18.22
495.773	18.2
495.973	18.15
496.174	18.15
496.375	18.17
496.575	18.27
496.776	18.26
496.976	18.32
497.177	18.38
497.377	18.34
497.578	18.39
497.778	18.39
497.979	18.4
498.179	18.43
498.38	18.51
498.58	18.55
498.78	18.52
498.981	18.56
499.181	18.53
499.382	18.5
499.582	18.49
499.782	18.44
499.983	18.49
500.183	18.53
500.383	18.61
500.584	18.53
500.784	18.42
500.984	18.38
501.184	18.45
501.385	18.48
501.585	18.46
501.785	18.52
501.985	18.57
502.185	18.62
502.386	18.58
502.586	18.58
502.786	18.61
502.986	18.74
503.186	18.86
503.386	18.78
503.586	18.81
503.786	18.86
503.987	18.89
504.187	18.93
504.387	18.89
504.587	19.01
504.787	19.05
504.987	19.12
505.187	19.14
505.387	19.04
505.587	19.14
505.786	19.17
505.986	19.27
506.186	19.26
506.386	19.22
506.586	19.27
506.786	19.24
506.986	19.2
507.186	19.24
507.386	19.17
507.585	19.3
507.785	19.31
507.985	19.37
508.185	19.34
508.384	19.44
508.584	19.51
508.784	19.49
508.984	19.41
509.183	19.52
509.383	19.6
509.583	19.75
509.782	19.68
509.982	19.68
510.182	19.76
510.381	19.8
510.581	19.84
510.781	19.86
510.98	19.89
511.18	20.06
511.379	20.05
511.579	20
511.778	19.96
511.978	20.12
512.177	20.24
512.377	20.14
512.576	20.08
512.776	20.1
512.975	20.23
513.175	20.16
513.374	20.1
513.573	20.21
513.773	20.35
513.972	20.4
514.172	20.33
514.371	20.22
514.57	20.23
514.77	20.21
514.969	20.23
515.168	20.06
515.367	20.2
515.567	20.29
515.766	20.32
515.965	20.18
516.164	20.14
516.364	20.32
516.563	20.54
516.762	20.66
516.961	20.78
517.16	20.73
517.359	20.89
517.559	21.02
517.758	21.07
517.957	21.07
518.156	21.09
518.355	21.22
518.554	21.21
518.753	21.21
518.952	21.25
519.151	21.28
519.35	21.29
519.549	21.3
519.748	21.25
519.947	21.23
520.146	21.22
520.345	21.34
520.544	21.29
520.743	21.29
520.942	21.2
521.141	21.16
521.339	21.21
521.538	21.35
521.737	21.3
521.936	21.29
522.135	21.31
522.333	21.32
522.532	21.28
522.731	21.37
522.93	21.44
523.129	21.5
523.327	21.54
523.526	21.61
523.725	21.63
523.923	21.72
524.122	21.8
524.321	21.93
524.519	22.04
524.718	22.07
524.917	22.04
525.115	22.03
525.314	22.09
525.512	22.09
525.711	22.12
525.909	22.17
526.108	22.16
526.306	22.17
526.505	22.09
526.703	22.11
526.902	22.1
527.1	22.18
527.299	22.22
527.497	22.23
527.696	22.26
527.894	22.27
528.092	22.26
528.291	22.31
528.489	22.32
528.688	22.37
528.886	22.35
529.084	22.43
529.283	22.48
529.481	22.46
529.679	22.48
529.877	22.53
530.076	22.57
530.274	22.56
530.472	22.56
530.67	22.59
530.869	22.58
531.067	22.59
531.265	22.61
531.463	22.57
531.661	22.66
531.859	22.74
532.057	22.75
532.255	22.75
532.454	22.8
532.652	22.83
532.85	22.81
533.048	22.88
533.246	22.93
533.444	22.86
533.642	22.9
533.84	22.89
534.038	22.86
534.236	22.9
534.434	22.91
534.632	22.92
534.83	22.9
535.027	23.03
535.225	23.06
535.423	23.14
535.621	23.23
535.819	23.26
536.017	23.31
536.215	23.36
536.412	23.39
536.61	23.5
536.808	23.49
537.006	23.58
537.203	23.56
537.401	23.55
537.599	23.55
537.797	23.62
537.994	23.59
538.192	23.6
538.39	23.6
538.587	23.59
538.785	23.47
538.983	23.58
539.18	23.74
539.378	23.82
539.575	23.91
539.773	24
539.97	24.05
540.168	24.17
540.366	24.2
540.563	24.25
540.761	24.37
540.958	24.4
541.155	24.38
541.353	24.38
541.55	24.4
541.748	24.43
541.945	24.44
542.143	24.48
542.34	24.48
542.537	24.58
542.735	24.61
542.932	24.6
543.129	24.78
543.327	24.9
543.524	24.98
543.721	25.11
543.919	25.27
544.116	25.44
544.313	25.51
544.51	25.7
544.708	25.83
544.905	26.01
545.102	26.12
545.299	26.19
545.496	26.35
545.693	26.35
545.891	26.39
546.088	26.37
546.285	26.25
546.482	26.16
546.679	26.07
546.876	25.95
547.073	25.8
547.27	25.74
547.467	25.62
547.664	25.47
547.861	25.4
548.058	25.21
548.255	25.15
548.452	25.15
548.649	25.23
548.846	25.14
549.043	25.14
549.24	25.23
549.437	25.12
549.633	25.01
549.83	25.04
550.027	25.04
550.224	25.09
550.421	24.93
550.618	24.86
550.814	24.78
551.011	24.71
551.208	24.6
551.405	24.48
551.601	24.58
551.798	24.57
551.995	24.52
552.191	24.45
552.388	24.45
552.585	24.47
552.781	24.38
552.978	24.38
553.175	24.44
553.371	24.4
553.568	24.43
553.764	24.34
553.961	24.32
554.157	24.3
554.354	24.33
554.55	24.24
554.747	24.25
554.943	24.39
555.14	24.3
555.336	24.14
555.533	24.31
555.729	24.32
555.926	24.28
556.122	24.32
556.318	24.24
556.515	24.28
556.711	24.35
556.907	24.28
557.104	24.15
557.3	24.24
557.496	24.41
557.693	24.29
557.889	24.33
558.085	24.46
558.281	24.4
558.478	24.48
558.674	24.35
558.87	24.3
559.066	24.34
559.262	24.45
559.459	24.35
559.655	24.29
559.851	24.26
560.047	24.11
560.243	23.93
560.439	23.93
560.635	23.94
560.831	24.09
561.027	24.08
561.223	24.09
561.419	24
561.615	24.19
561.811	24.23
562.007	24.18
562.203	24.26
562.399	24.36
562.595	24.44
562.791	24.43
562.987	24.34
563.183	24.4
563.379	24.45
563.575	24.42
563.771	24.45
563.966	24.44
564.162	24.57
564.358	24.67
564.554	24.74
564.75	24.72
564.945	24.72
565.141	24.72
565.337	24.85
565.533	24.9
565.728	24.99
565.924	24.91
566.12	25.01
566.315	25
566.511	25.08
566.707	25.13
566.902	25.19
567.098	25.11
567.293	25.06
567.489	25.04
567.684	25.04
567.88	25.05
568.076	24.91
568.271	24.89
568.467	24.98
568.662	24.84
568.858	24.81
569.053	24.81
569.248	24.95
569.444	25.01
569.639	24.96
569.835	24.86
570.03	25.05
570.225	25.15
570.421	25.18
570.616	25.21
570.812	25.21
571.007	25.18
571.202	25.26
571.397	25.35
571.593	25.38
571.788	25.37
571.983	25.46
572.178	25.37
572.374	25.47
572.569	25.45
572.764	25.33
572.959	25.4
573.154	25.5
573.35	25.3
573.545	25.26
573.74	25.26
573.935	25.29
574.13	25.39
574.325	25.43
574.52	25.41
574.715	25.42
574.91	25.52
575.105	25.46
575.3	25.39
575.495	25.62
575.69	25.63
575.885	25.78
576.08	25.85
576.275	25.75
576.47	25.8
576.665	25.93
576.86	25.85
577.055	25.93
577.25	26
577.444	26.06
577.639	26.04
577.834	26.19
578.029	26.13
578.224	26.23
578.418	26.27
578.613	26.33
578.808	26.24
579.003	26.47
579.197	26.6
579.392	26.59
579.587	26.56
579.781	26.5
579.976	26.45
580.171	26.48
580.365	26.29
580.56	26.41
580.755	26.23
580.949	26.25
581.144	26.09
581.338	25.94
581.533	26.04
581.727	26.25
581.922	26.42
582.116	26.36
582.311	26.41
582.505	26.62
582.7	26.45
582.894	26.52
583.089	26.5
583.283	26.6
583.478	26.75
583.672	26.67
583.866	26.67
584.061	26.7
584.255	26.75
584.449	26.83
584.644	26.84
584.838	26.95
585.032	27.08
585.226	27.23
585.421	27.25
585.615	27.17
585.809	27.41
586.003	27.6
586.198	27.6
586.392	27.63
586.586	27.71
586.78	27.63
586.974	27.62
587.168	27.48
587.363	27.45
587.557	27.55
587.751	27.52
587.945	27.4
588.139	27.21
588.333	27.24
588.527	27.16
588.721	27.06
588.915	27.13
589.109	26.93
589.303	27.14
589.497	27.12
589.691	27.08
589.885	27.18
590.079	27.18
590.273	26.96
590.466	26.88
590.66	26.95
590.854	26.95
591.048	27.08
591.242	27.37
591.436	27.07
591.629	27.05
591.823	27.13
592.017	26.98
592.211	27.06
592.404	27.23
592.598	27.24
592.792	27.12
592.986	27.18
593.179	27.18
593.373	27.16
593.567	27.44
593.76	27.58
593.954	27.62
594.147	27.71
594.341	27.73
594.535	27.72
594.728	27.71
594.922	27.86
595.115	27.76
595.309	27.66
595.502	27.67
595.696	27.61
595.889	27.51
596.083	27.37
596.276	27.44
596.47	27.42
596.663	27.4
596.856	27.38
597.05	27.45
597.243	27.51
597.437	27.61
597.63	27.56
597.823	27.54
598.017	27.47
598.21	27.65
598.403	27.74
598.596	27.71
598.79	27.81
598.983	27.86
599.176	27.84
599.369	27.81
599.563	27.65
599.756	27.69
599.949	27.8
600.142	27.85
600.335	27.79
600.528	27.51
600.722	27.59
600.915	27.5
601.108	27.43
601.301	27.49
601.494	27.55
601.687	27.53
601.88	27.6
602.073	27.59
602.266	27.59
602.459	27.49
602.652	27.74
602.845	27.82
603.038	27.83
603.231	28
603.424	27.82
603.617	27.84
603.809	27.98
604.002	28.06
604.195	28.06
604.388	28.08
604.581	28.14
604.774	27.98
604.966	27.87
605.159	28.04
605.352	28
605.545	28.17
605.737	28.19
605.93	28.28
606.123	28.24
606.316	28.3
606.508	28.42
606.701	28.48
606.894	28.77
607.086	28.83
607.279	28.89
607.471	29.02
607.664	29.12
607.857	29.46
608.049	29.74
608.242	30.12
608.434	30.71
608.627	31.4
608.819	32.11
609.012	32.8
609.204	33.95
609.397	34.92
609.589	35.92
609.782	37.02
609.974	37.94
610.166	39.13
610.359	40.17
610.551	41.15
610.743	42.04
610.936	42.77
611.128	43.32
611.32	43.53
611.513	43.66
611.705	43.66
611.897	43.69
612.09	43.6
612.282	43.11
612.474	42.49
612.666	41.82
612.858	41.07
613.051	40.43
613.243	39.92
613.435	39.52
613.627	38.97
613.819	38.49
614.011	37.97
614.203	37.37
614.395	36.76
614.588	36.48
614.78	36.07
614.972	35.56
615.164	35.07
615.356	34.67
615.548	34.14
615.74	33.79
615.932	33.59
616.124	33.26
616.315	32.99
616.507	32.83
616.699	32.49
616.891	32.19
617.083	31.9
617.275	31.75
617.467	31.45
617.659	31.39
617.85	31.02
618.042	30.88
618.234	30.52
618.426	30.1
618.618	30.02
618.809	30.02
619.001	29.92
619.193	30.12
619.384	30.1
619.576	30.05
619.768	29.85
619.959	29.92
620.151	29.87
620.343	29.96
620.534	30.23
620.726	30.1
620.917	30
621.109	30.09
621.301	30.09
621.492	30.16
621.684	30.32
621.875	30.33
622.067	30.64
622.258	30.75
622.45	30.93
622.641	31.12
622.832	31
623.024	31.21
623.215	31.12
623.407	31.2
623.598	31.22
623.789	31.28
623.981	31.28
624.172	31.14
624.363	31.26
624.555	30.92
624.746	30.88
624.937	31
625.129	30.84
625.32	31.1
625.511	30.89
625.702	30.9
625.893	30.92
626.085	30.85
626.276	30.86
626.467	30.72
626.658	31.04
626.849	30.87
627.04	31.12
627.231	31.23
627.422	31.09
627.614	31.18
627.805	31.14
627.996	31.07
628.187	31.34
628.378	31.48
628.569	31.74
628.76	31.76
628.951	32.05
629.142	32.13
629.332	32.18
629.523	32.4
629.714	32.41
629.905	32.49
630.096	32.58
630.287	32.61
630.478	32.49
630.669	32.12
630.859	31.67
631.05	31.61
631.241	31.23
631.432	31.22
631.623	31.11
631.813	30.94
632.004	30.82
632.195	30.71
632.385	30.56
632.576	30.46
632.767	30.59
632.957	30.58
633.148	30.48
633.339	30.59
633.529	30.28
633.72	29.87
633.91	29.99
634.101	30.07
634.292	30.08
634.482	30.07
634.673	29.9
634.863	29.81
635.054	30.05
635.244	29.96
635.435	29.69
635.625	29.91
635.815	30.08
636.006	30.06
636.196	30
636.387	29.87
636.577	29.72
636.767	29.81
636.958	29.92
637.148	29.99
637.338	29.85
637.529	30
637.719	29.9
637.909	29.83
638.099	29.89
638.29	29.77
638.48	29.7
638.67	29.94
638.86	29.78
639.05	29.6
639.241	29.42
639.431	29.22
639.621	29.16
639.811	29.19
640.001	29.16
640.191	29.06
640.381	29.23
640.571	29.32
640.761	29.24
640.951	29.52
641.141	29.47
641.331	29.41
641.521	29.69
641.711	29.8
641.901	30.06
642.091	30.3
642.281	30.42
642.471	30.4
642.661	30.65
642.851	30.62
643.041	30.74
643.231	30.82
643.42	30.8
643.61	30.81
643.8	30.53
643.99	30.49
644.18	30.54
644.369	30.42
644.559	30.43
644.749	30.36
644.939	30.38
645.128	30.02
645.318	30.16
645.508	30.33
645.697	30.51
645.887	30.75
646.076	30.64
646.266	30.37
646.456	30.44
646.645	30.5
646.835	30.39
647.024	30.47
647.214	30.78
647.403	30.46
647.593	30.36
647.782	30.38
647.972	30.3
648.161	30.52
648.351	30.57
648.54	30.62
648.73	30.53
648.919	30.79
649.108	30.65
649.298	30.83
649.487	30.95
649.677	30.88
649.866	31.08
650.055	31.24
650.244	30.97
650.434	31.2
650.623	31.21
650.812	31.13
651.002	30.82
651.191	30.9
651.38	30.68
651.569	30.77
651.758	30.77
651.947	30.39
652.137	30.21
652.326	30.38
652.515	30.21
652.704	30.28
652.893	30.35
653.082	30.62
653.271	30.64
653.46	30.73
653.649	30.99
653.838	31.13
654.027	31.38
654.216	31.41
654.405	31.25
654.594	31.25
654.783	30.87
654.972	30.98
655.161	30.93
655.35	30.81
655.539	30.85
655.728	30.33
655.916	30.34
656.105	30.26
656.294	30.46
656.483	30.49
656.672	30.57
656.86	30.95
657.049	30.72
657.238	30.69
657.427	30.67
657.615	30.77
657.804	31.06
657.993	31.03
658.181	31.07
658.37	31
658.559	31.09
658.747	31.3
658.936	31.11
659.125	31.24
659.313	31.31
659.502	31.53
659.69	31.41
659.879	31.27
660.067	31.07
660.256	30.9
660.444	30.73
660.633	30.65
660.821	30.49
661.01	30.63
661.198	30.52
661.387	30.37
661.575	30.38
661.763	29.98
661.952	30.07
662.14	30.55
662.328	30.85
662.517	31.4
662.705	31.41
662.893	31.81
663.082	32.02
663.27	32.2
663.458	32.44
663.646	32.25
663.834	32.6
664.023	32.77
664.211	32.56
664.399	32.28
664.587	31.9
664.775	32.03
664.963	31.5
665.152	31.15
665.34	31.05
665.528	30.99
665.716	30.92
665.904	30.84
666.092	30.87
666.28	30.88
666.468	30.95
666.656	31.02
666.844	30.82
667.032	30.77
667.22	31.12
667.408	31.05
667.596	31.05
667.784	31.2
667.971	31.09
668.159	30.93
668.347	30.88
668.535	30.98
668.723	31.02
668.911	31.07
669.098	31.26
669.286	30.97
669.474	31.05
669.662	30.98
669.849	30.8
670.037	31.32
670.225	31.37
670.413	31.71
670.6	31.64
670.788	31.34
670.976	31.44
671.163	31.44
671.351	31.46
671.538	31.29
671.726	31.4
671.913	31.44
672.101	30.67
672.289	30.78
672.476	30.41
672.664	30.55
672.851	30.64
673.039	30.53
673.226	30.49
673.413	30.16
673.601	30.35
673.788	30.21
673.976	30.09
674.163	30.67
674.35	30.63
674.538	30.76
674.725	30.68
674.912	30.66
675.1	30.72
675.287	30.67
675.474	30.94
675.662	30.96
675.849	30.92
676.036	31.02
676.223	30.9
676.411	31.2
676.598	31.18
676.785	31.13
676.972	31.22
677.159	31.46
677.346	31.57
677.533	31.7
677.721	31.72
677.908	31.93
678.095	32.02
678.282	31.97
678.469	31.6
678.656	31.54
678.843	31.49
679.03	31.63
679.217	31.11
679.404	30.96
679.591	31.05
679.778	30.82
679.964	30.51
680.151	30.24
680.338	30.29
680.525	30.38
680.712	30.58
680.899	30.74
681.086	30.58
681.272	31.2
681.459	31.13
681.646	30.84
681.833	31.11
682.02	31.03
682.206	31.4
682.393	31.44
682.58	31.56
682.766	31.29
682.953	31.34
683.14	31.43
683.326	31.07
683.513	31.22
683.7	31.61
683.886	31.68
684.073	32.04
684.259	31.94
684.446	31.97
684.632	31.68
684.819	31.67
685.005	31.38
685.192	31.82
685.378	31.9
685.565	31.88
685.751	31.72
685.938	31.61
686.124	31.6
686.31	31.83
686.497	31.76
686.683	31.92
686.87	32.09
687.056	32.46
687.242	32.31
687.429	32.41
687.615	32.23
687.801	32.19
687.987	32.25
688.174	32.56
688.36	32.56
688.546	32.65
688.732	32.76
688.918	33.06
689.105	32.88
689.291	32.35
689.477	32.2
689.663	32.12
689.849	32.55
690.035	32.84
690.221	32.58
690.407	32.34
690.593	32.37
690.779	31.87
690.965	31.84
691.151	31.65
691.337	31.96
691.523	32.15
691.709	32.61
691.895	32.47
692.081	31.91
692.267	31.65
692.453	31.64
692.639	31.45
692.825	32.05
693.011	31.7
693.196	32.18
693.382	32.11
693.568	31.96
693.754	31.81
693.94	31.53
694.125	31.59
694.311	31.76
694.497	31.69
694.682	31.84
694.868	31.62
695.054	31.58
695.239	31.29
695.425	31.21
695.611	30.93
695.796	30.93
695.982	31.36
696.168	31.7
696.353	31.34
696.539	31.53
696.724	31.37
696.91	31.22
697.095	31.18
697.281	31.24
697.466	31.61
697.652	31.88
697.837	31.84
698.023	31.33
698.208	31.27
698.393	31.61
698.579	31.62
698.764	31.55
698.949	31.38
699.135	31.79
699.32	31.68
699.505	31.7
699.691	31.79
699.876	31.9
700.061	31.88
700.246	31.63
700.432	31.47
700.617	31.37
700.802	31.22
700.987	31.58
701.172	31.11
701.358	30.96
701.543	30.3
701.728	29.9
701.913	29.69
702.098	29.65
702.283	29.71
702.468	29.49
702.653	29.59
702.838	30.24
703.023	30.11
703.208	30.12
703.393	30.72
703.578	31.16
703.763	31.13
703.948	31.69
704.133	32.18
704.318	32.32
704.503	32.41
704.688	32.34
704.873	32.13
705.057	32.61
705.242	33.08
705.427	32.84
705.612	32.61
705.797	33.34
705.981	33.43
706.166	34.32
706.351	34.97
706.536	35.45
706.72	35.13
706.905	35.46
707.09	35.6
707.274	35.58
707.459	35.55
707.644	35.79
707.828	35.4
708.013	35.36
708.197	34.57
708.382	33.99
708.567	34.36
708.751	34.57
708.936	34.4
709.12	33.85
709.305	33.86
709.489	34.06
709.673	33.73
709.858	33.95
710.042	33.69
710.227	33.94
710.411	34.03
710.596	33.82
710.78	33.71
710.964	33.67
711.149	33.75
711.333	34.09
711.517	34.15
711.702	34.8
711.886	34.48
712.07	34.16
712.254	33.8
712.438	33.93
712.623	33.96
712.807	34.02
712.991	34.08
713.175	33.9
713.359	33.18
713.544	33.12
713.728	32.55
713.912	32.74
714.096	32.6
714.28	32.29
714.464	32.04
714.648	31.61
714.832	31.41
715.016	31.4
715.2	31.47
715.384	31.63
715.568	31.48
715.752	31.54
715.936	31.33
716.12	31.3
716.304	31.57
716.488	31.48
716.671	31.45
716.855	31.72
717.039	31.41
717.223	31.5
717.407	31.05
717.59	30.92
717.774	31.12
717.958	30.83
718.142	30.99
718.325	30.9
718.509	30.91
718.693	30.74
718.877	30.46
719.06	30.7
719.244	30.43
719.428	30.95
719.611	30.97
719.795	30.84
719.978	30.61
720.162	30.47
720.345	30.58
720.529	30.41
720.713	30.73
720.896	30.71
721.08	30.44
721.263	30.36
721.446	29.89
721.63	29.25
721.813	29.3
721.997	29.82
722.18	30.1
722.364	29.91
722.547	30.1
722.73	29.55
722.914	29.79
723.097	30
723.28	29.86
723.464	29.94
723.647	30.28
723.83	30.14
724.013	29.7
724.197	29.16
724.38	28.71
724.563	28.86
724.746	29.61
724.929	29.62
725.112	29.45
725.296	29.71
725.479	29.78
725.662	29.97
725.845	29.81
726.028	29.6
726.211	29.71
726.394	30.33
726.577	29.9
726.76	29.83
726.943	29.77
727.126	29.87
727.309	29.44
727.492	29.56
727.675	29.16
727.858	29.18
728.041	29.32
728.224	29.92
728.407	29.3
728.589	29.76
728.772	29.04
728.955	28.56
729.138	28.37
729.321	28.61
729.503	28.09
729.686	27.86
729.869	28.07
730.052	28.41
730.234	28.08
730.417	28.43
730.6	28.12
730.782	28.34
730.965	29.04
731.148	29.33
731.33	29.42
731.513	29.82
731.695	30.09
731.878	29.87
732.061	29.05
732.243	29
732.426	29.14
732.608	29.29
732.791	29.38
732.973	28.99
733.156	28.63
733.338	28.46
733.52	28.2
733.703	28.29
733.885	28.38
734.068	29.8
734.25	29.65
734.432	30.2
734.615	30.35
734.797	31.2
734.979	31.1
735.162	30.56
735.344	30.89
735.526	30.81
735.708	31.03
735.891	30.78
736.073	29.98
736.255	29.99
736.437	28.84
736.619	28.39
736.802	27.81
736.984	27.86
737.166	28.36
737.348	27.81
737.53	28.33
737.712	28.26
737.894	27.92
738.076	27.79
738.258	28.35
738.44	28.79
738.622	29.06
738.804	28.54
738.986	28.69
739.168	28.14
739.35	28.63
739.532	28.14
739.714	28.1
739.896	29.05
740.078	29.41
740.259	28.88
740.441	28.59
740.623	28.34
740.805	28.09
740.987	27.8
741.168	28.5
741.35	28.73
741.532	28.54
741.714	28.18
741.895	27.16
742.077	27.16
742.259	27.16
742.44	27.92
742.622	27.64
742.804	27.88
742.985	28.24
743.167	28.21
743.348	28.11
743.53	28.57
743.711	28.81
743.893	29.69
744.075	29.78
744.256	29.93
744.438	28.86
744.619	29.34
744.8	29.1
744.982	29.01
745.163	28.7
745.345	28.68
745.526	29.27
745.707	30.06
745.889	28.88
746.07	27.68
746.252	27.74
746.433	28.22
746.614	27.51
746.795	27.64
746.977	28.01
747.158	28.42
747.339	28.05
747.52	27.16
747.702	26.24
747.883	26.75
748.064	27.19
748.245	26.86
748.426	26.81
748.607	26.79
748.788	26.58
748.97	26.69
749.151	27.62
749.332	27.69
749.513	27.95
749.694	28.51
749.875	28.38
750.056	28.39
750.237	28.69
750.418	28.1
750.599	28.53
750.78	29.49
750.96	29.35
751.141	28.27
751.322	27.93
751.503	27.48
751.684	26.61
751.865	27.07
752.046	27.52
752.226	27.11
752.407	28.15
752.588	28.38
752.769	28.16
752.949	27.61
753.13	27.4
753.311	27.55
753.492	27.67
753.672	27.7
753.853	27.07
754.034	27.5
754.214	27.76
754.395	27.2
754.575	27.23
754.756	27.03
754.937	26.61
755.117	26.95
755.298	27.37
755.478	26.95
755.659	26.95
755.839	27.64
756.02	27
756.2	27.11
756.381	26.91
756.561	25.96
756.741	25.87
756.922	27.26
757.102	27.36
757.283	27.12
757.463	27.66
757.643	28.32
757.823	28.21
758.004	28.49
758.184	28.49
758.364	28.13
758.545	28.4
758.725	28.53
758.905	28.06
759.085	27.22
759.265	27.17
759.446	27.24
759.626	26.43
759.806	26.1
759.986	25.96
760.166	25.77
760.346	26.42
760.526	25.85
760.706	25.44
760.886	24.76
761.066	25.17
761.246	25.26
761.426	24.85
761.606	25.13
761.786	24.72
761.966	24.75
762.146	24.87
762.326	24.74
762.506	25.37
762.686	25.19
762.866	25.48
763.046	25.41
763.225	25.66
763.405	26.27
763.585	26.82
763.765	27.26
763.945	27.43
764.124	27.51
764.304	27.16
764.484	27.4
764.664	27.64
764.843	27.54
765.023	27.58
765.203	27.04
765.382	26.73
765.562	25.73
765.741	25.85
765.921	25.71
766.101	25.3
766.28	25.85
766.46	25.13
766.639	25.24
766.819	24.85
766.998	25.32
767.178	25.51
767.357	25.78
767.537	26.15
767.716	26.19
767.896	25.21
768.075	25.51
768.254	25.02
768.434	25.51
768.613	25.17
768.792	25.28
768.972	24.37
769.151	23.21
769.33	21.84
769.51	21.77
769.689	21.97
769.868	22.8
770.047	22.88
770.226	23.14
770.406	23.15
770.585	22.95
770.764	23.03
770.943	23.63
771.122	24.35
771.301	25.52
771.48	25.17
771.66	24.63
771.839	24.17
772.018	24.01
772.197	23.59
772.376	24.68
772.555	25.35
772.734	25.09
772.913	24.84
773.092	25.42
773.271	24.04
773.449	23.67
773.628	23.4
773.807	23.33
773.986	23.04
774.165	23.78
774.344	21.86
774.523	21.6
774.701	22.01
774.88	21.63
775.059	21.66
775.238	23.72
775.417	25.34
775.595	25.53
775.774	25.9
775.953	25.52
776.131	24.45
776.31	26.22
776.489	25.78
776.667	25.84
776.846	27.02
777.025	26.96
777.203	25.07
777.382	23.68
777.56	23.03
777.739	22.19
777.917	21.92
778.096	22.45
778.274	21.72
778.453	21.97
778.631	21.48
778.81	20.75
778.988	20.44
779.166	20.88
779.345	21.98
779.523	22.99
779.702	23.93
779.88	24.81
780.058	24.71
780.237	24.1
780.415	24.7
780.593	26.29
780.771	25.32
780.95	25.37
781.128	25.22
781.306	24.53
781.484	23.26
781.662	23.7
781.841	22.91
782.019	23.56
782.197	23.82
782.375	22.48
782.553	20.77
782.731	21.97
782.909	22.07
783.087	22.84
783.265	24.42
783.443	26.03
783.621	24.35
783.799	25.49
783.977	24.48
784.155	24.51
784.333	25.12
784.511	25.67
784.689	26.23
784.867	25.21
785.045	25.44
785.223	23.81
785.4	23.06
785.578	24.85
785.756	24.9
785.934	24.71
786.112	23.87
786.289	24.47
786.467	24.28
786.645	23.53
786.823	25.6
787	25.36
787.178	25.37
787.356	25.39
787.533	25.46
787.711	24.82
787.889	26.07
788.066	25.94
788.244	25.67
788.421	25.64
788.599	25.62
788.776	23.47
788.954	22.51
789.131	23.58
789.309	23.12
789.486	22.2
789.664	22.62
789.841	22.13
790.019	22.05
790.196	21.99
790.373	22.11
790.551	21.88
790.728	23.37
790.906	24.92
791.083	23.64
791.26	22.9
791.437	22.04
791.615	21.17
791.792	21.29
791.969	23.08
792.146	22.1
792.324	21.12
792.501	21.54
792.678	20.17
792.855	18.25
793.032	18.45
793.209	19.39
793.387	21.89
793.564	21.97
793.741	22.56
793.918	21.95
794.095	22.95
794.272	23.36
794.449	23.03
794.626	23.85
794.803	24.96
794.98	25.78
795.157	27.54
795.334	26.18
795.511	26.02
795.688	24.64
795.864	24.7
796.041	24.6
796.218	24.22
796.395	24.12
796.572	23.52
796.749	23.18
796.925	21.34
797.102	20.24
797.279	20.05
797.456	20.31
797.632	20.37
797.809	19.43
797.986	18.66
798.162	18.4
798.339	18.37
798.516	19.35
798.692	17.55
798.869	17.58
799.046	17.34
799.222	17.3
799.399	15.71
799.575	15.4
799.752	14.5
799.928	16.02
800.105	16.41
800.281	16.14
800.458	15.59
800.634	17.57
800.811	17.71
800.987	16.88
801.163	16.91
801.34	18.18
801.516	19.46
801.692	20.1
801.869	19.06
802.045	19.14
802.221	18.52
802.398	17.96
802.574	17.57
802.75	17.74
802.926	17.9
803.103	17.02
803.279	18.01
803.455	16.98
803.631	18.96
803.807	18.95
803.983	20.96
804.16	20.69
804.336	20.44
804.512	20.52
804.688	22
804.864	22.05
805.04	23.89
805.216	22.41
805.392	21.37
805.568	20.7
805.744	20.19
805.92	17.04
806.096	17.95
806.272	18.61
806.448	19.94
806.623	19.55
806.799	19.5
806.975	20.15
807.151	20.8
807.327	21.76
807.503	21.64
807.678	21.92
807.854	21.93
808.03	22.76
808.206	23.73
808.381	23.7
808.557	23.28
808.733	23.25
808.908	21.65
809.084	20.57
809.26	20.77
809.435	19.32
809.611	19.3
809.787	21.63
809.962	22.06
810.138	20.27
810.313	21.5
810.489	19.2
810.664	18.34
810.84	17.43
811.015	18.98
811.191	17.13
811.366	17.99
811.542	18.11
811.717	16.53
811.892	13.67
812.068	13.44
812.243	12.01
812.419	14.95
812.594	15.52
812.769	16.93
812.944	15.99
813.12	18.62
813.295	19.42
813.47	20.31
813.645	21.7
813.821	23.29
813.996	24.35
814.171	22.17
814.346	23.07
814.521	23.04
814.697	21.38
814.872	20.47
815.047	20.09
815.222	19.66
815.397	16.73
815.572	13.87
815.747	13.82
815.922	11.08
816.097	13.14
816.272	10.96
816.447	11.05
816.622	13.28
816.797	14.55
816.972	14.5
817.147	14.65
817.322	15.63
817.496	16.83
817.671	16.95
817.846	18.29
818.021	18.73
818.196	18.09
818.371	18.16
818.545	17.68
818.72	17.79
818.895	16.69
819.069	14.42
819.244	15.38
819.419	15.53
819.594	15.25
819.768	16.6
819.943	16.74
820.117	17.69
820.292	18.35
820.467	19.1
820.641	19.27
820.816	20.1
820.99	20.9
821.165	21.19
821.339	21.59
821.514	21.73
821.688	21.87
821.863	21.49
822.037	22.05
822.212	22.07
822.386	21.96
822.56	21.96
822.735	22.14
822.909	22.2
823.084	22.18
823.258	21.95
823.432	22.06
823.606	21.82
823.781	21.86
823.955	21.63
824.129	21.45
824.303	21.33
824.478	21.24
824.652	20.7
824.826	20.49
825	19.91
825.174	19.88
825.348	19.77
825.523	19.64
825.697	19.57
825.871	19.17
826.045	18.62
826.219	18.71
826.393	19.12
826.567	19.62
826.741	19.93
826.915	20.56
827.089	20.81
827.263	20.95
827.437	21.28
827.611	21.72
827.784	22.07
827.958	22.18
828.132	21.57
828.306	21.11
828.48	21.12
828.654	20.54
828.827	19.88
829.001	19.18
829.175	18.85
829.349	18.42
829.522	16.99
829.696	15.48
829.87	15.56
830.044	16.05
830.217	16.46
830.391	15.18
830.565	16.35
830.738	18.18
830.912	19.43
831.085	19.05
831.259	17.87
831.432	17.73
831.606	17.12
831.779	18.04
831.953	18.1
832.126	17.54
832.3	18.62
832.473	19.06
832.647	18.49
832.82	18.38
832.994	18.27
833.167	19.06
833.34	20.56
833.514	20.07
833.687	20.29
833.86	21.01
834.034	21.06
834.207	20.16
834.38	19.33
834.553	19.12
834.727	19.13
834.9	18.8
835.073	19.53
835.246	18.7
835.419	19.47
835.593	19.18
835.766	19.36
835.939	20.76
836.112	21.78
836.285	23.44
836.458	23.01
836.631	22.67
836.804	22.89
836.977	21.73
837.15	21.9
837.323	20.95
837.496	18.09
837.669	17.06
837.842	14.51
838.015	12
838.188	9.29
838.361	7.35
838.533	7.28
838.706	7.8
838.879	7.23
839.052	6.93
839.225	8.73
839.398	11.8
839.57	9.15
839.743	7.65
839.916	10.9
840.088	11.64
840.261	11.86
840.434	11.78
840.607	11.09
840.779	10.41
840.952	10.42
841.124	9.95
841.297	9.1
841.47	11.49
841.642	11
841.815	7.86
841.987	7.42
842.16	10.5
842.332	9.3
842.505	11.2
842.677	12.59
842.85	14.21
843.022	18.33
843.194	20.73
843.367	17.43
843.539	20.62
843.712	23.61
843.884	25.67
844.056	24.23
844.229	24.29
844.401	22.16
844.573	20.8
844.745	19.09
844.918	13.75
845.09	11.21
845.262	14.59
845.434	13.7
845.606	11.08
845.779	6.55
845.951	2.8
846.123	8.56
846.295	9.37
846.467	9.78
846.639	14.7
846.811	13.91
846.983	11.31
847.155	7.33
847.327	5.57
847.499	8.95
847.671	9.21
847.843	12.59
848.015	10.1
848.187	5.54
848.359	5.56
848.531	-0.61
848.703	1.23
848.875	6.61
849.047	8.9
849.218	11.52
849.39	4.58
849.562	9.13
849.734	8.77
849.905	7.38
850.077	9.05
850.249	13.44
850.421	14.98
850.592	12.57
850.764	11.41
850.936	10.78
851.107	9.17
851.279	11.23
851.451	1.79
851.622	2.32
851.794	-2.04
851.965	4.55
852.137	4.06
852.308	6.96
852.48	7.7
852.651	5.09
852.823	10.05
852.994	11.93
853.166	14.58
853.337	24.16
853.509	24.16
853.68	28.01
853.851	25.13
854.023	25.65
854.194	25.73
854.365	29.32
854.537	33.86
854.708	30.91
854.879	31.48
855.05	31.59
855.222	28.45
855.393	27.67
855.564	25.47
855.735	16.35
855.906	8.59
856.078	9.97
856.249	6.98
856.42	5.16
856.591	6.7
856.762	2.94
856.933	-0.69
857.104	3.43
857.275	2.49
857.446	9.2
857.617	19.79
857.788	25.1
857.959	19.58
858.13	17.47
858.301	16.62
858.472	18.62
858.643	11.49
858.814	15.48
858.985	11.24
859.155	12.66
859.326	7.99
859.497	13.34
859.668	5.43
859.839	6.39
860.009	8.76
860.18	12.52
860.351	10.75
860.522	15.7
860.692	16.29
860.863	16.67
861.034	17.98
861.204	17.31
861.375	13.13
861.546	18.77
861.716	16
861.887	17
862.057	15.56
862.228	11.97
862.398	17.04
862.569	17.85
862.739	18.99
862.91	14.69
863.08	13.2
863.251	11.55
863.421	10.03
863.592	16.73
863.762	15.03
863.932	8.1
864.103	13.07
864.273	11.75
864.443	7.66
864.614	-0.32
864.784	2.46
864.954	-2.94
865.125	-1.05
865.295	4.69
865.465	1.93
865.635	8.31
865.805	16.17
865.976	18.19
866.146	11.95
866.316	11.51
866.486	15.3
866.656	18.4
866.826	23.5
866.996	24.8
867.166	21.4
867.336	20.93
867.506	21.64
867.676	19.35
867.846	15.03
868.016	14.32
868.186	13.63
868.356	17.09
868.526	9.92
868.696	7.06
868.866	2.36
869.036	2.93
869.206	9.46
869.376	5.08
869.545	8.76
869.715	11.45
869.885	9.22
870.055	6.83
870.224	5.63
870.394	7.74
870.564	11.92
870.734	14.6
870.903	14.09
871.073	1.69
871.243	-2.75
871.412	-19.43
871.582	-25.59
871.751	-14.5
871.921	-0.18
872.091	-1.02
872.26	-1.41
872.43	-5.78
872.599	-4.78
872.769	-16.52
872.938	-6.91
873.108	-0.68
873.277	5.51
873.446	13.47
873.616	9.96
873.785	3.68
873.955	3.24
874.124	9.82
874.293	11.27
874.463	7.2
874.632	18.43
874.801	14.12
874.971	12.6
875.14	15.84
875.309	15
875.478	14.64
875.647	13.01
875.817	5.26
875.986	2.99
876.155	5.8
876.324	9.16
876.493	6.13
876.662	7.5
876.831	3.72
877	2.43
877.17	-0.4
877.339	3.84
877.508	2.16
877.677	8.77
877.846	10.63
878.015	4.32
878.184	0.82
878.352	4.52
878.521	1.03
878.69	2.24
878.859	0.09
879.028	-1.25
879.197	-6.15
879.366	-3.08
879.534	-0.37
879.703	-0.23
879.872	3.43
880.041	6.3
880.21	5.22
880.378	10.56
880.547	11.11
880.716	12.84
880.884	14.12
881.053	15.36
881.222	15.42
881.39	14.89
881.559	14.87
881.727	15.9
881.896	15.79
882.065	15.62
882.233	15.33
882.402	15.42
882.57	14.59
882.739	13.98
882.907	14.28
883.076	14.57
883.244	14.42
883.412	14.17
883.581	13.64
883.749	13.77
883.918	13.19
884.086	12.09
884.254	12.49
884.423	12.55
884.591	11.85
884.759	10.62
884.927	9.2
885.096	9.31
885.264	9.5
885.432	9.02
885.6	5.48
885.769	6.93
885.937	8.57
886.105	8.4
886.273	7.65
886.441	11.31
886.609	13.23
886.777	14.1
886.945	10.47
887.113	6.46
887.281	6.66
887.449	11.97
887.617	11.07
887.785	4.98
887.953	2.62
888.121	3.61
888.289	0.14
888.457	-5.49
888.625	-10.05
888.793	-1.52
888.961	4.51
889.129	2.65
889.296	1.89
889.464	1.85
889.632	7.83
889.8	7.54
889.967	7.44
890.135	7.4
