Data from 2938816__Reflection_01.txt Node
Date: Thu Mar 12 15:25:25 EDT 2015
User: robert
Spectrometer: USB4E03002
Autoset integration time: false
Trigger mode: 4
Integration Time (sec): 1.000000E-1
Scans to average: 10
Electric dark correction enabled: false
Nonlinearity correction enabled: false
Boxcar width: 5
Stray light correction enabled: false
XAxis mode: Wavelengths
Stop averaging: false
Number of Pixels in Spectrum: 3648
>>>>>Begin Spectral Data<<<<<
177.575	-1140.48
177.794	-849.23
178.014	-580.65
178.233	-2832.26
178.452	1498.72
178.672	-4077.42
178.891	-691.1
179.11	-690.16
179.33	-861.45
179.549	-1015.54
179.768	-7322.73
179.987	-5482.14
180.207	-930.91
180.426	2314.06
180.645	-1418.56
180.864	-1090.68
181.084	2193.75
181.303	892
181.522	4737.5
181.741	0
181.96	35450
182.179	-5240.74
182.398	-3070
182.618	1611.58
182.837	-2135.14
183.056	-2786.44
183.275	-2585.25
183.494	-4772.73
183.713	2470.49
183.932	1011.03
184.151	793.96
184.37	344.76
184.589	311.11
184.808	250.41
185.027	196.16
185.246	190.47
185.465	156.48
185.684	180.92
185.903	193.98
186.122	227.25
186.341	255.98
186.56	288.1
186.779	367.48
186.998	568.79
187.216	535.09
187.435	896.48
187.654	725.94
187.873	1020.71
188.092	810.13
188.311	557.49
188.53	422.69
188.748	379.84
188.967	396.65
189.186	631.56
189.405	318.39
189.623	308.59
189.842	329.08
190.061	325.99
190.28	365.07
190.498	358.21
190.717	736.75
190.936	1078.33
191.154	696.65
191.373	653.5
191.592	1073.5
191.81	-37566.67
192.029	-767.65
192.248	-463.07
192.466	-323.6
192.685	-420.6
192.904	-404.41
193.122	-327.04
193.341	-332.64
193.559	-347.89
193.778	-290
193.996	-1890.77
194.215	3100
194.433	468.87
194.652	254.84
194.87	243.97
195.089	342.38
195.307	385.85
195.526	307.26
195.744	306.48
195.963	290.17
196.181	315.99
196.399	332.85
196.618	352.95
196.836	440.96
197.055	738.36
197.273	546.35
197.491	405.3
197.71	253.66
197.928	249.77
198.146	248.99
198.365	392.62
198.583	396.06
198.801	434.02
199.019	571.99
199.238	416.2
199.456	306.57
199.674	369.93
199.892	403.18
200.111	508.47
200.329	381.44
200.547	308.48
200.765	267.36
200.983	292.37
201.202	268.51
201.42	237.42
201.638	266.86
201.856	294.5
202.074	250.25
202.292	228.87
202.51	449.28
202.728	537.78
202.946	710.62
203.165	418.5
203.383	373.41
203.601	428.62
203.819	594.88
204.037	529.35
204.255	413.28
204.473	458.65
204.691	1946.97
204.909	410.37
205.127	451.24
205.345	352.46
205.562	263.62
205.78	265.82
205.998	229.48
206.216	212.86
206.434	204.39
206.652	201.55
206.87	207.98
207.088	202.27
207.306	177.27
207.523	162.78
207.741	154.16
207.959	208.95
208.177	205.68
208.395	205.28
208.612	194.87
208.83	216.01
209.048	272.08
209.266	291.03
209.483	188.5
209.701	202.94
209.919	233.83
210.136	288.27
210.354	236.07
210.572	229.65
210.79	218.9
211.007	248.67
211.225	224.62
211.442	188.44
211.66	165.55
211.878	163.85
212.095	131.52
212.313	123.25
212.53	132.99
212.748	133.72
212.966	117.19
213.183	114.04
213.401	100.15
213.618	107.33
213.836	110.57
214.053	116.88
214.271	138.41
214.488	174.72
214.705	169.12
214.923	146.81
215.14	147.4
215.358	160.08
215.575	188.49
215.793	169.6
216.01	161.12
216.227	150.4
216.445	155.79
216.662	135.29
216.879	132.25
217.097	138.34
217.314	151.47
217.531	151.75
217.749	151.46
217.966	128
218.183	143.73
218.4	140.51
218.618	146.3
218.835	131.06
219.052	135.67
219.269	141
219.487	132.95
219.704	126.25
219.921	123.86
220.138	112.31
220.355	108.4
220.572	99.43
220.79	93.94
221.007	91.51
221.224	91.14
221.441	93.24
221.658	85.89
221.875	80.01
222.092	71.55
222.309	73.58
222.526	78.21
222.743	78.93
222.96	72.1
223.177	72.87
223.394	63.97
223.611	64.31
223.828	58.42
224.045	52.06
224.262	52.77
224.479	51.37
224.696	44.47
224.913	42.03
225.13	43.77
225.347	42.76
225.564	43.85
225.781	44.31
225.997	40.48
226.214	35.27
226.431	36.86
226.648	33.39
226.865	31.05
227.082	30.08
227.298	26.43
227.515	24.42
227.732	22.4
227.949	19.57
228.165	18.15
228.382	18.22
228.599	17.75
228.816	16.27
229.032	15.74
229.249	14.66
229.466	14
229.682	14.57
229.899	14.16
230.116	13.96
230.332	14.12
230.549	14.9
230.765	14.26
230.982	14.43
231.199	14.07
231.415	16.12
231.632	17
231.848	16.86
232.065	15.99
232.281	17.14
232.498	17.64
232.714	17.57
232.931	16.94
233.147	18.81
233.364	18.43
233.58	19.64
233.797	18.74
234.013	19.38
234.23	19.8
234.446	19.93
234.662	18.11
234.879	18.87
235.095	18.76
235.312	19.3
235.528	19.53
235.744	19.88
235.961	20.86
236.177	20.28
236.393	20
236.61	20.36
236.826	21
237.042	23.05
237.258	23.9
237.475	23.33
237.691	22.83
237.907	22.27
238.123	23.39
238.339	24.09
238.556	22.99
238.772	21.93
238.988	21.73
239.204	20.54
239.42	20.95
239.636	20.64
239.853	20.33
240.069	19.57
240.285	18.62
240.501	17.05
240.717	15.95
240.933	15.53
241.149	14.56
241.365	14.45
241.581	14.34
241.797	13.69
242.013	12.61
242.229	12.13
242.445	11.42
242.661	11.04
242.877	10.87
243.093	10.07
243.309	9.89
243.525	10.75
243.741	10.8
243.957	10.37
244.173	10
244.388	10.87
244.604	10.9
244.82	11.81
245.036	11.93
245.252	12.02
245.468	12.24
245.683	12.01
245.899	11.26
246.115	10.58
246.331	10.37
246.547	9.91
246.762	9.69
246.978	9.55
247.194	9.26
247.409	9.23
247.625	9.27
247.841	9.28
248.057	9.18
248.272	8.92
248.488	9.04
248.703	9.31
248.919	10.01
249.135	10.04
249.35	10.16
249.566	11.12
249.782	11.5
249.997	11.94
250.213	12.03
250.428	11.92
250.644	12.8
250.859	12.46
251.075	12.67
251.29	12.09
251.506	12.25
251.721	13.12
251.937	12.81
252.152	11.99
252.368	11.96
252.583	11.83
252.798	12.66
253.014	12.89
253.229	13.39
253.445	13.7
253.66	13.79
253.875	13.94
254.091	12.86
254.306	12.65
254.521	13.53
254.737	14.53
254.952	14.42
255.167	13.35
255.383	12.78
255.598	12.89
255.813	12.03
256.028	11.78
256.244	11.88
256.459	12.67
256.674	12.46
256.889	12.46
257.104	11.26
257.32	11.67
257.535	11.35
257.75	11.41
257.965	11
258.18	10.72
258.395	10.3
258.61	9.72
258.826	9.19
259.041	8.63
259.256	8.29
259.471	8.3
259.686	7.99
259.901	8.07
260.116	7.78
260.331	7.52
260.546	7.5
260.761	7.51
260.976	7.57
261.191	7.79
261.406	8.03
261.621	8.05
261.836	8.04
262.05	8.04
262.265	8.56
262.48	8.74
262.695	9.31
262.91	9.51
263.125	9.54
263.34	9.7
263.555	9.75
263.769	9.75
263.984	9.79
264.199	9.86
264.414	9.72
264.629	9.76
264.843	10.47
265.058	10.18
265.273	10.69
265.488	11.18
265.702	10.72
265.917	10.76
266.132	10.73
266.346	10.6
266.561	10.28
266.776	10.33
266.99	9.48
267.205	9.59
267.42	9.65
267.634	9.06
267.849	8.65
268.063	8.67
268.278	8.23
268.492	8.44
268.707	8.42
268.922	7.74
269.136	7.47
269.351	8.02
269.565	6.87
269.78	6.89
269.994	6.71
270.209	6.82
270.423	6.76
270.637	6.83
270.852	6.39
271.066	6.41
271.281	7.07
271.495	7.43
271.709	7.12
271.924	7.42
272.138	7.37
272.353	7.27
272.567	7.03
272.781	7.4
272.996	7.71
273.21	7.74
273.424	7.75
273.638	7.57
273.853	7.89
274.067	8.23
274.281	8.42
274.495	8.21
274.71	8.23
274.924	8.56
275.138	8.22
275.352	8.27
275.566	9.03
275.781	9.07
275.995	9.21
276.209	9.08
276.423	8.48
276.637	8.14
276.851	8.29
277.065	8.74
277.279	8.53
277.493	8.63
277.707	8.31
277.921	7.92
278.135	8.01
278.349	7.97
278.563	7.54
278.777	7.91
278.991	8.4
279.205	8.77
279.419	8.3
279.633	8.45
279.847	8.74
280.061	8.83
280.275	8.35
280.489	7.95
280.703	8.16
280.917	8.17
281.131	7.86
281.344	7.84
281.558	7.1
281.772	7.45
281.986	7.33
282.2	6.69
282.414	6.76
282.627	6.95
282.841	7.13
283.055	6.84
283.269	7.21
283.482	7.57
283.696	7.39
283.91	7.51
284.123	7.13
284.337	7.13
284.551	7.31
284.764	7.24
284.978	7.06
285.192	7.01
285.405	6.78
285.619	6.62
285.833	6.73
286.046	6.66
286.26	6.7
286.473	6.87
286.687	7.04
286.9	7.14
287.114	7.28
287.327	7.39
287.541	7.56
287.754	7.92
287.968	7.75
288.181	7.34
288.395	7.23
288.608	7.26
288.822	7.32
289.035	6.95
289.248	6.73
289.462	6.37
289.675	6.52
289.889	6.57
290.102	6.78
290.315	6.86
290.529	7.08
290.742	7.06
290.955	7.02
291.169	7.16
291.382	7.53
291.595	7.55
291.808	7.75
292.022	7.53
292.235	7.4
292.448	7.53
292.661	7.72
292.875	7.57
293.088	7.66
293.301	8.06
293.514	7.73
293.727	7.38
293.94	7.91
294.153	8.02
294.367	8.42
294.58	8.41
294.793	7.97
295.006	8.01
295.219	8.21
295.432	8.33
295.645	8.09
295.858	8.23
296.071	8.37
296.284	8.12
296.497	8.32
296.71	8.27
296.923	8.07
297.136	8.21
297.349	7.99
297.562	8
297.775	8.06
297.988	8.25
298.201	8.21
298.414	8.25
298.626	8.25
298.839	7.93
299.052	7.89
299.265	8.3
299.478	8.53
299.691	8.86
299.903	8.57
300.116	8.62
300.329	8.73
300.542	8.85
300.755	9.19
300.967	9.37
301.18	9.57
301.393	9.15
301.605	9.03
301.818	9.03
302.031	9.06
302.243	9.57
302.456	10.04
302.669	9.87
302.881	9.98
303.094	9.76
303.307	9.89
303.519	9.93
303.732	10.52
303.944	10.7
304.157	10.53
304.37	10.49
304.582	10.57
304.795	10.33
305.007	10.37
305.22	10.3
305.432	10.43
305.645	10.32
305.857	10.45
306.069	10.51
306.282	10.57
306.494	10.69
306.707	11
306.919	10.95
307.132	10.99
307.344	11
307.556	11.12
307.769	11.09
307.981	10.58
308.193	10.44
308.406	10.37
308.618	10.13
308.83	10.2
309.043	10.07
309.255	9.91
309.467	9.92
309.679	10.13
309.892	10.1
310.104	9.83
310.316	10.38
310.528	10.26
310.74	10.2
310.953	10.54
311.165	10.53
311.377	10.39
311.589	10.13
311.801	9.95
312.013	9.91
312.225	9.89
312.437	10.18
312.649	10.06
312.862	10.54
313.074	10.58
313.286	10.54
313.498	10.53
313.71	10.6
313.922	10.66
314.134	10.89
314.346	10.82
314.558	10.93
314.77	10.83
314.982	10.8
315.193	10.6
315.405	10.67
315.617	10.37
315.829	10.4
316.041	10.34
316.253	10.61
316.465	10.76
316.677	11.3
316.888	11.44
317.1	11.86
317.312	11.76
317.524	11.54
317.736	11.68
317.947	11.92
318.159	11.72
318.371	12.19
318.583	12.48
318.794	12.5
319.006	12.14
319.218	12.37
319.43	12.46
319.641	12.7
319.853	12.66
320.064	12.35
320.276	12.87
320.488	13.48
320.699	13.43
320.911	13.42
321.123	13.41
321.334	13.41
321.546	13.73
321.757	13.43
321.969	13.55
322.18	14.09
322.392	14.71
322.603	14.64
322.815	14.66
323.026	14.62
323.238	14.85
323.449	14.71
323.661	14.41
323.872	14.22
324.083	14.58
324.295	14.38
324.506	14.16
324.718	14.02
324.929	13.82
325.14	13.63
325.352	13.23
325.563	13.45
325.774	13.92
325.986	14.21
326.197	14.02
326.408	13.83
326.62	14.03
326.831	14.3
327.042	14.47
327.253	14.54
327.464	14.18
327.676	14.85
327.887	15.03
328.098	14.63
328.309	15.1
328.52	15.11
328.732	15.42
328.943	15.89
329.154	16.34
329.365	16.43
329.576	16.68
329.787	17.38
329.998	16.98
330.209	16.7
330.42	17.11
330.631	17.12
330.842	17.89
331.053	18.26
331.264	18.31
331.475	18.08
331.686	17.78
331.897	17.71
332.108	17.98
332.319	18.34
332.53	18.55
332.741	18.51
332.952	18.31
333.163	17.74
333.374	17.31
333.585	17.16
333.795	17.15
334.006	17.31
334.217	17.9
334.428	17.72
334.639	17.74
334.849	17.72
335.06	17.89
335.271	18.03
335.482	18.54
335.692	18.84
335.903	18.8
336.114	18.53
336.325	18.5
336.535	18.3
336.746	18.38
336.957	18.34
337.167	18.45
337.378	18.39
337.589	18.34
337.799	18.17
338.01	18.2
338.22	18.36
338.431	18.95
338.642	19.33
338.852	18.71
339.063	18.79
339.273	18.77
339.484	18.75
339.694	18.62
339.905	18.76
340.115	18.42
340.326	18.43
340.536	18.49
340.746	18.08
340.957	17.82
341.167	18.41
341.378	18.31
341.588	18.43
341.799	18.32
342.009	18.5
342.219	18.43
342.43	18.81
342.64	18.47
342.85	18.27
343.061	18
343.271	17.94
343.481	17.65
343.691	17.96
343.902	17.8
344.112	17.86
344.322	17.89
344.532	17.72
344.743	17.76
344.953	18.17
345.163	18.2
345.373	18.26
345.583	18.18
345.793	18.34
346.004	18.18
346.214	18.14
346.424	18.1
346.634	17.97
346.844	17.96
347.054	17.65
347.264	17.42
347.474	17.44
347.684	17.82
347.894	18.1
348.104	18.05
348.314	17.8
348.524	17.81
348.734	17.92
348.944	17.79
349.154	18.02
349.364	18.24
349.574	18.23
349.784	18.08
349.994	18
350.204	17.77
350.413	17.79
350.623	17.79
350.833	17.88
351.043	17.53
351.253	17.62
351.463	17.62
351.672	17.6
351.882	17.49
352.092	17.38
352.302	17.14
352.511	17.45
352.721	17.24
352.931	17.29
353.141	17.06
353.35	17.15
353.56	17.26
353.77	17.06
353.979	16.89
354.189	17.04
354.399	17.42
354.608	17.66
354.818	17.46
355.027	17.53
355.237	17.55
355.447	17.72
355.656	17.65
355.866	17.53
356.075	17.56
356.285	17.58
356.494	17.29
356.704	16.9
356.913	16.6
357.123	16.58
357.332	16.61
357.542	16.65
357.751	16.65
357.96	16.76
358.17	16.8
358.379	16.69
358.589	16.66
358.798	16.91
359.007	17.13
359.217	17.13
359.426	17.1
359.635	17.09
359.845	17
360.054	16.82
360.263	16.59
360.472	16.43
360.682	16.4
360.891	16.4
361.1	16.24
361.309	15.94
361.519	15.87
361.728	15.72
361.937	15.59
362.146	15.53
362.355	15.66
362.564	15.83
362.774	15.93
362.983	15.82
363.192	15.7
363.401	15.68
363.61	15.78
363.819	16.19
364.028	16.3
364.237	16.53
364.446	16.65
364.655	16.61
364.864	16.42
365.073	16.63
365.282	16.97
365.491	16.94
365.7	16.85
365.909	17.23
366.118	16.9
366.327	17.04
366.536	16.85
366.745	16.91
366.954	16.76
367.162	16.77
367.371	16.6
367.58	16.35
367.789	16.28
367.998	16.35
368.207	16.1
368.415	15.96
368.624	15.94
368.833	16.17
369.042	16
369.25	16.27
369.459	16.41
369.668	16.36
369.877	16.28
370.085	16.4
370.294	16.28
370.503	16.36
370.711	16.34
370.92	16.11
371.129	15.8
371.337	15.68
371.546	15.45
371.754	15.26
371.963	15.12
372.171	15.23
372.38	15.23
372.589	15.19
372.797	15.03
373.006	15.13
373.214	15.26
373.423	15.4
373.631	15.35
373.84	15.27
374.048	15.39
374.256	15.32
374.465	15.07
374.673	14.91
374.882	14.91
375.09	15
375.298	14.93
375.507	14.8
375.715	14.75
375.923	14.57
376.132	14.47
376.34	14.3
376.548	14.25
376.757	14.49
376.965	14.72
377.173	14.67
377.381	14.58
377.59	14.58
377.798	14.43
378.006	14.05
378.214	14.02
378.423	14.13
378.631	14.09
378.839	13.79
379.047	13.6
379.255	13.27
379.463	13.04
379.671	12.88
379.879	12.82
380.088	12.6
380.296	12.81
380.504	13.04
380.712	12.79
380.92	12.86
381.128	12.96
381.336	12.72
381.544	12.74
381.752	12.97
381.96	12.85
382.168	13.01
382.376	13.3
382.584	13.26
382.791	12.93
382.999	12.94
383.207	13.06
383.415	13.51
383.623	13.52
383.831	13.42
384.039	13.38
384.247	13.42
384.454	13.19
384.662	12.92
384.87	12.88
385.078	12.97
385.285	13.13
385.493	12.68
385.701	12.37
385.909	12.64
386.116	12.81
386.324	12.62
386.532	12.53
386.739	12.66
386.947	12.74
387.155	12.88
387.362	12.81
387.57	12.51
387.778	12.47
387.985	12.43
388.193	12.46
388.4	12.26
388.608	12.5
388.816	12.44
389.023	12.04
389.231	11.96
389.438	11.79
389.646	11.8
389.853	12.06
390.061	12.12
390.268	12.07
390.475	11.57
390.683	11.54
390.89	11.29
391.098	11.45
391.305	11.54
391.512	11.6
391.72	11.52
391.927	11.47
392.135	11.2
392.342	11.24
392.549	11.29
392.756	11.43
392.964	11.23
393.171	11.23
393.378	10.86
393.586	10.8
393.793	10.85
394	10.8
394.207	10.88
394.414	11.05
394.622	10.97
394.829	10.89
395.036	10.95
395.243	11.02
395.45	11
395.657	11.22
395.864	11.3
396.072	11
396.279	10.95
396.486	10.83
396.693	10.5
396.9	10.29
397.107	10.02
397.314	10.03
397.521	10.06
397.728	9.93
397.935	9.8
398.142	9.67
398.349	9.7
398.556	9.76
398.763	9.75
398.97	9.92
399.177	10.12
399.383	10.27
399.59	10.18
399.797	10.28
400.004	10.39
400.211	10.29
400.418	10.34
400.625	10.52
400.831	10.41
401.038	10.47
401.245	10.46
401.452	10.4
401.658	10.32
401.865	10.24
402.072	10.25
402.279	10.27
402.485	10.57
402.692	10.46
402.899	10.37
403.105	10.41
403.312	10.3
403.519	10.21
403.725	10.35
403.932	10.46
404.138	10.43
404.345	10.22
404.552	10.06
404.758	9.87
404.965	9.89
405.171	9.81
405.378	9.86
405.584	9.93
405.791	9.84
405.997	9.58
406.204	9.42
406.41	9.32
406.617	9.26
406.823	9.3
407.029	9.23
407.236	9.18
407.442	9.16
407.649	8.81
407.855	8.62
408.061	8.71
408.268	8.89
408.474	9.14
408.68	9.43
408.887	9.44
409.093	9.42
409.299	9.38
409.505	9.19
409.712	9.22
409.918	9.51
410.124	9.63
410.33	9.58
410.537	9.65
410.743	9.38
410.949	9.12
411.155	9.27
411.361	9.23
411.567	9.36
411.773	9.57
411.98	9.63
412.186	9.44
412.392	9.28
412.598	9.24
412.804	8.84
413.01	8.78
413.216	8.86
413.422	8.81
413.628	8.83
413.834	8.6
414.04	8.57
414.246	8.37
414.452	8.42
414.658	8.55
414.864	8.58
415.07	8.8
415.275	8.84
415.481	8.8
415.687	8.8
415.893	8.77
416.099	8.77
416.305	8.77
416.511	8.74
416.716	8.76
416.922	8.73
417.128	8.66
417.334	8.58
417.539	8.5
417.745	8.44
417.951	8.26
418.157	8.15
418.362	8.12
418.568	8.04
418.774	7.99
418.979	7.87
419.185	7.82
419.391	7.75
419.596	7.72
419.802	7.71
420.008	7.62
420.213	7.74
420.419	7.84
420.624	7.84
420.83	7.85
421.035	7.84
421.241	7.82
421.446	7.77
421.652	7.81
421.857	7.73
422.063	7.8
422.268	7.79
422.474	7.66
422.679	7.55
422.885	7.5
423.09	7.47
423.295	7.48
423.501	7.5
423.706	7.48
423.911	7.38
424.117	7.47
424.322	7.36
424.527	7.42
424.733	7.39
424.938	7.41
425.143	7.45
425.349	7.44
425.554	7.38
425.759	7.45
425.964	7.47
426.169	7.53
426.375	7.5
426.58	7.42
426.785	7.35
426.99	7.44
427.195	7.41
427.4	7.32
427.605	7.39
427.811	7.52
428.016	7.4
428.221	7.48
428.426	7.49
428.631	7.44
428.836	7.5
429.041	7.54
429.246	7.62
429.451	7.65
429.656	7.69
429.861	7.6
430.066	7.58
430.271	7.63
430.476	7.45
430.681	7.48
430.886	7.49
431.09	7.54
431.295	7.54
431.5	7.4
431.705	7.45
431.91	7.41
432.115	7.45
432.32	7.47
432.524	7.44
432.729	7.51
432.934	7.57
433.139	7.63
433.343	7.65
433.548	7.68
433.753	7.72
433.958	7.72
434.162	7.69
434.367	7.59
434.572	7.54
434.776	7.49
434.981	7.35
435.186	7.26
435.39	7.2
435.595	7.19
435.799	7.19
436.004	7.26
436.209	7.2
436.413	7.36
436.618	7.48
436.822	7.47
437.027	7.51
437.231	7.61
437.436	7.64
437.64	7.64
437.845	7.65
438.049	7.65
438.253	7.59
438.458	7.52
438.662	7.49
438.867	7.38
439.071	7.32
439.275	7.31
439.48	7.31
439.684	7.34
439.888	7.29
440.093	7.29
440.297	7.21
440.501	7.24
440.706	7.26
440.91	7.23
441.114	7.24
441.318	7.25
441.523	7.34
441.727	7.35
441.931	7.27
442.135	7.24
442.339	7.08
442.543	7.2
442.748	7.03
442.952	7.09
443.156	6.97
443.36	7.05
443.564	7.1
443.768	6.94
443.972	6.94
444.176	6.89
444.38	6.95
444.584	7.11
444.788	7.07
444.992	7.19
445.196	7.09
445.4	7.19
445.604	7.16
445.808	7.14
446.012	7.18
446.216	7.16
446.42	7.21
446.624	7.2
446.828	7.14
447.032	7.05
447.235	6.98
447.439	7.03
447.643	6.93
447.847	6.9
448.051	6.88
448.254	6.9
448.458	6.85
448.662	6.84
448.866	6.86
449.069	6.89
449.273	6.93
449.477	7.05
449.681	7.06
449.884	7.06
450.088	7.12
450.292	7.17
450.495	7.22
450.699	7.22
450.902	7.16
451.106	7.1
451.31	7.07
451.513	7.09
451.717	7.04
451.92	7
452.124	7.1
452.327	7.04
452.531	6.98
452.734	6.96
452.938	6.83
453.141	6.85
453.345	6.86
453.548	6.84
453.752	6.87
453.955	6.9
454.158	6.94
454.362	6.96
454.565	6.91
454.769	6.96
454.972	6.94
455.175	7.1
455.379	7.12
455.582	7.16
455.785	7.13
455.988	7.06
456.192	6.93
456.395	6.86
456.598	6.8
456.801	6.85
457.005	6.74
457.208	6.79
457.411	6.82
457.614	6.72
457.817	6.76
458.021	6.75
458.224	6.89
458.427	6.99
458.63	7.03
458.833	7.03
459.036	7.01
459.239	7
459.442	6.91
459.645	6.86
459.848	6.91
460.051	6.93
460.254	6.95
460.457	6.87
460.66	6.77
460.863	6.67
461.066	6.7
461.269	6.63
461.472	6.68
461.675	6.67
461.878	6.72
462.081	6.76
462.284	6.66
462.486	6.66
462.689	6.6
462.892	6.64
463.095	6.78
463.298	6.77
463.5	6.78
463.703	6.9
463.906	6.97
464.109	6.91
464.311	6.96
464.514	6.94
464.717	7
464.92	7.03
465.122	7.15
465.325	7.18
465.528	7.14
465.73	7.26
465.933	7.13
466.135	7.19
466.338	7.26
466.541	7.17
466.743	7.14
466.946	7.03
467.148	7.09
467.351	7.07
467.553	7.08
467.756	7.09
467.958	7
468.161	6.95
468.363	6.88
468.566	6.8
468.768	6.93
468.971	6.96
469.173	7.03
469.375	7.03
469.578	7.02
469.78	6.89
469.983	6.93
470.185	6.98
470.387	7.13
470.59	7.07
470.792	7.12
470.994	7.11
471.196	7.14
471.399	7.15
471.601	7.09
471.803	7.13
472.005	7.21
472.208	7.12
472.41	7.09
472.612	6.98
472.814	7.14
473.016	7.22
473.218	7.15
473.421	7.15
473.623	7.1
473.825	7.07
474.027	6.99
474.229	7.07
474.431	7.22
474.633	7.3
474.835	7.26
475.037	7.21
475.239	7.14
475.441	7.2
475.643	7.26
475.845	7.35
476.047	7.43
476.249	7.39
476.451	7.35
476.653	7.32
476.855	7.28
477.057	7.29
477.258	7.2
477.46	7.11
477.662	7.02
477.864	6.97
478.066	6.85
478.268	6.8
478.469	6.82
478.671	6.73
478.873	6.71
479.075	6.77
479.276	6.77
479.478	6.82
479.68	6.86
479.882	6.94
480.083	6.9
480.285	6.95
480.487	6.99
480.688	6.97
480.89	7.04
481.091	6.99
481.293	6.94
481.495	6.89
481.696	6.88
481.898	6.85
482.099	6.74
482.301	6.72
482.502	6.68
482.704	6.61
482.905	6.62
483.107	6.56
483.308	6.52
483.51	6.5
483.711	6.47
483.913	6.44
484.114	6.44
484.315	6.44
484.517	6.44
484.718	6.45
484.92	6.44
485.121	6.41
485.322	6.41
485.524	6.43
485.725	6.4
485.926	6.43
486.127	6.43
486.329	6.4
486.53	6.41
486.731	6.41
486.932	6.38
487.134	6.4
487.335	6.4
487.536	6.4
487.737	6.38
487.938	6.39
488.139	6.38
488.341	6.34
488.542	6.39
488.743	6.36
488.944	6.34
489.145	6.36
489.346	6.3
489.547	6.31
489.748	6.31
489.949	6.35
490.15	6.39
490.351	6.39
490.552	6.49
490.753	6.46
490.954	6.53
491.155	6.56
491.356	6.61
491.557	6.7
491.758	6.72
491.959	6.71
492.159	6.73
492.36	6.73
492.561	6.76
492.762	6.79
492.963	6.8
493.164	6.79
493.364	6.81
493.565	6.82
493.766	6.8
493.967	6.84
494.167	6.96
494.368	7.02
494.569	7.01
494.769	6.96
494.97	6.95
495.171	7.07
495.371	7.12
495.572	7.2
495.773	7.16
495.973	7.2
496.174	7.26
496.375	7.28
496.575	7.26
496.776	7.34
496.976	7.44
497.177	7.42
497.377	7.42
497.578	7.4
497.778	7.36
497.979	7.4
498.179	7.5
498.38	7.46
498.58	7.48
498.78	7.5
498.981	7.52
499.181	7.57
499.382	7.67
499.582	7.68
499.782	7.74
499.983	7.83
500.183	7.9
500.383	7.84
500.584	7.91
500.784	8
500.984	8.1
501.184	8
501.385	8.11
501.585	8.13
501.785	8.22
501.985	8.33
502.185	8.35
502.386	8.35
502.586	8.4
502.786	8.4
502.986	8.47
503.186	8.52
503.386	8.61
503.586	8.56
503.786	8.61
503.987	8.64
504.187	8.63
504.387	8.66
504.587	8.73
504.787	8.81
504.987	8.89
505.187	8.85
505.387	8.81
505.587	8.94
505.786	8.96
505.986	8.92
506.186	8.93
506.386	8.97
506.586	9.03
506.786	9.09
506.986	9.13
507.186	9.19
507.386	9.22
507.585	9.37
507.785	9.45
507.985	9.54
508.185	9.69
508.384	9.79
508.584	9.88
508.784	9.9
508.984	9.88
509.183	9.98
509.383	10.1
509.583	10.12
509.782	10.07
509.982	10.17
510.182	10.18
510.381	10.21
510.581	10.31
510.781	10.4
510.98	10.51
511.18	10.7
511.379	10.65
511.579	10.62
511.778	10.81
511.978	10.97
512.177	11
512.377	11.16
512.576	11.15
512.776	11.18
512.975	11.2
513.175	11.33
513.374	11.39
513.573	11.59
513.773	11.75
513.972	11.84
514.172	11.88
514.371	11.87
514.57	11.95
514.77	12.14
514.969	12.21
515.168	12.25
515.367	12.27
515.567	12.38
515.766	12.42
515.965	12.51
516.164	12.53
516.364	12.7
516.563	12.83
516.762	12.86
516.961	12.95
517.16	13.08
517.359	13.11
517.559	13.17
517.758	13.12
517.957	13.24
518.156	13.26
518.355	13.38
518.554	13.37
518.753	13.47
518.952	13.54
519.151	13.59
519.35	13.63
519.549	13.75
519.748	13.81
519.947	13.98
520.146	13.97
520.345	14.05
520.544	14.12
520.743	14.21
520.942	14.3
521.141	14.44
521.339	14.57
521.538	14.64
521.737	14.74
521.936	14.86
522.135	14.97
522.333	15.05
522.532	15.19
522.731	15.22
522.93	15.37
523.129	15.52
523.327	15.53
523.526	15.61
523.725	15.76
523.923	15.87
524.122	15.97
524.321	15.99
524.519	16.05
524.718	16.05
524.917	16.11
525.115	16.17
525.314	16.19
525.512	16.29
525.711	16.37
525.909	16.39
526.108	16.51
526.306	16.57
526.505	16.6
526.703	16.74
526.902	16.8
527.1	16.85
527.299	16.91
527.497	16.95
527.696	16.96
527.894	16.98
528.092	17.04
528.291	17.01
528.489	17.04
528.688	17.09
528.886	17.07
529.084	17.12
529.283	17.17
529.481	17.16
529.679	17.21
529.877	17.26
530.076	17.29
530.274	17.35
530.472	17.44
530.67	17.51
530.869	17.64
531.067	17.76
531.265	17.86
531.463	17.96
531.661	18.11
531.859	18.21
532.057	18.25
532.255	18.32
532.454	18.37
532.652	18.43
532.85	18.53
533.048	18.53
533.246	18.58
533.444	18.59
533.642	18.66
533.84	18.72
534.038	18.77
534.236	18.92
534.434	19
534.632	19.04
534.83	19.11
535.027	19.21
535.225	19.33
535.423	19.41
535.621	19.56
535.819	19.66
536.017	19.69
536.215	19.77
536.412	19.81
536.61	19.89
536.808	19.99
537.006	20.05
537.203	20.02
537.401	20.13
537.599	20.24
537.797	20.31
537.994	20.27
538.192	20.38
538.39	20.45
538.587	20.51
538.785	20.67
538.983	20.82
539.18	20.88
539.378	20.97
539.575	20.99
539.773	21.01
539.97	21.05
540.168	21.2
540.366	21.27
540.563	21.35
540.761	21.34
540.958	21.33
541.155	21.35
541.353	21.44
541.55	21.5
541.748	21.51
541.945	21.62
542.143	21.68
542.34	21.73
542.537	21.78
542.735	21.84
542.932	21.98
543.129	22.13
543.327	22.18
543.524	22.27
543.721	22.42
543.919	22.6
544.116	22.62
544.313	22.79
544.51	22.93
544.708	23.11
544.905	23.21
545.102	23.37
545.299	23.48
545.496	23.61
545.693	23.78
545.891	23.82
546.088	23.86
546.285	23.97
546.482	23.95
546.679	23.91
546.876	23.88
547.073	23.9
547.27	23.88
547.467	23.87
547.664	23.91
547.861	23.79
548.058	23.72
548.255	23.79
548.452	23.79
548.649	23.92
548.846	23.97
549.043	24.11
549.24	24.15
549.437	24.15
549.633	24.23
549.83	24.37
550.027	24.5
550.224	24.65
550.421	24.75
550.618	24.8
550.814	24.75
551.011	24.84
551.208	24.78
551.405	24.81
551.601	24.97
551.798	25.03
551.995	24.97
552.191	24.97
552.388	25.01
552.585	24.99
552.781	25.1
552.978	25.2
553.175	25.29
553.371	25.35
553.568	25.4
553.764	25.41
553.961	25.49
554.157	25.59
554.354	25.72
554.55	25.79
554.747	25.99
554.943	25.96
555.14	25.99
555.336	25.96
555.533	25.97
555.729	26.02
555.926	25.96
556.122	26.08
556.318	26.05
556.515	26.07
556.711	26.03
556.907	25.96
557.104	25.97
557.3	26.05
557.496	26.2
557.693	26.3
557.889	26.39
558.085	26.52
558.281	26.5
558.478	26.67
558.674	26.79
558.87	26.98
559.066	27.08
559.262	27.24
559.459	27.22
559.655	27.13
559.851	27.19
560.047	27.21
560.243	27.25
560.439	27.23
560.635	27.12
560.831	27.15
561.027	27.1
561.223	27.12
561.419	27.1
561.615	27.17
561.811	27.21
562.007	27.2
562.203	27.26
562.399	27.35
562.595	27.34
562.791	27.46
562.987	27.49
563.183	27.6
563.379	27.59
563.575	27.67
563.771	27.72
563.966	27.69
564.162	27.7
564.358	27.79
564.554	27.73
564.75	27.86
564.945	27.88
565.141	27.94
565.337	28.03
565.533	28.03
565.728	28.04
565.924	28.04
566.12	28.25
566.315	28.38
566.511	28.36
566.707	28.39
566.902	28.32
567.098	28.4
567.293	28.41
567.489	28.34
567.684	28.35
567.88	28.42
568.076	28.48
568.271	28.46
568.467	28.51
568.662	28.56
568.858	28.73
569.053	28.72
569.248	28.69
569.444	28.73
569.639	28.79
569.835	28.89
570.03	28.86
570.225	28.94
570.421	28.89
570.616	28.93
570.812	28.97
571.007	28.81
571.202	28.92
571.397	28.84
571.593	28.96
571.788	28.97
571.983	28.94
572.178	28.94
572.374	28.92
572.569	28.95
572.764	29
572.959	28.92
573.154	29.2
573.35	29.22
573.545	29.4
573.74	29.26
573.935	29.29
574.13	29.42
574.325	29.47
574.52	29.65
574.715	29.66
574.91	29.57
575.105	29.65
575.3	29.48
575.495	29.54
575.69	29.5
575.885	29.56
576.08	29.64
576.275	29.75
576.47	29.92
576.665	29.9
576.86	30.06
577.055	30.16
577.25	30.34
577.444	30.38
577.639	30.48
577.834	30.64
578.029	30.68
578.224	30.65
578.418	30.6
578.613	30.6
578.808	30.6
579.003	30.57
579.197	30.55
579.392	30.64
579.587	30.78
579.781	30.75
579.976	30.8
580.171	30.91
580.365	31.14
580.56	31.26
580.755	31.35
580.949	31.44
581.144	31.44
581.338	31.45
581.533	31.29
581.727	31.37
581.922	31.34
582.116	31.26
582.311	31.24
582.505	31.17
582.7	31.12
582.894	31.08
583.089	31.13
583.283	31.25
583.478	31.31
583.672	31.47
583.866	31.53
584.061	31.59
584.255	31.68
584.449	31.7
584.644	31.65
584.838	31.73
585.032	31.75
585.226	31.59
585.421	31.63
585.615	31.77
585.809	31.72
586.003	31.64
586.198	31.62
586.392	31.78
586.586	31.72
586.78	31.85
586.974	31.73
587.168	31.76
587.363	31.85
587.557	31.82
587.751	31.74
587.945	31.71
588.139	31.75
588.333	31.7
588.527	31.75
588.721	31.8
588.915	31.75
589.109	31.72
589.303	31.72
589.497	31.79
589.691	31.77
589.885	31.69
590.079	31.75
590.273	31.82
590.466	32.02
590.66	31.95
590.854	32.1
591.048	32.06
591.242	32.08
591.436	32.02
591.629	32.04
591.823	32.21
592.017	32.39
592.211	32.44
592.404	32.39
592.598	32.3
592.792	32.26
592.986	32.3
593.179	32.39
593.373	32.52
593.567	32.71
593.76	32.64
593.954	32.5
594.147	32.57
594.341	32.46
594.535	32.39
594.728	32.41
594.922	32.33
595.115	32.27
595.309	32.22
595.502	32.14
595.696	32.11
595.889	32.08
596.083	32.12
596.276	32.04
596.47	32.07
596.663	32.17
596.856	32.09
597.05	32.17
597.243	32.12
597.437	32.09
597.63	32.17
597.823	32.09
598.017	32.1
598.21	32.16
598.403	32.28
598.596	32.43
598.79	32.21
598.983	32.34
599.176	32.38
599.369	32.38
599.563	32.48
599.756	32.52
599.949	32.49
600.142	32.63
600.335	32.58
600.528	32.44
600.722	32.59
600.915	32.81
601.108	32.87
601.301	33.1
601.494	33.02
601.687	32.89
601.88	32.83
602.073	32.75
602.266	32.57
602.459	32.51
602.652	32.44
602.845	32.25
603.038	32.25
603.231	32.16
603.424	31.89
603.617	31.87
603.809	31.91
604.002	32
604.195	32.1
604.388	32.15
604.581	32.16
604.774	32.31
604.966	32.24
605.159	32.29
605.352	32.35
605.545	32.41
605.737	32.66
605.93	32.66
606.123	32.64
606.316	32.66
606.508	32.73
606.701	32.85
606.894	32.77
607.086	33.01
607.279	32.95
607.471	33.03
607.664	33.29
607.857	33.32
608.049	33.52
608.242	33.57
608.434	33.85
608.627	34.11
608.819	34.31
609.012	34.63
609.204	34.99
609.397	35.32
609.589	35.62
609.782	35.84
609.974	36.23
610.166	36.74
610.359	37.33
610.551	37.66
610.743	37.87
610.936	38.18
611.128	38.38
611.32	38.45
611.513	38.73
611.705	38.74
611.897	38.97
612.09	38.91
612.282	38.62
612.474	38.27
612.666	37.96
612.858	37.89
613.051	37.72
613.243	37.49
613.435	37.31
613.627	37.05
613.819	37.1
614.011	36.74
614.203	36.56
614.395	36.48
614.588	36.41
614.78	36.19
614.972	35.91
615.164	35.84
615.356	35.69
615.548	35.38
615.74	35.36
615.932	35.08
616.124	34.94
616.315	34.86
616.507	34.91
616.699	34.78
616.891	35.01
617.083	35.01
617.275	34.77
617.467	34.71
617.659	34.86
617.85	34.7
618.042	34.7
618.234	34.5
618.426	34.42
618.618	34.36
618.809	34.28
619.001	34.07
619.193	34.24
619.384	34.4
619.576	34.32
619.768	34.18
619.959	34.14
620.151	34.17
620.343	34.32
620.534	34.5
620.726	34.37
620.917	34.47
621.109	34.48
621.301	34.39
621.492	34.29
621.684	34.46
621.875	34.59
622.067	34.48
622.258	34.38
622.45	34.49
622.641	34.34
622.832	34.32
623.024	34.22
623.215	34.31
623.407	34.11
623.598	34.18
623.789	34.05
623.981	33.92
624.172	34.06
624.363	34.2
624.555	33.98
624.746	33.88
624.937	33.83
625.129	33.88
625.32	33.69
625.511	33.8
625.702	33.79
625.893	33.98
626.085	34.14
626.276	34.14
626.467	34.11
626.658	34.34
626.849	34.43
627.04	34.54
627.231	34.62
627.422	34.88
627.614	34.8
627.805	34.79
627.996	34.72
628.187	34.67
628.378	34.6
628.569	34.68
628.76	34.55
628.951	34.57
629.142	34.61
629.332	34.7
629.523	34.74
629.714	34.99
629.905	35.17
630.096	35.21
630.287	35.23
630.478	35.24
630.669	35.13
630.859	35.26
631.05	35.27
631.241	35.32
631.432	35.31
631.623	35.23
631.813	35.14
632.004	35.09
632.195	35.06
632.385	34.85
632.576	34.89
632.767	34.98
632.957	34.89
633.148	34.83
633.339	34.73
633.529	34.41
633.72	34.32
633.91	34.27
634.101	34.29
634.292	34.19
634.482	34.23
634.673	34.45
634.863	34.36
635.054	34.34
635.244	34.29
635.435	34.15
635.625	34.2
635.815	34.26
636.006	34.09
636.196	34.11
636.387	34.27
636.577	34.39
636.767	34.14
636.958	34.11
637.148	34.29
637.338	34.5
637.529	34.81
637.719	35.05
637.909	34.78
638.099	34.91
638.29	34.89
638.48	34.85
638.67	34.94
638.86	35.07
639.05	34.87
639.241	34.73
639.431	34.5
639.621	34.27
639.811	34.18
640.001	34.4
640.191	34.56
640.381	34.49
640.571	34.39
640.761	34.36
640.951	34.43
641.141	34.58
641.331	34.53
641.521	35.01
641.711	35.26
641.901	35.24
642.091	35.13
642.281	35.02
642.471	34.92
642.661	34.98
642.851	35.19
643.041	35.12
643.231	35.13
643.42	35.26
643.61	34.69
643.8	34.54
643.99	34.72
644.18	35.05
644.369	35.16
644.559	35.36
644.749	35.09
644.939	35.03
645.128	34.92
645.318	35.03
645.508	35.06
645.697	35.1
645.887	34.91
646.076	34.65
646.266	34.46
646.456	34.34
646.645	34.42
646.835	34.75
647.024	34.59
647.214	34.49
647.403	34.43
647.593	34.44
647.782	34.8
647.972	35.01
648.161	35.16
648.351	34.92
648.54	35.01
648.73	34.76
648.919	34.73
649.108	34.73
649.298	34.95
649.487	34.89
649.677	34.78
649.866	34.68
650.055	34.7
650.244	34.8
650.434	35.02
650.623	35
650.812	35.18
651.002	34.88
651.191	34.81
651.38	34.84
651.569	34.98
651.758	34.82
651.947	34.83
652.137	34.72
652.326	34.62
652.515	34.74
652.704	34.68
652.893	34.73
653.082	35.08
653.271	35.17
653.46	35.22
653.649	35.27
653.838	35.59
654.027	35.63
654.216	35.95
654.405	35.94
654.594	35.83
654.783	35.96
654.972	36.06
655.161	36.07
655.35	35.88
655.539	35.75
655.728	35.76
655.916	35.56
656.105	35.64
656.294	35.12
656.483	35.06
656.672	35.12
656.86	35.06
657.049	34.77
657.238	34.62
657.427	34.63
657.615	34.53
657.804	34.25
657.993	34.33
658.181	34.06
658.37	34.28
658.559	34.28
658.747	34.29
658.936	34.22
659.125	34.47
659.313	34.48
659.502	34.69
659.69	34.88
659.879	35.03
660.067	35.02
660.256	35.17
660.444	35.14
660.633	35.23
660.821	35.07
661.01	35.08
661.198	34.69
661.387	34.74
661.575	34.67
661.763	34.58
661.952	34.66
662.14	34.64
662.328	34.73
662.517	35.01
662.705	34.84
662.893	34.94
663.082	35.26
663.27	35.63
663.458	35.67
663.646	35.8
663.834	35.87
664.023	36.12
664.211	35.95
664.399	35.56
664.587	35.54
664.775	35.71
664.963	36.04
665.152	35.87
665.34	35.72
665.528	35.74
665.716	35.56
665.904	35.49
666.092	35.2
666.28	35.41
666.468	35.61
666.656	35.56
666.844	35.63
667.032	35.3
667.22	35.38
667.408	35.19
667.596	35.16
667.784	35.19
667.971	35.37
668.159	35.44
668.347	35.34
668.535	35.62
668.723	35.39
668.911	35.54
669.098	35.63
669.286	35.76
669.474	35.72
669.662	35.79
669.849	36.09
670.037	35.98
670.225	36.01
670.413	36.18
670.6	36.04
670.788	35.95
670.976	35.83
671.163	35.72
671.351	35.48
671.538	35.34
671.726	35.61
671.913	35.34
672.101	35.51
672.289	35.5
672.476	35.53
672.664	35.52
672.851	35.73
673.039	35.63
673.226	35.68
673.413	35.59
673.601	36.08
673.788	35.82
673.976	35.86
674.163	35.58
674.35	35.56
674.538	35.47
674.725	35.44
674.912	35.55
675.1	35.29
675.287	35.38
675.474	35.56
675.662	35.45
675.849	35.61
676.036	35.62
676.223	35.84
676.411	35.9
676.598	35.96
676.785	36.03
676.972	35.88
677.159	36.29
677.346	36.21
677.533	36.25
677.721	36.25
677.908	35.94
678.095	35.78
678.282	35.56
678.469	35.3
678.656	35.27
678.843	35.08
679.03	35.19
679.217	35.08
679.404	34.86
679.591	34.81
679.778	34.74
679.964	34.87
680.151	34.83
680.338	34.91
680.525	35.23
680.712	35.15
680.899	35.3
681.086	35.07
681.272	35.06
681.459	35.1
681.646	35.09
681.833	35.22
682.02	35.08
682.206	35.22
682.393	35.39
682.58	35.19
682.766	35.41
682.953	35.39
683.14	35.76
683.326	36.1
683.513	36.19
683.7	36.33
683.886	36.05
684.073	36.14
684.259	36.09
684.446	36.12
684.632	36.21
684.819	36.07
685.005	35.83
685.192	35.8
685.378	35.68
685.565	35.78
685.751	35.46
685.938	35.67
686.124	35.9
686.31	36.09
686.497	35.88
686.683	35.82
686.87	35.53
687.056	35.5
687.242	35.4
687.429	35.29
687.615	34.93
687.801	35.33
687.987	35.22
688.174	35.17
688.36	35.15
688.546	35.19
688.732	35.11
688.918	35.59
689.105	36.04
689.291	35.78
689.477	35.76
689.663	36.29
689.849	35.92
690.035	36.25
690.221	36.09
690.407	36.08
690.593	36.04
690.779	36.18
690.965	35.82
691.151	35.54
691.337	36.12
691.523	35.76
691.709	35.52
691.895	35.76
692.081	35.71
692.267	36.04
692.453	36
692.639	35.95
692.825	36.04
693.011	36.19
693.196	36.31
693.382	36.1
693.568	36.38
693.754	36.64
693.94	36.64
694.125	36.59
694.311	36.45
694.497	36.38
694.682	36.44
694.868	36.17
695.054	36.05
695.239	36.12
695.425	36.06
695.611	36.09
695.796	36.18
695.982	36.12
696.168	35.7
696.353	35.6
696.539	35.42
696.724	35.41
696.91	35.56
697.095	35.66
697.281	35.48
697.466	35.3
697.652	35.24
697.837	35.24
698.023	35.21
698.208	35.34
698.393	35.48
698.579	35.66
698.764	35.5
698.949	35.48
699.135	35.63
699.32	35.64
699.505	35.56
699.691	35.32
699.876	35
700.061	34.86
700.246	34.97
700.432	34.8
700.617	34.44
700.802	34.62
700.987	34.64
701.172	34.69
701.358	34.77
701.543	35.13
701.728	35.59
701.913	36.01
702.098	36.65
702.283	36.47
702.468	36.74
702.653	37.35
702.838	37.43
703.023	37.65
703.208	37.33
703.393	37.53
703.578	37.74
703.763	37.79
703.948	37.7
704.133	37.09
704.318	37.67
704.503	37.57
704.688	37.44
704.873	37.17
705.057	37.41
705.242	37.56
705.427	37.53
705.612	37.64
705.797	37.88
705.981	37.99
706.166	38.31
706.351	38.4
706.536	38.26
706.72	38.26
706.905	38.57
707.09	38.33
707.274	38.07
707.459	37.95
707.644	37.78
707.828	37.6
708.013	37.49
708.197	37.39
708.382	36.98
708.567	36.83
708.751	37.04
708.936	37.12
709.12	37.15
709.305	37.21
709.489	37.29
709.673	36.93
709.858	37.07
710.042	37.05
710.227	36.79
710.411	36.68
710.596	36.83
710.78	36.91
710.964	36.96
711.149	36.97
711.333	36.97
711.517	36.76
711.702	36.79
711.886	36.57
712.07	36.55
712.254	36.97
712.438	36.75
712.623	36.98
712.807	36.45
712.991	36.28
713.175	36.18
713.359	36.6
713.544	36.59
713.728	36.85
713.912	37.14
714.096	37.37
714.28	37.03
714.464	37.12
714.648	36.43
714.832	36.79
715.016	37.05
715.2	36.69
715.384	36.46
715.568	36.67
715.752	36.7
715.936	36.87
716.12	36.65
716.304	36.7
716.488	36.66
716.671	37.16
716.855	37.28
717.039	37.01
717.223	37.26
717.407	37.08
717.59	37.21
717.774	36.86
717.958	36.36
718.142	36.01
718.325	35.75
718.509	36.09
718.693	36.17
718.877	35.55
719.06	35.41
719.244	35.68
719.428	35.79
719.611	35.34
719.795	36.03
719.978	36.27
720.162	36.5
720.345	36.91
720.529	36.65
720.713	36.23
720.896	36.2
721.08	36.67
721.263	36.34
721.446	36.87
721.63	37.04
721.813	36.32
721.997	35.72
722.18	36.08
722.364	35.58
722.547	35.58
722.73	35.94
722.914	36.55
723.097	36.38
723.28	36.42
723.464	36.55
723.647	36.7
723.83	36.94
724.013	37.63
724.197	37.29
724.38	37.75
724.563	37.75
724.746	37.51
724.929	37.7
725.112	37.7
725.296	37.63
725.479	37.09
725.662	36.94
725.845	36.95
726.028	36.93
726.211	36.97
726.394	36.62
726.577	36.63
726.76	37.07
726.943	36.86
727.126	37.02
727.309	37.3
727.492	37.61
727.675	37.66
727.858	37.4
728.041	37.1
728.224	37.23
728.407	38.21
728.589	38.68
728.772	38.43
728.955	38.1
729.138	37.76
729.321	37.33
729.503	37.25
729.686	37.41
729.869	37.34
730.052	37.46
730.234	37.12
730.417	36.09
730.6	35.68
730.782	35.76
730.965	35.9
731.148	36
731.33	36.32
731.513	36.33
731.695	35.95
731.878	36.26
732.061	36.37
732.243	36.41
732.426	36.71
732.608	36.68
732.791	37.07
732.973	37.32
733.156	37.26
733.338	37.31
733.52	37.13
733.703	37.19
733.885	37.05
734.068	36.85
734.25	36.92
734.432	36.66
734.615	37.08
734.797	36.52
734.979	36.61
735.162	36.85
735.344	36.2
735.526	36.42
735.708	36.3
735.891	36.58
736.073	36.69
736.255	37.1
736.437	37.32
736.619	37.07
736.802	37.5
736.984	37.36
737.166	37.85
737.348	38.54
737.53	38.27
737.712	38.74
737.894	38.61
738.076	38.9
738.258	38.58
738.44	38.54
738.622	38.68
738.804	38.44
738.986	38.53
739.168	37.84
739.35	37.4
739.532	37.43
739.714	38.1
739.896	37.94
740.078	37.7
740.259	37.82
740.441	38.4
740.623	38.56
740.805	38.6
740.987	37.84
741.168	38.24
741.35	38.56
741.532	38.38
741.714	37.48
741.895	37.64
742.077	37.53
742.259	37.7
742.44	37.54
742.622	37.42
742.804	37.69
742.985	38.42
743.167	38.05
743.348	37.68
743.53	37.97
743.711	38.17
743.893	38.05
744.075	37.82
744.256	37.42
744.438	37.95
744.619	38.29
744.8	38.17
744.982	37.48
745.163	37.39
745.345	38.08
745.526	38.5
745.707	38.36
745.889	38.46
746.07	39.42
746.252	39.64
746.433	39.34
746.614	38.91
746.795	38.51
746.977	39.46
747.158	40.02
747.339	39.91
747.52	39.62
747.702	39.74
747.883	39.48
748.064	38.62
748.245	38.47
748.426	38.06
748.607	38.14
748.788	37.9
748.97	37.51
749.151	37.39
749.332	36.83
749.513	36.68
749.694	37.03
749.875	37.28
750.056	37.3
750.237	37.58
750.418	37.74
750.599	37.36
750.78	37.8
750.96	37.3
751.141	37.21
751.322	37.52
751.503	37.66
751.684	36.64
751.865	36.52
752.046	36.55
752.226	36.65
752.407	36.88
752.588	37.07
752.769	38.02
752.949	38.51
753.13	38.64
753.311	38.72
753.492	38.1
753.672	39.19
753.853	39.39
754.034	38.68
754.214	38.78
754.395	38.83
754.575	39.01
754.756	37.83
754.937	37.95
755.117	38.41
755.298	38.41
755.478	39.11
755.659	38.78
755.839	39.12
756.02	39.95
756.2	39.68
756.381	39.08
756.561	39.16
756.741	39.74
756.922	40.32
757.102	39.37
757.283	39.57
757.463	39.5
757.643	39.8
757.823	39.12
758.004	39.17
758.184	38.67
758.364	38.91
758.545	37.9
758.725	37.33
758.905	36.28
759.085	36.1
759.265	35.35
759.446	35.34
759.626	35.21
759.806	35.69
759.986	35.75
760.166	35.92
760.346	35.88
760.526	36.29
760.706	36.49
760.886	36.64
761.066	36.91
761.246	36.71
761.426	36.43
761.606	36.21
761.786	35.97
761.966	35.63
762.146	36.01
762.326	35.56
762.506	35.55
762.686	35.61
762.866	35.99
763.046	35.91
763.225	36.25
763.405	36.12
763.585	35.96
763.765	35.61
763.945	35.71
764.124	35.74
764.304	35.68
764.484	35.76
764.664	35.93
764.843	35.7
765.023	35.45
765.203	35.56
765.382	35.77
765.562	36.11
765.741	36.5
765.921	36.48
766.101	36.28
766.28	36.42
766.46	36.84
766.639	36.52
766.819	36.29
766.998	36.69
767.178	36.69
767.357	36.75
767.537	37.09
767.716	38.13
767.896	38.35
768.075	38.31
768.254	38.86
768.434	39.15
768.613	39.1
768.792	39.13
768.972	39.4
769.151	39.35
769.33	38.92
769.51	38.71
769.689	37.89
769.868	37.44
770.047	37.26
770.226	37.65
770.406	36.56
770.585	37.05
770.764	37.16
770.943	37.57
771.122	37.4
771.301	37.36
771.48	36.8
771.66	37.58
771.839	37.59
772.018	38.57
772.197	38.47
772.376	39.01
772.555	39.2
772.734	39.86
772.913	39.39
773.092	39.93
773.271	41.11
773.449	41.1
773.628	40.36
773.807	41.44
773.986	41.14
774.165	41.26
774.344	41.42
774.523	41.11
774.701	40.15
774.88	41.3
775.059	41.21
775.238	40.4
775.417	40.44
775.595	40.89
775.774	39.75
775.953	40.06
776.131	39.76
776.31	39.76
776.489	40.14
776.667	41.47
776.846	40.93
777.025	40.96
777.203	41.62
777.382	42.42
777.56	41.49
777.739	42.85
777.917	42.26
778.096	42.2
778.274	42.3
778.453	41.58
778.631	41.18
778.81	40.46
778.988	40.87
779.166	40.5
779.345	39.59
779.523	40.04
779.702	39.55
779.88	39.55
780.058	39.71
780.237	39.1
780.415	39.16
780.593	39.32
780.771	38.88
780.95	38.77
781.128	38.88
781.306	39.68
781.484	40.71
781.662	40.49
781.841	40.75
782.019	39.88
782.197	39.47
782.375	39.61
782.553	39.63
782.731	40.49
782.909	40.2
783.087	40.88
783.265	39.9
783.443	39.29
783.621	39.78
783.799	40.24
783.977	41
784.155	42.86
784.333	43.75
784.511	43.16
784.689	42.77
784.867	43.31
785.045	43.2
785.223	43.58
785.4	43.18
785.578	43.53
785.756	42.72
785.934	42.43
786.112	40.87
786.289	39.83
786.467	39.83
786.645	39.92
786.823	39.79
787	39.88
787.178	39.67
787.356	39.11
787.533	38.64
787.711	38.61
787.889	39.44
788.066	39.75
788.244	40.4
788.421	40.01
788.599	39.09
788.776	39.62
788.954	38.83
789.131	39.07
789.309	39.14
789.486	38.69
789.664	38.94
789.841	38.03
790.019	38.53
790.196	38.18
790.373	39.41
790.551	40.28
790.728	39.17
790.906	39.27
791.083	39.42
791.26	40.15
791.437	40.61
791.615	40.9
791.792	42.11
791.969	42.89
792.146	43.06
792.324	42.3
792.501	41.56
792.678	42.19
792.855	42.66
793.032	42.47
793.209	42.64
793.387	42.88
793.564	43.16
793.741	43.04
793.918	41.84
794.095	41.24
794.272	41.42
794.449	41.71
794.626	42.21
794.803	42.47
794.98	43.39
795.157	43.67
795.334	43.18
795.511	43.44
795.688	42.73
795.864	43.32
796.041	43.79
796.218	43.8
796.395	45.49
796.572	43.9
796.749	43.12
796.925	42.02
797.102	41.8
797.279	42.11
797.456	41.39
797.632	41.79
797.809	41.36
797.986	40.95
798.162	40.78
798.339	39.22
798.516	40.26
798.692	40.55
798.869	41.14
799.046	40.55
799.222	39.88
799.399	40.39
799.575	39.5
799.752	39.02
799.928	39.92
800.105	40.13
800.281	40.54
800.458	41.22
800.634	40.97
800.811	39.97
800.987	41.52
801.163	42.83
801.34	42.93
801.516	44.3
801.692	44.24
801.869	43.9
802.045	43.68
802.221	44.01
802.398	42.81
802.574	43.01
802.75	44.53
802.926	44.18
803.103	43.89
803.279	43.43
803.455	42.27
803.631	42.4
803.807	42.81
803.983	44.97
804.16	45.15
804.336	45.88
804.512	45.81
804.688	46.52
804.864	44.8
805.04	43.94
805.216	43.67
805.392	43.17
805.568	44.2
805.744	43.37
805.92	40.96
806.096	40.33
806.272	40.16
806.448	41.15
806.623	39.08
806.799	39.75
806.975	40.64
807.151	42.18
807.327	42.93
807.503	42.85
807.678	43.42
807.854	42.57
808.03	41.91
808.206	42.11
808.381	40.64
808.557	39.9
808.733	39.99
808.908	38.62
809.084	38.56
809.26	39.31
809.435	39.51
809.611	38.85
809.787	40.05
809.962	41.78
810.138	41.45
810.313	43.27
810.489	44.83
810.664	44.44
810.84	46.6
811.015	45.61
811.191	46.09
811.366	46.32
811.542	47.85
811.717	49.05
811.892	48.34
812.068	48.42
812.243	47.3
812.419	45.28
812.594	45.2
812.769	43.51
812.944	43.09
813.12	41.61
813.295	40.04
813.47	38.43
813.645	36.86
813.821	36.66
813.996	36.62
814.171	36.63
814.346	38.89
814.521	40.62
814.697	41.7
814.872	41.3
815.047	42.22
815.222	43.35
815.397	44.57
815.572	45.99
815.747	45.47
815.922	46.97
816.097	46.93
816.272	46.12
816.447	44.79
816.622	44.09
816.797	43.79
816.972	43.34
817.147	44.16
817.322	43.84
817.496	42.02
817.671	42.72
817.846	41.47
818.021	41.45
818.196	41.81
818.371	41.52
818.545	41.38
818.72	40.58
818.895	40.69
819.069	39.51
819.244	38.91
819.419	39.08
819.594	38.03
819.768	37.39
819.943	37.77
820.117	37.04
820.292	36.27
820.467	35.14
820.641	35.27
820.816	34.69
820.99	34.09
821.165	34.29
821.339	33.5
821.514	33.6
821.688	33.14
821.863	32.37
822.037	32.06
822.212	32.19
822.386	32.28
822.56	32.16
822.735	31.93
822.909	31.92
823.084	31.75
823.258	32.02
823.432	31.8
823.606	31.72
823.781	31.75
823.955	32.15
824.129	32.04
824.303	32.17
824.478	32.01
824.652	32.35
824.826	32.17
825	31.83
825.174	31.77
825.348	31.91
825.523	32.5
825.697	33.18
825.871	33.09
826.045	32.97
826.219	32.72
826.393	33.15
826.567	33.36
826.741	33.8
826.915	33.56
827.089	33.81
827.263	34.07
827.437	34.1
827.611	33.9
827.784	33.73
827.958	34.04
828.132	34.53
828.306	34.44
828.48	34.59
828.654	34.59
828.827	34.92
829.001	35.27
829.175	35.65
829.349	35.95
829.522	36.5
829.696	36.8
829.87	37.9
830.044	38.6
830.217	39.49
830.391	39.93
830.565	40.73
830.738	42.36
830.912	42.05
831.085	42.56
831.259	43.28
831.432	42.95
831.606	42.09
831.779	39.76
831.953	39.02
832.126	38.77
832.3	38.14
832.473	37.47
832.647	37.05
832.82	36.63
832.994	35.6
833.167	35.45
833.34	35.19
833.514	35.52
833.687	36.61
833.86	35.73
834.034	36.08
834.207	36.24
834.38	36.58
834.553	36.63
834.727	36.29
834.9	35.9
835.073	35.08
835.246	34.86
835.419	35.03
835.593	33.91
835.766	35.31
835.939	35.05
836.112	34.13
836.285	33.61
836.458	33.02
836.631	33.53
836.804	35.07
836.977	35.37
837.15	36.28
837.323	37
837.496	38.33
837.669	37.65
837.842	38.78
838.015	42.28
838.188	43.28
838.361	42.44
838.533	42.78
838.706	43.45
838.879	45.15
839.052	45.98
839.225	46.47
839.398	47.91
839.57	49.12
839.743	47.52
839.916	44.48
840.088	44.67
840.261	47.73
840.434	49.82
840.607	48.34
840.779	47.81
840.952	46.4
841.124	47.02
841.297	45.79
841.47	44.85
841.642	45.5
841.815	46.2
841.987	46.36
842.16	43.61
842.332	43.76
842.505	45.11
842.677	45.66
842.85	47.84
843.022	49.31
843.194	50.47
843.367	52.09
843.539	51.57
843.712	54.14
843.884	54.96
844.056	56.46
844.229	56.74
844.401	56.62
844.573	56.65
844.745	54.6
844.918	51.83
845.09	52.06
845.262	49.57
845.434	53.5
845.606	48.06
845.779	49.49
845.951	51.52
846.123	48.76
846.295	49.13
846.467	49.56
846.639	49.36
846.811	49.37
846.983	49.95
847.155	50.43
847.327	49.54
847.499	55.76
847.671	53
847.843	55.18
848.015	55.91
848.187	54.7
848.359	55.99
848.531	57.82
848.703	61.25
848.875	60.79
849.047	63.89
849.218	63.18
849.39	63.13
849.562	64.16
849.734	65.36
849.905	67.23
850.077	68.84
850.249	69.21
850.421	73.1
850.592	73.01
850.764	67.78
850.936	68.43
851.107	67.86
851.279	66.47
851.451	64.37
851.622	60.38
851.794	59.04
851.965	58.58
852.137	58.51
852.308	57.74
852.48	54.44
852.651	57.83
852.823	54.65
852.994	58.06
853.166	54.34
853.337	57.67
853.509	59.96
853.68	59.4
853.851	59.15
854.023	56.98
854.194	54.46
854.365	56.77
854.537	59.42
854.708	60.39
854.879	57.91
855.05	62.16
855.222	64.27
855.393	63.61
855.564	66.28
855.735	64.39
855.906	64.54
856.078	64.27
856.249	58.49
856.42	58.86
856.591	61.15
856.762	57.91
856.933	54.58
857.104	49.58
857.275	50.83
857.446	46.84
857.617	48.71
857.788	49.28
857.959	48.77
858.13	54.86
858.301	55.67
858.472	51.61
858.643	54.67
858.814	55.8
858.985	56.57
859.155	55.48
859.326	60.27
859.497	60.21
859.668	63.4
859.839	63.81
860.009	62.67
860.18	62.14
860.351	62.27
860.522	60.24
860.692	56.28
860.863	61.74
861.034	63.31
861.204	62.11
861.375	61.24
861.546	59.31
861.716	62.89
861.887	63.17
862.057	64.36
862.228	65.07
862.398	66.28
862.569	68.43
862.739	68.07
862.91	67.01
863.08	66.57
863.251	67.41
863.421	67.15
863.592	65.38
863.762	66.16
863.932	67.17
864.103	70.74
864.273	66.97
864.443	70.14
864.614	69.23
864.784	64.31
864.954	63.56
865.125	61.55
865.295	64.38
865.465	64.2
865.635	61.89
865.805	61.08
865.976	60.65
866.146	64.96
866.316	60.97
866.486	61.4
866.656	66.23
866.826	66.3
866.996	66.32
867.166	63.9
867.336	65.11
867.506	65.84
867.676	63.87
867.846	66.44
868.016	65.03
868.186	70.35
868.356	67.5
868.526	64.08
868.696	64.71
868.866	69.19
869.036	69.68
869.206	66.81
869.376	68.81
869.545	66.36
869.715	64.23
869.885	63.47
870.055	57.55
870.224	57.82
870.394	58.87
870.564	58.16
870.734	54.41
870.903	55.61
871.073	52.34
871.243	48.53
871.412	50.08
871.582	50.8
871.751	55.48
871.921	56.28
872.091	56.59
872.26	53.18
872.43	52.08
872.599	53.92
872.769	54.42
872.938	60.72
873.108	62.58
873.277	64.14
873.446	60.67
873.616	55.66
873.785	55.79
873.955	55.08
874.124	59.62
874.293	60.66
874.463	60.46
874.632	57.56
874.801	54.7
874.971	54.51
875.14	53.83
875.309	56.81
875.478	57.41
875.647	60.55
875.817	61.82
875.986	64.77
876.155	63.93
876.324	66.72
876.493	69.25
876.662	68.48
876.831	68.71
877	70.49
877.17	68.59
877.339	72.19
877.508	70.79
877.677	71.96
877.846	69.14
878.015	71.42
878.184	66.19
878.352	65.77
878.521	65.66
878.69	68.17
878.859	63.73
879.028	62.33
879.197	57.97
879.366	55.34
879.534	51.53
879.703	49.75
879.872	45.31
880.041	44.89
880.21	41.59
880.378	40.24
880.547	37.32
880.716	37.24
880.884	36.75
881.053	35.22
881.222	33.68
881.39	33.29
881.559	33.65
881.727	34.81
881.896	33.97
882.065	33.57
882.233	33.27
882.402	33.71
882.57	33.45
882.739	33.16
882.907	34.03
883.076	34.67
883.244	34.59
883.412	33.7
883.581	33.07
883.749	34.45
883.918	35.03
884.086	34.8
884.254	34.22
884.423	34.93
884.591	36.38
884.759	36.36
884.927	36.1
885.096	37
885.264	38.61
885.432	38.46
885.6	36.74
885.769	39.38
885.937	40.89
886.105	42.57
886.273	43.51
886.441	42.46
886.609	43.33
886.777	45.81
886.945	47.88
887.113	51.6
887.281	54.19
887.449	55.66
887.617	56.5
887.785	58.69
887.953	60.24
888.121	59.84
888.289	62.47
888.457	64.83
888.625	65.79
888.793	70.04
888.961	67.23
889.129	68.87
889.296	67.33
889.464	66.45
889.632	66.93
889.8	67.67
889.967	69.19
890.135	68.32
