Data from 2938828__Reflection_02.txt Node
Date: Thu Mar 12 13:18:56 EDT 2015
User: robert
Spectrometer: USB4E03002
Autoset integration time: false
Trigger mode: 4
Integration Time (sec): 1.000000E-1
Scans to average: 10
Electric dark correction enabled: false
Nonlinearity correction enabled: false
Boxcar width: 5
Stray light correction enabled: false
XAxis mode: Wavelengths
Stop averaging: false
Number of Pixels in Spectrum: 3648
>>>>>Begin Spectral Data<<<<<
177.575	-535.29
177.794	-1346.67
178.014	-3032.56
178.233	-1206.09
178.452	-1125.5
178.672	-1214.56
178.891	-1696.72
179.11	-2562.2
179.33	3841.67
179.549	-2200
179.768	-1969.84
179.987	2144.92
180.207	1271.08
180.426	1546.71
180.645	1245.16
180.864	589.87
181.084	410.24
181.303	459.54
181.522	403.09
181.741	461.08
181.96	405.41
182.179	348.96
182.398	343.57
182.618	431.68
182.837	452.92
183.056	452.79
183.275	727.22
183.494	1622.14
183.713	969.51
183.932	2709.64
184.151	-2125.74
184.37	-2955.56
184.589	-1238.82
184.808	-1281.29
185.027	-5400
185.246	2739.76
185.465	1970.69
185.684	1291.81
185.903	1037
186.122	945.06
186.341	581.01
186.56	334.66
186.779	420.1
186.998	406.4
187.216	421.41
187.435	495.27
187.654	505.91
187.873	451.06
188.092	436.19
188.311	433.23
188.53	407.58
188.748	451.06
188.967	586.91
189.186	445.55
189.405	426.98
189.623	492.7
189.842	369.84
190.061	400.51
190.28	387.15
190.498	332.73
190.717	355.18
190.936	458.54
191.154	533.41
191.373	563.04
191.592	494.16
191.81	546.84
192.029	456.22
192.248	791.07
192.466	985
192.685	1924.19
192.904	-5443.59
193.122	-12135.29
193.341	4326.67
193.559	2175.79
193.778	15584.62
193.996	-1610.08
194.215	-849.57
194.433	-457.35
194.652	-536.52
194.87	-912.02
195.089	-775.8
195.307	-641.94
195.526	-495.26
195.744	-510.95
195.963	-537.28
196.181	-670.05
196.399	-760.87
196.618	-1509.6
196.836	-1777.24
197.055	-1286.93
197.273	-727.81
197.491	-1161.61
197.71	-1673.86
197.928	-1412.14
198.146	-2257.69
198.365	-2174.11
198.583	-26866.67
198.801	6788.57
199.019	2610
199.238	1126.15
199.456	869.12
199.674	796.55
199.892	735.37
200.111	1253.19
200.329	545.15
200.547	459.35
200.765	449.19
200.983	483.01
201.202	476.37
201.42	779.08
201.638	1476.69
201.856	1714.48
202.074	1026.88
202.292	1084.32
202.51	678.7
202.728	1468.45
202.946	1546.84
203.165	1301.59
203.383	1271.43
203.601	905.95
203.819	485.23
204.037	444.26
204.255	407.64
204.473	340.37
204.691	340.66
204.909	343.12
205.127	344.82
205.345	612.21
205.562	687.68
205.78	908.88
205.998	777.78
206.216	1734.86
206.434	1444.12
206.652	-1794.12
206.87	-1525.64
207.088	-1108.07
207.306	-1246.5
207.523	-2043
207.741	-4777.27
207.959	3237.5
208.177	1211.24
208.395	1007.14
208.612	809.47
208.83	858.62
209.048	447.58
209.266	482.98
209.483	417.52
209.701	333.37
209.919	309.16
210.136	271.75
210.354	268.12
210.572	299.27
210.79	428.4
211.007	338.97
211.225	332.43
211.442	289.44
211.66	297.71
211.878	291.1
212.095	237.14
212.313	227.16
212.53	237.95
212.748	225.82
212.966	255.08
213.183	211.59
213.401	254.57
213.618	240.8
213.836	298.22
214.053	322.34
214.271	398.51
214.488	664.53
214.705	622.92
214.923	578.74
215.14	767.68
215.358	384.76
215.575	438.83
215.793	342.79
216.01	323.82
216.227	292.11
216.445	251.9
216.662	222.98
216.879	220.24
217.097	205.48
217.314	204.4
217.531	218.92
217.749	270.47
217.966	221.56
218.183	219.14
218.4	202
218.618	192.21
218.835	177.12
219.052	191.55
219.269	189.12
219.487	199.46
219.704	184.12
219.921	177.01
220.138	168.73
220.355	169.88
220.572	173.25
220.79	166.02
221.007	157.33
221.224	177.07
221.441	169.29
221.658	160.1
221.875	145.35
222.092	138.96
222.309	127.64
222.526	127.21
222.743	125.27
222.96	115.89
223.177	120.95
223.394	112.64
223.611	101.41
223.828	93.92
224.045	93.04
224.262	84.85
224.479	76.9
224.696	71.6
224.913	62.95
225.13	60.74
225.347	60.72
225.564	58.6
225.781	55.82
225.997	53.75
226.214	48.64
226.431	44.3
226.648	41.48
226.865	38.3
227.082	36.36
227.298	32.98
227.515	29.57
227.732	24.92
227.949	22.86
228.165	21.19
228.382	19.69
228.599	18.02
228.816	16.56
229.032	16.08
229.249	15.55
229.466	14.54
229.682	13.76
229.899	14.14
230.116	14.8
230.332	14.28
230.549	15.03
230.765	15.49
230.982	16.92
231.199	17.68
231.415	19.21
231.632	20.7
231.848	21.83
232.065	24.62
232.281	25.37
232.498	25.51
232.714	27.62
232.931	26.78
233.147	28.21
233.364	26.84
233.58	27.64
233.797	26.72
234.013	27.3
234.23	27
234.446	26.4
234.662	25
234.879	25.65
235.095	25.45
235.312	26.27
235.528	25.17
235.744	25.99
235.961	24.97
236.177	25.56
236.393	25.12
236.61	28.05
236.826	27.47
237.042	28.45
237.258	29.61
237.475	30.3
237.691	29.41
237.907	27.68
238.123	28.38
238.339	27.97
238.556	28.76
238.772	29.16
238.988	26.82
239.204	27.35
239.42	26.11
239.636	25.28
239.853	23.1
240.069	23.07
240.285	22.42
240.501	20.76
240.717	20.41
240.933	18.64
241.149	17.31
241.365	15.82
241.581	14.36
241.797	13.79
242.013	13
242.229	12.69
242.445	12.03
242.661	11.93
242.877	12.61
243.093	12.27
243.309	12.36
243.525	12.15
243.741	12.69
243.957	13.34
244.173	14.2
244.388	14.17
244.604	14.43
244.82	14.72
245.036	14.32
245.252	13.07
245.468	12.49
245.683	12.08
245.899	11.48
246.115	10.72
246.331	10.41
246.547	9.45
246.762	9.19
246.978	8.94
247.194	8.82
247.409	8.68
247.625	8.75
247.841	8.64
248.057	8.47
248.272	8.69
248.488	9.15
248.703	9.07
248.919	9.53
249.135	9.77
249.35	9.89
249.566	10.19
249.782	10.4
249.997	10.26
250.213	11.19
250.428	11.72
250.644	11.28
250.859	11.1
251.075	11.47
251.29	11.83
251.506	11.98
251.721	12.14
251.937	12.18
252.152	12.6
252.368	12.39
252.583	12.44
252.798	12.32
253.014	13.05
253.229	13.19
253.445	13.19
253.66	13.72
253.875	14.49
254.091	15.54
254.306	15.18
254.521	15.49
254.737	16.11
254.952	15.57
255.167	15.62
255.383	14.96
255.598	14.46
255.813	14.78
256.028	14.63
256.244	14.3
256.459	13.21
256.674	13.29
256.889	12.68
257.104	12.44
257.32	12.03
257.535	11.73
257.75	11.31
257.965	11.12
258.18	10.28
258.395	9.09
258.61	8.13
258.826	7.72
259.041	7.54
259.256	7.48
259.471	6.97
259.686	6.75
259.901	6.41
260.116	6.42
260.331	6.28
260.546	6.1
260.761	6.07
260.976	6.26
261.191	6.31
261.406	6.38
261.621	6.45
261.836	6.91
262.05	7.37
262.265	8.15
262.48	8.48
262.695	9.38
262.91	10.48
263.125	11.1
263.34	11.29
263.555	11.61
263.769	11.6
263.984	11.88
264.199	11.73
264.414	11.38
264.629	11.41
264.843	10.9
265.058	10.36
265.273	10.01
265.488	10.42
265.702	10.19
265.917	10.3
266.132	10.76
266.346	10.87
266.561	11.01
266.776	11.28
266.99	10.88
267.205	11.02
267.42	10.97
267.634	10.72
267.849	10.58
268.063	10.7
268.278	10.5
268.492	10.23
268.707	9.69
268.922	9.34
269.136	8.67
269.351	8.5
269.565	8.18
269.78	7.78
269.994	7.58
270.209	6.91
270.423	6.74
270.637	6.7
270.852	6.7
271.066	6.63
271.281	7.05
271.495	7.09
271.709	7.1
271.924	7.09
272.138	6.95
272.353	7
272.567	7.09
272.781	7.35
272.996	7.28
273.21	7.19
273.424	7.52
273.638	7.6
273.853	7.49
274.067	7.53
274.281	8.14
274.495	8.9
274.71	9.07
274.924	9.18
275.138	8.98
275.352	8.99
275.566	9.25
275.781	9.12
275.995	8.25
276.209	8.88
276.423	9.38
276.637	9.08
276.851	8.29
277.065	7.97
277.279	7.93
277.493	7.79
277.707	8.37
277.921	8.13
278.135	7.94
278.349	8.15
278.563	8.18
278.777	7.6
278.991	7.33
279.205	7.76
279.419	8.06
279.633	8.23
279.847	8.21
280.061	7.93
280.275	7.93
280.489	7.84
280.703	7.85
280.917	7.5
281.131	7.5
281.344	7.93
281.558	7.67
281.772	7.74
281.986	7.24
282.2	7.52
282.414	7.3
282.627	7.22
282.841	7.47
283.055	7.64
283.269	7.75
283.482	7.83
283.696	7.21
283.91	7.17
284.123	6.84
284.337	7.18
284.551	6.91
284.764	6.92
284.978	6.62
285.192	6.38
285.405	6.08
285.619	5.77
285.833	5.73
286.046	5.84
286.26	5.87
286.473	5.88
286.687	5.94
286.9	5.72
287.114	5.79
287.327	5.79
287.541	6.03
287.754	6.22
287.968	6.7
288.181	6.51
288.395	6.73
288.608	7.07
288.822	7.05
289.035	6.9
289.248	7.44
289.462	7.34
289.675	7.42
289.889	7.37
290.102	7.52
290.315	7.31
290.529	7.36
290.742	7.22
290.955	7.05
291.169	7.28
291.382	7.46
291.595	7.74
291.808	8.02
292.022	8.03
292.235	8.1
292.448	8.2
292.661	8.43
292.875	8.78
293.088	8.93
293.301	9.15
293.514	9.1
293.727	9.12
293.94	8.32
294.153	8.08
294.367	7.73
294.58	7.53
294.793	7.4
295.006	7.38
295.219	7.18
295.432	7.07
295.645	6.71
295.858	6.42
296.071	6.38
296.284	6.56
296.497	6.43
296.71	6.9
296.923	6.87
297.136	6.86
297.349	6.9
297.562	6.59
297.775	6.65
297.988	6.75
298.201	7.2
298.414	7.21
298.626	7.3
298.839	7.49
299.052	7.64
299.265	7.86
299.478	8
299.691	8.02
299.903	8.4
300.116	8.68
300.329	8.77
300.542	8.68
300.755	8.74
300.967	8.95
301.18	8.75
301.393	8.67
301.605	8.78
301.818	8.68
302.031	8.62
302.243	8.98
302.456	8.79
302.669	8.86
302.881	8.42
303.094	8.62
303.307	8.58
303.519	9
303.732	8.87
303.944	8.67
304.157	8.7
304.37	8.67
304.582	8.83
304.795	8.82
305.007	8.9
305.22	9.62
305.432	9.64
305.645	9.87
305.857	9.77
306.069	10.27
306.282	10.29
306.494	10.24
306.707	10.05
306.919	9.44
307.132	9.62
307.344	9.77
307.556	9.55
307.769	9.32
307.981	8.99
308.193	9.05
308.406	8.92
308.618	9.09
308.83	9.12
309.043	9.29
309.255	9.07
309.467	8.96
309.679	9.2
309.892	8.89
310.104	8.8
310.316	8.38
310.528	8.33
310.74	8.02
310.953	7.75
311.165	7.9
311.377	8.04
311.589	8.58
311.801	8.58
312.013	8.26
312.225	8.61
312.437	8.81
312.649	9.17
312.862	9.03
313.074	9.56
313.286	9.61
313.498	9.56
313.71	9.66
313.922	9.5
314.134	9.64
314.346	9.5
314.558	9.42
314.77	9.77
314.982	10.17
315.193	10.5
315.405	10.29
315.617	10.78
315.829	11.08
316.041	10.64
316.253	10.96
316.465	10.7
316.677	11.03
316.888	10.87
317.1	10.61
317.312	10.66
317.524	10.44
317.736	10.28
317.947	10.21
318.159	9.91
318.371	10.35
318.583	10.58
318.794	10.95
319.006	10.67
319.218	10.72
319.43	10.89
319.641	11.11
319.853	11.3
320.064	11.82
320.276	11.96
320.488	12.51
320.699	12.55
320.911	12.29
321.123	12.36
321.334	12.98
321.546	13.18
321.757	13.38
321.969	13.4
322.18	13.5
322.392	13.34
322.603	13.25
322.815	12.72
323.026	12.6
323.238	12.44
323.449	12.16
323.661	11.99
323.872	11.98
324.083	12.07
324.295	11.97
324.506	11.98
324.718	12.02
324.929	11.88
325.14	12.19
325.352	12.29
325.563	12.24
325.774	12.46
325.986	12.42
326.197	12.41
326.408	12.05
326.62	11.91
326.831	12.09
327.042	12.06
327.253	12.42
327.464	12.41
327.676	12.15
327.887	12.35
328.098	12.22
328.309	12.6
328.52	12.84
328.732	12.77
328.943	12.71
329.154	12.26
329.365	11.98
329.576	11.8
329.787	12.04
329.998	12.17
330.209	12.1
330.42	12.51
330.631	12.4
330.842	12.34
331.053	12.75
331.264	12.96
331.475	13.43
331.686	13.63
331.897	13.61
332.108	13.49
332.319	13.5
332.53	13.46
332.741	13.26
332.952	13.27
333.163	13.04
333.374	12.93
333.585	12.77
333.795	12.51
334.006	12.49
334.217	12.68
334.428	12.74
334.639	13.28
334.849	13.72
335.06	13.74
335.271	13.82
335.482	14.04
335.692	13.81
335.903	13.92
336.114	13.99
336.325	14.11
336.535	13.92
336.746	13.86
336.957	13.47
337.167	13.48
337.378	13.52
337.589	13.23
337.799	12.95
338.01	13.4
338.22	13.41
338.431	13.46
338.642	13.22
338.852	13.6
339.063	13.57
339.273	13.7
339.484	13.57
339.694	13.58
339.905	13.57
340.115	13.95
340.326	13.75
340.536	13.48
340.746	13.67
340.957	13.85
341.167	13.67
341.378	13.86
341.588	13.69
341.799	13.77
342.009	13.76
342.219	13.59
342.43	13.64
342.64	13.46
342.85	14.01
343.061	13.88
343.271	13.91
343.481	14.03
343.691	13.68
343.902	13.72
344.112	13.39
344.322	13.27
344.532	13.22
344.743	12.91
344.953	12.9
345.163	12.64
345.373	12.76
345.583	12.49
345.793	11.94
346.004	12.29
346.214	12.24
346.424	12.37
346.634	12.38
346.844	12.69
347.054	12.62
347.264	13.03
347.474	12.95
347.684	12.7
347.894	12.79
348.104	13.07
348.314	12.62
348.524	12.33
348.734	12.37
348.944	12.42
349.154	12.1
349.364	12.1
349.574	11.7
349.784	11.52
349.994	11.53
350.204	11.76
350.413	11.78
350.623	12.11
350.833	12.33
351.043	12.14
351.253	11.79
351.463	12.19
351.672	12.53
351.882	12.69
352.092	13.06
352.302	13.25
352.511	12.85
352.721	12.52
352.931	12.17
353.141	12.33
353.35	12.28
353.56	12.39
353.77	12.05
353.979	12.13
354.189	11.89
354.399	11.64
354.608	11.47
354.818	11.84
355.027	12.25
355.237	12.19
355.447	11.85
355.656	12.04
355.866	12.11
356.075	11.82
356.285	11.48
356.494	11.37
356.704	11.09
356.913	11.05
357.123	10.83
357.332	10.65
357.542	10.92
357.751	11.12
357.96	10.82
358.17	10.6
358.379	11.02
358.589	11.04
358.798	11.04
359.007	11.19
359.217	11.19
359.426	11.08
359.635	11.16
359.845	10.47
360.054	10.3
360.263	10.15
360.472	10.02
360.682	9.95
360.891	10
361.1	10.1
361.309	9.92
361.519	9.76
361.728	9.57
361.937	9.51
362.146	9.7
362.355	9.65
362.564	9.8
362.774	9.97
362.983	9.88
363.192	9.82
363.401	9.81
363.61	9.95
363.819	10.09
364.028	10.27
364.237	10.39
364.446	10.44
364.655	10.64
364.864	10.71
365.073	10.61
365.282	10.36
365.491	10.34
365.7	10.23
365.909	10.45
366.118	10.32
366.327	10.63
366.536	10.21
366.745	10.36
366.954	10.31
367.162	10.27
367.371	10.12
367.58	10.44
367.789	10.39
367.998	10.62
368.207	10.61
368.415	10.86
368.624	10.7
368.833	11.02
369.042	10.9
369.25	11.03
369.459	10.95
369.668	11.17
369.877	11.16
370.085	11.3
370.294	11.16
370.503	10.87
370.711	10.69
370.92	10.57
371.129	10.59
371.337	10.53
371.546	10.21
371.754	10.14
371.963	10.25
372.171	10.23
372.38	10.03
372.589	10.02
372.797	10
373.006	10.03
373.214	10.05
373.423	10.03
373.631	9.99
373.84	9.92
374.048	10.04
374.256	9.89
374.465	9.77
374.673	9.84
374.882	9.76
375.09	9.9
375.298	9.76
375.507	9.54
375.715	9.46
375.923	9.57
376.132	9.72
376.34	9.67
376.548	9.56
376.757	9.54
376.965	9.55
377.173	9.5
377.381	9.44
377.59	9.63
377.798	9.88
378.006	9.73
378.214	9.86
378.423	9.83
378.631	9.86
378.839	10.05
379.047	9.96
379.255	9.86
379.463	9.83
379.671	9.54
379.879	9.38
380.088	9.26
380.296	9.72
380.504	9.59
380.712	9.49
380.92	9.5
381.128	9.56
381.336	9.68
381.544	9.85
381.752	9.99
381.96	10.16
382.168	10.05
382.376	10.08
382.584	9.74
382.791	9.65
382.999	9.64
383.207	9.54
383.415	9.13
383.623	9.08
383.831	8.92
384.039	8.77
384.247	8.91
384.454	8.93
384.662	8.79
384.87	8.63
385.078	8.57
385.285	8.54
385.493	8.55
385.701	8.65
385.909	8.48
386.116	8.49
386.324	8.58
386.532	8.5
386.739	8.41
386.947	8.24
387.155	8.34
387.362	8.4
387.57	8.43
387.778	8.46
387.985	8.5
388.193	8.68
388.4	8.65
388.608	8.72
388.816	8.64
389.023	8.75
389.231	8.97
389.438	9.1
389.646	9.18
389.853	8.95
390.061	8.82
390.268	8.75
390.475	8.76
390.683	8.72
390.89	8.51
391.098	8.52
391.305	8.38
391.512	8.21
391.72	8.12
391.927	7.99
392.135	8.1
392.342	8.09
392.549	8.3
392.756	8.06
392.964	7.97
393.171	7.87
393.378	7.79
393.586	7.73
393.793	7.75
394	7.53
394.207	7.53
394.414	7.54
394.622	7.66
394.829	7.8
395.036	7.98
395.243	8.06
395.45	8.24
395.657	8.29
395.864	8.38
396.072	8.48
396.279	8.51
396.486	8.67
396.693	8.7
396.9	8.42
397.107	7.98
397.314	7.96
397.521	7.94
397.728	7.88
397.935	7.79
398.142	7.82
398.349	7.74
398.556	7.95
398.763	7.9
398.97	8.01
399.177	8.04
399.383	8.05
399.59	7.96
399.797	8.15
400.004	8.3
400.211	8.43
400.418	8.28
400.625	8.36
400.831	8.09
401.038	8.01
401.245	7.8
401.452	8.01
401.658	8.11
401.865	8.2
402.072	8.03
402.279	7.78
402.485	7.66
402.692	7.8
402.899	7.85
403.105	7.93
403.312	7.86
403.519	7.94
403.725	7.95
403.932	7.73
404.138	7.59
404.345	7.57
404.552	7.69
404.758	7.81
404.965	7.77
405.171	7.67
405.378	7.78
405.584	7.79
405.791	7.72
405.997	7.67
406.204	7.91
406.41	8.03
406.617	7.93
406.823	7.89
407.029	7.96
407.236	7.9
407.442	7.92
407.649	8.02
407.855	7.84
408.061	7.81
408.268	7.74
408.474	7.74
408.68	7.65
408.887	7.58
409.093	7.7
409.299	7.47
409.505	7.51
409.712	7.59
409.918	7.58
410.124	7.79
410.33	7.85
410.537	7.83
410.743	7.86
410.949	7.85
411.155	8.05
411.361	8.02
411.567	8.2
411.773	8.09
411.98	8.01
412.186	7.86
412.392	7.93
412.598	8.09
412.804	8.26
413.01	8.23
413.216	8.34
413.422	8.21
413.628	8.25
413.834	8.17
414.04	8.36
414.246	8.3
414.452	8.23
414.658	8.06
414.864	7.99
415.07	7.97
415.275	8
415.481	7.94
415.687	8.04
415.893	7.86
416.099	7.81
416.305	7.94
416.511	8.08
416.716	8.11
416.922	7.99
417.128	7.95
417.334	7.76
417.539	7.72
417.745	7.71
417.951	7.58
418.157	7.52
418.362	7.53
418.568	7.42
418.774	7.26
418.979	7.27
419.185	7.26
419.391	7.23
419.596	7.27
419.802	7.11
420.008	7.14
420.213	7.77
420.419	7.86
420.624	7.87
420.83	7.79
421.035	7.86
421.241	7.76
421.446	7.83
421.652	7.89
421.857	7.75
422.063	7.82
422.268	7.79
422.474	7.21
422.679	7.12
422.885	7.14
423.09	7.2
423.295	7.14
423.501	7.19
423.706	7.19
423.911	7.17
424.117	7.27
424.322	7.29
424.527	7.34
424.733	7.37
424.938	7.47
425.143	7.49
425.349	7.48
425.554	7.54
425.759	7.64
425.964	7.75
426.169	7.69
426.375	7.67
426.58	7.67
426.785	7.71
426.99	7.66
427.195	7.59
427.4	7.35
427.605	7.45
427.811	7.43
428.016	7.44
428.221	7.37
428.426	7.5
428.631	7.54
428.836	7.6
429.041	7.48
429.246	7.62
429.451	7.7
429.656	7.98
429.861	7.98
430.066	8.05
430.271	7.93
430.476	7.95
430.681	7.86
430.886	8
431.09	8.05
431.295	8.08
431.5	8.1
431.705	7.97
431.91	7.82
432.115	7.78
432.32	7.79
432.524	7.82
432.729	7.87
432.934	7.89
433.139	7.95
433.343	7.97
433.548	7.98
433.753	8.09
433.958	8.23
434.162	8.31
434.367	8.37
434.572	8.39
434.776	8.35
434.981	8.23
435.186	8.28
435.39	8.21
435.595	8.29
435.799	8.31
436.004	8.16
436.209	8.09
436.413	8.05
436.618	7.98
436.822	7.97
437.027	8.11
437.231	8.17
437.436	8.16
437.64	8.13
437.845	8.04
438.049	8.11
438.253	8.24
438.458	8.25
438.662	8.34
438.867	8.35
439.071	8.29
439.275	8.35
439.48	8.39
439.684	8.47
439.888	8.49
440.093	8.4
440.297	8.36
440.501	8.26
440.706	8.25
440.91	8.16
441.114	8.16
441.318	8.29
441.523	8.26
441.727	8.3
441.931	8.24
442.135	8.2
442.339	8.38
442.543	8.36
442.748	8.39
442.952	8.43
443.156	8.53
443.36	8.67
443.564	8.68
443.768	8.57
443.972	8.54
444.176	8.58
444.38	8.64
444.584	8.53
444.788	8.54
444.992	8.52
445.196	8.53
445.4	8.42
445.604	8.3
445.808	8.16
446.012	8.22
446.216	8.18
446.42	8.17
446.624	8.12
446.828	8.1
447.032	8.03
447.235	8.02
447.439	7.95
447.643	8.06
447.847	8.1
448.051	8.23
448.254	8.21
448.458	8.2
448.662	8.17
448.866	8.21
449.069	8.19
449.273	8.29
449.477	8.42
449.681	8.46
449.884	8.45
450.088	8.52
450.292	8.39
450.495	8.42
450.699	8.51
450.902	8.52
451.106	8.49
451.31	8.59
451.513	8.55
451.717	8.56
451.92	8.62
452.124	8.58
452.327	8.39
452.531	8.58
452.734	8.51
452.938	8.42
453.141	8.45
453.345	8.53
453.548	8.55
453.752	8.62
453.955	8.53
454.158	8.55
454.362	8.71
454.565	8.87
454.769	8.76
454.972	8.88
455.175	8.89
455.379	8.94
455.582	9
455.785	8.95
455.988	8.95
456.192	8.92
456.395	8.86
456.598	8.89
456.801	8.9
457.005	9.01
457.208	9
457.411	9.04
457.614	9.02
457.817	8.93
458.021	8.96
458.224	8.97
458.427	8.88
458.63	9.01
458.833	8.84
459.036	8.67
459.239	8.53
459.442	8.46
459.645	8.45
459.848	8.35
460.051	8.38
460.254	8.4
460.457	8.4
460.66	8.48
460.863	8.31
461.066	8.34
461.269	8.45
461.472	8.61
461.675	8.62
461.878	8.63
462.081	8.74
462.284	8.74
462.486	8.65
462.689	8.57
462.892	8.59
463.095	8.66
463.298	8.74
463.5	8.81
463.703	8.71
463.906	8.86
464.109	8.76
464.311	8.85
464.514	8.91
464.717	9.04
464.92	9.19
465.122	9.2
465.325	9.27
465.528	9.18
465.73	9.23
465.933	9.26
466.135	9.21
466.338	9.32
466.541	9.32
466.743	9.22
466.946	9.09
467.148	8.87
467.351	8.84
467.553	8.84
467.756	8.95
467.958	8.93
468.161	8.82
468.363	8.87
468.566	8.82
468.768	8.87
468.971	8.87
469.173	8.89
469.375	9.05
469.578	9.12
469.78	9.19
469.983	9.2
470.185	9.16
470.387	9.28
470.59	9.16
470.792	9.26
470.994	9.2
471.196	9.36
471.399	9.41
471.601	9.39
471.803	9.37
472.005	9.37
472.208	9.3
472.41	9.4
472.612	9.45
472.814	9.46
473.016	9.48
473.218	9.41
473.421	9.38
473.623	9.39
473.825	9.37
474.027	9.43
474.229	9.34
474.431	9.32
474.633	9.31
474.835	9.29
475.037	9.28
475.239	9.28
475.441	9.26
475.643	9.19
475.845	9.1
476.047	9.08
476.249	9
476.451	9.07
476.653	9.13
476.855	8.99
477.057	9
477.258	8.93
477.46	8.91
477.662	8.96
477.864	8.94
478.066	8.99
478.268	9.05
478.469	9.03
478.671	8.97
478.873	8.96
479.075	8.98
479.276	8.95
479.478	8.98
479.68	8.94
479.882	8.93
480.083	8.98
480.285	8.95
480.487	8.92
480.688	8.88
480.89	8.81
481.091	8.71
481.293	8.7
481.495	8.69
481.696	8.67
481.898	8.6
482.099	8.57
482.301	8.5
482.502	8.51
482.704	8.44
482.905	8.43
483.107	8.41
483.308	8.37
483.51	8.3
483.711	8.23
483.913	8.19
484.114	8.15
484.315	8.09
484.517	8.04
484.718	7.98
484.92	7.94
485.121	7.91
485.322	7.9
485.524	7.94
485.725	7.95
485.926	7.94
486.127	7.94
486.329	7.98
486.53	8.03
486.731	8.04
486.932	8.06
487.134	8.12
487.335	8.13
487.536	8.1
487.737	8.04
487.938	8.05
488.139	8.1
488.341	8.11
488.542	8.13
488.743	8.1
488.944	8.12
489.145	8.12
489.346	8.12
489.547	8.08
489.748	8.16
489.949	8.26
490.15	8.26
490.351	8.27
490.552	8.26
490.753	8.24
490.954	8.3
491.155	8.32
491.356	8.32
491.557	8.26
491.758	8.31
491.959	8.29
492.159	8.24
492.36	8.26
492.561	8.24
492.762	8.22
492.963	8.24
493.164	8.24
493.364	8.27
493.565	8.36
493.766	8.47
493.967	8.5
494.167	8.58
494.368	8.61
494.569	8.64
494.769	8.66
494.97	8.79
495.171	8.82
495.371	8.88
495.572	8.84
495.773	8.83
495.973	8.89
496.174	8.89
496.375	8.87
496.575	8.89
496.776	8.88
496.976	8.99
497.177	9
497.377	9.1
497.578	9.04
497.778	9.13
497.979	9.18
498.179	9.12
498.38	9.19
498.58	9.18
498.78	9.21
498.981	9.26
499.181	9.32
499.382	9.25
499.582	9.25
499.782	9.32
499.983	9.25
500.183	9.27
500.383	9.36
500.584	9.34
500.784	9.42
500.984	9.45
501.184	9.4
501.385	9.4
501.585	9.54
501.785	9.57
501.985	9.62
502.185	9.81
502.386	9.82
502.586	9.9
502.786	9.91
502.986	9.9
503.186	9.97
503.386	10.11
503.586	10.09
503.786	10.06
503.987	10.09
504.187	10.11
504.387	10.05
504.587	10.01
504.787	9.93
504.987	10.09
505.187	10.02
505.387	9.96
505.587	9.92
505.786	9.89
505.986	10.04
506.186	10.01
506.386	9.84
506.586	9.82
506.786	9.93
506.986	10.02
507.186	9.92
507.386	10.05
507.585	10.12
507.785	10.13
507.985	10.23
508.185	10.15
508.384	10.22
508.584	10.45
508.784	10.54
508.984	10.57
509.183	10.58
509.383	10.71
509.583	10.74
509.782	10.75
509.982	10.8
510.182	10.79
510.381	10.82
510.581	10.81
510.781	10.9
510.98	10.87
511.18	10.86
511.379	10.9
511.579	10.93
511.778	10.95
511.978	10.93
512.177	10.95
512.377	10.95
512.576	10.93
512.776	11.01
512.975	10.93
513.175	10.95
513.374	11.04
513.573	11.03
513.773	10.93
513.972	11
514.172	11.21
514.371	11.34
514.57	11.51
514.77	11.63
514.969	11.65
515.168	11.69
515.367	11.68
515.567	11.74
515.766	11.87
515.965	12.09
516.164	12.18
516.364	12.08
516.563	12.17
516.762	12.1
516.961	12.16
517.16	12.29
517.359	12.28
517.559	12.37
517.758	12.33
517.957	12.33
518.156	12.27
518.355	12.26
518.554	12.33
518.753	12.36
518.952	12.35
519.151	12.32
519.35	12.23
519.549	12.28
519.748	12.33
519.947	12.43
520.146	12.46
520.345	12.51
520.544	12.51
520.743	12.62
520.942	12.54
521.141	12.67
521.339	12.71
521.538	12.76
521.737	12.85
521.936	12.86
522.135	12.95
522.333	13.06
522.532	13.05
522.731	13.16
522.93	13.16
523.129	13.25
523.327	13.23
523.526	13.36
523.725	13.53
523.923	13.53
524.122	13.68
524.321	13.69
524.519	13.69
524.718	13.72
524.917	13.78
525.115	13.69
525.314	13.71
525.512	13.74
525.711	13.8
525.909	13.78
526.108	13.86
526.306	13.83
526.505	13.86
526.703	13.9
526.902	13.97
527.1	14
527.299	14.02
527.497	14.05
527.696	14.03
527.894	13.99
528.092	14.01
528.291	14.02
528.489	13.98
528.688	13.96
528.886	13.93
529.084	13.94
529.283	13.9
529.481	13.94
529.679	13.93
529.877	13.96
530.076	14
530.274	13.99
530.472	13.95
530.67	14.06
530.869	14.1
531.067	14.18
531.265	14.25
531.463	14.37
531.661	14.51
531.859	14.62
532.057	14.76
532.255	14.79
532.454	14.86
532.652	14.94
532.85	14.95
533.048	14.96
533.246	15
533.444	15.01
533.642	15.03
533.84	15.02
534.038	14.97
534.236	14.97
534.434	15.06
534.632	15.1
534.83	15.08
535.027	15.16
535.225	15.17
535.423	15.26
535.621	15.3
535.819	15.29
536.017	15.29
536.215	15.39
536.412	15.45
536.61	15.47
536.808	15.48
537.006	15.53
537.203	15.5
537.401	15.63
537.599	15.55
537.797	15.61
537.994	15.71
538.192	15.82
538.39	15.84
538.587	15.94
538.785	15.98
538.983	16.13
539.18	16.31
539.378	16.43
539.575	16.41
539.773	16.52
539.97	16.56
540.168	16.58
540.366	16.56
540.563	16.57
540.761	16.52
540.958	16.53
541.155	16.5
541.353	16.48
541.55	16.44
541.748	16.44
541.945	16.43
542.143	16.41
542.34	16.4
542.537	16.41
542.735	16.41
542.932	16.41
543.129	16.43
543.327	16.42
543.524	16.37
543.721	16.45
543.919	16.46
544.116	16.5
544.313	16.48
544.51	16.51
544.708	16.59
544.905	16.66
545.102	16.76
545.299	16.84
545.496	16.88
545.693	16.97
545.891	16.94
546.088	17.05
546.285	17.09
546.482	17.16
546.679	17.22
546.876	17.22
547.073	17.24
547.27	17.33
547.467	17.3
547.664	17.35
547.861	17.39
548.058	17.56
548.255	17.62
548.452	17.74
548.649	17.86
548.846	17.93
549.043	17.99
549.24	18.19
549.437	18.18
549.633	18.23
549.83	18.29
550.027	18.42
550.224	18.45
550.421	18.57
550.618	18.64
550.814	18.7
551.011	18.78
551.208	18.88
551.405	18.81
551.601	18.85
551.798	18.91
551.995	18.95
552.191	18.96
552.388	18.94
552.585	18.91
552.781	18.84
552.978	18.79
553.175	18.72
553.371	18.76
553.568	18.78
553.764	18.83
553.961	18.84
554.157	18.93
554.354	18.91
554.55	18.95
554.747	18.95
554.943	19.01
555.14	19.03
555.336	19.07
555.533	19.08
555.729	19.11
555.926	19.15
556.122	19.23
556.318	19.26
556.515	19.38
556.711	19.49
556.907	19.53
557.104	19.71
557.3	19.77
557.496	19.91
557.693	20
557.889	20.16
558.085	20.24
558.281	20.26
558.478	20.26
558.674	20.25
558.87	20.12
559.066	20.18
559.262	20.11
559.459	20.27
559.655	20.29
559.851	20.36
560.047	20.37
560.243	20.5
560.439	20.59
560.635	20.54
560.831	20.64
561.027	20.75
561.223	20.73
561.419	20.93
561.615	20.95
561.811	20.98
562.007	20.94
562.203	20.93
562.399	20.8
562.595	20.73
562.791	20.75
562.987	20.68
563.183	20.74
563.379	20.73
563.575	20.56
563.771	20.58
563.966	20.56
564.162	20.57
564.358	20.56
564.554	20.59
564.75	20.64
564.945	20.8
565.141	20.9
565.337	20.91
565.533	20.93
565.728	20.98
565.924	20.88
566.12	20.93
566.315	20.95
566.511	21.08
566.707	21.21
566.902	21.33
567.098	21.29
567.293	21.28
567.489	21.24
567.684	21.28
567.88	21.33
568.076	21.53
568.271	21.54
568.467	21.52
568.662	21.46
568.858	21.43
569.053	21.29
569.248	21.34
569.444	21.4
569.639	21.46
569.835	21.55
570.03	21.62
570.225	21.52
570.421	21.45
570.616	21.61
570.812	21.66
571.007	21.6
571.202	21.66
571.397	21.7
571.593	21.66
571.788	21.7
571.983	21.73
572.178	21.83
572.374	21.9
572.569	22.05
572.764	22.02
572.959	21.98
573.154	22.04
573.35	22.13
573.545	22.24
573.74	22.36
573.935	22.54
574.13	22.49
574.325	22.39
574.52	22.37
574.715	22.36
574.91	22.34
575.105	22.47
575.3	22.46
575.495	22.43
575.69	22.41
575.885	22.48
576.08	22.49
576.275	22.61
576.47	22.58
576.665	22.58
576.86	22.56
577.055	22.63
577.25	22.64
577.444	22.71
577.639	22.76
577.834	22.66
578.029	22.76
578.224	22.71
578.418	22.64
578.613	22.73
578.808	22.81
579.003	22.83
579.197	22.85
579.392	22.93
579.587	23.06
579.781	23.19
579.976	23.26
580.171	23.12
580.365	23.23
580.56	23.31
580.755	23.54
580.949	23.61
581.144	23.72
581.338	23.71
581.533	23.72
581.727	23.64
581.922	23.56
582.116	23.62
582.311	23.64
582.505	23.51
582.7	23.57
582.894	23.35
583.089	23.25
583.283	23.29
583.478	23.37
583.672	23.44
583.866	23.45
584.061	23.49
584.255	23.51
584.449	23.5
584.644	23.55
584.838	23.51
585.032	23.65
585.226	23.7
585.421	23.59
585.615	23.66
585.809	23.57
586.003	23.58
586.198	23.66
586.392	23.85
586.586	23.97
586.78	23.94
586.974	24.04
587.168	24.09
587.363	24.33
587.557	24.52
587.751	24.48
587.945	24.64
588.139	24.73
588.333	24.74
588.527	24.53
588.721	24.48
588.915	24.56
589.109	24.56
589.303	24.62
589.497	24.44
589.691	24.34
589.885	24.28
590.079	24.09
590.273	24.08
590.466	24.13
590.66	24.22
590.854	24.34
591.048	24.43
591.242	24.39
591.436	24.38
591.629	24.37
591.823	24.57
592.017	24.7
592.211	24.92
592.404	24.88
592.598	24.87
592.792	24.86
592.986	24.8
593.179	24.72
593.373	24.74
593.567	24.72
593.76	24.77
593.954	24.59
594.147	24.55
594.341	24.47
594.535	24.5
594.728	24.46
594.922	24.52
595.115	24.55
595.309	24.43
595.502	24.51
595.696	24.54
595.889	24.6
596.083	24.62
596.276	24.53
596.47	24.53
596.663	24.5
596.856	24.66
597.05	24.63
597.243	24.61
597.437	24.71
597.63	24.63
597.823	24.65
598.017	24.76
598.21	24.79
598.403	24.91
598.596	24.89
598.79	24.88
598.983	24.75
599.176	24.87
599.369	25.05
599.563	25.11
599.756	25.13
599.949	25.28
600.142	25.11
600.335	25.23
600.528	25.17
600.722	25.26
600.915	25.38
601.108	25.48
601.301	25.58
601.494	25.33
601.687	25.34
601.88	25.4
602.073	25.28
602.266	25.23
602.459	25.18
602.652	25.21
602.845	25.19
603.038	25.13
603.231	24.98
603.424	24.79
603.617	24.87
603.809	24.85
604.002	24.75
604.195	24.79
604.388	24.85
604.581	24.78
604.774	24.78
604.966	24.79
605.159	24.77
605.352	24.85
605.545	24.87
605.737	24.75
605.93	24.88
606.123	25.13
606.316	25.09
606.508	25.16
606.701	25.34
606.894	25.37
607.086	25.44
607.279	25.62
607.471	25.75
607.664	25.88
607.857	26.03
608.049	26
608.242	26.06
608.434	26.12
608.627	26.21
608.819	26.24
609.012	26.39
609.204	26.51
609.397	26.65
609.589	26.66
609.782	26.67
609.974	26.77
610.166	26.9
610.359	26.94
610.551	26.93
610.743	26.97
610.936	27.05
611.128	27.05
611.32	27.09
611.513	26.95
611.705	27.1
611.897	27.47
612.09	27.49
612.282	27.39
612.474	27.43
612.666	27.58
612.858	27.74
613.051	27.73
613.243	27.84
613.435	27.7
613.627	27.74
613.819	27.56
614.011	27.45
614.203	27.49
614.395	27.59
614.588	27.46
614.78	27.41
614.972	27.19
615.164	27.26
615.356	27.13
615.548	27.26
615.74	27.34
615.932	27.22
616.124	27.04
616.315	26.91
616.507	26.92
616.699	26.97
616.891	26.94
617.083	26.94
617.275	26.87
617.467	26.9
617.659	26.89
617.85	26.79
618.042	26.92
618.234	26.87
618.426	27.2
618.618	27.02
618.809	26.86
619.001	26.9
619.193	27.09
619.384	27.17
619.576	27.24
619.768	27.13
619.959	27.23
620.151	27.2
620.343	27.21
620.534	26.95
620.726	27.13
620.917	27.35
621.109	27.27
621.301	27.1
621.492	26.94
621.684	26.92
621.875	27.03
622.067	26.85
622.258	27.02
622.45	27.07
622.641	27.02
622.832	27.14
623.024	27.06
623.215	27.06
623.407	27.1
623.598	27.18
623.789	27.25
623.981	27.25
624.172	27.49
624.363	27.26
624.555	27.44
624.746	27.52
624.937	27.46
625.129	27.52
625.32	27.56
625.511	27.61
625.702	27.56
625.893	27.53
626.085	27.33
626.276	27.28
626.467	27.37
626.658	27.07
626.849	27.01
627.04	26.92
627.231	26.78
627.422	26.93
627.614	26.81
627.805	26.89
627.996	26.94
628.187	27.06
628.378	27.09
628.569	27.04
628.76	27.19
628.951	27.25
629.142	27.17
629.332	27.18
629.523	26.96
629.714	26.86
629.905	26.85
630.096	26.86
630.287	26.95
630.478	26.83
630.669	26.94
630.859	27.04
631.05	27.24
631.241	27.53
631.432	27.5
631.623	27.63
631.813	27.7
632.004	27.74
632.195	27.59
632.385	27.52
632.576	27.61
632.767	27.7
632.957	27.65
633.148	27.42
633.339	27.38
633.529	27.55
633.72	27.59
633.91	27.82
634.101	27.76
634.292	27.92
634.482	28.06
634.673	28.08
634.863	28.14
635.054	28.03
635.244	28.15
635.435	27.94
635.625	27.92
635.815	27.98
636.006	27.9
636.196	27.98
636.387	27.8
636.577	27.68
636.767	27.74
636.958	27.49
637.148	27.66
637.338	27.73
637.529	27.83
637.719	27.62
637.909	27.47
638.099	27.49
638.29	27.52
638.48	27.68
638.67	27.8
638.86	27.82
639.05	28.05
639.241	28.1
639.431	27.94
639.621	27.98
639.811	28.42
640.001	28.57
640.191	28.7
640.381	28.52
640.571	28.66
640.761	28.68
640.951	28.66
641.141	28.56
641.331	28.49
641.521	28.71
641.711	28.82
641.901	28.46
642.091	28.48
642.281	28.37
642.471	28.6
642.661	28.4
642.851	28.27
643.041	28.2
643.231	28.15
643.42	28.49
643.61	28.47
643.8	28.45
643.99	28.66
644.18	28.5
644.369	28.49
644.559	28.28
644.749	28.33
644.939	28.5
645.128	28.48
645.318	28.54
645.508	28.19
645.697	28.33
645.887	28.39
646.076	28.31
646.266	28.34
646.456	28.51
646.645	29
646.835	29.1
647.024	29.13
647.214	29.27
647.403	29.43
647.593	29.28
647.782	29.19
647.972	29.03
648.161	29.17
648.351	29.2
648.54	29.16
648.73	28.74
648.919	28.74
649.108	28.63
649.298	28.57
649.487	28.3
649.677	28.75
649.866	28.83
650.055	29.22
650.244	29.05
650.434	29.04
650.623	29.23
650.812	29.32
651.002	29.28
651.191	29.47
651.38	29.49
651.569	29.64
651.758	29.38
651.947	29.31
652.137	29.21
652.326	29.38
652.515	29.64
652.704	29.54
652.893	29.61
653.082	29.71
653.271	29.79
653.46	29.71
653.649	29.84
653.838	29.68
654.027	29.73
654.216	29.63
654.405	29.53
654.594	29.58
654.783	29.38
654.972	29.51
655.161	29.75
655.35	29.6
655.539	29.86
655.728	30.02
655.916	30.11
656.105	30.22
656.294	30.11
656.483	30.18
656.672	29.88
656.86	30.04
657.049	29.88
657.238	29.72
657.427	29.69
657.615	29.81
657.804	29.59
657.993	29.65
658.181	29.63
658.37	29.77
658.559	29.7
658.747	29.69
658.936	29.73
659.125	29.27
659.313	29.19
659.502	29.2
659.69	28.91
659.879	28.99
660.067	28.93
660.256	28.77
660.444	28.88
660.633	28.91
660.821	29.01
661.01	28.94
661.198	29.25
661.387	29.24
661.575	29.25
661.763	29.43
661.952	29.55
662.14	29.79
662.328	29.84
662.517	29.67
662.705	29.72
662.893	29.64
663.082	30.11
663.27	30.44
663.458	30.47
663.646	30.54
663.834	30.56
664.023	30.42
664.211	30.33
664.399	30.57
664.587	30.53
664.775	30.56
664.963	30.73
665.152	30.39
665.34	30.41
665.528	30.55
665.716	30.77
665.904	30.67
666.092	30.96
666.28	31.31
666.468	31.34
666.656	31.75
666.844	32.04
667.032	31.91
667.22	31.88
667.408	31.89
667.596	31.84
667.784	31.5
667.971	31.67
668.159	31.47
668.347	31.02
668.535	30.81
668.723	30.59
668.911	30.46
669.098	30.63
669.286	30.49
669.474	30.66
669.662	30.62
669.849	31
670.037	30.89
670.225	30.82
670.413	30.98
670.6	31.09
670.788	31.2
670.976	30.98
671.163	31.11
671.351	31.36
671.538	31.26
671.726	31.41
671.913	31.06
672.101	30.81
672.289	30.76
672.476	30.73
672.664	30.73
672.851	30.75
673.039	30.72
673.226	30.8
673.413	30.45
673.601	30.51
673.788	30.87
673.976	31
674.163	31.12
674.35	31.3
674.538	31.4
674.725	31.3
674.912	31.05
675.1	31.22
675.287	31.19
675.474	31.44
675.662	31.16
675.849	30.77
676.036	31.05
676.223	31.34
676.411	31.38
676.598	31.16
676.785	31.12
676.972	31.31
677.159	31.39
677.346	31.15
677.533	31.02
677.721	31.25
677.908	31.21
678.095	31.03
678.282	30.75
678.469	30.58
678.656	30.5
678.843	30.57
679.03	30.42
679.217	30.49
679.404	30.51
679.591	30.51
679.778	30.4
679.964	30.55
680.151	30.49
680.338	30.6
680.525	30.66
680.712	30.95
680.899	30.81
681.086	30.91
681.272	30.89
681.459	31.24
681.646	31.23
681.833	31.51
682.02	31.52
682.206	31.56
682.393	31.9
682.58	31.92
682.766	31.86
682.953	32.29
683.14	32.57
683.326	32.67
683.513	32.68
683.7	32.69
683.886	32.51
684.073	32.45
684.259	32.69
684.446	32.42
684.632	32.66
684.819	32.71
685.005	32.7
685.192	32.63
685.378	32.7
685.565	32.11
685.751	32.2
685.938	32.32
686.124	32.27
686.31	32.24
686.497	32.4
686.683	32.17
686.87	32.52
687.056	32.15
687.242	31.76
687.429	31.66
687.615	31.76
687.801	32.01
687.987	31.97
688.174	31.96
688.36	31.71
688.546	31.73
688.732	31.9
688.918	31.49
689.105	31.78
689.291	31.94
689.477	32.25
689.663	32.68
689.849	32.9
690.035	32.91
690.221	33.16
690.407	33.47
690.593	33.29
690.779	33.41
690.965	33.33
691.151	33.36
691.337	33.76
691.523	33.57
691.709	33.38
691.895	33.22
692.081	33.03
692.267	33.02
692.453	33.07
692.639	33.25
692.825	33.22
693.011	33.6
693.196	33.4
693.382	33.5
693.568	33.71
693.754	33.99
693.94	34.04
694.125	34.29
694.311	34.03
694.497	33.71
694.682	33.83
694.868	33.69
695.054	33.42
695.239	33.62
695.425	33.27
695.611	33.09
695.796	33.03
695.982	32.92
696.168	32.92
696.353	33.27
696.539	33.25
696.724	33.2
696.91	33.05
697.095	33.27
697.281	33.29
697.466	33
697.652	33.01
697.837	32.73
698.023	32.76
698.208	32.74
698.393	32.62
698.579	32.8
698.764	32.5
698.949	32.49
699.135	32.67
699.32	32.22
699.505	32.65
699.691	32.41
699.876	32.57
700.061	32.69
700.246	32.73
700.432	32.56
700.617	32.25
700.802	32.63
700.987	32.84
701.172	32.82
701.358	33.53
701.543	33.28
701.728	33.28
701.913	33.44
702.098	33.25
702.283	33.55
702.468	33.82
702.653	34.46
702.838	34.51
703.023	34.79
703.208	34.46
703.393	34.41
703.578	34.74
703.763	35.2
703.948	34.94
704.133	35.17
704.318	34.99
704.503	35.26
704.688	34.71
704.873	34.74
705.057	34.81
705.242	35.01
705.427	35.24
705.612	35.39
705.797	35.36
705.981	35.59
706.166	35.52
706.351	35.46
706.536	35.19
706.72	35.64
706.905	35.67
707.09	35.57
707.274	35.66
707.459	35.7
707.644	35.25
707.828	35.45
708.013	35.6
708.197	35.84
708.382	35.99
708.567	36.27
708.751	36.27
708.936	36.17
709.12	36.08
709.305	36.18
709.489	36.27
709.673	36.43
709.858	36.36
710.042	36.21
710.227	35.84
710.411	36.06
710.596	35.93
710.78	35.9
710.964	36.06
711.149	36.25
711.333	35.79
711.517	35.54
711.702	35.42
711.886	35.31
712.07	35.35
712.254	35.55
712.438	35.31
712.623	35.2
712.807	35.33
712.991	35.62
713.175	35.47
713.359	35.66
713.544	35.51
713.728	35.36
713.912	35.09
714.096	34.92
714.28	34.71
714.464	34.78
714.648	34.7
714.832	34.86
715.016	34.57
715.2	34.44
715.384	34.51
715.568	34.79
715.752	35.06
715.936	35.22
716.12	35.59
716.304	36.02
716.488	36.03
716.671	36.38
716.855	35.9
717.039	36.1
717.223	36.08
717.407	35.98
717.59	36.13
717.774	35.99
717.958	36.2
718.142	35.96
718.325	35.92
718.509	35.64
718.693	35.52
718.877	35.57
719.06	35.56
719.244	35.98
719.428	36.16
719.611	36.4
719.795	36.45
719.978	36.97
720.162	37.73
720.345	37.59
720.529	38.23
720.713	38.16
720.896	38.22
721.08	38.32
721.263	38.04
721.446	38.37
721.63	37.92
721.813	38.49
721.997	37.93
722.18	37.18
722.364	36.84
722.547	36.52
722.73	37
722.914	37.05
723.097	36.75
723.28	37.11
723.464	36.65
723.647	36.68
723.83	36.64
724.013	37.07
724.197	37.41
724.38	38.02
724.563	37.99
724.746	37.4
724.929	37.64
725.112	38.02
725.296	37.51
725.479	37.49
725.662	37.55
725.845	37.23
726.028	36.63
726.211	36.27
726.394	36.63
726.577	36.52
726.76	36.6
726.943	36.52
727.126	35.94
727.309	35.82
727.492	36.06
727.675	35.71
727.858	35.66
728.041	36.09
728.224	36.19
728.407	35.43
728.589	35.6
728.772	35.81
728.955	35.68
729.138	35.97
729.321	36.38
729.503	36.49
729.686	36.73
729.869	37.12
730.052	36.87
730.234	36.91
730.417	37.3
730.6	36.95
730.782	37.19
730.965	37.72
731.148	38.24
731.33	38.27
731.513	38.4
731.695	38.45
731.878	38.25
732.061	38.44
732.243	38.81
732.426	38.45
732.608	38.8
732.791	38.55
732.973	38.34
733.156	38.14
733.338	37.93
733.52	37.75
733.703	37.67
733.885	37.96
734.068	37.68
734.25	37.75
734.432	37.72
734.615	37.47
734.797	37.54
734.979	37.68
735.162	37.06
735.344	37.05
735.526	36.96
735.708	36.83
735.891	36.45
736.073	36.63
736.255	36.53
736.437	36.73
736.619	36.98
736.802	37.42
736.984	37.32
737.166	37.66
737.348	37.6
737.53	38.09
737.712	38.77
737.894	39.19
738.076	38.86
738.258	38.54
738.44	38.7
738.622	38.75
738.804	38.64
738.986	38.94
739.168	38.83
739.35	39.1
739.532	38.6
739.714	38.21
739.896	37.27
740.078	38.02
740.259	38.11
740.441	37.67
740.623	37.83
740.805	37.2
740.987	37.26
741.168	37.17
741.35	37.79
741.532	37.83
741.714	37.84
741.895	38.38
742.077	38.37
742.259	38.38
742.44	38.68
742.622	38.82
742.804	39.55
742.985	39.37
743.167	39.98
743.348	39.77
743.53	39.94
743.711	40.15
743.893	40.98
744.075	40.65
744.256	40.95
744.438	41.57
744.619	41.15
744.8	41.29
744.982	41.05
745.163	40.91
745.345	40.9
745.526	41.37
745.707	41.49
745.889	40.82
746.07	41.27
746.252	40.53
746.433	40.51
746.614	41.49
746.795	42.03
746.977	42.25
747.158	42.48
747.339	42.89
747.52	42.55
747.702	42.73
747.883	42.93
748.064	42.62
748.245	42.74
748.426	42.67
748.607	41.72
748.788	40.63
748.97	40.29
749.151	40.44
749.332	40.03
749.513	40.31
749.694	40.37
749.875	40.77
750.056	40.86
750.237	40.72
750.418	41.27
750.599	41.28
750.78	41.24
750.96	41.2
751.141	40.54
751.322	40.89
751.503	40.37
751.684	40.42
751.865	40.29
752.046	39.94
752.226	40.42
752.407	39.8
752.588	39.59
752.769	39.81
752.949	39.92
753.13	39.89
753.311	38.89
753.492	38.85
753.672	38.27
753.853	37.68
754.034	38.16
754.214	38.78
754.395	38.59
754.575	39.52
754.756	39.89
754.937	40.22
755.117	40.55
755.298	41.11
755.478	41.61
755.659	41.53
755.839	42.3
756.02	42.94
756.2	42.15
756.381	41.97
756.561	41.9
756.741	41.49
756.922	41.05
757.102	41.39
757.283	41.08
757.463	40.96
757.643	41.77
757.823	41.47
758.004	41
758.184	41.02
758.364	41.78
758.545	41.38
758.725	41.16
758.905	41.12
759.085	40.76
759.265	41.33
759.446	41.37
759.626	40.8
759.806	40.49
759.986	40.3
760.166	39.73
760.346	39.05
760.526	40.2
760.706	40.6
760.886	41
761.066	40.52
761.246	39.85
761.426	39.16
761.606	38.69
761.786	38.43
761.966	38.35
762.146	39
762.326	39.11
762.506	37.95
762.686	37.82
762.866	37.84
763.046	38.04
763.225	37.91
763.405	37.94
763.585	37.95
763.765	38.03
763.945	37.79
764.124	38.09
764.304	38.36
764.484	38.45
764.664	38.36
764.843	38.31
765.023	38.56
765.203	39.17
765.382	39.28
765.562	39.68
765.741	40.04
765.921	40.66
766.101	40.24
766.28	39.92
766.46	40.38
766.639	40.69
766.819	41.07
766.998	41.2
767.178	41.33
767.357	41.75
767.537	41.49
767.716	41.3
767.896	41.89
768.075	41.95
768.254	41.98
768.434	42.16
768.613	41.82
768.792	42.27
768.972	42.89
769.151	43.35
769.33	43.38
769.51	44.44
769.689	44.71
769.868	44.45
770.047	45.56
770.226	46.06
770.406	45.33
770.585	45.32
770.764	44.77
770.943	43.7
771.122	42.85
771.301	42.72
771.48	42.57
771.66	43.48
771.839	43.29
772.018	42.52
772.197	43.75
772.376	44.42
772.555	45.85
772.734	45.95
772.913	45.84
773.092	46.48
773.271	46.97
773.449	46.75
773.628	46.96
773.807	46.85
773.986	46.5
774.165	44.91
774.344	45.42
774.523	43.32
774.701	43.65
774.88	43.92
775.059	43.95
775.238	44.05
775.417	44.2
775.595	43.88
775.774	44.28
775.953	45.17
776.131	45.35
776.31	44.51
776.489	45.7
776.667	45.57
776.846	45.94
777.025	45.27
777.203	45.25
777.382	45.72
777.56	45.36
777.739	45.3
777.917	45.34
778.096	44.89
778.274	45.61
778.453	46.03
778.631	45.33
778.81	44.84
778.988	45.66
779.166	44.87
779.345	44.8
779.523	44.44
779.702	45.36
779.88	45.62
780.058	46.13
780.237	45.37
780.415	46.31
780.593	46.11
780.771	47.66
780.95	46.7
781.128	46.98
781.306	46.87
781.484	47.39
781.662	46.45
781.841	45.94
782.019	46.94
782.197	48.24
782.375	47.51
782.553	47.69
782.731	47.36
782.909	47.4
783.087	48.77
783.265	48.5
783.443	48.66
783.621	48.97
783.799	48.91
783.977	47.7
784.155	47.3
784.333	47.06
784.511	47.56
784.689	46.49
784.867	47.92
785.045	47.42
785.223	47.99
785.4	47.21
785.578	47.73
785.756	47.9
785.934	48.45
786.112	48.53
786.289	48.48
786.467	48.62
786.645	49.63
786.823	49.01
787	49.21
787.178	48.56
787.356	48.92
787.533	47.54
787.711	47.22
787.889	46.06
788.066	45.46
788.244	45.1
788.421	45
788.599	44.63
788.776	44.86
788.954	43.85
789.131	44.14
789.309	43.93
789.486	44.6
789.664	45.79
789.841	46.75
790.019	46.47
790.196	47.17
790.373	46.26
790.551	46.37
790.728	46.23
790.906	47.24
791.083	46.41
791.26	45.77
791.437	45.54
791.615	43.99
791.792	43.82
791.969	43.49
792.146	43.3
792.324	45.11
792.501	45.93
792.678	45.89
792.855	46.43
793.032	46.81
793.209	48.3
793.387	48.14
793.564	48.81
793.741	48.02
793.918	50.53
794.095	49.88
794.272	49.11
794.449	47.93
794.626	48.3
794.803	46.99
794.98	47.34
795.157	46.5
795.334	47.92
795.511	47.77
795.688	49.5
795.864	48.08
796.041	47.87
796.218	49.2
796.395	49.98
796.572	49.09
796.749	49.33
796.925	48.9
797.102	49.37
797.279	47.99
797.456	48.2
797.632	46.87
797.809	46.57
797.986	47.3
798.162	45.99
798.339	45.29
798.516	46.02
798.692	47.06
798.869	47.21
799.046	47.84
799.222	48.17
799.399	47.96
799.575	48.35
799.752	49.41
799.928	50.3
800.105	50.43
800.281	50.55
800.458	49.32
800.634	49.54
800.811	49.92
800.987	50.13
801.163	50.92
801.34	51.68
801.516	52.34
801.692	51.94
801.869	50.56
802.045	50.11
802.221	50.86
802.398	52.89
802.574	52.39
802.75	52.46
802.926	51.45
803.103	52.12
803.279	50.61
803.455	50.53
803.631	50.63
803.807	52.25
803.983	54.01
804.16	54.15
804.336	54.17
804.512	54.19
804.688	54
804.864	54.53
805.04	52.53
805.216	53.09
805.392	53.54
805.568	55.06
805.744	53.45
805.92	53.31
806.096	53.43
806.272	53.5
806.448	54.24
806.623	54.67
806.799	54.47
806.975	57
807.151	57.69
807.327	55.97
807.503	54.39
807.678	55.37
807.854	54.4
808.03	54.1
808.206	53.12
808.381	51.31
808.557	51.78
808.733	51.34
808.908	49.92
809.084	49.17
809.26	49.65
809.435	49.12
809.611	47.86
809.787	48.47
809.962	48.15
810.138	48.92
810.313	49.99
810.489	50.6
810.664	50.17
810.84	49.62
811.015	51.43
811.191	52.93
811.366	52.98
811.542	54.63
811.717	53.64
811.892	55.2
812.068	56.14
812.243	57.58
812.419	57.96
812.594	59.06
812.769	59.87
812.944	58
813.12	56.74
813.295	56
813.47	54.92
813.645	55.36
813.821	54.91
813.996	53.05
814.171	52.4
814.346	50.71
814.521	51.2
814.697	50.87
814.872	50.95
815.047	51.27
815.222	53.23
815.397	53.53
815.572	54.03
815.747	53.02
815.922	53.31
816.097	53.41
816.272	54.43
816.447	53.76
816.622	54.08
816.797	54.84
816.972	55.34
817.147	53.71
817.322	53.73
817.496	52.26
817.671	52.88
817.846	52.68
818.021	51.25
818.196	50.86
818.371	50.85
818.545	49.63
818.72	49.86
818.895	49.04
819.069	49.43
819.244	48.47
819.419	47.63
819.594	46.66
819.768	46.06
819.943	44.97
820.117	43.24
820.292	41.81
820.467	41.76
820.641	40.17
820.816	39.7
820.99	38.51
821.165	37.86
821.339	37.61
821.514	36.84
821.688	36.08
821.863	35.71
822.037	35.51
822.212	35.29
822.386	34.89
822.56	34.72
822.735	34.56
822.909	34.46
823.084	34.39
823.258	34.43
823.432	34.63
823.606	34.69
823.781	34.66
823.955	34.76
824.129	34.74
824.303	34.86
824.478	34.58
824.652	34.53
824.826	34.78
825	35.13
825.174	35.2
825.348	35.6
825.523	35.89
825.697	37.05
825.871	37.28
826.045	37.71
826.219	37.9
826.393	38.96
826.567	39.14
826.741	39.45
826.915	39.27
827.089	39.37
827.263	38.92
827.437	38.6
827.611	38.27
827.784	38.24
827.958	38.31
828.132	38.82
828.306	38.71
828.48	38.68
828.654	39.02
828.827	39.66
829.001	39.65
829.175	40.29
829.349	42.13
829.522	42.56
829.696	43.7
829.87	45.45
830.044	46.14
830.217	46.59
830.391	46.58
830.565	46.29
830.738	47.62
830.912	47
831.085	47.46
831.259	47.97
831.432	47.31
831.606	47.74
831.779	45.97
831.953	44.12
832.126	44.65
832.3	45.04
832.473	44.8
832.647	43.05
832.82	42.95
832.994	42.33
833.167	40.95
833.34	41.96
833.514	40.86
833.687	40.71
833.86	41.26
834.034	40.54
834.207	41.46
834.38	41.74
834.553	42.17
834.727	43
834.9	43.12
835.073	42.99
835.246	43.38
835.419	44.32
835.593	45.21
835.766	46.03
835.939	47.31
836.112	47.32
836.285	48.44
836.458	48.3
836.631	49.75
836.804	50.85
836.977	52.11
837.15	52.47
837.323	53.1
837.496	54.59
837.669	55.61
837.842	55.26
838.015	56.21
838.188	55.8
838.361	56.74
838.533	57.08
838.706	57.68
838.879	58.85
839.052	59.62
839.225	58.97
839.398	56.91
839.57	57.14
839.743	58.58
839.916	59.21
840.088	61.45
840.261	62.17
840.434	62.3
840.607	60.85
840.779	60.56
840.952	59.6
841.124	59.65
841.297	61.27
841.47	60.68
841.642	60.52
841.815	58.6
841.987	58.59
842.16	60.96
842.332	62.04
842.505	63.26
842.677	65.84
842.85	67.12
843.022	67.57
843.194	69.24
843.367	70.91
843.539	74.51
843.712	76.48
843.884	73.82
844.056	75.33
844.229	74.35
844.401	77.43
844.573	76.92
844.745	77.71
844.918	79.66
845.09	78.49
845.262	77.27
845.434	74.92
845.606	71.47
845.779	73.02
845.951	70.34
846.123	71.2
846.295	64.75
846.467	60.49
846.639	61.01
846.811	60.64
846.983	59.94
847.155	60.33
847.327	59.08
847.499	65.48
847.671	68.55
847.843	68.92
848.015	68.81
848.187	73.24
848.359	80.19
848.531	78.7
848.703	81.12
848.875	84.93
849.047	84.54
849.218	89.94
849.39	90.75
849.562	89.62
849.734	85.51
849.905	81.84
850.077	83.85
850.249	83.14
850.421	84.77
850.592	83.44
850.764	79.1
850.936	81.22
851.107	82.83
851.279	78.02
851.451	81.07
851.622	84.65
851.794	90.23
851.965	86.88
852.137	86.47
852.308	86.04
852.48	89.66
852.651	91.65
852.823	93.76
852.994	88.86
853.166	93.61
853.337	92.03
853.509	91.44
853.68	90.76
853.851	88.89
854.023	85.39
854.194	84.64
854.365	80.19
854.537	80.16
854.708	80.12
854.879	81.39
855.05	80.93
855.222	82.13
855.393	83.24
855.564	82.63
855.735	83.61
855.906	87.19
856.078	91.55
856.249	96.41
856.42	98.39
856.591	98.09
856.762	98.78
856.933	100.3
857.104	97.62
857.275	99
857.446	97.6
857.617	102.64
857.788	103.72
857.959	97.47
858.13	98.24
858.301	102.57
858.472	100.83
858.643	103.09
858.814	99.19
858.985	101.82
859.155	102.42
859.326	108.04
859.497	106.23
859.668	102.58
859.839	106.1
860.009	100.03
860.18	96.49
860.351	98.92
860.522	95.78
860.692	96.17
860.863	96.33
861.034	95.6
861.204	97.98
861.375	97.23
861.546	99.51
861.716	96.03
861.887	104.54
862.057	107.27
862.228	103.4
862.398	100.97
862.569	100.76
862.739	100.86
862.91	98.96
863.08	94.43
863.251	96.49
863.421	98.31
863.592	104.13
863.762	95.37
863.932	92.3
864.103	93.82
864.273	92.13
864.443	89.02
864.614	86.84
864.784	94.59
864.954	93.33
865.125	91.03
865.295	92.83
865.465	90.23
865.635	93.57
865.805	94.13
865.976	98.64
866.146	98.7
866.316	100.94
866.486	96.48
866.656	97.91
866.826	99.84
866.996	100.11
867.166	100.58
867.336	100.72
867.506	101.2
867.676	99.64
867.846	98.82
868.016	100.44
868.186	104.99
868.356	111.14
868.526	101.47
868.696	105.14
868.866	104.32
869.036	102.38
869.206	106.27
869.376	106.48
869.545	109.41
869.715	115.68
869.885	120.41
870.055	117.54
870.224	117.97
870.394	119.63
870.564	116.47
870.734	113.7
870.903	109.22
871.073	105.11
871.243	103.66
871.412	107.33
871.582	100.61
871.751	99.86
871.921	98.75
872.091	100.53
872.26	101.6
872.43	96.92
872.599	93.95
872.769	93.37
872.938	90.34
873.108	93.88
873.277	87.94
873.446	87.72
873.616	84.44
873.785	81.42
873.955	76
874.124	77.3
874.293	77.43
874.463	85.68
874.632	87.74
874.801	92.22
874.971	88.81
875.14	89.4
875.309	88.78
875.478	90.53
875.647	93.74
875.817	95.56
875.986	94.25
876.155	96.65
876.324	95.35
876.493	99.48
876.662	96.35
876.831	89.77
877	90.72
877.17	93.49
877.339	96.57
877.508	96.51
877.677	96.88
877.846	97.56
878.015	95.66
878.184	94.25
878.352	90.14
878.521	91.4
878.69	96.22
878.859	91.46
879.028	88
879.197	80.74
879.366	75.88
879.534	74.96
879.703	67.66
879.872	63.63
880.041	59.43
880.21	56.62
880.378	53.16
880.547	51.41
880.716	49.23
880.884	47.76
881.053	45.96
881.222	44.13
881.39	42.81
881.559	41.97
881.727	40.94
881.896	40.49
882.065	40.24
882.233	39.93
882.402	39.07
882.57	38.82
882.739	37.8
882.907	37.9
883.076	38.41
883.244	37.58
883.412	38.52
883.581	38.78
883.749	39.36
883.918	39.72
884.086	40.04
884.254	41.8
884.423	42.98
884.591	44.44
884.759	45.31
884.927	46.48
885.096	48.95
885.264	50.26
885.432	54.09
885.6	53.99
885.769	54.88
885.937	58.36
886.105	57.12
886.273	59.48
886.441	60.85
886.609	64.49
886.777	66.19
886.945	67.85
887.113	69
887.281	64.49
887.449	70.63
887.617	71.72
887.785	71
887.953	73.91
888.121	73.94
888.289	76.1
888.457	78.05
888.625	78.15
888.793	81.08
888.961	82.99
889.129	87.7
889.296	88.92
889.464	92.56
889.632	93.74
889.8	97.33
889.967	100.26
890.135	101.19
