Data from 2938768__Reflection_03.txt Node
Date: Fri Mar 13 15:39:33 EDT 2015
User: robert
Spectrometer: USB4E03002
Autoset integration time: false
Trigger mode: 4
Integration Time (sec): 1.000000E-1
Scans to average: 10
Electric dark correction enabled: false
Nonlinearity correction enabled: false
Boxcar width: 5
Stray light correction enabled: false
XAxis mode: Wavelengths
Stop averaging: false
Number of Pixels in Spectrum: 3648
>>>>>Begin Spectral Data<<<<<
177.575	-193.33
177.794	-1133.33
178.014	-1153.85
178.233	-1169.57
178.452	-6050
178.672	-124.32
178.891	-133.87
179.11	-35.29
179.33	842.86
179.549	1280
179.768	83.05
179.987	-19.63
180.207	-32.52
180.426	23.75
180.645	19.76
180.864	9.47
181.084	11.41
181.303	-22.04
181.522	-17
181.741	3.17
181.96	17.34
182.179	-7.1
182.398	17.45
182.618	-24.06
182.837	-26.33
183.056	-43.64
183.275	13.03
183.494	1.36
183.713	18.37
183.932	-17.32
184.151	-17.65
184.37	-8.03
184.589	8.51
184.808	6.87
185.027	25.34
185.246	17.08
185.465	4.75
185.684	-14.56
185.903	-4.21
186.122	2.16
186.341	19.56
186.56	22.55
186.779	27.78
186.998	17.75
187.216	0.64
187.435	-1.04
187.654	-3.28
187.873	23.72
188.092	80.92
188.311	51.98
188.53	71.51
188.748	48.02
188.967	16.76
189.186	-91.61
189.405	-213.92
189.623	-5.08
189.842	-29.1
190.061	-47.44
190.28	-148.83
190.498	-345.18
190.717	-250.24
190.936	-424.5
191.154	-282.57
191.373	-155.97
191.592	-52.19
191.81	-28.5
192.029	-19.94
192.248	13.24
192.466	10.88
192.685	32.08
192.904	40.85
193.122	14.78
193.341	23.27
193.559	9.87
193.778	-1
193.996	3.37
194.215	-7.49
194.433	-42.5
194.652	-163.79
194.87	-178.9
195.089	-402.44
195.307	-313.66
195.526	-70.56
195.744	-122.65
195.963	-103.05
196.181	-104.05
196.399	-112.23
196.618	-164.13
196.836	-220.18
197.055	-304.23
197.273	-157.14
197.491	-156.95
197.71	-147.09
197.928	-127.62
198.146	-61.25
198.365	-56.54
198.583	-42.5
198.801	-26.77
199.019	11.99
199.238	14.03
199.456	42.68
199.674	49.35
199.892	52.55
200.111	29.69
200.329	32.04
200.547	21.36
200.765	8.3
200.983	2.59
201.202	-8.99
201.42	-13.86
201.638	-24.68
201.856	-19.43
202.074	-16.16
202.292	-20.56
202.51	-15.3
202.728	-4.08
202.946	11.1
203.165	16.14
203.383	6.44
203.601	7.45
203.819	7.16
204.037	11.96
204.255	-1.61
204.473	14.31
204.691	13.94
204.909	41.97
205.127	24.07
205.345	8.86
205.562	21.04
205.78	32.09
205.998	40.68
206.216	34.49
206.434	38.48
206.652	31.81
206.87	31.89
207.088	22.56
207.306	4.15
207.523	14.61
207.741	4.87
207.959	3.85
208.177	-7.47
208.395	-46.5
208.612	-25.88
208.83	-98.62
209.048	-230.41
209.266	-550.59
209.483	-191.84
209.701	-167.07
209.919	-272.14
210.136	-132.52
210.354	-145.48
210.572	-87.31
210.79	-76.43
211.007	-97.44
211.225	-47.5
211.442	-49.73
211.66	-31.83
211.878	-21.08
212.095	-21.82
212.313	4.34
212.53	8.03
212.748	7.14
212.966	12.18
213.183	21.8
213.401	25.48
213.618	18.37
213.836	11.48
214.053	1.53
214.271	-3.32
214.488	0.71
214.705	-1.01
214.923	-3.45
215.14	1.75
215.358	-4.02
215.575	-0.4
215.793	-2.54
216.01	-1.83
216.227	6.42
216.445	5.21
216.662	-1.08
216.879	-1.83
217.097	-8.15
217.314	-13.52
217.531	-10.01
217.749	-13.62
217.966	-20.52
218.183	-23.83
218.4	-22.91
218.618	-19.43
218.835	-17.92
219.052	-21.2
219.269	-16.65
219.487	-24
219.704	-23.12
219.921	-33.28
220.138	-28.36
220.355	-30.13
220.572	-32.74
220.79	-33.31
221.007	-47
221.224	-42.76
221.441	-24.5
221.658	-20.57
221.875	-13.24
222.092	-6.2
222.309	4.16
222.526	6.38
222.743	5.01
222.96	-1.46
223.177	-2.51
223.394	6.13
223.611	11.95
223.828	11.69
224.045	6.3
224.262	0.1
224.479	-0.91
224.696	-6.11
224.913	-6.69
225.13	-7.71
225.347	1.7
225.564	0.76
225.781	-3.11
225.997	-9.91
226.214	-10.6
226.431	-6.92
226.648	-3.02
226.865	-2.43
227.082	-3.34
227.298	-3.19
227.515	-2.26
227.732	-3.18
227.949	-3.01
228.165	-2.17
228.382	-0.29
228.599	0.25
228.816	0.64
229.032	-0.24
229.249	-0.47
229.466	-0.11
229.682	0.31
229.899	0.94
230.116	0.92
230.332	1.26
230.549	0.78
230.765	0.09
230.982	-0.14
231.199	-1.67
231.415	-1.66
231.632	-2.49
231.848	-2.84
232.065	-3.11
232.281	-4.19
232.498	-4.83
232.714	-4.93
232.931	-4.3
233.147	-2.79
233.364	-2.87
233.58	-1.86
233.797	-1.63
234.013	-0.8
234.23	-1.07
234.446	-1.88
234.662	-2.43
234.879	-0.78
235.095	-1.2
235.312	-2.25
235.528	-3.12
235.744	-4.39
235.961	-4.74
236.177	-5.08
236.393	-5.96
236.61	-7.38
236.826	-5.95
237.042	-6.56
237.258	-8.63
237.475	-8.91
237.691	-7.16
237.907	-7
238.123	-4.18
238.339	-3.89
238.556	-4.14
238.772	-2.56
238.988	-0.25
239.204	-1.51
239.42	0.56
239.636	1.45
239.853	1.63
240.069	1.04
240.285	0.72
240.501	-0.54
240.717	-0.04
240.933	0.36
241.149	-0.1
241.365	-0.26
241.581	-0.73
241.797	-0.92
242.013	-1.29
242.229	-1.29
242.445	-1.37
242.661	-0.72
242.877	-0.15
243.093	-0.6
243.309	-0.6
243.525	-0.61
243.741	-0.8
243.957	-0.74
244.173	-0.98
244.388	-0.32
244.604	0.54
244.82	0.87
245.036	-0.24
245.252	-0.47
245.468	-0.25
245.683	-0.01
245.899	0.28
246.115	0.06
246.331	0.33
246.547	0.64
246.762	0.62
246.978	0.4
247.194	0.35
247.409	0.47
247.625	0.54
247.841	0.62
248.057	0.51
248.272	0.28
248.488	0.12
248.703	0.06
248.919	-0.18
249.135	-0.57
249.35	-0.5
249.566	-0.9
249.782	-0.25
249.997	-0.11
250.213	0.24
250.428	0.71
250.644	0.68
250.859	1.17
251.075	1.32
251.29	1.33
251.506	1.34
251.721	1.17
251.937	1.42
252.152	1.01
252.368	0.89
252.583	0.77
252.798	0.47
253.014	0.81
253.229	1.04
253.445	1.37
253.66	1.18
253.875	1.43
254.091	0.74
254.306	0.96
254.521	-0.09
254.737	-1.48
254.952	-1.48
255.167	-1.05
255.383	-1.02
255.598	-2.06
255.813	-3.26
256.028	-3.67
256.244	-3.66
256.459	-3.55
256.674	-3.31
256.889	-2.25
257.104	-1.1
257.32	-1.09
257.535	-1.44
257.75	-1.15
257.965	-0.89
258.18	0.1
258.395	0.4
258.61	0.73
258.826	1.27
259.041	1.11
259.256	0.85
259.471	0.61
259.686	0.7
259.901	0.85
260.116	0.46
260.331	0.82
260.546	0.88
260.761	0.96
260.976	0.76
261.191	0.7
261.406	0.69
261.621	0.84
261.836	1.25
262.05	0.73
262.265	0.47
262.48	1.22
262.695	0.97
262.91	0.49
263.125	0.44
263.34	0.4
263.555	-0.06
263.769	0.45
263.984	0.2
264.199	-0.19
264.414	-0.17
264.629	-0.02
264.843	-0.31
265.058	-0.4
265.273	-0.51
265.488	-1.03
265.702	-1.13
265.917	-0.97
266.132	-1.37
266.346	-1.57
266.561	-1.61
266.776	-1.5
266.99	-1.7
267.205	-1.91
267.42	-1.69
267.634	-1.72
267.849	-1.88
268.063	-2.01
268.278	-1.61
268.492	-1.7
268.707	-1.26
268.922	-1.38
269.136	-1.48
269.351	-1.42
269.565	-1.33
269.78	-1.65
269.994	-1.61
270.209	-1.23
270.423	-0.69
270.637	-0.94
270.852	-0.8
271.066	-1.06
271.281	-0.65
271.495	-0.24
271.709	-0.2
271.924	-0.03
272.138	0.01
272.353	0.02
272.567	0.15
272.781	0.03
272.996	0.28
273.21	0.33
273.424	0.54
273.638	0.24
273.853	0.46
274.067	0.67
274.281	0.87
274.495	0.97
274.71	0.83
274.924	0.7
275.138	0.71
275.352	0.36
275.566	0.9
275.781	1.01
275.995	1.2
276.209	0.88
276.423	0.85
276.637	0.72
276.851	0.75
277.065	1.14
277.279	1.37
277.493	1.32
277.707	1.31
277.921	0.52
278.135	0.31
278.349	0.21
278.563	0.13
278.777	0.16
278.991	0.21
279.205	-0.24
279.419	-0.16
279.633	-0.35
279.847	-0.11
280.061	0.05
280.275	0.3
280.489	0.03
280.703	0.06
280.917	0
281.131	0.11
281.344	-0.35
281.558	-0.36
281.772	-0.71
281.986	-0.67
282.2	-0.67
282.414	-0.91
282.627	-0.88
282.841	-0.53
283.055	-0.15
283.269	-0.12
283.482	-0.08
283.696	0.2
283.91	0.64
284.123	0.99
284.337	1.02
284.551	0.78
284.764	0.68
284.978	0.48
285.192	0.46
285.405	0.18
285.619	0.35
285.833	0.19
286.046	0.19
286.26	0.14
286.473	-0.05
286.687	-0.34
286.9	-0.3
287.114	-0.08
287.327	0.31
287.541	0.22
287.754	0.32
287.968	0.09
288.181	0.04
288.395	0.29
288.608	0.4
288.822	0.07
289.035	0.33
289.248	0.22
289.462	0.34
289.675	0.05
289.889	0.04
290.102	-0.06
290.315	-0.19
290.529	-0.01
290.742	-0.23
290.955	-0.22
291.169	0.33
291.382	0.59
291.595	0.56
291.808	0.45
292.022	0.4
292.235	0.28
292.448	0.15
292.661	0.33
292.875	0.3
293.088	0.2
293.301	-0.05
293.514	-0.3
293.727	-0.52
293.94	-0.83
294.153	-0.94
294.367	-0.85
294.58	-0.53
294.793	-0.45
295.006	-0.14
295.219	-0.2
295.432	-0.18
295.645	-0.12
295.858	-0.14
296.071	-0.01
296.284	0.62
296.497	0.74
296.71	1
296.923	1.02
297.136	1.11
297.349	1.01
297.562	0.97
297.775	1.22
297.988	1.37
298.201	1.43
298.414	1.05
298.626	1.17
298.839	1.12
299.052	0.57
299.265	0.61
299.478	0.53
299.691	0.55
299.903	0.47
300.116	0.06
300.329	0
300.542	-0.16
300.755	0.29
300.967	-0.18
301.18	-0.14
301.393	0.06
301.605	-0.21
301.818	-0.33
302.031	-0.87
302.243	-0.45
302.456	-0.1
302.669	-0.34
302.881	0.07
303.094	0.08
303.307	0.2
303.519	0.22
303.732	0.35
303.944	0.56
304.157	0.77
304.37	1.05
304.582	0.89
304.795	0.85
305.007	1.06
305.22	0.78
305.432	0.9
305.645	0.99
305.857	0.97
306.069	1.17
306.282	1.36
306.494	1.01
306.707	0.97
306.919	0.7
307.132	0.23
307.344	0.01
307.556	0.16
307.769	0.01
307.981	-0.28
308.193	-0.1
308.406	-0.28
308.618	-0.45
308.83	-0.11
309.043	0.03
309.255	-0.01
309.467	-0.09
309.679	0.04
309.892	-0.11
310.104	0.01
310.316	0.2
310.528	0.01
310.74	0.16
310.953	0.4
311.165	0.58
311.377	0.37
311.589	0.8
311.801	1.09
312.013	1.32
312.225	1.26
312.437	1.23
312.649	1.55
312.862	1.86
313.074	1.85
313.286	1.42
313.498	1.33
313.71	1.43
313.922	1.3
314.134	1.31
314.346	1.2
314.558	1.1
314.77	0.95
314.982	1.01
315.193	0.7
315.405	0.46
315.617	0.57
315.829	0.53
316.041	0.54
316.253	0.72
316.465	0.38
316.677	0.13
316.888	0.28
317.1	0.27
317.312	-0.23
317.524	-0.16
317.736	-0.21
317.947	-0.46
318.159	-0.49
318.371	0.02
318.583	-0.37
318.794	-0.26
319.006	0.1
319.218	-0.13
319.43	-0.36
319.641	-0.24
319.853	0.35
320.064	0.61
320.276	1.03
320.488	1.07
320.699	1.16
320.911	1.23
321.123	1.71
321.334	1.83
321.546	2.62
321.757	3.36
321.969	3.64
322.18	2.89
322.392	2.66
322.603	2.54
322.815	2.67
323.026	2.35
323.238	2.6
323.449	2.64
323.661	2.21
323.872	2.38
324.083	1.97
324.295	1.91
324.506	1.84
324.718	2.21
324.929	2.31
325.14	2.5
325.352	2.44
325.563	2.56
325.774	2.47
325.986	2.69
326.197	2.47
326.408	3.06
326.62	3.11
326.831	3.89
327.042	4.04
327.253	4.45
327.464	4.12
327.676	4.86
327.887	4.72
328.098	4.88
328.309	4.88
328.52	5.05
328.732	4.94
328.943	5.13
329.154	5.01
329.365	4.89
329.576	4.86
329.787	5.4
329.998	5.19
330.209	5.55
330.42	5.71
330.631	6.19
330.842	6.43
331.053	6.72
331.264	6.83
331.475	6.75
331.686	7.21
331.897	7.83
332.108	7.93
332.319	8.15
332.53	8.1
332.741	8.43
332.952	8.36
333.163	8.53
333.374	8.49
333.585	8.7
333.795	9.08
334.006	9.01
334.217	9.01
334.428	9.12
334.639	9.28
334.849	9.37
335.06	9.25
335.271	9.35
335.482	9.35
335.692	9.63
335.903	9.62
336.114	9.56
336.325	9.75
336.535	9.68
336.746	9.7
336.957	9.19
337.167	9.41
337.378	9.54
337.589	9.88
337.799	10.12
338.01	10.3
338.22	10.24
338.431	10.28
338.642	10.07
338.852	9.67
339.063	9.74
339.273	10.17
339.484	10.04
339.694	9.72
339.905	9.69
340.115	9.56
340.326	9.22
340.536	9.56
340.746	9.45
340.957	9.78
341.167	9.88
341.378	9.98
341.588	9.71
341.799	9.8
342.009	10.31
342.219	10.6
342.43	10.6
342.64	10.66
342.85	10.48
343.061	10.76
343.271	10.74
343.481	10.97
343.691	11.07
343.902	11.53
344.112	11.49
344.322	11.51
344.532	11.07
344.743	11.11
344.953	11.08
345.163	11.2
345.373	11
345.583	10.95
345.793	10.85
346.004	11.04
346.214	10.92
346.424	11.11
346.634	10.94
346.844	10.91
347.054	10.67
347.264	10.54
347.474	10.52
347.684	10.83
347.894	10.89
348.104	11.2
348.314	10.79
348.524	10.61
348.734	10.25
348.944	10.07
349.154	10.41
349.364	10.82
349.574	11.09
349.784	11.16
349.994	10.89
350.204	10.7
350.413	10.32
350.623	10.41
350.833	10.07
351.043	10.38
351.253	10.41
351.463	10.21
351.672	9.66
351.882	9.54
352.092	9.58
352.302	9.73
352.511	10.02
352.721	10.04
352.931	9.89
353.141	10.35
353.35	10.01
353.56	10.18
353.77	10.32
353.979	10.47
354.189	10.63
354.399	10.59
354.608	10.51
354.818	10.33
355.027	10.44
355.237	10.62
355.447	10.39
355.656	10.62
355.866	10.7
356.075	10.56
356.285	10.37
356.494	10.34
356.704	10.28
356.913	10.29
357.123	10.27
357.332	10.39
357.542	10.3
357.751	10.57
357.96	10.64
358.17	10.64
358.379	10.78
358.589	11.03
358.798	10.83
359.007	10.78
359.217	10.84
359.426	10.78
359.635	10.54
359.845	10.68
360.054	10.71
360.263	10.48
360.472	10.51
360.682	10.43
360.891	10.53
361.1	10.56
361.309	10.43
361.519	10.48
361.728	10.56
361.937	10.67
362.146	10.67
362.355	10.59
362.564	10.65
362.774	10.52
362.983	10.46
363.192	10.38
363.401	10.45
363.61	10.46
363.819	10.3
364.028	10.37
364.237	10.43
364.446	10.3
364.655	10.34
364.864	10.38
365.073	10.26
365.282	10.24
365.491	10.26
365.7	10.36
365.909	10.39
366.118	10.27
366.327	10.07
366.536	9.98
366.745	10.01
366.954	10.15
367.162	10.18
367.371	10.16
367.58	10.28
367.789	10.18
367.998	10.17
368.207	10.29
368.415	10.42
368.624	10.49
368.833	10.53
369.042	10.46
369.25	10.21
369.459	10.23
369.668	10.55
369.877	10.51
370.085	10.38
370.294	10.24
370.503	10.09
370.711	10.1
370.92	10
371.129	9.94
371.337	10.03
371.546	9.99
371.754	9.83
371.963	9.59
372.171	9.57
372.38	9.65
372.589	9.51
372.797	9.58
373.006	9.52
373.214	9.53
373.423	9.36
373.631	9.1
373.84	8.87
374.048	8.94
374.256	9.08
374.465	8.94
374.673	8.97
374.882	9.1
375.09	9.15
375.298	9.24
375.507	9.33
375.715	9.4
375.923	9.59
376.132	9.91
376.34	9.79
376.548	9.56
376.757	9.81
376.965	9.76
377.173	9.71
377.381	9.52
377.59	9.64
377.798	9.71
378.006	9.63
378.214	9.53
378.423	9.47
378.631	9.55
378.839	9.87
379.047	9.75
379.255	9.78
379.463	9.81
379.671	9.89
379.879	9.64
380.088	9.51
380.296	9.72
380.504	9.85
380.712	9.85
380.92	10.01
381.128	9.85
381.336	9.79
381.544	9.69
381.752	9.86
381.96	9.86
382.168	9.96
382.376	9.98
382.584	9.86
382.791	9.92
382.999	9.72
383.207	9.73
383.415	9.75
383.623	9.89
383.831	10.1
384.039	9.83
384.247	9.91
384.454	9.73
384.662	9.67
384.87	9.69
385.078	9.74
385.285	9.95
385.493	10.03
385.701	9.96
385.909	9.86
386.116	9.56
386.324	9.89
386.532	10.05
386.739	10.27
386.947	10.39
387.155	10.38
387.362	10.34
387.57	10.12
387.778	9.95
387.985	10.07
388.193	10.04
388.4	10.33
388.608	10.19
388.816	10.16
389.023	10.15
389.231	10.23
389.438	10.38
389.646	10.41
389.853	10.68
390.061	10.72
390.268	10.66
390.475	10.83
390.683	10.84
390.89	10.7
391.098	10.64
391.305	10.6
391.512	10.44
391.72	10.35
391.927	10.4
392.135	10.3
392.342	10.42
392.549	10.48
392.756	10.56
392.964	10.4
393.171	10.6
393.378	10.65
393.586	10.67
393.793	10.75
394	11
394.207	10.88
394.414	10.96
394.622	11.05
394.829	11.16
395.036	11.02
395.243	11.21
395.45	10.92
395.657	10.95
395.864	10.91
396.072	10.82
396.279	10.58
396.486	10.58
396.693	10.64
396.9	10.56
397.107	10.64
397.314	10.68
397.521	10.69
397.728	10.92
397.935	11.08
398.142	11.37
398.349	11.58
398.556	11.59
398.763	11.88
398.97	11.82
399.177	11.58
399.383	11.57
399.59	11.54
399.797	11.58
400.004	11.76
400.211	11.59
400.418	11.37
400.625	11.41
400.831	11.33
401.038	11.19
401.245	11.1
401.452	11.24
401.658	11.09
401.865	11.25
402.072	11.24
402.279	11.04
402.485	11.16
402.692	11.29
402.899	11.2
403.105	11.49
403.312	11.49
403.519	11.59
403.725	11.58
403.932	11.78
404.138	11.72
404.345	11.83
404.552	11.99
404.758	11.9
404.965	11.87
405.171	11.99
405.378	11.96
405.584	11.78
405.791	11.61
405.997	11.69
406.204	11.57
406.41	11.6
406.617	11.38
406.823	11.26
407.029	11.14
407.236	11.12
407.442	11.2
407.649	11.08
407.855	11.12
408.061	11.31
408.268	11.27
408.474	11.2
408.68	11.16
408.887	11.32
409.093	11.33
409.299	11.35
409.505	11.22
409.712	11.12
409.918	11.08
410.124	11.28
410.33	11.25
410.537	11.17
410.743	11.22
410.949	11.24
411.155	11.16
411.361	11.02
411.567	11.04
411.773	11.29
411.98	11.34
412.186	11.46
412.392	11.5
412.598	11.59
412.804	11.68
413.01	11.58
413.216	11.53
413.422	11.7
413.628	11.82
413.834	11.83
414.04	11.72
414.246	11.51
414.452	11.29
414.658	11.12
414.864	11.03
415.07	11.16
415.275	11.32
415.481	11.29
415.687	11.2
415.893	11.29
416.099	11.3
416.305	11.24
416.511	11.21
416.716	11.28
416.922	11.34
417.128	11.41
417.334	11.46
417.539	11.36
417.745	11.38
417.951	11.4
418.157	11.26
418.362	11.28
418.568	11.37
418.774	11.48
418.979	11.47
419.185	11.43
419.391	11.45
419.596	11.45
419.802	11.42
420.008	11.44
420.213	11.4
420.419	11.48
420.624	11.56
420.83	11.58
421.035	11.51
421.241	11.54
421.446	11.54
421.652	11.47
421.857	11.45
422.063	11.52
422.268	11.46
422.474	11.45
422.679	11.47
422.885	11.36
423.09	11.32
423.295	11.37
423.501	11.38
423.706	11.43
423.911	11.44
424.117	11.43
424.322	11.47
424.527	11.52
424.733	11.49
424.938	11.5
425.143	11.62
425.349	11.53
425.554	11.49
425.759	11.52
425.964	11.51
426.169	11.48
426.375	11.41
426.58	11.3
426.785	11.26
426.99	11.3
427.195	11.26
427.4	11.17
427.605	11.27
427.811	11.26
428.016	11.21
428.221	11.2
428.426	11.2
428.631	11.19
428.836	11.22
429.041	11.27
429.246	11.22
429.451	11.12
429.656	11.04
429.861	10.94
430.066	10.96
430.271	10.94
430.476	10.92
430.681	11.02
430.886	10.97
431.09	10.97
431.295	11
431.5	11.17
431.705	11.32
431.91	11.33
432.115	11.34
432.32	11.38
432.524	11.39
432.729	11.44
432.934	11.5
433.139	11.57
433.343	11.63
433.548	11.61
433.753	11.57
433.958	11.56
434.162	11.76
434.367	11.88
434.572	11.98
434.776	12.15
434.981	12.18
435.186	12.24
435.39	12.35
435.595	12.49
435.799	12.54
436.004	12.48
436.209	12.44
436.413	12.42
436.618	12.34
436.822	12.26
437.027	12.16
437.231	12.1
437.436	11.87
437.64	11.77
437.845	11.63
438.049	11.59
438.253	11.54
438.458	11.6
438.662	11.48
438.867	11.51
439.071	11.52
439.275	11.48
439.48	11.44
439.684	11.59
439.888	11.65
440.093	11.65
440.297	11.65
440.501	11.68
440.706	11.58
440.91	11.67
441.114	11.58
441.318	11.55
441.523	11.53
441.727	11.54
441.931	11.5
442.135	11.44
442.339	11.43
442.543	11.41
442.748	11.4
442.952	11.46
443.156	11.39
443.36	11.52
443.564	11.49
443.768	11.56
443.972	11.61
444.176	11.63
444.38	11.64
444.584	11.63
444.788	11.58
444.992	11.6
445.196	11.63
445.4	11.63
445.604	11.6
445.808	11.66
446.012	11.58
446.216	11.55
446.42	11.4
446.624	11.36
446.828	11.29
447.032	11.35
447.235	11.27
447.439	11.25
447.643	11.25
447.847	11.2
448.051	11.15
448.254	11.14
448.458	11.08
448.662	11.26
448.866	11.29
449.069	11.36
449.273	11.36
449.477	11.47
449.681	11.45
449.884	11.32
450.088	11.25
450.292	11.3
450.495	11.43
450.699	11.57
450.902	11.41
451.106	11.47
451.31	11.43
451.513	11.41
451.717	11.34
451.92	11.35
452.124	11.38
452.327	11.53
452.531	11.52
452.734	11.49
452.938	11.42
453.141	11.4
453.345	11.41
453.548	11.46
453.752	11.52
453.955	11.6
454.158	11.65
454.362	11.7
454.565	11.68
454.769	11.69
454.972	11.57
455.175	11.56
455.379	11.6
455.582	11.53
455.785	11.49
455.988	11.39
456.192	11.36
456.395	11.19
456.598	11.15
456.801	11.01
457.005	11.04
457.208	11.18
457.411	11.21
457.614	11.27
457.817	11.3
458.021	11.31
458.224	11.35
458.427	11.41
458.63	11.55
458.833	11.65
459.036	11.75
459.239	11.69
459.442	11.68
459.645	11.7
459.848	11.62
460.051	11.6
460.254	11.52
460.457	11.52
460.66	11.43
460.863	11.44
461.066	11.37
461.269	11.21
461.472	11.21
461.675	11.15
461.878	11.17
462.081	11.2
462.284	11.18
462.486	11.22
462.689	11.18
462.892	11.28
463.095	11.17
463.298	11.25
463.5	11.33
463.703	11.34
463.906	11.35
464.109	11.26
464.311	11.3
464.514	11.31
464.717	11.44
464.92	11.48
465.122	11.45
465.325	11.41
465.528	11.19
465.73	11.27
465.933	11.29
466.135	11.21
466.338	11.33
466.541	11.3
466.743	11.31
466.946	11.37
467.148	11.41
467.351	11.44
467.553	11.52
467.756	11.64
467.958	11.55
468.161	11.54
468.363	11.63
468.566	11.52
468.768	11.46
468.971	11.49
469.173	11.41
469.375	11.49
469.578	11.48
469.78	11.48
469.983	11.54
470.185	11.66
470.387	11.66
470.59	11.71
470.792	11.72
470.994	11.84
471.196	11.86
471.399	11.77
471.601	11.67
471.803	11.71
472.005	11.74
472.208	11.82
472.41	11.8
472.612	11.86
472.814	11.77
473.016	11.84
473.218	11.79
473.421	11.83
473.623	11.89
473.825	11.88
474.027	11.83
474.229	11.83
474.431	11.83
474.633	11.85
474.835	11.89
475.037	11.95
475.239	12.04
475.441	12.07
475.643	11.96
475.845	11.94
476.047	11.93
476.249	11.89
476.451	11.91
476.653	11.86
476.855	11.91
477.057	11.9
477.258	11.87
477.46	11.78
477.662	11.8
477.864	11.87
478.066	11.91
478.268	11.91
478.469	11.92
478.671	11.91
478.873	11.88
479.075	11.87
479.276	11.82
479.478	11.86
479.68	11.94
479.882	11.98
480.083	11.91
480.285	11.96
480.487	11.96
480.688	12
480.89	12
481.091	12.01
481.293	12.04
481.495	12.05
481.696	12.08
481.898	12.04
482.099	12.1
482.301	12.14
482.502	12.13
482.704	12.16
482.905	12.18
483.107	12.15
483.308	12.14
483.51	12.11
483.711	12.13
483.913	12.12
484.114	12.11
484.315	12.05
484.517	12.01
484.718	11.97
484.92	11.94
485.121	11.92
485.322	11.93
485.524	11.9
485.725	11.89
485.926	11.83
486.127	11.8
486.329	11.8
486.53	11.86
486.731	11.88
486.932	11.91
487.134	11.93
487.335	11.91
487.536	11.92
487.737	11.96
487.938	11.97
488.139	12.01
488.341	12.07
488.542	12.09
488.743	12.02
488.944	12.04
489.145	12.01
489.346	11.98
489.547	12.02
489.748	12.07
489.949	12.08
490.15	12.07
490.351	12.05
490.552	12.01
490.753	12.02
490.954	12.07
491.155	12.05
491.356	12.09
491.557	12.15
491.758	12.12
491.959	12.07
492.159	12.03
492.36	12.03
492.561	12.04
492.762	12.06
492.963	12.03
493.164	12
493.364	12.02
493.565	11.99
493.766	11.96
493.967	12.01
494.167	12.04
494.368	12.03
494.569	12.04
494.769	12.15
494.97	12.2
495.171	12.19
495.371	12.27
495.572	12.29
495.773	12.3
495.973	12.26
496.174	12.29
496.375	12.3
496.575	12.34
496.776	12.32
496.976	12.24
497.177	12.2
497.377	12.24
497.578	12.2
497.778	12.23
497.979	12.31
498.179	12.35
498.38	12.35
498.58	12.33
498.78	12.38
498.981	12.4
499.181	12.42
499.382	12.46
499.582	12.49
499.782	12.62
499.983	12.65
500.183	12.59
500.383	12.67
500.584	12.58
500.784	12.66
500.984	12.66
501.184	12.66
501.385	12.73
501.585	12.69
501.785	12.65
501.985	12.57
502.185	12.53
502.386	12.47
502.586	12.39
502.786	12.52
502.986	12.52
503.186	12.52
503.386	12.58
503.586	12.51
503.786	12.59
503.987	12.67
504.187	12.64
504.387	12.74
504.587	12.86
504.787	12.96
504.987	12.97
505.187	12.98
505.387	13.04
505.587	13.06
505.786	13.08
505.986	13.05
506.186	13.06
506.386	13.14
506.586	13.06
506.786	13.08
506.986	13.06
507.186	13.02
507.386	12.99
507.585	13.02
507.785	13
507.985	13
508.185	13.02
508.384	13.03
508.584	13.13
508.784	13.22
508.984	13.17
509.183	13.22
509.383	13.25
509.583	13.29
509.782	13.36
509.982	13.46
510.182	13.5
510.381	13.56
510.581	13.54
510.781	13.51
510.98	13.5
511.18	13.55
511.379	13.53
511.579	13.59
511.778	13.6
511.978	13.55
512.177	13.47
512.377	13.55
512.576	13.57
512.776	13.55
512.975	13.6
513.175	13.6
513.374	13.53
513.573	13.61
513.773	13.64
513.972	13.74
514.172	13.82
514.371	13.91
514.57	13.86
514.77	13.82
514.969	13.98
515.168	14
515.367	14.05
515.567	14.23
515.766	14.21
515.965	14.33
516.164	14.38
516.364	14.48
516.563	14.55
516.762	14.64
516.961	14.83
517.16	14.83
517.359	14.85
517.559	14.93
517.758	14.96
517.957	14.97
518.156	14.96
518.355	14.96
518.554	14.92
518.753	14.9
518.952	14.89
519.151	14.88
519.35	14.87
519.549	14.87
519.748	14.94
519.947	14.97
520.146	15.15
520.345	15.14
520.544	15.14
520.743	15.22
520.942	15.25
521.141	15.37
521.339	15.4
521.538	15.48
521.737	15.57
521.936	15.55
522.135	15.64
522.333	15.51
522.532	15.61
522.731	15.72
522.93	15.77
523.129	15.86
523.327	15.83
523.526	15.87
523.725	15.94
523.923	15.98
524.122	16.11
524.321	16.13
524.519	16.17
524.718	16.22
524.917	16.24
525.115	16.29
525.314	16.34
525.512	16.4
525.711	16.42
525.909	16.46
526.108	16.53
526.306	16.51
526.505	16.59
526.703	16.69
526.902	16.72
527.1	16.82
527.299	16.87
527.497	16.93
527.696	17
527.894	17.05
528.092	17.06
528.291	17.03
528.489	17.03
528.688	17.02
528.886	17.02
529.084	16.99
529.283	16.95
529.481	16.9
529.679	16.87
529.877	16.9
530.076	16.86
530.274	16.88
530.472	16.97
530.67	17.07
530.869	17.08
531.067	17.17
531.265	17.3
531.463	17.44
531.661	17.61
531.859	17.71
532.057	17.77
532.255	17.82
532.454	17.9
532.652	17.93
532.85	17.9
533.048	18
533.246	18.05
533.444	18.06
533.642	17.99
533.84	18
534.038	18.02
534.236	18
534.434	18.11
534.632	18.1
534.83	18.17
535.027	18.26
535.225	18.31
535.423	18.3
535.621	18.38
535.819	18.53
536.017	18.61
536.215	18.67
536.412	18.8
536.61	18.86
536.808	18.91
537.006	18.94
537.203	18.98
537.401	19.04
537.599	19.13
537.797	19.18
537.994	19.26
538.192	19.4
538.39	19.54
538.587	19.64
538.785	19.82
538.983	20.14
539.18	20.39
539.378	20.62
539.575	20.83
539.773	21.14
539.97	21.32
540.168	21.51
540.366	21.62
540.563	21.72
540.761	21.8
540.958	21.86
541.155	21.88
541.353	21.86
541.55	21.92
541.748	21.91
541.945	21.88
542.143	21.88
542.34	21.87
542.537	21.88
542.735	21.91
542.932	21.97
543.129	22.06
543.327	22.22
543.524	22.53
543.721	22.79
543.919	23.2
544.116	23.44
544.313	23.84
544.51	24.31
544.708	24.7
544.905	25.17
545.102	25.6
545.299	25.92
545.496	26.14
545.693	26.19
545.891	26.24
546.088	26.05
546.285	26.04
546.482	25.87
546.679	25.57
546.876	25.36
547.073	25.05
547.27	24.72
547.467	24.48
547.664	24.17
547.861	23.92
548.058	23.72
548.255	23.5
548.452	23.32
548.649	23.22
548.846	23.11
549.043	22.95
549.24	22.86
549.437	22.66
549.633	22.52
549.83	22.51
550.027	22.47
550.224	22.42
550.421	22.34
550.618	22.2
550.814	22.08
551.011	22.03
551.208	21.92
551.405	21.8
551.601	21.81
551.798	21.77
551.995	21.62
552.191	21.52
552.388	21.34
552.585	21.41
552.781	21.29
552.978	21.23
553.175	21.1
553.371	21.01
553.568	21.03
553.764	21.07
553.961	21.03
554.157	20.98
554.354	20.84
554.55	20.8
554.747	20.81
554.943	20.92
555.14	20.98
555.336	20.98
555.533	21.03
555.729	20.96
555.926	20.89
556.122	20.87
556.318	20.81
556.515	20.88
556.711	20.94
556.907	20.87
557.104	20.84
557.3	20.74
557.496	20.75
557.693	20.75
557.889	20.82
558.085	20.73
558.281	20.61
558.478	20.67
558.674	20.68
558.87	20.73
559.066	20.71
559.262	20.73
559.459	20.84
559.655	20.87
559.851	21.07
560.047	21.02
560.243	21.1
560.439	21.28
560.635	21.32
560.831	21.29
561.027	21.27
561.223	21.22
561.419	21.06
561.615	21.06
561.811	21.07
562.007	20.88
562.203	20.71
562.399	20.67
562.595	20.45
562.791	20.36
562.987	20.43
563.183	20.28
563.379	20.38
563.575	20.52
563.771	20.44
563.966	20.47
564.162	20.53
564.358	20.73
564.554	20.73
564.75	20.9
564.945	21.05
565.141	20.97
565.337	21.1
565.533	21.1
565.728	21.06
565.924	21.05
566.12	21.05
566.315	21.06
566.511	21.12
566.707	21.15
566.902	21.14
567.098	21.09
567.293	21.14
567.489	21
567.684	20.87
567.88	20.88
568.076	20.92
568.271	20.93
568.467	20.9
568.662	20.73
568.858	20.72
569.053	20.61
569.248	20.56
569.444	20.49
569.639	20.61
569.835	20.66
570.03	20.56
570.225	20.55
570.421	20.52
570.616	20.53
570.812	20.66
571.007	20.66
571.202	20.73
571.397	20.76
571.593	20.86
571.788	20.85
571.983	20.96
572.178	21.05
572.374	21.15
572.569	21.13
572.764	21.05
572.959	20.89
573.154	20.9
573.35	20.95
573.545	20.88
573.74	20.97
573.935	20.91
574.13	20.8
574.325	20.87
574.52	20.88
574.715	21.05
574.91	21.3
575.105	21.57
575.3	21.66
575.495	21.74
575.69	21.94
575.885	21.93
576.08	22.25
576.275	22.43
576.47	22.59
576.665	22.71
576.86	22.78
577.055	22.83
577.25	22.92
577.444	22.99
577.639	23.12
577.834	23.25
578.029	23.51
578.224	23.48
578.418	23.64
578.613	23.74
578.808	23.75
579.003	23.74
579.197	23.74
579.392	23.59
579.587	23.68
579.781	23.59
579.976	23.55
580.171	23.47
580.365	23.42
580.56	23.31
580.755	23.34
580.949	23.19
581.144	23.16
581.338	23.18
581.533	23.35
581.727	23.46
581.922	23.61
582.116	23.59
582.311	23.68
582.505	23.87
582.7	23.9
582.894	23.79
583.089	24.02
583.283	24.17
583.478	24.27
583.672	24.28
583.866	24.13
584.061	24.07
584.255	24.12
584.449	24.07
584.644	24
584.838	24.18
585.032	24.29
585.226	24.47
585.421	24.61
585.615	24.55
585.809	24.7
586.003	24.86
586.198	24.99
586.392	25.06
586.586	25.11
586.78	25.19
586.974	25.1
587.168	25.09
587.363	24.94
587.557	24.7
587.751	24.63
587.945	24.39
588.139	24.32
588.333	24.17
588.527	24.06
588.721	23.94
588.915	23.78
589.109	23.71
589.303	23.68
589.497	23.59
589.691	23.53
589.885	23.47
590.079	23.5
590.273	23.44
590.466	23.52
590.66	23.61
590.854	23.83
591.048	23.9
591.242	23.95
591.436	24.19
591.629	24.33
591.823	24.52
592.017	24.77
592.211	24.97
592.404	25.1
592.598	25.09
592.792	25.16
592.986	24.98
593.179	25
593.373	24.97
593.567	24.8
593.76	24.69
593.954	24.61
594.147	24.41
594.341	24.29
594.535	24.1
594.728	24.09
594.922	23.85
595.115	23.76
595.309	23.75
595.502	23.68
595.696	23.58
595.889	23.52
596.083	23.46
596.276	23.47
596.47	23.39
596.663	23.53
596.856	23.54
597.05	23.66
597.243	23.7
597.437	23.65
597.63	23.75
597.823	23.88
598.017	23.78
598.21	23.88
598.403	24.03
598.596	24.15
598.79	24
598.983	23.98
599.176	23.94
599.369	23.97
599.563	23.94
599.756	23.92
599.949	23.97
600.142	24.09
600.335	24.1
600.528	24.04
600.722	23.94
600.915	24.09
601.108	24.14
601.301	24.32
601.494	24.11
601.687	24.2
601.88	24.04
602.073	23.83
602.266	23.8
602.459	23.72
602.652	23.65
602.845	23.63
603.038	23.49
603.231	23.39
603.424	23.19
603.617	23.3
603.809	23.23
604.002	23.3
604.195	23.25
604.388	23.24
604.581	23.2
604.774	23.25
604.966	23.19
605.159	23.21
605.352	23.18
605.545	23.21
605.737	23.2
605.93	23.33
606.123	23.49
606.316	23.66
606.508	23.81
606.701	24.05
606.894	24.16
607.086	24.59
607.279	25.09
607.471	25.53
607.664	26.06
607.857	26.58
608.049	27.04
608.242	27.76
608.434	28.78
608.627	29.97
608.819	31.4
609.012	33.03
609.204	34.76
609.397	36.38
609.589	38.35
609.782	40.46
609.974	42.57
610.166	45
610.359	46.97
610.551	48.89
610.743	50.49
610.936	51.89
611.128	52.87
611.32	53.36
611.513	53.65
611.705	53.6
611.897	53.15
612.09	52.49
612.282	51.45
612.474	50.42
612.666	49.1
612.858	48.02
613.051	46.61
613.243	45.32
613.435	44.3
613.627	43.33
613.819	42.37
614.011	41.42
614.203	40.66
614.395	39.71
614.588	38.85
614.78	37.98
614.972	36.94
615.164	36.1
615.356	35.29
615.548	34.38
615.74	33.62
615.932	32.94
616.124	32.01
616.315	31.24
616.507	30.62
616.699	29.97
616.891	29.43
617.083	28.95
617.275	28.47
617.467	28.08
617.659	27.98
617.85	27.82
618.042	27.57
618.234	27.43
618.426	27.29
618.618	27.1
618.809	27.12
619.001	27.01
619.193	26.89
619.384	26.94
619.576	27
619.768	26.75
619.959	26.75
620.151	26.64
620.343	26.72
620.534	26.68
620.726	26.63
620.917	26.51
621.109	26.54
621.301	26.7
621.492	26.87
621.684	26.93
621.875	27.02
622.067	26.97
622.258	27.08
622.45	27.14
622.641	27.28
622.832	27.39
623.024	27.56
623.215	27.39
623.407	27.41
623.598	27.41
623.789	27.41
623.981	27.54
624.172	27.64
624.363	27.6
624.555	27.64
624.746	27.59
624.937	27.53
625.129	27.5
625.32	27.65
625.511	27.65
625.702	27.55
625.893	27.4
626.085	27.27
626.276	26.92
626.467	26.92
626.658	26.69
626.849	26.68
627.04	26.6
627.231	26.39
627.422	26.33
627.614	26.34
627.805	26.44
627.996	26.56
628.187	26.69
628.378	27.05
628.569	27.16
628.76	27.55
628.951	27.72
629.142	28.08
629.332	28.49
629.523	28.82
629.714	29.06
629.905	29.28
630.096	29.41
630.287	29.53
630.478	29.63
630.669	29.58
630.859	29.51
631.05	29.48
631.241	29.24
631.432	28.9
631.623	28.67
631.813	28.12
632.004	27.54
632.195	27.07
632.385	26.61
632.576	26.05
632.767	25.82
632.957	25.61
633.148	25.09
633.339	24.74
633.529	24.4
633.72	24.11
633.91	23.99
634.101	23.86
634.292	23.83
634.482	23.72
634.673	23.65
634.863	23.66
635.054	23.52
635.244	23.6
635.435	23.6
635.625	23.85
635.815	23.84
636.006	23.94
636.196	23.96
636.387	24
636.577	24.03
636.767	24.18
636.958	24
637.148	23.94
637.338	23.99
637.529	24.09
637.719	24.06
637.909	24.13
638.099	24.09
638.29	24.14
638.48	24.02
638.67	23.91
638.86	23.71
639.05	23.85
639.241	23.73
639.431	23.78
639.621	23.77
639.811	23.61
640.001	23.7
640.191	23.71
640.381	23.76
640.571	23.84
640.761	24.1
640.951	24.4
641.141	24.29
641.331	24.44
641.521	24.19
641.711	24.33
641.901	24.44
642.091	24.42
642.281	24.4
642.471	24.28
642.661	24.29
642.851	24.05
643.041	23.78
643.231	24.01
643.42	24.1
643.61	24.12
643.8	23.95
643.99	23.87
644.18	23.78
644.369	23.74
644.559	23.92
644.749	23.89
644.939	24.13
645.128	24.41
645.318	24.21
645.508	24.21
645.697	24.29
645.887	24.31
646.076	23.99
646.266	24.18
646.456	24.33
646.645	24.31
646.835	24.28
647.024	24.18
647.214	23.93
647.403	24.04
647.593	23.9
647.782	23.96
647.972	23.95
648.161	24.39
648.351	24.2
648.54	24.28
648.73	24.13
648.919	24.23
649.108	24.24
649.298	24.58
649.487	24.62
649.677	24.77
649.866	25.01
650.055	25.17
650.244	25.13
650.434	25.24
650.623	25.17
650.812	25.28
651.002	25.55
651.191	25.76
651.38	25.69
651.569	25.73
651.758	25.82
651.947	25.73
652.137	25.6
652.326	25.83
652.515	25.9
652.704	26.04
652.893	26.12
653.082	25.97
653.271	25.93
653.46	25.85
653.649	25.8
653.838	25.75
654.027	25.59
654.216	25.32
654.405	24.93
654.594	24.67
654.783	24.54
654.972	24.49
655.161	24.42
655.35	24.22
655.539	24.09
655.728	23.9
655.916	24.04
656.105	24.11
656.294	24.34
656.483	24.39
656.672	24.48
656.86	24.55
657.049	24.54
657.238	24.57
657.427	24.47
657.615	24.43
657.804	24.44
657.993	24.13
658.181	23.9
658.37	23.73
658.559	23.75
658.747	23.94
658.936	23.69
659.125	23.63
659.313	23.52
659.502	23.54
659.69	23.47
659.879	23.52
660.067	23.65
660.256	23.59
660.444	23.7
660.633	23.93
660.821	23.76
661.01	23.98
661.198	24.06
661.387	24.2
661.575	24.39
661.763	24.64
661.952	24.66
662.14	24.71
662.328	25.05
662.517	25.26
662.705	25.27
662.893	25.44
663.082	25.37
663.27	25.23
663.458	25.28
663.646	25.39
663.834	25.42
664.023	25.43
664.211	25.3
664.399	25.28
664.587	25.29
664.775	25.1
664.963	24.92
665.152	24.96
665.34	25.16
665.528	24.99
665.716	24.88
665.904	24.98
666.092	24.92
666.28	25.19
666.468	25.14
666.656	24.94
666.844	24.8
667.032	24.9
667.22	24.93
667.408	24.84
667.596	24.87
667.784	25.11
667.971	24.92
668.159	24.96
668.347	24.86
668.535	24.89
668.723	24.96
668.911	25.06
669.098	24.86
669.286	24.85
669.474	24.83
669.662	24.77
669.849	24.39
670.037	24.26
670.225	24.24
670.413	24.17
670.6	24.18
670.788	24.2
670.976	23.95
671.163	24.04
671.351	23.97
671.538	23.84
671.726	23.78
671.913	24.08
672.101	24.41
672.289	24.52
672.476	24.21
672.664	24.04
672.851	24.24
673.039	24.34
673.226	24.37
673.413	24.57
673.601	24.71
673.788	24.79
673.976	24.6
674.163	24.65
674.35	24.42
674.538	24.91
674.725	24.9
674.912	24.54
675.1	24.64
675.287	24.62
675.474	24.59
675.662	24.84
675.849	25.01
676.036	24.87
676.223	24.5
676.411	24.47
676.598	24.39
676.785	24.47
676.972	24.61
677.159	24.83
677.346	24.87
677.533	24.86
677.721	24.44
677.908	24.37
678.095	24.61
678.282	24.89
678.469	24.88
678.656	24.64
678.843	24.62
679.03	24.85
679.217	24.8
679.404	24.94
679.591	24.88
679.778	24.97
679.964	25.06
680.151	25.07
680.338	24.93
680.525	25.05
680.712	25.14
680.899	25.18
681.086	24.99
681.272	24.8
681.459	24.8
681.646	24.82
681.833	24.9
682.02	24.92
682.206	24.52
682.393	24.6
682.58	24.71
682.766	24.78
682.953	24.78
683.14	24.8
683.326	24.85
683.513	24.61
683.7	24.64
683.886	24.62
684.073	24.5
684.259	24.77
684.446	24.7
684.632	24.67
684.819	24.79
685.005	25.04
685.192	25.37
685.378	25.53
685.565	25.68
685.751	25.77
685.938	25.97
686.124	25.99
686.31	25.91
686.497	26.15
686.683	26.14
686.87	26.16
687.056	26.2
687.242	26.07
687.429	26.1
687.615	26.04
687.801	25.95
687.987	25.91
688.174	25.98
688.36	26.53
688.546	26.31
688.732	26.32
688.918	26.09
689.105	25.76
689.291	25.74
689.477	25.77
689.663	25.63
689.849	25.41
690.035	25.37
690.221	25.5
690.407	25.07
690.593	25.06
690.779	25.01
690.965	25.04
691.151	24.92
691.337	24.49
691.523	24.55
691.709	24.89
691.895	25.19
692.081	25
692.267	24.73
692.453	25.05
692.639	24.85
692.825	25.13
693.011	25.31
693.196	25.72
693.382	26.18
693.568	26.21
693.754	26.1
693.94	26.19
694.125	26.34
694.311	26.38
694.497	25.96
694.682	26.16
694.868	25.79
695.054	25.96
695.239	25.81
695.425	25.59
695.611	25.44
695.796	25.2
695.982	24.92
696.168	24.87
696.353	24.73
696.539	24.61
696.724	24.45
696.91	24.45
697.095	24.14
697.281	24.07
697.466	24
697.652	23.76
697.837	23.72
698.023	23.81
698.208	23.77
698.393	23.66
698.579	24.03
698.764	24.11
698.949	24.06
699.135	23.99
699.32	23.93
699.505	23.85
699.691	23.89
699.876	23.74
700.061	23.36
700.246	23.33
700.432	23.42
700.617	22.99
700.802	23.03
700.987	23.26
701.172	23.12
701.358	23.2
701.543	23.51
701.728	23.52
701.913	23.97
702.098	24.76
702.283	25.12
702.468	25.06
702.653	25.25
702.838	25.54
703.023	25.53
703.208	26
703.393	26.26
703.578	26.21
703.763	26.76
703.948	27.05
704.133	26.94
704.318	27.2
704.503	27.8
704.688	28.5
704.873	28.4
705.057	29.04
705.242	29.27
705.427	29.83
705.612	30.47
705.797	30.57
705.981	31.02
706.166	31.56
706.351	31.65
706.536	32.04
706.72	31.99
706.905	32.78
707.09	32.87
707.274	33.23
707.459	33.46
707.644	33.69
707.828	33.92
708.013	33.85
708.197	33.95
708.382	34.25
708.567	34.09
708.751	34.09
708.936	33.61
709.12	33.08
709.305	33.01
709.489	32.47
709.673	32.03
709.858	31.93
710.042	31.8
710.227	31.45
710.411	31.04
710.596	30.85
710.78	30.75
710.964	30.83
711.149	31.07
711.333	31.08
711.517	31.26
711.702	31.1
711.886	30.76
712.07	30.43
712.254	30.39
712.438	30.02
712.623	29.99
712.807	30.12
712.991	29.38
713.175	29.05
713.359	28.49
713.544	27.79
713.728	27.57
713.912	27.47
714.096	27.37
714.28	27.06
714.464	26.91
714.648	26.39
714.832	25.52
715.016	25.51
715.2	25.21
715.384	24.89
715.568	25.03
715.752	24.47
715.936	24.39
716.12	24.15
716.304	23.8
716.488	23.88
716.671	23.74
716.855	23.77
717.039	23.71
717.223	23.66
717.407	23.91
717.59	23.74
717.774	23.93
717.958	23.89
718.142	23.58
718.325	23.71
718.509	23.43
718.693	23.33
718.877	23.35
719.06	23.85
719.244	23.86
719.428	23.54
719.611	23.81
719.795	24.34
719.978	24.27
720.162	24.5
720.345	24.66
720.529	24.83
720.713	24.97
720.896	25.08
721.08	24.75
721.263	24.75
721.446	24.85
721.63	24.64
721.813	24.65
721.997	24.45
722.18	24.41
722.364	23.98
722.547	24.38
722.73	24.2
722.914	24.31
723.097	24.56
723.28	24.48
723.464	24.68
723.647	24.61
723.83	24.61
724.013	25.16
724.197	25.47
724.38	25.9
724.563	25.43
724.746	25.75
724.929	26.27
725.112	25.78
725.296	25.61
725.479	25.12
725.662	25.26
725.845	24.81
726.028	24.9
726.211	24.66
726.394	24.63
726.577	24.49
726.76	24.99
726.943	24.63
727.126	24.68
727.309	24.83
727.492	25.33
727.675	25.12
727.858	25
728.041	24.97
728.224	25.39
728.407	25.24
728.589	25.62
728.772	25.02
728.955	24.69
729.138	24.58
729.321	24.56
729.503	24.49
729.686	24.1
729.869	24.54
730.052	24.21
730.234	24.02
730.417	23.76
730.6	23.43
730.782	23.62
730.965	24.01
731.148	24.54
731.33	24.67
731.513	24.51
731.695	24.83
731.878	24.48
732.061	24.46
732.243	24.29
732.426	24.53
732.608	25.21
732.791	25.37
732.973	25.4
733.156	25.31
733.338	25.39
733.52	25.65
733.703	25.7
733.885	25.87
734.068	26.14
734.25	25.53
734.432	25.51
734.615	24.97
734.797	24.88
734.979	24.42
735.162	24.62
735.344	24.69
735.526	24.63
735.708	24.88
735.891	24.9
736.073	24.65
736.255	25.36
736.437	25.09
736.619	25.32
736.802	25.47
736.984	25.64
737.166	25.43
737.348	25.72
737.53	25.96
737.712	25.69
737.894	25.69
738.076	25.8
738.258	25.72
738.44	26.7
738.622	26.29
738.804	26.2
738.986	26.47
739.168	25.76
739.35	24.84
739.532	24.74
739.714	24.8
739.896	24.73
740.078	24.64
740.259	24.73
740.441	23.92
740.623	24.17
740.805	24.28
740.987	23.85
741.168	24.82
741.35	25.25
741.532	25.38
741.714	25.82
741.895	26.11
742.077	26.17
742.259	26.45
742.44	26.66
742.622	26.55
742.804	26.2
742.985	26.6
743.167	26.79
743.348	26.74
743.53	25.96
743.711	25.91
743.893	25.74
744.075	26.17
744.256	26.03
744.438	25.98
744.619	26.22
744.8	26.25
744.982	26.4
745.163	26.45
745.345	26.48
745.526	27.25
745.707	26.96
745.889	27.24
746.07	26.54
746.252	26.59
746.433	26.58
746.614	27.27
746.795	27.24
746.977	26.82
747.158	26.14
747.339	26.34
747.52	26.45
747.702	26.53
747.883	26.22
748.064	26.5
748.245	26.6
748.426	27.06
748.607	25.87
748.788	26.25
748.97	26.72
749.151	27.02
749.332	27.18
749.513	27.04
749.694	26.93
749.875	26.8
750.056	27.04
750.237	27.31
750.418	26.96
750.599	27.66
750.78	27.8
750.96	27.61
751.141	27.82
751.322	27.31
751.503	26.52
751.684	26.72
751.865	26.79
752.046	26.93
752.226	26.3
752.407	26.43
752.588	26.05
752.769	25.62
752.949	25.2
753.13	24.25
753.311	24.49
753.492	25.63
753.672	25.03
753.853	25.72
754.034	25.36
754.214	25.88
754.395	25.96
754.575	25.95
754.756	26.09
754.937	26.28
755.117	27.22
755.298	27.78
755.478	27.61
755.659	28.06
755.839	27.94
756.02	27.91
756.2	27.63
756.381	27.01
756.561	26.9
756.741	26.9
756.922	26.81
757.102	25.41
757.283	24.65
757.463	24.41
757.643	24.39
757.823	23.81
758.004	23.62
758.184	23.1
758.364	23.65
758.545	23.18
758.725	22.99
758.905	23.12
759.085	23.61
759.265	23.46
759.446	22.97
759.626	22.93
759.806	23.09
759.986	21.95
760.166	21.99
760.346	21.67
760.526	21.96
760.706	22.02
760.886	21.54
761.066	21.42
761.246	21.98
761.426	22.31
761.606	22.15
761.786	22.19
761.966	23.71
762.146	24.15
762.326	24.35
762.506	24.46
762.686	24.42
762.866	24.44
763.046	25.04
763.225	25
763.405	25.23
763.585	25.38
763.765	25.65
763.945	25.35
764.124	25.2
764.304	25.14
764.484	25.11
764.664	24.97
764.843	25.15
765.023	24.91
765.203	24.82
765.382	24.44
765.562	24.55
765.741	24.2
765.921	24.27
766.101	24.46
766.28	24.72
766.46	25.12
766.639	25.48
766.819	25.62
766.998	25.67
767.178	25.95
767.357	26.29
767.537	26.18
767.716	26.31
767.896	26.3
768.075	26.17
768.254	26.09
768.434	26.95
768.613	26.56
768.792	26.43
768.972	26.4
769.151	26.42
769.33	26.42
769.51	26.63
769.689	26.23
769.868	26.65
770.047	26.07
770.226	26.38
770.406	25.64
770.585	26.71
770.764	27.19
770.943	27.57
771.122	27.47
771.301	27.08
771.48	27.1
771.66	27.07
771.839	26.22
772.018	27.24
772.197	26.99
772.376	26.24
772.555	25.96
772.734	26.09
772.913	25.77
773.092	25.33
773.271	25.33
773.449	25.03
773.628	25.74
773.807	26
773.986	25.82
774.165	26.32
774.344	27.66
774.523	27.08
774.701	27
774.88	27.4
775.059	28.18
775.238	28.4
775.417	28.73
775.595	28.72
775.774	29.38
775.953	29.15
776.131	28.09
776.31	26.5
776.489	27.24
776.667	26.74
776.846	27.05
777.025	26.61
777.203	26.3
777.382	26.08
777.56	25.44
777.739	25.19
777.917	25.28
778.096	25.7
778.274	25.2
778.453	24.07
778.631	24.82
778.81	23.71
778.988	23.2
779.166	23.83
779.345	23.29
779.523	24
779.702	23.97
779.88	23.87
780.058	24.21
780.237	26.02
780.415	26.53
780.593	26.07
780.771	26.28
780.95	26.99
781.128	26.5
781.306	27.21
781.484	27.79
781.662	27.29
781.841	27.66
782.019	27.18
782.197	26.31
782.375	26.18
782.553	26.03
782.731	26.25
782.909	26.48
783.087	26.97
783.265	27.27
783.443	25.74
783.621	25.96
783.799	26.05
783.977	25.67
784.155	25.29
784.333	25.92
784.511	26.22
784.689	27.01
784.867	27.01
785.045	25.54
785.223	25.6
785.4	26.03
785.578	26.6
785.756	25.66
785.934	25.62
786.112	25.6
786.289	25.47
786.467	24.8
786.645	24.65
786.823	24.08
787	25.48
787.178	24.61
787.356	24.77
787.533	24.22
787.711	25.13
787.889	26.09
788.066	26.4
788.244	26.89
788.421	26.29
788.599	25.76
788.776	26.25
788.954	25.83
789.131	25.92
789.309	25.97
789.486	25.23
789.664	24.65
789.841	23.79
790.019	23.86
790.196	23.52
790.373	24.57
790.551	25.06
790.728	24.88
790.906	24.8
791.083	25.37
791.26	24.14
791.437	24.96
791.615	25.08
791.792	25.18
791.969	25.19
792.146	23.95
792.324	24.4
792.501	23.65
792.678	23.84
792.855	24.45
793.032	23.55
793.209	24.3
793.387	24.69
793.564	24.16
793.741	25.19
793.918	24.8
794.095	25.4
794.272	24.3
794.449	24.06
794.626	24.07
794.803	23.95
794.98	23.73
795.157	24.99
795.334	24.54
795.511	23.97
795.688	22.21
795.864	22.74
796.041	23.51
796.218	24.26
796.395	24.71
796.572	25
796.749	24.36
796.925	25.57
797.102	25.07
797.279	25.55
797.456	26.7
797.632	27.06
797.809	26.8
797.986	26.82
798.162	26.42
798.339	26.5
798.516	25.59
798.692	25.93
798.869	25.25
799.046	24.86
799.222	24.77
799.399	24.45
799.575	24.84
799.752	24.55
799.928	23.36
800.105	22.95
800.281	21.95
800.458	21.98
800.634	23.05
800.811	23.58
800.987	23.7
801.163	22.41
801.34	22.61
801.516	23.79
801.692	23.21
801.869	24.11
802.045	24.95
802.221	25.58
802.398	25.99
802.574	24.63
802.75	24.05
802.926	24.4
803.103	25.16
803.279	25.44
803.455	23.62
803.631	25.08
803.807	23.83
803.983	22.5
804.16	23.31
804.336	22.46
804.512	22.92
804.688	23.21
804.864	22.6
805.04	22.76
805.216	23.05
805.392	22.82
805.568	21.64
805.744	23.41
805.92	24.35
806.096	25.07
806.272	26.85
806.448	25.79
806.623	25.57
806.799	25.39
806.975	26.06
807.151	26
807.327	26.9
807.503	25.94
807.678	25.38
807.854	25.03
808.03	23.95
808.206	22.26
808.381	22.72
808.557	21.4
808.733	21.37
808.908	21.21
809.084	21.02
809.26	19.98
809.435	22.06
809.611	20.54
809.787	20.64
809.962	20.03
810.138	20.87
810.313	20.11
810.489	22.22
810.664	23.27
810.84	22.28
811.015	22.63
811.191	24.06
811.366	22.83
811.542	23.07
811.717	24.08
811.892	24.62
812.068	26.15
812.243	26.27
812.419	25.65
812.594	24.53
812.769	23.59
812.944	22.99
813.12	21.36
813.295	21.63
813.47	21.93
813.645	19.88
813.821	20.43
813.996	16.91
814.171	17.93
814.346	17.28
814.521	17.2
814.697	17.9
814.872	17.87
815.047	18.95
815.222	17.92
815.397	17.57
815.572	18.75
815.747	17.85
815.922	18.59
816.097	19.02
816.272	19.83
816.447	20.18
816.622	20.52
816.797	18.68
816.972	18.87
817.147	20.25
817.322	20.51
817.496	21.35
817.671	21.85
817.846	21.88
818.021	21.26
818.196	21.36
818.371	20.25
818.545	21.23
818.72	22.47
818.895	22.24
819.069	22.89
819.244	23.62
819.419	22.88
819.594	21.7
819.768	21.23
819.943	21.03
820.117	20.27
820.292	21.07
820.467	20.95
820.641	20.79
820.816	21.88
820.99	21.27
821.165	21.11
821.339	21.3
821.514	21.67
821.688	21.92
821.863	21.81
822.037	21.68
822.212	21.54
822.386	21.54
822.56	21.76
822.735	21.37
822.909	21.06
823.084	21.01
823.258	20.7
823.432	20.4
823.606	20.11
823.781	20.24
823.955	20.26
824.129	20.27
824.303	19.84
824.478	19.14
824.652	19.05
824.826	19.65
825	19.56
825.174	19.94
825.348	20.29
825.523	20.23
825.697	20.08
825.871	20.56
826.045	20.85
826.219	21.19
826.393	21.55
826.567	21.32
826.741	21.24
826.915	20.91
827.089	20.49
827.263	20.54
827.437	21.2
827.611	21.11
827.784	21.23
827.958	20.65
828.132	20.38
828.306	20.31
828.48	20.79
828.654	20.53
828.827	20.7
829.001	20.86
829.175	20.82
829.349	20.58
829.522	20.45
829.696	19.25
829.87	19.29
830.044	18.32
830.217	18.29
830.391	17.02
830.565	17.53
830.738	17.56
830.912	17.02
831.085	15.58
831.259	15.03
831.432	14.23
831.606	14.69
831.779	14.91
831.953	16.29
832.126	17.12
832.3	17.48
832.473	17.19
832.647	18.44
832.82	18.39
832.994	18.67
833.167	19.05
833.34	20.3
833.514	21.09
833.687	21.04
833.86	20.68
834.034	20.65
834.207	20.68
834.38	20.48
834.553	19.92
834.727	20.27
834.9	20.34
835.073	19.91
835.246	18.85
835.419	17.24
835.593	17.29
835.766	17.4
835.939	17.38
836.112	17.27
836.285	17.63
836.458	16.78
836.631	17.35
836.804	17.9
836.977	18.98
837.15	19.51
837.323	20.87
837.496	22.28
837.669	23.69
837.842	23.51
838.015	23.47
838.188	22.54
838.361	22.23
838.533	22.52
838.706	22.82
838.879	20.5
839.052	21.89
839.225	22.2
839.398	18.65
839.57	18.89
839.743	19.38
839.916	20.19
840.088	20.68
840.261	22.3
840.434	21
840.607	20.22
840.779	21.67
840.952	21.64
841.124	22.21
841.297	23.25
841.47	21.62
841.642	22.06
841.815	21.13
841.987	21.4
842.16	20.68
842.332	19.92
842.505	20.41
842.677	19.2
842.85	17.06
843.022	16.02
843.194	17.77
843.367	17.8
843.539	11.16
843.712	9.45
843.884	9.47
844.056	12.44
844.229	12.65
844.401	16.86
844.573	17.75
844.745	18.91
844.918	16.87
845.09	19.23
845.262	21.04
845.434	26.6
845.606	28.66
845.779	28.39
845.951	26.68
846.123	27.98
846.295	23.03
846.467	23.63
846.639	23.15
846.811	26.38
846.983	23.62
847.155	24.35
847.327	26.08
847.499	26.48
847.671	26.99
847.843	28.9
848.015	27.5
848.187	31.13
848.359	31.34
848.531	30.47
848.703	29.91
848.875	25.22
849.047	24.85
849.218	26.09
849.39	25.5
849.562	23.64
849.734	23.31
849.905	25.8
850.077	23.06
850.249	23.11
850.421	23.3
850.592	21.51
850.764	25.3
850.936	20.92
851.107	15.53
851.279	15.15
851.451	15.05
851.622	14.77
851.794	13.03
851.965	14.57
852.137	14.14
852.308	15.16
852.48	14.09
852.651	12.29
852.823	18.31
852.994	18.23
853.166	20.81
853.337	22.58
853.509	21.87
853.68	19.51
853.851	19.18
854.023	14.71
854.194	18.8
854.365	22.99
854.537	26.73
854.708	22.88
854.879	26.21
855.05	26.08
855.222	25.26
855.393	24.61
855.564	25.77
855.735	25.15
855.906	28.68
856.078	25.07
856.249	23.49
856.42	22.18
856.591	23.16
856.762	20.84
856.933	16.47
857.104	13.99
857.275	17.4
857.446	17.37
857.617	18.79
857.788	20.3
857.959	21.63
858.13	23.49
858.301	21.28
858.472	20.18
858.643	21.14
858.814	21.71
858.985	22.98
859.155	19.15
859.326	20.15
859.497	25.03
859.668	19.96
859.839	21.25
860.009	19.18
860.18	19.41
860.351	22.34
860.522	24.38
860.692	26.74
860.863	25.26
861.034	23.03
861.204	23.23
861.375	15.34
861.546	17.62
861.716	14.84
861.887	16.15
862.057	19.88
862.228	15.81
862.398	14.43
862.569	12.17
862.739	15.75
862.91	18.3
863.08	15.87
863.251	15.71
863.421	14.04
863.592	11.71
863.762	13.01
863.932	11.94
864.103	10.13
864.273	7.75
864.443	3.48
864.614	2.26
864.784	-2.15
864.954	0
865.125	-0.25
865.295	0.61
865.465	5.07
865.635	1.57
865.805	-2
865.976	1.75
866.146	5.84
866.316	11.11
866.486	12.2
866.656	12.67
866.826	13.56
866.996	16.51
867.166	18.29
867.336	13.82
867.506	15.52
867.676	8.98
867.846	11.12
868.016	11.23
868.186	10.82
868.356	7.74
868.526	14.47
868.696	14.85
868.866	13.36
869.036	14.54
869.206	14.59
869.376	13.38
869.545	19.71
869.715	16.04
869.885	13.66
870.055	14.5
870.224	13.5
870.394	11.77
870.564	11.12
870.734	11.1
870.903	7.83
871.073	11.13
871.243	13.06
871.412	14.13
871.582	17.42
871.751	18.73
871.921	18.14
872.091	19.64
872.26	15.53
872.43	14.24
872.599	15.16
872.769	15.11
872.938	17.16
873.108	14.71
873.277	14.36
873.446	9.6
873.616	3.28
873.785	6.41
873.955	5.9
874.124	11.3
874.293	7.58
874.463	8.83
874.632	7.31
874.801	2.99
874.971	2.91
875.14	1.63
875.309	5.31
875.478	11.1
875.647	8.35
875.817	7.7
875.986	8.72
876.155	16.02
876.324	14.68
876.493	18.24
876.662	21.7
876.831	20.21
877	19.34
877.17	20.04
877.339	17.36
877.508	20.09
877.677	20.07
877.846	15.67
878.015	9.71
878.184	7.77
878.352	7.7
878.521	8.39
878.69	12.72
878.859	14.8
879.028	12.65
879.197	14.03
879.366	12.8
879.534	17.95
879.703	18.61
879.872	20.31
880.041	21.14
880.21	21.92
880.378	22
880.547	21.15
880.716	20.67
880.884	20.29
881.053	20.69
881.222	20.09
881.39	18.72
881.559	18.73
881.727	19.18
881.896	18.37
882.065	17.47
882.233	17.54
882.402	16.93
882.57	17.36
882.739	17.42
882.907	16.78
883.076	16.78
883.244	16.58
883.412	16.17
883.581	15.64
883.749	16.01
883.918	16.17
884.086	14.33
884.254	14.05
884.423	13.13
884.591	12.79
884.759	11.99
884.927	11.81
885.096	11.43
885.264	12.03
885.432	10.91
885.6	10.51
885.769	8.39
885.937	10.93
886.105	10.98
886.273	9.99
886.441	8.23
886.609	10.38
886.777	9.39
886.945	8.83
887.113	6.59
887.281	4.57
887.449	3.65
887.617	7.02
887.785	5.38
887.953	7.41
888.121	10.45
888.289	9.75
888.457	7.8
888.625	8.4
888.793	7.97
888.961	10.75
889.129	11.67
889.296	11.53
889.464	11.58
889.632	11.48
889.8	9.17
889.967	4.13
890.135	10.02
