Data from 2938821__Reflection_06.txt Node
Date: Thu Mar 12 14:34:10 EDT 2015
User: robert
Spectrometer: USB4E03002
Autoset integration time: false
Trigger mode: 4
Integration Time (sec): 1.000000E-1
Scans to average: 10
Electric dark correction enabled: false
Nonlinearity correction enabled: false
Boxcar width: 5
Stray light correction enabled: false
XAxis mode: Wavelengths
Stop averaging: false
Number of Pixels in Spectrum: 3648
>>>>>Begin Spectral Data<<<<<
177.575	-189.78
177.794	-186.39
178.014	-117.47
178.233	-74.33
178.452	-71.93
178.672	-74.8
178.891	-60.16
179.11	-88.4
179.33	-85.53
179.549	-85.69
179.768	-134.32
179.987	-107.34
180.207	-150.99
180.426	-233.96
180.645	-625.56
180.864	-781.55
181.084	-2270.73
181.303	787.1
181.522	9418.18
181.741	-3028.95
181.96	-723.08
182.179	-1579.71
182.398	-4128
182.618	-2890.62
182.837	2505
183.056	975.65
183.275	409.72
183.494	433.19
183.713	401.67
183.932	253.27
184.151	204.74
184.37	195.02
184.589	228.65
184.808	284.32
185.027	312.89
185.246	290.4
185.465	398.91
185.684	538.54
185.903	296.11
186.122	320.65
186.341	421.07
186.56	379.83
186.779	471.78
186.998	372.18
187.216	262.92
187.435	277.5
187.654	330.05
187.873	282.99
188.092	271.95
188.311	453.45
188.53	382.46
188.748	297.85
188.967	427.5
189.186	221.04
189.405	289.17
189.623	311.7
189.842	286.59
190.061	412.62
190.28	401.9
190.498	300.69
190.717	257.07
190.936	339.73
191.154	417.03
191.373	226.06
191.592	287.31
191.81	232.3
192.029	277.76
192.248	303.96
192.466	222.38
192.685	256.08
192.904	256.24
193.122	351.16
193.341	341.59
193.559	355.6
193.778	744.09
193.996	-670.8
194.215	-433.91
194.433	-4576.47
194.652	362.01
194.87	949.43
195.089	564.9
195.307	840.37
195.526	791.38
195.744	769.17
195.963	1092.08
196.181	629.44
196.399	524.47
196.618	1015.6
196.836	2094.55
197.055	-789.63
197.273	2329.17
197.491	2144.83
197.71	3670
197.928	2565.85
198.146	1627.87
198.365	387.36
198.583	367.2
198.801	244.57
199.019	289.68
199.238	294.74
199.456	200.46
199.674	274.3
199.892	310.88
200.111	403.55
200.329	409.9
200.547	338.81
200.765	-22250
200.983	1828.95
201.202	-4638.89
201.42	5535.71
201.638	814.15
201.856	6991.67
202.074	-6553.33
202.292	1576.47
202.51	2481.63
202.728	655.91
202.946	835.42
203.165	438.18
203.383	528.74
203.601	355.29
203.819	287.7
204.037	416.21
204.255	443.49
204.473	505.37
204.691	1104.21
204.909	686.52
205.127	933
205.345	847.92
205.562	-14462.5
205.78	782.03
205.998	449.35
206.216	352.65
206.434	211.55
206.652	211.34
206.87	209.77
207.088	178.28
207.306	145.75
207.523	134.89
207.741	118.09
207.959	112.88
208.177	113.69
208.395	131.12
208.612	144.89
208.83	171.34
209.048	208.38
209.266	131.35
209.483	136.59
209.701	157.03
209.919	158.34
210.136	151.32
210.354	158.42
210.572	167.3
210.79	153.95
211.007	138.06
211.225	112.32
211.442	101.77
211.66	102.29
211.878	97.7
212.095	84.27
212.313	81.57
212.53	81.86
212.748	66.5
212.966	72.04
213.183	74.64
213.401	72.25
213.618	94.28
213.836	108.54
214.053	139.16
214.271	135.33
214.488	189.94
214.705	201.36
214.923	209.94
215.14	261.48
215.358	261.64
215.575	257.25
215.793	381.07
216.01	277.19
216.227	271.22
216.445	197.98
216.662	191.36
216.879	144.8
217.097	164.17
217.314	159.51
217.531	118.89
217.749	124.05
217.966	104.93
218.183	96.05
218.4	104.23
218.618	96.63
218.835	91.7
219.052	85.46
219.269	91.56
219.487	76.78
219.704	73.98
219.921	77.89
220.138	71.13
220.355	79.91
220.572	74.91
220.79	76.18
221.007	77.49
221.224	74.83
221.441	79.27
221.658	75.01
221.875	71.44
222.092	65.73
222.309	69.11
222.526	63.95
222.743	51.8
222.96	47.31
223.177	47.81
223.394	45.62
223.611	40.73
223.828	31.47
224.045	35.88
224.262	40.99
224.479	44.61
224.696	34.03
224.913	36.2
225.13	37.79
225.347	37.47
225.564	29.09
225.781	23.99
225.997	31.09
226.214	29.58
226.431	23.61
226.648	20.91
226.865	16.91
227.082	15.91
227.298	15.63
227.515	14.41
227.732	13.65
227.949	13.64
228.165	13.16
228.382	10.85
228.599	10.16
228.816	10.3
229.032	9.85
229.249	9.27
229.466	9.33
229.682	8.48
229.899	8.32
230.116	8.18
230.332	8.24
230.549	10.02
230.765	10.46
230.982	11.49
231.199	10.59
231.415	10.96
231.632	12.24
231.848	12.32
232.065	14.4
232.281	16.08
232.498	17.47
232.714	19.37
232.931	17.35
233.147	16.85
233.364	15.39
233.58	17.64
233.797	17.08
234.013	17.76
234.23	18.34
234.446	15.98
234.662	15.12
234.879	14.19
235.095	13.08
235.312	14.75
235.528	15.69
235.744	16.5
235.961	16.17
236.177	16.44
236.393	16.02
236.61	16.42
236.826	17.7
237.042	17.22
237.258	17.59
237.475	18.89
237.691	18.81
237.907	18.44
238.123	17.67
238.339	16.55
238.556	17.3
238.772	17.09
238.988	16.38
239.204	16.36
239.42	15.56
239.636	15.61
239.853	13.16
240.069	12.28
240.285	12.12
240.501	12.93
240.717	12.31
240.933	11.51
241.149	10.55
241.365	10.15
241.581	9.46
241.797	10.03
242.013	9.6
242.229	9.59
242.445	9.04
242.661	8.6
242.877	7.76
243.093	7.94
243.309	8.62
243.525	8.76
243.741	8.77
243.957	10.08
244.173	9.5
244.388	9.55
244.604	9.6
244.82	9.58
245.036	9.56
245.252	9.83
245.468	9.04
245.683	8.16
245.899	7.7
246.115	7.59
246.331	7.03
246.547	6.9
246.762	6.54
246.978	6.57
247.194	6.69
247.409	6.44
247.625	6.34
247.841	6.71
248.057	6.42
248.272	6.64
248.488	6.85
248.703	6.24
248.919	6.46
249.135	6.62
249.35	6.57
249.566	6.56
249.782	7.27
249.997	7.11
250.213	6.6
250.428	7.02
250.644	6.66
250.859	6.39
251.075	6.75
251.29	6.78
251.506	6.71
251.721	7.06
251.937	7.55
252.152	7.51
252.368	8.07
252.583	7.98
252.798	8.3
253.014	8.35
253.229	8.57
253.445	9.77
253.66	9.82
253.875	11.05
254.091	11.61
254.306	11.23
254.521	11.62
254.737	11.61
254.952	11.82
255.167	11.54
255.383	12.58
255.598	12.34
255.813	11.32
256.028	11.27
256.244	10.73
256.459	10.85
256.674	10.67
256.889	10.67
257.104	10.34
257.32	9.77
257.535	9.01
257.75	8.38
257.965	8.05
258.18	7.79
258.395	7.14
258.61	6.26
258.826	5.27
259.041	4.87
259.256	4.62
259.471	4.47
259.686	4.66
259.901	4.67
260.116	4.52
260.331	4.6
260.546	4.66
260.761	4.6
260.976	4.96
261.191	5.52
261.406	5.96
261.621	5.91
261.836	5.86
262.05	6.14
262.265	6.37
262.48	6.79
262.695	6.41
262.91	6.75
263.125	6.97
263.34	6.69
263.555	6.33
263.769	6.5
263.984	6.67
264.199	7.15
264.414	7.09
264.629	7.36
264.843	6.37
265.058	6.75
265.273	6.76
265.488	7.08
265.702	7.06
265.917	6.67
266.132	6.69
266.346	6.61
266.561	6.24
266.776	6.1
266.99	5.67
267.205	6.07
267.42	6.26
267.634	6.08
267.849	5.59
268.063	5.62
268.278	6.13
268.492	6.13
268.707	6.49
268.922	6.63
269.136	6.31
269.351	6.91
269.565	7
269.78	6.87
269.994	6.55
270.209	6.71
270.423	6.68
270.637	6.22
270.852	6.01
271.066	5.49
271.281	5.3
271.495	5.31
271.709	4.98
271.924	4.95
272.138	4.77
272.353	4.93
272.567	5.22
272.781	5.23
272.996	5.13
273.21	5.15
273.424	5.23
273.638	5.89
273.853	5.85
274.067	5.87
274.281	5.81
274.495	6.05
274.71	6.17
274.924	6.06
275.138	5.46
275.352	5.37
275.566	5.12
275.781	5.63
275.995	5.09
276.209	5.42
276.423	5.44
276.637	5.51
276.851	5.18
277.065	5.06
277.279	5.13
277.493	5.78
277.707	6.34
277.921	6.21
278.135	5.75
278.349	5.8
278.563	5.36
278.777	5.3
278.991	5.19
279.205	5.63
279.419	5.47
279.633	5.67
279.847	5.95
280.061	5.84
280.275	5.93
280.489	6.25
280.703	6.18
280.917	6.64
281.131	6.24
281.344	6.29
281.558	6.1
281.772	5.93
281.986	5.24
282.2	4.32
282.414	4.18
282.627	3.92
282.841	3.74
283.055	3.55
283.269	3.41
283.482	3.86
283.696	3.87
283.91	3.79
284.123	3.89
284.337	4.06
284.551	4.26
284.764	4.16
284.978	4.6
285.192	4.77
285.405	4.83
285.619	4.76
285.833	4.71
286.046	4.55
286.26	4.42
286.473	4.29
286.687	4.3
286.9	4.65
287.114	4.73
287.327	4.59
287.541	4.22
287.754	4.69
287.968	4.7
288.181	4.78
288.395	5.1
288.608	5.51
288.822	5.68
289.035	5.92
289.248	5.87
289.462	6
289.675	5.75
289.889	5.87
290.102	5.1
290.315	5.17
290.529	5.02
290.742	4.99
290.955	4.63
291.169	4.67
291.382	4.46
291.595	4.53
291.808	4.25
292.022	4.57
292.235	4.56
292.448	4.89
292.661	4.92
292.875	5.11
293.088	5.42
293.301	5.71
293.514	6.09
293.727	6.81
293.94	6.65
294.153	7.04
294.367	7.3
294.58	7.65
294.793	7.69
295.006	7.63
295.219	7.68
295.432	7.66
295.645	7.47
295.858	7.3
296.071	6.92
296.284	7.19
296.497	7.09
296.71	6.53
296.923	6.53
297.136	6.54
297.349	6.63
297.562	6.74
297.775	6.44
297.988	6.39
298.201	6.24
298.414	6.48
298.626	6.21
298.839	6.22
299.052	6.85
299.265	6.71
299.478	6.44
299.691	6.36
299.903	6.1
300.116	6.43
300.329	6.82
300.542	6.98
300.755	7.03
300.967	7.37
301.18	7.43
301.393	7.25
301.605	6.97
301.818	7.36
302.031	7.46
302.243	7.54
302.456	7.57
302.669	7.59
302.881	7.86
303.094	8
303.307	7.96
303.519	7.89
303.732	8.04
303.944	8.78
304.157	9.18
304.37	9.21
304.582	9.49
304.795	9.64
305.007	9.71
305.22	9.45
305.432	9.26
305.645	9.27
305.857	9.65
306.069	9.73
306.282	9.45
306.494	9.19
306.707	9.35
306.919	9.15
307.132	9.07
307.344	9.31
307.556	9.29
307.769	9.16
307.981	9.4
308.193	9
308.406	8.95
308.618	8.82
308.83	9.04
309.043	9.01
309.255	9.11
309.467	9.05
309.679	8.84
309.892	8.83
310.104	8.78
310.316	8.83
310.528	9.2
310.74	9.03
310.953	9.15
311.165	9.17
311.377	9.13
311.589	9.23
311.801	9.46
312.013	9.62
312.225	9.88
312.437	10.08
312.649	10.07
312.862	10.01
313.074	10.17
313.286	10.04
313.498	9.83
313.71	10.05
313.922	10.13
314.134	9.9
314.346	9.32
314.558	9.27
314.77	9.44
314.982	9.58
315.193	9.96
315.405	9.86
315.617	9.81
315.829	9.96
316.041	9.76
316.253	9.91
316.465	9.75
316.677	10.39
316.888	10.49
317.1	10.28
317.312	9.94
317.524	9.4
317.736	10.09
317.947	10.75
318.159	10.75
318.371	11.12
318.583	10.83
318.794	11.21
319.006	10.75
319.218	10.63
319.43	10.49
319.641	10.71
319.853	10.89
320.064	10.08
320.276	9.22
320.488	9.46
320.699	9.35
320.911	9.1
321.123	8.87
321.334	9.57
321.546	9.53
321.757	9.61
321.969	9.46
322.18	8.99
322.392	9.42
322.603	10.08
322.815	9.72
323.026	9.62
323.238	9.7
323.449	9.67
323.661	9.5
323.872	9.26
324.083	9.38
324.295	9.15
324.506	9.52
324.718	9.55
324.929	9.35
325.14	9.41
325.352	9.16
325.563	9.48
325.774	9.62
325.986	9.47
326.197	9.75
326.408	9.7
326.62	9.93
326.831	10.08
327.042	10.33
327.253	10.21
327.464	10.67
327.676	11.12
327.887	11.1
328.098	10.92
328.309	11.06
328.52	11.31
328.732	11.3
328.943	11.47
329.154	11.35
329.365	11.37
329.576	10.96
329.787	10.77
329.998	10.51
330.209	10.49
330.42	11.04
330.631	11.16
330.842	10.94
331.053	11.27
331.264	11.14
331.475	11.51
331.686	11.04
331.897	11.65
332.108	11.68
332.319	11.89
332.53	11.79
332.741	11.65
332.952	11.62
333.163	11.84
333.374	11.87
333.585	11.92
333.795	11.81
334.006	11.96
334.217	12.08
334.428	11.95
334.639	11.59
334.849	11.15
335.06	10.94
335.271	11.08
335.482	10.87
335.692	10.88
335.903	10.93
336.114	10.97
336.325	11.08
336.535	11.15
336.746	11.35
336.957	11.63
337.167	12.04
337.378	12.22
337.589	11.95
337.799	11.98
338.01	12.01
338.22	12.28
338.431	12.65
338.642	12.31
338.852	12.27
339.063	12.1
339.273	12.12
339.484	12.49
339.694	12.24
339.905	12.08
340.115	11.79
340.326	11.53
340.536	11.15
340.746	10.52
340.957	10.74
341.167	10.55
341.378	10.32
341.588	10.13
341.799	10.04
342.009	10.14
342.219	10.3
342.43	10.63
342.64	10.72
342.85	10.43
343.061	10.38
343.271	10.19
343.481	10.35
343.691	10.3
343.902	10.58
344.112	10.41
344.322	10.46
344.532	10.46
344.743	10.5
344.953	10.26
345.163	10.62
345.373	10.63
345.583	10.65
345.793	10.59
346.004	11.11
346.214	11.08
346.424	11.1
346.634	11.11
346.844	11.22
347.054	10.92
347.264	11.08
347.474	10.97
347.684	11.33
347.894	11.28
348.104	11.07
348.314	10.62
348.524	10.57
348.734	10.66
348.944	10.76
349.154	10.76
349.364	10.96
349.574	10.87
349.784	11.07
349.994	10.9
350.204	11.09
350.413	11.25
350.623	11.42
350.833	11.28
351.043	11.35
351.253	11.23
351.463	11.23
351.672	11.33
351.882	11.47
352.092	11.26
352.302	11.17
352.511	11.02
352.721	11.32
352.931	11.14
353.141	10.96
353.35	10.63
353.56	10.97
353.77	10.78
353.979	10.62
354.189	10.47
354.399	10.54
354.608	10.58
354.818	10.63
355.027	10.44
355.237	10.5
355.447	10.58
355.656	10.44
355.866	10.04
356.075	10.01
356.285	10.09
356.494	10.09
356.704	10.04
356.913	10.1
357.123	10.13
357.332	10.18
357.542	10.14
357.751	10.35
357.96	10.56
358.17	10.55
358.379	10.89
358.589	10.87
358.798	10.76
359.007	10.82
359.217	10.78
359.426	10.77
359.635	10.65
359.845	10.68
360.054	10.47
360.263	10.48
360.472	10.46
360.682	10.06
360.891	9.95
361.1	10.01
361.309	9.78
361.519	9.69
361.728	9.67
361.937	9.59
362.146	9.57
362.355	9.61
362.564	9.55
362.774	9.53
362.983	9.47
363.192	9.52
363.401	9.51
363.61	9.58
363.819	9.47
364.028	9.39
364.237	9.35
364.446	9.23
364.655	9.1
364.864	9.15
365.073	9.21
365.282	9.42
365.491	9.35
365.7	9.37
365.909	9.48
366.118	9.59
366.327	9.51
366.536	9.57
366.745	9.72
366.954	9.99
367.162	9.96
367.371	10.02
367.58	9.96
367.789	9.87
367.998	9.67
368.207	9.52
368.415	9.35
368.624	9.58
368.833	9.73
369.042	9.47
369.25	8.98
369.459	8.6
369.668	8.33
369.877	8.47
370.085	8.32
370.294	8.47
370.503	8.29
370.711	8.51
370.92	8.11
371.129	8.04
371.337	7.99
371.546	8.12
371.754	8.23
371.963	8.05
372.171	7.88
372.38	7.78
372.589	7.87
372.797	8.04
373.006	7.8
373.214	8.05
373.423	7.78
373.631	8.31
373.84	8.45
374.048	8.21
374.256	8.35
374.465	8.14
374.673	8.58
374.882	8.42
375.09	8.19
375.298	8.14
375.507	8.14
375.715	8.07
375.923	7.8
376.132	7.64
376.34	7.84
376.548	7.85
376.757	7.84
376.965	7.53
377.173	7.34
377.381	7.35
377.59	7.28
377.798	7.17
378.006	7.15
378.214	7.26
378.423	7.22
378.631	6.98
378.839	6.83
379.047	6.93
379.255	7.02
379.463	7.16
379.671	7.2
379.879	7.34
380.088	7.22
380.296	7.26
380.504	6.95
380.712	7.05
380.92	7.27
381.128	7.35
381.336	7.21
381.544	6.89
381.752	6.93
381.96	6.73
382.168	6.63
382.376	6.75
382.584	6.55
382.791	6.64
382.999	6.62
383.207	6.48
383.415	6.58
383.623	6.63
383.831	6.86
384.039	6.94
384.247	6.98
384.454	6.84
384.662	6.64
384.87	6.72
385.078	6.73
385.285	6.53
385.493	6.45
385.701	6.48
385.909	6.18
386.116	6.05
386.324	5.7
386.532	5.64
386.739	5.81
386.947	5.77
387.155	5.7
387.362	5.7
387.57	5.66
387.778	5.68
387.985	5.48
388.193	5.71
388.4	5.76
388.608	5.97
388.816	6.05
389.023	5.93
389.231	5.68
389.438	5.76
389.646	5.58
389.853	5.64
390.061	5.53
390.268	5.66
390.475	5.69
390.683	5.58
390.89	5.36
391.098	5.52
391.305	5.34
391.512	5.58
391.72	5.49
391.927	5.42
392.135	5.09
392.342	5.13
392.549	4.95
392.756	4.77
392.964	4.8
393.171	4.94
393.378	4.93
393.586	5
393.793	4.8
394	4.9
394.207	4.93
394.414	5.32
394.622	5.4
394.829	5.45
395.036	5.55
395.243	5.64
395.45	5.42
395.657	5.37
395.864	5.53
396.072	5.56
396.279	5.41
396.486	5.36
396.693	5.24
396.9	5.01
397.107	4.86
397.314	4.8
397.521	4.9
397.728	5.03
397.935	4.9
398.142	4.79
398.349	5.02
398.556	5
398.763	4.95
398.97	4.84
399.177	4.98
399.383	5.03
399.59	5.03
399.797	4.97
400.004	5.08
400.211	4.98
400.418	5.08
400.625	4.92
400.831	4.98
401.038	4.97
401.245	5
401.452	4.89
401.658	4.79
401.865	4.8
402.072	4.73
402.279	4.62
402.485	4.57
402.692	4.4
402.899	4.5
403.105	4.41
403.312	4.47
403.519	4.42
403.725	4.46
403.932	4.54
404.138	4.59
404.345	4.55
404.552	4.42
404.758	4.73
404.965	4.82
405.171	4.7
405.378	4.82
405.584	4.86
405.791	4.92
405.997	4.9
406.204	4.78
406.41	4.66
406.617	4.65
406.823	4.79
407.029	4.56
407.236	4.55
407.442	4.62
407.649	4.69
407.855	4.51
408.061	4.53
408.268	4.53
408.474	4.74
408.68	4.81
408.887	4.66
409.093	4.51
409.299	4.5
409.505	4.39
409.712	4.43
409.918	4.41
410.124	4.47
410.33	4.54
410.537	4.53
410.743	4.52
410.949	4.43
411.155	4.62
411.361	4.76
411.567	4.67
411.773	4.5
411.98	4.39
412.186	4.21
412.392	4.04
412.598	3.77
412.804	3.85
413.01	3.68
413.216	3.53
413.422	3.22
413.628	3.07
413.834	3.1
414.04	3.38
414.246	3.63
414.452	3.73
414.658	3.87
414.864	4.02
415.07	4.14
415.275	4.24
415.481	4.42
415.687	4.53
415.893	4.62
416.099	4.5
416.305	4.3
416.511	4.16
416.716	4
416.922	3.91
417.128	3.88
417.334	3.59
417.539	3.48
417.745	3.34
417.951	3.37
418.157	3.32
418.362	3.38
418.568	3.5
418.774	3.42
418.979	3.39
419.185	3.39
419.391	3.29
419.596	3.44
419.802	3.53
420.008	3.58
420.213	2.86
420.419	2.85
420.624	2.87
420.83	2.8
421.035	2.87
421.241	2.87
421.446	2.92
421.652	2.99
421.857	2.95
422.063	2.89
422.268	2.91
422.474	3.48
422.679	3.51
422.885	3.5
423.09	3.47
423.295	3.4
423.501	3.46
423.706	3.47
423.911	3.41
424.117	3.36
424.322	3.39
424.527	3.4
424.733	3.47
424.938	3.46
425.143	3.43
425.349	3.52
425.554	3.53
425.759	3.61
425.964	3.61
426.169	3.66
426.375	3.77
426.58	3.83
426.785	3.9
426.99	3.98
427.195	3.93
427.4	3.99
427.605	3.94
427.811	3.88
428.016	3.75
428.221	3.78
428.426	3.79
428.631	3.7
428.836	3.71
429.041	3.6
429.246	3.46
429.451	3.52
429.656	3.5
429.861	3.56
430.066	3.72
430.271	3.81
430.476	3.82
430.681	3.78
430.886	3.86
431.09	3.79
431.295	3.8
431.5	3.88
431.705	3.93
431.91	3.89
432.115	3.81
432.32	3.72
432.524	3.7
432.729	3.73
432.934	3.72
433.139	3.66
433.343	3.7
433.548	3.61
433.753	3.62
433.958	3.57
434.162	3.72
434.367	3.75
434.572	3.8
434.776	3.8
434.981	3.74
435.186	3.82
435.39	3.87
435.595	3.85
435.799	3.85
436.004	3.79
436.209	3.83
436.413	3.75
436.618	3.74
436.822	3.7
437.027	3.59
437.231	3.57
437.436	3.54
437.64	3.47
437.845	3.44
438.049	3.5
438.253	3.5
438.458	3.57
438.662	3.47
438.867	3.44
439.071	3.41
439.275	3.47
439.48	3.41
439.684	3.43
439.888	3.43
440.093	3.41
440.297	3.41
440.501	3.38
440.706	3.33
440.91	3.33
441.114	3.31
441.318	3.31
441.523	3.31
441.727	3.39
441.931	3.37
442.135	3.34
442.339	3.32
442.543	3.32
442.748	3.36
442.952	3.33
443.156	3.37
443.36	3.44
443.564	3.46
443.768	3.35
443.972	3.3
444.176	3.33
444.38	3.38
444.584	3.33
444.788	3.35
444.992	3.37
445.196	3.32
445.4	3.29
445.604	3.23
445.808	3.24
446.012	3.23
446.216	3.14
446.42	3.1
446.624	3.1
446.828	3.19
447.032	3.23
447.235	3.25
447.439	3.26
447.643	3.32
447.847	3.33
448.051	3.36
448.254	3.4
448.458	3.5
448.662	3.51
448.866	3.46
449.069	3.39
449.273	3.34
449.477	3.2
449.681	3.23
449.884	3.12
450.088	3.14
450.292	3.1
450.495	2.95
450.699	3.02
450.902	3.01
451.106	3.02
451.31	3.03
451.513	3.02
451.717	3.12
451.92	3.12
452.124	3.22
452.327	3.22
452.531	3.27
452.734	3.42
452.938	3.28
453.141	3.3
453.345	3.39
453.548	3.45
453.752	3.55
453.955	3.54
454.158	3.51
454.362	3.49
454.565	3.51
454.769	3.54
454.972	3.52
455.175	3.63
455.379	3.69
455.582	3.63
455.785	3.58
455.988	3.48
456.192	3.33
456.395	3.39
456.598	3.43
456.801	3.43
457.005	3.32
457.208	3.37
457.411	3.24
457.614	3.01
457.817	3.02
458.021	3.03
458.224	3.05
458.427	3.24
458.63	3.27
458.833	3.19
459.036	3.14
459.239	3.2
459.442	3.25
459.645	3.29
459.848	3.36
460.051	3.36
460.254	3.33
460.457	3.29
460.66	3.23
460.863	3.15
461.066	3.23
461.269	3.2
461.472	3.22
461.675	3.17
461.878	3.15
462.081	3.22
462.284	3.26
462.486	3.34
462.689	3.32
462.892	3.31
463.095	3.34
463.298	3.23
463.5	3.42
463.703	3.48
463.906	3.49
464.109	3.58
464.311	3.64
464.514	3.66
464.717	3.7
464.92	3.69
465.122	3.75
465.325	3.78
465.528	3.87
465.73	3.78
465.933	3.66
466.135	3.62
466.338	3.54
466.541	3.5
466.743	3.51
466.946	3.47
467.148	3.67
467.351	3.73
467.553	3.85
467.756	3.88
467.958	3.9
468.161	3.93
468.363	3.95
468.566	4.07
468.768	4.02
468.971	3.92
469.173	3.87
469.375	3.8
469.578	3.74
469.78	3.65
469.983	3.73
470.185	3.79
470.387	3.79
470.59	3.84
470.792	3.73
470.994	3.75
471.196	3.78
471.399	3.75
471.601	3.74
471.803	3.69
472.005	3.78
472.208	3.6
472.41	3.5
472.612	3.58
472.814	3.47
473.016	3.51
473.218	3.49
473.421	3.5
473.623	3.59
473.825	3.6
474.027	3.65
474.229	3.51
474.431	3.58
474.633	3.63
474.835	3.56
475.037	3.61
475.239	3.66
475.441	3.65
475.643	3.69
475.845	3.66
476.047	3.62
476.249	3.53
476.451	3.59
476.653	3.56
476.855	3.54
477.057	3.46
477.258	3.4
477.46	3.37
477.662	3.38
477.864	3.33
478.066	3.24
478.268	3.21
478.469	3.29
478.671	3.25
478.873	3.31
479.075	3.33
479.276	3.37
479.478	3.4
479.68	3.41
479.882	3.44
480.083	3.42
480.285	3.52
480.487	3.51
480.688	3.48
480.89	3.51
481.091	3.44
481.293	3.35
481.495	3.35
481.696	3.38
481.898	3.31
482.099	3.23
482.301	3.16
482.502	3.03
482.704	3.02
482.905	3
483.107	2.96
483.308	2.94
483.51	2.94
483.711	2.9
483.913	2.89
484.114	2.88
484.315	2.92
484.517	2.98
484.718	3.07
484.92	3.09
485.121	3.13
485.322	3.11
485.524	3.15
485.725	3.19
485.926	3.19
486.127	3.17
486.329	3.21
486.53	3.19
486.731	3.14
486.932	3.14
487.134	3.16
487.335	3.16
487.536	3.21
487.737	3.19
487.938	3.19
488.139	3.25
488.341	3.33
488.542	3.32
488.743	3.3
488.944	3.32
489.145	3.3
489.346	3.26
489.547	3.24
489.748	3.24
489.949	3.26
490.15	3.28
490.351	3.26
490.552	3.19
490.753	3.18
490.954	3.19
491.155	3.19
491.356	3.19
491.557	3.23
491.758	3.27
491.959	3.27
492.159	3.28
492.36	3.31
492.561	3.35
492.762	3.39
492.963	3.45
493.164	3.51
493.364	3.6
493.565	3.68
493.766	3.73
493.967	3.67
494.167	3.71
494.368	3.8
494.569	3.79
494.769	3.79
494.97	3.75
495.171	3.81
495.371	3.85
495.572	3.83
495.773	3.78
495.973	3.78
496.174	3.79
496.375	3.84
496.575	3.75
496.776	3.76
496.976	3.76
497.177	3.77
497.377	3.73
497.578	3.72
497.778	3.76
497.979	3.88
498.179	3.9
498.38	3.86
498.58	3.86
498.78	3.86
498.981	3.84
499.181	3.9
499.382	3.94
499.582	3.95
499.782	3.94
499.983	3.93
500.183	3.98
500.383	3.97
500.584	4.07
500.784	4.03
500.984	4.17
501.184	4.28
501.385	4.26
501.585	4.3
501.785	4.37
501.985	4.42
502.185	4.47
502.386	4.39
502.586	4.41
502.786	4.54
502.986	4.61
503.186	4.6
503.386	4.59
503.586	4.62
503.786	4.7
503.987	4.72
504.187	4.77
504.387	4.74
504.587	4.79
504.787	4.92
504.987	4.91
505.187	4.96
505.387	4.97
505.587	5.04
505.786	5.12
505.986	5.1
506.186	5.14
506.386	5.25
506.586	5.29
506.786	5.35
506.986	5.39
507.186	5.47
507.386	5.54
507.585	5.68
507.785	5.76
507.985	5.77
508.185	5.84
508.384	5.93
508.584	5.91
508.784	5.98
508.984	5.96
509.183	5.97
509.383	6.04
509.583	6.13
509.782	6.17
509.982	6.12
510.182	6.25
510.381	6.29
510.581	6.3
510.781	6.37
510.98	6.49
511.18	6.55
511.379	6.61
511.579	6.56
511.778	6.59
511.978	6.65
512.177	6.83
512.377	6.9
512.576	6.99
512.776	7.05
512.975	7.15
513.175	7.24
513.374	7.31
513.573	7.37
513.773	7.51
513.972	7.57
514.172	7.64
514.371	7.69
514.57	7.73
514.77	7.79
514.969	7.87
515.168	7.94
515.367	7.87
515.567	7.93
515.766	8.05
515.965	8.16
516.164	8.28
516.364	8.36
516.563	8.41
516.762	8.51
516.961	8.63
517.16	8.69
517.359	8.78
517.559	8.92
517.758	9.08
517.957	9.17
518.156	9.27
518.355	9.36
518.554	9.43
518.753	9.48
518.952	9.55
519.151	9.58
519.35	9.72
519.549	9.78
519.748	9.9
519.947	9.99
520.146	10.1
520.345	10.17
520.544	10.27
520.743	10.4
520.942	10.53
521.141	10.72
521.339	10.85
521.538	10.97
521.737	11.09
521.936	11.26
522.135	11.3
522.333	11.4
522.532	11.45
522.731	11.58
522.93	11.67
523.129	11.82
523.327	11.86
523.526	12.04
523.725	12.18
523.923	12.26
524.122	12.33
524.321	12.48
524.519	12.56
524.718	12.77
524.917	12.81
525.115	12.94
525.314	13.04
525.512	13.13
525.711	13.22
525.909	13.27
526.108	13.41
526.306	13.45
526.505	13.54
526.703	13.64
526.902	13.71
527.1	13.82
527.299	13.87
527.497	13.92
527.696	13.98
527.894	14.02
528.092	14.08
528.291	14.12
528.489	14.24
528.688	14.3
528.886	14.38
529.084	14.43
529.283	14.53
529.481	14.62
529.679	14.73
529.877	14.83
530.076	14.96
530.274	15.12
530.472	15.23
530.67	15.35
530.869	15.46
531.067	15.57
531.265	15.67
531.463	15.72
531.661	15.8
531.859	15.92
532.057	16.03
532.255	16.07
532.454	16.1
532.652	16.19
532.85	16.2
533.048	16.32
533.246	16.47
533.444	16.56
533.642	16.65
533.84	16.76
534.038	16.85
534.236	16.9
534.434	17.06
534.632	17.2
534.83	17.35
535.027	17.55
535.225	17.61
535.423	17.65
535.621	17.78
535.819	17.88
536.017	17.94
536.215	18.03
536.412	18.18
536.61	18.24
536.808	18.31
537.006	18.39
537.203	18.44
537.401	18.62
537.599	18.7
537.797	18.79
537.994	18.88
538.192	19.03
538.39	19.15
538.587	19.23
538.785	19.34
538.983	19.39
539.18	19.4
539.378	19.44
539.575	19.45
539.773	19.51
539.97	19.56
540.168	19.66
540.366	19.67
540.563	19.67
540.761	19.73
540.958	19.76
541.155	19.82
541.353	19.9
541.55	20.01
541.748	20.16
541.945	20.26
542.143	20.36
542.34	20.38
542.537	20.45
542.735	20.56
542.932	20.64
543.129	20.76
543.327	20.85
543.524	20.96
543.721	21.01
543.919	20.96
544.116	21.04
544.313	21.11
544.51	21.22
544.708	21.38
544.905	21.51
545.102	21.69
545.299	21.69
545.496	21.83
545.693	21.86
545.891	21.9
546.088	22.09
546.285	22.08
546.482	22.09
546.679	22.19
546.876	22.24
547.073	22.22
547.27	22.14
547.467	22.26
547.664	22.29
547.861	22.38
548.058	22.49
548.255	22.43
548.452	22.47
548.649	22.56
548.846	22.64
549.043	22.68
549.24	22.82
549.437	22.89
549.633	22.86
549.83	22.87
550.027	22.79
550.224	22.76
550.421	22.89
550.618	22.96
550.814	23
551.011	23.12
551.208	23.07
551.405	23.03
551.601	23.05
551.798	23.19
551.995	23.27
552.191	23.47
552.388	23.62
552.585	23.65
552.781	23.72
552.978	23.73
553.175	23.61
553.371	23.69
553.568	23.65
553.764	23.7
553.961	23.7
554.157	23.66
554.354	23.57
554.55	23.48
554.747	23.54
554.943	23.57
555.14	23.58
555.336	23.66
555.533	23.69
555.729	23.81
555.926	23.95
556.122	23.92
556.318	23.88
556.515	23.99
556.711	24.02
556.907	24
557.104	24.05
557.3	24.15
557.496	24.08
557.693	23.97
557.889	23.96
558.085	24.08
558.281	24.2
558.478	24.41
558.674	24.44
558.87	24.58
559.066	24.68
559.262	24.67
559.459	24.74
559.655	24.78
559.851	24.94
560.047	25.03
560.243	25.01
560.439	24.98
560.635	24.95
560.831	24.85
561.027	24.94
561.223	24.8
561.419	24.8
561.615	24.86
561.811	24.92
562.007	24.91
562.203	24.9
562.399	24.91
562.595	24.87
562.791	24.75
562.987	24.86
563.183	24.69
563.379	24.93
563.575	24.99
563.771	24.96
563.966	25.02
564.162	25.12
564.358	25.16
564.554	25.05
564.75	25.14
564.945	25.26
565.141	25.28
565.337	25.37
565.533	25.24
565.728	25.15
565.924	25.16
566.12	25.13
566.315	25.12
566.511	25.14
566.707	25.17
566.902	25.19
567.098	25.25
567.293	25.31
567.489	25.27
567.684	25.38
567.88	25.42
568.076	25.45
568.271	25.52
568.467	25.5
568.662	25.59
568.858	25.73
569.053	25.75
569.248	25.77
569.444	25.7
569.639	25.77
569.835	25.7
570.03	25.75
570.225	25.76
570.421	25.8
570.616	25.88
570.812	25.85
571.007	25.67
571.202	25.7
571.397	25.63
571.593	25.71
571.788	25.72
571.983	25.83
572.178	25.89
572.374	25.87
572.569	25.84
572.764	25.79
572.959	25.78
573.154	26.02
573.35	25.93
573.545	25.97
573.74	26.04
573.935	26.08
574.13	25.97
574.325	25.97
574.52	26
574.715	26.01
574.91	26.01
575.105	26.03
575.3	25.95
575.495	26.06
575.69	26.24
575.885	26.22
576.08	26.14
576.275	26.26
576.47	26.33
576.665	26.35
576.86	26.39
577.055	26.54
577.25	26.63
577.444	26.63
577.639	26.78
577.834	26.68
578.029	26.79
578.224	27.02
578.418	27.07
578.613	27.2
578.808	27.35
579.003	27.43
579.197	27.37
579.392	27.33
579.587	27.35
579.781	27.31
579.976	27.33
580.171	27.3
580.365	27.25
580.56	27.25
580.755	27.24
580.949	27.27
581.144	27.27
581.338	27.28
581.533	27.3
581.727	27.41
581.922	27.43
582.116	27.52
582.311	27.54
582.505	27.56
582.7	27.58
582.894	27.51
583.089	27.52
583.283	27.52
583.478	27.64
583.672	27.8
583.866	27.8
584.061	27.72
584.255	27.76
584.449	27.76
584.644	27.73
584.838	27.74
585.032	27.73
585.226	27.75
585.421	27.88
585.615	27.88
585.809	27.79
586.003	27.75
586.198	27.91
586.392	27.91
586.586	27.83
586.78	27.93
586.974	27.99
587.168	27.88
587.363	27.8
587.557	27.62
587.751	27.44
587.945	27.41
588.139	27.31
588.333	27.16
588.527	27.08
588.721	27.15
588.915	26.98
589.109	26.93
589.303	27.23
589.497	27.26
589.691	27.21
589.885	27.37
590.079	27.44
590.273	27.57
590.466	27.62
590.66	27.7
590.854	27.77
591.048	27.88
591.242	27.89
591.436	27.74
591.629	27.71
591.823	27.81
592.017	27.84
592.211	27.85
592.404	27.89
592.598	27.9
592.792	27.81
592.986	27.74
593.179	27.73
593.373	27.8
593.567	27.76
593.76	27.86
593.954	27.94
594.147	27.73
594.341	27.69
594.535	27.69
594.728	27.65
594.922	27.58
595.115	27.61
595.309	27.56
595.502	27.46
595.696	27.51
595.889	27.43
596.083	27.3
596.276	27.49
596.47	27.56
596.663	27.64
596.856	27.71
597.05	27.79
597.243	27.82
597.437	27.84
597.63	27.89
597.823	27.9
598.017	28.01
598.21	28.16
598.403	28.29
598.596	28.33
598.79	28.24
598.983	28.3
599.176	28.33
599.369	28.28
599.563	28.39
599.756	28.46
599.949	28.52
600.142	28.41
600.335	28.54
600.528	28.19
600.722	28.01
600.915	28
601.108	28
601.301	28.08
601.494	28.12
601.687	28.21
601.88	28.19
602.073	28.16
602.266	28.1
602.459	27.96
602.652	28.08
602.845	28.2
603.038	28.31
603.231	28.3
603.424	28.29
603.617	28.19
603.809	28.11
604.002	28.09
604.195	28.11
604.388	28.19
604.581	28.24
604.774	28.29
604.966	28.23
605.159	28.22
605.352	28.23
605.545	28.18
605.737	28.34
605.93	28.39
606.123	28.43
606.316	28.46
606.508	28.49
606.701	28.51
606.894	28.48
607.086	28.61
607.279	28.58
607.471	28.64
607.664	28.64
607.857	28.68
608.049	28.85
608.242	28.98
608.434	28.97
608.627	29.18
608.819	29.36
609.012	29.65
609.204	29.81
609.397	29.99
609.589	30.19
609.782	30.63
609.974	31.01
610.166	31.06
610.359	31.34
610.551	31.65
610.743	31.82
610.936	32.15
611.128	32.25
611.32	32.31
611.513	32.41
611.705	32.53
611.897	32.48
612.09	32.13
612.282	32.13
612.474	32.01
612.666	31.93
612.858	31.9
613.051	31.57
613.243	31.55
613.435	31.51
613.627	31.3
613.819	31.09
614.011	30.88
614.203	31.07
614.395	31.12
614.588	30.97
614.78	30.93
614.972	30.77
615.164	30.63
615.356	30.4
615.548	30.3
615.74	30.35
615.932	30.26
616.124	30.18
616.315	30.1
616.507	29.89
616.699	29.7
616.891	29.5
617.083	29.53
617.275	29.43
617.467	29.5
617.659	29.46
617.85	29.51
618.042	29.55
618.234	29.64
618.426	29.69
618.618	29.78
618.809	29.99
619.001	30.2
619.193	30.27
619.384	30.3
619.576	30.19
619.768	30.27
619.959	30.39
620.151	30.53
620.343	30.66
620.534	30.54
620.726	30.59
620.917	30.59
621.109	30.47
621.301	30.35
621.492	30.45
621.684	30.54
621.875	30.34
622.067	30.09
622.258	29.79
622.45	29.78
622.641	29.78
622.832	29.58
623.024	29.54
623.215	29.55
623.407	29.53
623.598	29.68
623.789	29.62
623.981	29.64
624.172	29.83
624.363	29.86
624.555	29.76
624.746	29.73
624.937	29.68
625.129	29.64
625.32	29.68
625.511	29.65
625.702	29.56
625.893	29.52
626.085	29.48
626.276	29.47
626.467	29.53
626.658	29.5
626.849	29.49
627.04	29.62
627.231	29.66
627.422	29.66
627.614	29.64
627.805	29.65
627.996	29.79
628.187	30
628.378	29.96
628.569	30.02
628.76	30.11
628.951	29.92
629.142	29.92
629.332	29.79
629.523	29.79
629.714	29.88
629.905	30
630.096	30
630.287	29.96
630.478	30.05
630.669	30.09
630.859	30.09
631.05	30.36
631.241	30.24
631.432	30.37
631.623	30.24
631.813	30.05
632.004	29.84
632.195	29.82
632.385	29.69
632.576	29.53
632.767	29.4
632.957	29.13
633.148	29.04
633.339	29.23
633.529	29.23
633.72	29.29
633.91	29.23
634.101	29.3
634.292	29.37
634.482	29.45
634.673	29.46
634.863	29.42
635.054	29.68
635.244	29.76
635.435	29.69
635.625	29.83
635.815	29.9
636.006	30.17
636.196	30.21
636.387	29.94
636.577	29.97
636.767	30.02
636.958	30.07
637.148	30.08
637.338	30.18
637.529	30.21
637.719	30.1
637.909	30.02
638.099	29.93
638.29	29.99
638.48	30.25
638.67	30.29
638.86	30.34
639.05	30.38
639.241	30.46
639.431	30.54
639.621	30.68
639.811	30.85
640.001	30.83
640.191	30.91
640.381	30.77
640.571	30.74
640.761	30.95
640.951	31.21
641.141	31.26
641.331	31.19
641.521	30.98
641.711	30.86
641.901	30.63
642.091	30.84
642.281	30.93
642.471	30.87
642.661	30.76
642.851	30.41
643.041	30
643.231	29.82
643.42	29.81
643.61	29.82
643.8	29.78
643.99	29.96
644.18	29.85
644.369	29.9
644.559	30
644.749	30.01
644.939	30.38
645.128	30.54
645.318	30.91
645.508	30.92
645.697	30.8
645.887	30.77
646.076	30.95
646.266	30.87
646.456	30.74
646.645	30.81
646.835	30.75
647.024	30.42
647.214	30.44
647.403	30.46
647.593	30.35
647.782	30.49
647.972	30.32
648.161	30.05
648.351	30.08
648.54	30.25
648.73	30.03
648.919	30.36
649.108	30.38
649.298	30.36
649.487	30.15
649.677	30.1
649.866	30.35
650.055	30.34
650.244	30.2
650.434	30.33
650.623	30.16
650.812	30.37
651.002	30.37
651.191	30.58
651.38	30.53
651.569	30.4
651.758	30.48
651.947	30.16
652.137	30.3
652.326	30.57
652.515	30.62
652.704	30.81
652.893	30.77
653.082	30.58
653.271	30.69
653.46	30.75
653.649	31.03
653.838	31.18
654.027	31.34
654.216	31.27
654.405	31.15
654.594	30.92
654.783	30.68
654.972	30.86
655.161	30.77
655.35	30.57
655.539	30.58
655.728	30.43
655.916	30.32
656.105	30.21
656.294	30.37
656.483	30.24
656.672	30.27
656.86	30.3
657.049	30.01
657.238	30.07
657.427	29.84
657.615	29.79
657.804	29.86
657.993	29.62
658.181	29.83
658.37	29.76
658.559	29.61
658.747	29.67
658.936	29.53
659.125	29.69
659.313	29.67
659.502	29.81
659.69	29.73
659.879	29.6
660.067	29.91
660.256	29.8
660.444	29.79
660.633	29.97
660.821	30.05
661.01	30.23
661.198	30.13
661.387	30.14
661.575	30.12
661.763	30.35
661.952	30.59
662.14	30.63
662.328	30.92
662.517	31.06
662.705	31.46
662.893	31.42
663.082	31.55
663.27	31.61
663.458	31.68
663.646	31.83
663.834	31.82
664.023	31.63
664.211	31.47
664.399	31.19
664.587	31.28
664.775	31.15
664.963	31.27
665.152	31.39
665.34	31.28
665.528	31.35
665.716	31.41
665.904	31.28
666.092	31.38
666.28	31.31
666.468	31.06
666.656	31
666.844	31
667.032	31.17
667.22	30.67
667.408	30.8
667.596	30.53
667.784	30.42
667.971	30.77
668.159	30.83
668.347	30.84
668.535	30.91
668.723	30.99
668.911	31.02
669.098	30.83
669.286	31.35
669.474	31.34
669.662	31.49
669.849	31.4
670.037	31.21
670.225	31.25
670.413	31.24
670.6	31.47
670.788	31.36
670.976	31.19
671.163	31.1
671.351	30.85
671.538	30.86
671.726	30.77
671.913	30.74
672.101	30.65
672.289	30.63
672.476	30.66
672.664	30.8
672.851	31.02
673.039	31.02
673.226	31.16
673.413	31.2
673.601	31.37
673.788	31.46
673.976	31.59
674.163	31.49
674.35	31.21
674.538	31.57
674.725	31.46
674.912	31.33
675.1	31.43
675.287	31.22
675.474	31.29
675.662	31.18
675.849	31.06
676.036	31.07
676.223	31.28
676.411	31.36
676.598	31.07
676.785	31.11
676.972	31.04
677.159	31.1
677.346	31.3
677.533	31.28
677.721	31.4
677.908	31.54
678.095	31.61
678.282	31.42
678.469	31.62
678.656	31.86
678.843	31.7
679.03	31.81
679.217	31.64
679.404	31.59
679.591	31.3
679.778	31.13
679.964	30.93
680.151	31.05
680.338	30.92
680.525	30.89
680.712	30.44
680.899	30.49
681.086	30.55
681.272	30.68
681.459	30.5
681.646	30.8
681.833	30.97
682.02	31.26
682.206	31.17
682.393	31.5
682.58	31.3
682.766	31.51
682.953	31.55
683.14	31.19
683.326	31.16
683.513	31.42
683.7	31.3
683.886	31.27
684.073	31.28
684.259	31.14
684.446	31
684.632	31.1
684.819	31.21
685.005	31.29
685.192	31.69
685.378	31.94
685.565	31.93
685.751	31.98
685.938	32.07
686.124	32.11
686.31	32.23
686.497	32.43
686.683	32.58
686.87	32.63
687.056	32.54
687.242	32.42
687.429	32.2
687.615	32.1
687.801	32.28
687.987	32.34
688.174	32.37
688.36	32.45
688.546	32.21
688.732	32.17
688.918	32.08
689.105	32.05
689.291	32.09
689.477	32.08
689.663	32.02
689.849	31.95
690.035	31.61
690.221	31.94
690.407	31.92
690.593	32.02
690.779	31.95
690.965	31.74
691.151	31.56
691.337	31.58
691.523	31.76
691.709	32.03
691.895	31.75
692.081	32.04
692.267	31.58
692.453	31.47
692.639	31.45
692.825	31.61
693.011	32
693.196	32.09
693.382	32.2
693.568	31.93
693.754	31.83
693.94	32.04
694.125	32
694.311	32.18
694.497	32.34
694.682	32.38
694.868	32.64
695.054	32.87
695.239	32.97
695.425	32.7
695.611	32.65
695.796	32.73
695.982	32.67
696.168	32.39
696.353	32.11
696.539	31.74
696.724	31.74
696.91	31.19
697.095	30.55
697.281	30.54
697.466	30.42
697.652	30.53
697.837	30.22
698.023	30.27
698.208	30.24
698.393	30.24
698.579	30.25
698.764	30.32
698.949	30.52
699.135	31.03
699.32	31.08
699.505	31.05
699.691	31.06
699.876	31.13
700.061	31.07
700.246	31.35
700.432	31.26
700.617	31.28
700.802	31.22
700.987	31.21
701.172	30.9
701.358	31.02
701.543	31.43
701.728	31.85
701.913	32.12
702.098	32.03
702.283	32.06
702.468	32.35
702.653	32.99
702.838	33.09
703.023	33.38
703.208	33.29
703.393	33.08
703.578	33.13
703.763	32.74
703.948	32.69
704.133	32.87
704.318	32.73
704.503	33.15
704.688	33.27
704.873	33.43
705.057	33.25
705.242	33.56
705.427	34.12
705.612	34.01
705.797	34.02
705.981	34.25
706.166	34.4
706.351	34.85
706.536	34.83
706.72	34.31
706.905	34.24
707.09	34.19
707.274	34.56
707.459	34.02
707.644	33.86
707.828	34.05
708.013	33.91
708.197	33.81
708.382	33.61
708.567	33.28
708.751	33.18
708.936	32.85
709.12	32.72
709.305	32.33
709.489	32.78
709.673	32.9
709.858	32.83
710.042	33.01
710.227	33.22
710.411	33.49
710.596	33.58
710.78	33.77
710.964	34.15
711.149	34.28
711.333	34.26
711.517	34.46
711.702	34.79
711.886	34.61
712.07	34.61
712.254	34.88
712.438	34.52
712.623	34.39
712.807	34.53
712.991	34.49
713.175	34.43
713.359	34.45
713.544	33.82
713.728	33.39
713.912	33.4
714.096	33.33
714.28	33.01
714.464	33.18
714.648	33.13
714.832	32.74
715.016	32.58
715.2	32.55
715.384	32.46
715.568	32.21
715.752	32.11
715.936	31.63
716.12	31.32
716.304	31.37
716.488	30.8
716.671	30.54
716.855	30.79
717.039	30.78
717.223	31.05
717.407	31
717.59	31.38
717.774	31.52
717.958	32.04
718.142	32.35
718.325	32.52
718.509	32.92
718.693	33.36
718.877	33.47
719.06	33.49
719.244	33.41
719.428	33.5
719.611	33.31
719.795	33.03
719.978	33.26
720.162	33.01
720.345	32.45
720.529	32.77
720.713	33.05
720.896	32.72
721.08	32.79
721.263	32.82
721.446	33.11
721.63	33.4
721.813	33.75
721.997	33.85
722.18	34.05
722.364	34.16
722.547	33.76
722.73	33.68
722.914	33.59
723.097	33.95
723.28	33.33
723.464	33.08
723.647	33.16
723.83	32.79
724.013	32.71
724.197	33.07
724.38	33.42
724.563	33.54
724.746	33.5
724.929	34.24
725.112	34.41
725.296	35.03
725.479	34.69
725.662	34.64
725.845	35.29
726.028	35.15
726.211	34.96
726.394	34.7
726.577	34.27
726.76	34.53
726.943	34.14
727.126	33.32
727.309	33.4
727.492	33.29
727.675	32.85
727.858	32.45
728.041	32.14
728.224	32.21
728.407	32.27
728.589	32.49
728.772	32.31
728.955	32.22
729.138	32.09
729.321	32
729.503	32.25
729.686	32.72
729.869	32.6
730.052	32.87
730.234	33.05
730.417	32.74
730.6	32.61
730.782	32.28
730.965	32.14
731.148	32.13
731.33	31.75
731.513	32.02
731.695	32.1
731.878	32.23
732.061	32.22
732.243	31.47
732.426	31.54
732.608	31.97
732.791	31.62
732.973	31.82
733.156	32
733.338	32.14
733.52	32.02
733.703	31.93
733.885	32.01
734.068	32.39
734.25	32.51
734.432	32.33
734.615	32.42
734.797	32.81
734.979	32.67
735.162	32.62
735.344	33.14
735.526	33.12
735.708	33.1
735.891	32.85
736.073	32.66
736.255	32.87
736.437	33.25
736.619	32.58
736.802	32.55
736.984	32.83
737.166	33.09
737.348	32.79
737.53	32.89
737.712	32.98
737.894	33.42
738.076	33.38
738.258	33.55
738.44	33.29
738.622	33.74
738.804	33.91
738.986	33.73
739.168	34.09
739.35	34.24
739.532	33.59
739.714	33.84
739.896	33.53
740.078	33.51
740.259	33.35
740.441	33.53
740.623	33.13
740.805	33.52
740.987	33.85
741.168	33.63
741.35	33.64
741.532	34.58
741.714	34.51
741.895	34.73
742.077	35.06
742.259	35.37
742.44	35.79
742.622	35.97
742.804	35.78
742.985	35.41
743.167	35.41
743.348	35.61
743.53	35.56
743.711	35.57
743.893	35.6
744.075	35.51
744.256	35.2
744.438	35.6
744.619	35.88
744.8	36.02
744.982	36.02
745.163	36.33
745.345	36.07
745.526	36.5
745.707	36.26
745.889	36.47
746.07	36.13
746.252	36.34
746.433	35.71
746.614	35.47
746.795	35.03
746.977	35.36
747.158	34.88
747.339	34.8
747.52	33.93
747.702	33.59
747.883	33.36
748.064	33.21
748.245	32.88
748.426	32.5
748.607	32.74
748.788	32.59
748.97	32.4
749.151	32.77
749.332	32.5
749.513	32.69
749.694	33.24
749.875	33.64
750.056	33.54
750.237	34.08
750.418	34.76
750.599	34.22
750.78	34.96
750.96	35.21
751.141	34.93
751.322	34.6
751.503	34.59
751.684	34.41
751.865	33.87
752.046	34.01
752.226	33.85
752.407	33.76
752.588	33.98
752.769	33.86
752.949	33.33
753.13	33.53
753.311	34.33
753.492	34.58
753.672	34.71
753.853	34.92
754.034	35.63
754.214	35.75
754.395	36.12
754.575	36.72
754.756	36.73
754.937	37.22
755.117	37.43
755.298	37.07
755.478	36.92
755.659	36.56
755.839	36.13
756.02	35.39
756.2	34.99
756.381	34.22
756.561	34.58
756.741	34.4
756.922	34.17
757.102	33.96
757.283	33.95
757.463	33.91
757.643	33.9
757.823	34.11
758.004	34.45
758.184	34.49
758.364	34.24
758.545	33.86
758.725	34.48
758.905	34.06
759.085	34.03
759.265	33.41
759.446	33.5
759.626	33.66
759.806	33.48
759.986	33.3
760.166	33.61
760.346	34.54
760.526	34.28
760.706	32.84
760.886	32.68
761.066	32.14
761.246	32.54
761.426	32.84
761.606	32.3
761.786	32.78
761.966	32.51
762.146	32.52
762.326	31.79
762.506	31.35
762.686	32.19
762.866	32.45
763.046	32.23
763.225	32.53
763.405	32.01
763.585	31.99
763.765	31.53
763.945	31.5
764.124	31.1
764.304	31.32
764.484	31.57
764.664	30.93
764.843	31.26
765.023	31.7
765.203	31.67
765.382	31.57
765.562	32.28
765.741	32.4
765.921	32.93
766.101	33.31
766.28	33.32
766.46	33.54
766.639	34.24
766.819	34.06
766.998	34.3
767.178	34.31
767.357	34.56
767.537	34.74
767.716	35.73
767.896	35.46
768.075	35.62
768.254	35.5
768.434	35.8
768.613	35.76
768.792	36.69
768.972	36.74
769.151	36.94
769.33	37.49
769.51	36.78
769.689	36.33
769.868	36.47
770.047	36.89
770.226	37.1
770.406	36.7
770.585	36.36
770.764	35.76
770.943	35.72
771.122	35.39
771.301	35.33
771.48	35.59
771.66	35.69
771.839	36.17
772.018	35.81
772.197	36.34
772.376	37.12
772.555	38.09
772.734	38.74
772.913	38.79
773.092	38.91
773.271	38.17
773.449	37.71
773.628	38.36
773.807	38.17
773.986	38.52
774.165	38.73
774.344	39.19
774.523	39.33
774.701	38.94
774.88	39.63
775.059	40.07
775.238	40.63
775.417	41.1
775.595	40.23
775.774	40.2
775.953	40.4
776.131	40.08
776.31	39.22
776.489	37.72
776.667	37.13
776.846	36.76
777.025	36.15
777.203	36.63
777.382	36.48
777.56	36.71
777.739	36.85
777.917	36.03
778.096	36.3
778.274	36.06
778.453	36.36
778.631	36.14
778.81	35.67
778.988	35.75
779.166	35.64
779.345	35.83
779.523	35.72
779.702	35
779.88	35.33
780.058	34.75
780.237	34.55
780.415	35.56
780.593	36.1
780.771	36.44
780.95	37.1
781.128	36.71
781.306	36.34
781.484	36.69
781.662	37.75
781.841	38.59
782.019	38.32
782.197	38.91
782.375	38.92
782.553	38.63
782.731	37.68
782.909	37.64
783.087	37.42
783.265	37.84
783.443	38.12
783.621	37.89
783.799	37.48
783.977	37.11
784.155	37.45
784.333	37.33
784.511	36.84
784.689	37.93
784.867	38.58
785.045	37.44
785.223	38.05
785.4	37.63
785.578	36.74
785.756	36.41
785.934	36.56
786.112	35.7
786.289	34.14
786.467	35.82
786.645	35.85
786.823	34.75
787	36.01
787.178	35.71
787.356	35.55
787.533	35.45
787.711	35.93
787.889	36.38
788.066	36.22
788.244	36.64
788.421	35.62
788.599	36.14
788.776	36.42
788.954	36.39
789.131	36
789.309	35.97
789.486	37.96
789.664	36.96
789.841	36.76
790.019	36.96
790.196	38.13
790.373	38.63
790.551	38.62
790.728	37.85
790.906	37.35
791.083	38.18
791.26	38.82
791.437	36.94
791.615	37.13
791.792	38.06
791.969	38.28
792.146	37.85
792.324	38.02
792.501	37.15
792.678	38.11
792.855	39.1
793.032	37.56
793.209	37.65
793.387	37.88
793.564	37.86
793.741	37.99
793.918	38.88
794.095	38.82
794.272	37.79
794.449	37.64
794.626	37.47
794.803	37.69
794.98	39.2
795.157	38.51
795.334	37.93
795.511	38.1
795.688	37.71
795.864	36.5
796.041	37.79
796.218	38.56
796.395	38.19
796.572	38.49
796.749	38.49
796.925	38.3
797.102	38.82
797.279	39.46
797.456	39.86
797.632	39.32
797.809	40.62
797.986	39.9
798.162	39.68
798.339	39.84
798.516	38.92
798.692	39.01
798.869	38.72
799.046	38
799.222	38.31
799.399	38.28
799.575	39.49
799.752	39.05
799.928	38.84
800.105	37.96
800.281	38.86
800.458	40.45
800.634	40.77
800.811	40.6
800.987	40.69
801.163	40.77
801.34	40.92
801.516	40.31
801.692	40.13
801.869	41.41
802.045	42.79
802.221	43.17
802.398	42.31
802.574	41.49
802.75	42
802.926	42.4
803.103	41.24
803.279	41.62
803.455	41.13
803.631	41.9
803.807	39.14
803.983	38.2
804.16	38.12
804.336	38.64
804.512	39.03
804.688	39.94
804.864	40.5
805.04	41.2
805.216	40.24
805.392	41.14
805.568	39.39
805.744	40.88
805.92	41.84
806.096	42.27
806.272	41.78
806.448	41.95
806.623	40.78
806.799	40.69
806.975	41.07
807.151	42.02
807.327	40.92
807.503	42.45
807.678	41.83
807.854	41.51
808.03	39.91
808.206	39.75
808.381	39.24
808.557	39.08
808.733	38.17
808.908	38.07
809.084	37.17
809.26	36.89
809.435	35.89
809.611	34.63
809.787	35.05
809.962	36.62
810.138	37.19
810.313	37.85
810.489	38.15
810.664	38.55
810.84	39.44
811.015	42.01
811.191	43.51
811.366	44.07
811.542	45.1
811.717	45.31
811.892	44.88
812.068	44.72
812.243	44.69
812.419	45.1
812.594	45.21
812.769	43.71
812.944	41.53
813.12	40.14
813.295	40.13
813.47	40.67
813.645	40.01
813.821	40.13
813.996	39.94
814.171	39.01
814.346	38.54
814.521	38.38
814.697	39
814.872	38.89
815.047	40.47
815.222	39.46
815.397	39.38
815.572	39.29
815.747	38.05
815.922	37.86
816.097	37.22
816.272	37.5
816.447	37.47
816.622	38.58
816.797	38.55
816.972	37.12
817.147	37.74
817.322	38.43
817.496	37.8
817.671	37.69
817.846	37.38
818.021	38.07
818.196	37.59
818.371	38.46
818.545	37.53
818.72	37.48
818.895	37.94
819.069	37.14
819.244	36.52
819.419	36.72
819.594	37.01
819.768	37.27
819.943	37.32
820.117	36.66
820.292	35.54
820.467	34.07
820.641	33.28
820.816	32.53
820.99	31.72
821.165	30.34
821.339	29.79
821.514	29.06
821.688	28.54
821.863	28.28
822.037	27.93
822.212	27.73
822.386	27.65
822.56	27.57
822.735	27.45
822.909	27.64
823.084	27.72
823.258	27.59
823.432	27.93
823.606	28.11
823.781	28.15
823.955	28.35
824.129	28.26
824.303	28.17
824.478	27.93
824.652	28.27
824.826	28.24
825	28.28
825.174	28.43
825.348	28.25
825.523	28.18
825.697	28.36
825.871	28.52
826.045	28.7
826.219	28.76
826.393	28.79
826.567	28.61
826.741	28.46
826.915	28.71
827.089	28.59
827.263	28.63
827.437	28.32
827.611	27.85
827.784	27.85
827.958	27.96
828.132	28.08
828.306	28.38
828.48	28.97
828.654	30.29
828.827	30.66
829.001	31.05
829.175	31.01
829.349	32.08
829.522	32.81
829.696	33.34
829.87	33.89
830.044	35.51
830.217	35.74
830.391	35.2
830.565	33.32
830.738	33.76
830.912	33.07
831.085	33.68
831.259	32.82
831.432	32.7
831.606	33.19
831.779	31.79
831.953	31.42
832.126	31.88
832.3	32.26
832.473	31.77
832.647	31.81
832.82	32.69
832.994	33.35
833.167	33.18
833.34	33.07
833.514	32.07
833.687	32.29
833.86	31.44
834.034	31.39
834.207	30.58
834.38	31.2
834.553	30.95
834.727	31.18
834.9	30.9
835.073	31.18
835.246	31.06
835.419	31.45
835.593	31.79
835.766	32.02
835.939	31.93
836.112	32.33
836.285	31.26
836.458	31.98
836.631	31.82
836.804	31.61
836.977	31.57
837.15	32.11
837.323	32.7
837.496	34.24
837.669	35.92
837.842	36.47
838.015	37.65
838.188	38.71
838.361	37.74
838.533	40.4
838.706	40.83
838.879	41.49
839.052	42.62
839.225	43.84
839.398	42.99
839.57	42.2
839.743	41.37
839.916	41.01
840.088	41.96
840.261	41.9
840.434	41.51
840.607	40.25
840.779	40.74
840.952	40.16
841.124	37.72
841.297	39.83
841.47	39.34
841.642	40.55
841.815	42.71
841.987	43.46
842.16	46.78
842.332	47.03
842.505	48.66
842.677	48.75
842.85	49.89
843.022	52.7
843.194	51.6
843.367	54.49
843.539	53.12
843.712	52.44
843.884	53.94
844.056	53.38
844.229	53.55
844.401	54.23
844.573	53
844.745	50.67
844.918	48.83
845.09	48.96
845.262	49.31
845.434	53.74
845.606	53.18
845.779	53.32
845.951	50.89
846.123	49.14
846.295	51.33
846.467	50.17
846.639	51.55
846.811	53.72
846.983	54.32
847.155	52.78
847.327	51.83
847.499	53.3
847.671	52.38
847.843	55.53
848.015	58.63
848.187	56.56
848.359	58.56
848.531	61.55
848.703	63.29
848.875	57.97
849.047	60.73
849.218	61.35
849.39	61.57
849.562	61.18
849.734	61.17
849.905	57.79
850.077	59.1
850.249	57.02
850.421	55.73
850.592	54.91
850.764	55.63
850.936	55.44
851.107	53.94
851.279	53.97
851.451	55.12
851.622	54.79
851.794	57.22
851.965	53.77
852.137	59.6
852.308	60.61
852.48	61.68
852.651	65.23
852.823	64.4
852.994	65.13
853.166	63.96
853.337	64.16
853.509	62.01
853.68	56.99
853.851	61.73
854.023	58.67
854.194	57.81
854.365	57.97
854.537	59.78
854.708	60.06
854.879	56.28
855.05	56
855.222	53.51
855.393	54.21
855.564	57.27
855.735	56.65
855.906	57.22
856.078	54.42
856.249	55.16
856.42	52.14
856.591	53.37
856.762	55.73
856.933	54.06
857.104	55.69
857.275	57.44
857.446	56.26
857.617	58.91
857.788	57.9
857.959	59.51
858.13	58.61
858.301	58.89
858.472	58.62
858.643	62.5
858.814	67.05
858.985	69.14
859.155	70.76
859.326	72.55
859.497	70.67
859.668	69.26
859.839	69.68
860.009	70.22
860.18	71.84
860.351	69.97
860.522	67.89
860.692	65.12
860.863	63.47
861.034	60.3
861.204	62.08
861.375	60.49
861.546	63.89
861.716	63.67
861.887	65.14
862.057	64.57
862.228	65.67
862.398	64.5
862.569	64.12
862.739	68.4
862.91	71.06
863.08	70.17
863.251	69.17
863.421	66.82
863.592	69.9
863.762	67.54
863.932	68.1
864.103	66.24
864.273	63.92
864.443	66.9
864.614	65.1
864.784	64.53
864.954	65
865.125	68.59
865.295	72.13
865.465	67.91
865.635	67.88
865.805	68.47
865.976	71.4
866.146	75.8
866.316	73.91
866.486	73.49
866.656	74.91
866.826	72.41
866.996	70.69
867.166	64.54
867.336	66.17
867.506	64.27
867.676	62.83
867.846	61.58
868.016	61.62
868.186	63.09
868.356	58.36
868.526	50.48
868.696	50
868.866	50.73
869.036	56.14
869.206	59.1
869.376	61.26
869.545	65.98
869.715	65.61
869.885	68.3
870.055	67.3
870.224	66.16
870.394	70.1
870.564	66.94
870.734	62.37
870.903	62.55
871.073	62.78
871.243	64.48
871.412	60.61
871.582	57.38
871.751	55.16
871.921	54.77
872.091	55.21
872.26	52.08
872.43	55.8
872.599	57.54
872.769	60.36
872.938	58.61
873.108	55.49
873.277	56.2
873.446	59.68
873.616	55.41
873.785	50.36
873.955	51.85
874.124	58.4
874.293	56.25
874.463	56.57
874.632	54.4
874.801	56.51
874.971	56.97
875.14	56.12
875.309	56.68
875.478	60.91
875.647	61.14
875.817	59.42
875.986	56.11
876.155	63.52
876.324	63.33
876.493	62.17
876.662	59.67
876.831	57.97
877	58.95
877.17	60.28
877.339	61.08
877.508	66.3
877.677	66.74
877.846	63.03
878.015	59.31
878.184	58.81
878.352	57.38
878.521	55.5
878.69	54.49
878.859	51.78
879.028	48.78
879.197	44.6
879.366	43.47
879.534	44.33
879.703	45.44
879.872	43.95
880.041	42.08
880.21	40.09
880.378	38.35
880.547	36.92
880.716	34.95
880.884	33.61
881.053	32.94
881.222	31.93
881.39	30.15
881.559	29.77
881.727	28.67
881.896	28.01
882.065	28.7
882.233	29.02
882.402	28.98
882.57	29.42
882.739	29.47
882.907	29.8
883.076	30.03
883.244	30.45
883.412	30.7
883.581	30.58
883.749	31.34
883.918	31.37
884.086	31.49
884.254	32.95
884.423	33.34
884.591	33.33
884.759	33.64
884.927	33.04
885.096	32.43
885.264	32.4
885.432	34.07
885.6	35.16
885.769	36.52
885.937	37.04
886.105	35.79
886.273	36.64
886.441	37.96
886.609	39.67
886.777	39.46
886.945	43.11
887.113	45.11
887.281	46.44
887.449	49.9
887.617	48.94
887.785	49.1
887.953	50.52
888.121	49.82
888.289	51.61
888.457	49.7
888.625	54.49
888.793	53.4
888.961	52.88
889.129	55.33
889.296	50.41
889.464	49.58
889.632	50.1
889.8	48.41
889.967	50.43
890.135	51.94
