Data from 2938756__Reflection_03.txt Node
Date: Fri Mar 13 18:58:07 EDT 2015
User: robert
Spectrometer: USB4E03002
Autoset integration time: false
Trigger mode: 4
Integration Time (sec): 1.000000E-1
Scans to average: 10
Electric dark correction enabled: false
Nonlinearity correction enabled: false
Boxcar width: 5
Stray light correction enabled: false
XAxis mode: Wavelengths
Stop averaging: false
Number of Pixels in Spectrum: 3648
>>>>>Begin Spectral Data<<<<<
177.575	-31.82
177.794	-585.71
178.014	50
178.233	28.38
178.452	3500
178.672	41.04
178.891	91.4
179.11	157.3
179.33	180.49
179.549	244.58
179.768	117.49
179.987	176.88
180.207	511.36
180.426	224.54
180.645	588.33
180.864	-121.9
181.084	-31.9
181.303	15.23
181.522	39.56
181.741	60.38
181.96	71.06
182.179	68.53
182.398	81.68
182.618	76.61
182.837	122.72
183.056	181.78
183.275	122.83
183.494	66.67
183.713	296.83
183.932	502.5
184.151	-34800
184.37	-63.01
184.589	-58.99
184.808	-14.67
185.027	-19.42
185.246	22.41
185.465	-29.84
185.684	-54.76
185.903	-95.85
186.122	-242.34
186.341	-354.26
186.56	2946.15
186.779	120.22
186.998	133.25
187.216	149.16
187.435	168.88
187.654	151.87
187.873	116.39
188.092	91.82
188.311	100
188.53	112.86
188.748	91.55
188.967	145.22
189.186	345.86
189.405	-218.3
189.623	-39.54
189.842	-161.54
190.061	-141.05
190.28	-101.45
190.498	-77.46
190.717	-108.1
190.936	-20.48
191.154	13.15
191.373	2.42
191.592	35.39
191.81	-362.5
192.029	192.5
192.248	-59.87
192.466	-36.48
192.685	-39.5
192.904	-155.62
193.122	-646.81
193.341	-442.11
193.559	-315.38
193.778	1218.18
193.996	33.55
194.215	-18.68
194.433	-52.34
194.652	-37.5
194.87	-2375
195.089	-19.51
195.307	206.45
195.526	59.03
195.744	30.02
195.963	24.32
196.181	20.75
196.399	15.28
196.618	19.07
196.836	36.49
197.055	39.69
197.273	-21.99
197.491	53.45
197.71	49.09
197.928	27.22
198.146	76.28
198.365	105.05
198.583	203.12
198.801	126.53
199.019	50
199.238	-58.31
199.456	-83.48
199.674	-24.71
199.892	-24.17
200.111	-31.71
200.329	16.46
200.547	-106.09
200.765	-7.87
200.983	-11.57
201.202	-34.81
201.42	-23.05
201.638	-14.72
201.856	55.2
202.074	71.79
202.292	-19.59
202.51	6.23
202.728	-13.78
202.946	45.58
203.165	63.02
203.383	12.37
203.601	-26.09
203.819	26.34
204.037	44.64
204.255	51.57
204.473	32.2
204.691	22.3
204.909	43.13
205.127	42.9
205.345	28.8
205.562	16.78
205.78	19.32
205.998	38.98
206.216	9.67
206.434	31.37
206.652	21.28
206.87	1.96
207.088	35.27
207.306	18.91
207.523	19.58
207.741	10.3
207.959	10.04
208.177	13.57
208.395	11.98
208.612	-34.74
208.83	-42.12
209.048	-22.6
209.266	0.71
209.483	-13.69
209.701	-23.65
209.919	3.12
210.136	0.17
210.354	9.66
210.572	11.18
210.79	14.86
211.007	40.8
211.225	29.67
211.442	35.53
211.66	46.35
211.878	46.21
212.095	42.29
212.313	45.95
212.53	57.23
212.748	49.55
212.966	60.46
213.183	63.81
213.401	47.88
213.618	60.03
213.836	32.21
214.053	-12.81
214.271	0.72
214.488	19.21
214.705	11.97
214.923	28.21
215.14	18.4
215.358	6.84
215.575	17.73
215.793	29
216.01	32.39
216.227	47.76
216.445	47.54
216.662	50.08
216.879	45.97
217.097	39.51
217.314	34.58
217.531	51.68
217.749	53.88
217.966	39.67
218.183	32.44
218.4	30.99
218.618	14.95
218.835	22.49
219.052	23.33
219.269	7.2
219.487	27.6
219.704	27.23
219.921	23.51
220.138	28.27
220.355	30.06
220.572	34.35
220.79	23.44
221.007	20.35
221.224	6.08
221.441	8.1
221.658	15.23
221.875	19.3
222.092	19.13
222.309	19.03
222.526	6.99
222.743	5.17
222.96	-2.82
223.177	2.18
223.394	8.81
223.611	13.13
223.828	12.9
224.045	10.53
224.262	4.11
224.479	3.18
224.696	4.92
224.913	10.7
225.13	14.59
225.347	13.15
225.564	12.56
225.781	9.52
225.997	11.72
226.214	11.32
226.431	12.7
226.648	13.02
226.865	10.37
227.082	7.96
227.298	8.93
227.515	8.06
227.732	9.6
227.949	9.42
228.165	10.87
228.382	11.44
228.599	11.07
228.816	10.59
229.032	10.18
229.249	9.98
229.466	10.06
229.682	9.84
229.899	10.19
230.116	9.11
230.332	9.04
230.549	8.63
230.765	6.48
230.982	6.44
231.199	6.7
231.415	6.61
231.632	7.73
231.848	8.43
232.065	7.52
232.281	6.12
232.498	6.69
232.714	7.04
232.931	6.61
233.147	8.21
233.364	8.08
233.58	6.8
233.797	5.73
234.013	5.83
234.23	5.31
234.446	5.33
234.662	5.54
234.879	6.04
235.095	6.94
235.312	6.17
235.528	5.08
235.744	5.04
235.961	4.84
236.177	7.11
236.393	6.83
236.61	6.84
236.826	7.56
237.042	7.67
237.258	7.47
237.475	6.21
237.691	6.02
237.907	6.59
238.123	6.88
238.339	6.59
238.556	4.62
238.772	3.07
238.988	1.58
239.204	2.73
239.42	4.37
239.636	5.09
239.853	5.02
240.069	5.66
240.285	6.11
240.501	6.23
240.717	6.09
240.933	6.29
241.149	7.16
241.365	7.24
241.581	7.3
241.797	6.86
242.013	6.27
242.229	6.37
242.445	6.39
242.661	6.33
242.877	6.29
243.093	6.63
243.309	7.07
243.525	7.04
243.741	7.47
243.957	7.5
244.173	7.88
244.388	8.34
244.604	8.21
244.82	8.27
245.036	8.62
245.252	8.53
245.468	8.65
245.683	8
245.899	7.75
246.115	7.29
246.331	6.68
246.547	6.74
246.762	6.65
246.978	6.64
247.194	6.68
247.409	6.45
247.625	6.46
247.841	6.2
248.057	6.06
248.272	6.26
248.488	6.43
248.703	6.6
248.919	6
249.135	5.73
249.35	5.4
249.566	5.38
249.782	5.51
249.997	5.21
250.213	5.54
250.428	5.85
250.644	4.95
250.859	4.8
251.075	4.52
251.29	4.87
251.506	5.25
251.721	5.7
251.937	5.88
252.152	5.65
252.368	6.17
252.583	6.25
252.798	6.54
253.014	6.96
253.229	7.27
253.445	7.83
253.66	7.76
253.875	7.87
254.091	8.45
254.306	8.26
254.521	8.39
254.737	7.53
254.952	7.43
255.167	7.78
255.383	6.93
255.598	6.55
255.813	5.31
256.028	5.53
256.244	5.79
256.459	5.13
256.674	4.99
256.889	5.34
257.104	5.78
257.32	5.68
257.535	4.24
257.75	4.37
257.965	3.9
258.18	4.2
258.395	3.87
258.61	3.48
258.826	3.35
259.041	3.24
259.256	2.79
259.471	2.76
259.686	2.82
259.901	3.38
260.116	3.52
260.331	3.74
260.546	4.06
260.761	4.06
260.976	4.31
261.191	4.48
261.406	4.44
261.621	4.67
261.836	4.58
262.05	4.42
262.265	4.01
262.48	4.34
262.695	4.36
262.91	3.99
263.125	4.87
263.34	4.36
263.555	4.18
263.769	4.37
263.984	4.57
264.199	4.82
264.414	4.91
264.629	5.04
264.843	4.04
265.058	4.59
265.273	4.74
265.488	4.08
265.702	3.84
265.917	3.86
266.132	4.03
266.346	3.82
266.561	3.72
266.776	3.99
266.99	4.03
267.205	4.44
267.42	3.39
267.634	3.77
267.849	3.64
268.063	4.25
268.278	4.63
268.492	4.23
268.707	4.39
268.922	4.44
269.136	4.09
269.351	3.85
269.565	3.69
269.78	4.19
269.994	3.72
270.209	3.88
270.423	3.46
270.637	3.13
270.852	3.33
271.066	3.09
271.281	3.19
271.495	3.12
271.709	3.28
271.924	3.32
272.138	3.1
272.353	3.56
272.567	3.55
272.781	4.05
272.996	4.02
273.21	3.86
273.424	4.14
273.638	4.06
273.853	4.66
274.067	4.71
274.281	4.56
274.495	4.97
274.71	4.38
274.924	4.33
275.138	4.17
275.352	4.36
275.566	4.9
275.781	4.83
275.995	4.62
276.209	4.69
276.423	4.46
276.637	4.98
276.851	5.43
277.065	5.07
277.279	4.63
277.493	4.51
277.707	4.51
277.921	4.1
278.135	3.93
278.349	4.16
278.563	3.8
278.777	4
278.991	3.72
279.205	3.56
279.419	3.85
279.633	4.91
279.847	4.66
280.061	4.48
280.275	4.82
280.489	4.53
280.703	4.96
280.917	4.46
281.131	4.28
281.344	4.15
281.558	3.82
281.772	3.8
281.986	3.38
282.2	3.59
282.414	3.73
282.627	3.7
282.841	4.18
283.055	3.88
283.269	4.12
283.482	4.09
283.696	4.16
283.91	3.81
284.123	4.04
284.337	3.79
284.551	3.69
284.764	3.65
284.978	3.71
285.192	3.52
285.405	3.57
285.619	3.69
285.833	3.87
286.046	4.14
286.26	4.38
286.473	4.34
286.687	4.42
286.9	4.53
287.114	4.76
287.327	4.58
287.541	4.73
287.754	4.52
287.968	4.51
288.181	4.41
288.395	4.05
288.608	4.26
288.822	4.21
289.035	4.27
289.248	4.25
289.462	3.84
289.675	3.76
289.889	3.8
290.102	4.03
290.315	3.95
290.529	3.9
290.742	4.07
290.955	4.39
291.169	4.32
291.382	4.3
291.595	4.46
291.808	4.72
292.022	4.91
292.235	4.93
292.448	4.82
292.661	4.71
292.875	4.96
293.088	4.95
293.301	4.45
293.514	4.54
293.727	4.84
293.94	4.49
294.153	4.35
294.367	4.31
294.58	4.37
294.793	4.61
295.006	4.71
295.219	4.44
295.432	4.3
295.645	4.13
295.858	4.38
296.071	4.18
296.284	4.59
296.497	4.63
296.71	4.68
296.923	4.68
297.136	4.71
297.349	4.79
297.562	4.83
297.775	4.9
297.988	5.33
298.201	5.32
298.414	5.46
298.626	5.38
298.839	5.35
299.052	5.42
299.265	5.24
299.478	5.05
299.691	4.93
299.903	4.92
300.116	5.05
300.329	4.58
300.542	4.54
300.755	4.61
300.967	4.47
301.18	4.48
301.393	4.34
301.605	4.3
301.818	3.99
302.031	4.18
302.243	4.44
302.456	4.26
302.669	4.31
302.881	4.2
303.094	4.1
303.307	3.95
303.519	4.25
303.732	4.19
303.944	4.39
304.157	4.87
304.37	4.8
304.582	4.73
304.795	4.75
305.007	5.12
305.22	5.17
305.432	5.13
305.645	5
305.857	4.88
306.069	5.2
306.282	5.44
306.494	5.54
306.707	5.76
306.919	6.01
307.132	5.81
307.344	5.92
307.556	5.95
307.769	6.11
307.981	6.45
308.193	6.91
308.406	7.13
308.618	6.84
308.83	6.36
309.043	6.29
309.255	6.39
309.467	6.62
309.679	6.46
309.892	6.45
310.104	6.21
310.316	6.2
310.528	5.97
310.74	5.67
310.953	5.92
311.165	6.07
311.377	6.1
311.589	6.04
311.801	6.12
312.013	5.92
312.225	5.88
312.437	6.27
312.649	6.08
312.862	6.17
313.074	6.27
313.286	6.24
313.498	6.38
313.71	6.2
313.922	6.29
314.134	6.27
314.346	6.57
314.558	6.8
314.77	6.69
314.982	6.56
315.193	5.98
315.405	5.93
315.617	5.94
315.829	5.96
316.041	6.65
316.253	6.39
316.465	6.17
316.677	6.25
316.888	5.84
317.1	5.93
317.312	6.18
317.524	6.5
317.736	6.45
317.947	6.48
318.159	6.9
318.371	6.49
318.583	6.36
318.794	6.58
319.006	6.57
319.218	6.78
319.43	6.7
319.641	6.76
319.853	6.69
320.064	6.96
320.276	6.99
320.488	6.82
320.699	6.43
320.911	6.57
321.123	7
321.334	6.99
321.546	6.88
321.757	6.74
321.969	6.87
322.18	7.22
322.392	7.34
322.603	7.06
322.815	7.07
323.026	7.63
323.238	7.84
323.449	7.58
323.661	7.4
323.872	7.21
324.083	7.57
324.295	7.58
324.506	7.3
324.718	7.45
324.929	7.66
325.14	7.66
325.352	7.36
325.563	7.41
325.774	7.29
325.986	7.54
326.197	8.02
326.408	8.53
326.62	8.78
326.831	9.23
327.042	8.83
327.253	8.67
327.464	9.04
327.676	9.36
327.887	9.52
328.098	9.67
328.309	9.82
328.52	10.04
328.732	9.57
328.943	9.4
329.154	9.2
329.365	9.41
329.576	10.23
329.787	10.01
329.998	10.26
330.209	9.91
330.42	10.09
330.631	9.94
330.842	10.29
331.053	10.21
331.264	10.18
331.475	10.61
331.686	11
331.897	10.5
332.108	10.63
332.319	10.43
332.53	10.74
332.741	10.57
332.952	10.68
333.163	10.06
333.374	10.12
333.585	10.16
333.795	10.05
334.006	9.26
334.217	9.4
334.428	9.23
334.639	9.22
334.849	9.3
335.06	9.5
335.271	9.57
335.482	9.54
335.692	9.6
335.903	9.49
336.114	9.68
336.325	10.14
336.535	9.84
336.746	9.98
336.957	9.82
337.167	9.73
337.378	10.15
337.589	9.9
337.799	9.86
338.01	9.86
338.22	10.23
338.431	9.74
338.642	9.76
338.852	9.89
339.063	9.72
339.273	9.98
339.484	10.13
339.694	9.66
339.905	9.81
340.115	9.72
340.326	9.8
340.536	9.81
340.746	9.97
340.957	9.87
341.167	9.74
341.378	9.96
341.588	9.65
341.799	9.19
342.009	9.2
342.219	9.19
342.43	9.48
342.64	9.31
342.85	9.1
343.061	9.03
343.271	8.79
343.481	9
343.691	8.96
343.902	9.18
344.112	9.37
344.322	9.55
344.532	9.47
344.743	9.14
344.953	9.2
345.163	9.16
345.373	9.05
345.583	9.41
345.793	9.41
346.004	9.29
346.214	8.87
346.424	9.21
346.634	9.08
346.844	9.18
347.054	9.22
347.264	9.13
347.474	9.52
347.684	9.78
347.894	9.81
348.104	10.09
348.314	10.12
348.524	10.43
348.734	9.91
348.944	9.91
349.154	9.99
349.364	9.95
349.574	9.9
349.784	9.73
349.994	9.65
350.204	9.65
350.413	9.4
350.623	9.32
350.833	9.08
351.043	9.49
351.253	9.54
351.463	9.38
351.672	9.7
351.882	9.72
352.092	9.68
352.302	9.52
352.511	9.39
352.721	9.37
352.931	9.27
353.141	9.67
353.35	9.45
353.56	9.41
353.77	9.41
353.979	9.15
354.189	8.97
354.399	8.68
354.608	8.24
354.818	7.96
355.027	7.9
355.237	8.23
355.447	8.11
355.656	8.09
355.866	8.08
356.075	7.92
356.285	8.1
356.494	8.09
356.704	8.22
356.913	8.72
357.123	8.98
357.332	8.89
357.542	8.64
357.751	8.46
357.96	8.53
358.17	8.45
358.379	8.52
358.589	8.36
358.798	8.47
359.007	8.41
359.217	8.46
359.426	8.42
359.635	8.39
359.845	8.51
360.054	8.55
360.263	8.34
360.472	8.19
360.682	8.14
360.891	8.04
361.1	8.13
361.309	8.02
361.519	7.88
361.728	7.84
361.937	7.7
362.146	7.55
362.355	7.66
362.564	7.61
362.774	7.67
362.983	7.66
363.192	7.77
363.401	7.67
363.61	7.84
363.819	7.79
364.028	7.96
364.237	8.12
364.446	7.95
364.655	7.89
364.864	8.12
365.073	7.92
365.282	8.09
365.491	8.15
365.7	8.3
365.909	8.35
366.118	8.45
366.327	8.26
366.536	8.3
366.745	8.55
366.954	8.51
367.162	8.41
367.371	8.52
367.58	8.26
367.789	8.17
367.998	7.94
368.207	7.9
368.415	7.78
368.624	7.73
368.833	7.75
369.042	7.32
369.25	7.07
369.459	7.07
369.668	7.02
369.877	7.09
370.085	7.02
370.294	7.2
370.503	7.15
370.711	7.26
370.92	7.43
371.129	7.33
371.337	7.63
371.546	7.96
371.754	7.89
371.963	8.03
372.171	8.1
372.38	8.41
372.589	8.4
372.797	8.24
373.006	8.3
373.214	8.2
373.423	8.4
373.631	8.81
373.84	8.63
374.048	8.42
374.256	8.45
374.465	8.37
374.673	8.1
374.882	7.95
375.09	8.14
375.298	8.13
375.507	8.17
375.715	7.91
375.923	7.43
376.132	7.4
376.34	7.59
376.548	7.45
376.757	7.4
376.965	7.4
377.173	7.21
377.381	7.02
377.59	6.74
377.798	6.66
378.006	6.74
378.214	6.75
378.423	6.74
378.631	6.76
378.839	6.72
379.047	6.67
379.255	6.71
379.463	6.79
379.671	6.78
379.879	7
380.088	6.8
380.296	6.74
380.504	6.55
380.712	6.44
380.92	6.31
381.128	6.22
381.336	6.32
381.544	6.23
381.752	6.18
381.96	6.18
382.168	6.07
382.376	5.98
382.584	6.11
382.791	6.22
382.999	6.44
383.207	6.64
383.415	6.42
383.623	6.28
383.831	6.22
384.039	6.29
384.247	6.28
384.454	6.29
384.662	6.26
384.87	5.99
385.078	5.84
385.285	5.62
385.493	5.4
385.701	5.69
385.909	5.81
386.116	5.8
386.324	5.84
386.532	5.87
386.739	5.79
386.947	5.72
387.155	5.81
387.362	5.99
387.57	6.1
387.778	6.11
387.985	6.08
388.193	5.97
388.4	5.9
388.608	5.77
388.816	5.73
389.023	5.86
389.231	5.96
389.438	6.07
389.646	6.11
389.853	5.95
390.061	5.82
390.268	5.67
390.475	5.75
390.683	5.92
390.89	5.85
391.098	5.66
391.305	5.43
391.512	5.51
391.72	5.48
391.927	5.43
392.135	5.26
392.342	5.21
392.549	5.3
392.756	5.21
392.964	4.98
393.171	4.9
393.378	4.95
393.586	4.99
393.793	5.02
394	5
394.207	4.84
394.414	5.12
394.622	4.92
394.829	4.91
395.036	4.78
395.243	4.88
395.45	5.02
395.657	5.07
395.864	5.16
396.072	4.94
396.279	4.73
396.486	4.8
396.693	4.74
396.9	4.96
397.107	4.85
397.314	4.84
397.521	4.77
397.728	4.73
397.935	4.77
398.142	4.59
398.349	4.47
398.556	4.59
398.763	4.57
398.97	4.49
399.177	4.43
399.383	4.61
399.59	4.64
399.797	4.61
400.004	4.44
400.211	4.3
400.418	4.27
400.625	4.52
400.831	4.42
401.038	4.27
401.245	4.41
401.452	4.38
401.658	4.07
401.865	4.04
402.072	3.85
402.279	3.83
402.485	3.73
402.692	3.7
402.899	3.82
403.105	4.05
403.312	4.1
403.519	4.03
403.725	4.02
403.932	4.15
404.138	4.05
404.345	4.22
404.552	4.25
404.758	4.42
404.965	4.55
405.171	4.36
405.378	4.15
405.584	4.27
405.791	4.22
405.997	4.31
406.204	4.22
406.41	4.27
406.617	4.22
406.823	4.18
407.029	4.15
407.236	4.17
407.442	4.06
407.649	4.11
407.855	4.02
408.061	3.85
408.268	3.82
408.474	3.92
408.68	3.95
408.887	3.82
409.093	3.8
409.299	3.75
409.505	3.62
409.712	3.64
409.918	3.6
410.124	3.49
410.33	3.58
410.537	3.61
410.743	3.59
410.949	3.59
411.155	3.82
411.361	3.87
411.567	3.95
411.773	3.8
411.98	3.96
412.186	4.01
412.392	4.24
412.598	4.2
412.804	4.04
413.01	4.05
413.216	3.91
413.422	3.9
413.628	3.96
413.834	3.67
414.04	3.89
414.246	3.96
414.452	3.97
414.658	3.81
414.864	3.83
415.07	3.83
415.275	3.86
415.481	3.99
415.687	3.87
415.893	3.78
416.099	3.96
416.305	3.79
416.511	3.68
416.716	3.59
416.922	3.6
417.128	3.56
417.334	3.67
417.539	3.64
417.745	3.51
417.951	3.41
418.157	3.35
418.362	3.43
418.568	3.48
418.774	3.41
418.979	3.45
419.185	3.55
419.391	3.64
419.596	3.55
419.802	3.55
420.008	3.66
420.213	3.14
420.419	3.29
420.624	3.22
420.83	3.24
421.035	3.27
421.241	3.22
421.446	3.1
421.652	3.03
421.857	3.11
422.063	3.04
422.268	3.03
422.474	3.58
422.679	3.5
422.885	3.47
423.09	3.54
423.295	3.62
423.501	3.64
423.706	3.67
423.911	3.7
424.117	3.67
424.322	3.69
424.527	3.69
424.733	3.7
424.938	3.7
425.143	3.68
425.349	3.58
425.554	3.46
425.759	3.38
425.964	3.41
426.169	3.33
426.375	3.27
426.58	3.3
426.785	3.25
426.99	3.22
427.195	3.22
427.4	3.2
427.605	3.16
427.811	3.27
428.016	3.39
428.221	3.33
428.426	3.33
428.631	3.41
428.836	3.43
429.041	3.48
429.246	3.42
429.451	3.52
429.656	3.56
429.861	3.66
430.066	3.48
430.271	3.41
430.476	3.44
430.681	3.4
430.886	3.41
431.09	3.41
431.295	3.31
431.5	3.38
431.705	3.36
431.91	3.37
432.115	3.35
432.32	3.46
432.524	3.5
432.729	3.51
432.934	3.66
433.139	3.69
433.343	3.65
433.548	3.75
433.753	3.78
433.958	3.68
434.162	3.7
434.367	3.62
434.572	3.64
434.776	3.64
434.981	3.59
435.186	3.57
435.39	3.52
435.595	3.54
435.799	3.48
436.004	3.46
436.209	3.56
436.413	3.67
436.618	3.8
436.822	3.89
437.027	4.01
437.231	4.05
437.436	3.99
437.64	3.89
437.845	3.89
438.049	3.89
438.253	3.95
438.458	3.9
438.662	3.8
438.867	3.71
439.071	3.69
439.275	3.64
439.48	3.6
439.684	3.66
439.888	3.71
440.093	3.73
440.297	3.67
440.501	3.68
440.706	3.81
440.91	3.88
441.114	3.94
441.318	3.82
441.523	3.74
441.727	3.78
441.931	3.76
442.135	3.74
442.339	3.75
442.543	3.86
442.748	3.82
442.952	3.7
443.156	3.62
443.36	3.63
443.564	3.69
443.768	3.71
443.972	3.78
444.176	3.7
444.38	3.86
444.584	3.87
444.788	3.87
444.992	3.83
445.196	3.81
445.4	3.8
445.604	3.7
445.808	3.67
446.012	3.69
446.216	3.61
446.42	3.65
446.624	3.46
446.828	3.45
447.032	3.37
447.235	3.35
447.439	3.35
447.643	3.35
447.847	3.37
448.051	3.42
448.254	3.4
448.458	3.38
448.662	3.35
448.866	3.45
449.069	3.41
449.273	3.4
449.477	3.47
449.681	3.45
449.884	3.43
450.088	3.44
450.292	3.46
450.495	3.48
450.699	3.49
450.902	3.53
451.106	3.56
451.31	3.52
451.513	3.57
451.717	3.53
451.92	3.42
452.124	3.36
452.327	3.44
452.531	3.36
452.734	3.4
452.938	3.41
453.141	3.34
453.345	3.4
453.548	3.43
453.752	3.43
453.955	3.38
454.158	3.51
454.362	3.55
454.565	3.51
454.769	3.58
454.972	3.61
455.175	3.5
455.379	3.55
455.582	3.43
455.785	3.44
455.988	3.49
456.192	3.65
456.395	3.69
456.598	3.7
456.801	3.64
457.005	3.68
457.208	3.58
457.411	3.68
457.614	3.67
457.817	3.58
458.021	3.65
458.224	3.54
458.427	3.51
458.63	3.49
458.833	3.47
459.036	3.44
459.239	3.42
459.442	3.46
459.645	3.42
459.848	3.44
460.051	3.54
460.254	3.47
460.457	3.51
460.66	3.43
460.863	3.43
461.066	3.48
461.269	3.56
461.472	3.56
461.675	3.52
461.878	3.6
462.081	3.64
462.284	3.61
462.486	3.63
462.689	3.62
462.892	3.64
463.095	3.52
463.298	3.52
463.5	3.52
463.703	3.5
463.906	3.48
464.109	3.32
464.311	3.27
464.514	3.19
464.717	3.24
464.92	3.22
465.122	3.28
465.325	3.39
465.528	3.27
465.73	3.18
465.933	3.11
466.135	3.15
466.338	3.2
466.541	3.28
466.743	3.41
466.946	3.42
467.148	3.48
467.351	3.36
467.553	3.39
467.756	3.43
467.958	3.52
468.161	3.64
468.363	3.56
468.566	3.73
468.768	3.62
468.971	3.58
469.173	3.58
469.375	3.63
469.578	3.68
469.78	3.65
469.983	3.69
470.185	3.54
470.387	3.37
470.59	3.48
470.792	3.34
470.994	3.46
471.196	3.42
471.399	3.37
471.601	3.37
471.803	3.47
472.005	3.41
472.208	3.47
472.41	3.62
472.612	3.77
472.814	3.8
473.016	3.88
473.218	3.79
473.421	3.87
473.623	3.89
473.825	3.89
474.027	3.9
474.229	3.99
474.431	3.96
474.633	3.95
474.835	3.95
475.037	3.9
475.239	3.92
475.441	3.91
475.643	3.93
475.845	3.93
476.047	3.91
476.249	3.82
476.451	3.8
476.653	3.86
476.855	3.84
477.057	3.81
477.258	3.86
477.46	3.74
477.662	3.72
477.864	3.66
478.066	3.7
478.268	3.74
478.469	3.71
478.671	3.71
478.873	3.59
479.075	3.5
479.276	3.49
479.478	3.41
479.68	3.43
479.882	3.46
480.083	3.49
480.285	3.44
480.487	3.44
480.688	3.42
480.89	3.45
481.091	3.44
481.293	3.54
481.495	3.57
481.696	3.61
481.898	3.66
482.099	3.66
482.301	3.67
482.502	3.73
482.704	3.69
482.905	3.73
483.107	3.73
483.308	3.76
483.51	3.71
483.711	3.69
483.913	3.66
484.114	3.62
484.315	3.62
484.517	3.58
484.718	3.55
484.92	3.56
485.121	3.53
485.322	3.49
485.524	3.47
485.725	3.5
485.926	3.52
486.127	3.53
486.329	3.56
486.53	3.55
486.731	3.6
486.932	3.59
487.134	3.59
487.335	3.62
487.536	3.63
487.737	3.61
487.938	3.59
488.139	3.58
488.341	3.6
488.542	3.62
488.743	3.61
488.944	3.6
489.145	3.59
489.346	3.59
489.547	3.6
489.748	3.59
489.949	3.64
490.15	3.7
490.351	3.74
490.552	3.73
490.753	3.71
490.954	3.7
491.155	3.67
491.356	3.71
491.557	3.71
491.758	3.67
491.959	3.69
492.159	3.68
492.36	3.63
492.561	3.59
492.762	3.54
492.963	3.53
493.164	3.54
493.364	3.61
493.565	3.58
493.766	3.51
493.967	3.59
494.167	3.65
494.368	3.63
494.569	3.7
494.769	3.72
494.97	3.84
495.171	3.92
495.371	3.96
495.572	3.94
495.773	3.98
495.973	4.07
496.174	4.1
496.375	4.05
496.575	4.16
496.776	4.1
496.976	4.16
497.177	4.12
497.377	4.09
497.578	4.06
497.778	4.13
497.979	4.09
498.179	4.06
498.38	3.99
498.58	4.02
498.78	3.96
498.981	4.03
499.181	3.94
499.382	3.94
499.582	4
499.782	3.99
499.983	3.9
500.183	4.01
500.383	4.16
500.584	4.26
500.784	4.13
500.984	4.18
501.184	4.29
501.385	4.46
501.585	4.58
501.785	4.5
501.985	4.68
502.185	4.77
502.386	4.73
502.586	4.66
502.786	4.67
502.986	4.81
503.186	4.79
503.386	4.73
503.586	4.62
503.786	4.57
503.987	4.66
504.187	4.53
504.387	4.56
504.587	4.57
504.787	4.61
504.987	4.65
505.187	4.74
505.387	4.75
505.587	4.89
505.786	4.9
505.986	4.95
506.186	4.98
506.386	5.1
506.586	5.19
506.786	5.24
506.986	5.25
507.186	5.25
507.386	5.24
507.585	5.28
507.785	5.26
507.985	5.35
508.185	5.37
508.384	5.44
508.584	5.49
508.784	5.45
508.984	5.48
509.183	5.57
509.383	5.57
509.583	5.59
509.782	5.59
509.982	5.52
510.182	5.54
510.381	5.62
510.581	5.66
510.781	5.68
510.98	5.73
511.18	5.68
511.379	5.71
511.579	5.8
511.778	5.79
511.978	5.87
512.177	5.95
512.377	6
512.576	6
512.776	6.07
512.975	6.05
513.175	6.07
513.374	6.26
513.573	6.29
513.773	6.28
513.972	6.31
514.172	6.36
514.371	6.46
514.57	6.45
514.77	6.48
514.969	6.42
515.168	6.47
515.367	6.51
515.567	6.48
515.766	6.49
515.965	6.58
516.164	6.67
516.364	6.75
516.563	6.75
516.762	6.82
516.961	6.89
517.16	6.93
517.359	7.07
517.559	7.16
517.758	7.25
517.957	7.29
518.156	7.35
518.355	7.36
518.554	7.38
518.753	7.42
518.952	7.47
519.151	7.5
519.35	7.59
519.549	7.6
519.748	7.59
519.947	7.59
520.146	7.6
520.345	7.62
520.544	7.71
520.743	7.76
520.942	7.76
521.141	7.86
521.339	7.92
521.538	7.96
521.737	8.01
521.936	8.18
522.135	8.2
522.333	8.3
522.532	8.3
522.731	8.43
522.93	8.56
523.129	8.67
523.327	8.66
523.526	8.68
523.725	8.75
523.923	8.79
524.122	8.76
524.321	8.84
524.519	8.9
524.718	9.03
524.917	9.04
525.115	9.07
525.314	9.17
525.512	9.24
525.711	9.37
525.909	9.36
526.108	9.45
526.306	9.53
526.505	9.64
526.703	9.67
526.902	9.73
527.1	9.74
527.299	9.77
527.497	9.77
527.696	9.81
527.894	9.8
528.092	9.86
528.291	9.87
528.489	9.91
528.688	9.88
528.886	9.95
529.084	9.93
529.283	10
529.481	10.01
529.679	10.04
529.877	10.08
530.076	10.12
530.274	10.17
530.472	10.21
530.67	10.24
530.869	10.33
531.067	10.33
531.265	10.46
531.463	10.51
531.661	10.66
531.859	10.77
532.057	10.84
532.255	10.91
532.454	10.96
532.652	11.02
532.85	11.09
533.048	11.15
533.246	11.2
533.444	11.24
533.642	11.24
533.84	11.2
534.038	11.24
534.236	11.28
534.434	11.34
534.632	11.42
534.83	11.52
535.027	11.6
535.225	11.66
535.423	11.73
535.621	11.76
535.819	11.83
536.017	11.95
536.215	11.97
536.412	12.02
536.61	12.08
536.808	12.1
537.006	12.14
537.203	12.14
537.401	12.21
537.599	12.26
537.797	12.28
537.994	12.37
538.192	12.44
538.39	12.57
538.587	12.6
538.785	12.6
538.983	12.66
539.18	12.74
539.378	12.9
539.575	12.99
539.773	13.12
539.97	13.22
540.168	13.27
540.366	13.35
540.563	13.34
540.761	13.39
540.958	13.45
541.155	13.47
541.353	13.5
541.55	13.53
541.748	13.52
541.945	13.53
542.143	13.56
542.34	13.65
542.537	13.63
542.735	13.72
542.932	13.78
543.129	13.87
543.327	13.98
543.524	14.05
543.721	14.1
543.919	14.23
544.116	14.33
544.313	14.46
544.51	14.54
544.708	14.7
544.905	14.82
545.102	14.97
545.299	15.08
545.496	15.09
545.693	15.24
545.891	15.31
546.088	15.35
546.285	15.36
546.482	15.44
546.679	15.45
546.876	15.53
547.073	15.49
547.27	15.48
547.467	15.49
547.664	15.53
547.861	15.48
548.058	15.48
548.255	15.4
548.452	15.46
548.649	15.4
548.846	15.44
549.043	15.42
549.24	15.46
549.437	15.6
549.633	15.57
549.83	15.63
550.027	15.65
550.224	15.69
550.421	15.79
550.618	15.85
550.814	15.84
551.011	15.88
551.208	15.94
551.405	16
551.601	15.97
551.798	16.15
551.995	16.3
552.191	16.38
552.388	16.48
552.585	16.54
552.781	16.57
552.978	16.69
553.175	16.71
553.371	16.86
553.568	16.97
553.764	16.99
553.961	16.96
554.157	16.9
554.354	16.92
554.55	16.9
554.747	17.03
554.943	17.08
555.14	17.01
555.336	17.03
555.533	16.97
555.729	16.96
555.926	16.98
556.122	17.06
556.318	16.91
556.515	17.05
556.711	17.13
556.907	17.12
557.104	17.16
557.3	17.18
557.496	17.22
557.693	17.22
557.889	17.27
558.085	17.4
558.281	17.43
558.478	17.59
558.674	17.56
558.87	17.53
559.066	17.64
559.262	17.67
559.459	17.95
559.655	18.07
559.851	18.12
560.047	18.08
560.243	18.16
560.439	18.24
560.635	18.39
560.831	18.51
561.027	18.63
561.223	18.61
561.419	18.69
561.615	18.82
561.811	18.88
562.007	18.93
562.203	19.02
562.399	19.05
562.595	19.16
562.791	19.22
562.987	19.21
563.183	19.19
563.379	19.29
563.575	19.32
563.771	19.22
563.966	19.2
564.162	19.19
564.358	19.33
564.554	19.33
564.75	19.31
564.945	19.27
565.141	19.31
565.337	19.45
565.533	19.45
565.728	19.48
565.924	19.47
566.12	19.61
566.315	19.72
566.511	19.63
566.707	19.8
566.902	19.87
567.098	20.1
567.293	20.13
567.489	20.09
567.684	20.26
567.88	20.33
568.076	20.46
568.271	20.48
568.467	20.53
568.662	20.66
568.858	20.59
569.053	20.65
569.248	20.62
569.444	20.76
569.639	20.84
569.835	20.75
570.03	20.79
570.225	20.8
570.421	20.89
570.616	20.91
570.812	20.94
571.007	20.92
571.202	21.08
571.397	21.14
571.593	21.08
571.788	21.19
571.983	21.24
572.178	21.37
572.374	21.39
572.569	21.44
572.764	21.47
572.959	21.58
573.154	21.66
573.35	21.57
573.545	21.64
573.74	21.72
573.935	21.62
574.13	21.59
574.325	21.59
574.52	21.63
574.715	21.59
574.91	21.61
575.105	21.64
575.3	21.76
575.495	21.8
575.69	21.84
575.885	21.93
576.08	22.18
576.275	22.37
576.47	22.42
576.665	22.64
576.86	22.61
577.055	22.76
577.25	22.79
577.444	22.76
577.639	22.87
577.834	22.93
578.029	22.96
578.224	22.88
578.418	22.77
578.613	22.8
578.808	22.81
579.003	23.1
579.197	23.07
579.392	23.08
579.587	23.25
579.781	23.24
579.976	23.19
580.171	23.23
580.365	23.25
580.56	23.43
580.755	23.44
580.949	23.41
581.144	23.23
581.338	23.27
581.533	23.3
581.727	23.4
581.922	23.52
582.116	23.61
582.311	23.47
582.505	23.52
582.7	23.49
582.894	23.51
583.089	23.56
583.283	23.63
583.478	23.7
583.672	23.81
583.866	23.7
584.061	23.64
584.255	23.67
584.449	24.07
584.644	24.09
584.838	24.16
585.032	24.16
585.226	24.31
585.421	24.33
585.615	24.43
585.809	24.35
586.003	24.42
586.198	24.51
586.392	24.42
586.586	24.38
586.78	24.6
586.974	24.63
587.168	24.8
587.363	24.67
587.557	24.71
587.751	24.71
587.945	24.76
588.139	24.8
588.333	24.71
588.527	24.76
588.721	24.66
588.915	24.53
589.109	24.69
589.303	24.61
589.497	24.6
589.691	24.63
589.885	24.49
590.079	24.53
590.273	24.47
590.466	24.54
590.66	24.59
590.854	24.7
591.048	24.78
591.242	24.72
591.436	24.77
591.629	24.88
591.823	25.04
592.017	25.22
592.211	25.26
592.404	25.41
592.598	25.52
592.792	25.56
592.986	25.57
593.179	25.56
593.373	25.56
593.567	25.57
593.76	25.37
593.954	25.27
594.147	25.16
594.341	25.07
594.535	25.01
594.728	24.93
594.922	24.88
595.115	24.76
595.309	24.7
595.502	24.73
595.696	24.65
595.889	24.82
596.083	24.84
596.276	24.89
596.47	24.88
596.663	24.93
596.856	24.9
597.05	24.91
597.243	24.98
597.437	25.06
597.63	25.03
597.823	25.06
598.017	25.05
598.21	25.01
598.403	25.01
598.596	25.15
598.79	25.12
598.983	25.19
599.176	25.19
599.369	25.21
599.563	25.18
599.756	25.23
599.949	25.39
600.142	25.39
600.335	25.52
600.528	25.6
600.722	25.58
600.915	25.48
601.108	25.52
601.301	25.52
601.494	25.6
601.687	25.55
601.88	25.62
602.073	25.42
602.266	25.46
602.459	25.29
602.652	25.23
602.845	25.37
603.038	25.45
603.231	25.38
603.424	25.47
603.617	25.39
603.809	25.41
604.002	25.3
604.195	25.47
604.388	25.43
604.581	25.6
604.774	25.74
604.966	25.62
605.159	25.7
605.352	25.77
605.545	25.67
605.737	25.6
605.93	25.62
606.123	25.7
606.316	25.69
606.508	25.79
606.701	25.71
606.894	25.52
607.086	25.73
607.279	25.73
607.471	25.81
607.664	26
607.857	26.29
608.049	26.53
608.242	26.78
608.434	27.12
608.627	27.46
608.819	28.02
609.012	28.87
609.204	29.46
609.397	30.17
609.589	31.05
609.782	31.84
609.974	32.74
610.166	33.66
610.359	34.44
610.551	35.25
610.743	36.04
610.936	36.49
611.128	36.71
611.32	36.96
611.513	37.22
611.705	37.11
611.897	37.09
612.09	36.95
612.282	36.62
612.474	36.34
612.666	35.8
612.858	35.33
613.051	34.98
613.243	34.77
613.435	34.4
613.627	33.72
613.819	33.51
614.011	33.05
614.203	32.48
614.395	32.06
614.588	31.65
614.78	31.25
614.972	30.74
615.164	30.4
615.356	29.91
615.548	29.52
615.74	29.41
615.932	28.76
616.124	28.49
616.315	28.2
616.507	28.06
616.699	27.91
616.891	27.87
617.083	27.85
617.275	27.79
617.467	27.62
617.659	27.56
617.85	27.43
618.042	27.75
618.234	27.88
618.426	27.93
618.618	27.93
618.809	27.87
619.001	27.83
619.193	27.81
619.384	27.88
619.576	28.01
619.768	28.11
619.959	28.09
620.151	28.04
620.343	27.98
620.534	27.93
620.726	27.94
620.917	28.14
621.109	28.15
621.301	28.17
621.492	27.99
621.684	27.97
621.875	27.85
622.067	27.63
622.258	27.6
622.45	27.47
622.641	27.47
622.832	27.57
623.024	27.34
623.215	27.39
623.407	27.35
623.598	27.36
623.789	27.24
623.981	27.32
624.172	27.66
624.363	27.46
624.555	27.74
624.746	27.9
624.937	27.9
625.129	27.98
625.32	27.85
625.511	27.81
625.702	27.97
625.893	28.06
626.085	28.11
626.276	28.09
626.467	28.17
626.658	27.98
626.849	27.91
627.04	27.78
627.231	27.7
627.422	27.76
627.614	27.78
627.805	27.75
627.996	27.75
628.187	27.7
628.378	27.72
628.569	27.76
628.76	27.96
628.951	28.15
629.142	28.22
629.332	28.27
629.523	28.39
629.714	28.57
629.905	28.59
630.096	28.8
630.287	28.9
630.478	28.98
630.669	29.14
630.859	29.06
631.05	28.71
631.241	28.77
631.432	28.74
631.623	28.7
631.813	28.61
632.004	28.47
632.195	28.28
632.385	28.1
632.576	27.71
632.767	27.61
632.957	27.62
633.148	27.71
633.339	27.42
633.529	27.33
633.72	27.28
633.91	27.12
634.101	26.95
634.292	26.88
634.482	27
634.673	27.22
634.863	27.03
635.054	26.84
635.244	26.81
635.435	26.96
635.625	26.93
635.815	26.95
636.006	27.04
636.196	27.18
636.387	27.11
636.577	26.89
636.767	26.85
636.958	27.09
637.148	27.17
637.338	27.22
637.529	27.12
637.719	27.27
637.909	27.16
638.099	27
638.29	26.97
638.48	27.07
638.67	27.07
638.86	27.18
639.05	27.13
639.241	27.26
639.431	27.08
639.621	27
639.811	26.91
640.001	26.88
640.191	27.09
640.381	27.26
640.571	27.16
640.761	27.34
640.951	27.19
641.141	27.03
641.331	26.83
641.521	26.99
641.711	27.17
641.901	27.07
642.091	27.13
642.281	27.22
642.471	27.31
642.661	27.44
642.851	27.29
643.041	27.28
643.231	27.4
643.42	27.32
643.61	27.43
643.8	27.39
643.99	27.63
644.18	27.48
644.369	27.28
644.559	27.19
644.749	27.02
644.939	27.11
645.128	27.17
645.318	27.17
645.508	27.25
645.697	27.09
645.887	26.94
646.076	26.95
646.266	27.06
646.456	27.12
646.645	27.15
646.835	27.3
647.024	27.29
647.214	27.2
647.403	27.24
647.593	27.32
647.782	27.22
647.972	27.32
648.161	27.14
648.351	27.24
648.54	27.33
648.73	27.38
648.919	27.63
649.108	27.67
649.298	27.88
649.487	27.96
649.677	27.88
649.866	28.18
650.055	28.41
650.244	28.75
650.434	28.88
650.623	29.08
650.812	29.19
651.002	29.07
651.191	29.3
651.38	29.21
651.569	29.13
651.758	29.17
651.947	28.94
652.137	28.78
652.326	28.45
652.515	28.33
652.704	28.09
652.893	27.66
653.082	27.54
653.271	27.51
653.46	27.48
653.649	27.5
653.838	27.64
654.027	27.91
654.216	27.78
654.405	27.83
654.594	27.95
654.783	27.93
654.972	28.22
655.161	28.34
655.35	28.03
655.539	28.17
655.728	28.27
655.916	28.04
656.105	28.2
656.294	28.44
656.483	28.51
656.672	28.56
656.86	28.62
657.049	28.53
657.238	28.35
657.427	28.23
657.615	28.11
657.804	28.06
657.993	28.13
658.181	27.8
658.37	27.82
658.559	27.78
658.747	27.59
658.936	27.63
659.125	27.69
659.313	27.7
659.502	27.89
659.69	27.87
659.879	27.83
660.067	27.91
660.256	28
660.444	28.11
660.633	28.21
660.821	28.3
661.01	28.41
661.198	28.47
661.387	28.65
661.575	28.77
661.763	28.94
661.952	28.88
662.14	28.89
662.328	28.89
662.517	28.77
662.705	28.66
662.893	28.81
663.082	28.68
663.27	28.68
663.458	28.41
663.646	28.25
663.834	28.17
664.023	28.11
664.211	28.18
664.399	28.16
664.587	28.06
664.775	28.08
664.963	27.98
665.152	27.93
665.34	27.88
665.528	28.18
665.716	27.99
665.904	28.09
666.092	28.37
666.28	28.43
666.468	28.37
666.656	28.55
666.844	28.67
667.032	28.63
667.22	28.58
667.408	28.8
667.596	28.89
667.784	29.26
667.971	28.98
668.159	28.74
668.347	28.62
668.535	28.59
668.723	28.58
668.911	28.55
669.098	28.59
669.286	28.74
669.474	28.57
669.662	28.48
669.849	28.26
670.037	28.58
670.225	28.69
670.413	28.58
670.6	28.7
670.788	28.81
670.976	28.65
671.163	28.76
671.351	28.77
671.538	28.61
671.726	28.44
671.913	28.4
672.101	28.47
672.289	28.43
672.476	28.49
672.664	28.39
672.851	28.37
673.039	28.5
673.226	28.62
673.413	28.56
673.601	28.62
673.788	28.93
673.976	29.28
674.163	29.34
674.35	29.41
674.538	29.33
674.725	29.39
674.912	29.17
675.1	28.99
675.287	28.56
675.474	28.75
675.662	28.79
675.849	28.81
676.036	28.76
676.223	28.6
676.411	28.61
676.598	28.66
676.785	28.75
676.972	28.85
677.159	28.92
677.346	29.09
677.533	28.94
677.721	28.77
677.908	28.84
678.095	28.74
678.282	28.63
678.469	28.71
678.656	28.87
678.843	28.91
679.03	28.86
679.217	29.12
679.404	29.15
679.591	29.22
679.778	29.54
679.964	29.21
680.151	29.22
680.338	29.44
680.525	29.32
680.712	29.35
680.899	29.23
681.086	29.13
681.272	29.19
681.459	29.3
681.646	29.1
681.833	28.87
682.02	29.01
682.206	28.95
682.393	28.64
682.58	28.75
682.766	28.58
682.953	28.55
683.14	28.87
683.326	28.77
683.513	28.5
683.7	28.66
683.886	28.65
684.073	28.53
684.259	28.55
684.446	28.74
684.632	28.7
684.819	28.95
685.005	29.11
685.192	28.88
685.378	28.98
685.565	29.22
685.751	29.24
685.938	29.49
686.124	29.54
686.31	29.41
686.497	29.41
686.683	29.43
686.87	29.09
687.056	28.84
687.242	29.02
687.429	28.95
687.615	28.68
687.801	28.68
687.987	28.58
688.174	28.87
688.36	29.23
688.546	29.25
688.732	29.37
688.918	29.68
689.105	29.9
689.291	29.88
689.477	29.95
689.663	29.87
689.849	29.99
690.035	29.87
690.221	29.72
690.407	29.42
690.593	29.48
690.779	29.25
690.965	29.3
691.151	29.37
691.337	29.26
691.523	29.45
691.709	29.93
691.895	29.72
692.081	30.06
692.267	29.77
692.453	30.06
692.639	29.99
692.825	30.17
693.011	29.97
693.196	29.81
693.382	29.75
693.568	29.57
693.754	29.31
693.94	29.45
694.125	29.16
694.311	29.27
694.497	28.92
694.682	28.71
694.868	28.86
695.054	28.77
695.239	28.94
695.425	29.13
695.611	29.02
695.796	29.01
695.982	28.9
696.168	28.81
696.353	28.85
696.539	28.92
696.724	28.98
696.91	28.83
697.095	29.03
697.281	28.76
697.466	28.82
697.652	28.82
697.837	28.77
698.023	28.8
698.208	28.81
698.393	28.82
698.579	28.6
698.764	28.53
698.949	28.5
699.135	28.33
699.32	28.33
699.505	27.87
699.691	27.73
699.876	27.81
700.061	27.55
700.246	27.75
700.432	27.51
700.617	27.86
700.802	27.99
700.987	28.12
701.172	28.19
701.358	28.36
701.543	28.84
701.728	28.98
701.913	28.88
702.098	29.14
702.283	29.08
702.468	29.32
702.653	29.28
702.838	29.35
703.023	29.12
703.208	29.13
703.393	29.48
703.578	29.71
703.763	29.68
703.948	30
704.133	30.37
704.318	30.29
704.503	30.36
704.688	30.57
704.873	30.8
705.057	31.22
705.242	31.41
705.427	31.49
705.612	31.65
705.797	32.1
705.981	32.25
706.166	32.27
706.351	32.7
706.536	33.06
706.72	33.35
706.905	33.74
707.09	33.99
707.274	34.49
707.459	34.5
707.644	34.57
707.828	34.65
708.013	34.49
708.197	34.59
708.382	34.02
708.567	33.96
708.751	34.13
708.936	33.93
709.12	33.64
709.305	33.05
709.489	32.71
709.673	32.45
709.858	32.02
710.042	32.08
710.227	32.01
710.411	32.34
710.596	32.44
710.78	32.4
710.964	32.28
711.149	32.04
711.333	32.17
711.517	32.62
711.702	32.81
711.886	32.7
712.07	32.59
712.254	32.32
712.438	31.81
712.623	31.5
712.807	31.09
712.991	30.47
713.175	30.77
713.359	30.62
713.544	30.29
713.728	29.79
713.912	29.99
714.096	29.87
714.28	29.79
714.464	30.11
714.648	30.2
714.832	30
715.016	30.23
715.2	29.96
715.384	29.85
715.568	29.89
715.752	30.16
715.936	29.77
716.12	29.52
716.304	29.8
716.488	29.9
716.671	29.63
716.855	29.59
717.039	29.69
717.223	29.47
717.407	29.79
717.59	29.14
717.774	28.93
717.958	29.1
718.142	29.63
718.325	29.41
718.509	29
718.693	29.28
718.877	29.14
719.06	29.1
719.244	29.19
719.428	28.7
719.611	29.4
719.795	29.64
719.978	29.33
720.162	29.01
720.345	28.74
720.529	28.83
720.713	29.02
720.896	29.21
721.08	29.01
721.263	29.11
721.446	29.19
721.63	29.02
721.813	28.19
721.997	28.41
722.18	28.71
722.364	29.15
722.547	29.1
722.73	28.59
722.914	28.48
723.097	28.45
723.28	28.57
723.464	28.5
723.647	28.49
723.83	28.96
724.013	28.83
724.197	28.92
724.38	28.47
724.563	28.68
724.746	28.63
724.929	28.5
725.112	29.28
725.296	29.11
725.479	29.29
725.662	29.61
725.845	29.88
726.028	29.82
726.211	29.4
726.394	29.73
726.577	30.09
726.76	30.27
726.943	30.49
727.126	30.05
727.309	29.63
727.492	29.61
727.675	29.75
727.858	29.59
728.041	29.73
728.224	29.78
728.407	29.71
728.589	29.43
728.772	29.38
728.955	29.65
729.138	29.45
729.321	30.15
729.503	30.33
729.686	30.33
729.869	30.69
730.052	31.17
730.234	31.16
730.417	31.19
730.6	31.25
730.782	31.1
730.965	31.09
731.148	30.9
731.33	30.39
731.513	30.18
731.695	29.38
731.878	29.05
732.061	28.61
732.243	28.47
732.426	28.32
732.608	28.26
732.791	28.22
732.973	28.24
733.156	28.88
733.338	29.19
733.52	28.7
733.703	29.39
733.885	29.25
734.068	29.56
734.25	29.65
734.432	29.68
734.615	29.63
734.797	29.92
734.979	29.63
735.162	28.86
735.344	28.72
735.526	29.25
735.708	29.24
735.891	29.45
736.073	29.22
736.255	29.15
736.437	29.03
736.619	29.36
736.802	29.16
736.984	29.01
737.166	29.14
737.348	29.27
737.53	29.57
737.712	29.38
737.894	29.22
738.076	29.6
738.258	29.89
738.44	30.8
738.622	31.05
738.804	31.36
738.986	31.62
739.168	31.82
739.35	32.23
739.532	32.21
739.714	31.83
739.896	31.7
740.078	31.75
740.259	31.49
740.441	30.49
740.623	30.13
740.805	30.13
740.987	30.23
741.168	30.61
741.35	30
741.532	30.07
741.714	30.01
741.895	30.47
742.077	30.47
742.259	30.95
742.44	30.75
742.622	31.23
742.804	31.06
742.985	30.68
743.167	30.56
743.348	30.78
743.53	30.6
743.711	30.27
743.893	30.28
744.075	30.17
744.256	29.79
744.438	30.35
744.619	29.83
744.8	30.39
744.982	31.18
745.163	30.76
745.345	30.71
745.526	30.56
745.707	31.47
745.889	31.46
746.07	31.34
746.252	31.93
746.433	32.37
746.614	31.78
746.795	31.26
746.977	30.55
747.158	30.54
747.339	30.65
747.52	30.46
747.702	30.3
747.883	30.95
748.064	30.48
748.245	29.77
748.426	29.47
748.607	30.11
748.788	29.98
748.97	30.12
749.151	30.77
749.332	30.57
749.513	30.65
749.694	30.92
749.875	30.02
750.056	30.34
750.237	30.51
750.418	29.85
750.599	30.13
750.78	30.45
750.96	30.81
751.141	30.26
751.322	30.85
751.503	31.14
751.684	31.28
751.865	31.49
752.046	30.79
752.226	31.4
752.407	32.28
752.588	31.75
752.769	31.54
752.949	31.45
753.13	31.93
753.311	31.89
753.492	31.65
753.672	31.1
753.853	31.09
754.034	31.85
754.214	31.78
754.395	31.3
754.575	30.87
754.756	31.1
754.937	30.8
755.117	30.96
755.298	30.75
755.478	30.62
755.659	31.1
755.839	31.17
756.02	31.07
756.2	30.36
756.381	30.66
756.561	30.56
756.741	30.67
756.922	31.37
757.102	30.78
757.283	30.36
757.463	30.75
757.643	30.34
757.823	30.14
758.004	30.33
758.184	30.72
758.364	30.42
758.545	30.89
758.725	30.34
758.905	29.63
759.085	29.82
759.265	29.53
759.446	29.83
759.626	29.67
759.806	30.01
759.986	29.83
760.166	28.98
760.346	29.26
760.526	28.94
760.706	28.03
760.886	28.64
761.066	28.41
761.246	28.29
761.426	27.58
761.606	27.69
761.786	27.34
761.966	27.28
762.146	27.63
762.326	27.08
762.506	26.84
762.686	27.59
762.866	27.11
763.046	27.53
763.225	27.86
763.405	28.03
763.585	27.8
763.765	27.84
763.945	28.12
764.124	28.28
764.304	28.39
764.484	29.08
764.664	29.33
764.843	29.9
765.023	29.5
765.203	29.16
765.382	29
765.562	29.69
765.741	29.54
765.921	29.64
766.101	29.83
766.28	30.26
766.46	29.31
766.639	29.27
766.819	29.14
766.998	29.27
767.178	29.71
767.357	30.37
767.537	30.1
767.716	30.05
767.896	29.62
768.075	29.84
768.254	30.36
768.434	31.27
768.613	31.31
768.792	30.88
768.972	31.11
769.151	31.5
769.33	31.4
769.51	31.39
769.689	31.93
769.868	32.56
770.047	31.6
770.226	30.85
770.406	31.14
770.585	31.58
770.764	32.13
770.943	32.08
771.122	32.15
771.301	31.48
771.48	31.46
771.66	31
771.839	30.52
772.018	31.28
772.197	31.9
772.376	31.09
772.555	30.77
772.734	30.53
772.913	30.6
773.092	30.78
773.271	31.36
773.449	30.82
773.628	30.83
773.807	31.01
773.986	30.77
774.165	30.22
774.344	31.06
774.523	30.92
774.701	30.24
774.88	30.72
775.059	29.84
775.238	29.32
775.417	30.49
775.595	31.07
775.774	31.25
775.953	31.55
776.131	31.68
776.31	31.58
776.489	31.58
776.667	32.14
776.846	31.44
777.025	32.15
777.203	33.12
777.382	32.67
777.56	32.74
777.739	32
777.917	31.81
778.096	31.88
778.274	31.32
778.453	31.29
778.631	30.88
778.81	30.56
778.988	30.27
779.166	29.6
779.345	29.97
779.523	29.94
779.702	30.21
779.88	29.95
780.058	30.37
780.237	30.13
780.415	30.91
780.593	30.94
780.771	30.88
780.95	30.49
781.128	30.97
781.306	30.23
781.484	30.17
781.662	29.98
781.841	30.12
782.019	30.22
782.197	31.25
782.375	30.92
782.553	31.72
782.731	32.63
782.909	32.98
783.087	32.64
783.265	33.28
783.443	32.89
783.621	32.84
783.799	32.6
783.977	31.77
784.155	31.47
784.333	31.35
784.511	31.12
784.689	30.4
784.867	30.04
785.045	29.29
785.223	28.78
785.4	28.43
785.578	28.68
785.756	28.92
785.934	28.84
786.112	28.16
786.289	28.59
786.467	28.06
786.645	28.32
786.823	28.41
787	28.76
787.178	28.41
787.356	29.18
787.533	29.43
787.711	29.71
787.889	29.13
788.066	30.47
788.244	29.69
788.421	30.1
788.599	30.08
788.776	30.2
788.954	30.41
789.131	31.1
789.309	30.17
789.486	29.12
789.664	28.56
789.841	28.82
790.019	28.06
790.196	27.81
790.373	27.39
790.551	27.71
790.728	27.76
790.906	28
791.083	27.55
791.26	28.35
791.437	29.85
791.615	29.99
791.792	30.16
791.969	29.17
792.146	30.43
792.324	31.27
792.501	30.94
792.678	31.43
792.855	31.46
793.032	31.5
793.209	31.37
793.387	31.11
793.564	31.69
793.741	31.6
793.918	32.01
794.095	31.16
794.272	30.19
794.449	29.92
794.626	29.44
794.803	28.62
794.98	28.13
795.157	28.28
795.334	28.12
795.511	28.13
795.688	27.94
795.864	27.87
796.041	27.32
796.218	26.79
796.395	26.49
796.572	26.74
796.749	26.5
796.925	27.7
797.102	28.15
797.279	27.88
797.456	27.84
797.632	28.71
797.809	29.13
797.986	29.35
798.162	30.53
798.339	30.77
798.516	31.22
798.692	31.79
798.869	31
799.046	30.16
799.222	30.73
799.399	30.13
799.575	30.37
799.752	29.87
799.928	30.56
800.105	29.76
800.281	30.11
800.458	29.77
800.634	29.47
800.811	29.03
800.987	29.76
801.163	29.44
801.34	29.66
801.516	28.9
801.692	28.5
801.869	27.95
802.045	28.26
802.221	27.48
802.398	26.86
802.574	28.55
802.75	27.5
802.926	26.43
803.103	26.37
803.279	27.53
803.455	26.85
803.631	27.2
803.807	27.55
803.983	28.26
804.16	28.19
804.336	28.71
804.512	26.77
804.688	29.98
804.864	29.91
805.04	30.47
805.216	28.63
805.392	28.51
805.568	28.54
805.744	26.99
805.92	24.3
806.096	26.38
806.272	26.67
806.448	26.37
806.623	25.17
806.799	25.96
806.975	24.77
807.151	24.4
807.327	25.3
807.503	25.88
807.678	26.98
807.854	28.45
808.03	27.33
808.206	26.89
808.381	26.83
808.557	25.8
808.733	25.71
808.908	25.33
809.084	26.86
809.26	26.46
809.435	26.48
809.611	27.18
809.787	26.68
809.962	26.97
810.138	27.77
810.313	28.82
810.489	28.3
810.664	29.3
810.84	30.42
811.015	30.21
811.191	30.24
811.366	29.14
811.542	27.85
811.717	29.5
811.892	30.55
812.068	30.76
812.243	29.41
812.419	30.19
812.594	29.48
812.769	29.73
812.944	29.31
813.12	28.74
813.295	29.87
813.47	31.73
813.645	30.92
813.821	29.37
813.996	29.2
814.171	29.92
814.346	30.58
814.521	29.75
814.697	29.02
814.872	29.18
815.047	30.03
815.222	30.05
815.397	28.54
815.572	27.9
815.747	28.43
815.922	27.07
816.097	27.65
816.272	27.31
816.447	27.15
816.622	26.45
816.797	27.34
816.972	27.23
817.147	26.5
817.322	26.71
817.496	28.03
817.671	28.34
817.846	27.93
818.021	27.47
818.196	28.28
818.371	29.64
818.545	29.58
818.72	29.71
818.895	29.64
819.069	30.16
819.244	30.32
819.419	30.18
819.594	30.38
819.768	30.38
819.943	30.89
820.117	29.77
820.292	29.04
820.467	29.46
820.641	28.52
820.816	28.29
820.99	27.56
821.165	27.24
821.339	27.41
821.514	27.01
821.688	27.24
821.863	26.99
822.037	27.15
822.212	27.22
822.386	27.1
822.56	27.27
822.735	27.28
822.909	27.5
823.084	27.46
823.258	27.17
823.432	26.96
823.606	26.78
823.781	26.91
823.955	26.86
824.129	26.81
824.303	26.76
824.478	26.83
824.652	26.79
824.826	26.46
825	26.58
825.174	26.85
825.348	27.53
825.523	27.97
825.697	27.67
825.871	27.38
826.045	27.23
826.219	27.29
826.393	27.33
826.567	27.6
826.741	28.08
826.915	28.27
827.089	27.9
827.263	27.92
827.437	27.59
827.611	27.66
827.784	28.27
827.958	28.64
828.132	28.61
828.306	27.8
828.48	27.61
828.654	27.25
828.827	27.14
829.001	27.17
829.175	27.16
829.349	27.53
829.522	28.12
829.696	27.84
829.87	27.47
830.044	27.96
830.217	29.17
830.391	29.49
830.565	29.57
830.738	29.64
830.912	30.04
831.085	29.98
831.259	29.74
831.432	27.95
831.606	27.61
831.779	27.88
831.953	27.6
832.126	27.04
832.3	26.98
832.473	27.66
832.647	26.92
832.82	26.53
832.994	26.62
833.167	26.09
833.34	27.21
833.514	27.03
833.687	27.12
833.86	27.66
834.034	27.85
834.207	27.15
834.38	26.82
834.553	27.28
834.727	27.33
834.9	27.15
835.073	27.92
835.246	28.03
835.419	28.05
835.593	27.53
835.766	26.92
835.939	27.18
836.112	27.82
836.285	27.73
836.458	27.66
836.631	28.79
836.804	28.55
836.977	28.46
837.15	27.22
837.323	27.79
837.496	28.47
837.669	27.87
837.842	26.65
838.015	26.79
838.188	28.61
838.361	28.19
838.533	27.52
838.706	28.34
838.879	26.84
839.052	28.31
839.225	28.07
839.398	27.97
839.57	28.16
839.743	29.37
839.916	29.01
840.088	28.82
840.261	30.98
840.434	29.73
840.607	29.57
840.779	31.96
840.952	31.74
841.124	30.11
841.297	31.3
841.47	32.92
841.642	33.32
841.815	33.75
841.987	33.99
842.16	29.93
842.332	32.03
842.505	30.59
842.677	29.06
842.85	28.79
843.022	30.6
843.194	32.41
843.367	31.54
843.539	28.78
843.712	26.59
843.884	25.48
844.056	30.22
844.229	29.95
844.401	31.23
844.573	29.9
844.745	30.71
844.918	31.02
845.09	27.7
845.262	30.15
845.434	29.49
845.606	34.07
845.779	34.6
845.951	36.19
846.123	32.36
846.295	31.39
846.467	29.5
846.639	28.98
846.811	30.83
846.983	29.02
847.155	25.33
847.327	29.15
847.499	27.46
847.671	24.34
847.843	21.43
848.015	24.47
848.187	29.35
848.359	36.29
848.531	36.38
848.703	36.12
848.875	39.37
849.047	37.92
849.218	34.6
849.39	36.48
849.562	38.15
849.734	38.65
849.905	37.6
850.077	35.4
850.249	33.75
850.421	33.98
850.592	34.07
850.764	35.45
850.936	35.28
851.107	37.91
851.279	35.51
851.451	37.55
851.622	37.35
851.794	37.24
851.965	35.44
852.137	35.41
852.308	32.43
852.48	31.29
852.651	27.47
852.823	31.47
852.994	33.92
853.166	35.73
853.337	34.93
853.509	31.16
853.68	27.88
853.851	30.35
854.023	32.5
854.194	36.35
854.365	36.28
854.537	36.66
854.708	31.53
854.879	32.11
855.05	30.6
855.222	28.58
855.393	31.06
855.564	36.53
855.735	34.12
855.906	29.09
856.078	26.65
856.249	23.71
856.42	25.31
856.591	25.61
856.762	24.18
856.933	24.52
857.104	24.55
857.275	24.03
857.446	18.25
857.617	21.41
857.788	26.63
857.959	28.06
858.13	32.29
858.301	28.14
858.472	30.52
858.643	26.4
858.814	27.43
858.985	27.91
859.155	30.53
859.326	30.64
859.497	28.58
859.668	21.54
859.839	20.01
860.009	22.48
860.18	22.85
860.351	20.72
860.522	22.32
860.692	19.49
860.863	19.09
861.034	14.9
861.204	13.86
861.375	10.18
861.546	13.15
861.716	10.7
861.887	8.64
862.057	9.68
862.228	10.45
862.398	9.22
862.569	13.87
862.739	17.5
862.91	17.36
863.08	20.84
863.251	22.47
863.421	23.34
863.592	27.36
863.762	31.66
863.932	31.82
864.103	38.23
864.273	39.38
864.443	36.27
864.614	31.62
864.784	33.64
864.954	32.53
865.125	33.71
865.295	35.8
865.465	38.03
865.635	32.07
865.805	36.08
865.976	31.21
866.146	31.13
866.316	31.72
866.486	35.01
866.656	36.61
866.826	39.07
866.996	42.53
867.166	39.81
867.336	37.58
867.506	38.1
867.676	35.17
867.846	35.11
868.016	31.77
868.186	33.83
868.356	30.87
868.526	29.23
868.696	29.11
868.866	28.41
869.036	30.67
869.206	31.01
869.376	30.27
869.545	35.31
869.715	33.73
869.885	36.55
870.055	33.71
870.224	31.29
870.394	30.03
870.564	33.75
870.734	31.57
870.903	27.88
871.073	28.98
871.243	29
871.412	23.25
871.582	26.82
871.751	25.18
871.921	23.58
872.091	30.24
872.26	32.98
872.43	26.54
872.599	26.66
872.769	29.83
872.938	29.77
873.108	33.56
873.277	38.18
873.446	36.35
873.616	40.43
873.785	43.71
873.955	44.95
874.124	39.87
874.293	42.25
874.463	43.05
874.632	45.24
874.801	45.25
874.971	40.67
875.14	36.9
875.309	39.46
875.478	37
875.647	35.78
875.817	31.52
875.986	33.87
876.155	33.87
876.324	31.06
876.493	31.23
876.662	29.23
876.831	31.8
877	32.26
877.17	28.4
877.339	28.18
877.508	28.7
877.677	32.45
877.846	34.43
878.015	34.3
878.184	34.88
878.352	29.91
878.521	29.81
878.69	31.72
878.859	35.09
879.028	35.47
879.197	33.89
879.366	36.08
879.534	34.65
879.703	33.33
879.872	30.82
880.041	31.69
880.21	32.77
880.378	32.69
880.547	30.27
880.716	27.64
880.884	27.85
881.053	28.04
881.222	27.68
881.39	26.81
881.559	26.31
881.727	25.92
881.896	25.45
882.065	24.96
882.233	24.38
882.402	24.49
882.57	25
882.739	24.48
882.907	24.16
883.076	23.42
883.244	23.96
883.412	24.28
883.581	24.19
883.749	23.77
883.918	24.22
884.086	24.42
884.254	24.72
884.423	23.72
884.591	23.52
884.759	23.92
884.927	24.68
885.096	24.81
885.264	24.66
885.432	25.65
885.6	28.32
885.769	26.84
885.937	28.53
886.105	27.03
886.273	28.82
886.441	31.32
886.609	28.22
886.777	28.45
886.945	26.44
887.113	27.15
887.281	25.08
887.449	22.63
887.617	23.6
887.785	21.03
887.953	24.05
888.121	25.04
888.289	22.16
888.457	26.43
888.625	25.62
888.793	26.54
888.961	24.42
889.129	22.54
889.296	16.1
889.464	17.11
889.632	16.77
889.8	12.42
889.967	6.85
890.135	4.82
