Data from 2938808__Reflection_02.txt Node
Date: Thu Mar 12 21:53:38 EDT 2015
User: robert
Spectrometer: USB4E03002
Autoset integration time: false
Trigger mode: 4
Integration Time (sec): 1.000000E-1
Scans to average: 10
Electric dark correction enabled: false
Nonlinearity correction enabled: false
Boxcar width: 5
Stray light correction enabled: false
XAxis mode: Wavelengths
Stop averaging: false
Number of Pixels in Spectrum: 3648
>>>>>Begin Spectral Data<<<<<
177.575	533.87
177.794	418.43
178.014	484
178.233	500.53
178.452	429.61
178.672	427.27
178.891	454.36
179.11	434.74
179.33	417.91
179.549	398.8
179.768	416.27
179.987	448.48
180.207	476.28
180.426	485.42
180.645	465.17
180.864	555.94
181.084	577.78
181.303	521.34
181.522	541.65
181.741	665.64
181.96	623.69
182.179	671.99
182.398	613.26
182.618	605.32
182.837	613.15
183.056	600
183.275	620.18
183.494	671.22
183.713	658.14
183.932	637.66
184.151	629.22
184.37	643.74
184.589	686.67
184.808	751.06
185.027	1083.99
185.246	1089.14
185.465	1168.62
185.684	956.66
185.903	742.32
186.122	844.78
186.341	980.81
186.56	875.91
186.779	882.86
186.998	929.92
187.216	871.63
187.435	688.12
187.654	533.69
187.873	544.43
188.092	487.04
188.311	651.99
188.53	733.05
188.748	800.59
188.967	827.77
189.186	808.31
189.405	697.79
189.623	686.35
189.842	639.12
190.061	753.85
190.28	817.3
190.498	1326.75
190.717	1046.35
190.936	934.37
191.154	680.05
191.373	703.4
191.592	723.05
191.81	739.84
192.029	684.66
192.248	1056.43
192.466	870.96
192.685	878.83
192.904	734.71
193.122	665.34
193.341	558.23
193.559	621.25
193.778	552.84
193.996	512.33
194.215	472.77
194.433	485.83
194.652	423.52
194.87	485.45
195.089	504.69
195.307	473.34
195.526	456.34
195.744	518.53
195.963	572.3
196.181	566.76
196.399	545.37
196.618	585.35
196.836	667.32
197.055	626.71
197.273	551.29
197.491	459.02
197.71	439.5
197.928	387.52
198.146	375.36
198.365	358.86
198.583	366.73
198.801	398.02
199.019	404.74
199.238	379.57
199.456	366.47
199.674	353.04
199.892	408.14
200.111	485.24
200.329	548.32
200.547	500.43
200.765	476.2
200.983	490.46
201.202	506.35
201.42	488.57
201.638	518.78
201.856	634.06
202.074	756.22
202.292	707.27
202.51	591.08
202.728	608.67
202.946	628.17
203.165	653.78
203.383	700.38
203.601	645.09
203.819	623.03
204.037	595.12
204.255	569.56
204.473	534.01
204.691	475.2
204.909	488.77
205.127	537.61
205.345	522.61
205.562	521.44
205.78	448.24
205.998	417.51
206.216	402.21
206.434	433.24
206.652	426.93
206.87	425.55
207.088	485.49
207.306	464.41
207.523	410.79
207.741	424.76
207.959	420.2
208.177	411.08
208.395	434.6
208.612	466.69
208.83	450.9
209.048	422.6
209.266	435.62
209.483	409.32
209.701	418.63
209.919	519.84
210.136	464.31
210.354	535.54
210.572	570.17
210.79	525.11
211.007	471.99
211.225	411.9
211.442	393.21
211.66	405.66
211.878	419.66
212.095	367.33
212.313	331.93
212.53	370.61
212.748	328.5
212.966	327.99
213.183	340.1
213.401	341.87
213.618	340.92
213.836	354.44
214.053	325.2
214.271	321.39
214.488	387.14
214.705	363.07
214.923	318.19
215.14	334.38
215.358	362.98
215.575	380.33
215.793	380.71
216.01	431.77
216.227	473.46
216.445	501.72
216.662	481.6
216.879	485.17
217.097	543.39
217.314	681.64
217.531	579.81
217.749	563.26
217.966	495.32
218.183	478.63
218.4	451.31
218.618	387.92
218.835	356.87
219.052	359.27
219.269	331.32
219.487	321.54
219.704	315.08
219.921	303.87
220.138	264.81
220.355	261.5
220.572	262.16
220.79	242.57
221.007	254.45
221.224	254.67
221.441	242.99
221.658	245.4
221.875	228.14
222.092	218.12
222.309	225.04
222.526	230.89
222.743	226.51
222.96	225
223.177	225.43
223.394	211.95
223.611	201.82
223.828	204.54
224.045	195.01
224.262	188.47
224.479	180.89
224.696	165.23
224.913	151.81
225.13	141.4
225.347	130.91
225.564	120
225.781	111.44
225.997	103.39
226.214	95.92
226.431	87.03
226.648	80.89
226.865	73.07
227.082	65.23
227.298	58.53
227.515	52.31
227.732	47.43
227.949	43.21
228.165	39.78
228.382	36.78
228.599	33.66
228.816	32.32
229.032	30.95
229.249	29.84
229.466	29.45
229.682	29.22
229.899	29.72
230.116	30.08
230.332	31.2
230.549	31.88
230.765	32.88
230.982	34.87
231.199	36.61
231.415	39.95
231.632	42.49
231.848	45.2
232.065	48.66
232.281	51.58
232.498	52.56
232.714	52.93
232.931	56.08
233.147	56.26
233.364	55.56
233.58	55.38
233.797	53.69
234.013	52.58
234.23	52.31
234.446	50.42
234.662	49.1
234.879	48.93
235.095	47.53
235.312	45.7
235.528	46.53
235.744	47.34
235.961	48.06
236.177	48.95
236.393	50.9
236.61	50.21
236.826	50
237.042	51.76
237.258	52.92
237.475	55.46
237.691	56.46
237.907	56.73
238.123	56.56
238.339	56.5
238.556	56.7
238.772	54.12
238.988	53.25
239.204	51.58
239.42	49.05
239.636	45.97
239.853	43.51
240.069	40.92
240.285	39.35
240.501	36.93
240.717	33.52
240.933	30.79
241.149	29.94
241.365	28.16
241.581	27.36
241.797	25.76
242.013	24.24
242.229	23.5
242.445	22.91
242.661	22.07
242.877	22.09
243.093	22.56
243.309	22.93
243.525	22.69
243.741	23.29
243.957	23.88
244.173	24.46
244.388	26.14
244.604	26.36
244.82	26.91
245.036	26.34
245.252	25.25
245.468	24.04
245.683	22.39
245.899	21.14
246.115	19.94
246.331	18.41
246.547	17.57
246.762	16.64
246.978	15.92
247.194	15.41
247.409	14.98
247.625	14.82
247.841	14.77
248.057	15.19
248.272	15.65
248.488	15.93
248.703	16.59
248.919	17.08
249.135	17.81
249.35	18.89
249.566	19.96
249.782	21.4
249.997	22.65
250.213	23.79
250.428	23.98
250.644	24.59
250.859	26.11
251.075	25.48
251.29	25.97
251.506	26.14
251.721	25.65
251.937	25.65
252.152	25.2
252.368	24.34
252.583	24.45
252.798	24.71
253.014	25.04
253.229	24.02
253.445	26.15
253.66	26.99
253.875	27.67
254.091	28.91
254.306	29.47
254.521	30.74
254.737	32.53
254.952	32.09
255.167	32.6
255.383	32.81
255.598	34.09
255.813	31.51
256.028	30.47
256.244	29.8
256.459	30.17
256.674	29.69
256.889	28.39
257.104	27.05
257.32	26.38
257.535	24.89
257.75	23.05
257.965	21.4
258.18	20.19
258.395	18.94
258.61	17.4
258.826	15.57
259.041	14.27
259.256	13.92
259.471	13.61
259.686	13.25
259.901	12.9
260.116	12.8
260.331	12.55
260.546	12.68
260.761	12.68
260.976	13.05
261.191	13.72
261.406	14.4
261.621	14.98
261.836	15.41
262.05	15.95
262.265	17.01
262.48	17.69
262.695	18.7
262.91	20.12
263.125	20.73
263.34	21.17
263.555	22.2
263.769	22.63
263.984	22.6
264.199	23.42
264.414	24.08
264.629	23.95
264.843	23.95
265.058	23.62
265.273	22.56
265.488	22.21
265.702	21.75
265.917	20.74
266.132	20.36
266.346	20.08
266.561	19.63
266.776	18.72
266.99	18.56
267.205	18.34
267.42	18.1
267.634	18.2
267.849	18.11
268.063	17.93
268.278	17.76
268.492	17.75
268.707	17.92
268.922	17.93
269.136	18.46
269.351	18.8
269.565	18.38
269.78	18.08
269.994	17.92
270.209	18.26
270.423	18.27
270.637	17.76
270.852	17.64
271.066	17.27
271.281	16.5
271.495	16.08
271.709	15.28
271.924	15.21
272.138	15.42
272.353	14.82
272.567	14.47
272.781	14.64
272.996	14.82
273.21	14.92
273.424	14.67
273.638	15.24
273.853	15.37
274.067	16.03
274.281	16.59
274.495	16.56
274.71	17.46
274.924	17.52
275.138	17.47
275.352	17.55
275.566	17.51
275.781	17.89
275.995	17.37
276.209	17.88
276.423	17.28
276.637	17.24
276.851	17.32
277.065	16.94
277.279	17.15
277.493	17.31
277.707	17.88
277.921	18.41
278.135	18.45
278.349	18.83
278.563	18.21
278.777	18.52
278.991	18.5
279.205	18.28
279.419	18.48
279.633	18.5
279.847	18.04
280.061	17.62
280.275	16.98
280.489	16.7
280.703	16.51
280.917	16
281.131	15.89
281.344	15.72
281.558	15.74
281.772	15.63
281.986	14.82
282.2	15.11
282.414	14.97
282.627	14.97
282.841	14.91
283.055	14.85
283.269	14.93
283.482	14.67
283.696	14.26
283.91	13.99
284.123	13.51
284.337	13.85
284.551	13.54
284.764	13.22
284.978	12.77
285.192	12.32
285.405	12.37
285.619	12.26
285.833	12.29
286.046	12.32
286.26	12.28
286.473	12.27
286.687	12.18
286.9	12.03
287.114	12.28
287.327	12.62
287.541	13.14
287.754	13.07
287.968	13.28
288.181	13.63
288.395	13.7
288.608	13.92
288.822	14.05
289.035	14.44
289.248	14.56
289.462	14.35
289.675	14.42
289.889	14.38
290.102	14.23
290.315	14.41
290.529	14.31
290.742	14.37
290.955	14.45
291.169	14.63
291.382	14.39
291.595	14.68
291.808	15
292.022	15.25
292.235	15.5
292.448	15.67
292.661	15.58
292.875	15.51
293.088	15.62
293.301	15.6
293.514	15.64
293.727	15.78
293.94	15.54
294.153	15.39
294.367	14.95
294.58	14.58
294.793	14.25
295.006	14.25
295.219	14.34
295.432	14.17
295.645	13.98
295.858	13.76
296.071	13.49
296.284	13.19
296.497	12.75
296.71	12.62
296.923	12.47
297.136	12.5
297.349	12.4
297.562	11.98
297.775	12.16
297.988	12.13
298.201	12.2
298.414	12.47
298.626	13
298.839	13.65
299.052	14.12
299.265	14.58
299.478	14.86
299.691	14.92
299.903	15.36
300.116	15.23
300.329	15.41
300.542	15.51
300.755	15.64
300.967	15.37
301.18	15.43
301.393	15.3
301.605	15.38
301.818	15.55
302.031	16.03
302.243	16.36
302.456	16.66
302.669	16.82
302.881	17.41
303.094	17.35
303.307	17.37
303.519	17.2
303.732	17.21
303.944	16.93
304.157	17.32
304.37	17.19
304.582	16.97
304.795	17.09
305.007	17.35
305.22	17.11
305.432	17.1
305.645	17.37
305.857	17.41
306.069	17.67
306.282	17.84
306.494	17.51
306.707	17.56
306.919	17.41
307.132	17.11
307.344	16.78
307.556	16.72
307.769	16.79
307.981	16.63
308.193	16.53
308.406	16.1
308.618	16.06
308.83	15.99
309.043	15.82
309.255	15.83
309.467	16.01
309.679	15.95
309.892	15.56
310.104	15.22
310.316	14.98
310.528	14.91
310.74	14.97
310.953	14.98
311.165	14.96
311.377	14.76
311.589	14.76
311.801	14.62
312.013	14.92
312.225	15.13
312.437	15.67
312.649	16.15
312.862	16.59
313.074	16.84
313.286	17.07
313.498	17.41
313.71	18.13
313.922	18.5
314.134	18.63
314.346	18.75
314.558	18.99
314.77	18.62
314.982	18.74
315.193	18.56
315.405	18.74
315.617	18.75
315.829	18.67
316.041	18.41
316.253	18.48
316.465	18.81
316.677	18.9
316.888	19.09
317.1	19.37
317.312	19.62
317.524	19.87
317.736	20.14
317.947	20.45
318.159	20.63
318.371	20.85
318.583	21.01
318.794	20.9
319.006	20.62
319.218	20.55
319.43	20.65
319.641	20.31
319.853	20.15
320.064	20.57
320.276	20.37
320.488	20.8
320.699	20.96
320.911	21.06
321.123	21.51
321.334	22.06
321.546	22.13
321.757	22.52
321.969	22.83
322.18	22.98
322.392	22.38
322.603	22.8
322.815	22.42
323.026	22.52
323.238	22.38
323.449	21.79
323.661	21.52
323.872	21.93
324.083	21.72
324.295	21.87
324.506	22.02
324.718	22.01
324.929	21.68
325.14	21.67
325.352	21.98
325.563	22.15
325.774	22.44
325.986	22.71
326.197	22.64
326.408	22.54
326.62	22.59
326.831	22.74
327.042	23.06
327.253	23.54
327.464	24.02
327.676	23.99
327.887	24.69
328.098	25.05
328.309	25.51
328.52	26.34
328.732	27.03
328.943	27.75
329.154	28.03
329.365	28.25
329.576	28.48
329.787	28.71
329.998	29.17
330.209	29.23
330.42	30.13
330.631	30.31
330.842	30.55
331.053	30.79
331.264	30.87
331.475	31.24
331.686	31.87
331.897	32.34
332.108	32.74
332.319	32.93
332.53	32.97
332.741	32.68
332.952	32.84
333.163	32.39
333.374	32.51
333.585	32.52
333.795	32.89
334.006	33.07
334.217	33.1
334.428	32.94
334.639	33.38
334.849	33.57
335.06	33.7
335.271	33.97
335.482	34.15
335.692	34.52
335.903	34.64
336.114	34.41
336.325	34.4
336.535	34.59
336.746	34.95
336.957	34.58
337.167	34.99
337.378	34.97
337.589	35.23
337.799	35.45
338.01	35.39
338.22	35.3
338.431	35.71
338.642	35.66
338.852	35.24
339.063	34.96
339.273	35.25
339.484	35.02
339.694	35.06
339.905	34.89
340.115	35.15
340.326	35.09
340.536	35.12
340.746	34.76
340.957	34.74
341.167	35.4
341.378	35.43
341.588	35.36
341.799	35.43
342.009	35.83
342.219	35.7
342.43	35.37
342.64	35.35
342.85	35.32
343.061	35.26
343.271	35.1
343.481	34.71
343.691	34.62
343.902	34.29
344.112	34.04
344.322	33.86
344.532	34.05
344.743	33.79
344.953	33.77
345.163	33.7
345.373	33.87
345.583	33.89
345.793	33.75
346.004	33.89
346.214	33.92
346.424	34.07
346.634	34
346.844	33.73
347.054	33.85
347.264	33.87
347.474	34.13
347.684	34.35
347.894	34.43
348.104	34.53
348.314	34.46
348.524	34.61
348.734	34.83
348.944	34.7
349.154	34.62
349.364	34.67
349.574	34.43
349.784	34.18
349.994	33.78
350.204	33.52
350.413	33.41
350.623	33.41
350.833	33.36
351.043	32.95
351.253	33.05
351.463	32.97
351.672	32.89
351.882	32.85
352.092	32.59
352.302	32.59
352.511	32.99
352.721	33.12
352.931	33.27
353.141	33.33
353.35	33.42
353.56	33.12
353.77	32.97
353.979	33.06
354.189	33
354.399	33.15
354.608	33.15
354.818	32.82
355.027	32.64
355.237	32.51
355.447	32.29
355.656	32.21
355.866	32.17
356.075	32.19
356.285	32.01
356.494	32.13
356.704	32.14
356.913	31.94
357.123	32.14
357.332	32.12
357.542	31.73
357.751	31.65
357.96	31.65
358.17	31.48
358.379	31.31
358.589	31.29
358.798	31.15
359.007	30.84
359.217	30.83
359.426	30.63
359.635	30.6
359.845	30.64
360.054	30.51
360.263	30.17
360.472	30.21
360.682	30.34
360.891	30.22
361.1	30.1
361.309	30.19
361.519	30.06
361.728	29.99
361.937	30.02
362.146	30.05
362.355	30.13
362.564	30.27
362.774	30.17
362.983	29.99
363.192	30.12
363.401	30.26
363.61	30.11
363.819	30.29
364.028	30.29
364.237	30.24
364.446	30.28
364.655	30.18
364.864	30.23
365.073	30.39
365.282	30.57
365.491	30.47
365.7	30.34
365.909	30.53
366.118	30.49
366.327	30.48
366.536	30.32
366.745	30.46
366.954	30.61
367.162	30.66
367.371	30.66
367.58	30.61
367.789	30.74
367.998	30.92
368.207	31.11
368.415	31.19
368.624	31.35
368.833	31.36
369.042	31.25
369.25	31.43
369.459	31.41
369.668	31.13
369.877	31.19
370.085	30.95
370.294	30.99
370.503	30.64
370.711	30.53
370.92	30.43
371.129	30.43
371.337	30.34
371.546	30.17
371.754	29.82
371.963	30.06
372.171	29.81
372.38	29.88
372.589	29.74
372.797	29.82
373.006	29.94
373.214	29.64
373.423	29.63
373.631	29.72
373.84	29.57
374.048	29.67
374.256	29.54
374.465	29.68
374.673	29.67
374.882	29.65
375.09	29.57
375.298	29.2
375.507	29.36
375.715	29.44
375.923	29.43
376.132	29.44
376.34	29.44
376.548	29.48
376.757	29.34
376.965	29.16
377.173	29.02
377.381	29.27
377.59	29.44
377.798	29.25
378.006	28.99
378.214	28.98
378.423	28.98
378.631	28.9
378.839	28.71
379.047	28.71
379.255	28.81
379.463	28.78
379.671	28.48
379.879	28.39
380.088	28.59
380.296	28.88
380.504	28.61
380.712	28.7
380.92	28.71
381.128	28.84
381.336	28.76
381.544	28.82
381.752	28.87
381.96	28.78
382.168	28.79
382.376	28.55
382.584	28.25
382.791	28.42
382.999	28.39
383.207	28.62
383.415	28.55
383.623	28.64
383.831	28.49
384.039	28.4
384.247	28.56
384.454	28.37
384.662	28.47
384.87	28.51
385.078	28.45
385.285	28.24
385.493	27.92
385.701	27.84
385.909	27.71
386.116	27.77
386.324	27.71
386.532	27.59
386.739	27.69
386.947	27.61
387.155	27.71
387.362	27.57
387.57	27.59
387.778	27.65
387.985	27.61
388.193	27.68
388.4	27.63
388.608	27.84
388.816	27.85
389.023	27.85
389.231	27.92
389.438	27.82
389.646	27.76
389.853	27.75
390.061	27.78
390.268	27.82
390.475	27.72
390.683	27.68
390.89	27.57
391.098	27.51
391.305	27.48
391.512	27.27
391.72	27.12
391.927	27.09
392.135	26.91
392.342	26.69
392.549	26.57
392.756	26.43
392.964	26.25
393.171	26.21
393.378	26.08
393.586	25.93
393.793	25.91
394	25.88
394.207	25.94
394.414	26.06
394.622	26.08
394.829	26.2
395.036	26.15
395.243	26.33
395.45	26.15
395.657	26.35
395.864	26.59
396.072	26.68
396.279	26.72
396.486	26.6
396.693	26.7
396.9	26.74
397.107	26.66
397.314	26.87
397.521	26.91
397.728	26.99
397.935	26.93
398.142	26.74
398.349	26.8
398.556	26.67
398.763	26.76
398.97	26.61
399.177	26.69
399.383	26.78
399.59	26.7
399.797	26.64
400.004	26.8
400.211	26.77
400.418	26.86
400.625	26.8
400.831	27.02
401.038	27.02
401.245	27.17
401.452	27.14
401.658	26.94
401.865	27.01
402.072	27.06
402.279	26.95
402.485	26.66
402.692	26.51
402.899	26.55
403.105	26.28
403.312	26.2
403.519	26
403.725	25.85
403.932	25.86
404.138	25.63
404.345	25.42
404.552	25.38
404.758	25.49
404.965	25.55
405.171	25.58
405.378	25.87
405.584	25.88
405.791	25.83
405.997	25.98
406.204	26.19
406.41	26.36
406.617	26.44
406.823	26.59
407.029	26.59
407.236	26.75
407.442	26.7
407.649	26.73
407.855	26.67
408.061	26.83
408.268	26.85
408.474	26.59
408.68	26.47
408.887	26.57
409.093	26.4
409.299	26.5
409.505	26.26
409.712	26.13
409.918	25.91
410.124	25.84
410.33	25.87
410.537	25.81
410.743	25.88
410.949	26.04
411.155	26.04
411.361	25.92
411.567	25.98
411.773	26.14
411.98	26.29
412.186	26.31
412.392	26.58
412.598	26.47
412.804	26.41
413.01	26.41
413.216	26.28
413.422	26.41
413.628	26.5
413.834	26.42
414.04	26.36
414.246	26.3
414.452	26.38
414.658	26.25
414.864	26.31
415.07	26.35
415.275	26.33
415.481	26.25
415.687	26.01
415.893	25.97
416.099	25.77
416.305	25.59
416.511	25.55
416.716	25.4
416.922	25.36
417.128	25.33
417.334	25.35
417.539	25.2
417.745	25.17
417.951	25.14
418.157	25.07
418.362	25.11
418.568	25.09
418.774	25.05
418.979	24.99
419.185	24.88
419.391	24.76
419.596	24.57
419.802	24.57
420.008	24.51
420.213	24.85
420.419	24.82
420.624	24.76
420.83	24.74
421.035	24.67
421.241	24.69
421.446	24.72
421.652	24.76
421.857	24.83
422.063	24.87
422.268	24.93
422.474	24.6
422.679	24.65
422.885	24.63
423.09	24.58
423.295	24.56
423.501	24.53
423.706	24.51
423.911	24.42
424.117	24.45
424.322	24.43
424.527	24.36
424.733	24.33
424.938	24.24
425.143	24.23
425.349	24.22
425.554	24.22
425.759	24.2
425.964	24.22
426.169	24.31
426.375	24.29
426.58	24.34
426.785	24.44
426.99	24.5
427.195	24.63
427.4	24.72
427.605	24.97
427.811	25.09
428.016	25.23
428.221	25.32
428.426	25.29
428.631	25.36
428.836	25.39
429.041	25.46
429.246	25.53
429.451	25.55
429.656	25.58
429.861	25.53
430.066	25.6
430.271	25.56
430.476	25.43
430.681	25.59
430.886	25.48
431.09	25.49
431.295	25.46
431.5	25.48
431.705	25.45
431.91	25.49
432.115	25.46
432.32	25.37
432.524	25.37
432.729	25.43
432.934	25.31
433.139	25.37
433.343	25.33
433.548	25.31
433.753	25.3
433.958	25.28
434.162	25.28
434.367	25.31
434.572	25.34
434.776	25.42
434.981	25.35
435.186	25.35
435.39	25.36
435.595	25.37
435.799	25.28
436.004	25.29
436.209	25.31
436.413	25.33
436.618	25.32
436.822	25.27
437.027	25.24
437.231	25.3
437.436	25.31
437.64	25.27
437.845	25.24
438.049	25.3
438.253	25.29
438.458	25.36
438.662	25.19
438.867	25.24
439.071	25.3
439.275	25.19
439.48	25.25
439.684	25.24
439.888	25.25
440.093	25.21
440.297	25.27
440.501	25.25
440.706	25.09
440.91	25.19
441.114	25.06
441.318	25.04
441.523	25.1
441.727	25.03
441.931	25.02
442.135	24.94
442.339	25.07
442.543	25.13
442.748	25.07
442.952	25.16
443.156	25.11
443.36	25.2
443.564	25.13
443.768	25.15
443.972	25.19
444.176	25.23
444.38	25.26
444.584	25.18
444.788	25.05
444.992	25.03
445.196	25.03
445.4	24.93
445.604	24.91
445.808	24.92
446.012	24.89
446.216	24.8
446.42	24.77
446.624	24.83
446.828	24.75
447.032	24.71
447.235	24.69
447.439	24.6
447.643	24.71
447.847	24.78
448.051	24.79
448.254	24.81
448.458	24.92
448.662	24.92
448.866	24.87
449.069	24.98
449.273	25.06
449.477	25.13
449.681	25.3
449.884	25.37
450.088	25.31
450.292	25.33
450.495	25.37
450.699	25.4
450.902	25.53
451.106	25.64
451.31	25.73
451.513	25.69
451.717	25.65
451.92	25.52
452.124	25.47
452.327	25.47
452.531	25.45
452.734	25.36
452.938	25.26
453.141	25.27
453.345	25.24
453.548	25.19
453.752	25.27
453.955	25.28
454.158	25.47
454.362	25.5
454.565	25.63
454.769	25.71
454.972	25.97
455.175	26.04
455.379	26.03
455.582	25.99
455.785	25.96
455.988	26.02
456.192	26.1
456.395	26.1
456.598	26.09
456.801	26.09
457.005	26.01
457.208	25.8
457.411	25.81
457.614	25.65
457.817	25.54
458.021	25.42
458.224	25.23
458.427	25.04
458.63	24.94
458.833	24.87
459.036	24.64
459.239	24.58
459.442	24.56
459.645	24.58
459.848	24.53
460.051	24.55
460.254	24.57
460.457	24.6
460.66	24.76
460.863	24.72
461.066	24.76
461.269	24.82
461.472	24.87
461.675	24.86
461.878	24.86
462.081	25.05
462.284	25.21
462.486	25.25
462.689	25.41
462.892	25.3
463.095	25.4
463.298	25.42
463.5	25.51
463.703	25.56
463.906	25.65
464.109	25.59
464.311	25.61
464.514	25.51
464.717	25.53
464.92	25.51
465.122	25.49
465.325	25.55
465.528	25.61
465.73	25.7
465.933	25.73
466.135	25.68
466.338	25.71
466.541	25.67
466.743	25.67
466.946	25.68
467.148	25.63
467.351	25.67
467.553	25.64
467.756	25.59
467.958	25.56
468.161	25.49
468.363	25.53
468.566	25.48
468.768	25.46
468.971	25.44
469.173	25.45
469.375	25.48
469.578	25.42
469.78	25.41
469.983	25.5
470.185	25.41
470.387	25.44
470.59	25.48
470.792	25.63
470.994	25.55
471.196	25.56
471.399	25.7
471.601	25.63
471.803	25.74
472.005	25.71
472.208	25.56
472.41	25.59
472.612	25.59
472.814	25.55
473.016	25.5
473.218	25.57
473.421	25.61
473.623	25.46
473.825	25.51
474.027	25.51
474.229	25.62
474.431	25.78
474.633	25.75
474.835	25.79
475.037	25.81
475.239	25.76
475.441	25.73
475.643	25.68
475.845	25.61
476.047	25.6
476.249	25.69
476.451	25.55
476.653	25.54
476.855	25.5
477.057	25.46
477.258	25.37
477.46	25.33
477.662	25.29
477.864	25.28
478.066	25.36
478.268	25.32
478.469	25.25
478.671	25.26
478.873	25.15
479.075	25.17
479.276	25.09
479.478	25.14
479.68	25.06
479.882	25.04
480.083	24.99
480.285	24.9
480.487	24.78
480.688	24.67
480.89	24.64
481.091	24.55
481.293	24.52
481.495	24.44
481.696	24.38
481.898	24.34
482.099	24.2
482.301	24.11
482.502	24.01
482.704	23.93
482.905	23.84
483.107	23.76
483.308	23.69
483.51	23.64
483.711	23.65
483.913	23.57
484.114	23.53
484.315	23.47
484.517	23.46
484.718	23.45
484.92	23.49
485.121	23.5
485.322	23.51
485.524	23.55
485.725	23.56
485.926	23.53
486.127	23.54
486.329	23.64
486.53	23.7
486.731	23.69
486.932	23.72
487.134	23.69
487.335	23.69
487.536	23.68
487.737	23.66
487.938	23.65
488.139	23.69
488.341	23.68
488.542	23.6
488.743	23.63
488.944	23.66
489.145	23.66
489.346	23.71
489.547	23.72
489.748	23.72
489.949	23.77
490.15	23.83
490.351	23.84
490.552	23.89
490.753	23.91
490.954	23.96
491.155	23.98
491.356	23.97
491.557	23.97
491.758	24
491.959	24.03
492.159	24.1
492.36	24.07
492.561	24.07
492.762	24.14
492.963	24.17
493.164	24.17
493.364	24.2
493.565	24.27
493.766	24.3
493.967	24.32
494.167	24.36
494.368	24.36
494.569	24.45
494.769	24.53
494.97	24.55
495.171	24.57
495.371	24.57
495.572	24.6
495.773	24.63
495.973	24.79
496.174	24.84
496.375	24.9
496.575	24.87
496.776	24.95
496.976	24.93
497.177	24.92
497.377	24.96
497.578	25.06
497.778	25.07
497.979	25.07
498.179	24.98
498.38	25.02
498.58	25.02
498.78	25.03
498.981	25.01
499.181	25.07
499.382	25.13
499.582	25.18
499.782	25.23
499.983	25.21
500.183	25.22
500.383	25.37
500.584	25.45
500.784	25.51
500.984	25.6
501.184	25.63
501.385	25.75
501.585	25.8
501.785	25.81
501.985	25.78
502.185	25.87
502.386	25.92
502.586	25.94
502.786	25.97
502.986	25.99
503.186	26
503.386	26
503.586	26.07
503.786	26.08
503.987	26.17
504.187	26.18
504.387	26.17
504.587	26.31
504.787	26.31
504.987	26.3
505.187	26.35
505.387	26.41
505.587	26.43
505.786	26.36
505.986	26.44
506.186	26.38
506.386	26.47
506.586	26.49
506.786	26.42
506.986	26.36
507.186	26.3
507.386	26.31
507.585	26.36
507.785	26.38
507.985	26.33
508.185	26.26
508.384	26.34
508.584	26.28
508.784	26.32
508.984	26.39
509.183	26.49
509.383	26.56
509.583	26.59
509.782	26.59
509.982	26.65
510.182	26.79
510.381	26.83
510.581	26.86
510.781	26.91
510.98	26.99
511.18	26.95
511.379	26.97
511.579	27.04
511.778	27.12
511.978	27.09
512.177	27.19
512.377	27.16
512.576	27.21
512.776	27.25
512.975	27.24
513.175	27.24
513.374	27.28
513.573	27.34
513.773	27.33
513.972	27.32
514.172	27.36
514.371	27.36
514.57	27.37
514.77	27.41
514.969	27.38
515.168	27.52
515.367	27.54
515.567	27.6
515.766	27.6
515.965	27.7
516.164	27.78
516.364	27.78
516.563	27.78
516.762	27.74
516.961	27.75
517.16	27.81
517.359	27.76
517.559	27.77
517.758	27.8
517.957	27.8
518.156	27.77
518.355	27.7
518.554	27.76
518.753	27.71
518.952	27.74
519.151	27.79
519.35	27.82
519.549	27.87
519.748	27.88
519.947	27.92
520.146	27.92
520.345	28.02
520.544	28.13
520.743	28.12
520.942	28.21
521.141	28.25
521.339	28.34
521.538	28.39
521.737	28.44
521.936	28.6
522.135	28.62
522.333	28.7
522.532	28.67
522.731	28.65
522.93	28.79
523.129	28.85
523.327	29.03
523.526	29
523.725	28.98
523.923	28.98
524.122	28.97
524.321	28.97
524.519	28.92
524.718	28.93
524.917	28.97
525.115	28.93
525.314	28.95
525.512	28.88
525.711	28.84
525.909	28.85
526.108	28.82
526.306	28.82
526.505	28.78
526.703	28.76
526.902	28.73
527.1	28.73
527.299	28.71
527.497	28.67
527.696	28.63
527.894	28.64
528.092	28.6
528.291	28.63
528.489	28.58
528.688	28.57
528.886	28.6
529.084	28.59
529.283	28.59
529.481	28.61
529.679	28.62
529.877	28.71
530.076	28.75
530.274	28.8
530.472	28.87
530.67	28.99
530.869	29.09
531.067	29.12
531.265	29.22
531.463	29.27
531.661	29.35
531.859	29.43
532.057	29.38
532.255	29.42
532.454	29.48
532.652	29.43
532.85	29.44
533.048	29.45
533.246	29.49
533.444	29.5
533.642	29.51
533.84	29.52
534.038	29.54
534.236	29.59
534.434	29.62
534.632	29.64
534.83	29.72
535.027	29.73
535.225	29.79
535.423	29.79
535.621	29.84
535.819	29.91
536.017	29.86
536.215	29.86
536.412	29.93
536.61	29.97
536.808	29.99
537.006	30.01
537.203	30.07
537.401	30.18
537.599	30.28
537.797	30.34
537.994	30.34
538.192	30.43
538.39	30.58
538.587	30.64
538.785	30.74
538.983	30.8
539.18	30.88
539.378	30.94
539.575	30.91
539.773	30.85
539.97	30.87
540.168	30.9
540.366	30.92
540.563	30.86
540.761	30.87
540.958	30.82
541.155	30.82
541.353	30.79
541.55	30.74
541.748	30.75
541.945	30.81
542.143	30.85
542.34	30.86
542.537	30.93
542.735	31.01
542.932	31.05
543.129	31.12
543.327	31.19
543.524	31.32
543.721	31.46
543.919	31.61
544.116	31.77
544.313	31.95
544.51	32.07
544.708	32.13
544.905	32.19
545.102	32.35
545.299	32.41
545.496	32.55
545.693	32.47
545.891	32.56
546.088	32.5
546.285	32.44
546.482	32.31
546.679	32.32
546.876	32.3
547.073	32.39
547.27	32.32
547.467	32.3
547.664	32.26
547.861	32.4
548.058	32.35
548.255	32.45
548.452	32.59
548.649	32.7
548.846	32.79
549.043	32.97
549.24	32.89
549.437	32.81
549.633	32.9
549.83	33
550.027	33.09
550.224	33.15
550.421	33.05
550.618	32.95
550.814	32.94
551.011	32.93
551.208	32.86
551.405	32.92
551.601	33.06
551.798	33.08
551.995	32.89
552.191	32.75
552.388	32.68
552.585	32.75
552.781	32.82
552.978	32.83
553.175	32.85
553.371	32.88
553.568	32.86
553.764	32.88
553.961	32.87
554.157	33.08
554.354	33.13
554.55	33.23
554.747	33.22
554.943	33.2
555.14	33.19
555.336	33.17
555.533	33.24
555.729	33.29
555.926	33.32
556.122	33.49
556.318	33.35
556.515	33.44
556.711	33.48
556.907	33.57
557.104	33.62
557.3	33.69
557.496	33.65
557.693	33.63
557.889	33.74
558.085	33.59
558.281	33.51
558.478	33.6
558.674	33.61
558.87	33.59
559.066	33.6
559.262	33.53
559.459	33.42
559.655	33.52
559.851	33.45
560.047	33.49
560.243	33.7
560.439	33.67
560.635	33.79
560.831	33.84
561.027	33.85
561.223	33.84
561.419	33.88
561.615	34.02
561.811	34.03
562.007	34.11
562.203	34.11
562.399	33.97
562.595	34.08
562.791	33.96
562.987	33.86
563.183	33.85
563.379	33.81
563.575	33.82
563.771	33.8
563.966	33.78
564.162	33.76
564.358	33.8
564.554	33.83
564.75	33.77
564.945	33.91
565.141	33.91
565.337	33.93
565.533	33.82
565.728	33.78
565.924	33.76
566.12	33.75
566.315	33.71
566.511	33.53
566.707	33.6
566.902	33.57
567.098	33.47
567.293	33.58
567.489	33.62
567.684	33.81
567.88	33.84
568.076	33.94
568.271	33.96
568.467	34.07
568.662	34.12
568.858	34.1
569.053	34.12
569.248	34.17
569.444	34.14
569.639	34.13
569.835	34.08
570.03	34.08
570.225	33.98
570.421	33.98
570.616	33.99
570.812	34.07
571.007	34
571.202	34.01
571.397	34.02
571.593	33.95
571.788	33.97
571.983	33.97
572.178	34.03
572.374	34.08
572.569	34.11
572.764	34.12
572.959	34.15
573.154	34.17
573.35	34.19
573.545	34.13
573.74	34.14
573.935	34.12
574.13	34.18
574.325	34.15
574.52	34.09
574.715	34.08
574.91	34.02
575.105	34.03
575.3	34.06
575.495	34.23
575.69	34.29
575.885	34.49
576.08	34.43
576.275	34.51
576.47	34.62
576.665	34.71
576.86	34.67
577.055	34.66
577.25	34.68
577.444	34.82
577.639	34.82
577.834	34.95
578.029	34.94
578.224	35.08
578.418	35.05
578.613	35.16
578.808	35.27
579.003	35.5
579.197	35.63
579.392	35.64
579.587	35.73
579.781	35.78
579.976	35.81
580.171	35.75
580.365	35.79
580.56	35.85
580.755	35.71
580.949	35.64
581.144	35.61
581.338	35.78
581.533	35.97
581.727	35.97
581.922	35.86
582.116	35.86
582.311	35.83
582.505	35.83
582.7	35.83
582.894	35.86
583.089	36
583.283	36.15
583.478	36.15
583.672	36.11
583.866	36.03
584.061	36.09
584.255	36.19
584.449	36.14
584.644	36.31
584.838	36.39
585.032	36.44
585.226	36.64
585.421	36.59
585.615	36.53
585.809	36.48
586.003	36.61
586.198	36.67
586.392	36.61
586.586	36.71
586.78	36.61
586.974	36.69
587.168	36.73
587.363	36.55
587.557	36.6
587.751	36.6
587.945	36.49
588.139	36.53
588.333	36.44
588.527	36.41
588.721	36.43
588.915	36.55
589.109	36.25
589.303	36.2
589.497	36.14
589.691	36.05
589.885	36.1
590.079	36.23
590.273	36.21
590.466	36.29
590.66	36.39
590.854	36.49
591.048	36.51
591.242	36.73
591.436	36.77
591.629	36.8
591.823	36.89
592.017	36.98
592.211	37.06
592.404	37.03
592.598	37.05
592.792	37.01
592.986	36.96
593.179	36.96
593.373	36.84
593.567	36.9
593.76	36.96
593.954	36.92
594.147	36.85
594.341	36.7
594.535	36.66
594.728	36.62
594.922	36.46
595.115	36.36
595.309	36.15
595.502	36.14
595.696	35.94
595.889	35.94
596.083	35.84
596.276	35.84
596.47	35.72
596.663	35.74
596.856	35.79
597.05	35.93
597.243	36.02
597.437	36.2
597.63	36.32
597.823	36.53
598.017	36.53
598.21	36.67
598.403	36.66
598.596	36.91
598.79	36.98
598.983	37.1
599.176	37.17
599.369	37.25
599.563	37.25
599.756	37.25
599.949	37.35
600.142	37.26
600.335	37.28
600.528	37.38
600.722	37.41
600.915	37.41
601.108	37.33
601.301	37.19
601.494	37.18
601.687	37.17
601.88	37.3
602.073	37.04
602.266	37.15
602.459	36.97
602.652	36.95
602.845	37.06
603.038	36.93
603.231	36.84
603.424	36.79
603.617	36.66
603.809	36.62
604.002	36.43
604.195	36.45
604.388	36.44
604.581	36.53
604.774	36.56
604.966	36.48
605.159	36.45
605.352	36.52
605.545	36.64
605.737	36.73
605.93	36.84
606.123	36.93
606.316	37.14
606.508	37.3
606.701	37.47
606.894	37.42
607.086	37.59
607.279	37.85
607.471	37.87
607.664	37.92
607.857	38.15
608.049	38.27
608.242	38.46
608.434	38.71
608.627	39.08
608.819	39.42
609.012	39.93
609.204	40.5
609.397	41.17
609.589	41.89
609.782	42.69
609.974	43.51
610.166	44.44
610.359	45.42
610.551	46.14
610.743	46.85
610.936	47.56
611.128	48.05
611.32	48.32
611.513	48.57
611.705	48.68
611.897	48.78
612.09	48.58
612.282	48.19
612.474	47.77
612.666	47.67
612.858	47.43
613.051	47.17
613.243	46.87
613.435	46.57
613.627	46.03
613.819	45.85
614.011	45.75
614.203	45.56
614.395	45.43
614.588	45
614.78	44.57
614.972	44.15
615.164	43.66
615.356	43.5
615.548	43.15
615.74	42.98
615.932	42.72
616.124	41.93
616.315	41.67
616.507	41.4
616.699	41.4
616.891	41.21
617.083	40.88
617.275	40.55
617.467	40.33
617.659	40.24
617.85	40.29
618.042	40.17
618.234	40.49
618.426	40.43
618.618	40.47
618.809	40.34
619.001	40.3
619.193	40.46
619.384	40.39
619.576	40.37
619.768	40.47
619.959	40.34
620.151	40.34
620.343	40.21
620.534	40.13
620.726	39.97
620.917	40.04
621.109	40.03
621.301	39.84
621.492	39.9
621.684	39.94
621.875	39.9
622.067	39.85
622.258	39.77
622.45	39.78
622.641	39.82
622.832	39.84
623.024	39.93
623.215	39.88
623.407	40.06
623.598	40.31
623.789	40.34
623.981	40.13
624.172	40.32
624.363	40.31
624.555	40.41
624.746	40.31
624.937	40.19
625.129	40.05
625.32	40.05
625.511	39.79
625.702	39.72
625.893	39.58
626.085	39.69
626.276	39.54
626.467	39.47
626.658	39.19
626.849	39.16
627.04	39.24
627.231	39.09
627.422	39.01
627.614	39.17
627.805	39.12
627.996	39.24
628.187	39.26
628.378	39.41
628.569	39.75
628.76	40.01
628.951	39.95
629.142	40.19
629.332	40.46
629.523	40.87
629.714	40.91
629.905	41.26
630.096	41.25
630.287	41.33
630.478	41.44
630.669	41.26
630.859	41.21
631.05	41.28
631.241	41.15
631.432	41.02
631.623	40.72
631.813	40.74
632.004	40.4
632.195	40.57
632.385	40.4
632.576	40.25
632.767	40.09
632.957	40.06
633.148	40.08
633.339	39.97
633.529	39.88
633.72	39.77
633.91	39.59
634.101	39.51
634.292	39.44
634.482	39.46
634.673	39.32
634.863	39.17
635.054	39.05
635.244	39.03
635.435	38.97
635.625	39.06
635.815	39.04
636.006	39.1
636.196	39.03
636.387	39.13
636.577	39.19
636.767	39.38
636.958	39.64
637.148	39.83
637.338	40.1
637.529	40.14
637.719	40.17
637.909	40.31
638.099	40.43
638.29	40.58
638.48	40.37
638.67	40.43
638.86	40.33
639.05	40.31
639.241	40.28
639.431	40.12
639.621	40.3
639.811	40.24
640.001	40.16
640.191	40.08
640.381	39.99
640.571	39.99
640.761	39.78
640.951	39.92
641.141	40.09
641.331	40.1
641.521	40.16
641.711	40.2
641.901	40.44
642.091	40.48
642.281	40.52
642.471	40.72
642.661	40.93
642.851	41.22
643.041	41.23
643.231	41.37
643.42	41.38
643.61	41.37
643.8	41.35
643.99	41.29
644.18	41.44
644.369	41.53
644.559	41.39
644.749	41.36
644.939	41.27
645.128	41.28
645.318	40.89
645.508	40.85
645.697	40.79
645.887	40.77
646.076	40.95
646.266	40.82
646.456	40.76
646.645	40.99
646.835	40.93
647.024	40.77
647.214	40.61
647.403	40.76
647.593	40.91
647.782	41
647.972	41.06
648.161	40.96
648.351	40.89
648.54	40.89
648.73	40.76
648.919	40.68
649.108	40.81
649.298	41.05
649.487	41.16
649.677	40.91
649.866	40.89
650.055	40.88
650.244	40.89
650.434	41.1
650.623	41.19
650.812	41.35
651.002	41.49
651.191	41.68
651.38	41.72
651.569	41.81
651.758	41.9
651.947	41.91
652.137	41.81
652.326	41.76
652.515	41.72
652.704	41.74
652.893	41.72
653.082	41.8
653.271	41.76
653.46	41.6
653.649	41.49
653.838	41.59
654.027	41.72
654.216	41.8
654.405	41.98
654.594	42.01
654.783	42
654.972	41.93
655.161	41.83
655.35	41.75
655.539	41.77
655.728	41.87
655.916	41.85
656.105	41.62
656.294	41.65
656.483	41.49
656.672	41.44
656.86	41.35
657.049	41.3
657.238	41.39
657.427	41.21
657.615	41.26
657.804	41.1
657.993	40.83
658.181	40.81
658.37	40.79
658.559	40.68
658.747	40.62
658.936	40.54
659.125	40.49
659.313	40.46
659.502	40.62
659.69	40.49
659.879	40.41
660.067	40.56
660.256	40.67
660.444	40.83
660.633	41.04
660.821	41.01
661.01	41.17
661.198	41.28
661.387	41.27
661.575	41.29
661.763	41.43
661.952	41.57
662.14	41.92
662.328	42.03
662.517	42.12
662.705	42.04
662.893	42.27
663.082	42.35
663.27	42.55
663.458	42.65
663.646	42.86
663.834	42.9
664.023	43.15
664.211	42.98
664.399	43.02
664.587	42.93
664.775	43.13
664.963	43.13
665.152	43.15
665.34	43.16
665.528	43.38
665.716	43.23
665.904	43.42
666.092	43.41
666.28	43.54
666.468	43.59
666.656	43.48
666.844	43.4
667.032	43.56
667.22	43.46
667.408	43.39
667.596	43.24
667.784	43.46
667.971	43.39
668.159	43.47
668.347	43.31
668.535	43.25
668.723	43.23
668.911	43.27
669.098	43.27
669.286	43.4
669.474	43.46
669.662	43.74
669.849	43.74
670.037	43.85
670.225	43.72
670.413	43.68
670.6	43.63
670.788	43.94
670.976	43.84
671.163	43.72
671.351	43.97
671.538	43.95
671.726	43.54
671.913	43.24
672.101	43.19
672.289	43.06
672.476	43.32
672.664	43.61
672.851	43.41
673.039	43.65
673.226	43.95
673.413	43.92
673.601	44.1
673.788	44.3
673.976	44.64
674.163	44.57
674.35	44.87
674.538	44.9
674.725	44.86
674.912	44.93
675.1	44.98
675.287	44.88
675.474	44.36
675.662	44.18
675.849	44.17
676.036	44.1
676.223	44.32
676.411	44.22
676.598	44.33
676.785	44.28
676.972	44.44
677.159	44.53
677.346	44.35
677.533	44.59
677.721	44.53
677.908	44.51
678.095	44.51
678.282	44.31
678.469	44.44
678.656	44.32
678.843	44.37
679.03	44.18
679.217	44.01
679.404	43.99
679.591	43.87
679.778	43.72
679.964	43.81
680.151	43.76
680.338	43.88
680.525	43.71
680.712	43.54
680.899	43.37
681.086	43.53
681.272	43.39
681.459	43.56
681.646	43.71
681.833	44.2
682.02	44.14
682.206	44.15
682.393	44.26
682.58	44.34
682.766	44.35
682.953	44.79
683.14	44.76
683.326	45.28
683.513	45.6
683.7	45.98
683.886	45.52
684.073	45.63
684.259	45.77
684.446	45.64
684.632	45.89
684.819	46.32
685.005	46.21
685.192	46.39
685.378	46.34
685.565	46.15
685.751	45.79
685.938	45.96
686.124	46.08
686.31	46.01
686.497	46.24
686.683	46.06
686.87	46.07
687.056	46.1
687.242	46.13
687.429	45.88
687.615	45.8
687.801	46.22
687.987	46.31
688.174	46.17
688.36	46.39
688.546	46.13
688.732	46.36
688.918	46.24
689.105	45.96
689.291	46
689.477	46.34
689.663	46.59
689.849	46.48
690.035	46.46
690.221	46.69
690.407	46.87
690.593	47.19
690.779	47.26
690.965	47.39
691.151	47.7
691.337	47.76
691.523	47.7
691.709	47.83
691.895	48.25
692.081	48.44
692.267	48.77
692.453	49.12
692.639	49.03
692.825	49.1
693.011	49.23
693.196	49.35
693.382	49.22
693.568	49.45
693.754	49.34
693.94	49.15
694.125	49.39
694.311	49.05
694.497	48.74
694.682	49.04
694.868	48.98
695.054	48.87
695.239	48.95
695.425	49.27
695.611	49.03
695.796	48.99
695.982	48.8
696.168	48.62
696.353	48.41
696.539	48
696.724	47.7
696.91	47.23
697.095	47.26
697.281	46.85
697.466	46.48
697.652	46.16
697.837	46.07
698.023	45.68
698.208	45.46
698.393	45.45
698.579	45.56
698.764	45.43
698.949	45.51
699.135	45.35
699.32	45.55
699.505	45.6
699.691	45.49
699.876	45.47
700.061	45.69
700.246	45.73
700.432	45.99
700.617	46.13
700.802	46.43
700.987	47.04
701.172	47.45
701.358	47.69
701.543	47.84
701.728	48.48
701.913	49.02
702.098	49.48
702.283	50.04
702.468	50.09
702.653	50.18
702.838	50.52
703.023	50.65
703.208	50.71
703.393	50.97
703.578	51.29
703.763	51.5
703.948	51.76
704.133	51.99
704.318	52.19
704.503	52.24
704.688	52.71
704.873	52.85
705.057	52.74
705.242	53.06
705.427	53.38
705.612	53.66
705.797	54.12
705.981	53.72
706.166	53.79
706.351	54.03
706.536	54.21
706.72	54.21
706.905	54.26
707.09	54.51
707.274	54.41
707.459	54.38
707.644	54.67
707.828	54.58
708.013	54.95
708.197	55.08
708.382	54.86
708.567	54.88
708.751	54.72
708.936	54.51
709.12	54.41
709.305	54.09
709.489	53.35
709.673	52.88
709.858	52.69
710.042	52.46
710.227	52.36
710.411	52.51
710.596	52.69
710.78	52.72
710.964	52.82
711.149	52.71
711.333	52.93
711.517	53.4
711.702	53.72
711.886	53.52
712.07	53.61
712.254	53.52
712.438	53.33
712.623	53.04
712.807	52.81
712.991	52.86
713.175	52.56
713.359	52.3
713.544	51.94
713.728	51.46
713.912	51.47
714.096	51.47
714.28	51.22
714.464	51.27
714.648	51.13
714.832	51.45
715.016	51.43
715.2	51.28
715.384	51.48
715.568	51.57
715.752	51.79
715.936	51.83
716.12	51.79
716.304	51.9
716.488	51.74
716.671	51.78
716.855	51.64
717.039	51.65
717.223	52.2
717.407	52.31
717.59	52.74
717.774	52.68
717.958	52.84
718.142	52.55
718.325	52.39
718.509	52.6
718.693	52.93
718.877	53.11
719.06	52.91
719.244	53.38
719.428	53.67
719.611	53.8
719.795	54.18
719.978	54.27
720.162	54.92
720.345	55.53
720.529	56.14
720.713	56.42
720.896	56.31
721.08	56.39
721.263	56.07
721.446	55.87
721.63	55.71
721.813	55.48
721.997	55.53
722.18	55.56
722.364	55.9
722.547	55.54
722.73	55.43
722.914	55.78
723.097	55.99
723.28	55.83
723.464	55.8
723.647	56.24
723.83	56.16
724.013	56
724.197	55.7
724.38	55.5
724.563	55.36
724.746	55.61
724.929	55.78
725.112	55.65
725.296	55.74
725.479	56.05
725.662	55.54
725.845	55.7
726.028	55.74
726.211	55.65
726.394	55.28
726.577	55.23
726.76	54.84
726.943	54.4
727.126	54.03
727.309	53.8
727.492	53.58
727.675	53.44
727.858	53.5
728.041	53.43
728.224	54.08
728.407	54.02
728.589	53.84
728.772	53.89
728.955	53.87
729.138	54.21
729.321	54.23
729.503	54.04
729.686	53.84
729.869	53.68
730.052	53.88
730.234	53.24
730.417	53.57
730.6	53.85
730.782	53.48
730.965	53.7
731.148	53.92
731.33	54.15
731.513	53.97
731.695	54.41
731.878	54.58
732.061	54.68
732.243	54.52
732.426	54.54
732.608	54.74
732.791	55.37
732.973	55.33
733.156	55.52
733.338	55.55
733.52	56.01
733.703	55.94
733.885	55.71
734.068	55.65
734.25	56.22
734.432	56.12
734.615	56.07
734.797	56.2
734.979	56.24
735.162	55.87
735.344	55.81
735.526	55.8
735.708	56.25
735.891	56.69
736.073	57.06
736.255	56.94
736.437	56.87
736.619	56.48
736.802	56.55
736.984	56.7
737.166	57.19
737.348	57.11
737.53	57.34
737.712	57.03
737.894	56.6
738.076	56.28
738.258	56.41
738.44	56.44
738.622	56.99
738.804	56.73
738.986	57.17
739.168	57.61
739.35	57.79
739.532	57.77
739.714	58.19
739.896	58.64
740.078	58.97
740.259	59.13
740.441	59.81
740.623	59.76
740.805	59.62
740.987	59.56
741.168	58.61
741.35	58.98
741.532	59.6
741.714	59.13
741.895	58.9
742.077	59.52
742.259	59.68
742.44	59.29
742.622	59.25
742.804	59.53
742.985	59.52
743.167	60.38
743.348	60.51
743.53	60.21
743.711	60.85
743.893	60.88
744.075	60.4
744.256	60.72
744.438	61.03
744.619	61.67
744.8	62.63
744.982	62.87
745.163	63.44
745.345	63.32
745.526	63.41
745.707	63.4
745.889	63.86
746.07	64.14
746.252	63.74
746.433	63.39
746.614	63.71
746.795	63.29
746.977	63.28
747.158	62.28
747.339	62.59
747.52	62.06
747.702	61.6
747.883	62.06
748.064	61.99
748.245	62.28
748.426	62.64
748.607	62.25
748.788	61.95
748.97	61.69
749.151	61.48
749.332	61.82
749.513	62.12
749.694	62.24
749.875	61.9
750.056	61.64
750.237	61.43
750.418	61.53
750.599	61.51
750.78	62.05
750.96	61.84
751.141	62.23
751.322	62.1
751.503	61.78
751.684	62.54
751.865	62.62
752.046	62.42
752.226	61.89
752.407	62.54
752.588	62.83
752.769	63.18
752.949	63.73
753.13	63.98
753.311	63.51
753.492	64.08
753.672	63.23
753.853	63.46
754.034	64.02
754.214	64.34
754.395	63.95
754.575	63.67
754.756	63.2
754.937	63.44
755.117	63.44
755.298	64.1
755.478	64.18
755.659	64.56
755.839	64.36
756.02	64.1
756.2	64.09
756.381	64.36
756.561	64.46
756.741	64.12
756.922	63.48
757.102	63.47
757.283	63.05
757.463	62.87
757.643	63.06
757.823	63.56
758.004	63.56
758.184	64.07
758.364	63.19
758.545	62.98
758.725	63.89
758.905	63.88
759.085	64.2
759.265	63.88
759.446	64.01
759.626	64.28
759.806	63.73
759.986	64.07
760.166	63.81
760.346	63.96
760.526	63.97
760.706	62.58
760.886	62.02
761.066	62.04
761.246	62.66
761.426	62.65
761.606	61.86
761.786	61.24
761.966	60.42
762.146	60.3
762.326	59.97
762.506	59.93
762.686	59.94
762.866	59.98
763.046	58.69
763.225	58
763.405	56.99
763.585	56.93
763.765	57.08
763.945	56.95
764.124	56.86
764.304	56.73
764.484	56.71
764.664	56.43
764.843	56.74
765.023	57.65
765.203	57.86
765.382	58.39
765.562	59.16
765.741	59.26
765.921	59.84
766.101	59.71
766.28	60.47
766.46	60.11
766.639	60.87
766.819	61.09
766.998	61.04
767.178	61.06
767.357	62.22
767.537	61.5
767.716	62
767.896	61.93
768.075	62.53
768.254	62.18
768.434	63.8
768.613	64.05
768.792	64.65
768.972	65.84
769.151	66.19
769.33	65.98
769.51	67.24
769.689	66.95
769.868	67.61
770.047	68.01
770.226	68.41
770.406	67.71
770.585	68.79
770.764	69.01
770.943	68.22
771.122	68.65
771.301	68.88
771.48	68.35
771.66	68.86
771.839	69.18
772.018	68.52
772.197	68.56
772.376	68.65
772.555	68.44
772.734	67.93
772.913	67.68
773.092	67.86
773.271	68.06
773.449	68.35
773.628	69.15
773.807	69.46
773.986	70.28
774.165	70.67
774.344	71.06
774.523	70.66
774.701	71.16
774.88	71.72
775.059	71.6
775.238	71.56
775.417	71.85
775.595	71.62
775.774	71.79
775.953	71.54
776.131	71.97
776.31	71.98
776.489	72.6
776.667	71.8
776.846	71.99
777.025	71.87
777.203	71.48
777.382	71.65
777.56	71.19
777.739	71.04
777.917	71.12
778.096	70.54
778.274	71.09
778.453	71.24
778.631	72.05
778.81	72.24
778.988	72.92
779.166	72.98
779.345	72.87
779.523	72.86
779.702	73.52
779.88	73.2
780.058	73.53
780.237	72.92
780.415	72.35
780.593	72.7
780.771	72.5
780.95	73.01
781.128	74.16
781.306	74.2
781.484	75.2
781.662	73.9
781.841	74.34
782.019	74.71
782.197	75.34
782.375	75.66
782.553	75.1
782.731	75.4
782.909	75.4
783.087	73.91
783.265	74.36
783.443	73.94
783.621	74.37
783.799	75.58
783.977	76.23
784.155	75.25
784.333	75.25
784.511	74.81
784.689	74.53
784.867	74.45
785.045	75.31
785.223	74.36
785.4	75.24
785.578	74.73
785.756	74.19
785.934	73.13
786.112	74.48
786.289	75.87
786.467	75.98
786.645	75.11
786.823	74.79
787	74.11
787.178	74.21
787.356	73.34
787.533	73.46
787.711	72.63
787.889	72.43
788.066	71.77
788.244	68.84
788.421	68.95
788.599	69.27
788.776	68.72
788.954	68.54
789.131	67.59
789.309	67.65
789.486	67.77
789.664	68.25
789.841	68.63
790.019	68.19
790.196	69.35
790.373	69.36
790.551	69.61
790.728	69.01
790.906	70.18
791.083	71.4
791.26	71.06
791.437	71.17
791.615	71.11
791.792	70.61
791.969	71.37
792.146	72.59
792.324	73.09
792.501	74.42
792.678	75.44
792.855	75.89
793.032	76.05
793.209	77.92
793.387	78
793.564	78.91
793.741	79.53
793.918	78.62
794.095	78.51
794.272	78.46
794.449	76.5
794.626	76.96
794.803	75.6
794.98	75.86
795.157	74.25
795.334	74.9
795.511	74.85
795.688	75.12
795.864	75.46
796.041	74.75
796.218	74.97
796.395	76.38
796.572	75.85
796.749	76.15
796.925	75.45
797.102	75.69
797.279	74.56
797.456	73.38
797.632	73
797.809	72.48
797.986	73.65
798.162	73.13
798.339	73.27
798.516	74.45
798.692	75.67
798.869	76.15
799.046	76.88
799.222	78.28
799.399	78.69
799.575	78.54
799.752	79.07
799.928	77.97
800.105	78.61
800.281	78.77
800.458	78.24
800.634	76.89
800.811	77.19
800.987	76.34
801.163	76.65
801.34	77.67
801.516	78.91
801.692	79.27
801.869	79.93
802.045	80.34
802.221	80.48
802.398	80.32
802.574	80.91
802.75	81.59
802.926	82.05
803.103	82.65
803.279	83
803.455	82.99
803.631	84.19
803.807	83.81
803.983	84.62
804.16	84.59
804.336	84.2
804.512	85.37
804.688	84.99
804.864	85.29
805.04	84.13
805.216	84.49
805.392	84.34
805.568	84.18
805.744	85.59
805.92	84.16
806.096	83.79
806.272	86.09
806.448	87.17
806.623	86.92
806.799	87.45
806.975	88.03
807.151	87.92
807.327	86.97
807.503	87.09
807.678	86.47
807.854	87.59
808.03	88.31
808.206	86.77
808.381	84.88
808.557	85.43
808.733	85.1
808.908	85.04
809.084	83.37
809.26	83.55
809.435	83.48
809.611	83.18
809.787	81.71
809.962	79.91
810.138	80.81
810.313	81.13
810.489	81.94
810.664	82.05
810.84	81.66
811.015	83.4
811.191	84.64
811.366	84.83
811.542	85.98
811.717	86.75
811.892	88.64
812.068	87.89
812.243	89.37
812.419	89.22
812.594	90.13
812.769	91.12
812.944	90.4
813.12	89.13
813.295	89.86
813.47	88.72
813.645	89.33
813.821	88.85
813.996	90.08
814.171	89.07
814.346	89.27
814.521	88.55
814.697	89.23
814.872	89.17
815.047	90.88
815.222	90.48
815.397	91.55
815.572	91.29
815.747	92.17
815.922	91.71
816.097	90.7
816.272	90.42
816.447	90.11
816.622	88.76
816.797	89.89
816.972	90.26
817.147	89.98
817.322	90.07
817.496	89.76
817.671	89.44
817.846	88.72
818.021	88.76
818.196	88.31
818.371	87.55
818.545	87.31
818.72	87.01
818.895	84.98
819.069	83.47
819.244	81.69
819.419	80.75
819.594	77.49
819.768	74.98
819.943	73.47
820.117	71.08
820.292	68.5
820.467	66.65
820.641	63.35
820.816	60.71
820.99	57.82
821.165	55.67
821.339	53.86
821.514	52.93
821.688	51.69
821.863	50.59
822.037	49.63
822.212	49.11
822.386	48.12
822.56	47.93
822.735	47.88
822.909	48.03
823.084	47.98
823.258	47.78
823.432	47.95
823.606	48.51
823.781	48.67
823.955	48.92
824.129	49.48
824.303	50.56
824.478	50.98
824.652	51.44
824.826	51.72
825	52.82
825.174	54.03
825.348	54.02
825.523	54.64
825.697	55.39
825.871	56.18
826.045	56.15
826.219	55.52
826.393	55.28
826.567	55.19
826.741	55.97
826.915	54.98
827.089	54.31
827.263	54.39
827.437	53.84
827.611	54.15
827.784	54.15
827.958	54.94
828.132	55.56
828.306	56.28
828.48	56.81
828.654	57.28
828.827	58.8
829.001	60.91
829.175	62.93
829.349	64.14
829.522	66.11
829.696	68.67
829.87	69.88
830.044	71.97
830.217	74.39
830.391	76.08
830.565	77.5
830.738	78.35
830.912	78.88
831.085	79.26
831.259	81.45
831.432	79.89
831.606	78.85
831.779	78.24
831.953	77.41
832.126	76.33
832.3	75.15
832.473	72.31
832.647	70.33
832.82	68.28
832.994	67.55
833.167	66.39
833.34	65.41
833.514	63.78
833.687	62.97
833.86	61.55
834.034	61.15
834.207	60.72
834.38	61.26
834.553	61.97
834.727	62.84
834.9	62.76
835.073	63.18
835.246	63.94
835.419	64.87
835.593	65.77
835.766	67.99
835.939	69.18
836.112	70.84
836.285	72.88
836.458	74.46
836.631	75.24
836.804	77.17
836.977	78.63
837.15	81.9
837.323	85.69
837.496	88.3
837.669	89.87
837.842	91.1
838.015	93.46
838.188	95.69
838.361	94.32
838.533	96.45
838.706	97.52
838.879	98.34
839.052	96.75
839.225	95.21
839.398	93.7
839.57	93.89
839.743	93.84
839.916	93.01
840.088	92.46
840.261	96.02
840.434	96.12
840.607	95.12
840.779	96.83
840.952	98.39
841.124	98.41
841.297	100.04
841.47	100.94
841.642	101.33
841.815	101.52
841.987	103
842.16	101.89
842.332	102.9
842.505	105.71
842.677	104.28
842.85	104.07
843.022	106.71
843.194	109.55
843.367	110.48
843.539	113.52
843.712	116.54
843.884	116.98
844.056	116.78
844.229	119.04
844.401	120.66
844.573	125.25
844.745	126.49
844.918	132.14
845.09	131.51
845.262	135.36
845.434	137.85
845.606	141.23
845.779	143.31
845.951	150.41
846.123	148.49
846.295	149.73
846.467	150.37
846.639	152.6
846.811	152.45
846.983	154.84
847.155	147.52
847.327	147.32
847.499	146.36
847.671	148
847.843	148
848.015	149.34
848.187	151.73
848.359	152.35
848.531	150.62
848.703	147.67
848.875	150.84
849.047	158.11
849.218	160.05
849.39	160.65
849.562	161.09
849.734	160.58
849.905	161.69
850.077	163.97
850.249	161.64
850.421	167.28
850.592	164.98
850.764	161
850.936	162.91
851.107	160.24
851.279	159.67
851.451	154.04
851.622	156.12
851.794	155.45
851.965	147.9
852.137	149.02
852.308	144.61
852.48	146.43
852.651	151.04
852.823	151.11
852.994	153.54
853.166	155.55
853.337	162.05
853.509	159.57
853.68	164.07
853.851	170.4
854.023	172.34
854.194	178.92
854.365	181.02
854.537	180.16
854.708	181.66
854.879	186.16
855.05	188.42
855.222	182.45
855.393	187.76
855.564	179.72
855.735	179.6
855.906	177.17
856.078	175.6
856.249	177.93
856.42	179.5
856.591	176.37
856.762	170.04
856.933	170.24
857.104	176.63
857.275	172.03
857.446	178.48
857.617	177.52
857.788	173.6
857.959	173.06
858.13	169.74
858.301	165.76
858.472	167.61
858.643	174.34
858.814	168.41
858.985	167.15
859.155	169.09
859.326	164.77
859.497	164.37
859.668	166.98
859.839	173.53
860.009	174.91
860.18	179.51
860.351	177.17
860.522	177.37
860.692	178.05
860.863	174.07
861.034	173.88
861.204	183.82
861.375	190.07
861.546	188.29
861.716	181.33
861.887	181.43
862.057	174.94
862.228	185.54
862.398	179.07
862.569	179.14
862.739	181.36
862.91	183.32
863.08	178.21
863.251	169.4
863.421	168.12
863.592	165.86
863.762	168.62
863.932	171.3
864.103	159.48
864.273	163.3
864.443	169.95
864.614	171.49
864.784	174.08
864.954	175.56
865.125	176.3
865.295	176.66
865.465	183.68
865.635	176.29
865.805	178.65
865.976	189.83
866.146	184.86
866.316	184.82
866.486	183.95
866.656	178.57
866.826	176.18
866.996	187.19
867.166	191.13
867.336	183.39
867.506	189.83
867.676	193.68
867.846	187.99
868.016	192.64
868.186	187.16
868.356	189.84
868.526	201.65
868.696	203.3
868.866	203.86
869.036	207.79
869.206	214.29
869.376	211.66
869.545	204.32
869.715	202.25
869.885	198.3
870.055	203.89
870.224	200.15
870.394	196.42
870.564	199.17
870.734	192.08
870.903	183.88
871.073	182.06
871.243	183
871.412	182.39
871.582	184.85
871.751	193.58
871.921	187.76
872.091	189.57
872.26	186.1
872.43	175.05
872.599	172.12
872.769	177.53
872.938	177.51
873.108	177.47
873.277	175.06
873.446	175.8
873.616	169.7
873.785	170.4
873.955	169.81
874.124	169.76
874.293	177.66
874.463	180.59
874.632	181.85
874.801	181.2
874.971	187.61
875.14	186.17
875.309	191.09
875.478	181.48
875.647	186.15
875.817	188.74
875.986	195.74
876.155	198.13
876.324	200.23
876.493	192
876.662	186.72
876.831	177.66
877	184.64
877.17	179.63
877.339	179.55
877.508	178.02
877.677	176.74
877.846	167.32
878.015	159.76
878.184	159.4
878.352	164.56
878.521	169.6
878.69	166.3
878.859	155.1
879.028	150.64
879.197	151.54
879.366	143.59
879.534	134.3
879.703	128.19
879.872	120.28
880.041	108.63
880.21	99.12
880.378	92.59
880.547	86.72
880.716	82.88
880.884	76.91
881.053	71.22
881.222	66.66
881.39	63.08
881.559	60.2
881.727	58.85
881.896	57.78
882.065	56.57
882.233	55.24
882.402	53.76
882.57	53.15
882.739	53.06
882.907	53.04
883.076	53.54
883.244	53.46
883.412	54.42
883.581	54.48
883.749	55.24
883.918	55.89
884.086	57.11
884.254	59.91
884.423	62.08
884.591	64.24
884.759	67.52
884.927	70.32
885.096	74.4
885.264	78.37
885.432	84.42
885.6	88.72
885.769	94.38
885.937	101
886.105	105.64
886.273	111.02
886.441	116.16
886.609	119.45
886.777	124.64
886.945	128.94
887.113	132
887.281	135.66
887.449	138.34
887.617	139.56
887.785	141.78
887.953	147.1
888.121	146.69
888.289	146.84
888.457	148.44
888.625	146.39
888.793	154.48
888.961	154.57
889.129	159.18
889.296	167.79
889.464	172.29
889.632	172.85
889.8	172.13
889.967	178.15
890.135	179.67
