Data from 2938738__Reflection_01.txt Node
Date: Sun Mar 15 18:09:48 EDT 2015
User: robert
Spectrometer: USB4E03002
Autoset integration time: false
Trigger mode: 4
Integration Time (sec): 1.000000E-1
Scans to average: 10
Electric dark correction enabled: false
Nonlinearity correction enabled: false
Boxcar width: 5
Stray light correction enabled: false
XAxis mode: Wavelengths
Stop averaging: false
Number of Pixels in Spectrum: 3648
>>>>>Begin Spectral Data<<<<<
177.575	185.16
177.794	243.99
178.014	308.76
178.233	384.45
178.452	570.54
178.672	568.13
178.891	749.55
179.11	693.94
179.33	848.24
179.549	930.39
179.768	2342.74
179.987	1175.4
180.207	585.58
180.426	538.47
180.645	486.1
180.864	392.02
181.084	473.17
181.303	483.67
181.522	591.42
181.741	603.33
181.96	773.71
182.179	788.53
182.398	906.49
182.618	1188.36
182.837	1085.06
183.056	932.1
183.275	1198.14
183.494	753.28
183.713	586.81
183.932	610.41
184.151	704.81
184.37	824.62
184.589	1232.73
184.808	931.67
185.027	713.96
185.246	591.27
185.465	669.55
185.684	625.84
185.903	727.25
186.122	975.46
186.341	1100.43
186.56	610.34
186.779	432.9
186.998	387.39
187.216	432.56
187.435	462.17
187.654	534.47
187.873	520.72
188.092	445.05
188.311	437.24
188.53	444.53
188.748	392.76
188.967	380.55
189.186	441.78
189.405	384.32
189.623	398.08
189.842	460.2
190.061	495.25
190.28	538.29
190.498	1214.6
190.717	1079.18
190.936	985.06
191.154	1103.24
191.373	-14600
191.592	-14590
191.81	-3310.34
192.029	-3319.35
192.248	-2429.75
192.466	-2654.24
192.685	2853.98
192.904	935.53
193.122	865.51
193.341	867.68
193.559	797.67
193.778	745.41
193.996	834.49
194.215	733.68
194.433	591.2
194.652	541.41
194.87	439.04
195.089	581.46
195.307	702.07
195.526	985.95
195.744	836.55
195.963	1306.91
196.181	4676.71
196.399	2300.68
196.618	1820.54
196.836	2053.66
197.055	3443.01
197.273	2942.73
197.491	2186.27
197.71	1295.08
197.928	690.22
198.146	717.76
198.365	560.73
198.583	382.02
198.801	482.18
199.019	570.75
199.238	447.89
199.456	510.51
199.674	570.06
199.892	629.67
200.111	581.82
200.329	669.92
200.547	753.76
200.765	1031.89
200.983	770.17
201.202	562.48
201.42	539.38
201.638	1590.32
201.856	1221.86
202.074	2138.52
202.292	1601.62
202.51	3170.97
202.728	11837.5
202.946	-6700
203.165	-3173.81
203.383	-2026.77
203.601	-1791.78
203.819	-1267.66
204.037	2174.58
204.255	1186.32
204.473	1153.98
204.691	750
204.909	520.55
205.127	531.37
205.345	366.55
205.562	346.07
205.78	422.18
205.998	396.56
206.216	383.37
206.434	494.26
206.652	509.32
206.87	462.97
207.088	500.28
207.306	606.75
207.523	527.32
207.741	909.82
207.959	680.87
208.177	505.91
208.395	469.02
208.612	488.47
208.83	476.04
209.048	439.14
209.266	548.54
209.483	569.54
209.701	546.65
209.919	601.58
210.136	397.13
210.354	419.34
210.572	493.6
210.79	382.32
211.007	355.28
211.225	370.84
211.442	459.46
211.66	362.27
211.878	343.3
212.095	291.42
212.313	270.79
212.53	315.96
212.748	287.81
212.966	298.63
213.183	342.52
213.401	321.45
213.618	295.91
213.836	305.74
214.053	328.07
214.271	375.88
214.488	444.18
214.705	540.1
214.923	462.29
215.14	932.75
215.358	602.36
215.575	721.52
215.793	635.73
216.01	542.66
216.227	418.39
216.445	387.57
216.662	363.84
216.879	379.46
217.097	377.56
217.314	369.88
217.531	330.66
217.749	344.98
217.966	339.31
218.183	349.7
218.4	331.04
218.618	371.74
218.835	332.09
219.052	310.52
219.269	296.03
219.487	275.04
219.704	284.32
219.921	280.54
220.138	280.14
220.355	259.87
220.572	250.53
220.79	261.74
221.007	256.59
221.224	267.91
221.441	268.43
221.658	248.47
221.875	237.96
222.092	249.02
222.309	226.32
222.526	201.64
222.743	192.32
222.96	196.85
223.177	178.74
223.394	162.25
223.611	164.42
223.828	147.66
224.045	135.58
224.262	122.86
224.479	113.26
224.696	118.98
224.913	113.12
225.13	106.73
225.347	103.49
225.564	105.2
225.781	95.82
225.997	93.11
226.214	93.68
226.431	86.62
226.648	80.91
226.865	71.77
227.082	60.6
227.298	57.19
227.515	48.85
227.732	42.13
227.949	36.93
228.165	33.24
228.382	30.52
228.599	28.2
228.816	27.1
229.032	25.22
229.249	24.14
229.466	23.74
229.682	23.61
229.899	23.74
230.116	24.33
230.332	24.74
230.549	26.17
230.765	27.08
230.982	29.21
231.199	29.59
231.415	32.91
231.632	33.81
231.848	34.48
232.065	35.65
232.281	37.4
232.498	38.99
232.714	40.44
232.931	41.74
233.147	40.54
233.364	39.37
233.58	42.29
233.797	41.92
234.013	43.01
234.23	43.51
234.446	41.22
234.662	39.48
234.879	38.13
235.095	38.42
235.312	38.64
235.528	41.24
235.744	41.84
235.961	40.14
236.177	40.9
236.393	42.99
236.61	41.1
236.826	42.95
237.042	46.22
237.258	46.66
237.475	47.9
237.691	47.07
237.907	46.63
238.123	47.8
238.339	47.14
238.556	44.95
238.772	41.58
238.988	43.06
239.204	40.81
239.42	38.64
239.636	37.31
239.853	33.39
240.069	31.77
240.285	28.97
240.501	25.51
240.717	25.32
240.933	23.3
241.149	22.55
241.365	21.16
241.581	20.12
241.797	19.17
242.013	18.18
242.229	18.61
242.445	17.74
242.661	17.54
242.877	17.61
243.093	17.34
243.309	18.02
243.525	17.86
243.741	18.93
243.957	20.23
244.173	21.12
244.388	21.21
244.604	21.37
244.82	22.23
245.036	21.67
245.252	20.7
245.468	19.29
245.683	17.87
245.899	17.06
246.115	15.45
246.331	14.03
246.547	13.33
246.762	13.54
246.978	13.03
247.194	12
247.409	11.92
247.625	12.22
247.841	12.08
248.057	12.21
248.272	11.86
248.488	12.13
248.703	12.63
248.919	13.03
249.135	12.81
249.35	13.1
249.566	14.83
249.782	15.79
249.997	16.55
250.213	17.5
250.428	18.06
250.644	20.32
250.859	20.94
251.075	20.96
251.29	21.18
251.506	20.97
251.721	21.11
251.937	20.01
252.152	19.56
252.368	19.16
252.583	19.75
252.798	20.21
253.014	19.87
253.229	19.94
253.445	20.56
253.66	20.42
253.875	21.7
254.091	22.55
254.306	24.47
254.521	25.15
254.737	26.15
254.952	26.18
255.167	26.09
255.383	26.38
255.598	27.67
255.813	27.53
256.028	27.7
256.244	27.23
256.459	26.15
256.674	24.79
256.889	24.06
257.104	22.41
257.32	21.68
257.535	20.52
257.75	19.04
257.965	17.12
258.18	16.31
258.395	15.23
258.61	13.77
258.826	12.58
259.041	12.02
259.256	11.72
259.471	11.67
259.686	11.31
259.901	11.21
260.116	10.92
260.331	10.63
260.546	10.65
260.761	10.64
260.976	10.89
261.191	11.29
261.406	11.46
261.621	11.48
261.836	11.89
262.05	12.02
262.265	12.25
262.48	12.75
262.695	13.53
262.91	14.16
263.125	15.41
263.34	16.24
263.555	16.42
263.769	17.03
263.984	18.13
264.199	17.9
264.414	18.91
264.629	19.2
264.843	19.43
265.058	19.49
265.273	18.45
265.488	17.66
265.702	16.36
265.917	16.42
266.132	16.63
266.346	15.43
266.561	15.33
266.776	15.18
266.99	14.64
267.205	14.47
267.42	14.6
267.634	14.24
267.849	14.11
268.063	14.53
268.278	14.73
268.492	14.5
268.707	14.83
268.922	15.09
269.136	14.27
269.351	14.74
269.565	14.38
269.78	14.05
269.994	14.2
270.209	13.95
270.423	13.7
270.637	13.34
270.852	12.7
271.066	12.36
271.281	12.24
271.495	12.18
271.709	12.09
271.924	12.16
272.138	11.89
272.353	12.15
272.567	11.91
272.781	12.07
272.996	12.13
273.21	12.55
273.424	12.84
273.638	12.65
273.853	12.9
274.067	12.82
274.281	13.49
274.495	13.89
274.71	13.72
274.924	13.91
275.138	13.97
275.352	14.28
275.566	14.45
275.781	14.11
275.995	13.77
276.209	13.62
276.423	13.12
276.637	12.95
276.851	12.64
277.065	12.17
277.279	11.96
277.493	12.47
277.707	11.85
277.921	11.22
278.135	10.92
278.349	10.75
278.563	11.53
278.777	11.64
278.991	11.43
279.205	11.43
279.419	11.83
279.633	12.25
279.847	11.88
280.061	11.71
280.275	12.29
280.489	13.05
280.703	12.85
280.917	12.76
281.131	12.84
281.344	12.7
281.558	12.58
281.772	12.12
281.986	12
282.2	11.88
282.414	12.18
282.627	11.59
282.841	11.47
283.055	11.99
283.269	11.56
283.482	12.07
283.696	11.99
283.91	11.92
284.123	11.69
284.337	11.38
284.551	11.26
284.764	10.42
284.978	10.39
285.192	10.01
285.405	9.78
285.619	9.25
285.833	8.58
286.046	8.15
286.26	8.35
286.473	8.68
286.687	8.91
286.9	8.64
287.114	9.21
287.327	9.44
287.541	9.38
287.754	9.65
287.968	10.38
288.181	10.6
288.395	10.75
288.608	10.73
288.822	10.37
289.035	10.11
289.248	10.55
289.462	10.37
289.675	10.05
289.889	10.15
290.102	9.81
290.315	9.58
290.529	9.66
290.742	10.1
290.955	10.11
291.169	10.24
291.382	10.6
291.595	10.36
291.808	10.76
292.022	10.79
292.235	11.33
292.448	11.79
292.661	11.79
292.875	11.65
293.088	11.67
293.301	11.49
293.514	11.74
293.727	11.17
293.94	11.38
294.153	11.29
294.367	11.42
294.58	10.75
294.793	10.78
295.006	10.92
295.219	10.85
295.432	10.41
295.645	10.47
295.858	10.3
296.071	10.18
296.284	9.82
296.497	9.67
296.71	9.69
296.923	10.09
297.136	9.92
297.349	9.61
297.562	9.74
297.775	9.95
297.988	9.95
298.201	10.28
298.414	10.62
298.626	10.84
298.839	10.96
299.052	10.82
299.265	10.98
299.478	11.21
299.691	11.82
299.903	12.1
300.116	12.4
300.329	12.55
300.542	12.64
300.755	12.89
300.967	13.54
301.18	13.53
301.393	14.3
301.605	14.25
301.818	14.22
302.031	13.95
302.243	13.86
302.456	13.8
302.669	13.89
302.881	13.86
303.094	13.9
303.307	13.43
303.519	13.48
303.732	13.24
303.944	13.15
304.157	12.94
304.37	13.64
304.582	13.73
304.795	13.77
305.007	13.85
305.22	13.75
305.432	13.69
305.645	13.66
305.857	14.19
306.069	14.22
306.282	14.04
306.494	14.41
306.707	13.83
306.919	13.75
307.132	13.77
307.344	13.99
307.556	14.23
307.769	14.22
307.981	14.13
308.193	13.43
308.406	13.12
308.618	13.41
308.83	13.39
309.043	13.14
309.255	12.99
309.467	12.92
309.679	12.93
309.892	12.77
310.104	12.77
310.316	12.71
310.528	12.99
310.74	13.16
310.953	13
311.165	12.74
311.377	12.96
311.589	13.2
311.801	13.23
312.013	12.59
312.225	12.52
312.437	12.57
312.649	13.06
312.862	13.32
313.074	12.97
313.286	13.26
313.498	13.51
313.71	13.73
313.922	13.32
314.134	13.58
314.346	14.63
314.558	14.89
314.77	15.01
314.982	15.08
315.193	14.68
315.405	15.39
315.617	15.2
315.829	15.21
316.041	15.76
316.253	16.48
316.465	16.6
316.677	16.64
316.888	16.95
317.1	17.06
317.312	16.95
317.524	16.97
317.736	16.94
317.947	17.36
318.159	17.4
318.371	16.78
318.583	17.06
318.794	17.27
319.006	16.73
319.218	16.6
319.43	16.35
319.641	16.21
319.853	16.98
320.064	17.36
320.276	17.4
320.488	17.96
320.699	18.45
320.911	17.69
321.123	17.42
321.334	17.64
321.546	17.65
321.757	17.91
321.969	18.32
322.18	17.87
322.392	17.72
322.603	17.24
322.815	16.51
323.026	15.67
323.238	16.05
323.449	16.35
323.661	16.28
323.872	16.1
324.083	15.94
324.295	15.55
324.506	15.02
324.718	14.85
324.929	14.96
325.14	15.34
325.352	15.19
325.563	15.51
325.774	15.11
325.986	15.21
326.197	15.77
326.408	16.26
326.62	16.34
326.831	16.53
327.042	16.73
327.253	16.99
327.464	16.99
327.676	17.51
327.887	17.27
328.098	17.17
328.309	17.03
328.52	16.49
328.732	16.15
328.943	16.19
329.154	16.54
329.365	16.61
329.576	16.47
329.787	16.25
329.998	16.46
330.209	16.73
330.42	17.18
330.631	17.47
330.842	17.58
331.053	17.62
331.264	17.48
331.475	17.83
331.686	17.85
331.897	17.68
332.108	17.72
332.319	17.84
332.53	17.69
332.741	17.43
332.952	16.84
333.163	16.79
333.374	16.78
333.585	17.06
333.795	16.8
334.006	16.33
334.217	16.31
334.428	16.81
334.639	16.93
334.849	16.55
335.06	16.35
335.271	16.74
335.482	17.16
335.692	16.96
335.903	16.56
336.114	16.58
336.325	16.8
336.535	16.89
336.746	16.59
336.957	16.01
337.167	16.16
337.378	16.53
337.589	16.42
337.799	16.46
338.01	16.88
338.22	17.09
338.431	17.28
338.642	17.34
338.852	17.23
339.063	17.07
339.273	17.41
339.484	17.44
339.694	17.19
339.905	17.58
340.115	17.1
340.326	16.44
340.536	16.4
340.746	16.05
340.957	15.71
341.167	15.68
341.378	15.86
341.588	15.74
341.799	15.62
342.009	15.41
342.219	14.78
342.43	14.77
342.64	14.89
342.85	14.48
343.061	14.23
343.271	14.85
343.481	14.96
343.691	14.76
343.902	14.1
344.112	14.07
344.322	13.95
344.532	14.15
344.743	14.04
344.953	13.92
345.163	13.97
345.373	14.28
345.583	13.78
345.793	13.8
346.004	13.83
346.214	14.39
346.424	14.53
346.634	14.81
346.844	14.92
347.054	14.93
347.264	15.32
347.474	15.78
347.684	15.57
347.894	15.4
348.104	15.32
348.314	15.3
348.524	14.87
348.734	14.77
348.944	14.41
349.154	14.41
349.364	14.76
349.574	14.53
349.784	14.59
349.994	14.8
350.204	14.93
350.413	14.85
350.623	14.9
350.833	15.17
351.043	15.25
351.253	15.31
351.463	15.29
351.672	14.77
351.882	14.88
352.092	14.65
352.302	14.48
352.511	14.84
352.721	14.64
352.931	14.24
353.141	14.45
353.35	14.58
353.56	14.48
353.77	14.1
353.979	14.34
354.189	14.14
354.399	13.96
354.608	13.94
354.818	13.77
355.027	13.72
355.237	14.05
355.447	13.67
355.656	13.35
355.866	13.46
356.075	13.43
356.285	13.25
356.494	13.09
356.704	13.03
356.913	12.94
357.123	12.8
357.332	12.65
357.542	12.59
357.751	12.71
357.96	12.48
358.17	12.53
358.379	12.78
358.589	12.88
358.798	12.74
359.007	12.73
359.217	12.69
359.426	12.47
359.635	12.54
359.845	12.3
360.054	12.07
360.263	11.87
360.472	11.91
360.682	11.54
360.891	11.48
361.1	11.57
361.309	11.69
361.519	11.65
361.728	11.51
361.937	11.52
362.146	11.58
362.355	11.64
362.564	12.05
362.774	12.15
362.983	12.14
363.192	12.04
363.401	12.13
363.61	12.02
363.819	12.12
364.028	12.31
364.237	12.16
364.446	12.02
364.655	12.12
364.864	11.87
365.073	11.38
365.282	11.72
365.491	11.76
365.7	11.86
365.909	11.95
366.118	12.09
366.327	12.07
366.536	12.34
366.745	12.35
366.954	12.51
367.162	12.71
367.371	12.85
367.58	12.86
367.789	12.9
367.998	12.63
368.207	12.74
368.415	12.55
368.624	12.71
368.833	13.05
369.042	13.12
369.25	12.81
369.459	12.78
369.668	12.82
369.877	12.63
370.085	12.61
370.294	12.79
370.503	12.66
370.711	12.46
370.92	12.06
371.129	11.81
371.337	11.83
371.546	11.63
371.754	11.47
371.963	11.39
372.171	11.6
372.38	11.6
372.589	11.62
372.797	11.54
373.006	11.82
373.214	12.21
373.423	11.93
373.631	11.87
373.84	12.06
374.048	12.12
374.256	12.33
374.465	12.18
374.673	12.06
374.882	11.68
375.09	11.47
375.298	11.24
375.507	11
375.715	11.23
375.923	11.16
376.132	11.17
376.34	10.92
376.548	10.76
376.757	10.43
376.965	10.27
377.173	10.44
377.381	10.49
377.59	10.4
377.798	10.54
378.006	10.05
378.214	10.17
378.423	10.17
378.631	10.41
378.839	10.47
379.047	10.7
379.255	10.71
379.463	10.51
379.671	10.26
379.879	10.37
380.088	10.34
380.296	10.55
380.504	10.69
380.712	10.79
380.92	10.88
381.128	10.92
381.336	10.84
381.544	10.96
381.752	11.16
381.96	11.26
382.168	11.09
382.376	10.81
382.584	11.06
382.791	11.07
382.999	10.79
383.207	10.51
383.415	10.47
383.623	10.55
383.831	10.3
384.039	10.35
384.247	10.37
384.454	10.47
384.662	10.4
384.87	10.23
385.078	9.9
385.285	9.94
385.493	10.34
385.701	9.98
385.909	10.08
386.116	10.39
386.324	10.35
386.532	10.29
386.739	10.15
386.947	10.23
387.155	10.34
387.362	10.44
387.57	10.36
387.778	9.84
387.985	10.06
388.193	9.96
388.4	9.91
388.608	10.08
388.816	10.14
389.023	10.21
389.231	10.21
389.438	10.09
389.646	9.96
389.853	9.77
390.061	9.62
390.268	9.71
390.475	9.39
390.683	9.34
390.89	8.92
391.098	8.89
391.305	8.83
391.512	8.86
391.72	8.67
391.927	8.58
392.135	8.59
392.342	8.81
392.549	8.62
392.756	8.86
392.964	8.68
393.171	8.72
393.378	8.86
393.586	8.71
393.793	8.77
394	8.87
394.207	9.06
394.414	9.24
394.622	9.19
394.829	9.26
395.036	9.05
395.243	9.09
395.45	9.07
395.657	9.03
395.864	9.16
396.072	8.98
396.279	9.09
396.486	9
396.693	8.89
396.9	8.83
397.107	8.79
397.314	9.04
397.521	9
397.728	9.05
397.935	9.02
398.142	8.82
398.349	8.7
398.556	8.78
398.763	8.81
398.97	8.77
399.177	8.83
399.383	8.89
399.59	8.62
399.797	8.86
400.004	8.77
400.211	8.7
400.418	8.86
400.625	9
400.831	8.82
401.038	8.92
401.245	8.89
401.452	9.12
401.658	9.08
401.865	9.13
402.072	8.93
402.279	9.05
402.485	9.13
402.692	9.33
402.899	9.24
403.105	9.08
403.312	8.69
403.519	8.67
403.725	8.42
403.932	8.18
404.138	8.14
404.345	8.19
404.552	8.1
404.758	7.98
404.965	7.81
405.171	8.01
405.378	8.17
405.584	8.4
405.791	8.48
405.997	8.56
406.204	8.94
406.41	8.96
406.617	8.97
406.823	9.03
407.029	9.33
407.236	9.56
407.442	9.4
407.649	9.47
407.855	9.38
408.061	9.48
408.268	9.45
408.474	9.26
408.68	9.36
408.887	9.17
409.093	8.97
409.299	8.72
409.505	8.53
409.712	8.43
409.918	8.08
410.124	8.01
410.33	7.77
410.537	7.83
410.743	7.75
410.949	7.49
411.155	7.63
411.361	7.82
411.567	7.72
411.773	7.79
411.98	7.73
412.186	7.95
412.392	8.24
412.598	8.36
412.804	8.36
413.01	8.44
413.216	8.58
413.422	8.79
413.628	8.8
413.834	8.77
414.04	8.68
414.246	8.94
414.452	8.81
414.658	8.44
414.864	8.48
415.07	8.63
415.275	8.59
415.481	8.55
415.687	8.37
415.893	8.21
416.099	8.24
416.305	8.23
416.511	8.03
416.716	8.11
416.922	8.07
417.128	8.01
417.334	7.86
417.539	7.76
417.745	7.79
417.951	7.66
418.157	7.57
418.362	7.52
418.568	7.4
418.774	7.33
418.979	7.19
419.185	7.16
419.391	7.08
419.596	6.87
419.802	6.86
420.008	6.8
420.213	6.92
420.419	7.01
420.624	6.96
420.83	6.93
421.035	6.95
421.241	7
421.446	7.06
421.652	7.01
421.857	7.02
422.063	6.98
422.268	6.94
422.474	6.83
422.679	6.88
422.885	6.93
423.09	6.95
423.295	6.95
423.501	6.91
423.706	6.86
423.911	6.93
424.117	6.96
424.322	7.08
424.527	7.13
424.733	7.11
424.938	7.04
425.143	7.06
425.349	7.07
425.554	7.11
425.759	7.23
425.964	7.29
426.169	7.41
426.375	7.47
426.58	7.42
426.785	7.51
426.99	7.58
427.195	7.61
427.4	7.55
427.605	7.69
427.811	7.71
428.016	7.7
428.221	7.75
428.426	7.72
428.631	7.75
428.836	7.74
429.041	7.68
429.246	7.73
429.451	7.8
429.656	7.99
429.861	7.91
430.066	8.01
430.271	7.99
430.476	7.99
430.681	8.03
430.886	8.02
431.09	8.08
431.295	8.03
431.5	8.04
431.705	7.99
431.91	7.89
432.115	7.81
432.32	7.76
432.524	7.63
432.729	7.5
432.934	7.48
433.139	7.45
433.343	7.4
433.548	7.4
433.753	7.47
433.958	7.56
434.162	7.57
434.367	7.59
434.572	7.46
434.776	7.62
434.981	7.69
435.186	7.67
435.39	7.77
435.595	7.89
435.799	7.83
436.004	7.72
436.209	7.64
436.413	7.58
436.618	7.55
436.822	7.63
437.027	7.58
437.231	7.57
437.436	7.45
437.64	7.45
437.845	7.35
438.049	7.33
438.253	7.4
438.458	7.47
438.662	7.48
438.867	7.55
439.071	7.53
439.275	7.52
439.48	7.5
439.684	7.55
439.888	7.54
440.093	7.58
440.297	7.63
440.501	7.52
440.706	7.52
440.91	7.58
441.114	7.5
441.318	7.51
441.523	7.51
441.727	7.57
441.931	7.61
442.135	7.61
442.339	7.47
442.543	7.66
442.748	7.66
442.952	7.62
443.156	7.62
443.36	7.66
443.564	7.6
443.768	7.6
443.972	7.58
444.176	7.6
444.38	7.59
444.584	7.71
444.788	7.54
444.992	7.57
445.196	7.46
445.4	7.32
445.604	7.28
445.808	7.3
446.012	7.2
446.216	7.18
446.42	7.11
446.624	7.19
446.828	7.19
447.032	7.18
447.235	7.12
447.439	7.19
447.643	7.25
447.847	7.35
448.051	7.39
448.254	7.47
448.458	7.42
448.662	7.45
448.866	7.31
449.069	7.26
449.273	7.22
449.477	7.31
449.681	7.39
449.884	7.48
450.088	7.38
450.292	7.39
450.495	7.39
450.699	7.56
450.902	7.71
451.106	7.79
451.31	7.89
451.513	7.9
451.717	7.88
451.92	7.77
452.124	7.77
452.327	7.85
452.531	7.88
452.734	7.8
452.938	7.65
453.141	7.53
453.345	7.58
453.548	7.63
453.752	7.66
453.955	7.72
454.158	7.78
454.362	7.85
454.565	7.73
454.769	7.7
454.972	7.77
455.175	7.97
455.379	7.91
455.582	7.87
455.785	7.62
455.988	7.7
456.192	7.67
456.395	7.43
456.598	7.36
456.801	7.54
457.005	7.55
457.208	7.58
457.411	7.41
457.614	7.41
457.817	7.29
458.021	7.39
458.224	7.34
458.427	7.3
458.63	7.42
458.833	7.38
459.036	7.36
459.239	7.31
459.442	7.32
459.645	7.35
459.848	7.33
460.051	7.4
460.254	7.49
460.457	7.38
460.66	7.39
460.863	7.41
461.066	7.41
461.269	7.41
461.472	7.48
461.675	7.5
461.878	7.54
462.081	7.65
462.284	7.67
462.486	7.56
462.689	7.74
462.892	7.68
463.095	7.76
463.298	7.91
463.5	7.91
463.703	7.92
463.906	7.92
464.109	8.02
464.311	7.9
464.514	7.97
464.717	8.12
464.92	8.11
465.122	8.3
465.325	8.26
465.528	8.2
465.73	8.17
465.933	7.99
466.135	8.01
466.338	7.78
466.541	7.86
466.743	7.77
466.946	7.75
467.148	7.71
467.351	7.62
467.553	7.59
467.756	7.59
467.958	7.56
468.161	7.65
468.363	7.65
468.566	7.89
468.768	7.79
468.971	7.81
469.173	7.77
469.375	7.9
469.578	7.93
469.78	7.91
469.983	7.89
470.185	8.05
470.387	8.21
470.59	8.3
470.792	8.29
470.994	8.44
471.196	8.5
471.399	8.5
471.601	8.33
471.803	8.28
472.005	8.31
472.208	8.33
472.41	8.18
472.612	8.11
472.814	7.92
473.016	7.93
473.218	7.94
473.421	7.87
473.623	7.92
473.825	8.06
474.027	8.11
474.229	8.08
474.431	8.01
474.633	8.04
474.835	7.97
475.037	8.04
475.239	7.91
475.441	7.83
475.643	7.78
475.845	7.74
476.047	7.67
476.249	7.67
476.451	7.76
476.653	7.74
476.855	7.59
477.057	7.72
477.258	7.57
477.46	7.58
477.662	7.62
477.864	7.71
478.066	7.73
478.268	7.74
478.469	7.69
478.671	7.62
478.873	7.75
479.075	7.77
479.276	7.65
479.478	7.8
479.68	7.87
479.882	7.78
480.083	7.76
480.285	7.77
480.487	7.75
480.688	7.81
480.89	7.77
481.091	7.65
481.293	7.63
481.495	7.55
481.696	7.35
481.898	7.17
482.099	7.12
482.301	6.97
482.502	6.85
482.704	6.76
482.905	6.66
483.107	6.6
483.308	6.54
483.51	6.5
483.711	6.5
483.913	6.48
484.114	6.51
484.315	6.52
484.517	6.54
484.718	6.54
484.92	6.56
485.121	6.56
485.322	6.57
485.524	6.58
485.725	6.62
485.926	6.61
486.127	6.65
486.329	6.59
486.53	6.54
486.731	6.52
486.932	6.54
487.134	6.5
487.335	6.53
487.536	6.5
487.737	6.52
487.938	6.48
488.139	6.48
488.341	6.49
488.542	6.55
488.743	6.61
488.944	6.63
489.145	6.61
489.346	6.68
489.547	6.68
489.748	6.7
489.949	6.73
490.15	6.78
490.351	6.81
490.552	6.83
490.753	6.75
490.954	6.77
491.155	6.75
491.356	6.75
491.557	6.71
491.758	6.74
491.959	6.8
492.159	6.82
492.36	6.81
492.561	6.82
492.762	6.82
492.963	6.89
493.164	6.91
493.364	6.95
493.565	7.04
493.766	7.16
493.967	7.13
494.167	7.16
494.368	7.22
494.569	7.28
494.769	7.28
494.97	7.41
495.171	7.43
495.371	7.35
495.572	7.43
495.773	7.4
495.973	7.31
496.174	7.38
496.375	7.35
496.575	7.35
496.776	7.31
496.976	7.4
497.177	7.38
497.377	7.41
497.578	7.54
497.778	7.46
497.979	7.52
498.179	7.63
498.38	7.64
498.58	7.74
498.78	7.65
498.981	7.66
499.181	7.62
499.382	7.64
499.582	7.6
499.782	7.64
499.983	7.74
500.183	7.76
500.383	7.76
500.584	7.79
500.784	7.8
500.984	7.96
501.184	8.05
501.385	8.13
501.585	8.16
501.785	8.18
501.985	8.13
502.185	8.11
502.386	8.11
502.586	8.04
502.786	8.04
502.986	8.01
503.186	7.97
503.386	8
503.586	7.95
503.786	7.9
503.987	7.97
504.187	8
504.387	8.14
504.587	8.15
504.787	8.28
504.987	8.26
505.187	8.28
505.387	8.36
505.587	8.35
505.786	8.43
505.986	8.51
506.186	8.64
506.386	8.71
506.586	8.72
506.786	8.67
506.986	8.63
507.186	8.78
507.386	8.75
507.585	8.67
507.785	8.73
507.985	8.7
508.185	8.7
508.384	8.69
508.584	8.6
508.784	8.55
508.984	8.71
509.183	8.82
509.383	8.81
509.583	8.86
509.782	8.96
509.982	9.02
510.182	9.06
510.381	9.1
510.581	9.08
510.781	9.23
510.98	9.32
511.18	9.24
511.379	9.2
511.579	9.16
511.778	9.16
511.978	9.14
512.177	9.17
512.377	9.22
512.576	9.2
512.776	9.25
512.975	9.28
513.175	9.31
513.374	9.38
513.573	9.45
513.773	9.57
513.972	9.69
514.172	9.85
514.371	9.96
514.57	9.97
514.77	9.98
514.969	9.99
515.168	9.93
515.367	9.96
515.567	10.08
515.766	10.09
515.965	10.08
516.164	10.1
516.364	10.06
516.563	9.97
516.762	10.05
516.961	10.11
517.16	10.26
517.359	10.38
517.559	10.43
517.758	10.43
517.957	10.43
518.156	10.45
518.355	10.46
518.554	10.54
518.753	10.6
518.952	10.66
519.151	10.72
519.35	10.76
519.549	10.8
519.748	10.79
519.947	10.84
520.146	10.99
520.345	11.07
520.544	11.12
520.743	11.23
520.942	11.29
521.141	11.41
521.339	11.59
521.538	11.62
521.737	11.6
521.936	11.78
522.135	11.77
522.333	11.77
522.532	11.86
522.731	11.94
522.93	11.92
523.129	12.08
523.327	12.04
523.526	11.97
523.725	11.99
523.923	12.07
524.122	12.02
524.321	12.13
524.519	12.14
524.718	12.17
524.917	12.15
525.115	12.18
525.314	12.13
525.512	12.14
525.711	12.27
525.909	12.34
526.108	12.35
526.306	12.35
526.505	12.37
526.703	12.41
526.902	12.44
527.1	12.48
527.299	12.47
527.497	12.46
527.696	12.47
527.894	12.42
528.092	12.4
528.291	12.41
528.489	12.42
528.688	12.42
528.886	12.4
529.084	12.38
529.283	12.4
529.481	12.45
529.679	12.51
529.877	12.56
530.076	12.59
530.274	12.63
530.472	12.74
530.67	12.88
530.869	12.98
531.067	13.11
531.265	13.21
531.463	13.35
531.661	13.38
531.859	13.47
532.057	13.52
532.255	13.63
532.454	13.65
532.652	13.64
532.85	13.64
533.048	13.64
533.246	13.67
533.444	13.72
533.642	13.72
533.84	13.77
534.038	13.76
534.236	13.81
534.434	13.73
534.632	13.87
534.83	13.95
535.027	14.02
535.225	14.15
535.423	14.17
535.621	14.22
535.819	14.32
536.017	14.37
536.215	14.46
536.412	14.55
536.61	14.73
536.808	14.68
537.006	14.67
537.203	14.71
537.401	14.73
537.599	14.77
537.797	14.85
537.994	14.77
538.192	14.89
538.39	14.92
538.587	14.95
538.785	14.97
538.983	15.05
539.18	15.09
539.378	15.05
539.575	15.01
539.773	15.07
539.97	15.03
540.168	15.09
540.366	15.02
540.563	14.96
540.761	15.01
540.958	14.98
541.155	14.93
541.353	14.97
541.55	14.98
541.748	15.02
541.945	15.01
542.143	15.06
542.34	15.1
542.537	15.12
542.735	15.2
542.932	15.15
543.129	15.27
543.327	15.38
543.524	15.38
543.721	15.42
543.919	15.44
544.116	15.53
544.313	15.59
544.51	15.6
544.708	15.62
544.905	15.68
545.102	15.75
545.299	15.68
545.496	15.73
545.693	15.8
545.891	15.96
546.088	16.03
546.285	16.01
546.482	16.04
546.679	16.09
546.876	16.26
547.073	16.37
547.27	16.41
547.467	16.51
547.664	16.54
547.861	16.7
548.058	16.6
548.255	16.7
548.452	16.79
548.649	16.84
548.846	17.06
549.043	16.96
549.24	16.93
549.437	16.95
549.633	17
549.83	17.1
550.027	17.11
550.224	17.29
550.421	17.3
550.618	17.3
550.814	17.28
551.011	17.18
551.208	17.34
551.405	17.38
551.601	17.47
551.798	17.48
551.995	17.48
552.191	17.51
552.388	17.4
552.585	17.35
552.781	17.35
552.978	17.45
553.175	17.39
553.371	17.31
553.568	17.28
553.764	17.35
553.961	17.42
554.157	17.51
554.354	17.39
554.55	17.5
554.747	17.6
554.943	17.76
555.14	17.74
555.336	17.86
555.533	17.97
555.729	18.05
555.926	18.14
556.122	18.13
556.318	18.09
556.515	18.28
556.711	18.35
556.907	18.35
557.104	18.25
557.3	18.25
557.496	18.33
557.693	18.37
557.889	18.48
558.085	18.42
558.281	18.42
558.478	18.43
558.674	18.31
558.87	18.4
559.066	18.63
559.262	18.74
559.459	18.77
559.655	18.77
559.851	18.8
560.047	18.79
560.243	18.89
560.439	19
560.635	18.96
560.831	19.03
561.027	18.9
561.223	18.78
561.419	18.78
561.615	18.75
561.811	18.7
562.007	18.65
562.203	18.57
562.399	18.48
562.595	18.41
562.791	18.6
562.987	18.62
563.183	18.67
563.379	18.6
563.575	18.64
563.771	18.76
563.966	18.83
564.162	18.94
564.358	19.04
564.554	19.03
564.75	19.14
564.945	19.1
565.141	19.14
565.337	19.07
565.533	19.1
565.728	19.11
565.924	19.02
566.12	18.95
566.315	18.94
566.511	18.85
566.707	18.88
566.902	18.86
567.098	18.83
567.293	18.84
567.489	18.99
567.684	18.99
567.88	18.99
568.076	19.15
568.271	19.19
568.467	19.2
568.662	19.3
568.858	19.28
569.053	19.22
569.248	19.27
569.444	19.29
569.639	19.3
569.835	19.39
570.03	19.32
570.225	19.24
570.421	19.31
570.616	19.24
570.812	19.31
571.007	19.3
571.202	19.36
571.397	19.34
571.593	19.34
571.788	19.41
571.983	19.41
572.178	19.56
572.374	19.61
572.569	19.59
572.764	19.71
572.959	19.64
573.154	19.78
573.35	19.76
573.545	19.89
573.74	19.91
573.935	19.86
574.13	19.85
574.325	19.81
574.52	19.92
574.715	19.99
574.91	19.95
575.105	19.97
575.3	19.92
575.495	19.95
575.69	19.83
575.885	19.84
576.08	20.01
576.275	19.99
576.47	20.05
576.665	20.05
576.86	20.2
577.055	20.24
577.25	20.22
577.444	20.3
577.639	20.42
577.834	20.46
578.029	20.54
578.224	20.46
578.418	20.63
578.613	20.62
578.808	20.78
579.003	20.68
579.197	20.67
579.392	20.9
579.587	21.12
579.781	21.26
579.976	21.48
580.171	21.53
580.365	21.54
580.56	21.41
580.755	21.43
580.949	21.13
581.144	21.21
581.338	21.29
581.533	21.25
581.727	20.97
581.922	21.08
582.116	20.8
582.311	20.77
582.505	20.84
582.7	21.07
582.894	21.27
583.089	21.38
583.283	21.36
583.478	21.31
583.672	21.29
583.866	21.3
584.061	21.15
584.255	21.33
584.449	21.46
584.644	21.41
584.838	21.42
585.032	21.34
585.226	21.42
585.421	21.46
585.615	21.6
585.809	21.52
586.003	21.77
586.198	21.73
586.392	21.76
586.586	21.79
586.78	21.84
586.974	21.86
587.168	21.88
587.363	21.89
587.557	21.79
587.751	21.76
587.945	21.74
588.139	21.68
588.333	21.59
588.527	21.67
588.721	21.54
588.915	21.5
589.109	21.19
589.303	21.3
589.497	21.27
589.691	21.34
589.885	21.36
590.079	21.55
590.273	21.41
590.466	21.4
590.66	21.29
590.854	21.29
591.048	21.38
591.242	21.48
591.436	21.37
591.629	21.28
591.823	21.32
592.017	21.13
592.211	21
592.404	21.11
592.598	21.29
592.792	21.36
592.986	21.32
593.179	21.25
593.373	21.2
593.567	21.21
593.76	21.34
593.954	21.31
594.147	21.48
594.341	21.57
594.535	21.62
594.728	21.57
594.922	21.47
595.115	21.48
595.309	21.49
595.502	21.72
595.696	21.61
595.889	21.45
596.083	21.4
596.276	21.36
596.47	21.27
596.663	21.13
596.856	21.14
597.05	21.24
597.243	21.28
597.437	21.26
597.63	21.21
597.823	21.22
598.017	21.48
598.21	21.53
598.403	21.58
598.596	21.65
598.79	21.93
598.983	22.02
599.176	22.15
599.369	22.26
599.563	22.35
599.756	22.27
599.949	22.53
600.142	22.5
600.335	22.51
600.528	22.44
600.722	22.54
600.915	22.49
601.108	22.66
601.301	22.63
601.494	22.64
601.687	22.61
601.88	22.61
602.073	22.51
602.266	22.37
602.459	22.42
602.652	22.48
602.845	22.45
603.038	22.31
603.231	22.17
603.424	21.97
603.617	22.01
603.809	21.96
604.002	22.02
604.195	21.99
604.388	22.1
604.581	22.12
604.774	22.14
604.966	22.04
605.159	22.04
605.352	21.9
605.545	22.14
605.737	22.14
605.93	22.28
606.123	22.11
606.316	22.16
606.508	22.17
606.701	22.14
606.894	22.15
607.086	22.24
607.279	22.36
607.471	22.54
607.664	22.46
607.857	22.53
608.049	22.41
608.242	22.73
608.434	22.62
608.627	22.65
608.819	22.6
609.012	22.59
609.204	22.72
609.397	22.65
609.589	22.74
609.782	22.66
609.974	22.54
610.166	22.65
610.359	22.61
610.551	22.77
610.743	22.81
610.936	22.9
611.128	23.06
611.32	23.1
611.513	23.22
611.705	23.25
611.897	23.34
612.09	23.38
612.282	23.42
612.474	23.43
612.666	23.52
612.858	23.52
613.051	23.43
613.243	23.21
613.435	23.11
613.627	23.16
613.819	23.22
614.011	23.56
614.203	23.7
614.395	23.71
614.588	23.69
614.78	23.63
614.972	23.59
615.164	23.96
615.356	24.09
615.548	24.14
615.74	24.1
615.932	23.87
616.124	23.45
616.315	23.6
616.507	23.87
616.699	23.97
616.891	23.92
617.083	23.99
617.275	23.85
617.467	23.78
617.659	23.89
617.85	23.99
618.042	24.2
618.234	24.35
618.426	24.31
618.618	24.1
618.809	24.1
619.001	24.04
619.193	24.02
619.384	24.03
619.576	24.12
619.768	24.13
619.959	24.15
620.151	23.99
620.343	24.14
620.534	23.99
620.726	23.96
620.917	23.82
621.109	23.71
621.301	23.68
621.492	23.64
621.684	23.71
621.875	23.73
622.067	23.75
622.258	23.86
622.45	23.54
622.641	23.48
622.832	23.52
623.024	23.61
623.215	23.73
623.407	23.56
623.598	23.49
623.789	23.6
623.981	23.63
624.172	23.67
624.363	23.59
624.555	23.78
624.746	23.85
624.937	23.76
625.129	23.72
625.32	23.69
625.511	23.84
625.702	23.84
625.893	23.64
626.085	23.46
626.276	23.36
626.467	23.36
626.658	23.27
626.849	23.24
627.04	23.08
627.231	23.07
627.422	23.2
627.614	23.21
627.805	23.23
627.996	23.29
628.187	23.18
628.378	23.23
628.569	23.34
628.76	23.24
628.951	23.14
629.142	23.25
629.332	23.31
629.523	23.44
629.714	23.39
629.905	23.41
630.096	23.61
630.287	23.91
630.478	23.79
630.669	23.58
630.859	23.69
631.05	24.15
631.241	24.26
631.432	24.42
631.623	24.18
631.813	24.16
632.004	24.04
632.195	23.83
632.385	23.8
632.576	23.81
632.767	23.94
632.957	23.98
633.148	23.67
633.339	23.58
633.529	23.51
633.72	23.73
633.91	23.74
634.101	23.74
634.292	23.86
634.482	23.64
634.673	23.71
634.863	23.66
635.054	23.77
635.244	23.85
635.435	23.78
635.625	23.82
635.815	23.64
636.006	23.85
636.196	24.04
636.387	23.99
636.577	24.19
636.767	24.27
636.958	24.36
637.148	24.41
637.338	24.38
637.529	24.62
637.719	24.57
637.909	24.57
638.099	24.51
638.29	24.4
638.48	24.43
638.67	24.39
638.86	24.37
639.05	24.21
639.241	24.25
639.431	24.28
639.621	24.38
639.811	24.42
640.001	24.73
640.191	24.82
640.381	25.03
640.571	25.09
640.761	25.12
640.951	25.2
641.141	25.33
641.331	25.32
641.521	25.47
641.711	25.31
641.901	25.48
642.091	25.21
642.281	24.8
642.471	24.74
642.661	24.64
642.851	24.82
643.041	24.88
643.231	24.91
643.42	24.77
643.61	24.3
643.8	24.58
643.99	24.34
644.18	24.35
644.369	24.6
644.559	24.53
644.749	24.6
644.939	24.46
645.128	24.31
645.318	24.44
645.508	24.59
645.697	24.71
645.887	24.61
646.076	24.76
646.266	24.81
646.456	25.03
646.645	24.92
646.835	25.14
647.024	25.18
647.214	25.36
647.403	25.44
647.593	25.27
647.782	25.57
647.972	25.38
648.161	25.27
648.351	25.29
648.54	25.13
648.73	25.27
648.919	25.1
649.108	25.17
649.298	25.01
649.487	24.79
649.677	24.72
649.866	24.82
650.055	24.96
650.244	24.92
650.434	24.78
650.623	24.84
650.812	25.04
651.002	24.81
651.191	24.72
651.38	24.7
651.569	24.69
651.758	24.8
651.947	24.73
652.137	24.77
652.326	24.81
652.515	24.99
652.704	25.01
652.893	25.07
653.082	25.15
653.271	25.3
653.46	25.44
653.649	25.48
653.838	25.94
654.027	25.87
654.216	25.78
654.405	26.03
654.594	26.17
654.783	26.32
654.972	26.16
655.161	26.32
655.35	26.16
655.539	26.18
655.728	26.33
655.916	25.95
656.105	26.05
656.294	26.07
656.483	25.75
656.672	25.69
656.86	25.68
657.049	25.48
657.238	25.45
657.427	25.36
657.615	25.26
657.804	25.11
657.993	24.95
658.181	24.87
658.37	24.87
658.559	24.83
658.747	24.99
658.936	24.68
659.125	24.99
659.313	24.96
659.502	25
659.69	24.82
659.879	24.99
660.067	24.99
660.256	24.82
660.444	24.87
660.633	25.2
660.821	25
661.01	25.25
661.198	25.08
661.387	25.15
661.575	25.22
661.763	25.44
661.952	25.31
662.14	25.6
662.328	25.66
662.517	25.67
662.705	25.57
662.893	25.56
663.082	25.84
663.27	26.06
663.458	26.24
663.646	26.5
663.834	26.9
664.023	27.11
664.211	27.24
664.399	27.54
664.587	27.63
664.775	27.78
664.963	27.79
665.152	27.65
665.34	27.26
665.528	27.11
665.716	27.16
665.904	27.2
666.092	27.04
666.28	26.75
666.468	26.9
666.656	26.97
666.844	26.71
667.032	26.88
667.22	26.7
667.408	27.12
667.596	27.14
667.784	26.86
667.971	26.62
668.159	26.66
668.347	26.62
668.535	26.54
668.723	26.58
668.911	26.82
669.098	26.85
669.286	26.93
669.474	26.68
669.662	26.6
669.849	26.72
670.037	26.7
670.225	26.92
670.413	27.08
670.6	27.26
670.788	27.22
670.976	27.15
671.163	27.08
671.351	27.08
671.538	27.39
671.726	27.7
671.913	27.61
672.101	27.63
672.289	27.38
672.476	27.35
672.664	27.29
672.851	27.18
673.039	27.17
673.226	27.21
673.413	27.07
673.601	26.78
673.788	26.75
673.976	26.93
674.163	26.87
674.35	26.99
674.538	27.15
674.725	27.39
674.912	27.5
675.1	27.48
675.287	27.92
675.474	28.22
675.662	28.47
675.849	28.23
676.036	28.19
676.223	28.16
676.411	28.15
676.598	28.13
676.785	27.78
676.972	27.92
677.159	27.99
677.346	27.41
677.533	27.15
677.721	26.76
677.908	26.92
678.095	26.68
678.282	26.76
678.469	26.67
678.656	26.65
678.843	26.41
679.03	26.28
679.217	26.22
679.404	26.32
679.591	26.4
679.778	26.91
679.964	26.6
680.151	26.58
680.338	26.6
680.525	26.74
680.712	26.66
680.899	27.02
681.086	26.89
681.272	26.83
681.459	26.78
681.646	26.78
681.833	26.41
682.02	26.81
682.206	27.01
682.393	27.3
682.58	27.07
682.766	27.36
682.953	27.15
683.14	27.18
683.326	27.62
683.513	27.78
683.7	28.06
683.886	28.24
684.073	28.17
684.259	28.16
684.446	27.92
684.632	27.88
684.819	27.46
685.005	27.42
685.192	27.57
685.378	27.3
685.565	27.49
685.751	27.26
685.938	27.16
686.124	27.2
686.31	27.34
686.497	27.49
686.683	27.62
686.87	27.67
687.056	27.59
687.242	27.59
687.429	27.23
687.615	26.94
687.801	27.02
687.987	27.44
688.174	27.5
688.36	27.78
688.546	27.43
688.732	27.62
688.918	28.12
689.105	28.15
689.291	28.12
689.477	28.48
689.663	29.12
689.849	29.16
690.035	28.66
690.221	28.52
690.407	28.23
690.593	28.46
690.779	28.45
690.965	28.24
691.151	28.44
691.337	28.74
691.523	29.09
691.709	28.7
691.895	28.46
692.081	28.81
692.267	28.84
692.453	29.04
692.639	28.91
692.825	29.33
693.011	29.3
693.196	29.23
693.382	29.18
693.568	28.55
693.754	28.61
693.94	29.05
694.125	28.86
694.311	28.97
694.497	28.56
694.682	28.83
694.868	28.88
695.054	28.93
695.239	29.16
695.425	28.81
695.611	29.06
695.796	28.84
695.982	28.44
696.168	28.38
696.353	28.11
696.539	27.91
696.724	27.89
696.91	27.6
697.095	27.69
697.281	27.57
697.466	27.74
697.652	27.62
697.837	27.86
698.023	27.74
698.208	27.6
698.393	27.72
698.579	27.9
698.764	27.68
698.949	27.3
699.135	27.2
699.32	27.04
699.505	26.81
699.691	26.81
699.876	26.6
700.061	26.82
700.246	26.89
700.432	26.86
700.617	26.78
700.802	27.02
700.987	27.65
701.172	27.67
701.358	27.97
701.543	28.35
701.728	28.6
701.913	28.54
702.098	28.52
702.283	29.11
702.468	29.23
702.653	29.81
702.838	30.03
703.023	29.9
703.208	30.35
703.393	30.18
703.578	30.49
703.763	30.38
703.948	31
704.133	31.37
704.318	31.06
704.503	31.17
704.688	31.02
704.873	31.36
705.057	31.48
705.242	30.98
705.427	31.35
705.612	31.13
705.797	31.48
705.981	31.18
706.166	30.86
706.351	31.2
706.536	30.9
706.72	30.93
706.905	30.81
707.09	30.54
707.274	30.62
707.459	30.36
707.644	30.63
707.828	30.7
708.013	30.85
708.197	30.8
708.382	30.7
708.567	31.38
708.751	31.13
708.936	30.86
709.12	31.18
709.305	31.29
709.489	31.28
709.673	31.11
709.858	31.05
710.042	30.69
710.227	30.76
710.411	30.58
710.596	30.37
710.78	30.79
710.964	30.86
711.149	30.83
711.333	30.88
711.517	30.98
711.702	30.55
711.886	30.37
712.07	30.3
712.254	30.43
712.438	30.41
712.623	30.18
712.807	30.08
712.991	30.1
713.175	29.85
713.359	29.64
713.544	29.81
713.728	29.78
713.912	29.7
714.096	30.18
714.28	29.83
714.464	29.75
714.648	29.68
714.832	29.47
715.016	29.84
715.2	29.77
715.384	29.95
715.568	29.98
715.752	30.11
715.936	30.15
716.12	29.89
716.304	30.12
716.488	30.39
716.671	31
716.855	31.44
717.039	30.92
717.223	30.8
717.407	30.6
717.59	30.6
717.774	30.86
717.958	31
718.142	31.48
718.325	31.68
718.509	31.47
718.693	30.99
718.877	30.67
719.06	31.14
719.244	31.21
719.428	31.63
719.611	31.76
719.795	31.82
719.978	31.61
720.162	31.58
720.345	31.87
720.529	32.27
720.713	32.95
720.896	32.88
721.08	32.22
721.263	32.69
721.446	32.81
721.63	32.5
721.813	32.2
721.997	32.33
722.18	32.04
722.364	31.88
722.547	31.66
722.73	31.38
722.914	31.62
723.097	32.28
723.28	32.56
723.464	32.46
723.647	32.64
723.83	33.67
724.013	33.87
724.197	34.09
724.38	34.06
724.563	34.19
724.746	34.41
724.929	34.04
725.112	34.63
725.296	33.7
725.479	33.68
725.662	33.73
725.845	33.32
726.028	33.31
726.211	33.24
726.394	32.95
726.577	33.29
726.76	33.01
726.943	33.21
727.126	32.5
727.309	32.96
727.492	32.67
727.675	32.13
727.858	31.79
728.041	31.8
728.224	31.88
728.407	32.48
728.589	31.87
728.772	31.14
728.955	31.13
729.138	30.71
729.321	30.76
729.503	30.91
729.686	31.38
729.869	31.06
730.052	31.08
730.234	30.48
730.417	30.1
730.6	30.2
730.782	30.37
730.965	30.78
731.148	31.54
731.33	31.82
731.513	32.09
731.695	31.84
731.878	32.07
732.061	32.19
732.243	32.6
732.426	32.33
732.608	32.65
732.791	33.03
732.973	32.83
733.156	32.75
733.338	32.65
733.52	32.56
733.703	32.61
733.885	32.64
734.068	32.71
734.25	32.63
734.432	32.86
734.615	33.25
734.797	33.43
734.979	33.22
735.162	32.65
735.344	32.53
735.526	32.5
735.708	33.22
735.891	33.54
736.073	33.65
736.255	34.18
736.437	34.33
736.619	33.44
736.802	33.93
736.984	34.08
737.166	34.84
737.348	34.97
737.53	35.43
737.712	34.91
737.894	35.11
738.076	35.15
738.258	34.51
738.44	34.76
738.622	35.1
738.804	34.72
738.986	34.29
739.168	34.12
739.35	34.04
739.532	34.02
739.714	34.39
739.896	34.25
740.078	33.72
740.259	34.03
740.441	33.9
740.623	33.93
740.805	34.04
740.987	34.48
741.168	34.85
741.35	35.57
741.532	35.51
741.714	34.62
741.895	34.88
742.077	35.4
742.259	35.72
742.44	36.41
742.622	36.35
742.804	36.74
742.985	36.36
743.167	36.26
743.348	36.78
743.53	37.5
743.711	38.37
743.893	39.05
744.075	38.84
744.256	38.58
744.438	37.96
744.619	38.25
744.8	38.12
744.982	38.77
745.163	38.32
745.345	37.6
745.526	36.99
745.707	37.37
745.889	36.88
746.07	37.6
746.252	38.27
746.433	38.9
746.614	39.39
746.795	39.02
746.977	39.31
747.158	38.92
747.339	38.63
747.52	38.68
747.702	38.16
747.883	37.88
748.064	37
748.245	36.38
748.426	35.97
748.607	35.55
748.788	36.08
748.97	35.77
749.151	36.11
749.332	36.1
749.513	35.41
749.694	36.05
749.875	36.43
750.056	37.04
750.237	37.32
750.418	37.2
750.599	37.19
750.78	37.3
750.96	37.3
751.141	37.6
751.322	37.75
751.503	38.58
751.684	38.35
751.865	37.85
752.046	37.86
752.226	37.3
752.407	36.99
752.588	37.09
752.769	36.28
752.949	36.88
753.13	36.98
753.311	37.38
753.492	36.74
753.672	36.38
753.853	36.77
754.034	36.48
754.214	37.18
754.395	37.1
754.575	36.94
754.756	37.61
754.937	37.84
755.117	37.44
755.298	36.99
755.478	37.47
755.659	37.71
755.839	37.01
756.02	37.59
756.2	38.09
756.381	38.32
756.561	38.37
756.741	38.55
756.922	38.12
757.102	39.01
757.283	38.92
757.463	38.33
757.643	38.5
757.823	39.13
758.004	38.74
758.184	37.44
758.364	37.89
758.545	38.15
758.725	37.32
758.905	37.11
759.085	35.94
759.265	35.27
759.446	35.8
759.626	35.76
759.806	35.82
759.986	35.09
760.166	35.75
760.346	35.28
760.526	34.85
760.706	34.74
760.886	34.83
761.066	34.98
761.246	35.84
761.426	35.76
761.606	35.47
761.786	34.83
761.966	35.42
762.146	35.42
762.326	35.5
762.506	35.31
762.686	35.17
762.866	34.54
763.046	34.82
763.225	34.16
763.405	33.72
763.585	33.7
763.765	33.73
763.945	32.86
764.124	32.79
764.304	32.61
764.484	32.48
764.664	32.93
764.843	33.13
765.023	33.26
765.203	33.46
765.382	33.92
765.562	33.85
765.741	33.99
765.921	34.75
766.101	34.63
766.28	34.74
766.46	35.21
766.639	35.49
766.819	35.85
766.998	35.73
767.178	35.58
767.357	35.96
767.537	36.39
767.716	36.65
767.896	36.98
768.075	37.23
768.254	37.9
768.434	38.15
768.613	37.63
768.792	38.4
768.972	38.9
769.151	39.8
769.33	39.32
769.51	39.42
769.689	38.93
769.868	39.67
770.047	39.93
770.226	40.6
770.406	40.4
770.585	40.8
770.764	40.11
770.943	40.08
771.122	41.12
771.301	42.04
771.48	43.13
771.66	44.82
771.839	44.64
772.018	44.01
772.197	43.14
772.376	44.01
772.555	43.95
772.734	44.18
772.913	44.16
773.092	42.94
773.271	42.48
773.449	41.22
773.628	40.59
773.807	40.68
773.986	41.26
774.165	41.02
774.344	41.42
774.523	41.31
774.701	41.25
774.88	42.11
775.059	43.32
775.238	43.22
775.417	43.81
775.595	42.72
775.774	43.62
775.953	43.6
776.131	44
776.31	42.7
776.489	43.02
776.667	43.09
776.846	43
777.025	41.58
777.203	41.44
777.382	41.1
777.56	41.87
777.739	40.73
777.917	39.5
778.096	40.38
778.274	40.56
778.453	40.51
778.631	41.67
778.81	40.73
778.988	41.26
779.166	41.59
779.345	41.17
779.523	40.94
779.702	41.89
779.88	43.16
780.058	42.43
780.237	43.32
780.415	43.76
780.593	43.13
780.771	43.43
780.95	44.62
781.128	44.93
781.306	45.26
781.484	46.86
781.662	45.97
781.841	46.67
782.019	45.41
782.197	45.29
782.375	45.09
782.553	44.14
782.731	43.79
782.909	43
783.087	42.7
783.265	43.22
783.443	42.72
783.621	42.56
783.799	41.39
783.977	43.04
784.155	42.44
784.333	43.28
784.511	42.73
784.689	44.47
784.867	44.01
785.045	44.46
785.223	44.93
785.4	44
785.578	44.93
785.756	46.64
785.934	47.46
786.112	48.83
786.289	49.44
786.467	50.62
786.645	49.28
786.823	49.15
787	48.75
787.178	48.69
787.356	49.71
787.533	50.09
787.711	49.22
787.889	48.24
788.066	46.16
788.244	45.75
788.421	45.38
788.599	44.66
788.776	44.26
788.954	44.34
789.131	44.38
789.309	43.29
789.486	42.96
789.664	43.28
789.841	43.82
790.019	44.64
790.196	43.69
790.373	42.97
790.551	42.94
790.728	43.2
790.906	43.27
791.083	42.69
791.26	43.07
791.437	42.27
791.615	43.6
791.792	43.46
791.969	42.58
792.146	43.09
792.324	43.62
792.501	44.74
792.678	45.81
792.855	45.03
793.032	44.66
793.209	45.6
793.387	46.44
793.564	45.37
793.741	45.39
793.918	46.51
794.095	45.87
794.272	46.51
794.449	45.59
794.626	45.84
794.803	47.66
794.98	48.28
795.157	47.7
795.334	47.37
795.511	47.11
795.688	47.18
795.864	47.5
796.041	47.91
796.218	48.93
796.395	49.68
796.572	48.06
796.749	46.4
796.925	46.72
797.102	47.53
797.279	47.57
797.456	47.99
797.632	46.95
797.809	47.37
797.986	47.02
798.162	46.05
798.339	45.15
798.516	45.86
798.692	47.44
798.869	47.67
799.046	46.87
799.222	46.49
799.399	45.12
799.575	46.8
799.752	46.54
799.928	47.62
800.105	47.57
800.281	48.62
800.458	50.03
800.634	48.83
800.811	48.31
800.987	48.55
801.163	49.33
801.34	50.71
801.516	51.37
801.692	52.02
801.869	52.95
802.045	53
802.221	52.99
802.398	51.77
802.574	52.2
802.75	53.5
802.926	52.95
803.103	53.45
803.279	52.09
803.455	50.71
803.631	51.28
803.807	50.05
803.983	50.53
804.16	50.95
804.336	50.67
804.512	51.87
804.688	50.82
804.864	50.99
805.04	51.29
805.216	52.67
805.392	53.88
805.568	54.59
805.744	55.49
805.92	55.04
806.096	54.63
806.272	56.47
806.448	56.01
806.623	56.37
806.799	56.47
806.975	55.54
807.151	55.89
807.327	55.24
807.503	54.61
807.678	53.83
807.854	54.58
808.03	53.71
808.206	53.64
808.381	52.77
808.557	53.6
808.733	53.2
808.908	54.08
809.084	53.31
809.26	52.47
809.435	51.84
809.611	51.43
809.787	51.59
809.962	53.66
810.138	52.38
810.313	52.02
810.489	51.21
810.664	53.74
810.84	53.17
811.015	53.97
811.191	54.93
811.366	54.4
811.542	55.45
811.717	54.86
811.892	55.38
812.068	57.08
812.243	56.84
812.419	59.23
812.594	56.87
812.769	57.84
812.944	57.45
813.12	58.35
813.295	58.54
813.47	58.38
813.645	57.64
813.821	56.72
813.996	55.1
814.171	57.39
814.346	56.1
814.521	58.19
814.697	56.23
814.872	56.87
815.047	55.95
815.222	56.42
815.397	55.53
815.572	57.65
815.747	56.62
815.922	58.18
816.097	58.05
816.272	57.18
816.447	57.27
816.622	58.14
816.797	57.21
816.972	57.79
817.147	59.12
817.322	59.1
817.496	57.01
817.671	57.02
817.846	56.25
818.021	53.6
818.196	51.96
818.371	51.4
818.545	50.87
818.72	50.49
818.895	49.71
819.069	47.54
819.244	46.82
819.419	47.36
819.594	47.32
819.768	45.01
819.943	44.22
820.117	43.73
820.292	42
820.467	40.8
820.641	39.33
820.816	37.22
820.99	35.39
821.165	34.39
821.339	33.1
821.514	32.11
821.688	31.45
821.863	30.82
822.037	30.34
822.212	29.5
822.386	28.88
822.56	28.48
822.735	28.24
822.909	28.36
823.084	28.33
823.258	28.54
823.432	28.57
823.606	28.76
823.781	29.21
823.955	29.7
824.129	30.18
824.303	30.55
824.478	30.95
824.652	31.41
824.826	31.69
825	32.01
825.174	32.4
825.348	32.95
825.523	33.25
825.697	33.59
825.871	33.3
826.045	33.72
826.219	33.67
826.393	34.34
826.567	34.91
826.741	35.13
826.915	35.3
827.089	35.44
827.263	35.57
827.437	36.18
827.611	35.9
827.784	35.97
827.958	35.55
828.132	36.28
828.306	36.01
828.48	36.27
828.654	36.64
828.827	37.12
829.001	37.35
829.175	38.34
829.349	39.26
829.522	40.08
829.696	41.94
829.87	44.53
830.044	46.35
830.217	49.59
830.391	51.3
830.565	53.33
830.738	54.31
830.912	55.26
831.085	54.47
831.259	54.13
831.432	54.61
831.606	53.95
831.779	52.49
831.953	50.81
832.126	48.84
832.3	48.05
832.473	46.33
832.647	46.25
832.82	45.42
832.994	44.24
833.167	43.15
833.34	42.6
833.514	41.1
833.687	41.44
833.86	41.14
834.034	40.91
834.207	40.51
834.38	40.46
834.553	39.22
834.727	39.72
834.9	40.65
835.073	40.87
835.246	41.16
835.419	42.49
835.593	42.67
835.766	43.5
835.939	44.43
836.112	44.97
836.285	46.24
836.458	49.46
836.631	50.27
836.804	51.26
836.977	53.31
837.15	54.04
837.323	54.61
837.496	56.5
837.669	58.58
837.842	59.02
838.015	62.22
838.188	62.04
838.361	62.58
838.533	64.11
838.706	66.99
838.879	67.27
839.052	70.55
839.225	71.46
839.398	71.51
839.57	72.34
839.743	73.08
839.916	70.62
840.088	73.35
840.261	73.34
840.434	70.9
840.607	69.96
840.779	72.61
840.952	71.17
841.124	70.77
841.297	70.83
841.47	67.78
841.642	65.26
841.815	67.11
841.987	62.12
842.16	60.51
842.332	65.06
842.505	68.17
842.677	66.67
842.85	69.38
843.022	71.04
843.194	70.59
843.367	73.65
843.539	79.73
843.712	81.18
843.884	86.77
844.056	92.23
844.229	92.11
844.401	92.28
844.573	94.02
844.745	96.41
844.918	100.35
845.09	102.67
845.262	107.1
845.434	101.9
845.606	104.93
845.779	103.24
845.951	100.35
846.123	99.87
846.295	96.54
846.467	94.76
846.639	91.63
846.811	90.51
846.983	89.84
847.155	88.19
847.327	91.89
847.499	91.84
847.671	94.62
847.843	95.11
848.015	94.65
848.187	95.65
848.359	102.46
848.531	106.17
848.703	108.62
848.875	116.33
849.047	117.49
849.218	118.82
849.39	120.18
849.562	119.31
849.734	121.86
849.905	124.31
850.077	127.82
850.249	118.98
850.421	122.32
850.592	118.36
850.764	112.65
850.936	116.74
851.107	110.26
851.279	107.97
851.451	108.58
851.622	111.17
851.794	108.68
851.965	106.22
852.137	104.84
852.308	101.95
852.48	104.58
852.651	109.98
852.823	108.01
852.994	116.94
853.166	119.61
853.337	122.67
853.509	118.84
853.68	121.42
853.851	121.03
854.023	125.26
854.194	127.99
854.365	126.57
854.537	117.18
854.708	116.8
854.879	109.03
855.05	108.03
855.222	108.6
855.393	105.28
855.564	108.11
855.735	112.99
855.906	116.41
856.078	114.91
856.249	113.08
856.42	117.06
856.591	122.81
856.762	129.81
856.933	129.74
857.104	119.35
857.275	125.05
857.446	119.52
857.617	124.05
857.788	117.17
857.959	118.7
858.13	119.03
858.301	125.28
858.472	116.47
858.643	118.16
858.814	121.47
858.985	127.96
859.155	124.49
859.326	132.67
859.497	127.51
859.668	134.09
859.839	129.62
860.009	135.55
860.18	131.42
860.351	134.48
860.522	128.92
860.692	126.77
860.863	123.28
861.034	124.34
861.204	127.22
861.375	127.22
861.546	126.65
861.716	126.51
861.887	124.3
862.057	127.63
862.228	126.57
862.398	129.01
862.569	127.2
862.739	133
862.91	130.35
863.08	122.83
863.251	119.44
863.421	120.51
863.592	121.13
863.762	119.53
863.932	114.78
864.103	115.62
864.273	115.14
864.443	114.54
864.614	112.56
864.784	110.54
864.954	113.74
865.125	122.86
865.295	120.55
865.465	125.69
865.635	123.39
865.805	121.74
865.976	122.39
866.146	119.51
866.316	124.34
866.486	125.27
866.656	129.76
866.826	137.07
866.996	129.16
867.166	130.16
867.336	121.06
867.506	123.98
867.676	122.62
867.846	126.34
868.016	132.06
868.186	135.27
868.356	135.42
868.526	137.47
868.696	130.68
868.866	133.74
869.036	140.42
869.206	153.65
869.376	149.12
869.545	144.87
869.715	148.22
869.885	149.39
870.055	147.78
870.224	146.25
870.394	146.38
870.564	143.21
870.734	138.93
870.903	130.72
871.073	125.41
871.243	122.2
871.412	127.99
871.582	122.46
871.751	121.23
871.921	115.25
872.091	112.98
872.26	112.3
872.43	114.3
872.599	113.25
872.769	112.79
872.938	118.2
873.108	127.16
873.277	137.49
873.446	133.42
873.616	134.69
873.785	136.18
873.955	135.03
874.124	140.4
874.293	135.78
874.463	135.23
874.632	142.56
874.801	141.25
874.971	137.57
875.14	133.09
875.309	142.38
875.478	143.74
875.647	151.84
875.817	157.82
875.986	152.18
876.155	153.33
876.324	154.25
876.493	154.09
876.662	155.71
876.831	162.65
877	151.94
877.17	144.7
877.339	144.15
877.508	141.68
877.677	144.77
877.846	146.34
878.015	152.24
878.184	143.25
878.352	132.09
878.521	127.09
878.69	119.75
878.859	124.47
879.028	121.63
879.197	118.18
879.366	108.44
879.534	102.82
879.703	94.85
879.872	83.3
880.041	77.97
880.21	71.93
880.378	67.1
880.547	63.06
880.716	56.75
880.884	54.27
881.053	50.67
881.222	48.92
881.39	45.58
881.559	44.84
881.727	43.85
881.896	42.53
882.065	42.14
882.233	40.93
882.402	39.78
882.57	39.9
882.739	39.54
882.907	40.35
883.076	40.75
883.244	41.78
883.412	42.03
883.581	42.49
883.749	43.63
883.918	43.99
884.086	45.46
884.254	47.35
884.423	48.41
884.591	49.59
884.759	51.96
884.927	52.5
885.096	53.45
885.264	56.18
885.432	59.65
885.6	63.33
885.769	67.06
885.937	67.75
886.105	71.55
886.273	75.59
886.441	81.81
886.609	83.05
886.777	86.63
886.945	90.75
887.113	88.54
887.281	87.55
887.449	89.98
887.617	94.15
887.785	96.7
887.953	97.61
888.121	98.99
888.289	98.77
888.457	98.07
888.625	102.01
888.793	104.12
888.961	109.04
889.129	113.7
889.296	113.81
889.464	112.49
889.632	116.26
889.8	115.07
889.967	115.73
890.135	117.48
