Data from 2938818__Reflection_02.txt Node
Date: Thu Mar 12 14:55:17 EDT 2015
User: robert
Spectrometer: USB4E03002
Autoset integration time: false
Trigger mode: 4
Integration Time (sec): 1.000000E-1
Scans to average: 10
Electric dark correction enabled: false
Nonlinearity correction enabled: false
Boxcar width: 5
Stray light correction enabled: false
XAxis mode: Wavelengths
Stop averaging: false
Number of Pixels in Spectrum: 3648
>>>>>Begin Spectral Data<<<<<
177.575	-481.02
177.794	-459.76
178.014	-255.12
178.233	-198.96
178.452	-220.76
178.672	-242.42
178.891	-214.29
179.11	-277.27
179.33	-298.41
179.549	-317.21
179.768	-405.13
179.987	-378.5
180.207	-491.5
180.426	-809.66
180.645	-2085.71
180.864	-2570.87
181.084	-6621.95
181.303	2194.35
181.522	26054.55
181.741	-7410.53
181.96	-1929.49
182.179	-4305.8
182.398	-11016
182.618	-7909.37
182.837	6412.5
183.056	2227.83
183.275	898.61
183.494	1072.41
183.713	1048.75
183.932	694.05
184.151	664.9
184.37	537.56
184.589	662.97
184.808	708.65
185.027	750.42
185.246	712.88
185.465	997.08
185.684	1296.59
185.903	744.3
186.122	712.09
186.341	955.18
186.56	805.32
186.779	985.37
186.998	733.6
187.216	571.4
187.435	609.38
187.654	765.85
187.873	642.3
188.092	646.67
188.311	966.18
188.53	808.77
188.748	666.11
188.967	1001.79
189.186	568.14
189.405	784.62
189.623	983.4
189.842	1038.21
190.061	1218.93
190.28	1241.23
190.498	946.9
190.717	767.28
190.936	1247.03
191.154	1287.77
191.373	589
191.592	757.96
191.81	568.6
192.029	672.75
192.248	726.43
192.466	603.5
192.685	718.98
192.904	739.61
193.122	1090.03
193.341	1057.78
193.559	1127.44
193.778	3235.48
193.996	-2636.28
194.215	-1789.66
194.433	-18147.06
194.652	1390.83
194.87	3486.21
195.089	2037.75
195.307	2702.75
195.526	2495.69
195.744	2294.74
195.963	3075.25
196.181	1649.75
196.399	1342.62
196.618	2693.58
196.836	5049.09
197.055	-1985.93
197.273	5893.75
197.491	4975.86
197.71	9670
197.928	6787.8
198.146	4457.38
198.365	1024.54
198.583	1072.8
198.801	758.22
199.019	900
199.238	1053.76
199.456	643.22
199.674	1003.61
199.892	1203.11
200.111	1380.47
200.329	1199.5
200.547	1122.39
200.765	-101800
200.983	5226.32
201.202	-11227.78
201.42	14821.43
201.638	1942.45
201.856	17950
202.074	-15433.33
202.292	3789.71
202.51	5291.84
202.728	1461.83
202.946	1977.78
203.165	1041.89
203.383	1248.18
203.601	896.76
203.819	599.59
204.037	846.79
204.255	978.81
204.473	1092.98
204.691	2589.47
204.909	1583.69
205.127	2218
205.345	1598.61
205.562	-26362.5
205.78	1657.81
205.998	931.6
206.216	776.33
206.434	489.84
206.652	416.77
206.87	397.74
207.088	327.12
207.306	299.13
207.523	295.65
207.741	271.95
207.959	263.39
208.177	274.62
208.395	328.83
208.612	376.63
208.83	409.82
209.048	484.17
209.266	349.18
209.483	386.8
209.701	445.13
209.919	420.76
210.136	448.54
210.354	478.99
210.572	474.27
210.79	433.42
211.007	432.69
211.225	419.31
211.442	412.04
211.66	466.05
211.878	406.18
212.095	272.36
212.313	224.58
212.53	218.9
212.748	190.64
212.966	214.16
213.183	223.3
213.401	193.3
213.618	207.17
213.836	189.22
214.053	211.64
214.271	210.9
214.488	387.09
214.705	434.13
214.923	394.64
215.14	453.16
215.358	478.63
215.575	465.35
215.793	693.5
216.01	540.3
216.227	741.57
216.445	574.16
216.662	495.04
216.879	411.92
217.097	486.1
217.314	520.91
217.531	451.77
217.749	500.52
217.966	420.75
218.183	375.39
218.4	395.07
218.618	313.25
218.835	288.4
219.052	250.88
219.269	240.94
219.487	231.21
219.704	213.36
219.921	198.66
220.138	165.62
220.355	174.92
220.572	161.54
220.79	154.03
221.007	151.05
221.224	161.77
221.441	168.98
221.658	164.14
221.875	153.79
222.092	143.16
222.309	145.68
222.526	149.43
222.743	133.68
222.96	125.02
223.177	132.54
223.394	131.45
223.611	120.97
223.828	126.31
224.045	125.68
224.262	125.59
224.479	123.96
224.696	112.34
224.913	103.58
225.13	104.25
225.347	105.22
225.564	93.45
225.781	83.9
225.997	83.75
226.214	70.98
226.431	59.97
226.648	52.42
226.865	44.19
227.082	37.86
227.298	34
227.515	29.15
227.732	26.35
227.949	24.8
228.165	22.39
228.382	19.49
228.599	18.4
228.816	18.59
229.032	18.19
229.249	17.88
229.466	17.36
229.682	16.99
229.899	17.66
230.116	17.18
230.332	16.3
230.549	18.21
230.765	18.76
230.982	19.95
231.199	20.27
231.415	21.77
231.632	23.34
231.848	25.33
232.065	26.57
232.281	28.23
232.498	29.44
232.714	33.01
232.931	32.78
233.147	32.21
233.364	32.57
233.58	34.47
233.797	33.43
234.013	33.51
234.23	33.9
234.446	32.39
234.662	30.87
234.879	30.77
235.095	29.73
235.312	31.32
235.528	32.07
235.744	31.95
235.961	31
236.177	32.01
236.393	32.19
236.61	31.23
236.826	33.6
237.042	34.81
237.258	35.02
237.475	35.6
237.691	35.81
237.907	36.34
238.123	36.86
238.339	36.93
238.556	36.51
238.772	35.85
238.988	35.17
239.204	33.24
239.42	30.47
239.636	29.51
239.853	28.93
240.069	26.59
240.285	24.98
240.501	23.67
240.717	22.01
240.933	19.85
241.149	19.32
241.365	18.56
241.581	17.32
241.797	17.48
242.013	16.57
242.229	15.57
242.445	14.79
242.661	14.55
242.877	13.97
243.093	14.01
243.309	14.91
243.525	14.02
243.741	13.95
243.957	15.74
244.173	15.99
244.388	16.73
244.604	16.42
244.82	16.69
245.036	16.21
245.252	15.92
245.468	14.25
245.683	12.89
245.899	12.13
246.115	11.67
246.331	10.39
246.547	9.67
246.762	9
246.978	9.06
247.194	9.02
247.409	8.73
247.625	8.77
247.841	9.57
248.057	9.87
248.272	10.48
248.488	11.03
248.703	10.97
248.919	11.65
249.135	12.32
249.35	12.73
249.566	13.27
249.782	14.38
249.997	15.26
250.213	15.05
250.428	14.44
250.644	14.26
250.859	13.92
251.075	14.59
251.29	14.55
251.506	14.57
251.721	14.17
251.937	14.07
252.152	14.31
252.368	13.89
252.583	13.26
252.798	13.78
253.014	13.66
253.229	14.15
253.445	14.72
253.66	14.26
253.875	14.92
254.091	15.62
254.306	15.79
254.521	15.98
254.737	16.75
254.952	17.02
255.167	16.64
255.383	17.6
255.598	17.46
255.813	16.4
256.028	16.91
256.244	16.24
256.459	16.41
256.674	16.2
256.889	16.46
257.104	15.75
257.32	16.36
257.535	15.41
257.75	14.59
257.965	13.61
258.18	12.9
258.395	11.62
258.61	10.68
258.826	9.6
259.041	8.94
259.256	8.15
259.471	7.78
259.686	7.21
259.901	7.25
260.116	7
260.331	6.88
260.546	6.84
260.761	7.02
260.976	7.44
261.191	7.88
261.406	8.31
261.621	8.67
261.836	9.07
262.05	9.48
262.265	10.22
262.48	10.5
262.695	11.1
262.91	11.95
263.125	12.61
263.34	12.62
263.555	12.82
263.769	12.99
263.984	12.98
264.199	12.92
264.414	13.67
264.629	13.84
264.843	13.76
265.058	13.47
265.273	13.22
265.488	12.88
265.702	12.3
265.917	11.64
266.132	11.38
266.346	11.23
266.561	11.46
266.776	11.35
266.99	10.78
267.205	10.79
267.42	11.25
267.634	11.64
267.849	11.19
268.063	11.13
268.278	11.38
268.492	11.52
268.707	11.48
268.922	11.26
269.136	10.8
269.351	10.66
269.565	10.17
269.78	9.51
269.994	8.99
270.209	9.21
270.423	9.52
270.637	9.75
270.852	9.52
271.066	9.68
271.281	9.4
271.495	9.32
271.709	9
271.924	9.22
272.138	9.17
272.353	8.94
272.567	9.14
272.781	8.87
272.996	8.68
273.21	8.7
273.424	8.54
273.638	8.9
273.853	8.76
274.067	8.79
274.281	9.31
274.495	9.27
274.71	9.61
274.924	9.67
275.138	9.45
275.352	9.23
275.566	9.46
275.781	9.51
275.995	9.47
276.209	9.79
276.423	10.14
276.637	10.02
276.851	10.46
277.065	10.14
277.279	9.7
277.493	10.15
277.707	10.19
277.921	9.86
278.135	9.88
278.349	9.8
278.563	9.72
278.777	10.25
278.991	9.79
279.205	9.14
279.419	9.23
279.633	9.46
279.847	9.84
280.061	9.91
280.275	9.79
280.489	9.81
280.703	9.58
280.917	9.52
281.131	8.69
281.344	8.75
281.558	9.04
281.772	9.07
281.986	8.84
282.2	8.02
282.414	8.05
282.627	7.97
282.841	7.86
283.055	7.94
283.269	7.99
283.482	8.06
283.696	7.85
283.91	7.59
284.123	7.18
284.337	7.24
284.551	7.18
284.764	6.96
284.978	7.13
285.192	7.01
285.405	6.56
285.619	6.49
285.833	6.56
286.046	6.61
286.26	6.5
286.473	6.52
286.687	6.48
286.9	6.88
287.114	7.03
287.327	7.16
287.541	7.11
287.754	8.05
287.968	7.99
288.181	7.97
288.395	7.99
288.608	8.27
288.822	8.47
289.035	8.47
289.248	8.47
289.462	8.32
289.675	7.93
289.889	8
290.102	7.11
290.315	6.97
290.529	6.92
290.742	7.01
290.955	7.07
291.169	7.26
291.382	7.46
291.595	7.61
291.808	7.76
292.022	8.2
292.235	8.64
292.448	8.85
292.661	8.93
292.875	9.4
293.088	9.41
293.301	9.58
293.514	9.74
293.727	10.23
293.94	9.79
294.153	9.83
294.367	9.6
294.58	9.39
294.793	9.41
295.006	9.44
295.219	9.27
295.432	9.41
295.645	9.19
295.858	9.01
296.071	8.51
296.284	8.8
296.497	8.72
296.71	8.38
296.923	8.38
297.136	8.5
297.349	8.72
297.562	8.85
297.775	8.91
297.988	8.78
298.201	8.8
298.414	8.9
298.626	8.86
298.839	8.87
299.052	9.46
299.265	9.29
299.478	9.28
299.691	9.33
299.903	9.24
300.116	9.32
300.329	9.99
300.542	10.11
300.755	10.28
300.967	10.23
301.18	10.5
301.393	10.56
301.605	10.59
301.818	10.97
302.031	11.11
302.243	11.14
302.456	11.24
302.669	10.69
302.881	10.55
303.094	10.61
303.307	10.66
303.519	10.45
303.732	10.33
303.944	10.63
304.157	10.47
304.37	10.22
304.582	10.46
304.795	10.16
305.007	10.89
305.22	11.11
305.432	10.85
305.645	11.07
305.857	11.58
306.069	11.86
306.282	11.83
306.494	11.93
306.707	12
306.919	12.27
307.132	12.43
307.344	12.17
307.556	12.11
307.769	12.39
307.981	12.35
308.193	11.87
308.406	11.61
308.618	11.78
308.83	11.77
309.043	11.66
309.255	11.16
309.467	11.24
309.679	10.94
309.892	10.98
310.104	10.9
310.316	11.2
310.528	11.29
310.74	11.25
310.953	11.33
311.165	11.18
311.377	11.29
311.589	11.52
311.801	11.66
312.013	11.66
312.225	11.72
312.437	12.01
312.649	11.79
312.862	12.04
313.074	12.12
313.286	11.93
313.498	12.3
313.71	12.37
313.922	12.36
314.134	12.12
314.346	12.11
314.558	12.52
314.77	12.6
314.982	12.76
315.193	12.91
315.405	12.89
315.617	12.85
315.829	12.69
316.041	12.62
316.253	12.91
316.465	12.86
316.677	13.63
316.888	13.71
317.1	13.52
317.312	13.44
317.524	12.95
317.736	13.39
317.947	14.23
318.159	14.31
318.371	14.93
318.583	14.77
318.794	15.36
319.006	14.99
319.218	14.46
319.43	14.29
319.641	14.56
319.853	15.07
320.064	14.95
320.276	14.47
320.488	14.7
320.699	14.2
320.911	13.91
321.123	13.78
321.334	14.08
321.546	14.06
321.757	14.45
321.969	14.17
322.18	13.94
322.392	13.8
322.603	13.99
322.815	13.71
323.026	14.11
323.238	13.99
323.449	13.63
323.661	13.79
323.872	13.61
324.083	13.77
324.295	13.61
324.506	13.46
324.718	13.56
324.929	13.59
325.14	14.03
325.352	13.77
325.563	14.14
325.774	14.42
325.986	14.35
326.197	14.65
326.408	14.33
326.62	14.67
326.831	14.67
327.042	14.78
327.253	14.45
327.464	14.32
327.676	14.3
327.887	14.1
328.098	13.86
328.309	13.67
328.52	13.71
328.732	13.89
328.943	13.79
329.154	13.91
329.365	13.89
329.576	13.95
329.787	14.13
329.998	14.44
330.209	14.96
330.42	15.26
330.631	15.66
330.842	15.85
331.053	15.36
331.264	15.25
331.475	15.53
331.686	15.19
331.897	14.99
332.108	14.96
332.319	14.82
332.53	14.67
332.741	14.66
332.952	14.24
333.163	14.1
333.374	14.45
333.585	14.56
333.795	14.78
334.006	15.11
334.217	15.53
334.428	15.47
334.639	15.3
334.849	14.89
335.06	14.79
335.271	14.78
335.482	14.71
335.692	14.81
335.903	14.95
336.114	14.57
336.325	14.64
336.535	14.8
336.746	14.74
336.957	14.85
337.167	15.26
337.378	15.45
337.589	15.45
337.799	15.27
338.01	15.12
338.22	14.87
338.431	15.34
338.642	15.36
338.852	15.08
339.063	14.66
339.273	14.73
339.484	14.65
339.694	14.56
339.905	14.37
340.115	14.51
340.326	14.56
340.536	14.91
340.746	14.34
340.957	14.21
341.167	14.26
341.378	14.54
341.588	14.28
341.799	14.15
342.009	14.19
342.219	14.26
342.43	14.24
342.64	14.01
342.85	13.52
343.061	13.43
343.271	13.24
343.481	12.87
343.691	12.75
343.902	12.88
344.112	13
344.322	12.86
344.532	12.89
344.743	12.78
344.953	13.01
345.163	13.13
345.373	13.05
345.583	12.95
345.793	13.23
346.004	13.45
346.214	13.51
346.424	13.47
346.634	13.27
346.844	13.49
347.054	13.67
347.264	13.2
347.474	13.26
347.684	13.62
347.894	13.63
348.104	13.51
348.314	13.31
348.524	13.42
348.734	13.49
348.944	13.75
349.154	13.62
349.364	13.4
349.574	13.54
349.784	13.8
349.994	13.64
350.204	13.62
350.413	13.55
350.623	13.77
350.833	13.64
351.043	13.32
351.253	13.23
351.463	13.3
351.672	13.49
351.882	13.56
352.092	13.21
352.302	13.24
352.511	13.11
352.721	13.2
352.931	13
353.141	12.86
353.35	12.96
353.56	12.9
353.77	12.72
353.979	12.43
354.189	12.59
354.399	12.66
354.608	12.59
354.818	12.72
355.027	12.59
355.237	12.4
355.447	12.39
355.656	12.17
355.866	12.04
356.075	11.95
356.285	11.96
356.494	11.52
356.704	11.21
356.913	11.19
357.123	11.27
357.332	11.15
357.542	11.19
357.751	11.19
357.96	11.25
358.17	11.25
358.379	11.25
358.589	11.41
358.798	11.37
359.007	11.43
359.217	11.18
359.426	11.03
359.635	10.98
359.845	10.83
360.054	10.61
360.263	10.57
360.472	10.42
360.682	10.28
360.891	10.17
361.1	10.14
361.309	10.05
361.519	10.13
361.728	10.18
361.937	10.19
362.146	10.25
362.355	10.37
362.564	10.36
362.774	10.53
362.983	10.6
363.192	10.49
363.401	10.64
363.61	10.77
363.819	10.76
364.028	10.95
364.237	10.93
364.446	10.87
364.655	10.78
364.864	10.92
365.073	10.94
365.282	10.88
365.491	10.89
365.7	11.08
365.909	11.07
366.118	11.18
366.327	10.97
366.536	10.93
366.745	10.83
366.954	11.14
367.162	10.96
367.371	11.03
367.58	11.14
367.789	11
367.998	10.66
368.207	10.77
368.415	10.73
368.624	10.78
368.833	10.98
369.042	11.03
369.25	10.87
369.459	10.89
369.668	10.64
369.877	10.71
370.085	10.69
370.294	10.85
370.503	10.37
370.711	10.41
370.92	10.04
371.129	10.08
371.337	10.2
371.546	10.05
371.754	10.15
371.963	9.86
372.171	9.55
372.38	9.66
372.589	9.81
372.797	10.05
373.006	9.98
373.214	10.22
373.423	10
373.631	10.11
373.84	10.18
374.048	9.91
374.256	10.18
374.465	10.12
374.673	10.18
374.882	10.06
375.09	9.76
375.298	9.44
375.507	9.38
375.715	9.54
375.923	9.2
376.132	9.2
376.34	9.35
376.548	9.34
376.757	9.43
376.965	9.25
377.173	9.08
377.381	9.28
377.59	9.4
377.798	9.46
378.006	9.14
378.214	9.44
378.423	9.45
378.631	9.28
378.839	9.05
379.047	9.2
379.255	9.2
379.463	9.29
379.671	9.21
379.879	9.38
380.088	9.26
380.296	9.39
380.504	9.31
380.712	9.31
380.92	9.52
381.128	9.76
381.336	9.53
381.544	9.39
381.752	9.34
381.96	9.2
382.168	9.19
382.376	9.24
382.584	9.16
382.791	9.08
382.999	8.97
383.207	8.69
383.415	8.68
383.623	8.61
383.831	8.85
384.039	8.9
384.247	9.06
384.454	8.92
384.662	8.78
384.87	8.78
385.078	8.67
385.285	8.49
385.493	8.49
385.701	8.42
385.909	8.35
386.116	8.38
386.324	8.26
386.532	8.22
386.739	8.13
386.947	8.15
387.155	8.02
387.362	8.04
387.57	8.01
387.778	8.05
387.985	8.09
388.193	8.43
388.4	8.37
388.608	8.54
388.816	8.49
389.023	8.38
389.231	8.07
389.438	8.17
389.646	8.17
389.853	8.25
390.061	8.03
390.268	7.86
390.475	7.6
390.683	7.44
390.89	7.18
391.098	7.15
391.305	7.16
391.512	7.31
391.72	7.27
391.927	6.93
392.135	6.66
392.342	6.75
392.549	6.88
392.756	6.74
392.964	6.86
393.171	6.93
393.378	6.98
393.586	7.07
393.793	6.96
394	6.94
394.207	7.04
394.414	7.15
394.622	7.26
394.829	7.22
395.036	7.17
395.243	7.2
395.45	7.11
395.657	6.97
395.864	6.96
396.072	7.14
396.279	7.14
396.486	7.23
396.693	7.34
396.9	7.07
397.107	6.74
397.314	6.88
397.521	6.89
397.728	6.88
397.935	6.95
398.142	6.91
398.349	6.97
398.556	6.95
398.763	7
398.97	7.14
399.177	7.35
399.383	7.63
399.59	7.57
399.797	7.47
400.004	7.61
400.211	7.75
400.418	7.92
400.625	7.94
400.831	7.91
401.038	7.93
401.245	7.79
401.452	7.71
401.658	7.54
401.865	7.61
402.072	7.51
402.279	7.3
402.485	7.21
402.692	6.98
402.899	6.85
403.105	6.87
403.312	6.67
403.519	6.47
403.725	6.36
403.932	6.24
404.138	6.24
404.345	6.17
404.552	6.03
404.758	6.05
404.965	6.07
405.171	5.89
405.378	5.94
405.584	6.12
405.791	6.31
405.997	6.38
406.204	6.42
406.41	6.4
406.617	6.58
406.823	6.69
407.029	6.74
407.236	6.85
407.442	6.89
407.649	6.95
407.855	6.77
408.061	6.67
408.268	6.54
408.474	6.47
408.68	6.48
408.887	6.36
409.093	6.4
409.299	6.05
409.505	5.87
409.712	6.08
409.918	5.98
410.124	5.94
410.33	5.89
410.537	6.02
410.743	6.26
410.949	6.27
411.155	6.4
411.361	6.46
411.567	6.64
411.773	6.64
411.98	6.49
412.186	6.51
412.392	6.4
412.598	6.48
412.804	6.47
413.01	6.35
413.216	6.24
413.422	6
413.628	6.12
413.834	6.08
414.04	6.18
414.246	6.32
414.452	6.37
414.658	6.44
414.864	6.46
415.07	6.64
415.275	6.53
415.481	6.54
415.687	6.57
415.893	6.34
416.099	6.26
416.305	6.1
416.511	5.97
416.716	5.76
416.922	5.83
417.128	5.85
417.334	5.52
417.539	5.48
417.745	5.31
417.951	5.21
418.157	5.26
418.362	5.22
418.568	5.24
418.774	5.15
418.979	5.15
419.185	5.05
419.391	4.82
419.596	4.86
419.802	4.83
420.008	4.79
420.213	4.87
420.419	4.77
420.624	4.74
420.83	4.69
421.035	4.74
421.241	4.75
421.446	4.77
421.652	4.84
421.857	4.9
422.063	4.96
422.268	5.02
422.474	4.84
422.679	4.88
422.885	4.93
423.09	4.87
423.295	4.7
423.501	4.66
423.706	4.63
423.911	4.55
424.117	4.43
424.322	4.43
424.527	4.43
424.733	4.51
424.938	4.52
425.143	4.42
425.349	4.53
425.554	4.69
425.759	4.75
425.964	4.81
426.169	4.86
426.375	4.95
426.58	4.91
426.785	4.97
426.99	5.04
427.195	5.09
427.4	5.21
427.605	5.13
427.811	5.18
428.016	5.14
428.221	5.16
428.426	5.23
428.631	5.22
428.836	5.3
429.041	5.32
429.246	5.34
429.451	5.34
429.656	5.28
429.861	5.47
430.066	5.6
430.271	5.6
430.476	5.58
430.681	5.43
430.886	5.55
431.09	5.44
431.295	5.41
431.5	5.4
431.705	5.29
431.91	5.21
432.115	5.05
432.32	4.86
432.524	4.86
432.729	4.85
432.934	4.94
433.139	4.87
433.343	4.92
433.548	4.89
433.753	4.88
433.958	5.03
434.162	5.3
434.367	5.32
434.572	5.46
434.776	5.51
434.981	5.4
435.186	5.47
435.39	5.49
435.595	5.51
435.799	5.52
436.004	5.46
436.209	5.36
436.413	5.15
436.618	5.07
436.822	4.96
437.027	4.9
437.231	4.97
437.436	4.91
437.64	4.79
437.845	4.75
438.049	4.75
438.253	4.77
438.458	4.75
438.662	4.68
438.867	4.72
439.071	4.6
439.275	4.53
439.48	4.45
439.684	4.41
439.888	4.52
440.093	4.55
440.297	4.55
440.501	4.49
440.706	4.51
440.91	4.52
441.114	4.48
441.318	4.54
441.523	4.58
441.727	4.71
441.931	4.75
442.135	4.71
442.339	4.7
442.543	4.69
442.748	4.71
442.952	4.71
443.156	4.78
443.36	4.85
443.564	4.88
443.768	4.78
443.972	4.69
444.176	4.71
444.38	4.8
444.584	4.8
444.788	4.83
444.992	4.91
445.196	4.81
445.4	4.77
445.604	4.7
445.808	4.72
446.012	4.71
446.216	4.64
446.42	4.58
446.624	4.43
446.828	4.39
447.032	4.34
447.235	4.28
447.439	4.29
447.643	4.27
447.847	4.27
448.051	4.21
448.254	4.3
448.458	4.35
448.662	4.39
448.866	4.42
449.069	4.34
449.273	4.38
449.477	4.4
449.681	4.45
449.884	4.42
450.088	4.44
450.292	4.4
450.495	4.3
450.699	4.37
450.902	4.36
451.106	4.46
451.31	4.54
451.513	4.56
451.717	4.62
451.92	4.69
452.124	4.78
452.327	4.83
452.531	4.93
452.734	4.99
452.938	4.93
453.141	4.99
453.345	4.96
453.548	5.02
453.752	5.06
453.955	5.14
454.158	5.14
454.362	5.18
454.565	5.25
454.769	5.36
454.972	5.39
455.175	5.57
455.379	5.58
455.582	5.6
455.785	5.57
455.988	5.49
456.192	5.32
456.395	5.25
456.598	5.25
456.801	5.14
457.005	4.97
457.208	4.89
457.411	4.77
457.614	4.61
457.817	4.65
458.021	4.61
458.224	4.6
458.427	4.54
458.63	4.55
458.833	4.53
459.036	4.47
459.239	4.51
459.442	4.6
459.645	4.52
459.848	4.56
460.051	4.51
460.254	4.51
460.457	4.41
460.66	4.51
460.863	4.51
461.066	4.53
461.269	4.53
461.472	4.55
461.675	4.5
461.878	4.53
462.081	4.56
462.284	4.61
462.486	4.63
462.689	4.74
462.892	4.69
463.095	4.68
463.298	4.6
463.5	4.76
463.703	4.71
463.906	4.92
464.109	4.98
464.311	5.1
464.514	5.18
464.717	5.25
464.92	5.31
465.122	5.35
465.325	5.45
465.528	5.54
465.73	5.46
465.933	5.41
466.135	5.15
466.338	5.17
466.541	5.18
466.743	5.1
466.946	5.06
467.148	5.09
467.351	5.16
467.553	5.13
467.756	5.04
467.958	5.09
468.161	5.19
468.363	5.28
468.566	5.25
468.768	5.17
468.971	5.06
469.173	4.96
469.375	4.98
469.578	4.97
469.78	4.98
469.983	5.01
470.185	5.1
470.387	5.1
470.59	5.08
470.792	5.02
470.994	5.06
471.196	5.15
471.399	5.24
471.601	5.23
471.803	5.2
472.005	5.15
472.208	5.08
472.41	4.98
472.612	4.97
472.814	4.82
473.016	4.9
473.218	4.78
473.421	4.81
473.623	4.88
473.825	4.79
474.027	4.81
474.229	4.74
474.431	4.84
474.633	4.86
474.835	4.88
475.037	4.97
475.239	4.99
475.441	5.02
475.643	5
475.845	4.94
476.047	4.89
476.249	4.76
476.451	4.8
476.653	4.65
476.855	4.6
477.057	4.48
477.258	4.55
477.46	4.51
477.662	4.54
477.864	4.56
478.066	4.5
478.268	4.55
478.469	4.53
478.671	4.5
478.873	4.62
479.075	4.64
479.276	4.58
479.478	4.52
479.68	4.57
479.882	4.58
480.083	4.5
480.285	4.51
480.487	4.46
480.688	4.48
480.89	4.52
481.091	4.42
481.293	4.43
481.495	4.47
481.696	4.45
481.898	4.29
482.099	4.16
482.301	4.08
482.502	3.99
482.704	3.95
482.905	3.88
483.107	3.8
483.308	3.76
483.51	3.69
483.711	3.6
483.913	3.58
484.114	3.57
484.315	3.58
484.517	3.6
484.718	3.62
484.92	3.63
485.121	3.65
485.322	3.67
485.524	3.68
485.725	3.73
485.926	3.79
486.127	3.8
486.329	3.82
486.53	3.82
486.731	3.79
486.932	3.82
487.134	3.83
487.335	3.82
487.536	3.85
487.737	3.84
487.938	3.83
488.139	3.82
488.341	3.86
488.542	3.87
488.743	3.83
488.944	3.89
489.145	3.85
489.346	3.83
489.547	3.84
489.748	3.83
489.949	3.88
490.15	3.91
490.351	3.94
490.552	3.9
490.753	3.88
490.954	3.93
491.155	3.9
491.356	3.93
491.557	3.93
491.758	3.93
491.959	3.93
492.159	3.97
492.36	3.97
492.561	3.99
492.762	4.03
492.963	4.1
493.164	4.08
493.364	4.17
493.565	4.25
493.766	4.36
493.967	4.33
494.167	4.35
494.368	4.31
494.569	4.32
494.769	4.41
494.97	4.43
495.171	4.5
495.371	4.55
495.572	4.56
495.773	4.51
495.973	4.5
496.174	4.63
496.375	4.68
496.575	4.61
496.776	4.64
496.976	4.56
497.177	4.52
497.377	4.46
497.578	4.51
497.778	4.57
497.979	4.63
498.179	4.65
498.38	4.65
498.58	4.69
498.78	4.78
498.981	4.76
499.181	4.89
499.382	4.87
499.582	4.86
499.782	4.88
499.983	4.86
500.183	4.88
500.383	4.92
500.584	4.91
500.784	4.84
500.984	4.93
501.184	5.05
501.385	5.03
501.585	5.06
501.785	5.19
501.985	5.24
502.185	5.25
502.386	5.32
502.586	5.35
502.786	5.37
502.986	5.45
503.186	5.47
503.386	5.43
503.586	5.46
503.786	5.54
503.987	5.47
504.187	5.45
504.387	5.49
504.587	5.48
504.787	5.46
504.987	5.52
505.187	5.58
505.387	5.57
505.587	5.62
505.786	5.63
505.986	5.62
506.186	5.68
506.386	5.74
506.586	5.7
506.786	5.65
506.986	5.79
507.186	5.87
507.386	5.94
507.585	5.99
507.785	6.07
507.985	6.03
508.185	6.08
508.384	6.09
508.584	6.15
508.784	6.2
508.984	6.21
509.183	6.16
509.383	6.13
509.583	6.14
509.782	6.17
509.982	6.16
510.182	6.28
510.381	6.27
510.581	6.36
510.781	6.35
510.98	6.44
511.18	6.54
511.379	6.65
511.579	6.74
511.778	6.74
511.978	6.74
512.177	6.82
512.377	6.87
512.576	6.95
512.776	6.96
512.975	7.05
513.175	7.04
513.374	7.01
513.573	7.07
513.773	7.04
513.972	7.16
514.172	7.28
514.371	7.36
514.57	7.37
514.77	7.41
514.969	7.48
515.168	7.53
515.367	7.57
515.567	7.68
515.766	7.66
515.965	7.76
516.164	7.83
516.364	7.81
516.563	7.82
516.762	7.84
516.961	7.92
517.16	7.98
517.359	8.01
517.559	8.06
517.758	8.12
517.957	8.16
518.156	8.21
518.355	8.23
518.554	8.34
518.753	8.35
518.952	8.39
519.151	8.44
519.35	8.47
519.549	8.52
519.748	8.62
519.947	8.64
520.146	8.68
520.345	8.71
520.544	8.75
520.743	8.82
520.942	8.85
521.141	8.96
521.339	9.07
521.538	9.14
521.737	9.21
521.936	9.28
522.135	9.34
522.333	9.54
522.532	9.63
522.731	9.75
522.93	9.75
523.129	9.89
523.327	9.99
523.526	9.96
523.725	10.09
523.923	10.13
524.122	10.16
524.321	10.28
524.519	10.19
524.718	10.23
524.917	10.25
525.115	10.23
525.314	10.24
525.512	10.24
525.711	10.32
525.909	10.3
526.108	10.34
526.306	10.33
526.505	10.35
526.703	10.34
526.902	10.32
527.1	10.32
527.299	10.4
527.497	10.38
527.696	10.38
527.894	10.36
528.092	10.37
528.291	10.38
528.489	10.4
528.688	10.38
528.886	10.42
529.084	10.46
529.283	10.53
529.481	10.52
529.679	10.58
529.877	10.64
530.076	10.71
530.274	10.79
530.472	10.85
530.67	10.94
530.869	11.04
531.067	11.16
531.265	11.21
531.463	11.22
531.661	11.31
531.859	11.39
532.057	11.45
532.255	11.44
532.454	11.44
532.652	11.48
532.85	11.53
533.048	11.55
533.246	11.55
533.444	11.61
533.642	11.67
533.84	11.71
534.038	11.75
534.236	11.8
534.434	11.92
534.632	11.99
534.83	12.02
535.027	12.08
535.225	12.1
535.423	12.14
535.621	12.18
535.819	12.18
536.017	12.19
536.215	12.2
536.412	12.23
536.61	12.22
536.808	12.24
537.006	12.34
537.203	12.34
537.401	12.45
537.599	12.5
537.797	12.55
537.994	12.57
538.192	12.61
538.39	12.71
538.587	12.76
538.785	12.82
538.983	12.85
539.18	12.85
539.378	12.87
539.575	12.81
539.773	12.84
539.97	12.81
540.168	12.83
540.366	12.83
540.563	12.79
540.761	12.76
540.958	12.76
541.155	12.74
541.353	12.75
541.55	12.78
541.748	12.86
541.945	12.87
542.143	12.93
542.34	12.98
542.537	13.03
542.735	13.11
542.932	13.1
543.129	13.17
543.327	13.28
543.524	13.36
543.721	13.4
543.919	13.43
544.116	13.54
544.313	13.65
544.51	13.68
544.708	13.78
544.905	13.85
545.102	14.11
545.299	14.19
545.496	14.2
545.693	14.25
545.891	14.28
546.088	14.33
546.285	14.25
546.482	14.2
546.679	14.27
546.876	14.24
547.073	14.17
547.27	14.09
547.467	14.06
547.664	14.08
547.861	14.07
548.058	14.1
548.255	14.1
548.452	14.1
548.649	14.17
548.846	14.26
549.043	14.26
549.24	14.33
549.437	14.2
549.633	14.22
549.83	14.2
550.027	14.18
550.224	14.13
550.421	14.07
550.618	14.19
550.814	14.08
551.011	14.06
551.208	14.12
551.405	14.02
551.601	14.19
551.798	14.3
551.995	14.34
552.191	14.35
552.388	14.46
552.585	14.55
552.781	14.49
552.978	14.46
553.175	14.35
553.371	14.41
553.568	14.53
553.764	14.5
553.961	14.45
554.157	14.42
554.354	14.42
554.55	14.35
554.747	14.39
554.943	14.44
555.14	14.59
555.336	14.56
555.533	14.51
555.729	14.6
555.926	14.62
556.122	14.54
556.318	14.5
556.515	14.5
556.711	14.47
556.907	14.39
557.104	14.45
557.3	14.43
557.496	14.4
557.693	14.28
557.889	14.23
558.085	14.26
558.281	14.46
558.478	14.66
558.674	14.69
558.87	14.78
559.066	14.88
559.262	14.77
559.459	14.79
559.655	14.93
559.851	15.11
560.047	15.07
560.243	15.13
560.439	15.02
560.635	14.9
560.831	14.92
561.027	14.99
561.223	14.85
561.419	14.79
561.615	14.83
561.811	14.83
562.007	14.79
562.203	14.76
562.399	14.79
562.595	14.87
562.791	14.93
562.987	15.01
563.183	14.96
563.379	15.2
563.575	15.37
563.771	15.35
563.966	15.33
564.162	15.37
564.358	15.38
564.554	15.11
564.75	15
564.945	14.99
565.141	14.87
565.337	14.79
565.533	14.62
565.728	14.46
565.924	14.49
566.12	14.48
566.315	14.43
566.511	14.45
566.707	14.59
566.902	14.65
567.098	14.68
567.293	14.73
567.489	14.75
567.684	14.79
567.88	14.9
568.076	14.85
568.271	14.93
568.467	14.9
568.662	14.96
568.858	15.04
569.053	14.99
569.248	14.84
569.444	14.79
569.639	14.76
569.835	14.76
570.03	14.75
570.225	14.7
570.421	14.65
570.616	14.65
570.812	14.58
571.007	14.55
571.202	14.51
571.397	14.57
571.593	14.6
571.788	14.64
571.983	14.67
572.178	14.72
572.374	14.81
572.569	14.76
572.764	14.82
572.959	14.8
573.154	14.81
573.35	14.73
573.545	14.78
573.74	14.83
573.935	14.84
574.13	14.81
574.325	14.85
574.52	14.77
574.715	14.76
574.91	14.69
575.105	14.78
575.3	14.69
575.495	14.83
575.69	14.92
575.885	14.96
576.08	14.85
576.275	14.99
576.47	15.04
576.665	15.13
576.86	15.25
577.055	15.39
577.25	15.42
577.444	15.55
577.639	15.67
577.834	15.7
578.029	15.76
578.224	15.97
578.418	15.97
578.613	15.9
578.808	15.9
579.003	15.91
579.197	15.89
579.392	15.82
579.587	15.86
579.781	15.7
579.976	15.62
580.171	15.62
580.365	15.52
580.56	15.42
580.755	15.48
580.949	15.46
581.144	15.57
581.338	15.63
581.533	15.7
581.727	15.75
581.922	15.76
582.116	15.99
582.311	15.95
582.505	16.18
582.7	16.18
582.894	16.25
583.089	16.47
583.283	16.37
583.478	16.53
583.672	16.7
583.866	16.82
584.061	16.89
584.255	16.84
584.449	16.86
584.644	16.86
584.838	17
585.032	17.02
585.226	16.88
585.421	16.95
585.615	16.77
585.809	16.74
586.003	16.65
586.198	16.9
586.392	16.72
586.586	16.81
586.78	16.79
586.974	16.68
587.168	16.51
587.363	16.52
587.557	16.47
587.751	16.3
587.945	16.03
588.139	15.88
588.333	15.59
588.527	15.69
588.721	15.57
588.915	15.56
589.109	15.64
589.303	15.78
589.497	15.66
589.691	15.54
589.885	15.78
590.079	15.95
590.273	16.1
590.466	16.23
590.66	16.18
590.854	16.18
591.048	16.13
591.242	16.08
591.436	16.08
591.629	16.11
591.823	16.28
592.017	16.16
592.211	16.12
592.404	16.05
592.598	16
592.792	15.96
592.986	16
593.179	15.98
593.373	16.02
593.567	16.04
593.76	16.15
593.954	16.09
594.147	16.23
594.341	16.23
594.535	16.17
594.728	16.19
594.922	16.19
595.115	16.16
595.309	16.2
595.502	16.11
595.696	16.13
595.889	16.05
596.083	16.02
596.276	15.9
596.47	16.1
596.663	16.12
596.856	16.11
597.05	16.12
597.243	16.15
597.437	16.13
597.63	16.2
597.823	16.23
598.017	16.35
598.21	16.39
598.403	16.58
598.596	16.46
598.79	16.53
598.983	16.5
599.176	16.48
599.369	16.52
599.563	16.69
599.756	16.75
599.949	16.72
600.142	16.62
600.335	16.65
600.528	16.49
600.722	16.47
600.915	16.45
601.108	16.48
601.301	16.65
601.494	16.52
601.687	16.39
601.88	16.43
602.073	16.23
602.266	16.15
602.459	16.07
602.652	16.18
602.845	16.06
603.038	16.16
603.231	16.09
603.424	15.94
603.617	15.93
603.809	15.87
604.002	15.83
604.195	15.98
604.388	16.08
604.581	16.12
604.774	16.06
604.966	16.21
605.159	16.21
605.352	16.36
605.545	16.57
605.737	16.65
605.93	16.74
606.123	16.84
606.316	16.82
606.508	16.9
606.701	17.07
606.894	17.02
607.086	17.06
607.279	16.99
607.471	17.03
607.664	16.99
607.857	17.21
608.049	17.3
608.242	17.35
608.434	17.46
608.627	17.67
608.819	17.87
609.012	18.15
609.204	18.39
609.397	18.79
609.589	19.15
609.782	19.49
609.974	19.87
610.166	20.27
610.359	20.74
610.551	21.18
610.743	21.6
610.936	21.9
611.128	22.25
611.32	22.52
611.513	22.61
611.705	22.57
611.897	22.59
612.09	22.45
612.282	22.38
612.474	22.09
612.666	21.9
612.858	21.64
613.051	21.46
613.243	21.31
613.435	21.14
613.627	20.99
613.819	20.87
614.011	20.98
614.203	20.92
614.395	20.71
614.588	20.56
614.78	20.36
614.972	20.08
615.164	19.93
615.356	19.73
615.548	19.36
615.74	19.28
615.932	19.15
616.124	18.82
616.315	18.84
616.507	18.69
616.699	18.59
616.891	18.51
617.083	18.24
617.275	18.16
617.467	18.15
617.659	18.25
617.85	18.18
618.042	18.16
618.234	18.18
618.426	17.93
618.618	17.95
618.809	18.18
619.001	18.13
619.193	18.32
619.384	18.23
619.576	18.12
619.768	18.19
619.959	18.37
620.151	18.32
620.343	18.49
620.534	18.59
620.726	18.66
620.917	18.59
621.109	18.71
621.301	18.71
621.492	18.64
621.684	18.73
621.875	18.72
622.067	18.58
622.258	18.49
622.45	18.32
622.641	18.12
622.832	18.08
623.024	18.09
623.215	17.94
623.407	17.91
623.598	18.31
623.789	18.3
623.981	18.25
624.172	18.33
624.363	18.32
624.555	18.27
624.746	18.32
624.937	18.15
625.129	18.08
625.32	18.21
625.511	18.25
625.702	17.86
625.893	17.84
626.085	17.75
626.276	17.68
626.467	17.77
626.658	17.66
626.849	17.7
627.04	17.66
627.231	17.47
627.422	17.54
627.614	17.57
627.805	17.69
627.996	17.85
628.187	17.97
628.378	17.94
628.569	18.04
628.76	18.22
628.951	18.34
629.142	18.57
629.332	18.74
629.523	18.58
629.714	18.66
629.905	18.77
630.096	18.81
630.287	18.86
630.478	18.97
630.669	18.94
630.859	19.07
631.05	18.88
631.241	18.87
631.432	18.87
631.623	18.78
631.813	18.63
632.004	18.46
632.195	18.14
632.385	18.01
632.576	17.81
632.767	17.78
632.957	17.64
633.148	17.58
633.339	17.45
633.529	17.34
633.72	17.47
633.91	17.38
634.101	17.38
634.292	17.44
634.482	17.5
634.673	17.57
634.863	17.62
635.054	17.71
635.244	17.79
635.435	17.91
635.625	18.08
635.815	18.01
636.006	18.1
636.196	18.16
636.387	18.09
636.577	18.07
636.767	17.97
636.958	17.92
637.148	17.81
637.338	17.89
637.529	17.95
637.719	17.87
637.909	17.97
638.099	17.96
638.29	18.1
638.48	18.09
638.67	18.19
638.86	18.18
639.05	18.24
639.241	18.39
639.431	18.51
639.621	18.37
639.811	18.56
640.001	18.54
640.191	18.61
640.381	18.65
640.571	18.81
640.761	18.79
640.951	19.07
641.141	19.03
641.331	18.85
641.521	18.7
641.711	18.95
641.901	18.89
642.091	18.88
642.281	18.98
642.471	18.75
642.661	18.82
642.851	18.72
643.041	18.61
643.231	18.48
643.42	18.35
643.61	18.4
643.8	18.29
643.99	18.24
644.18	18.3
644.369	18.28
644.559	18.45
644.749	18.43
644.939	18.6
645.128	18.75
645.318	19
645.508	19.07
645.697	18.85
645.887	18.81
646.076	19.08
646.266	19.06
646.456	19.02
646.645	18.99
646.835	18.71
647.024	18.56
647.214	18.6
647.403	18.67
647.593	18.93
647.782	19.17
647.972	19.06
648.161	18.95
648.351	18.82
648.54	19
648.73	18.88
648.919	19.04
649.108	19.07
649.298	18.93
649.487	18.86
649.677	18.61
649.866	18.53
650.055	18.59
650.244	18.44
650.434	18.85
650.623	18.75
650.812	18.87
651.002	18.85
651.191	18.79
651.38	18.79
651.569	18.94
651.758	18.87
651.947	18.85
652.137	18.83
652.326	18.82
652.515	18.42
652.704	18.47
652.893	18.33
653.082	18.51
653.271	18.77
653.46	18.61
653.649	18.42
653.838	18.66
654.027	18.88
654.216	18.84
654.405	19.12
654.594	19.24
654.783	19.02
654.972	19.16
655.161	18.99
655.35	18.93
655.539	19.07
655.728	18.96
655.916	19
656.105	18.77
656.294	18.84
656.483	18.62
656.672	18.66
656.86	18.8
657.049	18.84
657.238	18.79
657.427	18.69
657.615	18.66
657.804	18.73
657.993	18.35
658.181	18.32
658.37	18.29
658.559	18.3
658.747	18.24
658.936	18.06
659.125	18.01
659.313	18.04
659.502	17.96
659.69	17.86
659.879	17.84
660.067	18.06
660.256	18.18
660.444	18.34
660.633	18.32
660.821	18.53
661.01	18.76
661.198	18.82
661.387	19.02
661.575	19.21
661.763	19.41
661.952	19.54
662.14	19.83
662.328	20.21
662.517	20.26
662.705	20.52
662.893	20.45
663.082	20.51
663.27	20.5
663.458	20.23
663.646	20.27
663.834	20.2
664.023	19.95
664.211	19.81
664.399	19.49
664.587	19.65
664.775	19.46
664.963	19.54
665.152	19.83
665.34	19.84
665.528	20.16
665.716	20.07
665.904	19.98
666.092	20.48
666.28	20.38
666.468	20.36
666.656	20.2
666.844	20.4
667.032	20.52
667.22	20.16
667.408	20.03
667.596	19.9
667.784	19.91
667.971	20.11
668.159	19.78
668.347	19.8
668.535	19.77
668.723	19.62
668.911	19.52
669.098	19.23
669.286	19.24
669.474	19.3
669.662	19.55
669.849	19.61
670.037	19.69
670.225	19.9
670.413	20.08
670.6	20.08
670.788	20.3
670.976	20.17
671.163	20.2
671.351	19.97
671.538	20.15
671.726	19.81
671.913	19.96
672.101	19.58
672.289	19.45
672.476	19.39
672.664	19.65
672.851	19.66
673.039	19.62
673.226	19.85
673.413	20.29
673.601	20.1
673.788	20.13
673.976	20.14
674.163	20.41
674.35	20.59
674.538	20.47
674.725	20.25
674.912	20.52
675.1	20.6
675.287	20.47
675.474	20.3
675.662	20.29
675.849	20.39
676.036	20.33
676.223	20.45
676.411	20.2
676.598	20.2
676.785	20.42
676.972	20.12
677.159	20.2
677.346	20.15
677.533	20.1
677.721	20.23
677.908	20.14
678.095	19.87
678.282	19.57
678.469	19.52
678.656	19.48
678.843	19.19
679.03	19.06
679.217	19.06
679.404	19.2
679.591	19.08
679.778	19.22
679.964	19.23
680.151	19.38
680.338	19.48
680.525	19.66
680.712	19.52
680.899	19.42
681.086	19.5
681.272	19.36
681.459	19.27
681.646	19.64
681.833	19.42
682.02	19.52
682.206	19.54
682.393	19.65
682.58	19.58
682.766	19.52
682.953	19.6
683.14	19.6
683.326	20.09
683.513	20.23
683.7	20.16
683.886	20.29
684.073	20.39
684.259	20.28
684.446	20.33
684.632	20.43
684.819	20.75
685.005	20.79
685.192	20.91
685.378	20.57
685.565	20.34
685.751	20.41
685.938	20.34
686.124	20.48
686.31	20.47
686.497	20.37
686.683	20.58
686.87	20.85
687.056	21.23
687.242	21.29
687.429	21.56
687.615	21.72
687.801	21.71
687.987	21.91
688.174	21.84
688.36	21.89
688.546	22.03
688.732	21.69
688.918	21.47
689.105	21.42
689.291	21.33
689.477	21.31
689.663	21.31
689.849	21.06
690.035	20.86
690.221	21.14
690.407	21.36
690.593	21.33
690.779	21.19
690.965	20.9
691.151	20.71
691.337	20.84
691.523	20.54
691.709	20.61
691.895	20.83
692.081	21.19
692.267	20.88
692.453	20.91
692.639	20.94
692.825	21.09
693.011	21.65
693.196	21.77
693.382	21.69
693.568	21.48
693.754	21.4
693.94	21.31
694.125	21.19
694.311	21.02
694.497	21.01
694.682	21.04
694.868	21.61
695.054	21.5
695.239	21.73
695.425	21.56
695.611	21.92
695.796	21.61
695.982	21.45
696.168	21.39
696.353	21.48
696.539	21.23
696.724	20.96
696.91	20.46
697.095	20.03
697.281	19.41
697.466	19.41
697.652	19.27
697.837	19.22
698.023	19.19
698.208	18.97
698.393	18.75
698.579	18.68
698.764	18.65
698.949	18.59
699.135	18.77
699.32	18.75
699.505	18.78
699.691	18.98
699.876	19.06
700.061	19.32
700.246	19.47
700.432	19.68
700.617	19.77
700.802	20.13
700.987	20.38
701.172	20.56
701.358	21.18
701.543	21.44
701.728	21.76
701.913	22.29
702.098	22.1
702.283	22.48
702.468	22.52
702.653	23.12
702.838	23.01
703.023	23.5
703.208	23.45
703.393	23.12
703.578	23.09
703.763	22.89
703.948	22.81
704.133	22.62
704.318	22.46
704.503	22.8
704.688	22.7
704.873	22.77
705.057	22.46
705.242	22.59
705.427	23.11
705.612	23.14
705.797	22.75
705.981	22.93
706.166	23.75
706.351	23.69
706.536	23.55
706.72	23.5
706.905	23.61
707.09	23.59
707.274	23.7
707.459	23.45
707.644	23.42
707.828	23.72
708.013	23.72
708.197	23.2
708.382	23.12
708.567	23.14
708.751	22.78
708.936	22.46
709.12	22.64
709.305	22.78
709.489	23.32
709.673	23.65
709.858	23.81
710.042	23.9
710.227	23.91
710.411	23.93
710.596	24.28
710.78	24.73
710.964	25.1
711.149	25.05
711.333	24.92
711.517	24.39
711.702	24.25
711.886	23.82
712.07	23.58
712.254	23.87
712.438	23.93
712.623	23.57
712.807	23.19
712.991	22.9
713.175	22.6
713.359	22.47
713.544	22.58
713.728	22.18
713.912	22.23
714.096	21.98
714.28	21.93
714.464	21.83
714.648	21.83
714.832	21.57
715.016	21.76
715.2	21.54
715.384	21.38
715.568	21.43
715.752	21.32
715.936	20.95
716.12	20.94
716.304	21.04
716.488	21.04
716.671	20.72
716.855	21.01
717.039	20.9
717.223	21.17
717.407	21.27
717.59	21.06
717.774	21.27
717.958	21.97
718.142	22.26
718.325	22.19
718.509	22.18
718.693	22.37
718.877	22.75
719.06	22.89
719.244	23.08
719.428	23.4
719.611	23.5
719.795	23.5
719.978	23.28
720.162	23.34
720.345	22.92
720.529	23.13
720.713	23.48
720.896	23.09
721.08	23.22
721.263	23.75
721.446	24.14
721.63	24.29
721.813	24.72
721.997	25.21
722.18	25.29
722.364	25.58
722.547	25.09
722.73	24.91
722.914	24.95
723.097	25.06
723.28	24.22
723.464	23.85
723.647	23.79
723.83	23.62
724.013	23.59
724.197	24.17
724.38	24.28
724.563	24.7
724.746	24.89
724.929	25.23
725.112	25.65
725.296	25.68
725.479	25.23
725.662	25.28
725.845	25.34
726.028	25.06
726.211	24.49
726.394	24.48
726.577	24.31
726.76	24.48
726.943	24.35
727.126	23.83
727.309	24.01
727.492	24.26
727.675	24.12
727.858	23.84
728.041	24.01
728.224	24.06
728.407	23.74
728.589	23.94
728.772	23.76
728.955	23.88
729.138	23.53
729.321	23.42
729.503	23.3
729.686	23.55
729.869	23.69
730.052	23.35
730.234	23.23
730.417	22.95
730.6	22.49
730.782	22.21
730.965	22.2
731.148	22.49
731.33	22.59
731.513	22.8
731.695	22.66
731.878	22.33
732.061	22.37
732.243	22.19
732.426	22.54
732.608	22.93
732.791	23.14
732.973	22.63
733.156	22.61
733.338	22.89
733.52	22.77
733.703	22.19
733.885	22.44
734.068	22.54
734.25	22.46
734.432	22.57
734.615	22.63
734.797	23.09
734.979	23.55
735.162	23.5
735.344	23.36
735.526	23.81
735.708	24.69
735.891	24.74
736.073	24.73
736.255	25.24
736.437	25.24
736.619	25.27
736.802	24.73
736.984	24.75
737.166	25.12
737.348	25.05
737.53	24.95
737.712	24.91
737.894	25.53
738.076	25.63
738.258	25.66
738.44	25.59
738.622	25.85
738.804	25.83
738.986	25.65
739.168	25.67
739.35	26.13
739.532	25.57
739.714	25.61
739.896	25.01
740.078	25.29
740.259	25.46
740.441	25.65
740.623	25.11
740.805	25.32
740.987	25.56
741.168	25.58
741.35	25.33
741.532	25.96
741.714	25.92
741.895	26.14
742.077	26.23
742.259	26.24
742.44	26.72
742.622	27.07
742.804	27.67
742.985	27.46
743.167	27.28
743.348	27.19
743.53	26.9
743.711	26.59
743.893	27.02
744.075	26.95
744.256	26.74
744.438	26.26
744.619	27.07
744.8	26.5
744.982	26.3
745.163	26.13
745.345	26.43
745.526	27.44
745.707	28.12
745.889	27.24
746.07	27.21
746.252	27.53
746.433	27.49
746.614	26.9
746.795	26.86
746.977	27.42
747.158	27.38
747.339	26.93
747.52	26.19
747.702	26.32
747.883	27.09
748.064	27.38
748.245	26.42
748.426	26.6
748.607	26.71
748.788	27.05
748.97	27.53
749.151	28.25
749.332	28.74
749.513	28.7
749.694	28.6
749.875	28.84
750.056	28.65
750.237	29.71
750.418	29.67
750.599	29.9
750.78	29.77
750.96	28.79
751.141	28.21
751.322	27.95
751.503	28.03
751.684	27.75
751.865	27.58
752.046	27.25
752.226	27.08
752.407	26.98
752.588	26.39
752.769	26.84
752.949	27.51
753.13	27.83
753.311	27.64
753.492	28.06
753.672	28.11
753.853	28.26
754.034	28.67
754.214	28.58
754.395	29.15
754.575	29.96
754.756	29.53
754.937	29.34
755.117	29.49
755.298	29.59
755.478	29.04
755.659	28.9
755.839	28.5
756.02	28.49
756.2	28.77
756.381	28.54
756.561	28.3
756.741	28.09
756.922	28.16
757.102	27.1
757.283	27.13
757.463	27.02
757.643	26.91
757.823	27.64
758.004	27.26
758.184	26.52
758.364	26.97
758.545	27.02
758.725	27.26
758.905	27.05
759.085	27.37
759.265	27.32
759.446	27.41
759.626	27.48
759.806	26.31
759.986	26.19
760.166	26.35
760.346	25.94
760.526	25.4
760.706	24.65
760.886	24.4
761.066	24.53
761.246	24.49
761.426	24.58
761.606	24.35
761.786	24.52
761.966	24.22
762.146	23.83
762.326	23
762.506	22.93
762.686	23.2
762.866	23.22
763.046	23.25
763.225	22.98
763.405	22.85
763.585	22.4
763.765	22.31
763.945	22.28
764.124	22.54
764.304	23.02
764.484	22.75
764.664	22.7
764.843	23
765.023	22.79
765.203	22.65
765.382	22.61
765.562	23.47
765.741	23.63
765.921	24.23
766.101	24.65
766.28	24.67
766.46	25.13
766.639	25.54
766.819	25.36
766.998	25.96
767.178	27.38
767.357	27.51
767.537	27.63
767.716	28.01
767.896	27.58
768.075	27.29
768.254	27.75
768.434	28.4
768.613	29.07
768.792	30.12
768.972	30.36
769.151	29.79
769.33	29.97
769.51	30.27
769.689	30.57
769.868	31.02
770.047	31.75
770.226	31.78
770.406	31.77
770.585	30.43
770.764	29.49
770.943	29.1
771.122	29.23
771.301	29.5
771.48	29.94
771.66	29.94
771.839	31.55
772.018	31.28
772.197	30.82
772.376	31.68
772.555	32.06
772.734	32.65
772.913	32.92
773.092	33.02
773.271	33.07
773.449	32.78
773.628	32.85
773.807	31.53
773.986	31.72
774.165	32.56
774.344	31.78
774.523	32.23
774.701	32.71
774.88	33.64
775.059	33.39
775.238	33.22
775.417	32.84
775.595	33.82
775.774	33.45
775.953	33.25
776.131	33.49
776.31	33.48
776.489	34.14
776.667	33.99
776.846	33.44
777.025	34.03
777.203	35.02
777.382	35.48
777.56	34.31
777.739	34.57
777.917	35.09
778.096	35.38
778.274	35.1
778.453	34.7
778.631	34.71
778.81	34.03
778.988	34
779.166	33.52
779.345	33.25
779.523	32.85
779.702	33.92
779.88	33.15
780.058	32.77
780.237	32.99
780.415	33.21
780.593	33.13
780.771	33.89
780.95	33.64
781.128	33.29
781.306	32.4
781.484	33.74
781.662	33.14
781.841	33.71
782.019	33.48
782.197	33.4
782.375	33.43
782.553	33.13
782.731	33.34
782.909	33.08
783.087	33.14
783.265	33.77
783.443	33.06
783.621	32.26
783.799	32.37
783.977	32.27
784.155	32.79
784.333	32.68
784.511	32.64
784.689	31.77
784.867	32.51
785.045	32.35
785.223	32.93
785.4	33.32
785.578	34.21
785.756	33.11
785.934	32.59
786.112	31.91
786.289	31.36
786.467	31.72
786.645	32.57
786.823	32.22
787	32.55
787.178	31.51
787.356	31.25
787.533	31.1
787.711	33.18
787.889	32.84
788.066	32.51
788.244	32.62
788.421	32.51
788.599	32.54
788.776	32.72
788.954	32.15
789.131	32.93
789.309	33.3
789.486	34.12
789.664	32.76
789.841	32.92
790.019	33.66
790.196	34.59
790.373	33.79
790.551	33.87
790.728	33.85
790.906	35.27
791.083	34.9
791.26	34.8
791.437	34.41
791.615	34.45
791.792	35.83
791.969	35.82
792.146	35.51
792.324	36.5
792.501	36.44
792.678	36.41
792.855	35.61
793.032	35.35
793.209	34.91
793.387	34.57
793.564	34.64
793.741	34.31
793.918	35.32
794.095	35.29
794.272	35.04
794.449	34.97
794.626	35.13
794.803	35.4
794.98	35.71
795.157	36.57
795.334	36.38
795.511	37.22
795.688	37.08
795.864	36.5
796.041	37.16
796.218	37.05
796.395	36.62
796.572	36.2
796.749	36.82
796.925	36.91
797.102	36.46
797.279	35.43
797.456	35.41
797.632	35.29
797.809	35.57
797.986	34.96
798.162	35.54
798.339	36
798.516	36.28
798.692	35.97
798.869	36.81
799.046	36.82
799.222	37.62
799.399	36.63
799.575	37.02
799.752	36.13
799.928	36.37
800.105	36.26
800.281	35.96
800.458	35.26
800.634	34.41
800.811	34.36
800.987	35.07
801.163	35.11
801.34	35.97
801.516	35.36
801.692	36.54
801.869	36.69
802.045	36.99
802.221	37.7
802.398	39.24
802.574	39.52
802.75	38.39
802.926	38.34
803.103	38.38
803.279	38.22
803.455	38.07
803.631	37.6
803.807	38.01
803.983	37.22
804.16	36.95
804.336	36.19
804.512	36.25
804.688	38.7
804.864	38.95
805.04	39.07
805.216	40.37
805.392	42.16
805.568	42.53
805.744	42.45
805.92	43.51
806.096	43.57
806.272	44.23
806.448	44.61
806.623	42.9
806.799	42.63
806.975	42.97
807.151	41.93
807.327	41.49
807.503	40.73
807.678	40.01
807.854	39.16
808.03	39.3
808.206	38.44
808.381	37.49
808.557	38.07
808.733	37.21
808.908	37.89
809.084	38.01
809.26	37.52
809.435	37.35
809.611	36.45
809.787	37.17
809.962	37.48
810.138	37.55
810.313	38.34
810.489	37.9
810.664	38.45
810.84	38.54
811.015	38.75
811.191	38.85
811.366	40.44
811.542	42.12
811.717	42.25
811.892	42.47
812.068	42.41
812.243	42.91
812.419	42.35
812.594	43.85
812.769	43.41
812.944	42.94
813.12	42.09
813.295	42.34
813.47	42.02
813.645	43.36
813.821	44.49
813.996	45.83
814.171	45.67
814.346	45.54
814.521	44.25
814.697	45.56
814.872	46.07
815.047	47.27
815.222	46.42
815.397	45.92
815.572	44.57
815.747	42.68
815.922	41.77
816.097	41.25
816.272	41.99
816.447	42.21
816.622	42.48
816.797	42.11
816.972	41.41
817.147	40.46
817.322	41.23
817.496	41.16
817.671	40.21
817.846	40
818.021	40.18
818.196	39.67
818.371	39.03
818.545	37.26
818.72	36.71
818.895	36.08
819.069	34.98
819.244	34.02
819.419	34.19
819.594	34.24
819.768	34.4
819.943	33.01
820.117	31.24
820.292	29.81
820.467	28.04
820.641	26.78
820.816	24.71
820.99	24.07
821.165	22.43
821.339	21.23
821.514	20.36
821.688	19.54
821.863	18.95
822.037	18.81
822.212	18.62
822.386	18.59
822.56	18.32
822.735	18.77
822.909	18.51
823.084	18.64
823.258	18.48
823.432	18.33
823.606	18.14
823.781	18.86
823.955	18.84
824.129	18.62
824.303	18.59
824.478	18.42
824.652	18.74
824.826	19
825	19.23
825.174	20.02
825.348	20.89
825.523	21.66
825.697	21.29
825.871	21.82
826.045	22.34
826.219	22.8
826.393	23.68
826.567	23.37
826.741	23.36
826.915	23.71
827.089	23.44
827.263	22.87
827.437	22.47
827.611	22.42
827.784	22.64
827.958	22.94
828.132	23.04
828.306	23.29
828.48	23.36
828.654	24.11
828.827	24.66
829.001	24.48
829.175	25.68
829.349	26.64
829.522	27.33
829.696	28.03
829.87	28.87
830.044	29.81
830.217	30.47
830.391	31.62
830.565	32.38
830.738	31.89
830.912	32.47
831.085	32.27
831.259	33.33
831.432	34.15
831.606	34.37
831.779	32.12
831.953	31.44
832.126	30.46
832.3	29.86
832.473	28.84
832.647	27.96
832.82	27.99
832.994	28.26
833.167	27.61
833.34	26.28
833.514	25.71
833.687	25.82
833.86	25.06
834.034	24.76
834.207	24.26
834.38	24.56
834.553	24.95
834.727	25.7
834.9	25.88
835.073	25.98
835.246	26.08
835.419	27.1
835.593	27.83
835.766	28.58
835.939	29.15
836.112	30.22
836.285	30.88
836.458	32.49
836.631	32.45
836.804	33.09
836.977	35.2
837.15	37.9
837.323	37.45
837.496	40.52
837.669	44.27
837.842	46.68
838.015	48
838.188	48.34
838.361	48.76
838.533	50.87
838.706	50.98
838.879	49.28
839.052	50.03
839.225	50.67
839.398	48.08
839.57	46.5
839.743	46.8
839.916	46.78
840.088	47.58
840.261	47.41
840.434	47.96
840.607	48.05
840.779	48.45
840.952	46.94
841.124	47.05
841.297	48.27
841.47	48.25
841.642	47.04
841.815	47.2
841.987	46.91
842.16	47.75
842.332	46.28
842.505	47.92
842.677	49.69
842.85	52.17
843.022	54.01
843.194	53.08
843.367	54.9
843.539	57.93
843.712	59.94
843.884	62.94
844.056	64.6
844.229	67.46
844.401	66.73
844.573	65.83
844.745	65.7
844.918	65.16
845.09	69.74
845.262	69.26
845.434	67.57
845.606	69.12
845.779	65.74
845.951	64.87
846.123	65.58
846.295	67.37
846.467	65.45
846.639	68.58
846.811	69.57
846.983	68.55
847.155	67.92
847.327	68.09
847.499	67.14
847.671	72.58
847.843	75.36
848.015	75.55
848.187	74.95
848.359	82.3
848.531	78.32
848.703	78.9
848.875	78.56
849.047	81.5
849.218	81.18
849.39	81.74
849.562	82.4
849.734	83.77
849.905	82.41
850.077	84.21
850.249	77.91
850.421	78.89
850.592	82.94
850.764	78.87
850.936	79.71
851.107	83.19
851.279	83.82
851.451	83.69
851.622	81.06
851.794	83.32
851.965	85.12
852.137	89.68
852.308	88.73
852.48	85.67
852.651	90.39
852.823	87.96
852.994	87.1
853.166	84.28
853.337	83.64
853.509	81.34
853.68	79.72
853.851	76.32
854.023	71.9
854.194	76.27
854.365	75.55
854.537	79.72
854.708	84.36
854.879	81.86
855.05	82.88
855.222	82.65
855.393	85.89
855.564	86.86
855.735	84.92
855.906	89.46
856.078	89.19
856.249	90.41
856.42	87.5
856.591	86.71
856.762	90.73
856.933	92.18
857.104	90.07
857.275	92.22
857.446	91.87
857.617	99.08
857.788	98.94
857.959	94.29
858.13	94.65
858.301	95.41
858.472	97.74
858.643	94.58
858.814	97.99
858.985	97.22
859.155	98.65
859.326	100.51
859.497	100.36
859.668	100.2
859.839	98.5
860.009	98.53
860.18	97.82
860.351	96.04
860.522	103.13
860.692	100.71
860.863	103.19
861.034	98.09
861.204	96.76
861.375	96.47
861.546	95.66
861.716	102.04
861.887	101.05
862.057	101.33
862.228	98.77
862.398	96.76
862.569	98.98
862.739	98.31
862.91	99.76
863.08	99.17
863.251	95.85
863.421	92.91
863.592	91.42
863.762	95.77
863.932	95.71
864.103	94.17
864.273	90.21
864.443	88.01
864.614	89
864.784	88.87
864.954	90.5
865.125	94.52
865.295	96.73
865.465	94.37
865.635	92.48
865.805	95.93
865.976	101.6
866.146	105.33
866.316	107.15
866.486	103.8
866.656	109.5
866.826	107.38
866.996	108.34
867.166	107.87
867.336	114.29
867.506	112.39
867.676	111.82
867.846	110.32
868.016	112.2
868.186	118.74
868.356	122.17
868.526	115.21
868.696	118.29
868.866	109.59
869.036	107.73
869.206	104.94
869.376	101.99
869.545	107.26
869.715	105.85
869.885	106.89
870.055	98.3
870.224	100.51
870.394	100.32
870.564	99.82
870.734	101.09
870.903	102.42
871.073	109.27
871.243	113.59
871.412	105.39
871.582	101.85
871.751	101.05
871.921	107.06
872.091	102.48
872.26	104.65
872.43	104.47
872.599	108.93
872.769	110.49
872.938	104.33
873.108	104.93
873.277	104.82
873.446	109.48
873.616	103.48
873.785	96.69
873.955	100.31
874.124	102.7
874.293	98.79
874.463	95.94
874.632	94.96
874.801	95.81
874.971	92.31
875.14	93.74
875.309	93.13
875.478	97.43
875.647	97.4
875.817	96.64
875.986	97.17
876.155	102.33
876.324	99.94
876.493	104.24
876.662	100.03
876.831	101.79
877	102.74
877.17	100.63
877.339	97.66
877.508	100.37
877.677	97.18
877.846	92.77
878.015	87.95
878.184	90.17
878.352	84.68
878.521	84.38
878.69	83.71
878.859	79.05
879.028	75.98
879.197	70.1
879.366	66.73
879.534	63.62
879.703	59.97
879.872	55.37
880.041	50.87
880.21	47.9
880.378	44.36
880.547	39.18
880.716	36.46
880.884	34.35
881.053	33.09
881.222	31.53
881.39	29.44
881.559	29.26
881.727	28.38
881.896	26.39
882.065	25.9
882.233	24.84
882.402	24.82
882.57	24.87
882.739	24.78
882.907	25.07
883.076	24.8
883.244	25.43
883.412	25.78
883.581	25.49
883.749	26.59
883.918	26.44
884.086	27.83
884.254	29.7
884.423	30.69
884.591	31.59
884.759	32.79
884.927	33.64
885.096	34.71
885.264	34.65
885.432	37
885.6	39.92
885.769	45.35
885.937	46.88
886.105	48.51
886.273	52.18
886.441	55.73
886.609	58.11
886.777	60.91
886.945	65.08
887.113	70.32
887.281	74.32
887.449	78.17
887.617	74.23
887.785	76.34
887.953	77.51
888.121	75.04
888.289	77.36
888.457	77.19
888.625	77.89
888.793	77.2
888.961	78.36
889.129	76.75
889.296	74.32
889.464	76.92
889.632	76.6
889.8	73.12
889.967	73.47
890.135	72.58
