Data from 2938716__Reflection_03.txt Node
Date: Tue Mar 17 18:56:35 EDT 2015
User: robert
Spectrometer: USB4E03002
Autoset integration time: false
Trigger mode: 4
Integration Time (sec): 1.000000E-1
Scans to average: 10
Electric dark correction enabled: false
Nonlinearity correction enabled: false
Boxcar width: 5
Stray light correction enabled: false
XAxis mode: Wavelengths
Stop averaging: false
Number of Pixels in Spectrum: 3648
>>>>>Begin Spectral Data<<<<<
177.575	-54.19
177.794	-309.76
178.014	-291.26
178.233	-108.83
178.452	-95.79
178.672	-190.18
178.891	-330.33
179.11	-445.16
179.33	-1401.89
179.549	-216.4
179.768	-225.32
179.987	-428.57
180.207	-254.52
180.426	-326.91
180.645	-43400
180.864	17760
181.084	1455.77
181.303	563.33
181.522	428.14
181.741	1964.86
181.96	218.6
182.179	210.32
182.398	224.56
182.618	175.75
182.837	373.44
183.056	290.38
183.275	221.48
183.494	348
183.713	251.22
183.932	298.28
184.151	179.05
184.37	182.1
184.589	267.22
184.808	201.59
185.027	214.81
185.246	208.89
185.465	172.3
185.684	166.04
185.903	187.25
186.122	207.59
186.341	219.14
186.56	215.65
186.779	148.42
186.998	120.25
187.216	130.12
187.435	120.52
187.654	104.18
187.873	105.38
188.092	135.92
188.311	95.46
188.53	131.99
188.748	126.38
188.967	168.67
189.186	522.22
189.405	-110.92
189.623	-32.99
189.842	-6.18
190.061	-58.58
190.28	-234.82
190.498	-307.82
190.717	-233.99
190.936	-322.73
191.154	-12700
191.373	190.08
191.592	251.95
191.81	110.1
192.029	90.32
192.248	75.25
192.466	61.37
192.685	63.48
192.904	65.47
193.122	101.83
193.341	106.22
193.559	101.74
193.778	120.44
193.996	154.19
194.215	592.93
194.433	-379.72
194.652	2590.91
194.87	364
195.089	2060.71
195.307	495
195.526	252.61
195.744	219.14
195.963	235.96
196.181	218.65
196.399	226.59
196.618	161.63
196.836	159.13
197.055	260.06
197.273	222.48
197.491	169.15
197.71	168.66
197.928	185.06
198.146	181.32
198.365	437.89
198.583	2023.68
198.801	8550
199.019	-65700
199.238	646.85
199.456	1358
199.674	-741.94
199.892	-461.86
200.111	-185.07
200.329	-330.53
200.547	-476.36
200.765	712.5
200.983	235.63
201.202	159.39
201.42	231.97
201.638	212.32
201.856	169.03
202.074	149.85
202.292	227.64
202.51	241.06
202.728	193.42
202.946	191.32
203.165	628.87
203.383	5126.67
203.601	-363.92
203.819	-1212.73
204.037	763.37
204.255	467.58
204.473	256.23
204.691	175
204.909	131.31
205.127	130.93
205.345	125.76
205.562	101.96
205.78	92.74
205.998	69.49
206.216	70.6
206.434	64.36
206.652	67.94
206.87	63.16
207.088	60.06
207.306	72.33
207.523	85.68
207.741	70.57
207.959	61.54
208.177	34.8
208.395	61.54
208.612	117.58
208.83	183.19
209.048	224.43
209.266	328.97
209.483	219.52
209.701	200.36
209.919	174.66
210.136	247.06
210.354	237.69
210.572	249.56
210.79	183.12
211.007	164.03
211.225	160.15
211.442	147.77
211.66	224.77
211.878	208.3
212.095	310.42
212.313	312.5
212.53	137.3
212.748	109.55
212.966	97.42
213.183	257.3
213.401	-467.5
213.618	-2400
213.836	419.05
214.053	22.41
214.271	-3.48
214.488	-31.91
214.705	39.58
214.923	102.57
215.14	164.44
215.358	200.85
215.575	110.95
215.793	98.98
216.01	113.36
216.227	113.14
216.445	115.61
216.662	89.13
216.879	85.81
217.097	90.17
217.314	69.36
217.531	50.91
217.749	47.6
217.966	69.67
218.183	69.49
218.4	61.39
218.618	48.71
218.835	60.35
219.052	49.83
219.269	46.36
219.487	47.09
219.704	34.85
219.921	42.27
220.138	45.89
220.355	33.19
220.572	28.96
220.79	34.82
221.007	40.14
221.224	31.41
221.441	29.51
221.658	30.32
221.875	26.12
222.092	34.43
222.309	35.54
222.526	28.16
222.743	28.46
222.96	31.51
223.177	23.97
223.394	22.65
223.611	19.83
223.828	21.46
224.045	18.42
224.262	25.44
224.479	29.76
224.696	26.06
224.913	25.35
225.13	21.18
225.347	13.46
225.564	12.57
225.781	12.81
225.997	13.8
226.214	14.14
226.431	14.09
226.648	10.25
226.865	5.89
227.082	5.92
227.298	7.29
227.515	7.58
227.732	9.55
227.949	9.64
228.165	9.03
228.382	8.13
228.599	7.31
228.816	6.44
229.032	5.84
229.249	6.64
229.466	5.87
229.682	5.89
229.899	6.27
230.116	5.69
230.332	5.25
230.549	3.73
230.765	3.86
230.982	4.07
231.199	5.19
231.415	5.76
231.632	5.18
231.848	5.32
232.065	6.25
232.281	5.23
232.498	5.43
232.714	6.84
232.931	11.02
233.147	12.12
233.364	12.08
233.58	9.34
233.797	9.49
234.013	9.07
234.23	10.49
234.446	8.63
234.662	7.5
234.879	6.45
235.095	5.86
235.312	4.13
235.528	3.9
235.744	2.07
235.961	4.08
236.177	3.62
236.393	3.91
236.61	2.56
236.826	3.61
237.042	4.71
237.258	5.99
237.475	5.76
237.691	6.22
237.907	5.05
238.123	6.03
238.339	7.5
238.556	7.5
238.772	7.78
238.988	9.03
239.204	9.21
239.42	8.9
239.636	9.64
239.853	8.9
240.069	9.35
240.285	9.36
240.501	10.57
240.717	9.68
240.933	10.06
241.149	9.76
241.365	8.93
241.581	8.56
241.797	9.28
242.013	8.28
242.229	9.16
242.445	8.22
242.661	8.16
242.877	7.57
243.093	7.34
243.309	6.46
243.525	7.05
243.741	7.64
243.957	7.53
244.173	7.12
244.388	7.75
244.604	7.31
244.82	8.36
245.036	8.05
245.252	8.43
245.468	9.04
245.683	9.42
245.899	9.02
246.115	8.53
246.331	8.35
246.547	8.06
246.762	8.03
246.978	7.64
247.194	7.72
247.409	7.94
247.625	7.89
247.841	7.7
248.057	7.58
248.272	7.46
248.488	7.43
248.703	7.44
248.919	7.82
249.135	7.34
249.35	7.56
249.566	7.05
249.782	6.84
249.997	6.83
250.213	6.95
250.428	6.69
250.644	6.84
250.859	6.81
251.075	7.02
251.29	7.26
251.506	7.73
251.721	7.7
251.937	7.57
252.152	7.41
252.368	6.77
252.583	6.29
252.798	6.95
253.014	6.57
253.229	6.41
253.445	6.2
253.66	5.6
253.875	5.21
254.091	4.81
254.306	4.92
254.521	4.62
254.737	5.17
254.952	5.35
255.167	4.4
255.383	4.27
255.598	3.88
255.813	4.11
256.028	4.25
256.244	5.26
256.459	5.89
256.674	6.34
256.889	6.77
257.104	7.15
257.32	7.21
257.535	7.32
257.75	7.05
257.965	7.94
258.18	7.66
258.395	7.48
258.61	6.92
258.826	6.6
259.041	6.42
259.256	6.04
259.471	5.76
259.686	5.52
259.901	5.27
260.116	5.58
260.331	5.19
260.546	5.27
260.761	5.17
260.976	5.24
261.191	5.31
261.406	5.47
261.621	5.89
261.836	6.17
262.05	6.11
262.265	6.74
262.48	6.26
262.695	6.84
262.91	6.98
263.125	7.15
263.34	7.01
263.555	7.17
263.769	6.97
263.984	6.93
264.199	6.55
264.414	7.3
264.629	7.06
264.843	6.98
265.058	6.08
265.273	6.14
265.488	5.72
265.702	5.44
265.917	5.02
266.132	4.6
266.346	5.39
266.561	5.4
266.776	4.93
266.99	4.71
267.205	4.79
267.42	4.64
267.634	4.34
267.849	4.27
268.063	4.5
268.278	4.56
268.492	4.34
268.707	3.09
268.922	3.06
269.136	3.15
269.351	3.33
269.565	3.28
269.78	3.36
269.994	3.04
270.209	3.09
270.423	3.26
270.637	3.11
270.852	3.84
271.066	3.99
271.281	4.21
271.495	4.53
271.709	4.46
271.924	4.45
272.138	4.92
272.353	4.98
272.567	5.09
272.781	5.14
272.996	5.5
273.21	5.12
273.424	5.25
273.638	5.27
273.853	5.01
274.067	4.95
274.281	5.06
274.495	4.38
274.71	4.4
274.924	5.03
275.138	4.41
275.352	4.38
275.566	4.47
275.781	4.29
275.995	4.16
276.209	4.23
276.423	4.45
276.637	4.45
276.851	5.08
277.065	5.05
277.279	4.26
277.493	4.78
277.707	4.88
277.921	4.47
278.135	4.83
278.349	4.83
278.563	4.7
278.777	4.08
278.991	4.35
279.205	4.31
279.419	4.56
279.633	5.16
279.847	4.85
280.061	4.33
280.275	4.68
280.489	4.62
280.703	4.14
280.917	4.14
281.131	4.38
281.344	4.27
281.558	3.73
281.772	3.75
281.986	3.59
282.2	3.68
282.414	3.76
282.627	3.82
282.841	3.92
283.055	4.14
283.269	4.58
283.482	4.64
283.696	4.47
283.91	4.75
284.123	4.96
284.337	4.43
284.551	4.27
284.764	4.17
284.978	3.94
285.192	3.87
285.405	3.89
285.619	3.21
285.833	3.42
286.046	3.24
286.26	3.35
286.473	3.07
286.687	3.23
286.9	3.26
287.114	3.45
287.327	3.57
287.541	3.75
287.754	3.96
287.968	4.55
288.181	4.19
288.395	4.56
288.608	4.39
288.822	4.71
289.035	4.78
289.248	5.05
289.462	5.34
289.675	5.32
289.889	5.28
290.102	5.15
290.315	5.04
290.529	5.29
290.742	5.25
290.955	5.69
291.169	5.58
291.382	5.9
291.595	5.92
291.808	5.61
292.022	5.67
292.235	5.93
292.448	5.95
292.661	5.8
292.875	5.99
293.088	6.11
293.301	5.8
293.514	5.81
293.727	5.4
293.94	5.6
294.153	5.68
294.367	5.56
294.58	4.96
294.793	4.82
295.006	5.15
295.219	4.94
295.432	4.89
295.645	4.82
295.858	4.76
296.071	4.81
296.284	4.84
296.497	4.81
296.71	5.11
296.923	5.37
297.136	5.63
297.349	5.78
297.562	5.83
297.775	5.87
297.988	5.96
298.201	6.17
298.414	6.42
298.626	6.39
298.839	6.72
299.052	6.74
299.265	6.48
299.478	6.4
299.691	6.4
299.903	6.48
300.116	6.64
300.329	6.71
300.542	6.52
300.755	6.67
300.967	6.78
301.18	6.55
301.393	6.59
301.605	6.95
301.818	7.14
302.031	7.12
302.243	7.2
302.456	7.07
302.669	7.24
302.881	7.49
303.094	7.52
303.307	6.93
303.519	6.95
303.732	6.61
303.944	6.79
304.157	6.83
304.37	6.71
304.582	6.75
304.795	7.11
305.007	6.76
305.22	6.64
305.432	6.67
305.645	7.15
305.857	7.32
306.069	7.94
306.282	7.92
306.494	7.88
306.707	8.26
306.919	8.21
307.132	8.09
307.344	8.72
307.556	8.87
307.769	8.93
307.981	8.99
308.193	9.35
308.406	9.15
308.618	8.66
308.83	8.48
309.043	7.94
309.255	7.91
309.467	7.91
309.679	7.44
309.892	7.31
310.104	7.08
310.316	7.14
310.528	6.64
310.74	6.6
310.953	7.27
311.165	7.5
311.377	7.95
311.589	7.86
311.801	7.9
312.013	8.36
312.225	8.26
312.437	8.48
312.649	8.67
312.862	8.89
313.074	9.28
313.286	8.84
313.498	8.63
313.71	8.29
313.922	8.43
314.134	8.43
314.346	8.52
314.558	8.58
314.77	8.57
314.982	8.34
315.193	8.17
315.405	7.96
315.617	8.03
315.829	8.51
316.041	8.6
316.253	8.92
316.465	8.74
316.677	8.83
316.888	9.07
317.1	8.93
317.312	8.68
317.524	9.18
317.736	9.19
317.947	9.13
318.159	9.02
318.371	8.94
318.583	8.63
318.794	8.87
319.006	8.27
319.218	8.27
319.43	8.56
319.641	8.77
319.853	8.82
320.064	8.98
320.276	9.18
320.488	9.3
320.699	9.53
320.911	9.54
321.123	9.44
321.334	9.81
321.546	9.97
321.757	9.55
321.969	9.83
322.18	9.43
322.392	8.98
322.603	9.32
322.815	9.11
323.026	9.21
323.238	9.58
323.449	9.9
323.661	9.69
323.872	9.85
324.083	10.34
324.295	10.36
324.506	10.46
324.718	10.81
324.929	10.67
325.14	10.78
325.352	10.92
325.563	10.72
325.774	10.21
325.986	10.46
326.197	10.58
326.408	10.5
326.62	10.47
326.831	10.16
327.042	10.06
327.253	10.22
327.464	10
327.676	9.81
327.887	9.98
328.098	10.3
328.309	9.97
328.52	9.78
328.732	9.57
328.943	9.92
329.154	10
329.365	10.15
329.576	10.01
329.787	10.49
329.998	10.4
330.209	10.36
330.42	10.62
330.631	10.93
330.842	11.09
331.053	11.2
331.264	10.89
331.475	11.5
331.686	11.24
331.897	11.02
332.108	10.83
332.319	11.18
332.53	11.32
332.741	11.31
332.952	11.4
333.163	11.18
333.374	11.11
333.585	11.02
333.795	10.84
334.006	11.09
334.217	11.2
334.428	11.29
334.639	11.32
334.849	11.34
335.06	11.39
335.271	11.04
335.482	11.06
335.692	11.03
335.903	11.2
336.114	11.22
336.325	11.1
336.535	11.08
336.746	11.17
336.957	11.05
337.167	11.05
337.378	11.02
337.589	10.93
337.799	10.88
338.01	10.95
338.22	10.8
338.431	10.45
338.642	10.53
338.852	10.48
339.063	10.6
339.273	10.66
339.484	10.5
339.694	10.27
339.905	10.4
340.115	10.44
340.326	10.36
340.536	10.52
340.746	10.94
340.957	10.83
341.167	10.94
341.378	10.66
341.588	10.62
341.799	10.71
342.009	10.7
342.219	10.87
342.43	10.97
342.64	11.15
342.85	10.99
343.061	10.51
343.271	10.68
343.481	10.8
343.691	10.87
343.902	10.87
344.112	10.84
344.322	10.59
344.532	10.33
344.743	10.48
344.953	10.37
345.163	10.32
345.373	10.66
345.583	10.46
345.793	10.31
346.004	10.16
346.214	9.72
346.424	9.57
346.634	9.81
346.844	10.08
347.054	9.68
347.264	9.63
347.474	9.7
347.684	9.57
347.894	9.7
348.104	9.84
348.314	9.69
348.524	10.17
348.734	10.25
348.944	10.27
349.154	10.15
349.364	10.12
349.574	10.1
349.784	10.18
349.994	9.94
350.204	10
350.413	9.74
350.623	9.98
350.833	9.81
351.043	9.62
351.253	9.8
351.463	9.93
351.672	10.27
351.882	10.58
352.092	10.7
352.302	11.04
352.511	10.74
352.721	10.64
352.931	10.57
353.141	10.84
353.35	11.12
353.56	10.99
353.77	11.06
353.979	11.05
354.189	10.81
354.399	10.56
354.608	10.44
354.818	10.72
355.027	10.71
355.237	10.45
355.447	10.27
355.656	10.3
355.866	10.29
356.075	10.1
356.285	9.82
356.494	9.93
356.704	10.06
356.913	9.93
357.123	9.76
357.332	10.01
357.542	9.98
357.751	9.97
357.96	9.88
358.17	9.75
358.379	9.92
358.589	9.96
358.798	9.77
359.007	9.77
359.217	9.8
359.426	9.79
359.635	9.51
359.845	9.81
360.054	9.57
360.263	9.52
360.472	9.52
360.682	9.26
360.891	9.19
361.1	9.26
361.309	9.14
361.519	9.21
361.728	9.15
361.937	9.36
362.146	9.17
362.355	9.33
362.564	9.33
362.774	9.21
362.983	9.14
363.192	9.13
363.401	9.28
363.61	9.19
363.819	9.14
364.028	9.15
364.237	8.98
364.446	8.96
364.655	9.02
364.864	8.83
365.073	8.86
365.282	9.08
365.491	9.17
365.7	9.01
365.909	8.95
366.118	9.15
366.327	9.22
366.536	9.25
366.745	9.3
366.954	9.13
367.162	9.18
367.371	9.27
367.58	9.07
367.789	9.19
367.998	9.14
368.207	9.25
368.415	8.99
368.624	8.81
368.833	8.69
369.042	8.57
369.25	8.58
369.459	8.36
369.668	8.35
369.877	8.18
370.085	8.03
370.294	7.72
370.503	7.93
370.711	7.83
370.92	7.77
371.129	7.82
371.337	7.88
371.546	7.57
371.754	7.61
371.963	7.47
372.171	7.49
372.38	7.43
372.589	7.39
372.797	7.11
373.006	7.1
373.214	7.25
373.423	7.18
373.631	7.07
373.84	7.04
374.048	7.04
374.256	7.14
374.465	7.44
374.673	7.28
374.882	7.45
375.09	7.46
375.298	7.52
375.507	7.32
375.715	7.37
375.923	7.4
376.132	7.84
376.34	7.91
376.548	7.6
376.757	7.38
376.965	7.52
377.173	7.35
377.381	7.22
377.59	7.02
377.798	6.99
378.006	6.94
378.214	6.79
378.423	6.58
378.631	6.59
378.839	6.81
379.047	7
379.255	6.85
379.463	6.98
379.671	6.99
379.879	7.2
380.088	7.24
380.296	7.14
380.504	7.32
380.712	7.28
380.92	7.27
381.128	7.39
381.336	7.26
381.544	7.14
381.752	7.05
381.96	7.14
382.168	6.95
382.376	6.89
382.584	6.83
382.791	6.94
382.999	6.81
383.207	6.61
383.415	6.54
383.623	6.62
383.831	6.81
384.039	6.72
384.247	6.53
384.454	6.79
384.662	6.92
384.87	6.82
385.078	6.56
385.285	6.52
385.493	6.63
385.701	6.48
385.909	6.37
386.116	6.23
386.324	6.12
386.532	6.14
386.739	5.96
386.947	5.95
387.155	6.11
387.362	6.28
387.57	6.36
387.778	6.24
387.985	6.26
388.193	6.2
388.4	6.25
388.608	6.52
388.816	6.65
389.023	6.65
389.231	6.56
389.438	6.64
389.646	6.51
389.853	6.38
390.061	6.45
390.268	6.17
390.475	5.97
390.683	5.87
390.89	5.77
391.098	5.56
391.305	5.59
391.512	5.51
391.72	5.27
391.927	5.22
392.135	5.29
392.342	5.25
392.549	5.59
392.756	5.71
392.964	5.8
393.171	5.8
393.378	5.91
393.586	5.67
393.793	5.72
394	5.95
394.207	5.95
394.414	5.96
394.622	5.94
394.829	5.88
395.036	5.95
395.243	5.84
395.45	5.73
395.657	5.73
395.864	5.99
396.072	6.14
396.279	6.01
396.486	6.15
396.693	6.1
396.9	6.03
397.107	5.98
397.314	5.95
397.521	6.04
397.728	6
397.935	5.97
398.142	5.83
398.349	5.73
398.556	5.74
398.763	5.58
398.97	5.43
399.177	5.73
399.383	5.6
399.59	5.47
399.797	5.41
400.004	5.56
400.211	5.49
400.418	5.39
400.625	5.2
400.831	4.98
401.038	4.94
401.245	5.12
401.452	4.83
401.658	4.91
401.865	4.85
402.072	4.92
402.279	4.88
402.485	4.94
402.692	5.03
402.899	5.18
403.105	5.29
403.312	5.28
403.519	5.18
403.725	5.12
403.932	4.96
404.138	5.12
404.345	5.14
404.552	5
404.758	4.96
404.965	4.96
405.171	4.84
405.378	4.81
405.584	4.71
405.791	4.67
405.997	4.76
406.204	4.82
406.41	4.82
406.617	4.74
406.823	4.83
407.029	4.88
407.236	4.92
407.442	5.06
407.649	5.13
407.855	5.28
408.061	5.35
408.268	5.33
408.474	5.4
408.68	5.2
408.887	5.14
409.093	5.13
409.299	5.07
409.505	5
409.712	4.72
409.918	4.67
410.124	4.59
410.33	4.63
410.537	4.51
410.743	4.57
410.949	4.73
411.155	4.72
411.361	4.76
411.567	4.67
411.773	4.71
411.98	4.86
412.186	4.71
412.392	4.67
412.598	4.66
412.804	4.85
413.01	4.79
413.216	4.81
413.422	4.8
413.628	4.72
413.834	4.8
414.04	4.75
414.246	4.63
414.452	4.7
414.658	4.93
414.864	4.87
415.07	4.79
415.275	4.83
415.481	4.77
415.687	4.71
415.893	4.66
416.099	4.71
416.305	4.67
416.511	4.87
416.716	4.94
416.922	4.85
417.128	4.82
417.334	4.85
417.539	4.81
417.745	4.82
417.951	4.88
418.157	4.9
418.362	4.89
418.568	4.91
418.774	4.76
418.979	4.68
419.185	4.59
419.391	4.65
419.596	4.6
419.802	4.61
420.008	4.51
420.213	5.14
420.419	5.12
420.624	5.19
420.83	5.12
421.035	5.2
421.241	5.26
421.446	5.26
421.652	5.2
421.857	5.23
422.063	5.2
422.268	5.22
422.474	4.61
422.679	4.63
422.885	4.57
423.09	4.66
423.295	4.59
423.501	4.6
423.706	4.64
423.911	4.63
424.117	4.62
424.322	4.59
424.527	4.56
424.733	4.63
424.938	4.61
425.143	4.55
425.349	4.52
425.554	4.53
425.759	4.51
425.964	4.48
426.169	4.53
426.375	4.48
426.58	4.54
426.785	4.5
426.99	4.48
427.195	4.35
427.4	4.34
427.605	4.35
427.811	4.36
428.016	4.24
428.221	4.26
428.426	4.24
428.631	4.21
428.836	4.12
429.041	4.26
429.246	4.15
429.451	4.38
429.656	4.47
429.861	4.5
430.066	4.55
430.271	4.63
430.476	4.51
430.681	4.56
430.886	4.53
431.09	4.58
431.295	4.44
431.5	4.57
431.705	4.56
431.91	4.41
432.115	4.35
432.32	4.37
432.524	4.4
432.729	4.59
432.934	4.56
433.139	4.56
433.343	4.56
433.548	4.63
433.753	4.6
433.958	4.49
434.162	4.56
434.367	4.54
434.572	4.44
434.776	4.46
434.981	4.33
435.186	4.33
435.39	4.41
435.595	4.43
435.799	4.43
436.004	4.29
436.209	4.29
436.413	4.35
436.618	4.46
436.822	4.5
437.027	4.5
437.231	4.48
437.436	4.38
437.64	4.38
437.845	4.35
438.049	4.46
438.253	4.53
438.458	4.57
438.662	4.49
438.867	4.44
439.071	4.45
439.275	4.42
439.48	4.57
439.684	4.59
439.888	4.53
440.093	4.56
440.297	4.52
440.501	4.51
440.706	4.52
440.91	4.56
441.114	4.49
441.318	4.52
441.523	4.46
441.727	4.31
441.931	4.32
442.135	4.36
442.339	4.3
442.543	4.22
442.748	4.22
442.952	4.27
443.156	4.23
443.36	4.32
443.564	4.35
443.768	4.41
443.972	4.42
444.176	4.38
444.38	4.45
444.584	4.39
444.788	4.43
444.992	4.45
445.196	4.45
445.4	4.5
445.604	4.49
445.808	4.41
446.012	4.42
446.216	4.49
446.42	4.53
446.624	4.54
446.828	4.58
447.032	4.59
447.235	4.57
447.439	4.52
447.643	4.5
447.847	4.51
448.051	4.51
448.254	4.49
448.458	4.37
448.662	4.39
448.866	4.3
449.069	4.34
449.273	4.33
449.477	4.38
449.681	4.39
449.884	4.34
450.088	4.28
450.292	4.27
450.495	4.31
450.699	4.41
450.902	4.37
451.106	4.34
451.31	4.37
451.513	4.26
451.717	4.09
451.92	4.09
452.124	4.13
452.327	4.1
452.531	4.15
452.734	4.07
452.938	4.03
453.141	4.02
453.345	4.08
453.548	4.06
453.752	4.21
453.955	4.39
454.158	4.44
454.362	4.45
454.565	4.46
454.769	4.33
454.972	4.38
455.175	4.41
455.379	4.39
455.582	4.4
455.785	4.36
455.988	4.37
456.192	4.4
456.395	4.46
456.598	4.4
456.801	4.37
457.005	4.53
457.208	4.49
457.411	4.54
457.614	4.53
457.817	4.56
458.021	4.51
458.224	4.45
458.427	4.38
458.63	4.3
458.833	4.28
459.036	4.28
459.239	4.26
459.442	4.31
459.645	4.26
459.848	4.3
460.051	4.27
460.254	4.33
460.457	4.36
460.66	4.34
460.863	4.37
461.066	4.39
461.269	4.41
461.472	4.33
461.675	4.32
461.878	4.31
462.081	4.31
462.284	4.27
462.486	4.18
462.689	4.14
462.892	4.09
463.095	4.08
463.298	4.1
463.5	3.99
463.703	4.1
463.906	4.02
464.109	4.18
464.311	4.16
464.514	4.23
464.717	4.37
464.92	4.37
465.122	4.41
465.325	4.27
465.528	4.36
465.73	4.48
465.933	4.55
466.135	4.58
466.338	4.48
466.541	4.48
466.743	4.42
466.946	4.39
467.148	4.41
467.351	4.42
467.553	4.48
467.756	4.31
467.958	4.25
468.161	4.15
468.363	4.14
468.566	4.19
468.768	4.09
468.971	4.11
469.173	3.99
469.375	3.93
469.578	3.9
469.78	3.96
469.983	4.02
470.185	4.13
470.387	4.13
470.59	4.09
470.792	4.02
470.994	4.13
471.196	4.05
471.399	4.18
471.601	4.25
471.803	4.27
472.005	4.29
472.208	4.33
472.41	4.24
472.612	4.33
472.814	4.41
473.016	4.41
473.218	4.35
473.421	4.39
473.623	4.43
473.825	4.48
474.027	4.5
474.229	4.43
474.431	4.4
474.633	4.49
474.835	4.5
475.037	4.35
475.239	4.38
475.441	4.47
475.643	4.53
475.845	4.44
476.047	4.36
476.249	4.43
476.451	4.51
476.653	4.61
476.855	4.49
477.057	4.51
477.258	4.63
477.46	4.59
477.662	4.58
477.864	4.57
478.066	4.55
478.268	4.56
478.469	4.43
478.671	4.37
478.873	4.26
479.075	4.38
479.276	4.31
479.478	4.29
479.68	4.32
479.882	4.25
480.083	4.22
480.285	4.2
480.487	4.17
480.688	4.22
480.89	4.24
481.091	4.35
481.293	4.24
481.495	4.17
481.696	4.17
481.898	4.14
482.099	4.14
482.301	4.12
482.502	4.12
482.704	4.15
482.905	4.14
483.107	4.13
483.308	4.08
483.51	4.09
483.711	4.12
483.913	4.12
484.114	4.17
484.315	4.17
484.517	4.21
484.718	4.21
484.92	4.23
485.121	4.23
485.322	4.24
485.524	4.26
485.725	4.3
485.926	4.31
486.127	4.33
486.329	4.3
486.53	4.28
486.731	4.25
486.932	4.26
487.134	4.22
487.335	4.21
487.536	4.21
487.737	4.18
487.938	4.21
488.139	4.17
488.341	4.13
488.542	4.07
488.743	4.12
488.944	4.1
489.145	4.11
489.346	4.15
489.547	4.15
489.748	4.13
489.949	4.17
490.15	4.14
490.351	4.13
490.552	4.14
490.753	4.2
490.954	4.18
491.155	4.18
491.356	4.19
491.557	4.18
491.758	4.2
491.959	4.23
492.159	4.23
492.36	4.19
492.561	4.21
492.762	4.28
492.963	4.29
493.164	4.31
493.364	4.37
493.565	4.36
493.766	4.31
493.967	4.37
494.167	4.3
494.368	4.3
494.569	4.41
494.769	4.47
494.97	4.44
495.171	4.45
495.371	4.47
495.572	4.44
495.773	4.39
495.973	4.42
496.174	4.41
496.375	4.48
496.575	4.54
496.776	4.52
496.976	4.42
497.177	4.42
497.377	4.44
497.578	4.42
497.778	4.4
497.979	4.41
498.179	4.42
498.38	4.43
498.58	4.38
498.78	4.37
498.981	4.34
499.181	4.38
499.382	4.41
499.582	4.42
499.782	4.41
499.983	4.55
500.183	4.62
500.383	4.69
500.584	4.75
500.784	4.85
500.984	4.84
501.184	4.87
501.385	4.95
501.585	4.93
501.785	4.89
501.985	4.95
502.185	4.88
502.386	4.97
502.586	5.03
502.786	4.98
502.986	4.97
503.186	5.03
503.386	5.01
503.586	5.08
503.786	5.1
503.987	5.14
504.187	5.13
504.387	5.03
504.587	5
504.787	4.94
504.987	5
505.187	5.08
505.387	5.11
505.587	5.2
505.786	5.17
505.986	5.27
506.186	5.36
506.386	5.36
506.586	5.55
506.786	5.64
506.986	5.68
507.186	5.7
507.386	5.68
507.585	5.71
507.785	5.72
507.985	5.76
508.185	5.76
508.384	5.79
508.584	5.87
508.784	5.77
508.984	5.77
509.183	5.77
509.383	5.85
509.583	5.84
509.782	5.89
509.982	5.96
510.182	5.98
510.381	6.02
510.581	6.01
510.781	6.08
510.98	6.15
511.18	6.18
511.379	6.29
511.579	6.23
511.778	6.35
511.978	6.4
512.177	6.41
512.377	6.5
512.576	6.53
512.776	6.74
512.975	6.81
513.175	6.93
513.374	6.93
513.573	6.97
513.773	7.09
513.972	7.1
514.172	7.13
514.371	7.19
514.57	7.25
514.77	7.28
514.969	7.17
515.168	7.17
515.367	7.21
515.567	7.29
515.766	7.28
515.965	7.34
516.164	7.43
516.364	7.43
516.563	7.5
516.762	7.57
516.961	7.67
517.16	7.77
517.359	7.83
517.559	7.93
517.758	8.04
517.957	8.11
518.156	8.2
518.355	8.29
518.554	8.38
518.753	8.54
518.952	8.6
519.151	8.66
519.35	8.7
519.549	8.78
519.748	8.84
519.947	8.94
520.146	9.08
520.345	9.14
520.544	9.19
520.743	9.25
520.942	9.26
521.141	9.35
521.339	9.47
521.538	9.61
521.737	9.67
521.936	9.77
522.135	9.77
522.333	9.86
522.532	9.91
522.731	10
522.93	10.16
523.129	10.25
523.327	10.29
523.526	10.37
523.725	10.45
523.923	10.56
524.122	10.63
524.321	10.74
524.519	10.76
524.718	10.84
524.917	10.9
525.115	10.94
525.314	10.99
525.512	11.11
525.711	11.16
525.909	11.24
526.108	11.3
526.306	11.41
526.505	11.49
526.703	11.62
526.902	11.65
527.1	11.71
527.299	11.8
527.497	11.89
527.696	11.89
527.894	11.95
528.092	11.97
528.291	12.04
528.489	12.06
528.688	12.13
528.886	12.15
529.084	12.23
529.283	12.29
529.481	12.31
529.679	12.33
529.877	12.42
530.076	12.48
530.274	12.56
530.472	12.64
530.67	12.71
530.869	12.77
531.067	12.9
531.265	13.03
531.463	13.12
531.661	13.17
531.859	13.29
532.057	13.4
532.255	13.48
532.454	13.53
532.652	13.57
532.85	13.63
533.048	13.68
533.246	13.68
533.444	13.7
533.642	13.74
533.84	13.82
534.038	13.87
534.236	13.88
534.434	13.95
534.632	14.01
534.83	14.07
535.027	14.18
535.225	14.24
535.423	14.32
535.621	14.42
535.819	14.45
536.017	14.56
536.215	14.61
536.412	14.74
536.61	14.79
536.808	14.84
537.006	14.85
537.203	14.85
537.401	14.88
537.599	14.99
537.797	15.02
537.994	15.14
538.192	15.19
538.39	15.24
538.587	15.2
538.785	15.26
538.983	15.37
539.18	15.54
539.378	15.63
539.575	15.81
539.773	15.8
539.97	15.85
540.168	15.88
540.366	15.94
540.563	16.01
540.761	16.06
540.958	16.11
541.155	16.21
541.353	16.23
541.55	16.25
541.748	16.21
541.945	16.25
542.143	16.34
542.34	16.44
542.537	16.49
542.735	16.55
542.932	16.66
543.129	16.7
543.327	16.7
543.524	16.8
543.721	16.92
543.919	17.14
544.116	17.32
544.313	17.4
544.51	17.49
544.708	17.62
544.905	17.71
545.102	17.85
545.299	17.97
545.496	18.12
545.693	18.18
545.891	18.16
546.088	18.14
546.285	18.15
546.482	18.2
546.679	18.17
546.876	18.13
547.073	18.13
547.27	18.06
547.467	18.11
547.664	18.05
547.861	17.98
548.058	18.13
548.255	18.17
548.452	18.19
548.649	18.11
548.846	18.13
549.043	18.03
549.24	18.1
549.437	18.07
549.633	18.01
549.83	18.05
550.027	18.08
550.224	18.03
550.421	17.94
550.618	17.93
550.814	17.98
551.011	18.08
551.208	18.28
551.405	18.2
551.601	18.31
551.798	18.4
551.995	18.45
552.191	18.5
552.388	18.53
552.585	18.54
552.781	18.52
552.978	18.53
553.175	18.52
553.371	18.5
553.568	18.59
553.764	18.61
553.961	18.59
554.157	18.57
554.354	18.58
554.55	18.54
554.747	18.59
554.943	18.73
555.14	18.82
555.336	18.92
555.533	18.98
555.729	18.95
555.926	18.9
556.122	18.82
556.318	18.92
556.515	19
556.711	19.13
556.907	18.98
557.104	19.08
557.3	19.02
557.496	19.01
557.693	19.03
557.889	19.11
558.085	19.13
558.281	19.29
558.478	19.25
558.674	19.18
558.87	19.07
559.066	19.15
559.262	19.09
559.459	19
559.655	18.9
559.851	19
560.047	19.04
560.243	19.11
560.439	19.19
560.635	19.13
560.831	19.15
561.027	19.25
561.223	19.41
561.419	19.4
561.615	19.41
561.811	19.6
562.007	19.63
562.203	19.69
562.399	19.73
562.595	19.72
562.791	19.82
562.987	19.88
563.183	19.89
563.379	19.88
563.575	20.07
563.771	20.21
563.966	20.13
564.162	20.08
564.358	20.04
564.554	20.03
564.75	19.95
564.945	19.94
565.141	19.91
565.337	19.9
565.533	19.92
565.728	19.78
565.924	19.82
566.12	19.84
566.315	19.82
566.511	19.9
566.707	20
566.902	20.14
567.098	20.18
567.293	20.29
567.489	20.47
567.684	20.58
567.88	20.69
568.076	20.66
568.271	20.72
568.467	20.86
568.662	20.84
568.858	20.88
569.053	20.87
569.248	20.9
569.444	20.9
569.639	20.82
569.835	20.71
570.03	20.72
570.225	20.78
570.421	20.83
570.616	20.75
570.812	20.74
571.007	20.72
571.202	20.69
571.397	20.68
571.593	20.75
571.788	20.76
571.983	20.76
572.178	20.77
572.374	20.83
572.569	20.76
572.764	20.81
572.959	20.82
573.154	20.82
573.35	20.85
573.545	20.94
573.74	20.9
573.935	20.96
574.13	21.06
574.325	21.09
574.52	21.06
574.715	21.18
574.91	21.15
575.105	21.24
575.3	21.25
575.495	21.38
575.69	21.45
575.885	21.49
576.08	21.46
576.275	21.59
576.47	21.63
576.665	21.79
576.86	21.76
577.055	21.93
577.25	21.86
577.444	21.94
577.639	21.89
577.834	21.87
578.029	22.04
578.224	22.17
578.418	22.17
578.613	22.24
578.808	22.13
579.003	22.17
579.197	22.16
579.392	22.22
579.587	22.2
579.781	22.27
579.976	22.12
580.171	22
580.365	22.03
580.56	21.98
580.755	22
580.949	22.01
581.144	21.98
581.338	21.93
581.533	21.85
581.727	21.79
581.922	21.81
582.116	21.94
582.311	21.97
582.505	22.02
582.7	22.06
582.894	22
583.089	22.09
583.283	22.15
583.478	22.21
583.672	22.44
583.866	22.56
584.061	22.54
584.255	22.62
584.449	22.67
584.644	22.63
584.838	22.54
585.032	22.58
585.226	22.49
585.421	22.52
585.615	22.74
585.809	22.81
586.003	22.85
586.198	22.75
586.392	22.82
586.586	22.84
586.78	22.75
586.974	22.92
587.168	23.04
587.363	23.32
587.557	23.4
587.751	23.29
587.945	23.15
588.139	23.16
588.333	23.38
588.527	23.31
588.721	23.19
588.915	23.32
589.109	23.23
589.303	23.26
589.497	23.1
589.691	23.12
589.885	23.14
590.079	23.31
590.273	23.29
590.466	23.23
590.66	23.33
590.854	23.46
591.048	23.56
591.242	23.65
591.436	23.65
591.629	23.82
591.823	23.9
592.017	23.98
592.211	24.03
592.404	24.1
592.598	24.16
592.792	24.13
592.986	24.1
593.179	24.12
593.373	24.13
593.567	24.02
593.76	23.91
593.954	23.76
594.147	23.78
594.341	23.72
594.535	23.75
594.728	23.64
594.922	23.57
595.115	23.59
595.309	23.4
595.502	23.34
595.696	23.45
595.889	23.45
596.083	23.64
596.276	23.67
596.47	23.57
596.663	23.53
596.856	23.67
597.05	23.69
597.243	23.67
597.437	23.82
597.63	23.94
597.823	23.87
598.017	24.02
598.21	23.93
598.403	23.85
598.596	23.98
598.79	24.1
598.983	24.21
599.176	24.42
599.369	24.52
599.563	24.43
599.756	24.42
599.949	24.53
600.142	24.51
600.335	24.4
600.528	24.45
600.722	24.4
600.915	24.35
601.108	24.3
601.301	24.31
601.494	24.37
601.687	24.33
601.88	24.37
602.073	24.4
602.266	24.32
602.459	24.35
602.652	24.27
602.845	24.35
603.038	24.36
603.231	24.26
603.424	24.09
603.617	24.11
603.809	24.11
604.002	24.02
604.195	24.01
604.388	24.12
604.581	24.16
604.774	24.36
604.966	24.26
605.159	24.25
605.352	24.35
605.545	24.49
605.737	24.46
605.93	24.58
606.123	24.77
606.316	24.81
606.508	24.82
606.701	24.96
606.894	24.83
607.086	24.98
607.279	25.27
607.471	25.32
607.664	25.48
607.857	25.58
608.049	25.81
608.242	25.94
608.434	26.19
608.627	26.53
608.819	27
609.012	27.41
609.204	27.9
609.397	28.21
609.589	28.78
609.782	29.37
609.974	29.96
610.166	30.51
610.359	30.98
610.551	31.51
610.743	31.89
610.936	32.18
611.128	32.45
611.32	32.7
611.513	32.85
611.705	32.79
611.897	32.7
612.09	32.48
612.282	32.19
612.474	32.19
612.666	31.99
612.858	31.66
613.051	31.22
613.243	30.96
613.435	30.74
613.627	30.44
613.819	30.37
614.011	30.23
614.203	30.1
614.395	29.86
614.588	29.43
614.78	29.15
614.972	29
615.164	28.91
615.356	28.69
615.548	28.24
615.74	27.93
615.932	27.47
616.124	26.98
616.315	26.8
616.507	26.86
616.699	26.63
616.891	26.48
617.083	26.31
617.275	26.14
617.467	26.1
617.659	26.07
617.85	26.07
618.042	26.04
618.234	25.91
618.426	25.84
618.618	25.52
618.809	25.67
619.001	25.49
619.193	25.57
619.384	25.47
619.576	25.28
619.768	25.4
619.959	25.26
620.151	25.41
620.343	25.7
620.534	25.59
620.726	25.79
620.917	25.74
621.109	26.11
621.301	25.96
621.492	26.2
621.684	26.45
621.875	26.34
622.067	26.69
622.258	26.51
622.45	26.6
622.641	26.75
622.832	26.74
623.024	26.69
623.215	26.45
623.407	26.67
623.598	26.72
623.789	26.6
623.981	26.67
624.172	26.52
624.363	26.71
624.555	26.63
624.746	26.78
624.937	26.89
625.129	26.88
625.32	26.88
625.511	27
625.702	26.78
625.893	26.88
626.085	26.67
626.276	26.65
626.467	26.62
626.658	26.47
626.849	26.29
627.04	26.21
627.231	26.22
627.422	26.33
627.614	26.18
627.805	26.22
627.996	26.15
628.187	26.46
628.378	26.56
628.569	26.57
628.76	26.81
628.951	26.96
629.142	27.02
629.332	27.14
629.523	27.12
629.714	27.16
629.905	27.33
630.096	27.41
630.287	27.4
630.478	27.46
630.669	27.56
630.859	27.47
631.05	27.56
631.241	27.56
631.432	27.37
631.623	27.21
631.813	27.07
632.004	26.96
632.195	26.74
632.385	26.58
632.576	26.55
632.767	26.32
632.957	26.25
633.148	26.06
633.339	25.97
633.529	26.01
633.72	26.09
633.91	26.03
634.101	25.95
634.292	26.08
634.482	26.07
634.673	26.06
634.863	26.21
635.054	26.3
635.244	26.45
635.435	26.51
635.625	26.49
635.815	26.34
636.006	26.34
636.196	26.32
636.387	26.17
636.577	26.2
636.767	25.92
636.958	25.91
637.148	25.71
637.338	25.46
637.529	25.37
637.719	25.28
637.909	25.47
638.099	25.62
638.29	25.61
638.48	25.67
638.67	25.74
638.86	25.78
639.05	25.54
639.241	25.63
639.431	25.78
639.621	25.84
639.811	26.13
640.001	26.13
640.191	25.98
640.381	26.02
640.571	26.22
640.761	26.15
640.951	26.17
641.141	26.37
641.331	26.29
641.521	26.25
641.711	26.27
641.901	26.3
642.091	26.33
642.281	26.37
642.471	26.3
642.661	26
642.851	26.08
643.041	26.09
643.231	26.1
643.42	26.3
643.61	26.29
643.8	26.15
643.99	26.1
644.18	26.07
644.369	26.22
644.559	26.33
644.749	26.59
644.939	26.64
645.128	26.81
645.318	26.97
645.508	27
645.697	26.93
645.887	27.08
646.076	27.07
646.266	27.07
646.456	26.9
646.645	27.06
646.835	27.08
647.024	26.92
647.214	26.87
647.403	26.66
647.593	26.6
647.782	26.87
647.972	26.7
648.161	26.64
648.351	26.76
648.54	26.88
648.73	26.64
648.919	26.59
649.108	26.68
649.298	26.73
649.487	26.91
649.677	26.82
649.866	26.64
650.055	26.84
650.244	26.79
650.434	26.77
650.623	26.74
650.812	26.91
651.002	27.01
651.191	27.22
651.38	27.38
651.569	27.15
651.758	27.29
651.947	27.31
652.137	27.46
652.326	27.42
652.515	27.21
652.704	27.18
652.893	27.07
653.082	27.08
653.271	26.95
653.46	26.8
653.649	27.08
653.838	26.88
654.027	26.97
654.216	26.9
654.405	27.03
654.594	26.98
654.783	26.99
654.972	27.15
655.161	27.03
655.35	26.71
655.539	26.69
655.728	26.51
655.916	26.66
656.105	26.69
656.294	26.72
656.483	26.6
656.672	26.69
656.86	26.7
657.049	26.5
657.238	26.3
657.427	26.67
657.615	26.63
657.804	26.65
657.993	26.61
658.181	26.81
658.37	26.84
658.559	26.88
658.747	27.07
658.936	27.14
659.125	27.37
659.313	27.64
659.502	27.64
659.69	27.55
659.879	27.57
660.067	27.57
660.256	27.28
660.444	27.19
660.633	27.41
660.821	27.21
661.01	27.05
661.198	26.92
661.387	26.89
661.575	26.82
661.763	26.9
661.952	26.9
662.14	26.99
662.328	27.1
662.517	27.16
662.705	26.91
662.893	27.07
663.082	27.03
663.27	27
663.458	27.09
663.646	26.93
663.834	27.14
664.023	27.08
664.211	27.13
664.399	27.04
664.587	26.93
664.775	27.1
664.963	27.19
665.152	27.44
665.34	27.56
665.528	27.39
665.716	27.68
665.904	27.48
666.092	27.56
666.28	27.69
666.468	27.82
666.656	27.69
666.844	27.7
667.032	27.89
667.22	28
667.408	27.99
667.596	28.18
667.784	28.11
667.971	28.26
668.159	28.25
668.347	28.09
668.535	27.97
668.723	28.19
668.911	28.02
669.098	27.6
669.286	27.4
669.474	27.23
669.662	26.86
669.849	26.77
670.037	26.88
670.225	26.92
670.413	26.78
670.6	26.85
670.788	26.73
670.976	26.85
671.163	26.98
671.351	27.05
671.538	27.35
671.726	27.54
671.913	27.71
672.101	27.47
672.289	27.61
672.476	27.72
672.664	27.52
672.851	27.57
673.039	27.46
673.226	27.38
673.413	27.42
673.601	27.12
673.788	27.1
673.976	27.02
674.163	27.22
674.35	26.97
674.538	26.94
674.725	27.29
674.912	27.56
675.1	27.5
675.287	27.62
675.474	27.73
675.662	27.83
675.849	27.86
676.036	27.9
676.223	28.17
676.411	28.18
676.598	28.31
676.785	28.07
676.972	27.77
677.159	27.94
677.346	27.87
677.533	27.9
677.721	27.89
677.908	28.1
678.095	28.11
678.282	27.66
678.469	27.7
678.656	27.81
678.843	27.97
679.03	27.96
679.217	27.9
679.404	27.98
679.591	27.86
679.778	27.93
679.964	27.92
680.151	27.67
680.338	27.81
680.525	27.87
680.712	27.74
680.899	27.84
681.086	27.81
681.272	27.73
681.459	27.66
681.646	27.77
681.833	27.81
682.02	27.7
682.206	27.9
682.393	27.95
682.58	27.89
682.766	28.02
682.953	28.1
683.14	28.33
683.326	28.63
683.513	28.95
683.7	28.89
683.886	28.69
684.073	28.81
684.259	28.77
684.446	28.77
684.632	29.05
684.819	28.86
685.005	28.46
685.192	28.62
685.378	28.68
685.565	28.47
685.751	28.63
685.938	28.81
686.124	28.49
686.31	28.43
686.497	28.73
686.683	28.49
686.87	28.79
687.056	28.95
687.242	28.53
687.429	28.58
687.615	28.82
687.801	28.45
687.987	28.45
688.174	28.53
688.36	28.83
688.546	28.78
688.732	28.91
688.918	28.75
689.105	28.78
689.291	28.94
689.477	28.71
689.663	28.55
689.849	28.78
690.035	28.81
690.221	29.12
690.407	29.22
690.593	28.76
690.779	28.6
690.965	28.56
691.151	28.6
691.337	28.51
691.523	28.66
691.709	28.55
691.895	28.59
692.081	28.5
692.267	28.33
692.453	28
692.639	28.29
692.825	28.4
693.011	28.5
693.196	28.78
693.382	28.85
693.568	28.73
693.754	29.09
693.94	28.95
694.125	29.13
694.311	29.31
694.497	29.47
694.682	29.43
694.868	29.34
695.054	28.99
695.239	28.99
695.425	28.92
695.611	28.98
695.796	28.8
695.982	28.85
696.168	28.51
696.353	28.15
696.539	28.21
696.724	28.11
696.91	28.09
697.095	28.24
697.281	28.03
697.466	28.06
697.652	28.18
697.837	28.19
698.023	28.2
698.208	28.23
698.393	28.42
698.579	28.52
698.764	28.68
698.949	28.89
699.135	28.83
699.32	28.7
699.505	28.82
699.691	28.77
699.876	28.5
700.061	28.76
700.246	28.98
700.432	28.92
700.617	28.72
700.802	28.51
700.987	28.33
701.172	28.7
701.358	28.9
701.543	28.96
701.728	28.95
701.913	29.22
702.098	28.69
702.283	28.66
702.468	28.75
702.653	28.61
702.838	29.05
703.023	29.36
703.208	29.1
703.393	29.48
703.578	29.41
703.763	29.57
703.948	29.57
704.133	29.86
704.318	29.79
704.503	29.88
704.688	30.18
704.873	30.08
705.057	30.05
705.242	30.23
705.427	29.81
705.612	30.14
705.797	30.22
705.981	30.6
706.166	30.85
706.351	31.04
706.536	31.33
706.72	31.84
706.905	32.01
707.09	31.99
707.274	32.05
707.459	32.33
707.644	32.61
707.828	32.79
708.013	32.7
708.197	32.79
708.382	32.75
708.567	32.92
708.751	32.3
708.936	32.26
709.12	32.36
709.305	32.48
709.489	32.55
709.673	32.01
709.858	32.07
710.042	31.91
710.227	32.02
710.411	31.86
710.596	31.62
710.78	31.94
710.964	32.05
711.149	32.11
711.333	32.03
711.517	31.61
711.702	31.85
711.886	31.4
712.07	31.93
712.254	31.65
712.438	31.73
712.623	31.51
712.807	31.36
712.991	30.95
713.175	30.53
713.359	30.5
713.544	30.61
713.728	30.35
713.912	30.43
714.096	29.88
714.28	29.85
714.464	29.57
714.648	29.73
714.832	29.53
715.016	29.49
715.2	29.59
715.384	29.41
715.568	29.13
715.752	29.11
715.936	29.19
716.12	28.73
716.304	28.88
716.488	29.3
716.671	29.02
716.855	28.94
717.039	28.95
717.223	29.08
717.407	29.2
717.59	29.57
717.774	29.62
717.958	28.95
718.142	29.61
718.325	29.27
718.509	28.95
718.693	29.07
718.877	28.99
719.06	28.78
719.244	28.78
719.428	28.26
719.611	28.17
719.795	28.05
719.978	28.74
720.162	28.85
720.345	29.39
720.529	29.74
720.713	30.01
720.896	30.47
721.08	30.98
721.263	30.66
721.446	31.11
721.63	31.05
721.813	31.17
721.997	31.12
722.18	30.58
722.364	29.81
722.547	29.43
722.73	29.23
722.914	29.06
723.097	29.12
723.28	29
723.464	28.82
723.647	28.8
723.83	28.62
724.013	28.53
724.197	29.19
724.38	29.36
724.563	29.46
724.746	29.57
724.929	29.79
725.112	29.2
725.296	29.94
725.479	30.23
725.662	30.29
725.845	30.38
726.028	30.53
726.211	29.92
726.394	30
726.577	29.65
726.76	29.64
726.943	29.14
727.126	29.42
727.309	28.79
727.492	28.77
727.675	28.34
727.858	28.52
728.041	28.41
728.224	28.65
728.407	28.72
728.589	29.24
728.772	29.08
728.955	29.26
729.138	29.07
729.321	29.05
729.503	29.33
729.686	29.69
729.869	29.54
730.052	29.96
730.234	29.9
730.417	29.83
730.6	29.45
730.782	29.66
730.965	29.69
731.148	30.04
731.33	30.18
731.513	30.26
731.695	30.52
731.878	30.48
732.061	30.03
732.243	30.23
732.426	30.72
732.608	30.77
732.791	30.53
732.973	30.6
733.156	30.59
733.338	30.62
733.52	30.1
733.703	29.47
733.885	29.7
734.068	30.05
734.25	30.18
734.432	30.01
734.615	30.36
734.797	30.51
734.979	30.6
735.162	30.18
735.344	30.31
735.526	30.04
735.708	30.37
735.891	30.19
736.073	29.59
736.255	29.18
736.437	28.71
736.619	28.32
736.802	28.07
736.984	28.13
737.166	28.07
737.348	27.83
737.53	28.55
737.712	28.79
737.894	29.24
738.076	29.54
738.258	29.56
738.44	29.4
738.622	29.8
738.804	30.08
738.986	29.86
739.168	30.7
739.35	30.95
739.532	30.56
739.714	30.54
739.896	29.81
740.078	29.74
740.259	29.63
740.441	30
740.623	29.9
740.805	29.97
740.987	29.83
741.168	29.27
741.35	29.15
741.532	29.34
741.714	29.19
741.895	28.93
742.077	29.21
742.259	29.62
742.44	29.87
742.622	30.01
742.804	29.86
742.985	29.58
743.167	30.09
743.348	30.11
743.53	29.78
743.711	30.46
743.893	31.49
744.075	31.48
744.256	31.24
744.438	30.73
744.619	30.83
744.8	30.82
744.982	31.67
745.163	31.66
745.345	32.11
745.526	32.27
745.707	31.56
745.889	31.33
746.07	30.61
746.252	30.55
746.433	31.36
746.614	31.57
746.795	32.05
746.977	31.65
747.158	31.67
747.339	31.42
747.52	31.62
747.702	32.19
747.883	31.98
748.064	32.36
748.245	32.44
748.426	32.14
748.607	31.55
748.788	31.33
748.97	31.38
749.151	30.64
749.332	31.2
749.513	31.38
749.694	31.36
749.875	31.72
750.056	32.22
750.237	32.06
750.418	31.85
750.599	32.06
750.78	32
750.96	31.66
751.141	31.87
751.322	30.59
751.503	30.02
751.684	29.64
751.865	28.9
752.046	28.78
752.226	28.97
752.407	28.64
752.588	29.17
752.769	29.02
752.949	29.47
753.13	29.21
753.311	29.93
753.492	30.15
753.672	30.32
753.853	30.68
754.034	30.24
754.214	30.52
754.395	30.7
754.575	30.59
754.756	30.38
754.937	30.42
755.117	31.25
755.298	30.62
755.478	30.2
755.659	30.17
755.839	30.27
756.02	30.68
756.2	30.42
756.381	30.69
756.561	29.71
756.741	29.78
756.922	29.53
757.102	28.86
757.283	28.83
757.463	29.41
757.643	28.98
757.823	28.83
758.004	28.49
758.184	28.29
758.364	28.18
758.545	28.89
758.725	28.75
758.905	28.8
759.085	28.64
759.265	29.06
759.446	28.71
759.626	28.87
759.806	28.75
759.986	27.93
760.166	28.27
760.346	27.81
760.526	27.03
760.706	27.77
760.886	28.12
761.066	28.75
761.246	29.06
761.426	28.75
761.606	28.8
761.786	29.15
761.966	30.03
762.146	29.95
762.326	30.23
762.506	30.87
762.686	30.57
762.866	30.04
763.046	30.11
763.225	29.63
763.405	30.02
763.585	29.8
763.765	29.64
763.945	29.62
764.124	29.24
764.304	29.57
764.484	29.4
764.664	29.21
764.843	29.58
765.023	29.41
765.203	29.67
765.382	29.77
765.562	30.17
765.741	29.83
765.921	30.26
766.101	30.41
766.28	30.26
766.46	30.1
766.639	30.99
766.819	30.85
766.998	30.94
767.178	30.83
767.357	30.45
767.537	30.71
767.716	31.35
767.896	30.82
768.075	31.07
768.254	30.42
768.434	30.54
768.613	29.66
768.792	29.51
768.972	28.96
769.151	29.32
769.33	30.18
769.51	29.54
769.689	29.75
769.868	29.65
770.047	29.65
770.226	30.22
770.406	30.4
770.585	31.17
770.764	31.58
770.943	31.81
771.122	30.71
771.301	29.79
771.48	30.29
771.66	30.05
771.839	29.91
772.018	29.71
772.197	30.37
772.376	30.12
772.555	29.04
772.734	29.06
772.913	28.34
773.092	29.56
773.271	29.98
773.449	30.06
773.628	30.11
773.807	31.12
773.986	30.87
774.165	30.64
774.344	31.36
774.523	32.41
774.701	32.83
774.88	33.9
775.059	34.14
775.238	33.46
775.417	33.18
775.595	32.88
775.774	32.18
775.953	33.57
776.131	33.72
776.31	33.56
776.489	33.58
776.667	33.26
776.846	33.7
777.025	33.65
777.203	33.59
777.382	34.25
777.56	34.06
777.739	34.17
777.917	33.42
778.096	32.7
778.274	33.39
778.453	32.76
778.631	32.51
778.81	31.7
778.988	31.63
779.166	32.51
779.345	32.39
779.523	32.34
779.702	32.31
779.88	32.69
780.058	32.88
780.237	31.46
780.415	32.21
780.593	31.4
780.771	31.85
780.95	32.38
781.128	33.04
781.306	32.79
781.484	34.11
781.662	34.32
781.841	34.21
782.019	34.14
782.197	35.23
782.375	34.47
782.553	34.85
782.731	34.83
782.909	33.99
783.087	34.24
783.265	34.25
783.443	33.51
783.621	32.33
783.799	32.05
783.977	32.37
784.155	32.08
784.333	32.31
784.511	32.78
784.689	32.18
784.867	32.64
785.045	32.05
785.223	31.26
785.4	30.06
785.578	31
785.756	31.12
785.934	30.82
786.112	31.02
786.289	31.23
786.467	30.05
786.645	30.4
786.823	30.22
787	29.59
787.178	29.38
787.356	30.7
787.533	30.44
787.711	31.55
787.889	31.7
788.066	30.42
788.244	30.06
788.421	31.3
788.599	31.48
788.776	31.03
788.954	31.79
789.131	33.2
789.309	33.28
789.486	33.29
789.664	32.06
789.841	31.18
790.019	31.44
790.196	31.79
790.373	30.62
790.551	30.47
790.728	30.38
790.906	29.16
791.083	28.46
791.26	27.29
791.437	27.29
791.615	27.84
791.792	28.57
791.969	29.3
792.146	28.9
792.324	30.62
792.501	30.87
792.678	31.72
792.855	31.89
793.032	31.28
793.209	31.93
793.387	31.61
793.564	31.18
793.741	32.3
793.918	31.78
794.095	30.97
794.272	31.19
794.449	30.84
794.626	31.01
794.803	32.05
794.98	31.75
795.157	31.91
795.334	32.53
795.511	32.74
795.688	32
795.864	32.05
796.041	32.95
796.218	32.05
796.395	32.28
796.572	31.3
796.749	31.02
796.925	30.98
797.102	31.01
797.279	31.17
797.456	31.55
797.632	31.41
797.809	31.42
797.986	30.55
798.162	31.39
798.339	31.34
798.516	32.23
798.692	31.89
798.869	32.79
799.046	31.78
799.222	30.88
799.399	31.01
799.575	31.03
799.752	31.21
799.928	32.09
800.105	31.66
800.281	31.68
800.458	32.84
800.634	32.68
800.811	32
800.987	33.05
801.163	35.52
801.34	34.35
801.516	34.12
801.692	34.04
801.869	33.99
802.045	34.02
802.221	33.37
802.398	32.04
802.574	31.68
802.75	31.99
802.926	31.85
803.103	29.96
803.279	29.63
803.455	30.41
803.631	30.21
803.807	30.79
803.983	30.97
804.16	31.29
804.336	30.82
804.512	31.59
804.688	32.15
804.864	32.22
805.04	30.39
805.216	30.76
805.392	30.69
805.568	30.06
805.744	29.68
805.92	28.3
806.096	30.48
806.272	31.07
806.448	31.69
806.623	31.53
806.799	31.91
806.975	33.75
807.151	33.42
807.327	32.71
807.503	33.52
807.678	33.12
807.854	34.61
808.03	33.39
808.206	31.73
808.381	30.87
808.557	31.11
808.733	29.98
808.908	29.68
809.084	29.36
809.26	29.36
809.435	29.72
809.611	29.93
809.787	29.74
809.962	30.27
810.138	31.28
810.313	32.3
810.489	31.54
810.664	33.34
810.84	34.54
811.015	35.44
811.191	35.31
811.366	34.23
811.542	34.02
811.717	34.38
811.892	33.42
812.068	33.68
812.243	32.49
812.419	32.75
812.594	31.89
812.769	30.12
812.944	31.61
813.12	31.78
813.295	32.27
813.47	32.51
813.645	31.06
813.821	29.96
813.996	29.6
814.171	30.17
814.346	30.48
814.521	31.44
814.697	32.95
814.872	31.87
815.047	32.32
815.222	33.03
815.397	32.47
815.572	32.36
815.747	33.12
815.922	33.11
816.097	31.9
816.272	32.22
816.447	31.52
816.622	30.69
816.797	30.54
816.972	31.11
817.147	29
817.322	29.48
817.496	29.55
817.671	30.06
817.846	29.23
818.021	30.26
818.196	28.68
818.371	28.47
818.545	29.35
818.72	28.98
818.895	28.42
819.069	29.13
819.244	29.87
819.419	29.64
819.594	29.95
819.768	30.23
819.943	29.51
820.117	29.61
820.292	29.58
820.467	29.58
820.641	30.36
820.816	30.44
820.99	30.09
821.165	29.72
821.339	29.81
821.514	29.88
821.688	29.96
821.863	29.94
822.037	29.97
822.212	29.98
822.386	29.9
822.56	29.82
822.735	29.77
822.909	29.97
823.084	29.8
823.258	29.8
823.432	29.53
823.606	29.37
823.781	29.46
823.955	29.58
824.129	29.36
824.303	29.17
824.478	29.08
824.652	28.52
824.826	28.38
825	28.92
825.174	28.95
825.348	29.05
825.523	29.53
825.697	29.75
825.871	29.54
826.045	29.63
826.219	29.7
826.393	29.63
826.567	30.4
826.741	30.92
826.915	30.21
827.089	30.15
827.263	30.12
827.437	30.06
827.611	29.86
827.784	29.63
827.958	29.82
828.132	29.52
828.306	29.12
828.48	29.01
828.654	28.87
828.827	29.59
829.001	29.6
829.175	30.16
829.349	30.17
829.522	30.55
829.696	31.37
829.87	31.7
830.044	32.65
830.217	33.66
830.391	33.23
830.565	33.49
830.738	32.97
830.912	32.65
831.085	31.13
831.259	30.78
831.432	30.82
831.606	30.32
831.779	30.32
831.953	30.1
832.126	30
832.3	30.74
832.473	30.14
832.647	30.71
832.82	30.96
832.994	32
833.167	31.58
833.34	31.37
833.514	30.47
833.687	29.77
833.86	29.94
834.034	29.86
834.207	29.89
834.38	29.57
834.553	29.18
834.727	29.07
834.9	28.09
835.073	28.68
835.246	29.07
835.419	30.46
835.593	31.37
835.766	31.21
835.939	31.34
836.112	31.28
836.285	31.6
836.458	32.51
836.631	32.8
836.804	33.52
836.977	33.37
837.15	33.18
837.323	34.33
837.496	34.14
837.669	34.79
837.842	35.34
838.015	35.57
838.188	34.8
838.361	33.85
838.533	33.94
838.706	35.08
838.879	35.88
839.052	35.65
839.225	33.96
839.398	33.51
839.57	33.73
839.743	31.9
839.916	32.17
840.088	33.88
840.261	35.62
840.434	35.63
840.607	35.64
840.779	34.91
840.952	33.92
841.124	32.85
841.297	34.07
841.47	32.12
841.642	33.73
841.815	33.8
841.987	35.16
842.16	34.29
842.332	35.81
842.505	34.6
842.677	34.86
842.85	37.24
843.022	41.49
843.194	41.73
843.367	42.65
843.539	41.16
843.712	39.83
843.884	37.1
844.056	37.42
844.229	35.84
844.401	38.16
844.573	40.53
844.745	37.43
844.918	32.34
845.09	32.82
845.262	35.24
845.434	38.93
845.606	39.96
845.779	40.42
845.951	37.25
846.123	38.54
846.295	38.59
846.467	37.03
846.639	39.17
846.811	43.13
846.983	42.86
847.155	44.48
847.327	43.32
847.499	42.21
847.671	42.65
847.843	41.05
848.015	42.14
848.187	41.66
848.359	40.99
848.531	40.51
848.703	37.87
848.875	32.55
849.047	28.82
849.218	27.1
849.39	30.11
849.562	32.29
849.734	36.89
849.905	41.01
850.077	38.17
850.249	35.59
850.421	34.11
850.592	40.23
850.764	44.39
850.936	45.41
851.107	45.29
851.279	43.81
851.451	42.78
851.622	40.86
851.794	35.51
851.965	37.59
852.137	39.76
852.308	39.85
852.48	32.61
852.651	31.58
852.823	31.54
852.994	32.05
853.166	34.35
853.337	32.63
853.509	32.87
853.68	33.55
853.851	31.77
854.023	32.78
854.194	38.02
854.365	41.13
854.537	40.27
854.708	38.01
854.879	38.21
855.05	34.59
855.222	34.29
855.393	36.34
855.564	36.81
855.735	37.6
855.906	38.74
856.078	32.7
856.249	29.4
856.42	32.12
856.591	39.42
856.762	34.66
856.933	35.22
857.104	36.31
857.275	34.43
857.446	36.76
857.617	41.62
857.788	36.98
857.959	41.72
858.13	44.79
858.301	40.93
858.472	36.79
858.643	43.44
858.814	44.38
858.985	43.99
859.155	47.58
859.326	44.55
859.497	40.57
859.668	41.8
859.839	42.01
860.009	39.65
860.18	41.93
860.351	40.04
860.522	38.98
860.692	40.3
860.863	44.69
861.034	42.57
861.204	45.97
861.375	46.92
861.546	45.43
861.716	42.09
861.887	40.62
862.057	45.93
862.228	46.99
862.398	46.57
862.569	46.82
862.739	42.23
862.91	44.79
863.08	41.28
863.251	42.9
863.421	44.92
863.592	44.36
863.762	42.87
863.932	38.85
864.103	37.94
864.273	35.01
864.443	36.81
864.614	40.77
864.784	37.75
864.954	33.77
865.125	29.22
865.295	28.31
865.465	29.35
865.635	32.95
865.805	30.84
865.976	31.91
866.146	36.03
866.316	29.22
866.486	27.36
866.656	26.86
866.826	33.71
866.996	36.22
867.166	38.41
867.336	44.62
867.506	47.76
867.676	47.92
867.846	54.18
868.016	50.09
868.186	53.45
868.356	51.14
868.526	48
868.696	45.53
868.866	44.4
869.036	41.36
869.206	39.32
869.376	37.7
869.545	37.77
869.715	30.18
869.885	30.54
870.055	27.48
870.224	26.83
870.394	28.96
870.564	29.77
870.734	30.72
870.903	32.32
871.073	29.34
871.243	25.16
871.412	24.49
871.582	27.98
871.751	28.07
871.921	29.87
872.091	36.06
872.26	36.82
872.43	33.34
872.599	34.49
872.769	35.24
872.938	37.23
873.108	40.49
873.277	39.65
873.446	36.96
873.616	36.68
873.785	38.86
873.955	31.7
874.124	35.34
874.293	37.32
874.463	36.99
874.632	35.71
874.801	35.12
874.971	36.7
875.14	37.12
875.309	36.92
875.478	36.4
875.647	38.27
875.817	40.5
875.986	37.64
876.155	40.81
876.324	42.57
876.493	42.24
876.662	42.22
876.831	36.75
877	33.88
877.17	36.32
877.339	38.73
877.508	35.07
877.677	35.82
877.846	33.07
878.015	30.34
878.184	24.94
878.352	25.59
878.521	25.39
878.69	28.83
878.859	33.53
879.028	30.13
879.197	27.79
879.366	25.52
879.534	25.52
879.703	26.8
879.872	24.55
880.041	26.79
880.21	28.67
880.378	26.57
880.547	27.63
880.716	27.26
880.884	27.97
881.053	28.75
881.222	28.98
881.39	28.83
881.559	29.44
881.727	30.55
881.896	29.55
882.065	29.08
882.233	29.28
882.402	28.44
882.57	27.47
882.739	26.83
882.907	26.81
883.076	27.18
883.244	27.47
883.412	27.03
883.581	26.77
883.749	27.59
883.918	27.3
884.086	27.73
884.254	27.88
884.423	28.63
884.591	29.21
884.759	28.3
884.927	27.57
885.096	27.49
885.264	28.08
885.432	26.92
885.6	27.19
885.769	26.85
885.937	26.85
886.105	28.17
886.273	31.23
886.441	33.12
886.609	33.83
886.777	33.98
886.945	34.65
887.113	34.77
887.281	34.62
887.449	33.42
887.617	35.15
887.785	35.23
887.953	34.23
888.121	28.85
888.289	28.05
888.457	30.26
888.625	35.91
888.793	34.84
888.961	34.61
889.129	35.04
889.296	36.25
889.464	35.48
889.632	36.54
889.8	37.37
889.967	43.03
890.135	38.98
