Data from 2938781__Reflection_02.txt Node
Date: Fri Mar 13 12:49:11 EDT 2015
User: robert
Spectrometer: USB4E03002
Autoset integration time: false
Trigger mode: 4
Integration Time (sec): 1.000000E-1
Scans to average: 10
Electric dark correction enabled: false
Nonlinearity correction enabled: false
Boxcar width: 5
Stray light correction enabled: false
XAxis mode: Wavelengths
Stop averaging: false
Number of Pixels in Spectrum: 3648
>>>>>Begin Spectral Data<<<<<
177.575	93.76
177.794	99.7
178.014	97.45
178.233	93.54
178.452	99.35
178.672	94.75
178.891	95.1
179.11	91.68
179.33	91.68
179.549	96.49
179.768	95.89
179.987	99.87
180.207	94.26
180.426	92.09
180.645	92.09
180.864	86.12
181.084	85.38
181.303	82.38
181.522	84.21
181.741	80.36
181.96	75.25
182.179	74.79
182.398	71.12
182.618	72.99
182.837	74.33
183.056	76.98
183.275	77.42
183.494	78.65
183.713	79.53
183.932	82.74
184.151	84.9
184.37	85.46
184.589	94.73
184.808	94.5
185.027	98.21
185.246	99.21
185.465	100.22
185.684	107.69
185.903	110.82
186.122	108.04
186.341	100.31
186.56	99.5
186.779	100.33
186.998	97.04
187.216	101.48
187.435	96.56
187.654	92.37
187.873	92.12
188.092	85.58
188.311	83.46
188.53	85.97
188.748	83.21
188.967	85.58
189.186	84.69
189.405	83.42
189.623	80.79
189.842	79.6
190.061	82.12
190.28	80.09
190.498	79.87
190.717	80.78
190.936	75.45
191.154	78.61
191.373	78.79
191.592	79.07
191.81	78.43
192.029	76.59
192.248	82.35
192.466	81.2
192.685	79.3
192.904	81.94
193.122	78.61
193.341	83.93
193.559	84.49
193.778	82.06
193.996	83.43
194.215	81.37
194.433	85.94
194.652	82.41
194.87	81.97
195.089	86.62
195.307	84.23
195.526	84.87
195.744	86.66
195.963	85.98
196.181	85.87
196.399	83.19
196.618	83.64
196.836	82.47
197.055	84.6
197.273	84.63
197.491	80.74
197.71	84.28
197.928	85.55
198.146	82.18
198.365	85.08
198.583	84.9
198.801	89.19
199.019	89.98
199.238	83.89
199.456	85.56
199.674	85.59
199.892	86.59
200.111	82.24
200.329	84.77
200.547	82.93
200.765	82.72
200.983	85.24
201.202	81.88
201.42	81.93
201.638	85.95
201.856	81.67
202.074	85.62
202.292	81.99
202.51	83.85
202.728	80.42
202.946	84.6
203.165	80.58
203.383	80.24
203.601	76.44
203.819	77.73
204.037	76.35
204.255	77.29
204.473	75.59
204.691	77.73
204.909	80.26
205.127	79.85
205.345	74.89
205.562	73.31
205.78	73.13
205.998	75.24
206.216	74.72
206.434	77.41
206.652	77.83
206.87	75.34
207.088	75.52
207.306	72.76
207.523	72.93
207.741	76.39
207.959	76.83
208.177	76.44
208.395	79.93
208.612	78.4
208.83	77.35
209.048	75.39
209.266	76.7
209.483	75.3
209.701	74.72
209.919	76.07
210.136	77.08
210.354	76.04
210.572	75.37
210.79	76.08
211.007	78.19
211.225	77.21
211.442	76.12
211.66	74.38
211.878	80.55
212.095	83.57
212.313	85.5
212.53	82.16
212.748	83.29
212.966	84.08
213.183	80.62
213.401	80.35
213.618	78.87
213.836	82.61
214.053	80.46
214.271	74.28
214.488	70.67
214.705	68.11
214.923	67.3
215.14	66.86
215.358	67.63
215.575	68.04
215.793	69.18
216.01	69.3
216.227	65.74
216.445	65.03
216.662	67.14
216.879	67.77
217.097	66.04
217.314	65.45
217.531	66.15
217.749	64.45
217.966	66.01
218.183	63.07
218.4	60.99
218.618	63.38
218.835	62.8
219.052	61.11
219.269	63.43
219.487	67.6
219.704	67.87
219.921	67.12
220.138	66.43
220.355	66.03
220.572	65.45
220.79	67.31
221.007	66.67
221.224	68.5
221.441	66.82
221.658	66.44
221.875	64.76
222.092	63.39
222.309	64.97
222.526	61.72
222.743	58.51
222.96	55.78
223.177	55.94
223.394	51.52
223.611	50.98
223.828	52.17
224.045	48.19
224.262	44.49
224.479	42.94
224.696	43.03
224.913	41.64
225.13	41.54
225.347	42.91
225.564	41.4
225.781	42.24
225.997	40.07
226.214	37.47
226.431	35.19
226.648	35.43
226.865	32.93
227.082	29.02
227.298	28.37
227.515	26.02
227.732	23.24
227.949	21.85
228.165	20
228.382	18.99
228.599	18.95
228.816	18.61
229.032	17.41
229.249	17.2
229.466	16.98
229.682	16.84
229.899	17.54
230.116	17.51
230.332	17.77
230.549	19.08
230.765	19.71
230.982	19.47
231.199	20.38
231.415	22.03
231.632	23.28
231.848	24.64
232.065	25.51
232.281	25.83
232.498	25.98
232.714	25.95
232.931	24.76
233.147	24.78
233.364	25.08
233.58	24.68
233.797	24.19
234.013	24.83
234.23	23.71
234.446	23.93
234.662	22.95
234.879	23.02
235.095	22.05
235.312	23.32
235.528	24.37
235.744	24.32
235.961	24.57
236.177	24.62
236.393	23.98
236.61	26.24
236.826	25.07
237.042	25.73
237.258	26.34
237.475	27.75
237.691	26.9
237.907	26.42
238.123	26.22
238.339	27.81
238.556	28.02
238.772	27.47
238.988	26.11
239.204	25.41
239.42	24.25
239.636	24.23
239.853	23.24
240.069	21.61
240.285	21.23
240.501	19.95
240.717	18.36
240.933	16.72
241.149	16.51
241.365	15.64
241.581	15.59
241.797	15.12
242.013	14.3
242.229	14.35
242.445	14.16
242.661	14.21
242.877	14.62
243.093	14.78
243.309	15.29
243.525	15.52
243.741	15.67
243.957	15.64
244.173	16.73
244.388	16.97
244.604	16.75
244.82	17.14
245.036	16.01
245.252	14.65
245.468	13.61
245.683	12.78
245.899	11.73
246.115	11.42
246.331	10.98
246.547	10.51
246.762	10.08
246.978	9.79
247.194	9.66
247.409	9.62
247.625	9.89
247.841	9.7
248.057	10
248.272	10.17
248.488	9.8
248.703	10.08
248.919	9.96
249.135	10.58
249.35	11.13
249.566	11.59
249.782	11.78
249.997	12.02
250.213	12.68
250.428	12.65
250.644	13.28
250.859	13.76
251.075	13.76
251.29	14.26
251.506	13.94
251.721	13.89
251.937	13.48
252.152	13.74
252.368	13.95
252.583	13.92
252.798	14.29
253.014	14.76
253.229	15.33
253.445	15.51
253.66	15.56
253.875	15.75
254.091	16.11
254.306	16.56
254.521	17.59
254.737	18.45
254.952	18.23
255.167	17.77
255.383	16.94
255.598	16.68
255.813	16.17
256.028	15.65
256.244	15.82
256.459	15.49
256.674	15.04
256.889	13.28
257.104	13.11
257.32	13.17
257.535	12.71
257.75	12.22
257.965	11.86
258.18	11.47
258.395	11.09
258.61	10.35
258.826	9.47
259.041	9.27
259.256	9.12
259.471	8.3
259.686	7.87
259.901	7.59
260.116	7.42
260.331	6.97
260.546	7.1
260.761	7.03
260.976	7.06
261.191	7.19
261.406	7.06
261.621	7.57
261.836	7.79
262.05	8.49
262.265	8.82
262.48	9.32
262.695	10.22
262.91	10.82
263.125	11.33
263.34	11.77
263.555	12.66
263.769	13.11
263.984	12.65
264.199	12.55
264.414	12.15
264.629	12.67
264.843	12.98
265.058	13.07
265.273	12.44
265.488	11.74
265.702	11.44
265.917	11.35
266.132	11.37
266.346	11.37
266.561	11.26
266.776	11.17
266.99	11.01
267.205	10.37
267.42	10.22
267.634	9.61
267.849	10.01
268.063	10.21
268.278	9.6
268.492	9.77
268.707	9.99
268.922	10.18
269.136	10.32
269.351	9.98
269.565	10.01
269.78	9.8
269.994	9.82
270.209	9.77
270.423	8.92
270.637	8.73
270.852	8.19
271.066	7.81
271.281	7.81
271.495	7.88
271.709	7.67
271.924	7.77
272.138	7.92
272.353	8.06
272.567	8.06
272.781	8.63
272.996	8.53
273.21	8.74
273.424	8.72
273.638	8.68
273.853	8.52
274.067	8.85
274.281	9.1
274.495	9.14
274.71	9.46
274.924	9.58
275.138	9.56
275.352	9.82
275.566	10.14
275.781	10.29
275.995	10.53
276.209	10.7
276.423	10.65
276.637	10.78
276.851	10.97
277.065	11.07
277.279	10.9
277.493	10.79
277.707	11.29
277.921	11.08
278.135	11.08
278.349	10.77
278.563	10.76
278.777	11.13
278.991	10.43
279.205	10.35
279.419	10.08
279.633	9.66
279.847	9.66
280.061	9.6
280.275	8.94
280.489	8.82
280.703	9.18
280.917	8.87
281.131	8.58
281.344	8.91
281.558	8.63
281.772	8.72
281.986	8.93
282.2	9.03
282.414	8.73
282.627	8.79
282.841	8.95
283.055	8.81
283.269	8.71
283.482	8.51
283.696	8.37
283.91	8.29
284.123	7.46
284.337	7.25
284.551	7
284.764	6.96
284.978	6.93
285.192	6.73
285.405	6.7
285.619	6.69
285.833	6.73
286.046	6.59
286.26	6.28
286.473	6.89
286.687	6.77
286.9	6.7
287.114	6.85
287.327	6.94
287.541	6.98
287.754	6.94
287.968	7.36
288.181	7.41
288.395	7.47
288.608	7.79
288.822	7.68
289.035	7.83
289.248	7.66
289.462	7.22
289.675	7.16
289.889	7.21
290.102	6.82
290.315	6.49
290.529	6.36
290.742	6.42
290.955	6.66
291.169	6.9
291.382	6.8
291.595	7.19
291.808	7.57
292.022	8.1
292.235	8.43
292.448	8.79
292.661	8.86
292.875	9.01
293.088	9.17
293.301	8.97
293.514	8.64
293.727	8.64
293.94	8.42
294.153	8.39
294.367	8.13
294.58	7.65
294.793	7.64
295.006	7.39
295.219	7.35
295.432	7.38
295.645	7.16
295.858	7.05
296.071	7
296.284	6.88
296.497	6.64
296.71	6.47
296.923	6.6
297.136	6.67
297.349	6.68
297.562	6.6
297.775	6.37
297.988	6.56
298.201	6.61
298.414	6.65
298.626	6.74
298.839	6.61
299.052	6.62
299.265	6.86
299.478	6.74
299.691	6.95
299.903	7.17
300.116	7.52
300.329	7.6
300.542	7.63
300.755	8.06
300.967	8.22
301.18	8.68
301.393	8.82
301.605	8.64
301.818	8.58
302.031	8.7
302.243	8.51
302.456	8.55
302.669	8.81
302.881	9.1
303.094	9.14
303.307	9.25
303.519	9.12
303.732	9.19
303.944	9.24
304.157	9.63
304.37	9.35
304.582	9.67
304.795	9.42
305.007	8.77
305.22	8.92
305.432	8.66
305.645	8.53
305.857	8.87
306.069	9.09
306.282	8.92
306.494	8.62
306.707	9.08
306.919	8.78
307.132	8.78
307.344	9.27
307.556	9.11
307.769	9.51
307.981	9.43
308.193	9.06
308.406	8.78
308.618	8.9
308.83	9.02
309.043	8.77
309.255	8.69
309.467	8.76
309.679	8.42
309.892	8.57
310.104	8.2
310.316	8.24
310.528	8.12
310.74	8.13
310.953	7.89
311.165	8.05
311.377	8.37
311.589	8.73
311.801	8.74
312.013	8.86
312.225	8.53
312.437	8.55
312.649	8.77
312.862	9.17
313.074	9.51
313.286	10.14
313.498	10.28
313.71	10.37
313.922	9.94
314.134	10.17
314.346	10.42
314.558	10.99
314.77	11.27
314.982	11.34
315.193	11.39
315.405	11.37
315.617	11.13
315.829	11.05
316.041	10.93
316.253	11.22
316.465	11.35
316.677	11.57
316.888	11.26
317.1	11.68
317.312	11.91
317.524	12.14
317.736	12.03
317.947	12.61
318.159	12.62
318.371	12.91
318.583	12.97
318.794	13.09
319.006	13.22
319.218	13.3
319.43	13.46
319.641	13.44
319.853	13.32
320.064	13.4
320.276	13.02
320.488	13.25
320.699	13.11
320.911	13.7
321.123	13.87
321.334	13.95
321.546	14.24
321.757	14.33
321.969	14.64
322.18	15.04
322.392	15.57
322.603	15.76
322.815	15.63
323.026	15.89
323.238	16.07
323.449	15.42
323.661	15.56
323.872	15.8
324.083	15.51
324.295	15.8
324.506	15.69
324.718	15.54
324.929	15.92
325.14	16.46
325.352	16.53
325.563	17.05
325.774	17.92
325.986	17.93
326.197	18.19
326.408	18.76
326.62	18.93
326.831	19.39
327.042	20.09
327.253	20.82
327.464	21.09
327.676	21.43
327.887	21.37
328.098	21.9
328.309	22.66
328.52	23.12
328.732	23.26
328.943	23.75
329.154	24.76
329.365	25.11
329.576	25.51
329.787	26.15
329.998	26.96
330.209	27.53
330.42	27.78
330.631	28.11
330.842	28.77
331.053	29.81
331.264	30.06
331.475	29.95
331.686	30.35
331.897	30.46
332.108	31.01
332.319	31.43
332.53	31.97
332.741	32.09
332.952	32.3
333.163	32.53
333.374	32.4
333.585	32.84
333.795	33.2
334.006	33.43
334.217	33.4
334.428	33.3
334.639	33.43
334.849	33.33
335.06	33.67
335.271	34.01
335.482	34.23
335.692	34.45
335.903	34.43
336.114	34.52
336.325	34.82
336.535	35.35
336.746	35.48
336.957	35.57
337.167	36.17
337.378	36.57
337.589	36.9
337.799	36.65
338.01	37.03
338.22	37.17
338.431	37.1
338.642	37.06
338.852	36.82
339.063	36.8
339.273	37.03
339.484	36.46
339.694	36.1
339.905	36.15
340.115	36.55
340.326	36.23
340.536	36.54
340.746	36.78
340.957	37.01
341.167	36.96
341.378	37.05
341.588	37.08
341.799	37.22
342.009	37.17
342.219	37.01
342.43	36.82
342.64	37.22
342.85	37.1
343.061	37.07
343.271	37.22
343.481	37.53
343.691	37.5
343.902	37.49
344.112	37.8
344.322	37.88
344.532	38.2
344.743	38.07
344.953	37.59
345.163	37.68
345.373	37.43
345.583	36.84
345.793	36.64
346.004	36.67
346.214	36.4
346.424	36.17
346.634	36.36
346.844	35.84
347.054	36.27
347.264	36.45
347.474	36.13
347.684	36.16
347.894	36.43
348.104	36.39
348.314	36.45
348.524	36.47
348.734	36.55
348.944	36.6
349.154	36.78
349.364	36.39
349.574	36.51
349.784	36.65
349.994	36.94
350.204	37.07
350.413	37.13
350.623	37.11
350.833	37.25
351.043	37.09
351.253	36.85
351.463	36.53
351.672	36.39
351.882	36.28
352.092	36.15
352.302	36.08
352.511	35.75
352.721	35.45
352.931	35.32
353.141	35.27
353.35	35.2
353.56	35.07
353.77	35.18
353.979	35.25
354.189	35.4
354.399	35.3
354.608	35.26
354.818	35.27
355.027	35.6
355.237	35.48
355.447	35.42
355.656	35.34
355.866	35.4
356.075	35.4
356.285	35.5
356.494	35.31
356.704	35.35
356.913	35.34
357.123	35.16
357.332	34.91
357.542	34.9
357.751	34.73
357.96	34.69
358.17	34.57
358.379	34.48
358.589	34.28
358.798	34.28
359.007	34.28
359.217	34.32
359.426	34.33
359.635	34.38
359.845	34.41
360.054	34.49
360.263	34.33
360.472	34.36
360.682	34.43
360.891	34.46
361.1	34.18
361.309	33.9
361.519	33.82
361.728	33.66
361.937	33.74
362.146	33.71
362.355	33.59
362.564	33.78
362.774	33.8
362.983	33.58
363.192	33.29
363.401	33.46
363.61	33.58
363.819	33.37
364.028	33.57
364.237	33.47
364.446	33.39
364.655	33.44
364.864	33.34
365.073	33.37
365.282	33.58
365.491	33.77
365.7	33.44
365.909	33.34
366.118	33.5
366.327	33.6
366.536	33.53
366.745	33.43
366.954	33.51
367.162	33.6
367.371	33.45
367.58	33.27
367.789	33.16
367.998	33.18
368.207	33.26
368.415	33.13
368.624	33.13
368.833	32.87
369.042	33.11
369.25	32.97
369.459	33.06
369.668	32.97
369.877	32.95
370.085	32.93
370.294	33.13
370.503	33.18
370.711	33.15
370.92	32.92
371.129	33.09
371.337	32.7
371.546	32.62
371.754	32.49
371.963	32.45
372.171	32.38
372.38	32.56
372.589	32.59
372.797	32.47
373.006	32.53
373.214	32.69
373.423	32.32
373.631	32.48
373.84	32.39
374.048	32.21
374.256	32.18
374.465	32.37
374.673	32.19
374.882	32.02
375.09	31.97
375.298	31.88
375.507	31.69
375.715	31.83
375.923	31.71
376.132	31.46
376.34	31.32
376.548	31.28
376.757	31.2
376.965	31.31
377.173	31.2
377.381	31.22
377.59	31.15
377.798	31.13
378.006	31.05
378.214	30.94
378.423	31.26
378.631	31.12
378.839	31.18
379.047	30.94
379.255	30.77
379.463	30.87
379.671	30.67
379.879	30.62
380.088	30.48
380.296	30.5
380.504	30.44
380.712	29.99
380.92	30.2
381.128	29.96
381.336	30.05
381.544	29.86
381.752	29.67
381.96	29.65
382.168	29.35
382.376	29.34
382.584	29.35
382.791	29.42
382.999	29.43
383.207	29.48
383.415	29.59
383.623	29.31
383.831	29.27
384.039	29.14
384.247	29.17
384.454	29.38
384.662	29.36
384.87	29.27
385.078	29.29
385.285	29.33
385.493	29.13
385.701	29
385.909	29.06
386.116	29.26
386.324	29.5
386.532	29.46
386.739	29.39
386.947	29.45
387.155	29.51
387.362	29.32
387.57	29.31
387.778	29.27
387.985	29.31
388.193	29.46
388.4	29.12
388.608	29.02
388.816	28.99
389.023	28.89
389.231	28.74
389.438	28.59
389.646	28.65
389.853	28.51
390.061	28.31
390.268	28.22
390.475	27.97
390.683	28.08
390.89	27.9
391.098	27.98
391.305	27.97
391.512	27.75
391.72	27.85
391.927	27.77
392.135	27.88
392.342	27.96
392.549	27.84
392.756	27.88
392.964	27.68
393.171	27.75
393.378	27.6
393.586	27.51
393.793	27.64
394	27.58
394.207	27.68
394.414	27.57
394.622	27.49
394.829	27.54
395.036	27.58
395.243	27.66
395.45	27.58
395.657	27.55
395.864	27.61
396.072	27.54
396.279	27.43
396.486	27.4
396.693	27.46
396.9	27.45
397.107	27.43
397.314	27.42
397.521	27.57
397.728	27.61
397.935	27.64
398.142	27.51
398.349	27.59
398.556	27.48
398.763	27.31
398.97	27.13
399.177	27.21
399.383	27.26
399.59	27.2
399.797	27.14
400.004	27.06
400.211	26.96
400.418	27.01
400.625	26.9
400.831	26.92
401.038	26.94
401.245	27.02
401.452	26.94
401.658	27.01
401.865	27.05
402.072	26.91
402.279	26.81
402.485	26.75
402.692	26.57
402.899	26.56
403.105	26.5
403.312	26.43
403.519	26.26
403.725	26.31
403.932	26.14
404.138	26.07
404.345	26.09
404.552	26.02
404.758	26.11
404.965	26.13
405.171	26.11
405.378	26.21
405.584	26.25
405.791	26.42
405.997	26.38
406.204	26.64
406.41	26.44
406.617	26.68
406.823	26.9
407.029	26.83
407.236	26.85
407.442	26.69
407.649	26.71
407.855	26.68
408.061	26.62
408.268	26.62
408.474	26.36
408.68	26.49
408.887	26.27
409.093	26.12
409.299	26.17
409.505	26.22
409.712	26.4
409.918	26.28
410.124	26.26
410.33	26.21
410.537	26.14
410.743	26.09
410.949	26.28
411.155	26.2
411.361	26.14
411.567	26.04
411.773	26.04
411.98	26
412.186	26
412.392	26.28
412.598	26.33
412.804	26.19
413.01	26.19
413.216	25.91
413.422	25.88
413.628	25.93
413.834	25.82
414.04	25.79
414.246	25.81
414.452	25.81
414.658	25.54
414.864	25.34
415.07	25.42
415.275	25.15
415.481	25.22
415.687	25.25
415.893	25.19
416.099	25.29
416.305	25.21
416.511	25.12
416.716	25.07
416.922	24.92
417.128	24.98
417.334	24.97
417.539	25.18
417.745	25.04
417.951	24.93
418.157	24.91
418.362	24.78
418.568	24.69
418.774	24.46
418.979	24.34
419.185	24.33
419.391	24.29
419.596	24.15
419.802	24.01
420.008	23.97
420.213	23.93
420.419	23.86
420.624	23.87
420.83	23.91
421.035	24.07
421.241	24.11
421.446	24.02
421.652	23.96
421.857	23.98
422.063	23.96
422.268	23.93
422.474	23.9
422.679	23.91
422.885	23.89
423.09	23.81
423.295	23.69
423.501	23.66
423.706	23.75
423.911	23.75
424.117	23.76
424.322	23.72
424.527	23.7
424.733	23.66
424.938	23.66
425.143	23.62
425.349	23.62
425.554	23.64
425.759	23.65
425.964	23.62
426.169	23.59
426.375	23.59
426.58	23.65
426.785	23.61
426.99	23.71
427.195	23.73
427.4	23.81
427.605	23.93
427.811	24.02
428.016	24.06
428.221	24.09
428.426	24.13
428.631	24.19
428.836	24.17
429.041	24.33
429.246	24.27
429.451	24.2
429.656	24.2
429.861	24.26
430.066	24.09
430.271	24.01
430.476	24.06
430.681	24.04
430.886	23.98
431.09	24.06
431.295	23.98
431.5	24.05
431.705	24
431.91	24
432.115	23.96
432.32	24.14
432.524	24.07
432.729	24.11
432.934	24.19
433.139	24.21
433.343	24.18
433.548	24.19
433.753	24.2
433.958	24.3
434.162	24.3
434.367	24.3
434.572	24.21
434.776	24.24
434.981	24.22
435.186	24.19
435.39	24.22
435.595	24.3
435.799	24.23
436.004	24.2
436.209	24.17
436.413	24.18
436.618	24.13
436.822	24.13
437.027	24.17
437.231	24.15
437.436	24.18
437.64	24.19
437.845	24.13
438.049	24.31
438.253	24.29
438.458	24.19
438.662	24.12
438.867	24.09
439.071	24.17
439.275	24.16
439.48	24.14
439.684	24.09
439.888	24.02
440.093	24.01
440.297	23.88
440.501	23.9
440.706	23.95
440.91	24
441.114	23.92
441.318	23.88
441.523	23.91
441.727	23.86
441.931	23.91
442.135	23.99
442.339	23.97
442.543	24.07
442.748	24.11
442.952	24.14
443.156	24.12
443.36	24.14
443.564	24.09
443.768	24.12
443.972	24.18
444.176	24.09
444.38	23.99
444.584	23.95
444.788	23.89
444.992	23.85
445.196	23.87
445.4	23.81
445.604	23.91
445.808	23.94
446.012	23.81
446.216	23.72
446.42	23.74
446.624	23.71
446.828	23.7
447.032	23.63
447.235	23.55
447.439	23.45
447.643	23.51
447.847	23.5
448.051	23.53
448.254	23.59
448.458	23.64
448.662	23.63
448.866	23.58
449.069	23.65
449.273	23.75
449.477	23.82
449.681	23.96
449.884	23.98
450.088	23.97
450.292	23.88
450.495	23.83
450.699	23.78
450.902	23.7
451.106	23.71
451.31	23.65
451.513	23.69
451.717	23.75
451.92	23.64
452.124	23.65
452.327	23.59
452.531	23.58
452.734	23.55
452.938	23.68
453.141	23.83
453.345	23.98
453.548	24.03
453.752	23.93
453.955	23.92
454.158	23.98
454.362	23.98
454.565	23.99
454.769	24.01
454.972	24.14
455.175	24.04
455.379	23.93
455.582	23.89
455.785	23.87
455.988	23.87
456.192	23.83
456.395	23.77
456.598	23.64
456.801	23.67
457.005	23.73
457.208	23.75
457.411	23.73
457.614	23.76
457.817	23.69
458.021	23.68
458.224	23.74
458.427	23.66
458.63	23.69
458.833	23.75
459.036	23.66
459.239	23.59
459.442	23.49
459.645	23.5
459.848	23.46
460.051	23.53
460.254	23.51
460.457	23.51
460.66	23.57
460.863	23.53
461.066	23.46
461.269	23.45
461.472	23.51
461.675	23.56
461.878	23.63
462.081	23.74
462.284	23.72
462.486	23.67
462.689	23.65
462.892	23.73
463.095	23.82
463.298	23.92
463.5	24.09
463.703	24.05
463.906	24.08
464.109	24.03
464.311	23.89
464.514	23.83
464.717	23.97
464.92	24.04
465.122	24
465.325	23.97
465.528	23.99
465.73	24.06
465.933	24.12
466.135	24.18
466.338	24.18
466.541	24.23
466.743	24.35
466.946	24.3
467.148	24.35
467.351	24.34
467.553	24.4
467.756	24.41
467.958	24.26
468.161	24.39
468.363	24.29
468.566	24.3
468.768	24.32
468.971	24.22
469.173	24.3
469.375	24.22
469.578	24.32
469.78	24.31
469.983	24.39
470.185	24.37
470.387	24.23
470.59	24.41
470.792	24.42
470.994	24.44
471.196	24.56
471.399	24.59
471.601	24.65
471.803	24.42
472.005	24.28
472.208	24.27
472.41	24.24
472.612	24.25
472.814	24.16
473.016	24.23
473.218	24.27
473.421	24.24
473.623	24.15
473.825	24.16
474.027	24.34
474.229	24.36
474.431	24.26
474.633	24.36
474.835	24.43
475.037	24.44
475.239	24.34
475.441	24.33
475.643	24.26
475.845	24.2
476.047	24.13
476.249	24.16
476.451	24.26
476.653	24.21
476.855	24.17
477.057	24.1
477.258	23.98
477.46	24.08
477.662	24.04
477.864	24.06
478.066	24.28
478.268	24.24
478.469	24.12
478.671	24.01
478.873	24.12
479.075	24.13
479.276	24.04
479.478	24.19
479.68	24.19
479.882	24.25
480.083	24.17
480.285	24.03
480.487	24.15
480.688	24.18
480.89	24.24
481.091	24.23
481.293	24.19
481.495	24.2
481.696	24.13
481.898	23.92
482.099	23.79
482.301	23.83
482.502	23.79
482.704	23.7
482.905	23.68
483.107	23.61
483.308	23.51
483.51	23.46
483.711	23.43
483.913	23.39
484.114	23.45
484.315	23.46
484.517	23.45
484.718	23.42
484.92	23.41
485.121	23.39
485.322	23.4
485.524	23.4
485.725	23.44
485.926	23.47
486.127	23.47
486.329	23.45
486.53	23.45
486.731	23.45
486.932	23.42
487.134	23.43
487.335	23.43
487.536	23.43
487.737	23.47
487.938	23.45
488.139	23.47
488.341	23.53
488.542	23.54
488.743	23.54
488.944	23.52
489.145	23.58
489.346	23.63
489.547	23.63
489.748	23.6
489.949	23.6
490.15	23.66
490.351	23.62
490.552	23.6
490.753	23.6
490.954	23.63
491.155	23.64
491.356	23.64
491.557	23.62
491.758	23.68
491.959	23.75
492.159	23.78
492.36	23.78
492.561	23.81
492.762	23.85
492.963	23.89
493.164	23.89
493.364	23.94
493.565	24
493.766	23.99
493.967	23.98
494.167	23.95
494.368	24.08
494.569	24.18
494.769	24.29
494.97	24.33
495.171	24.39
495.371	24.48
495.572	24.5
495.773	24.5
495.973	24.56
496.174	24.61
496.375	24.74
496.575	24.71
496.776	24.78
496.976	24.82
497.177	24.77
497.377	24.82
497.578	24.84
497.778	24.91
497.979	24.93
498.179	24.94
498.38	25
498.58	25.07
498.78	25.04
498.981	25.1
499.181	25.06
499.382	25.23
499.582	25.26
499.782	25.35
499.983	25.44
500.183	25.62
500.383	25.76
500.584	25.82
500.784	25.73
500.984	25.77
501.184	25.72
501.385	25.82
501.585	25.73
501.785	25.72
501.985	25.73
502.185	25.69
502.386	25.7
502.586	25.73
502.786	25.74
502.986	25.9
503.186	25.97
503.386	26
503.586	26.06
503.786	26.16
503.987	26.24
504.187	26.26
504.387	26.35
504.587	26.35
504.787	26.35
504.987	26.44
505.187	26.43
505.387	26.47
505.587	26.55
505.786	26.52
505.986	26.57
506.186	26.65
506.386	26.81
506.586	26.89
506.786	26.98
506.986	27.16
507.186	27.16
507.386	27.21
507.585	27.34
507.785	27.4
507.985	27.53
508.185	27.6
508.384	27.58
508.584	27.47
508.784	27.42
508.984	27.5
509.183	27.49
509.383	27.59
509.583	27.73
509.782	27.71
509.982	27.71
510.182	27.68
510.381	27.77
510.581	27.96
510.781	28.1
510.98	28.13
511.18	28.15
511.379	28.22
511.579	28.25
511.778	28.28
511.978	28.42
512.177	28.59
512.377	28.67
512.576	28.71
512.776	28.65
512.975	28.77
513.175	28.97
513.374	29.01
513.573	29.08
513.773	29.17
513.972	29.24
514.172	29.3
514.371	29.37
514.57	29.52
514.77	29.58
514.969	29.69
515.168	29.8
515.367	29.85
515.567	30.01
515.766	30.14
515.965	30.29
516.164	30.29
516.364	30.34
516.563	30.29
516.762	30.32
516.961	30.32
517.16	30.46
517.359	30.51
517.559	30.59
517.758	30.55
517.957	30.54
518.156	30.6
518.355	30.69
518.554	30.74
518.753	30.85
518.952	30.92
519.151	30.99
519.35	31.05
519.549	31.07
519.748	31.07
519.947	31.22
520.146	31.37
520.345	31.38
520.544	31.53
520.743	31.67
520.942	31.75
521.141	31.79
521.339	31.88
521.538	31.93
521.737	32.05
521.936	32.25
522.135	32.35
522.333	32.34
522.532	32.46
522.731	32.49
522.93	32.53
523.129	32.63
523.327	32.75
523.526	32.85
523.725	32.86
523.923	32.82
524.122	32.77
524.321	32.77
524.519	32.79
524.718	32.81
524.917	32.84
525.115	32.87
525.314	32.91
525.512	32.91
525.711	32.93
525.909	32.99
526.108	32.98
526.306	32.99
526.505	33.04
526.703	33.11
526.902	33.11
527.1	33.12
527.299	33.11
527.497	33.13
527.696	33.18
527.894	33.23
528.092	33.23
528.291	33.3
528.489	33.38
528.688	33.41
528.886	33.38
529.084	33.41
529.283	33.42
529.481	33.49
529.679	33.54
529.877	33.62
530.076	33.65
530.274	33.74
530.472	33.81
530.67	33.84
530.869	33.88
531.067	34.01
531.265	34.16
531.463	34.18
531.661	34.24
531.859	34.24
532.057	34.24
532.255	34.26
532.454	34.32
532.652	34.28
532.85	34.28
533.048	34.32
533.246	34.35
533.444	34.35
533.642	34.46
533.84	34.47
534.038	34.57
534.236	34.64
534.434	34.68
534.632	34.66
534.83	34.71
535.027	34.8
535.225	34.81
535.423	34.9
535.621	34.96
535.819	34.95
536.017	35.03
536.215	35.02
536.412	34.99
536.61	35.03
536.808	35.16
537.006	35.29
537.203	35.3
537.401	35.44
537.599	35.48
537.797	35.45
537.994	35.58
538.192	35.67
538.39	35.73
538.587	35.91
538.785	35.92
538.983	35.96
539.18	35.86
539.378	35.98
539.575	35.96
539.773	36.02
539.97	36.06
540.168	36.06
540.366	35.99
540.563	35.93
540.761	35.94
540.958	36.01
541.155	36.03
541.353	36.12
541.55	36.08
541.748	36.07
541.945	36.1
542.143	36.18
542.34	36.25
542.537	36.29
542.735	36.42
542.932	36.41
543.129	36.46
543.327	36.47
543.524	36.6
543.721	36.78
543.919	36.95
544.116	37.08
544.313	37.18
544.51	37.35
544.708	37.51
544.905	37.67
545.102	37.9
545.299	37.99
545.496	38.1
545.693	38.09
545.891	38.13
546.088	38.13
546.285	38.11
546.482	38.01
546.679	37.89
546.876	37.82
547.073	37.76
547.27	37.61
547.467	37.61
547.664	37.58
547.861	37.51
548.058	37.44
548.255	37.42
548.452	37.42
548.649	37.42
548.846	37.49
549.043	37.6
549.24	37.61
549.437	37.59
549.633	37.54
549.83	37.46
550.027	37.59
550.224	37.51
550.421	37.44
550.618	37.35
550.814	37.4
551.011	37.38
551.208	37.31
551.405	37.22
551.601	37.23
551.798	37.21
551.995	37.24
552.191	37.28
552.388	37.3
552.585	37.33
552.781	37.34
552.978	37.42
553.175	37.38
553.371	37.31
553.568	37.36
553.764	37.38
553.961	37.46
554.157	37.49
554.354	37.44
554.55	37.4
554.747	37.49
554.943	37.46
555.14	37.43
555.336	37.41
555.533	37.51
555.729	37.52
555.926	37.61
556.122	37.73
556.318	37.76
556.515	37.68
556.711	37.73
556.907	37.75
557.104	37.78
557.3	37.78
557.496	37.84
557.693	37.8
557.889	37.84
558.085	37.85
558.281	37.77
558.478	37.84
558.674	37.89
558.87	37.99
559.066	37.88
559.262	38.03
559.459	37.96
559.655	37.9
559.851	37.95
560.047	37.91
560.243	37.89
560.439	37.85
560.635	37.76
560.831	37.76
561.027	37.74
561.223	37.7
561.419	37.71
561.615	37.67
561.811	37.76
562.007	37.83
562.203	37.86
562.399	37.96
562.595	37.97
562.791	38.12
562.987	38.16
563.183	38.07
563.379	38.16
563.575	38.04
563.771	38.25
563.966	38.28
564.162	38.15
564.358	38.07
564.554	38
564.75	37.91
564.945	37.81
565.141	37.91
565.337	37.97
565.533	37.87
565.728	37.94
565.924	37.93
566.12	37.87
566.315	37.95
566.511	38.13
566.707	38.05
566.902	38.05
567.098	38.1
567.293	38.01
567.489	37.95
567.684	38
567.88	37.92
568.076	37.87
568.271	37.94
568.467	37.94
568.662	37.85
568.858	37.89
569.053	37.95
569.248	37.85
569.444	37.86
569.639	37.93
569.835	38.03
570.03	38.02
570.225	37.87
570.421	37.91
570.616	37.83
570.812	37.77
571.007	37.74
571.202	37.81
571.397	37.96
571.593	37.89
571.788	37.85
571.983	37.91
572.178	38.03
572.374	38.19
572.569	38.15
572.764	38.2
572.959	38.23
573.154	38.35
573.35	38.39
573.545	38.4
573.74	38.53
573.935	38.64
574.13	38.56
574.325	38.46
574.52	38.45
574.715	38.46
574.91	38.42
575.105	38.61
575.3	38.59
575.495	38.6
575.69	38.56
575.885	38.67
576.08	38.73
576.275	38.88
576.47	39.06
576.665	39.24
576.86	39.31
577.055	39.35
577.25	39.3
577.444	39.37
577.639	39.56
577.834	39.65
578.029	39.6
578.224	39.68
578.418	39.65
578.613	39.81
578.808	39.86
579.003	40.03
579.197	40.18
579.392	40.17
579.587	40.2
579.781	40.12
579.976	40.11
580.171	40.11
580.365	40.07
580.56	40.11
580.755	39.84
580.949	39.77
581.144	39.78
581.338	39.78
581.533	39.94
581.727	40.16
581.922	40.15
582.116	40.32
582.311	40.41
582.505	40.44
582.7	40.31
582.894	40.43
583.089	40.47
583.283	40.35
583.478	40.34
583.672	40.38
583.866	40.3
584.061	40.35
584.255	40.32
584.449	40.35
584.644	40.37
584.838	40.56
585.032	40.71
585.226	40.74
585.421	40.86
585.615	41.07
585.809	40.99
586.003	40.82
586.198	40.93
586.392	40.83
586.586	40.8
586.78	40.86
586.974	40.86
587.168	40.67
587.363	40.56
587.557	40.44
587.751	40.27
587.945	40.13
588.139	40.28
588.333	40.11
588.527	40.25
588.721	40.23
588.915	40.15
589.109	40.13
589.303	40.06
589.497	40.04
589.691	40.12
589.885	40.13
590.079	40.41
590.273	40.36
590.466	40.48
590.66	40.55
590.854	40.69
591.048	40.72
591.242	40.76
591.436	40.93
591.629	41.18
591.823	41.33
592.017	41.48
592.211	41.29
592.404	41.39
592.598	41.33
592.792	41.21
592.986	41.24
593.179	41.25
593.373	41.23
593.567	41.19
593.76	41.01
593.954	40.93
594.147	40.82
594.341	41
594.535	40.84
594.728	40.84
594.922	40.77
595.115	40.75
595.309	40.7
595.502	40.72
595.696	40.66
595.889	40.59
596.083	40.55
596.276	40.53
596.47	40.51
596.663	40.66
596.856	40.73
597.05	40.82
597.243	40.68
597.437	40.8
597.63	40.8
597.823	40.92
598.017	41.07
598.21	41.12
598.403	41.27
598.596	41.26
598.79	41.29
598.983	41.36
599.176	41.56
599.369	41.7
599.563	41.69
599.756	41.96
599.949	42.05
600.142	41.93
600.335	42.1
600.528	41.94
600.722	41.89
600.915	41.73
601.108	41.69
601.301	41.5
601.494	41.52
601.687	41.53
601.88	41.4
602.073	41.32
602.266	41.46
602.459	41.33
602.652	41.44
602.845	41.4
603.038	41.4
603.231	41.34
603.424	41.2
603.617	41.2
603.809	41.16
604.002	41.06
604.195	40.95
604.388	40.87
604.581	40.89
604.774	40.88
604.966	40.86
605.159	40.96
605.352	40.96
605.545	41.09
605.737	41.19
605.93	41.19
606.123	41.34
606.316	41.67
606.508	41.91
606.701	42.08
606.894	42.26
607.086	42.53
607.279	42.68
607.471	42.83
607.664	42.99
607.857	43.21
608.049	43.61
608.242	43.99
608.434	44.23
608.627	44.64
608.819	44.99
609.012	45.5
609.204	46.15
609.397	47
609.589	47.77
609.782	48.71
609.974	49.78
610.166	50.72
610.359	51.48
610.551	52.45
610.743	53.24
610.936	53.95
611.128	54.56
611.32	54.87
611.513	54.9
611.705	55.2
611.897	55.27
612.09	54.82
612.282	54.29
612.474	53.81
612.666	53.32
612.858	52.85
613.051	52.52
613.243	52.17
613.435	51.83
613.627	51.45
613.819	50.89
614.011	50.41
614.203	49.92
614.395	49.6
614.588	49.3
614.78	48.88
614.972	48.58
615.164	48.28
615.356	47.52
615.548	47.09
615.74	46.9
615.932	46.58
616.124	46.23
616.315	46.09
616.507	46.05
616.699	45.92
616.891	45.67
617.083	45.5
617.275	45.26
617.467	45.22
617.659	45.2
617.85	45
618.042	44.95
618.234	44.84
618.426	44.75
618.618	44.51
618.809	44.46
619.001	44.3
619.193	44.15
619.384	43.97
619.576	44.24
619.768	44.26
619.959	44.25
620.151	44.29
620.343	44.26
620.534	44.04
620.726	44.12
620.917	43.98
621.109	44.13
621.301	44.15
621.492	44.33
621.684	44.3
621.875	44.04
622.067	44.11
622.258	44.25
622.45	44.44
622.641	44.65
622.832	44.8
623.024	44.93
623.215	44.77
623.407	44.79
623.598	44.75
623.789	44.57
623.981	44.73
624.172	44.71
624.363	44.57
624.555	44.43
624.746	44.37
624.937	44.13
625.129	44.13
625.32	44.05
625.511	43.87
625.702	43.7
625.893	43.76
626.085	43.75
626.276	43.66
626.467	43.52
626.658	43.61
626.849	43.66
627.04	43.66
627.231	43.54
627.422	43.7
627.614	43.83
627.805	43.92
627.996	43.86
628.187	43.91
628.378	44.09
628.569	44.39
628.76	44.58
628.951	44.62
629.142	44.93
629.332	45.01
629.523	45.15
629.714	45.32
629.905	45.59
630.096	45.74
630.287	45.9
630.478	45.86
630.669	45.85
630.859	45.62
631.05	45.59
631.241	45.4
631.432	45.3
631.623	45.17
631.813	45.02
632.004	44.7
632.195	44.48
632.385	44.28
632.576	44.35
632.767	44.11
632.957	44.04
633.148	43.91
633.339	43.83
633.529	43.71
633.72	43.64
633.91	43.56
634.101	43.49
634.292	43.55
634.482	43.53
634.673	43.42
634.863	43.47
635.054	43.29
635.244	43.24
635.435	43.24
635.625	43.17
635.815	43.08
636.006	43.03
636.196	43
636.387	42.97
636.577	42.98
636.767	42.96
636.958	42.88
637.148	43.07
637.338	43.13
637.529	43.12
637.719	43.43
637.909	43.5
638.099	43.48
638.29	43.5
638.48	43.68
638.67	43.79
638.86	43.67
639.05	43.92
639.241	44.13
639.431	44.08
639.621	44.11
639.811	43.99
640.001	44.03
640.191	44.11
640.381	44.25
640.571	44.2
640.761	44.15
640.951	44.21
641.141	44.02
641.331	43.83
641.521	43.89
641.711	44.04
641.901	44.21
642.091	44.22
642.281	44.18
642.471	44.18
642.661	44.14
642.851	44.1
643.041	44.13
643.231	44.2
643.42	44.08
643.61	44.18
643.8	43.92
643.99	43.73
644.18	43.85
644.369	43.94
644.559	44.02
644.749	44.18
644.939	44.17
645.128	44.01
645.318	43.88
645.508	43.94
645.697	43.65
645.887	43.86
646.076	44.14
646.266	44
646.456	44.06
646.645	43.84
646.835	43.62
647.024	43.67
647.214	43.68
647.403	43.74
647.593	43.83
647.782	44.18
647.972	44.24
648.161	44.21
648.351	44.35
648.54	44.5
648.73	44.6
648.919	44.69
649.108	44.64
649.298	45.01
649.487	45.2
649.677	45.4
649.866	45.22
650.055	45.11
650.244	44.93
650.434	44.86
650.623	44.62
650.812	44.78
651.002	44.77
651.191	44.87
651.38	44.66
651.569	44.6
651.758	44.38
651.947	44.54
652.137	44.5
652.326	44.47
652.515	44.18
652.704	44.27
652.893	44.14
653.082	44.07
653.271	43.92
653.46	43.88
653.649	44.06
653.838	43.98
654.027	43.92
654.216	43.8
654.405	43.89
654.594	44.15
654.783	44.05
654.972	44
655.161	44.07
655.35	43.98
655.539	43.79
655.728	43.44
655.916	43.54
656.105	43.29
656.294	43.55
656.483	43.52
656.672	43.33
656.86	43.29
657.049	43.26
657.238	43.22
657.427	43.37
657.615	43.53
657.804	43.42
657.993	43.16
658.181	43.3
658.37	43
658.559	43.06
658.747	43.16
658.936	43.33
659.125	43.13
659.313	43.15
659.502	43.24
659.69	43.24
659.879	43.42
660.067	43.74
660.256	43.79
660.444	43.82
660.633	43.92
660.821	44.1
661.01	44.17
661.198	44.42
661.387	44.43
661.575	44.48
661.763	44.59
661.952	44.76
662.14	44.77
662.328	44.66
662.517	44.87
662.705	44.84
662.893	44.81
663.082	44.73
663.27	44.79
663.458	44.56
663.646	44.6
663.834	44.68
664.023	44.45
664.211	44.24
664.399	44.63
664.587	44.57
664.775	44.61
664.963	44.54
665.152	44.31
665.34	44.32
665.528	44.7
665.716	44.73
665.904	44.58
666.092	44.78
666.28	44.86
666.468	44.64
666.656	44.75
666.844	44.75
667.032	44.88
667.22	45.06
667.408	45.12
667.596	45.19
667.784	45.13
667.971	44.97
668.159	44.72
668.347	44.9
668.535	44.96
668.723	45.08
668.911	44.95
669.098	44.89
669.286	44.96
669.474	44.89
669.662	44.78
669.849	44.54
670.037	44.74
670.225	44.98
670.413	45.04
670.6	45.13
670.788	44.82
670.976	45.04
671.163	44.96
671.351	44.99
671.538	45.3
671.726	45.15
671.913	45.07
672.101	45.05
672.289	44.9
672.476	44.63
672.664	44.72
672.851	45.03
673.039	44.95
673.226	45.05
673.413	45.1
673.601	44.5
673.788	44.84
673.976	45.2
674.163	45.24
674.35	45.28
674.538	45.53
674.725	45.69
674.912	45.66
675.1	45.8
675.287	45.76
675.474	45.59
675.662	46.07
675.849	45.99
676.036	45.81
676.223	45.79
676.411	45.61
676.598	45.55
676.785	45.11
676.972	44.99
677.159	44.59
677.346	44.6
677.533	44.62
677.721	44.57
677.908	44.5
678.095	44.47
678.282	44.33
678.469	44.28
678.656	43.99
678.843	43.94
679.03	43.98
679.217	44.29
679.404	44.35
679.591	44.17
679.778	43.89
679.964	43.99
680.151	43.93
680.338	44.05
680.525	44.32
680.712	44.49
680.899	44.65
681.086	44.7
681.272	44.46
681.459	44.15
681.646	44.41
681.833	44.46
682.02	44.31
682.206	44.61
682.393	44.65
682.58	44.48
682.766	44.52
682.953	44.52
683.14	44.43
683.326	44.69
683.513	45.32
683.7	45.3
683.886	45.55
684.073	45.48
684.259	45.22
684.446	45.16
684.632	45.3
684.819	45.31
685.005	45.4
685.192	45.47
685.378	45.17
685.565	44.92
685.751	45.03
685.938	44.97
686.124	45.04
686.31	45.4
686.497	45.34
686.683	45.22
686.87	45.09
687.056	44.66
687.242	44.48
687.429	44.65
687.615	44.46
687.801	44.4
687.987	44.35
688.174	44.53
688.36	44.48
688.546	44.72
688.732	44.78
688.918	44.85
689.105	45.18
689.291	45.33
689.477	45.3
689.663	45.43
689.849	45.23
690.035	45.53
690.221	45.39
690.407	45.41
690.593	45.17
690.779	45.08
690.965	45.09
691.151	44.92
691.337	45.16
691.523	45.46
691.709	45.49
691.895	45.79
692.081	45.7
692.267	45.99
692.453	46.21
692.639	46.51
692.825	46.45
693.011	46.57
693.196	46.74
693.382	46.45
693.568	46.34
693.754	46.51
693.94	46.26
694.125	46.21
694.311	46.15
694.497	46.07
694.682	45.87
694.868	46.2
695.054	46.26
695.239	46.21
695.425	46.19
695.611	46.31
695.796	46.11
695.982	46.34
696.168	46.07
696.353	45.6
696.539	45.33
696.724	45.19
696.91	44.8
697.095	44.46
697.281	44.49
697.466	44.56
697.652	44.47
697.837	44.13
698.023	44.03
698.208	44
698.393	43.99
698.579	43.79
698.764	43.71
698.949	43.8
699.135	43.93
699.32	43.79
699.505	43.74
699.691	43.6
699.876	43.59
700.061	43.48
700.246	43.54
700.432	43.78
700.617	43.76
700.802	44
700.987	44.06
701.172	43.91
701.358	44.15
701.543	44.4
701.728	44.84
701.913	45.24
702.098	45.53
702.283	45.72
702.468	45.72
702.653	46.37
702.838	46.76
703.023	46.83
703.208	47.64
703.393	48.1
703.578	48
703.763	48.08
703.948	48.21
704.133	48.09
704.318	48.29
704.503	48.49
704.688	48.57
704.873	48.45
705.057	48.7
705.242	48.75
705.427	48.9
705.612	49.11
705.797	49.11
705.981	49.34
706.166	49.64
706.351	49.74
706.536	50
706.72	50.24
706.905	50.8
707.09	50.87
707.274	50.78
707.459	50.65
707.644	50.57
707.828	50.71
708.013	50.89
708.197	50.84
708.382	51.11
708.567	51.15
708.751	50.85
708.936	50.3
709.12	50.45
709.305	50.15
709.489	49.96
709.673	50.31
709.858	49.96
710.042	50.03
710.227	50.18
710.411	49.68
710.596	49.43
710.78	49.58
710.964	49.66
711.149	49.43
711.333	49.22
711.517	49.4
711.702	49.01
711.886	48.96
712.07	48.44
712.254	48.24
712.438	48.33
712.623	48.39
712.807	47.95
712.991	48.15
713.175	48.14
713.359	48.26
713.544	47.85
713.728	47.79
713.912	47.52
714.096	47.54
714.28	47.01
714.464	46.67
714.648	46.34
714.832	46.45
715.016	45.75
715.2	45.73
715.384	45.44
715.568	45.59
715.752	45.44
715.936	45.65
716.12	45.43
716.304	45.79
716.488	46.01
716.671	46.05
716.855	46.02
717.039	46.24
717.223	45.83
717.407	45.91
717.59	45.86
717.774	46.05
717.958	46.07
718.142	46.1
718.325	45.86
718.509	45.93
718.693	46.02
718.877	45.92
719.06	45.93
719.244	46.35
719.428	46.58
719.611	46.7
719.795	46.66
719.978	46.4
720.162	46.6
720.345	46.95
720.529	47.01
720.713	47.04
720.896	46.98
721.08	47.15
721.263	47.43
721.446	47.55
721.63	47.41
721.813	47.23
721.997	47.8
722.18	48.32
722.364	48.16
722.547	47.93
722.73	47.96
722.914	48.06
723.097	48.02
723.28	47.79
723.464	47.59
723.647	47.89
723.83	47.77
724.013	47.46
724.197	46.98
724.38	46.75
724.563	46.81
724.746	46.61
724.929	46.4
725.112	46.37
725.296	46.07
725.479	46.33
725.662	46.17
725.845	46.35
726.028	46.55
726.211	46.65
726.394	46.59
726.577	46.8
726.76	46.81
726.943	46.5
727.126	45.95
727.309	45.71
727.492	45.2
727.675	45.13
727.858	44.71
728.041	43.99
728.224	43.4
728.407	43.88
728.589	43.48
728.772	43.37
728.955	43.79
729.138	44.19
729.321	44.41
729.503	44.92
729.686	44.46
729.869	44.75
730.052	44.98
730.234	45.45
730.417	45.42
730.6	45.18
730.782	45.16
730.965	44.98
731.148	44.62
731.33	44.75
731.513	44.49
731.695	44.59
731.878	44.45
732.061	44.9
732.243	44.65
732.426	44.37
732.608	44.97
732.791	44.97
732.973	44.96
733.156	45.49
733.338	45.38
733.52	45.5
733.703	45.76
733.885	46.04
734.068	45.66
734.25	45.89
734.432	46.18
734.615	46.21
734.797	46.26
734.979	46.64
735.162	46.39
735.344	46.32
735.526	46.46
735.708	46.71
735.891	46.89
736.073	46.83
736.255	47.12
736.437	47.35
736.619	47.29
736.802	47.57
736.984	47.56
737.166	48
737.348	47.99
737.53	47.77
737.712	47.48
737.894	47.07
738.076	47.16
738.258	46.8
738.44	46.8
738.622	46.72
738.804	46.79
738.986	46.25
739.168	46.22
739.35	46.49
739.532	46.85
739.714	47.27
739.896	47.59
740.078	47.96
740.259	47.67
740.441	47.76
740.623	48.04
740.805	48.27
740.987	48.61
741.168	48.48
741.35	48.54
741.532	48.53
741.714	48
741.895	47.93
742.077	48.29
742.259	49.18
742.44	49.32
742.622	49.04
742.804	48.66
742.985	48.77
743.167	48.5
743.348	48.62
743.53	48.38
743.711	48.87
743.893	49.02
744.075	48.55
744.256	48.16
744.438	47.39
744.619	48.07
744.8	48.25
744.982	49.23
745.163	50.27
745.345	50.19
745.526	50.36
745.707	50.33
745.889	50.24
746.07	50.37
746.252	50.52
746.433	50.67
746.614	50.06
746.795	49.66
746.977	48.7
747.158	47.69
747.339	47.76
747.52	47.98
747.702	48.15
747.883	47.96
748.064	48.28
748.245	48.39
748.426	48.28
748.607	48.35
748.788	48.84
748.97	49.38
749.151	49.3
749.332	49.75
749.513	49.55
749.694	49.3
749.875	49.76
750.056	49.47
750.237	49.63
750.418	49.68
750.599	49.9
750.78	50.36
750.96	50.16
751.141	50.58
751.322	50.1
751.503	49.56
751.684	48.93
751.865	48.71
752.046	48.77
752.226	48.29
752.407	48.88
752.588	48.75
752.769	48.13
752.949	47.92
753.13	48.6
753.311	48.76
753.492	49.75
753.672	50.25
753.853	50.51
754.034	50.88
754.214	50.9
754.395	50.46
754.575	50.56
754.756	50.66
754.937	50.96
755.117	50.29
755.298	50.52
755.478	50.3
755.659	50.62
755.839	50.77
756.02	50.57
756.2	50.74
756.381	50.48
756.561	50.41
756.741	50.55
756.922	50.89
757.102	51.02
757.283	50.29
757.463	49.75
757.643	49.78
757.823	49.07
758.004	48.57
758.184	48.41
758.364	48.44
758.545	47.69
758.725	47.16
758.905	45.81
759.085	45.26
759.265	45.26
759.446	45.13
759.626	44.21
759.806	44.6
759.986	44.35
760.166	44.06
760.346	43.89
760.526	43.75
760.706	44.21
760.886	44.41
761.066	44.66
761.246	44.77
761.426	44.6
761.606	44.67
761.786	44.03
761.966	43.88
762.146	43.91
762.326	43.66
762.506	43.53
762.686	43.25
762.866	43.2
763.046	43.21
763.225	42.52
763.405	42.42
763.585	42.59
763.765	43.1
763.945	42.9
764.124	42.87
764.304	43.2
764.484	43.34
764.664	43.44
764.843	43.65
765.023	43.7
765.203	44.21
765.382	44.71
765.562	44.97
765.741	45.04
765.921	45.99
766.101	46.38
766.28	46.49
766.46	46.87
766.639	47.13
766.819	48.08
766.998	48.41
767.178	48.83
767.357	49.13
767.537	48.94
767.716	49.13
767.896	49.3
768.075	49.44
768.254	49.87
768.434	49.97
768.613	49.78
768.792	49.24
768.972	49.52
769.151	49.45
769.33	49.21
769.51	49.01
769.689	48.83
769.868	48.64
770.047	49.41
770.226	49.44
770.406	49.33
770.585	49.96
770.764	50.1
770.943	49.42
771.122	49.93
771.301	50.24
771.48	51.46
771.66	51.43
771.839	50.81
772.018	50.41
772.197	50.08
772.376	50.8
772.555	51.3
772.734	51.53
772.913	51.94
773.092	52.15
773.271	52.12
773.449	51.77
773.628	52.29
773.807	52.78
773.986	52.63
774.165	53.17
774.344	53.05
774.523	52.97
774.701	52.27
774.88	52.67
775.059	52.32
775.238	52.21
775.417	51.88
775.595	52.24
775.774	52.35
775.953	52.24
776.131	52.07
776.31	51.88
776.489	51.47
776.667	51.93
776.846	51.65
777.025	52.28
777.203	52.79
777.382	53.11
777.56	51.64
777.739	51.32
777.917	50.42
778.096	50.54
778.274	50.56
778.453	50.13
778.631	50.68
778.81	50.59
778.988	48.78
779.166	48.18
779.345	48.7
779.523	49.31
779.702	49.34
779.88	50.23
780.058	50.89
780.237	51.3
780.415	51.82
780.593	50.89
780.771	51.31
780.95	52.56
781.128	52.56
781.306	52.35
781.484	52.76
781.662	53.37
781.841	53.89
782.019	53.35
782.197	53.04
782.375	53.4
782.553	53.57
782.731	52.82
782.909	52.9
783.087	53.2
783.265	52.32
783.443	52.16
783.621	51.57
783.799	51.91
783.977	51.42
784.155	51.91
784.333	51.81
784.511	52.66
784.689	53.82
784.867	53.82
785.045	53.75
785.223	54.03
785.4	54.84
785.578	55.2
785.756	54.7
785.934	54.37
786.112	54.22
786.289	53.42
786.467	52.63
786.645	51.49
786.823	51.09
787	50.51
787.178	50.85
787.356	49.88
787.533	49.83
787.711	49.16
787.889	49.03
788.066	48.26
788.244	47.55
788.421	47.68
788.599	47.42
788.776	47.65
788.954	48.91
789.131	47.77
789.309	47.65
789.486	47.35
789.664	48.29
789.841	48.94
790.019	50.01
790.196	50.92
790.373	50.61
790.551	51.24
790.728	51.16
790.906	49.71
791.083	51.72
791.26	52.02
791.437	53.11
791.615	52.48
791.792	52.46
791.969	52.01
792.146	52.2
792.324	52.78
792.501	53.2
792.678	53.48
792.855	54.33
793.032	52.55
793.209	52.75
793.387	52.71
793.564	52.96
793.741	53.19
793.918	53.19
794.095	53.33
794.272	53.08
794.449	52.74
794.626	52.93
794.803	52.73
794.98	54.17
795.157	54.33
795.334	53.85
795.511	52.99
795.688	52.66
795.864	52.05
796.041	51.43
796.218	50.82
796.395	50.74
796.572	50.2
796.749	50.2
796.925	49.5
797.102	49.23
797.279	48.89
797.456	48.64
797.632	48.09
797.809	48.46
797.986	48.67
798.162	49.17
798.339	47.81
798.516	48.07
798.692	48.15
798.869	48.03
799.046	47.38
799.222	47.79
799.399	48.84
799.575	49.93
799.752	49.9
799.928	49.49
800.105	50.22
800.281	51.58
800.458	51.74
800.634	51.75
800.811	51.98
800.987	52.34
801.163	51.38
801.34	51.12
801.516	50.29
801.692	49.58
801.869	50.3
802.045	50.16
802.221	49.92
802.398	50.25
802.574	49.58
802.75	49.47
802.926	50.58
803.103	51.67
803.279	51.35
803.455	51.64
803.631	53.56
803.807	52.98
803.983	52.31
804.16	52.17
804.336	51.96
804.512	52.34
804.688	52.3
804.864	51.34
805.04	51.17
805.216	51.28
805.392	51.7
805.568	50.64
805.744	51.39
805.92	51.69
806.096	51.48
806.272	51.51
806.448	51.83
806.623	52.95
806.799	52.1
806.975	51.65
807.151	51.6
807.327	51.84
807.503	51.94
807.678	50.9
807.854	50.78
808.03	52.01
808.206	52.17
808.381	51.27
808.557	50.53
808.733	51.56
808.908	51.31
809.084	51.84
809.26	51.72
809.435	52.54
809.611	53.86
809.787	53.98
809.962	53.22
810.138	52.72
810.313	53.03
810.489	52.34
810.664	53.1
810.84	52.87
811.015	52.22
811.191	51.86
811.366	51.34
811.542	51.62
811.717	50.63
811.892	50.76
812.068	51.41
812.243	52.33
812.419	53.19
812.594	52.32
812.769	53.03
812.944	53.25
813.12	53.24
813.295	53.09
813.47	52.21
813.645	52.21
813.821	52.41
813.996	51.86
814.171	50.78
814.346	50.79
814.521	49.88
814.697	49.56
814.872	49.71
815.047	49.76
815.222	49.27
815.397	48.94
815.572	50.17
815.747	50.19
815.922	49.35
816.097	50.03
816.272	49
816.447	49.62
816.622	50.25
816.797	50.11
816.972	49.35
817.147	49.3
817.322	49.92
817.496	49.49
817.671	49.61
817.846	49.68
818.021	49.43
818.196	49.77
818.371	50.11
818.545	49.74
818.72	49.98
818.895	50.76
819.069	50.3
819.244	49.67
819.419	48.86
819.594	47.74
819.768	46.78
819.943	45.84
820.117	45.44
820.292	44.11
820.467	42.68
820.641	41.49
820.816	40.14
820.99	39.72
821.165	38.85
821.339	38.16
821.514	37.87
821.688	37.62
821.863	36.95
822.037	36.46
822.212	36.15
822.386	36.13
822.56	35.89
822.735	35.82
822.909	35.76
823.084	35.71
823.258	35.73
823.432	35.22
823.606	35.28
823.781	35.76
823.955	35.74
824.129	35.97
824.303	36.01
824.478	36.18
824.652	36.73
824.826	36.79
825	37.06
825.174	37.59
825.348	38.45
825.523	38.91
825.697	39.24
825.871	39.93
826.045	39.92
826.219	40.04
826.393	40.12
826.567	39.62
826.741	39.61
826.915	39.56
827.089	39.06
827.263	39.08
827.437	38.9
827.611	38.69
827.784	38.58
827.958	38.85
828.132	38.8
828.306	38.93
828.48	39.17
828.654	39.55
828.827	40.35
829.001	41.06
829.175	41.22
829.349	41.83
829.522	42.41
829.696	42.77
829.87	42.86
830.044	43.84
830.217	44.35
830.391	44.63
830.565	44.65
830.738	44.07
830.912	43.78
831.085	44.48
831.259	44.48
831.432	44.14
831.606	44.36
831.779	44.68
831.953	44.04
832.126	43.38
832.3	43.51
832.473	42.68
832.647	42.72
832.82	42.91
832.994	42.93
833.167	42.55
833.34	41.94
833.514	41.49
833.687	40.51
833.86	40.49
834.034	40.65
834.207	40.78
834.38	41.21
834.553	41.09
834.727	41.02
834.9	40.39
835.073	40.06
835.246	40.54
835.419	41.15
835.593	42.23
835.766	42.69
835.939	42.91
836.112	42.24
836.285	43.1
836.458	43.68
836.631	44.89
836.804	46.45
836.977	47.58
837.15	48.46
837.323	48.76
837.496	49.6
837.669	50.83
837.842	51.95
838.015	54.29
838.188	54.9
838.361	54.93
838.533	53.81
838.706	53.11
838.879	53.33
839.052	53.02
839.225	52.27
839.398	52.1
839.57	50.43
839.743	50.17
839.916	49.68
840.088	48.76
840.261	49.62
840.434	50.3
840.607	49.83
840.779	50.43
840.952	50.1
841.124	50.83
841.297	49.65
841.47	50.83
841.642	51.64
841.815	52.85
841.987	52.62
842.16	52.05
842.332	52.52
842.505	55.12
842.677	55.6
842.85	56.2
843.022	55.94
843.194	58.25
843.367	58.86
843.539	59.15
843.712	57.33
843.884	58.48
844.056	59.82
844.229	59.49
844.401	58.4
844.573	58.38
844.745	58.39
844.918	58.4
845.09	58.61
845.262	57.42
845.434	58.1
845.606	61.74
845.779	61.04
845.951	59.99
846.123	59.25
846.295	59.54
846.467	60.6
846.639	62.32
846.811	61.96
846.983	61.54
847.155	64.19
847.327	63.39
847.499	59.38
847.671	61.09
847.843	61.59
848.015	62.74
848.187	62.76
848.359	61.98
848.531	60.63
848.703	61.5
848.875	61.38
849.047	61.18
849.218	63.79
849.39	64.74
849.562	62.76
849.734	62.38
849.905	61.86
850.077	61.58
850.249	61.75
850.421	61.24
850.592	60.72
850.764	61.68
850.936	59.99
851.107	58.59
851.279	59.14
851.451	60.92
851.622	60.92
851.794	61.08
851.965	63.09
852.137	62.36
852.308	63.26
852.48	65.32
852.651	66.77
852.823	67.92
852.994	68.81
853.166	68.22
853.337	68.95
853.509	68.56
853.68	67.33
853.851	63.93
854.023	63.1
854.194	63.58
854.365	63.24
854.537	61.39
854.708	60.09
854.879	59.06
855.05	60.05
855.222	60.63
855.393	61.99
855.564	66.1
855.735	66.29
855.906	67.78
856.078	67.61
856.249	65.84
856.42	66.4
856.591	67.16
856.762	66.55
856.933	66.48
857.104	64.55
857.275	62.67
857.446	60.78
857.617	61.1
857.788	60.27
857.959	60.27
858.13	60.59
858.301	59.95
858.472	59.67
858.643	59.47
858.814	57.9
858.985	58.39
859.155	60.55
859.326	59.84
859.497	59.67
859.668	58.97
859.839	58.1
860.009	58.36
860.18	59.76
860.351	59.79
860.522	59.69
860.692	59.66
860.863	58.5
861.034	58.77
861.204	60.4
861.375	63.03
861.546	66.12
861.716	67.73
861.887	70.06
862.057	70.39
862.228	70.56
862.398	71.02
862.569	71.75
862.739	74.56
862.91	75.49
863.08	72.29
863.251	70.98
863.421	68.5
863.592	68.17
863.762	65.87
863.932	64.93
864.103	64.2
864.273	63.41
864.443	61.91
864.614	60.94
864.784	60.19
864.954	61.14
865.125	60.15
865.295	61.6
865.465	60.84
865.635	60.72
865.805	60.64
865.976	60.56
866.146	59.67
866.316	61.87
866.486	61.53
866.656	60.47
866.826	60.8
866.996	61.67
867.166	59.86
867.336	59.87
867.506	60.41
867.676	59.56
867.846	60.84
868.016	62.26
868.186	62.66
868.356	61.1
868.526	59.53
868.696	59.84
868.866	59.62
869.036	58.98
869.206	56.7
869.376	56.18
869.545	55.82
869.715	56.31
869.885	56.59
870.055	56.55
870.224	57.59
870.394	60.2
870.564	59.55
870.734	60.62
870.903	62.45
871.073	64.72
871.243	64.05
871.412	64.38
871.582	63.7
871.751	63.82
871.921	64.38
872.091	64.94
872.26	62.6
872.43	63.67
872.599	62.25
872.769	64.31
872.938	63.63
873.108	64.67
873.277	64.28
873.446	63.18
873.616	64.03
873.785	62.78
873.955	60.4
874.124	61.01
874.293	59.7
874.463	60.38
874.632	57.83
874.801	56.86
874.971	56.55
875.14	56.99
875.309	56.4
875.478	54.75
875.647	54.53
875.817	54.42
875.986	55.39
876.155	57.13
876.324	57.66
876.493	58.56
876.662	58.94
876.831	57.84
877	58.04
877.17	57.57
877.339	57.22
877.508	57.18
877.677	58.32
877.846	57.71
878.015	58.67
878.184	59.12
878.352	58.45
878.521	59.47
878.69	59.42
878.859	57.54
879.028	58.09
879.197	57.47
879.366	55.09
879.534	52.58
879.703	50.18
879.872	47.11
880.041	45.7
880.21	44.99
880.378	43.69
880.547	43
880.716	42.78
880.884	41.62
881.053	40.66
881.222	39.88
881.39	38.84
881.559	38.22
881.727	37.36
881.896	37.29
882.065	36.75
882.233	36.03
882.402	35.62
882.57	35.56
882.739	36.29
882.907	35.88
883.076	35.85
883.244	36.36
883.412	36.28
883.581	36.94
883.749	36.37
883.918	36.36
884.086	37.01
884.254	37.19
884.423	37.28
884.591	36.72
884.759	37.97
884.927	38.92
885.096	39.82
885.264	40.82
885.432	40.91
885.6	41.61
885.769	42.91
885.937	43.56
886.105	45.23
886.273	45.69
886.441	46.92
886.609	46.78
886.777	47.99
886.945	48.07
887.113	48.5
887.281	48.91
887.449	49.72
887.617	48.83
887.785	49.93
887.953	49.59
888.121	50.45
888.289	48.21
888.457	49.41
888.625	48.99
888.793	48.82
888.961	51.26
889.129	52.84
889.296	53.6
889.464	54.7
889.632	54.05
889.8	54.6
889.967	54.99
890.135	58.05
