Data from 2938773__Reflection_03.txt Node
Date: Fri Mar 13 14:33:54 EDT 2015
User: robert
Spectrometer: USB4E03002
Autoset integration time: false
Trigger mode: 4
Integration Time (sec): 1.000000E-1
Scans to average: 10
Electric dark correction enabled: false
Nonlinearity correction enabled: false
Boxcar width: 5
Stray light correction enabled: false
XAxis mode: Wavelengths
Stop averaging: false
Number of Pixels in Spectrum: 3648
>>>>>Begin Spectral Data<<<<<
177.575	-498.61
177.794	-1116.44
178.014	-2807.41
178.233	1382.09
178.452	2640.54
178.672	629.55
178.891	564.02
179.11	3586.96
179.33	-976.12
179.549	-392.06
179.768	-1350
179.987	841.79
180.207	1874.07
180.426	1276.92
180.645	-2045.71
180.864	-1170.97
181.084	-270.47
181.303	-377.57
181.522	-1508.51
181.741	4886.67
181.96	334.92
182.179	326.53
182.398	254.56
182.618	271.03
182.837	399.63
183.056	331.03
183.275	278.83
183.494	211.99
183.713	232.66
183.932	247.99
184.151	222.25
184.37	269.35
184.589	314.61
184.808	650
185.027	217.19
185.246	174.86
185.465	171.8
185.684	224.5
185.903	213.45
186.122	186.34
186.341	165.29
186.56	170.18
186.779	245.48
186.998	203.23
187.216	246.93
187.435	561.02
187.654	250.56
187.873	170.48
188.092	146.85
188.311	222.54
188.53	235.1
188.748	657.81
188.967	-1550
189.186	349.28
189.405	464.75
189.623	210.51
189.842	224.88
190.061	225
190.28	320.85
190.498	217.33
190.717	198.2
190.936	204.68
191.154	183.1
191.373	219.08
191.592	208.5
191.81	160.86
192.029	169.43
192.248	165.96
192.466	179.35
192.685	171.99
192.904	210.04
193.122	215.03
193.341	293.55
193.559	568.75
193.778	292.47
193.996	378.11
194.215	3252
194.433	806.54
194.652	531.08
194.87	805.32
195.089	14080
195.307	3034.62
195.526	-644.86
195.744	1738.3
195.963	493.99
196.181	433.88
196.399	303.73
196.618	315.87
196.836	358.86
197.055	609.74
197.273	954.95
197.491	2711.76
197.71	1477.78
197.928	496.65
198.146	617.8
198.365	829.33
198.583	759.09
198.801	-161.57
199.019	-121.03
199.238	-81.36
199.456	-96.1
199.674	-148.01
199.892	-187.8
200.111	-191.21
200.329	-178.31
200.547	-192.81
200.765	-399.53
200.983	-316.87
201.202	-771.03
201.42	-1787.5
201.638	3626.09
201.856	851.55
202.074	1921.95
202.292	381.58
202.51	511.63
202.728	260.85
202.946	470.47
203.165	865.08
203.383	54200
203.601	358.45
203.819	305.94
204.037	235.83
204.255	269.12
204.473	204.65
204.691	492.27
204.909	226.63
205.127	295.4
205.345	175.15
205.562	178.93
205.78	147.63
205.998	186.84
206.216	191.79
206.434	209.54
206.652	215.1
206.87	212.47
207.088	194.28
207.306	241.46
207.523	210.71
207.741	208.17
207.959	217.72
208.177	255.87
208.395	265.51
208.612	318.24
208.83	276.88
209.048	317.28
209.266	2633.33
209.483	-1770.59
209.701	-2412
209.919	1145.31
210.136	14660
210.354	-1833.33
210.572	-178.69
210.79	544.86
211.007	231.32
211.225	655.93
211.442	189.39
211.66	92.77
211.878	90.47
212.095	100
212.313	72.54
212.53	50.11
212.748	36.71
212.966	50.48
213.183	56.69
213.401	56.67
213.618	45.75
213.836	36.66
214.053	45.42
214.271	31.13
214.488	36.01
214.705	53.93
214.923	52.8
215.14	54.31
215.358	48.99
215.575	61.11
215.793	68.55
216.01	82.45
216.227	79.07
216.445	75.19
216.662	72.35
216.879	71.15
217.097	62.37
217.314	65.28
217.531	70.56
217.749	85.71
217.966	83.24
218.183	68.47
218.4	34.58
218.618	47.48
218.835	62.3
219.052	61.45
219.269	56.41
219.487	63.37
219.704	56.2
219.921	44.5
220.138	32.8
220.355	27.6
220.572	28.64
220.79	44.68
221.007	31.64
221.224	19.88
221.441	22.39
221.658	30.58
221.875	26.97
222.092	32.26
222.309	47.22
222.526	46.29
222.743	42.24
222.96	42.84
223.177	39.34
223.394	40.81
223.611	40.86
223.828	45.36
224.045	47.1
224.262	53.9
224.479	49.37
224.696	42.96
224.913	41.51
225.13	42.95
225.347	46.19
225.564	45.36
225.781	46.72
225.997	41.73
226.214	36.93
226.431	32.11
226.648	23.26
226.865	22.21
227.082	19.86
227.298	19.2
227.515	16.09
227.732	12.43
227.949	11.11
228.165	10.4
228.382	10.32
228.599	9.15
228.816	8.99
229.032	8.38
229.249	7.9
229.466	8.05
229.682	7.9
229.899	7.91
230.116	8.37
230.332	8.03
230.549	7.8
230.765	8.31
230.982	9.77
231.199	10.24
231.415	13.12
231.632	13.66
231.848	15.06
232.065	13.72
232.281	15.11
232.498	15.29
232.714	17.11
232.931	17.93
233.147	17.32
233.364	16.25
233.58	15.68
233.797	14.33
234.013	14.82
234.23	13.08
234.446	13.85
234.662	13.34
234.879	12.8
235.095	12.75
235.312	13.05
235.528	12.16
235.744	9.92
235.961	11.36
236.177	10.05
236.393	9.51
236.61	9.06
236.826	7.72
237.042	7.29
237.258	7.19
237.475	6.97
237.691	5.14
237.907	5.91
238.123	9.82
238.339	8.96
238.556	9.43
238.772	8.93
238.988	8
239.204	9.05
239.42	10.63
239.636	11.33
239.853	10.55
240.069	11.25
240.285	11.01
240.501	10.15
240.717	10.56
240.933	10.24
241.149	10.12
241.365	10.11
241.581	9.88
241.797	9.21
242.013	9.42
242.229	9.57
242.445	9.56
242.661	9.76
242.877	9.62
243.093	9.41
243.309	9.52
243.525	9.02
243.741	9.23
243.957	10.02
244.173	9.73
244.388	9.46
244.604	8.9
244.82	8.57
245.036	7.9
245.252	7.31
245.468	7.35
245.683	7.82
245.899	7.91
246.115	8.04
246.331	7.62
246.547	7.91
246.762	7.59
246.978	7.75
247.194	7.62
247.409	7.92
247.625	7.88
247.841	7.65
248.057	7.37
248.272	7.41
248.488	7.61
248.703	7.75
248.919	7.62
249.135	7.58
249.35	7.96
249.566	8.64
249.782	8.59
249.997	8.97
250.213	9.78
250.428	10.12
250.644	10.38
250.859	9.55
251.075	9.94
251.29	10.18
251.506	11.23
251.721	11.02
251.937	10.12
252.152	9.91
252.368	10
252.583	9.7
252.798	9.92
253.014	10
253.229	10.28
253.445	9.33
253.66	9.34
253.875	8.54
254.091	7.95
254.306	8.33
254.521	8.37
254.737	8.82
254.952	8.07
255.167	7.21
255.383	7.7
255.598	7.23
255.813	8.08
256.028	7.49
256.244	7.27
256.459	7.59
256.674	7.25
256.889	7.09
257.104	6.31
257.32	6.58
257.535	6.47
257.75	6.08
257.965	6.2
258.18	5.88
258.395	5.85
258.61	6.18
258.826	6
259.041	5.97
259.256	5.97
259.471	5.81
259.686	5.6
259.901	5.57
260.116	5.69
260.331	5.81
260.546	5.69
260.761	5.8
260.976	5.66
261.191	5.5
261.406	5.49
261.621	5.6
261.836	5.85
262.05	5.77
262.265	5.74
262.48	5.33
262.695	5.28
262.91	5.16
263.125	5.22
263.34	5.13
263.555	5.43
263.769	5.41
263.984	5.28
264.199	5.36
264.414	5.79
264.629	6.85
264.843	7.58
265.058	7.27
265.273	7.47
265.488	7.62
265.702	8.05
265.917	7.77
266.132	7.91
266.346	7.78
266.561	7.72
266.776	7.48
266.99	7.05
267.205	6.78
267.42	6.58
267.634	6.63
267.849	6.47
268.063	6.4
268.278	6.74
268.492	6.16
268.707	5.86
268.922	5.56
269.136	6.4
269.351	5.86
269.565	5.58
269.78	6.3
269.994	6.43
270.209	6.03
270.423	5.79
270.637	5.51
270.852	5.53
271.066	5.82
271.281	5.96
271.495	5.39
271.709	5.36
271.924	5.54
272.138	5.07
272.353	4.91
272.567	5.13
272.781	4.88
272.996	4.95
273.21	5.32
273.424	5.29
273.638	5.16
273.853	5.19
274.067	5.22
274.281	5.24
274.495	5.38
274.71	5.42
274.924	5.61
275.138	5.87
275.352	5.63
275.566	5.41
275.781	5.14
275.995	5.43
276.209	5.58
276.423	5.54
276.637	5.2
276.851	5.38
277.065	5.7
277.279	5.72
277.493	5.8
277.707	5.99
277.921	6.11
278.135	6.02
278.349	6.08
278.563	6.05
278.777	6.48
278.991	6.81
279.205	6.79
279.419	6.11
279.633	5.82
279.847	5.64
280.061	5.83
280.275	5.48
280.489	5.81
280.703	5.47
280.917	5.36
281.131	4.97
281.344	4.75
281.558	4.38
281.772	4.71
281.986	4.77
282.2	4.73
282.414	4.53
282.627	4.8
282.841	4.43
283.055	4.54
283.269	4.38
283.482	4.49
283.696	4.6
283.91	4.55
284.123	4.66
284.337	4.76
284.551	5.01
284.764	5.14
284.978	5.03
285.192	5.28
285.405	5.02
285.619	5.06
285.833	5
286.046	4.62
286.26	4.78
286.473	4.85
286.687	4.48
286.9	4.16
287.114	3.96
287.327	3.54
287.541	3.22
287.754	3.56
287.968	3.83
288.181	3.81
288.395	4.25
288.608	4.59
288.822	4.37
289.035	4.58
289.248	4.41
289.462	4.78
289.675	4.91
289.889	4.96
290.102	4.89
290.315	4.55
290.529	4.96
290.742	4.8
290.955	4.4
291.169	4.71
291.382	4.78
291.595	5.27
291.808	4.93
292.022	5.06
292.235	5.05
292.448	4.99
292.661	5.08
292.875	4.58
293.088	5
293.301	4.96
293.514	4.71
293.727	5.38
293.94	5.31
294.153	5.33
294.367	5.39
294.58	5.41
294.793	5.31
295.006	5.43
295.219	5.77
295.432	5.23
295.645	5.44
295.858	5.03
296.071	4.48
296.284	4.22
296.497	4.45
296.71	4.68
296.923	5.09
297.136	5.18
297.349	5.24
297.562	5.23
297.775	5.64
297.988	5.59
298.201	6.03
298.414	6.19
298.626	6.44
298.839	6.33
299.052	6.26
299.265	5.72
299.478	5.63
299.691	5.54
299.903	5.41
300.116	5.16
300.329	5.14
300.542	5.02
300.755	5.02
300.967	4.78
301.18	4.81
301.393	5.06
301.605	5.45
301.818	5.71
302.031	5.73
302.243	5.66
302.456	5.85
302.669	5.87
302.881	5.97
303.094	5.72
303.307	6.17
303.519	5.81
303.732	5.39
303.944	5.19
304.157	5.24
304.37	5.31
304.582	5.38
304.795	5.37
305.007	5.61
305.22	5.56
305.432	6.05
305.645	5.87
305.857	6.81
306.069	7.14
306.282	7.42
306.494	7.38
306.707	7.11
306.919	6.94
307.132	6.86
307.344	7.18
307.556	7.58
307.769	7.46
307.981	7.68
308.193	7.24
308.406	7.25
308.618	7.1
308.83	6.79
309.043	6.86
309.255	7.22
309.467	7.06
309.679	6.46
309.892	5.88
310.104	6.01
310.316	5.65
310.528	5.33
310.74	5.23
310.953	5.19
311.165	5.57
311.377	5.87
311.589	5.82
311.801	5.98
312.013	6.24
312.225	6.51
312.437	6.41
312.649	6.6
312.862	6.93
313.074	7.01
313.286	7.25
313.498	6.88
313.71	6.84
313.922	6.94
314.134	7.16
314.346	7.07
314.558	7.58
314.77	7.64
314.982	7.79
315.193	7.9
315.405	8.24
315.617	8.3
315.829	8.71
316.041	8.75
316.253	8.24
316.465	8.51
316.677	8.58
316.888	8.23
317.1	7.79
317.312	7.8
317.524	7.69
317.736	7.97
317.947	7.87
318.159	8.42
318.371	8.32
318.583	8.96
318.794	8.85
319.006	9.07
319.218	8.98
319.43	9.24
319.641	9.33
319.853	9.83
320.064	9.25
320.276	9.79
320.488	9.07
320.699	9.3
320.911	9.17
321.123	8.92
321.334	8.37
321.546	8.52
321.757	8.66
321.969	8.45
322.18	8.62
322.392	9.24
322.603	9.06
322.815	9.15
323.026	9.41
323.238	9.72
323.449	9.47
323.661	9.56
323.872	9.69
324.083	9.83
324.295	10.28
324.506	9.79
324.718	9.69
324.929	9.44
325.14	9.52
325.352	9.49
325.563	9.36
325.774	9.48
325.986	10.13
326.197	10.18
326.408	10.43
326.62	10.21
326.831	10.36
327.042	10.24
327.253	10.52
327.464	10.67
327.676	10.8
327.887	10.94
328.098	11.52
328.309	11.33
328.52	11.88
328.732	12.34
328.943	12.83
329.154	13.06
329.365	13.34
329.576	13.42
329.787	13.61
329.998	13.38
330.209	13.8
330.42	13.96
330.631	14.58
330.842	14.34
331.053	14.24
331.264	14
331.475	14.03
331.686	14.27
331.897	14.77
332.108	15.26
332.319	15.89
332.53	15.7
332.741	15.62
332.952	15.32
333.163	15.21
333.374	14.93
333.585	15.5
333.795	15.63
334.006	15.45
334.217	15.3
334.428	15.04
334.639	14.55
334.849	14.18
335.06	14.29
335.271	14.45
335.482	14.56
335.692	14.65
335.903	14.34
336.114	14.46
336.325	14.44
336.535	14.43
336.746	14.49
336.957	14.63
337.167	15.13
337.378	14.77
337.589	14.79
337.799	14.68
338.01	14.71
338.22	14.82
338.431	14.56
338.642	14.36
338.852	14.21
339.063	14.24
339.273	14.13
339.484	13.99
339.694	14.02
339.905	13.76
340.115	13.93
340.326	13.85
340.536	13.59
340.746	13.87
340.957	14.15
341.167	13.97
341.378	13.73
341.588	13.54
341.799	13.51
342.009	13.47
342.219	13.48
342.43	13.33
342.64	13.57
342.85	13.72
343.061	13.52
343.271	13.33
343.481	13.23
343.691	13.19
343.902	13.49
344.112	13.47
344.322	13.4
344.532	13.32
344.743	13.63
344.953	13.52
345.163	13.22
345.373	13.28
345.583	13.28
345.793	13.47
346.004	13.58
346.214	13.5
346.424	13.66
346.634	13.83
346.844	13.83
347.054	13.56
347.264	13.47
347.474	13.6
347.684	13.52
347.894	13.72
348.104	13.94
348.314	13.81
348.524	13.66
348.734	13.16
348.944	13.6
349.154	14.02
349.364	13.9
349.574	13.8
349.784	14.02
349.994	14.16
350.204	14.05
350.413	13.97
350.623	14.23
350.833	14.15
351.043	14.41
351.253	14.27
351.463	14.33
351.672	14.42
351.882	14.59
352.092	14.42
352.302	14.37
352.511	14.49
352.721	14.27
352.931	14.32
353.141	14.25
353.35	14.13
353.56	13.79
353.77	13.52
353.979	13.37
354.189	13.29
354.399	13.37
354.608	13.5
354.818	13.38
355.027	13.29
355.237	13.11
355.447	13.4
355.656	13.33
355.866	13.32
356.075	13.28
356.285	13.42
356.494	13.37
356.704	13.21
356.913	13.17
357.123	13.16
357.332	13.27
357.542	13.22
357.751	13.18
357.96	13.16
358.17	13.03
358.379	12.88
358.589	12.81
358.798	12.95
359.007	12.75
359.217	12.81
359.426	13.01
359.635	13.03
359.845	12.99
360.054	12.76
360.263	12.86
360.472	13.04
360.682	13
360.891	12.93
361.1	12.79
361.309	12.95
361.519	12.89
361.728	12.73
361.937	12.78
362.146	12.75
362.355	12.94
362.564	12.96
362.774	12.89
362.983	12.88
363.192	12.85
363.401	12.67
363.61	12.65
363.819	12.44
364.028	12.19
364.237	12.12
364.446	11.85
364.655	11.69
364.864	11.61
365.073	11.59
365.282	11.72
365.491	11.55
365.7	11.72
365.909	11.7
366.118	11.77
366.327	12.01
366.536	12.04
366.745	12.19
366.954	12.05
367.162	12.01
367.371	12.06
367.58	12.11
367.789	12.36
367.998	12.16
368.207	12.02
368.415	11.9
368.624	11.68
368.833	11.62
369.042	11.8
369.25	12
369.459	12.14
369.668	11.86
369.877	11.58
370.085	11.57
370.294	11.97
370.503	12.07
370.711	12.1
370.92	12.06
371.129	11.89
371.337	11.73
371.546	11.75
371.754	11.64
371.963	11.9
372.171	12.25
372.38	12.05
372.589	11.85
372.797	11.61
373.006	11.43
373.214	11.44
373.423	11.38
373.631	11.35
373.84	11.31
374.048	11.11
374.256	10.88
374.465	10.69
374.673	10.74
374.882	10.61
375.09	10.74
375.298	10.9
375.507	10.83
375.715	10.59
375.923	10.38
376.132	10.08
376.34	9.93
376.548	9.99
376.757	9.81
376.965	9.62
377.173	9.46
377.381	9.52
377.59	9.44
377.798	9.48
378.006	9.57
378.214	9.75
378.423	9.86
378.631	9.92
378.839	9.7
379.047	9.64
379.255	9.72
379.463	9.68
379.671	9.72
379.879	9.78
380.088	9.62
380.296	9.68
380.504	9.49
380.712	9.38
380.92	9.25
381.128	9.36
381.336	9.27
381.544	9.23
381.752	9.15
381.96	8.86
382.168	8.75
382.376	8.94
382.584	9.1
382.791	8.91
382.999	8.88
383.207	9.1
383.415	9.13
383.623	9.12
383.831	9.06
384.039	9.29
384.247	9.36
384.454	9.25
384.662	9.14
384.87	8.86
385.078	9.05
385.285	9.07
385.493	8.98
385.701	8.77
385.909	8.81
386.116	8.92
386.324	8.66
386.532	8.7
386.739	8.55
386.947	8.39
387.155	8.5
387.362	8.47
387.57	8.47
387.778	8.61
387.985	8.71
388.193	8.71
388.4	8.63
388.608	8.78
388.816	8.63
389.023	8.82
389.231	8.84
389.438	8.79
389.646	8.77
389.853	8.87
390.061	8.57
390.268	8.43
390.475	8.35
390.683	8.31
390.89	8.17
391.098	8.19
391.305	8.13
391.512	8.02
391.72	7.9
391.927	7.85
392.135	7.57
392.342	7.56
392.549	7.58
392.756	7.4
392.964	7.21
393.171	7.16
393.378	6.98
393.586	7.04
393.793	7.17
394	7.21
394.207	7.3
394.414	7.4
394.622	7.48
394.829	7.49
395.036	7.52
395.243	7.63
395.45	7.68
395.657	7.78
395.864	7.59
396.072	7.48
396.279	7.47
396.486	7.16
396.693	7.17
396.9	7.31
397.107	7.17
397.314	7.27
397.521	7.3
397.728	7.29
397.935	7.38
398.142	7.5
398.349	7.65
398.556	7.52
398.763	7.67
398.97	7.54
399.177	7.21
399.383	7.23
399.59	7.19
399.797	7.23
400.004	7.18
400.211	7.08
400.418	6.9
400.625	6.95
400.831	6.98
401.038	7.05
401.245	7.14
401.452	7.32
401.658	7.3
401.865	7.3
402.072	7.05
402.279	6.93
402.485	6.79
402.692	6.82
402.899	6.74
403.105	6.77
403.312	6.54
403.519	6.46
403.725	6.49
403.932	6.65
404.138	6.8
404.345	6.96
404.552	7.1
404.758	7.24
404.965	7.15
405.171	7.19
405.378	7.15
405.584	7.22
405.791	7.36
405.997	7.23
406.204	7.1
406.41	7.11
406.617	7.1
406.823	7.07
407.029	7.11
407.236	7.15
407.442	7
407.649	6.93
407.855	6.92
408.061	6.76
408.268	6.72
408.474	6.77
408.68	6.59
408.887	6.61
409.093	6.69
409.299	6.58
409.505	6.65
409.712	6.69
409.918	6.75
410.124	6.76
410.33	7
410.537	7.08
410.743	7.19
410.949	7.13
411.155	7.11
411.361	7.06
411.567	7.08
411.773	7.01
411.98	6.97
412.186	6.85
412.392	6.95
412.598	6.79
412.804	6.77
413.01	6.61
413.216	6.81
413.422	6.61
413.628	6.62
413.834	6.54
414.04	6.55
414.246	6.57
414.452	6.68
414.658	6.73
414.864	6.67
415.07	6.81
415.275	6.76
415.481	6.8
415.687	6.94
415.893	6.95
416.099	6.96
416.305	7.02
416.511	6.98
416.716	7.09
416.922	6.93
417.128	6.93
417.334	6.82
417.539	6.81
417.745	6.63
417.951	6.56
418.157	6.56
418.362	6.57
418.568	6.5
418.774	6.53
418.979	6.42
419.185	6.51
419.391	6.52
419.596	6.54
419.802	6.55
420.008	6.59
420.213	6.71
420.419	6.7
420.624	6.72
420.83	6.81
421.035	6.84
421.241	6.85
421.446	6.85
421.652	6.85
421.857	6.87
422.063	6.87
422.268	6.86
422.474	6.83
422.679	6.85
422.885	6.84
423.09	6.74
423.295	6.73
423.501	6.8
423.706	6.74
423.911	6.76
424.117	6.77
424.322	6.79
424.527	6.75
424.733	6.72
424.938	6.64
425.143	6.7
425.349	6.79
425.554	6.78
425.759	6.73
425.964	6.8
426.169	6.8
426.375	6.76
426.58	6.79
426.785	6.82
426.99	6.79
427.195	6.84
427.4	6.85
427.605	6.83
427.811	6.83
428.016	6.79
428.221	6.79
428.426	6.79
428.631	6.82
428.836	6.8
429.041	6.91
429.246	6.86
429.451	6.89
429.656	6.82
429.861	6.88
430.066	6.91
430.271	6.98
430.476	6.94
430.681	6.93
430.886	6.81
431.09	6.84
431.295	6.91
431.5	7.04
431.705	7.01
431.91	6.93
432.115	6.84
432.32	6.92
432.524	6.92
432.729	7.01
432.934	7.03
433.139	7.09
433.343	7.06
433.548	7
433.753	7.01
433.958	7.11
434.162	7.19
434.367	7.17
434.572	7.05
434.776	7
434.981	6.92
435.186	6.94
435.39	6.98
435.595	7.03
435.799	6.96
436.004	6.99
436.209	7
436.413	7.11
436.618	7.28
436.822	7.34
437.027	7.34
437.231	7.33
437.436	7.31
437.64	7.27
437.845	7.24
438.049	7.35
438.253	7.31
438.458	7.26
438.662	7.08
438.867	7.04
439.071	6.96
439.275	7.09
439.48	7.08
439.684	7.07
439.888	7.07
440.093	7.1
440.297	7.05
440.501	7.02
440.706	7.06
440.91	7.15
441.114	7.1
441.318	7.19
441.523	7.15
441.727	7.21
441.931	7.21
442.135	7.22
442.339	7.22
442.543	7.19
442.748	7.26
442.952	7.18
443.156	7.14
443.36	7.17
443.564	7.14
443.768	7.16
443.972	7.07
444.176	7.15
444.38	7.21
444.584	7.28
444.788	7.37
444.992	7.27
445.196	7.27
445.4	7.33
445.604	7.34
445.808	7.31
446.012	7.22
446.216	7.35
446.42	7.31
446.624	7.19
446.828	7.16
447.032	7.07
447.235	7.12
447.439	7.11
447.643	7.06
447.847	7.1
448.051	7.08
448.254	7.13
448.458	7.04
448.662	7.04
448.866	7.12
449.069	7.08
449.273	7.15
449.477	7.18
449.681	7.2
449.884	7.21
450.088	7.18
450.292	7.32
450.495	7.34
450.699	7.29
450.902	7.37
451.106	7.27
451.31	7.38
451.513	7.41
451.717	7.27
451.92	7.22
452.124	7.11
452.327	7.13
452.531	6.98
452.734	6.96
452.938	7.14
453.141	7.09
453.345	7.23
453.548	7.15
453.752	7.02
453.955	7.14
454.158	7.26
454.362	7.38
454.565	7.34
454.769	7.4
454.972	7.4
455.175	7.38
455.379	7.36
455.582	7.3
455.785	7.37
455.988	7.4
456.192	7.47
456.395	7.46
456.598	7.47
456.801	7.41
457.005	7.53
457.208	7.51
457.411	7.52
457.614	7.48
457.817	7.46
458.021	7.28
458.224	7.35
458.427	7.34
458.63	7.27
458.833	7.26
459.036	7.23
459.239	7.17
459.442	7.12
459.645	7.08
459.848	7.05
460.051	7.09
460.254	7.14
460.457	7.11
460.66	7.07
460.863	7.13
461.066	7.1
461.269	7.2
461.472	7.18
461.675	7.19
461.878	7.18
462.081	7.24
462.284	7.32
462.486	7.35
462.689	7.44
462.892	7.42
463.095	7.45
463.298	7.57
463.5	7.56
463.703	7.51
463.906	7.66
464.109	7.69
464.311	7.67
464.514	7.7
464.717	7.66
464.92	7.68
465.122	7.62
465.325	7.65
465.528	7.55
465.73	7.54
465.933	7.65
466.135	7.67
466.338	7.7
466.541	7.78
466.743	7.71
466.946	7.79
467.148	7.71
467.351	7.78
467.553	7.79
467.756	7.79
467.958	7.73
468.161	7.73
468.363	7.65
468.566	7.62
468.768	7.49
468.971	7.44
469.173	7.49
469.375	7.57
469.578	7.64
469.78	7.55
469.983	7.6
470.185	7.62
470.387	7.6
470.59	7.62
470.792	7.58
470.994	7.6
471.196	7.66
471.399	7.58
471.601	7.57
471.803	7.53
472.005	7.6
472.208	7.51
472.41	7.6
472.612	7.65
472.814	7.62
473.016	7.61
473.218	7.68
473.421	7.54
473.623	7.61
473.825	7.49
474.027	7.5
474.229	7.46
474.431	7.5
474.633	7.53
474.835	7.48
475.037	7.54
475.239	7.61
475.441	7.58
475.643	7.72
475.845	7.64
476.047	7.63
476.249	7.61
476.451	7.64
476.653	7.58
476.855	7.46
477.057	7.44
477.258	7.47
477.46	7.39
477.662	7.46
477.864	7.46
478.066	7.47
478.268	7.5
478.469	7.48
478.671	7.36
478.873	7.43
479.075	7.43
479.276	7.46
479.478	7.41
479.68	7.42
479.882	7.37
480.083	7.35
480.285	7.35
480.487	7.44
480.688	7.45
480.89	7.58
481.091	7.55
481.293	7.54
481.495	7.51
481.696	7.48
481.898	7.53
482.099	7.47
482.301	7.4
482.502	7.38
482.704	7.36
482.905	7.34
483.107	7.28
483.308	7.25
483.51	7.26
483.711	7.25
483.913	7.23
484.114	7.19
484.315	7.19
484.517	7.21
484.718	7.19
484.92	7.16
485.121	7.13
485.322	7.17
485.524	7.18
485.725	7.16
485.926	7.15
486.127	7.16
486.329	7.18
486.53	7.18
486.731	7.2
486.932	7.18
487.134	7.21
487.335	7.23
487.536	7.21
487.737	7.21
487.938	7.23
488.139	7.26
488.341	7.29
488.542	7.27
488.743	7.3
488.944	7.29
489.145	7.34
489.346	7.33
489.547	7.38
489.748	7.44
489.949	7.47
490.15	7.49
490.351	7.45
490.552	7.47
490.753	7.53
490.954	7.52
491.155	7.52
491.356	7.51
491.557	7.52
491.758	7.47
491.959	7.43
492.159	7.43
492.36	7.38
492.561	7.44
492.762	7.41
492.963	7.36
493.164	7.36
493.364	7.36
493.565	7.37
493.766	7.38
493.967	7.44
494.167	7.41
494.368	7.42
494.569	7.49
494.769	7.45
494.97	7.49
495.171	7.52
495.371	7.53
495.572	7.63
495.773	7.65
495.973	7.64
496.174	7.63
496.375	7.71
496.575	7.68
496.776	7.72
496.976	7.73
497.177	7.73
497.377	7.77
497.578	7.81
497.778	7.79
497.979	7.79
498.179	7.86
498.38	7.9
498.58	7.92
498.78	7.95
498.981	7.97
499.181	7.94
499.382	8.01
499.582	8.01
499.782	8.01
499.983	8.02
500.183	8.07
500.383	7.95
500.584	7.97
500.784	7.96
500.984	8.04
501.184	8.05
501.385	8.14
501.585	8.2
501.785	8.23
501.985	8.2
502.185	8.27
502.386	8.4
502.586	8.5
502.786	8.52
502.986	8.48
503.186	8.57
503.386	8.52
503.586	8.5
503.786	8.47
503.987	8.45
504.187	8.47
504.387	8.45
504.587	8.32
504.787	8.41
504.987	8.47
505.187	8.51
505.387	8.44
505.587	8.6
505.786	8.71
505.986	8.6
506.186	8.63
506.386	8.7
506.586	8.79
506.786	8.89
506.986	8.95
507.186	8.9
507.386	8.95
507.585	9.01
507.785	8.95
507.985	8.97
508.185	9.12
508.384	9.16
508.584	9.15
508.784	9.11
508.984	9.07
509.183	8.98
509.383	9.04
509.583	9.16
509.782	9.13
509.982	9.26
510.182	9.25
510.381	9.31
510.581	9.37
510.781	9.33
510.98	9.35
511.18	9.43
511.379	9.5
511.579	9.58
511.778	9.55
511.978	9.62
512.177	9.59
512.377	9.7
512.576	9.75
512.776	9.79
512.975	9.96
513.175	10.14
513.374	10.11
513.573	10.16
513.773	10.29
513.972	10.34
514.172	10.45
514.371	10.54
514.57	10.53
514.77	10.49
514.969	10.51
515.168	10.59
515.367	10.6
515.567	10.86
515.766	10.84
515.965	10.77
516.164	10.88
516.364	10.89
516.563	10.92
516.762	10.95
516.961	11.07
517.16	11.21
517.359	11.26
517.559	11.35
517.758	11.34
517.957	11.49
518.156	11.66
518.355	11.69
518.554	11.82
518.753	11.91
518.952	12.04
519.151	12.12
519.35	12.13
519.549	12.22
519.748	12.29
519.947	12.31
520.146	12.42
520.345	12.4
520.544	12.51
520.743	12.55
520.942	12.71
521.141	12.84
521.339	13
521.538	13.15
521.737	13.27
521.936	13.32
522.135	13.55
522.333	13.67
522.532	13.76
522.731	13.82
522.93	13.95
523.129	13.99
523.327	14.09
523.526	14.11
523.725	14.22
523.923	14.37
524.122	14.48
524.321	14.53
524.519	14.63
524.718	14.85
524.917	15.03
525.115	15.17
525.314	15.29
525.512	15.38
525.711	15.56
525.909	15.67
526.108	15.77
526.306	15.92
526.505	16.1
526.703	16.23
526.902	16.29
527.1	16.34
527.299	16.48
527.497	16.6
527.696	16.68
527.894	16.74
528.092	16.83
528.291	16.92
528.489	16.98
528.688	17.02
528.886	17.07
529.084	17.14
529.283	17.23
529.481	17.24
529.679	17.3
529.877	17.41
530.076	17.47
530.274	17.58
530.472	17.66
530.67	17.81
530.869	17.97
531.067	18.16
531.265	18.3
531.463	18.44
531.661	18.66
531.859	18.83
532.057	18.92
532.255	19.12
532.454	19.25
532.652	19.34
532.85	19.39
533.048	19.46
533.246	19.53
533.444	19.66
533.642	19.78
533.84	19.86
534.038	19.96
534.236	20.06
534.434	20.13
534.632	20.23
534.83	20.4
535.027	20.59
535.225	20.74
535.423	20.9
535.621	21.01
535.819	21.16
536.017	21.21
536.215	21.26
536.412	21.39
536.61	21.51
536.808	21.56
537.006	21.64
537.203	21.74
537.401	21.81
537.599	21.89
537.797	21.97
537.994	22.03
538.192	22.26
538.39	22.38
538.587	22.54
538.785	22.63
538.983	22.8
539.18	22.93
539.378	23.01
539.575	23.22
539.773	23.37
539.97	23.51
540.168	23.68
540.366	23.69
540.563	23.76
540.761	23.8
540.958	23.87
541.155	23.89
541.353	23.94
541.55	23.99
541.748	23.97
541.945	23.97
542.143	24.01
542.34	23.98
542.537	24.07
542.735	24.14
542.932	24.21
543.129	24.29
543.327	24.37
543.524	24.46
543.721	24.55
543.919	24.75
544.116	24.93
544.313	25.08
544.51	25.29
544.708	25.44
544.905	25.59
545.102	25.78
545.299	25.92
545.496	26.06
545.693	26.2
545.891	26.26
546.088	26.18
546.285	26.13
546.482	26.14
546.679	26.09
546.876	26.02
547.073	25.97
547.27	25.87
547.467	25.84
547.664	25.85
547.861	25.83
548.058	25.88
548.255	25.98
548.452	26.04
548.649	26.07
548.846	26.2
549.043	26.28
549.24	26.37
549.437	26.48
549.633	26.52
549.83	26.52
550.027	26.61
550.224	26.75
550.421	26.72
550.618	26.79
550.814	26.86
551.011	26.84
551.208	26.97
551.405	26.91
551.601	26.94
551.798	27.13
551.995	27.27
552.191	27.2
552.388	27.14
552.585	27.3
552.781	27.34
552.978	27.37
553.175	27.44
553.371	27.47
553.568	27.54
553.764	27.61
553.961	27.49
554.157	27.51
554.354	27.67
554.55	27.81
554.747	27.78
554.943	27.81
555.14	27.83
555.336	27.82
555.533	27.79
555.729	27.84
555.926	27.85
556.122	28.05
556.318	28.03
556.515	27.99
556.711	27.81
556.907	27.75
557.104	27.84
557.3	27.9
557.496	27.88
557.693	27.92
557.889	27.98
558.085	28.08
558.281	27.96
558.478	28
558.674	28.06
558.87	28.22
559.066	28.33
559.262	28.25
559.459	28.23
559.655	28.17
559.851	28.21
560.047	28.31
560.243	28.22
560.439	28.23
560.635	28.26
560.831	28.35
561.027	28.28
561.223	28.38
561.419	28.41
561.615	28.47
561.811	28.56
562.007	28.52
562.203	28.59
562.399	28.69
562.595	28.75
562.791	28.8
562.987	28.73
563.183	28.81
563.379	28.84
563.575	28.97
563.771	28.9
563.966	28.97
564.162	29.1
564.358	29.08
564.554	29.06
564.75	29.07
564.945	29.1
565.141	29.1
565.337	29.12
565.533	29.02
565.728	29.04
565.924	29.2
566.12	29.22
566.315	29.25
566.511	29.29
566.707	29.27
566.902	29.39
567.098	29.38
567.293	29.33
567.489	29.39
567.684	29.39
567.88	29.42
568.076	29.27
568.271	29.39
568.467	29.25
568.662	29.25
568.858	29.25
569.053	29
569.248	29.02
569.444	29.14
569.639	29.17
569.835	29.27
570.03	29.21
570.225	29.27
570.421	29.17
570.616	29.14
570.812	29.11
571.007	29.18
571.202	29.33
571.397	29.32
571.593	29.26
571.788	29.21
571.983	29.2
572.178	29.23
572.374	29.33
572.569	29.32
572.764	29.48
572.959	29.5
573.154	29.52
573.35	29.61
573.545	29.61
573.74	29.74
573.935	29.72
574.13	29.73
574.325	29.69
574.52	29.66
574.715	29.73
574.91	29.73
575.105	29.66
575.3	29.68
575.495	29.62
575.69	29.82
575.885	29.79
576.08	30
576.275	30.04
576.47	30.21
576.665	30.33
576.86	30.37
577.055	30.42
577.25	30.55
577.444	30.57
577.639	30.67
577.834	30.59
578.029	30.66
578.224	30.71
578.418	30.79
578.613	30.82
578.808	30.77
579.003	30.78
579.197	30.81
579.392	30.73
579.587	30.84
579.781	30.79
579.976	30.7
580.171	30.82
580.365	30.8
580.56	30.77
580.755	30.64
580.949	30.74
581.144	30.8
581.338	31
581.533	31.14
581.727	31.24
581.922	31.35
582.116	31.41
582.311	31.17
582.505	31.19
582.7	31.34
582.894	31.35
583.089	31.3
583.283	31.45
583.478	31.38
583.672	31.31
583.866	31.3
584.061	31.32
584.255	31.46
584.449	31.67
584.644	31.71
584.838	31.65
585.032	31.87
585.226	31.98
585.421	32
585.615	31.91
585.809	32.06
586.003	31.91
586.198	31.99
586.392	31.98
586.586	31.9
586.78	31.91
586.974	31.92
587.168	31.74
587.363	31.66
587.557	31.54
587.751	31.52
587.945	31.56
588.139	31.73
588.333	31.67
588.527	31.66
588.721	31.66
588.915	31.62
589.109	31.63
589.303	31.7
589.497	31.73
589.691	31.76
589.885	31.84
590.079	31.88
590.273	31.75
590.466	31.77
590.66	31.87
590.854	31.88
591.048	31.88
591.242	31.86
591.436	31.99
591.629	32.1
591.823	32.16
592.017	32.15
592.211	32.11
592.404	32.24
592.598	32.19
592.792	32.11
592.986	32.1
593.179	32.1
593.373	32.08
593.567	32.07
593.76	32.01
593.954	31.94
594.147	31.91
594.341	31.87
594.535	31.91
594.728	32.01
594.922	32.06
595.115	32.11
595.309	32.05
595.502	32.16
595.696	32.09
595.889	32.1
596.083	32.17
596.276	32.1
596.47	32.18
596.663	32.09
596.856	31.95
597.05	31.81
597.243	31.86
597.437	32.13
597.63	32.07
597.823	32.08
598.017	32.07
598.21	32.02
598.403	32.03
598.596	31.92
598.79	32.09
598.983	32.28
599.176	32.44
599.369	32.47
599.563	32.2
599.756	32.34
599.949	32.33
600.142	32.28
600.335	32.45
600.528	32.7
600.722	32.87
600.915	32.8
601.108	32.73
601.301	32.82
601.494	32.82
601.687	32.99
601.88	33.01
602.073	33.16
602.266	33.33
602.459	33.3
602.652	33.21
602.845	33.18
603.038	33.1
603.231	33.09
603.424	33.01
603.617	33.04
603.809	32.9
604.002	32.94
604.195	32.9
604.388	32.76
604.581	32.72
604.774	32.76
604.966	32.66
605.159	32.76
605.352	32.73
605.545	32.84
605.737	32.94
605.93	33.09
606.123	32.91
606.316	32.84
606.508	32.96
606.701	33.02
606.894	33.15
607.086	33.36
607.279	33.38
607.471	33.51
607.664	33.47
607.857	33.41
608.049	33.58
608.242	33.91
608.434	34.12
608.627	34.37
608.819	34.65
609.012	34.98
609.204	35.43
609.397	35.86
609.589	36.24
609.782	36.81
609.974	37.34
610.166	37.84
610.359	38.36
610.551	38.76
610.743	39.08
610.936	39.57
611.128	39.9
611.32	40.01
611.513	40.15
611.705	40.44
611.897	40.44
612.09	40.32
612.282	40.19
612.474	39.87
612.666	39.69
612.858	39.65
613.051	39.14
613.243	38.67
613.435	38.29
613.627	37.96
613.819	37.5
614.011	37.2
614.203	36.93
614.395	36.64
614.588	36.52
614.78	36.45
614.972	36.18
615.164	36.1
615.356	36.09
615.548	35.93
615.74	35.92
615.932	35.96
616.124	35.77
616.315	35.75
616.507	35.51
616.699	35.3
616.891	35.21
617.083	34.97
617.275	34.95
617.467	34.86
617.659	35.02
617.85	34.85
618.042	34.63
618.234	34.73
618.426	34.8
618.618	34.79
618.809	34.72
619.001	34.56
619.193	34.75
619.384	34.65
619.576	34.38
619.768	34.34
619.959	34.37
620.151	34.19
620.343	34.17
620.534	33.99
620.726	33.99
620.917	34.07
621.109	34.38
621.301	34.63
621.492	34.55
621.684	34.7
621.875	34.51
622.067	34.55
622.258	34.93
622.45	35.05
622.641	35.09
622.832	35.32
623.024	35.55
623.215	35.41
623.407	35.02
623.598	35.12
623.789	35.2
623.981	35.3
624.172	35.24
624.363	35.19
624.555	34.9
624.746	35.13
624.937	34.96
625.129	34.82
625.32	34.69
625.511	34.69
625.702	34.71
625.893	34.66
626.085	34.55
626.276	34.59
626.467	34.54
626.658	34.66
626.849	34.48
627.04	34.44
627.231	34.47
627.422	34.58
627.614	34.62
627.805	34.63
627.996	34.61
628.187	34.9
628.378	35.07
628.569	35.18
628.76	35.19
628.951	35.35
629.142	35.44
629.332	35.48
629.523	35.39
629.714	35.44
629.905	35.49
630.096	35.57
630.287	35.35
630.478	35.19
630.669	35.08
630.859	35.04
631.05	34.92
631.241	34.95
631.432	34.84
631.623	35.03
631.813	35.04
632.004	34.83
632.195	34.69
632.385	34.74
632.576	34.62
632.767	34.54
632.957	34.51
633.148	34.47
633.339	34.39
633.529	34.35
633.72	34.33
633.91	34.3
634.101	34.51
634.292	34.64
634.482	34.59
634.673	34.56
634.863	34.48
635.054	34.61
635.244	34.66
635.435	34.83
635.625	34.88
635.815	34.68
636.006	34.71
636.196	34.64
636.387	34.38
636.577	34.34
636.767	34.51
636.958	34.65
637.148	34.5
637.338	34.59
637.529	34.45
637.719	34.55
637.909	34.67
638.099	34.83
638.29	34.91
638.48	35.07
638.67	35.41
638.86	35.46
639.05	35.53
639.241	35.44
639.431	35.4
639.621	35.5
639.811	35.61
640.001	35.74
640.191	35.57
640.381	35.53
640.571	35.68
640.761	35.26
640.951	35.02
641.141	35.01
641.331	35.27
641.521	35.06
641.711	35.04
641.901	34.81
642.091	34.7
642.281	34.67
642.471	34.53
642.661	34.44
642.851	34.83
643.041	35.11
643.231	35.25
643.42	35.1
643.61	35.24
643.8	35.26
643.99	35.25
644.18	35.26
644.369	35.47
644.559	35.58
644.749	35.53
644.939	35.33
645.128	35.3
645.318	35.17
645.508	35.17
645.697	35.18
645.887	34.95
646.076	35.22
646.266	34.96
646.456	34.68
646.645	34.75
646.835	34.97
647.024	34.89
647.214	34.75
647.403	34.84
647.593	35.02
647.782	34.87
647.972	35.04
648.161	34.82
648.351	35.1
648.54	35.36
648.73	35.3
648.919	35.13
649.108	35.1
649.298	35.15
649.487	35.23
649.677	35.15
649.866	35.23
650.055	35.1
650.244	35.08
650.434	35.1
650.623	35.04
650.812	35.06
651.002	34.87
651.191	35.09
651.38	35.07
651.569	34.8
651.758	34.92
651.947	35.03
652.137	35.13
652.326	35.16
652.515	35.14
652.704	34.91
652.893	35.19
653.082	35.52
653.271	35.4
653.46	35.48
653.649	35.57
653.838	35.51
654.027	35.34
654.216	35.31
654.405	35.49
654.594	35.43
654.783	35.42
654.972	35.12
655.161	35.08
655.35	35.04
655.539	35.1
655.728	34.98
655.916	35.14
656.105	35.14
656.294	35.19
656.483	35.07
656.672	34.88
656.86	34.9
657.049	34.95
657.238	35.02
657.427	35.06
657.615	35
657.804	35.17
657.993	34.84
658.181	34.83
658.37	34.73
658.559	34.74
658.747	34.82
658.936	35.01
659.125	34.85
659.313	34.76
659.502	34.82
659.69	34.64
659.879	34.58
660.067	34.74
660.256	34.72
660.444	34.76
660.633	34.79
660.821	34.91
661.01	34.72
661.198	34.81
661.387	34.94
661.575	34.84
661.763	35.14
661.952	35.24
662.14	35.41
662.328	35.7
662.517	35.82
662.705	35.79
662.893	35.74
663.082	35.86
663.27	36.15
663.458	36.25
663.646	36.46
663.834	36.47
664.023	36.3
664.211	36.19
664.399	35.9
664.587	35.62
664.775	35.5
664.963	35.55
665.152	35.57
665.34	35.46
665.528	35.31
665.716	35.36
665.904	35.38
666.092	35.25
666.28	35.15
666.468	35.26
666.656	35.56
666.844	35.75
667.032	35.82
667.22	35.71
667.408	35.65
667.596	35.6
667.784	35.12
667.971	35.11
668.159	35.19
668.347	35.1
668.535	34.98
668.723	34.95
668.911	34.89
669.098	34.58
669.286	34.68
669.474	34.8
669.662	34.88
669.849	35.22
670.037	35.2
670.225	35.36
670.413	35.43
670.6	35.9
670.788	35.89
670.976	36.01
671.163	36.42
671.351	36.5
671.538	36.39
671.726	36.08
671.913	36
672.101	35.98
672.289	36.08
672.476	35.93
672.664	35.43
672.851	35.53
673.039	35.46
673.226	35.24
673.413	35.25
673.601	35.34
673.788	35.79
673.976	35.67
674.163	35.5
674.35	35.65
674.538	35.81
674.725	36.14
674.912	36.06
675.1	36.34
675.287	36.3
675.474	36.39
675.662	36.39
675.849	36.11
676.036	36.43
676.223	36.75
676.411	36.51
676.598	36.55
676.785	36.37
676.972	36.44
677.159	36.03
677.346	36.26
677.533	35.96
677.721	35.88
677.908	36.04
678.095	36.04
678.282	35.87
678.469	35.72
678.656	35.64
678.843	35.98
679.03	35.87
679.217	35.9
679.404	35.72
679.591	35.97
679.778	36.09
679.964	35.88
680.151	35.86
680.338	35.8
680.525	35.69
680.712	35.74
680.899	35.6
681.086	35.37
681.272	35.37
681.459	35.28
681.646	35.11
681.833	34.85
682.02	34.85
682.206	34.67
682.393	34.85
682.58	35.07
682.766	34.96
682.953	34.9
683.14	35.23
683.326	35.34
683.513	35.6
683.7	35.84
683.886	36.01
684.073	36.32
684.259	36.21
684.446	36.12
684.632	36.1
684.819	36.15
685.005	36.28
685.192	36.04
685.378	36.06
685.565	36.12
685.751	36
685.938	35.94
686.124	35.97
686.31	35.8
686.497	35.73
686.683	35.77
686.87	35.71
687.056	35.71
687.242	35.53
687.429	35.33
687.615	35.18
687.801	35.08
687.987	35.12
688.174	34.86
688.36	35.06
688.546	34.96
688.732	35.19
688.918	35.48
689.105	35.15
689.291	35.35
689.477	35.44
689.663	35.57
689.849	35.47
690.035	35.36
690.221	35.71
690.407	35.73
690.593	35.79
690.779	35.89
690.965	35.52
691.151	35.99
691.337	36.24
691.523	36.24
691.709	36.26
691.895	36.59
692.081	36.68
692.267	36.31
692.453	36.57
692.639	36.58
692.825	36.21
693.011	36.39
693.196	36.3
693.382	36.06
693.568	35.78
693.754	35.82
693.94	35.92
694.125	35.84
694.311	35.57
694.497	35.31
694.682	35.38
694.868	35.15
695.054	34.79
695.239	34.7
695.425	35.08
695.611	35.54
695.796	35.1
695.982	34.95
696.168	35.04
696.353	35.11
696.539	34.97
696.724	34.95
696.91	34.97
697.095	35.25
697.281	35
697.466	34.86
697.652	34.38
697.837	34.56
698.023	34.48
698.208	34.34
698.393	34.39
698.579	34.59
698.764	34.63
698.949	34.67
699.135	34.66
699.32	34.52
699.505	34.48
699.691	34.69
699.876	34.64
700.061	34.61
700.246	34.66
700.432	34.91
700.617	34.79
700.802	34.76
700.987	35.01
701.172	34.66
701.358	35.1
701.543	35.08
701.728	35.36
701.913	35.63
702.098	35.67
702.283	36.07
702.468	35.54
702.653	35.67
702.838	35.61
703.023	35.5
703.208	35.98
703.393	35.91
703.578	36.05
703.763	36.16
703.948	36.28
704.133	36.84
704.318	36.86
704.503	37.37
704.688	37.54
704.873	37.82
705.057	38.28
705.242	38.89
705.427	39.16
705.612	38.87
705.797	39.15
705.981	38.72
706.166	38.43
706.351	38.48
706.536	38.72
706.72	38.89
706.905	39.2
707.09	38.93
707.274	38.45
707.459	38.49
707.644	38.79
707.828	38.38
708.013	38.51
708.197	38.49
708.382	38.58
708.567	38.67
708.751	38.69
708.936	38.54
709.12	38.78
709.305	38.86
709.489	38.68
709.673	38.72
709.858	38.64
710.042	38.84
710.227	38.97
710.411	38.77
710.596	38.29
710.78	37.99
710.964	38.03
711.149	37.67
711.333	37.03
711.517	36.9
711.702	36.95
711.886	37.12
712.07	37.26
712.254	37.12
712.438	36.87
712.623	36.9
712.807	36.96
712.991	36.91
713.175	36.97
713.359	37.26
713.544	37.27
713.728	37.23
713.912	37.16
714.096	36.83
714.28	36.67
714.464	36.89
714.648	36.85
714.832	36.64
715.016	36.19
715.2	35.77
715.384	36.09
715.568	36.09
715.752	35.91
715.936	35.89
716.12	36.01
716.304	36
716.488	36
716.671	36.13
716.855	36.15
717.039	36.34
717.223	36.74
717.407	36.69
717.59	36.66
717.774	36.68
717.958	36.78
718.142	36.61
718.325	36.9
718.509	36.57
718.693	36.28
718.877	36.26
719.06	36.44
719.244	36.45
719.428	36.74
719.611	36.72
719.795	36.76
719.978	36.34
720.162	36.53
720.345	35.93
720.529	36.23
720.713	36.62
720.896	36.94
721.08	36.97
721.263	36.9
721.446	36.03
721.63	36.37
721.813	36.29
721.997	36.67
722.18	36.04
722.364	37.04
722.547	36.81
722.73	36.73
722.914	37.13
723.097	37.2
723.28	37.12
723.464	37.21
723.647	36.98
723.83	36.54
724.013	36.64
724.197	37.02
724.38	36.39
724.563	36.57
724.746	36.72
724.929	35.98
725.112	35.86
725.296	36.02
725.479	36.17
725.662	35.68
725.845	36.28
726.028	36.02
726.211	36.09
726.394	36.06
726.577	35.91
726.76	35.47
726.943	35.45
727.126	35.18
727.309	35.13
727.492	35.12
727.675	35.39
727.858	35.16
728.041	35.19
728.224	35.54
728.407	35.31
728.589	35.59
728.772	36.01
728.955	36.12
729.138	36.02
729.321	35.56
729.503	35.74
729.686	35.58
729.869	35.91
730.052	35.96
730.234	35.62
730.417	35.48
730.6	35.27
730.782	34.94
730.965	34.63
731.148	34.94
731.33	35.21
731.513	35.12
731.695	35.33
731.878	35.37
732.061	35.46
732.243	35.69
732.426	36.14
732.608	36.3
732.791	36.69
732.973	36.74
733.156	36.53
733.338	36.8
733.52	36.9
733.703	37.05
733.885	37.16
734.068	37.14
734.25	37.02
734.432	37.28
734.615	37.02
734.797	36.78
734.979	37.46
735.162	37.74
735.344	37.47
735.526	37.44
735.708	37.55
735.891	37.61
736.073	37.55
736.255	37.51
736.437	37.1
736.619	37.39
736.802	37.45
736.984	37.24
737.166	37.26
737.348	37.6
737.53	37.22
737.712	37
737.894	36.79
738.076	36.9
738.258	37.19
738.44	37
738.622	36.79
738.804	36.89
738.986	36.6
739.168	36.49
739.35	35.94
739.532	36.08
739.714	35.69
739.896	35.56
740.078	35.02
740.259	34.55
740.441	34.69
740.623	34.94
740.805	34.33
740.987	34.54
741.168	34.38
741.35	34.65
741.532	35.41
741.714	36.36
741.895	36.04
742.077	36.61
742.259	36.67
742.44	36.77
742.622	36.53
742.804	36.84
742.985	36.6
743.167	36.66
743.348	37.04
743.53	36.33
743.711	35.89
743.893	36.04
744.075	35.96
744.256	35.89
744.438	35.71
744.619	35.92
744.8	36.27
744.982	36.52
745.163	37.12
745.345	36.98
745.526	37.25
745.707	37.67
745.889	37.62
746.07	37.48
746.252	37.73
746.433	38.32
746.614	38.41
746.795	38.57
746.977	38.12
747.158	37.46
747.339	37.68
747.52	37.87
747.702	37.19
747.883	37.67
748.064	38.15
748.245	38.12
748.426	37.53
748.607	37.25
748.788	36.96
748.97	37.39
749.151	37.49
749.332	36.98
749.513	37.34
749.694	37.39
749.875	36.4
750.056	35.85
750.237	36.17
750.418	36.59
750.599	36.37
750.78	36.23
750.96	35.83
751.141	36.17
751.322	36.58
751.503	36
751.684	35.65
751.865	37.25
752.046	36.51
752.226	35.91
752.407	35.35
752.588	35.41
752.769	34.9
752.949	35.47
753.13	35.06
753.311	34.69
753.492	35.03
753.672	35.28
753.853	34.11
754.034	35.46
754.214	36.64
754.395	37.13
754.575	37.12
754.756	37.77
754.937	37.8
755.117	37.83
755.298	38.45
755.478	38.08
755.659	38.53
755.839	39.19
756.02	38.76
756.2	37.71
756.381	38.17
756.561	38.16
756.741	37.92
756.922	37.65
757.102	37.16
757.283	37.27
757.463	37.11
757.643	36.92
757.823	36.1
758.004	36.06
758.184	36.4
758.364	35.71
758.545	35.63
758.725	35.39
758.905	35.04
759.085	35.29
759.265	34.96
759.446	34.94
759.626	34.37
759.806	34.71
759.986	34.42
760.166	33.91
760.346	33.83
760.526	33.63
760.706	33.99
760.886	34.26
761.066	34.82
761.246	34.06
761.426	34.02
761.606	34.45
761.786	34.21
761.966	34.89
762.146	34.83
762.326	34.58
762.506	34.74
762.686	34.6
762.866	34.47
763.046	33.99
763.225	34.38
763.405	33.7
763.585	33.9
763.765	33.95
763.945	33.34
764.124	33.62
764.304	33.57
764.484	33.64
764.664	33.81
764.843	34.02
765.023	34.37
765.203	34.69
765.382	36.09
765.562	35.67
765.741	35.78
765.921	36.35
766.101	35.79
766.28	36.21
766.46	36.31
766.639	36.32
766.819	36.69
766.998	36.52
767.178	35.93
767.357	35.37
767.537	35.53
767.716	35.93
767.896	36.04
768.075	36.75
768.254	37.11
768.434	37.55
768.613	37.28
768.792	36.81
768.972	37.41
769.151	37.28
769.33	37.74
769.51	38.48
769.689	37.62
769.868	37.88
770.047	37.6
770.226	37.39
770.406	36.48
770.585	36.44
770.764	36.28
770.943	35.07
771.122	35.27
771.301	34.72
771.48	34.97
771.66	35.04
771.839	34.8
772.018	35.59
772.197	35.61
772.376	36.9
772.555	37.8
772.734	37.84
772.913	38.43
773.092	39.1
773.271	38.89
773.449	38.39
773.628	39.43
773.807	39.49
773.986	39.19
774.165	39.65
774.344	38.84
774.523	37.8
774.701	38.18
774.88	37.88
775.059	37.13
775.238	37.54
775.417	36.96
775.595	36.19
775.774	35.75
775.953	35.42
776.131	34.43
776.31	35.49
776.489	35.86
776.667	35.93
776.846	37.27
777.025	38.45
777.203	38.53
777.382	39.69
777.56	40.09
777.739	40.69
777.917	40.31
778.096	40.02
778.274	39.18
778.453	39.11
778.631	39.33
778.81	38.21
778.988	38.45
779.166	38.2
779.345	37.23
779.523	37.21
779.702	36.3
779.88	36.44
780.058	37.33
780.237	37.03
780.415	38.34
780.593	38.15
780.771	38.75
780.95	38.59
781.128	38.38
781.306	38.63
781.484	39.37
781.662	39.89
781.841	40.14
782.019	39.21
782.197	39.27
782.375	38.09
782.553	38.55
782.731	38.21
782.909	37.48
783.087	37.31
783.265	37.24
783.443	35.94
783.621	35.58
783.799	36.84
783.977	38.16
784.155	37.93
784.333	38.01
784.511	36.72
784.689	36.25
784.867	35.59
785.045	35.91
785.223	35.02
785.4	35.17
785.578	36.37
785.756	35.18
785.934	34.86
786.112	33.98
786.289	34.44
786.467	34.45
786.645	35.12
786.823	36.23
787	36.33
787.178	37.69
787.356	37.65
787.533	36.58
787.711	36.54
787.889	37.14
788.066	37.78
788.244	37.93
788.421	38.05
788.599	38.06
788.776	37.36
788.954	37.68
789.131	36.93
789.309	37.32
789.486	37.39
789.664	37.05
789.841	36.86
790.019	37.06
790.196	36.21
790.373	36.89
790.551	37.14
790.728	37.71
790.906	38.19
791.083	39.7
791.26	39.67
791.437	38.94
791.615	39.6
791.792	38.09
791.969	38.97
792.146	39.65
792.324	39.5
792.501	39.17
792.678	38.88
792.855	38.64
793.032	37.67
793.209	37.31
793.387	38.32
793.564	38.28
793.741	39.63
793.918	37.73
794.095	37.45
794.272	37.98
794.449	37.59
794.626	38.2
794.803	37.79
794.98	36.86
795.157	37.83
795.334	38.37
795.511	37.82
795.688	37.39
795.864	38.89
796.041	39.94
796.218	39.8
796.395	39.96
796.572	39.62
796.749	39.19
796.925	39.88
797.102	38.97
797.279	37.93
797.456	37.69
797.632	36.67
797.809	36.28
797.986	34.93
798.162	34.28
798.339	34.49
798.516	34.56
798.692	34.73
798.869	34.52
799.046	33.61
799.222	34.14
799.399	35.35
799.575	36.84
799.752	37.35
799.928	38.74
800.105	39.4
800.281	39.07
800.458	38.03
800.634	39.33
800.811	38.99
800.987	40.5
801.163	40.52
801.34	40.6
801.516	39.39
801.692	39.07
801.869	38.17
802.045	37.23
802.221	37.46
802.398	38.14
802.574	36.39
802.75	37.16
802.926	37.08
803.103	37.13
803.279	36.98
803.455	37.73
803.631	36.94
803.807	36.9
803.983	39.69
804.16	40.01
804.336	40.45
804.512	40.93
804.688	40.68
804.864	41.05
805.04	40.53
805.216	39.86
805.392	41.08
805.568	42.24
805.744	41.95
805.92	39.56
806.096	39.3
806.272	39.69
806.448	38.86
806.623	38.84
806.799	38.86
806.975	39.92
807.151	41.32
807.327	40.52
807.503	40.18
807.678	40.64
807.854	40.89
808.03	42.11
808.206	40.65
808.381	41.94
808.557	41.71
808.733	41.11
808.908	41.04
809.084	38.63
809.26	38.21
809.435	38.88
809.611	39.58
809.787	40.97
809.962	39.3
810.138	39.13
810.313	38.79
810.489	39.03
810.664	38.17
810.84	37.41
811.015	38.79
811.191	39.03
811.366	37.9
811.542	36.83
811.717	35
811.892	34.86
812.068	35.7
812.243	35.41
812.419	36.72
812.594	36.27
812.769	36.74
812.944	37.54
813.12	38.02
813.295	38.5
813.47	37.35
813.645	38.03
813.821	38.14
813.996	37.88
814.171	38.48
814.346	36.69
814.521	36.99
814.697	36.8
814.872	36.01
815.047	35.42
815.222	34.9
815.397	34.81
815.572	34.71
815.747	35.31
815.922	36.2
816.097	35.21
816.272	35.82
816.447	36.66
816.622	38.44
816.797	39.42
816.972	38.53
817.147	37.97
817.322	39.35
817.496	39.85
817.671	39.32
817.846	38.8
818.021	38.37
818.196	38.71
818.371	38.51
818.545	36.49
818.72	35.91
818.895	36.32
819.069	36.71
819.244	36.73
819.419	36.45
819.594	36.78
819.768	36.05
819.943	36.47
820.117	36.07
820.292	35.18
820.467	35.59
820.641	34.85
820.816	34.03
820.99	33.44
821.165	32.46
821.339	32.01
821.514	31.62
821.688	31.63
821.863	31.35
822.037	31.06
822.212	31.14
822.386	31
822.56	30.83
822.735	30.95
822.909	30.91
823.084	31.12
823.258	30.98
823.432	30.94
823.606	30.87
823.781	30.93
823.955	30.83
824.129	30.83
824.303	30.6
824.478	30.83
824.652	31.18
824.826	31.3
825	31.31
825.174	31.36
825.348	32.23
825.523	32.68
825.697	32.96
825.871	33.63
826.045	33.97
826.219	34.12
826.393	34.07
826.567	33.75
826.741	33.59
826.915	33.81
827.089	33.68
827.263	32.94
827.437	32.24
827.611	32.36
827.784	31.76
827.958	31.31
828.132	31.6
828.306	31.64
828.48	31.86
828.654	32.1
828.827	31.64
829.001	32.53
829.175	33.09
829.349	33.67
829.522	33.28
829.696	33.94
829.87	34.43
830.044	35.16
830.217	35.79
830.391	35.51
830.565	35.73
830.738	36.67
830.912	35.24
831.085	33.74
831.259	35.4
831.432	34.72
831.606	36.42
831.779	35.65
831.953	35.37
832.126	35.04
832.3	35.84
832.473	35.65
832.647	35.74
832.82	36.8
832.994	36.95
833.167	36.46
833.34	36.6
833.514	34.81
833.687	35.17
833.86	34.48
834.034	34.6
834.207	33.73
834.38	34.16
834.553	33.5
834.727	33.22
834.9	33.25
835.073	32.46
835.246	32.62
835.419	33.07
835.593	32.47
835.766	33.01
835.939	33.42
836.112	34.36
836.285	33.84
836.458	34.08
836.631	34.07
836.804	34.49
836.977	34.12
837.15	34.75
837.323	34.37
837.496	35.78
837.669	35.62
837.842	34.16
838.015	33.62
838.188	33.79
838.361	34.67
838.533	35.4
838.706	36.19
838.879	38.41
839.052	38.13
839.225	38.19
839.398	39.32
839.57	38.2
839.743	38.62
839.916	38.34
840.088	36.85
840.261	36.64
840.434	35.56
840.607	34.43
840.779	34.24
840.952	33.85
841.124	34.29
841.297	34.08
841.47	32.97
841.642	32.39
841.815	31.51
841.987	34.45
842.16	33.63
842.332	34.64
842.505	35.82
842.677	35.14
842.85	36.12
843.022	36.81
843.194	35.26
843.367	37.6
843.539	37.15
843.712	38.81
843.884	39.2
844.056	40.94
844.229	41.05
844.401	40.92
844.573	41.65
844.745	42.99
844.918	43.12
845.09	45.14
845.262	42.96
845.434	45.25
845.606	46.36
845.779	44.35
845.951	43.61
846.123	43.41
846.295	44.96
846.467	47.63
846.639	47.31
846.811	48.36
846.983	46.53
847.155	51.61
847.327	51.18
847.499	48.82
847.671	49.54
847.843	52.56
848.015	52.92
848.187	50.9
848.359	48.97
848.531	49.47
848.703	45.97
848.875	47.84
849.047	44.63
849.218	45
849.39	48.37
849.562	49.15
849.734	43.94
849.905	45.47
850.077	50.69
850.249	49.98
850.421	48.1
850.592	55.08
850.764	55.36
850.936	57.88
851.107	57.4
851.279	50.92
851.451	53.2
851.622	60.89
851.794	56.53
851.965	49.62
852.137	47.49
852.308	49.91
852.48	45.52
852.651	45.49
852.823	42.08
852.994	42.71
853.166	48.14
853.337	45.52
853.509	43.73
853.68	43.61
853.851	48.86
854.023	52.72
854.194	48.03
854.365	49.66
854.537	49.3
854.708	51.82
854.879	50.1
855.05	49.32
855.222	44.98
855.393	44.59
855.564	47.46
855.735	39.8
855.906	39.18
856.078	44.07
856.249	50.44
856.42	49.31
856.591	51.54
856.762	52.07
856.933	49.08
857.104	50.13
857.275	49.03
857.446	48.82
857.617	50.43
857.788	49.75
857.959	50.08
858.13	46.29
858.301	47.6
858.472	43.12
858.643	44.46
858.814	48.37
858.985	51.1
859.155	45.31
859.326	48.22
859.497	50.45
859.668	51.47
859.839	51.98
860.009	49.01
860.18	49.41
860.351	48.65
860.522	46.56
860.692	45.86
860.863	45.76
861.034	48.97
861.204	46.2
861.375	48.67
861.546	48.98
861.716	42.6
861.887	43.44
862.057	45.75
862.228	51.6
862.398	55.2
862.569	57.66
862.739	57.53
862.91	58.98
863.08	57.39
863.251	55.38
863.421	57.56
863.592	61.8
863.762	62.39
863.932	56.24
864.103	54.97
864.273	49.94
864.443	45.31
864.614	47.45
864.784	45.94
864.954	47.9
865.125	50.48
865.295	52.31
865.465	50.44
865.635	54.8
865.805	59.2
865.976	56.85
866.146	62.93
866.316	66.04
866.486	63.24
866.656	63.2
866.826	61.01
866.996	57.44
867.166	51.63
867.336	54.06
867.506	46.03
867.676	42.26
867.846	42.41
868.016	38.33
868.186	35.12
868.356	34
868.526	32.95
868.696	33.57
868.866	33.04
869.036	35.11
869.206	34.84
869.376	41.47
869.545	43.98
869.715	45.6
869.885	49.59
870.055	51.49
870.224	53.1
870.394	53.07
870.564	56.86
870.734	60.26
870.903	60.64
871.073	62.43
871.243	60.46
871.412	59.98
871.582	59.86
871.751	54.38
871.921	53.58
872.091	57
872.26	56.09
872.43	53.15
872.599	51.01
872.769	46.15
872.938	46.38
873.108	45.98
873.277	45.05
873.446	44.31
873.616	43.6
873.785	41.33
873.955	36.93
874.124	36.69
874.293	36.62
874.463	37.96
874.632	43.67
874.801	41.49
874.971	42.42
875.14	39.68
875.309	35.32
875.478	38.52
875.647	42.86
875.817	46.05
875.986	51
876.155	45.58
876.324	43.89
876.493	42.46
876.662	45.73
876.831	43.53
877	45.2
877.17	51.54
877.339	48.23
877.508	46.98
877.677	49.14
877.846	47.72
878.015	52.68
878.184	55.58
878.352	53.35
878.521	48.78
878.69	47.71
878.859	48.6
879.028	47.75
879.197	47.34
879.366	47.16
879.534	43.03
879.703	37.89
879.872	37.88
880.041	35.81
880.21	35.74
880.378	35.19
880.547	35.21
880.716	34.96
880.884	33.7
881.053	31.13
881.222	30.13
881.39	30.71
881.559	31.73
881.727	30.63
881.896	30.19
882.065	29.51
882.233	30.33
882.402	29.95
882.57	28.8
882.739	28.5
882.907	29.66
883.076	29.88
883.244	28.81
883.412	29.07
883.581	29.71
883.749	29.56
883.918	29.86
884.086	28.26
884.254	28.88
884.423	30.48
884.591	30.76
884.759	30.52
884.927	31.38
885.096	32.47
885.264	32.21
885.432	31.78
885.6	32.1
885.769	32.58
885.937	33.83
886.105	34.03
886.273	35.06
886.441	34.81
886.609	37.68
886.777	38.04
886.945	40.49
887.113	41.38
887.281	42.21
887.449	42.97
887.617	42.05
887.785	44.8
887.953	44.93
888.121	44.72
888.289	47.52
888.457	47.93
888.625	46.16
888.793	48.32
888.961	44.2
889.129	48.04
889.296	49.83
889.464	54.6
889.632	53.44
889.8	54.95
889.967	50.44
890.135	49.25
