Data from 2938742__Reflection_02.txt Node
Date: Sun Mar 15 12:03:24 EDT 2015
User: robert
Spectrometer: USB4E03002
Autoset integration time: false
Trigger mode: 4
Integration Time (sec): 1.000000E-1
Scans to average: 10
Electric dark correction enabled: false
Nonlinearity correction enabled: false
Boxcar width: 5
Stray light correction enabled: false
XAxis mode: Wavelengths
Stop averaging: false
Number of Pixels in Spectrum: 3648
>>>>>Begin Spectral Data<<<<<
177.575	618
177.794	475.4
178.014	832.22
178.233	927.04
178.452	1185.02
178.672	1800.68
178.891	2125.56
179.11	-6374.42
179.33	-1689.76
179.549	-1440.51
179.768	-2068.53
179.987	-4055.84
180.207	-1170.61
180.426	-6415.38
180.645	-5223.88
180.864	-49457.14
181.084	3173.21
181.303	-16528.57
181.522	1892.23
181.741	1705.14
181.96	2947.97
182.179	835.71
182.398	766.11
182.618	522.51
182.837	539
183.056	499.15
183.275	547.72
183.494	646.18
183.713	524.05
183.932	486.96
184.151	421.01
184.37	399.9
184.589	623
184.808	609.82
185.027	656.82
185.246	689.18
185.465	594
185.684	657.81
185.903	590.35
186.122	542.12
186.341	846.87
186.56	1336.84
186.779	1049.03
186.998	920.06
187.216	1090.07
187.435	2032.48
187.654	1894.64
187.873	6228
188.092	1931.48
188.311	1304.33
188.53	1907.05
188.748	1749.18
188.967	1439.22
189.186	1642.31
189.405	1366.67
189.623	1850.26
189.842	1250.69
190.061	1264.14
190.28	1213.47
190.498	2266.23
190.717	1747.5
190.936	2711.11
191.154	1812.29
191.373	1530.84
191.592	679.47
191.81	567.25
192.029	483.69
192.248	549.28
192.466	757.21
192.685	652.5
192.904	496.49
193.122	744.16
193.341	824.26
193.559	658.25
193.778	716.38
193.996	1611.76
194.215	2572.73
194.433	-12477.78
194.652	3780.68
194.87	2633.85
195.089	4043.02
195.307	6873.58
195.526	2393.04
195.744	4772.73
195.963	-3898.95
196.181	-9181.4
196.399	-8102
196.618	-3236
196.836	-3441.38
197.055	-1561.51
197.273	-1893.69
197.491	-2201.13
197.71	-6883.93
197.928	-3759.18
198.146	-3079.66
198.365	-3298.17
198.583	-6000
198.801	10170.59
199.019	2077.78
199.238	1079.61
199.456	752.38
199.674	1049.35
199.892	1371.49
200.111	1670.47
200.329	1914.62
200.547	722.03
200.765	520.25
200.983	505.08
201.202	493.04
201.42	578.17
201.638	549.32
201.856	655.98
202.074	492.08
202.292	390.08
202.51	461.35
202.728	416.68
202.946	526.12
203.165	656.01
203.383	673.1
203.601	667.7
203.819	632.41
204.037	670.13
204.255	530.39
204.473	413.97
204.691	449.59
204.909	423.39
205.127	448.68
205.345	377.6
205.562	359.72
205.78	484.38
205.998	596.22
206.216	729.63
206.434	715.04
206.652	1058.41
206.87	2903.13
207.088	10558.82
207.306	1685.39
207.523	2339.87
207.741	2651.39
207.959	3078.51
208.177	1165.55
208.395	864.49
208.612	737.57
208.83	849.67
209.048	870.37
209.266	605.98
209.483	609.65
209.701	718.98
209.919	850.12
210.136	629.31
210.354	549.21
210.572	812.44
210.79	750
211.007	577.44
211.225	488.03
211.442	425.57
211.66	453.84
211.878	507.78
212.095	290.48
212.313	250.03
212.53	277.97
212.748	316.21
212.966	275.76
213.183	257.5
213.401	273.52
213.618	277.53
213.836	266.93
214.053	282.36
214.271	260.39
214.488	478.11
214.705	419.7
214.923	439.97
215.14	386.56
215.358	379.82
215.575	437.25
215.793	370.5
216.01	373.7
216.227	345.59
216.445	328.18
216.662	367.66
216.879	354.04
217.097	366.15
217.314	350.94
217.531	314.93
217.749	295.58
217.966	282.58
218.183	334.98
218.4	322.51
218.618	371.16
218.835	385.79
219.052	302.68
219.269	300.82
219.487	314.82
219.704	314.42
219.921	345.68
220.138	337.92
220.355	276.06
220.572	236.26
220.79	226.82
221.007	205.39
221.224	181.85
221.441	179.91
221.658	170.31
221.875	153.75
222.092	143.98
222.309	138.01
222.526	132.54
222.743	130.47
222.96	133.65
223.177	136.25
223.394	138.47
223.611	141.7
223.828	142.41
224.045	133.19
224.262	132.33
224.479	132.62
224.696	127.19
224.913	129.41
225.13	123.63
225.347	112.26
225.564	103.55
225.781	96.35
225.997	93.86
226.214	87.49
226.431	82.96
226.648	77.27
226.865	67.04
227.082	60.73
227.298	52.18
227.515	47.91
227.732	44.53
227.949	40.64
228.165	35.38
228.382	32.78
228.599	30.84
228.816	28.65
229.032	27.1
229.249	26.4
229.466	26.17
229.682	25.57
229.899	24.62
230.116	24.26
230.332	24.64
230.549	27.03
230.765	26.57
230.982	27.76
231.199	28.92
231.415	30.16
231.632	33.45
231.848	35.42
232.065	38.28
232.281	41.04
232.498	43.37
232.714	44.7
232.931	44.74
233.147	45.98
233.364	45.69
233.58	43.49
233.797	43.49
234.013	43.69
234.23	42.1
234.446	41.45
234.662	41.21
234.879	39.89
235.095	40.35
235.312	41.93
235.528	43.42
235.744	43.91
235.961	44.25
236.177	43.72
236.393	41.99
236.61	42.99
236.826	44.96
237.042	46.91
237.258	47.32
237.475	46.81
237.691	44.75
237.907	44.92
238.123	43.87
238.339	45.45
238.556	48.44
238.772	47.17
238.988	45.39
239.204	43.74
239.42	41.35
239.636	39
239.853	36.9
240.069	34.81
240.285	31.03
240.501	29.39
240.717	27.81
240.933	23.94
241.149	22.3
241.365	21.29
241.581	19.71
241.797	18.58
242.013	18.18
242.229	17.33
242.445	16.92
242.661	17.46
242.877	17.49
243.093	17.5
243.309	18.26
243.525	18.64
243.741	19.18
243.957	20.6
244.173	20.82
244.388	20.8
244.604	21.22
244.82	21.55
245.036	19.95
245.252	19.5
245.468	18.35
245.683	17.54
245.899	16.35
246.115	15.2
246.331	13.61
246.547	13.19
246.762	12.88
246.978	12.48
247.194	12.2
247.409	12.3
247.625	11.94
247.841	12.02
248.057	11.69
248.272	12.32
248.488	11.99
248.703	12.21
248.919	12.17
249.135	13.13
249.35	14.29
249.566	15.1
249.782	15.84
249.997	16.83
250.213	16.95
250.428	18.41
250.644	18.43
250.859	19.46
251.075	19.63
251.29	20.36
251.506	19.07
251.721	17.92
251.937	17.41
252.152	16.98
252.368	16.65
252.583	17.49
252.798	17.36
253.014	17.25
253.229	17.32
253.445	18.01
253.66	18.84
253.875	20.64
254.091	21.73
254.306	22.72
254.521	24.65
254.737	25.84
254.952	25.65
255.167	26.57
255.383	26.23
255.598	26.91
255.813	26.2
256.028	24.81
256.244	24.03
256.459	23.33
256.674	22.8
256.889	21.21
257.104	20.71
257.32	20.7
257.535	19.66
257.75	19.15
257.965	17.37
258.18	16.44
258.395	14.7
258.61	13.42
258.826	12.5
259.041	11.64
259.256	10.92
259.471	10.52
259.686	9.81
259.901	9.23
260.116	9.08
260.331	9.08
260.546	9.06
260.761	9.67
260.976	9.64
261.191	9.81
261.406	10.28
261.621	11.07
261.836	11.34
262.05	12.02
262.265	13.33
262.48	14.02
262.695	14.58
262.91	15.51
263.125	15.81
263.34	17.21
263.555	18.42
263.769	18.76
263.984	19.23
264.199	19.82
264.414	19.9
264.629	18.98
264.843	18.81
265.058	19.55
265.273	19.18
265.488	18.69
265.702	17.93
265.917	17.31
266.132	16.41
266.346	16.2
266.561	15.71
266.776	15.51
266.99	15.37
267.205	14.9
267.42	14.26
267.634	14.01
267.849	13.89
268.063	14.16
268.278	13.9
268.492	14.38
268.707	14.11
268.922	13.87
269.136	13.37
269.351	13.77
269.565	13.87
269.78	13.58
269.994	13.3
270.209	13.45
270.423	12.58
270.637	12.39
270.852	11.76
271.066	11.27
271.281	11.26
271.495	10.98
271.709	10.57
271.924	10.63
272.138	10.82
272.353	10.9
272.567	10.85
272.781	11.08
272.996	11.03
273.21	11.36
273.424	11.86
273.638	12.02
273.853	12.92
274.067	13.11
274.281	13.2
274.495	12.94
274.71	13.29
274.924	13.22
275.138	13.28
275.352	13.8
275.566	14.39
275.781	13.81
275.995	13.7
276.209	13.23
276.423	12.97
276.637	12.84
276.851	13
277.065	12.34
277.279	12.45
277.493	12.63
277.707	12.48
277.921	12.12
278.135	12.87
278.349	12.77
278.563	12.92
278.777	13.44
278.991	13.35
279.205	13.54
279.419	13.88
279.633	14.26
279.847	13.89
280.061	13.92
280.275	13.35
280.489	12.76
280.703	12.8
280.917	12.7
281.131	12.2
281.344	12.11
281.558	11.65
281.772	11.82
281.986	11.52
282.2	11.52
282.414	11.52
282.627	11.61
282.841	11.63
283.055	11.6
283.269	11.71
283.482	11.57
283.696	11.51
283.91	11.52
284.123	10.77
284.337	10.3
284.551	10.11
284.764	9.48
284.978	9.38
285.192	9.15
285.405	9.14
285.619	8.78
285.833	8.82
286.046	8.88
286.26	8.77
286.473	9.27
286.687	9.24
286.9	9.51
287.114	9.73
287.327	9.99
287.541	10.3
287.754	10.19
287.968	10.39
288.181	10.4
288.395	10.1
288.608	10.45
288.822	9.95
289.035	10.15
289.248	10.24
289.462	10.09
289.675	9.91
289.889	9.62
290.102	9.16
290.315	9.47
290.529	9.66
290.742	9.8
290.955	9.88
291.169	10.24
291.382	10.57
291.595	10.34
291.808	10.34
292.022	11.13
292.235	11.35
292.448	11.73
292.661	11.26
292.875	11.33
293.088	11.39
293.301	11.04
293.514	10.69
293.727	10.63
293.94	10.92
294.153	11.18
294.367	10.5
294.58	10.41
294.793	10.38
295.006	10.41
295.219	10.05
295.432	9.82
295.645	9.76
295.858	9.78
296.071	9.65
296.284	9.11
296.497	8.91
296.71	8.75
296.923	8.58
297.136	8.57
297.349	8.47
297.562	8.38
297.775	8.03
297.988	8.19
298.201	8.45
298.414	8.47
298.626	9.03
298.839	8.92
299.052	8.97
299.265	9.37
299.478	9.26
299.691	9.6
299.903	10
300.116	10.76
300.329	10.8
300.542	10.52
300.755	10.69
300.967	10.45
301.18	10.73
301.393	10.52
301.605	10.51
301.818	10.93
302.031	11.09
302.243	11.36
302.456	11.42
302.669	11.5
302.881	11.92
303.094	11.67
303.307	11.41
303.519	11.76
303.732	11.91
303.944	11.67
304.157	11.98
304.37	11.48
304.582	11.46
304.795	11.48
305.007	11.37
305.22	11.38
305.432	11.94
305.645	11.92
305.857	12.08
306.069	12.41
306.282	12.44
306.494	11.8
306.707	12.33
306.919	12.45
307.132	11.79
307.344	11.43
307.556	11.15
307.769	11.04
307.981	11.38
308.193	10.93
308.406	10.58
308.618	10.19
308.83	10.28
309.043	10.28
309.255	9.8
309.467	10.14
309.679	10.57
309.892	10.53
310.104	10.26
310.316	10.16
310.528	10.08
310.74	10.18
310.953	10.58
311.165	10.7
311.377	10.46
311.589	10.59
311.801	10.71
312.013	10.74
312.225	10.88
312.437	11.39
312.649	11.31
312.862	11.46
313.074	11.86
313.286	12.12
313.498	12.08
313.71	12.41
313.922	12.46
314.134	12.88
314.346	13.36
314.558	13.64
314.77	13.13
314.982	13.41
315.193	13.59
315.405	13.38
315.617	13.02
315.829	13.11
316.041	12.97
316.253	12.91
316.465	12.89
316.677	12.35
316.888	12.59
317.1	12.75
317.312	13.34
317.524	13.44
317.736	13.82
317.947	14.42
318.159	14.72
318.371	14.64
318.583	15.19
318.794	15.28
319.006	15.27
319.218	15.06
319.43	15.56
319.641	15.25
319.853	15.9
320.064	16.19
320.276	16.46
320.488	16.62
320.699	17.54
320.911	17.72
321.123	17.49
321.334	18.18
321.546	18.19
321.757	17.71
321.969	18.18
322.18	17.88
322.392	17.55
322.603	17.13
322.815	17.41
323.026	16.92
323.238	16.69
323.449	17.18
323.661	16.93
323.872	16.91
324.083	16.84
324.295	16.66
324.506	16.82
324.718	16.92
324.929	17.25
325.14	17.26
325.352	17.66
325.563	17.94
325.774	17.6
325.986	17.81
326.197	18.07
326.408	18.7
326.62	18.77
326.831	18.83
327.042	19.08
327.253	19.79
327.464	20.29
327.676	20.6
327.887	20.93
328.098	21.61
328.309	22.47
328.52	22.98
328.732	23.45
328.943	24.2
329.154	24.63
329.365	24.91
329.576	24.9
329.787	25.1
329.998	25.64
330.209	26.43
330.42	26.72
330.631	26.25
330.842	26.21
331.053	26.65
331.264	26.93
331.475	27.23
331.686	27.6
331.897	27.88
332.108	27.69
332.319	27.66
332.53	27.21
332.741	27.38
332.952	28.04
333.163	28.12
333.374	27.47
333.585	27.36
333.795	27.86
334.006	28.26
334.217	28.4
334.428	28.82
334.639	28.99
334.849	29.23
335.06	29.44
335.271	29.73
335.482	30.57
335.692	30.91
335.903	31.11
336.114	30.92
336.325	30.7
336.535	30.71
336.746	30.6
336.957	30.41
337.167	30.57
337.378	30.55
337.589	30.41
337.799	29.75
338.01	29.94
338.22	29.8
338.431	29.73
338.642	29.68
338.852	29.74
339.063	29.81
339.273	29.61
339.484	29.35
339.694	29.61
339.905	29.52
340.115	29.8
340.326	30.02
340.536	30.17
340.746	30.03
340.957	30.26
341.167	30.17
341.378	29.93
341.588	29.97
341.799	30.17
342.009	29.56
342.219	29.21
342.43	29.11
342.64	28.93
342.85	28.62
343.061	28.44
343.271	28.41
343.481	28.43
343.691	28.7
343.902	28.72
344.112	28.66
344.322	28.99
344.532	29.11
344.743	29.16
344.953	29.21
345.163	29.41
345.373	29.72
345.583	29.52
345.793	29.3
346.004	28.91
346.214	29.26
346.424	28.83
346.634	28.93
346.844	29.09
347.054	28.99
347.264	28.74
347.474	28.88
347.684	28.77
347.894	28.93
348.104	28.98
348.314	29.62
348.524	29.63
348.734	29.77
348.944	29.88
349.154	29.71
349.364	29.52
349.574	29.31
349.784	29.05
349.994	28.97
350.204	28.59
350.413	28.71
350.623	28.43
350.833	28.21
351.043	28.18
351.253	27.91
351.463	27.92
351.672	27.96
351.882	28.06
352.092	27.84
352.302	27.98
352.511	28.31
352.721	28.14
352.931	28.01
353.141	27.94
353.35	27.88
353.56	27.69
353.77	27.82
353.979	27.57
354.189	27.88
354.399	27.95
354.608	27.85
354.818	27.55
355.027	27.57
355.237	27.53
355.447	27.33
355.656	27.51
355.866	27.36
356.075	27.35
356.285	27.45
356.494	27
356.704	26.98
356.913	26.7
357.123	26.62
357.332	26.39
357.542	26.42
357.751	26.53
357.96	26.38
358.17	26.36
358.379	25.86
358.589	26.17
358.798	26.22
359.007	26.16
359.217	26.2
359.426	26.41
359.635	26.53
359.845	26.12
360.054	25.89
360.263	25.86
360.472	25.74
360.682	25.92
360.891	25.59
361.1	25.38
361.309	25.32
361.519	25.19
361.728	24.99
361.937	25.03
362.146	25.21
362.355	25.29
362.564	25.48
362.774	25.36
362.983	25.28
363.192	25.14
363.401	25.14
363.61	24.92
363.819	25.09
364.028	25.1
364.237	25.03
364.446	24.88
364.655	24.75
364.864	24.72
365.073	25.13
365.282	25.35
365.491	25.58
365.7	25.65
365.909	25.91
366.118	26.13
366.327	26.03
366.536	26.09
366.745	26.16
366.954	26.39
367.162	26.19
367.371	25.84
367.58	25.76
367.789	25.35
367.998	25.36
368.207	25.43
368.415	25.29
368.624	25.16
368.833	25.09
369.042	25.11
369.25	25.26
369.459	25.57
369.668	25.98
369.877	25.81
370.085	26.19
370.294	26.15
370.503	25.87
370.711	25.81
370.92	26.03
371.129	25.94
371.337	25.96
371.546	25.72
371.754	25.56
371.963	25.28
372.171	25.27
372.38	25.42
372.589	25.49
372.797	25.7
373.006	25.47
373.214	25.3
373.423	25.14
373.631	25.07
373.84	25
374.048	25.02
374.256	25.14
374.465	25.14
374.673	25.12
374.882	25.16
375.09	25.2
375.298	25.41
375.507	25.66
375.715	25.75
375.923	25.73
376.132	25.81
376.34	25.6
376.548	25.44
376.757	25.28
376.965	24.97
377.173	24.95
377.381	24.81
377.59	24.71
377.798	24.39
378.006	24.09
378.214	24.13
378.423	23.86
378.631	23.77
378.839	23.7
379.047	23.82
379.255	24.15
379.463	24.06
379.671	24.01
379.879	24.1
380.088	24.22
380.296	24.38
380.504	24.16
380.712	24.41
380.92	24.45
381.128	24.77
381.336	24.64
381.544	24.29
381.752	24.56
381.96	24.74
382.168	24.47
382.376	24.49
382.584	24.7
382.791	24.98
382.999	24.76
383.207	24.75
383.415	24.65
383.623	24.58
383.831	24.59
384.039	24.33
384.247	24.24
384.454	24.36
384.662	24.62
384.87	24.6
385.078	24.21
385.285	24.29
385.493	24.31
385.701	24.05
385.909	24.29
386.116	24.12
386.324	24.17
386.532	24.15
386.739	24.25
386.947	24.16
387.155	24.26
387.362	24.19
387.57	24.11
387.778	24.15
387.985	24.41
388.193	24.41
388.4	24.72
388.608	24.89
388.816	24.89
389.023	24.71
389.231	24.63
389.438	24.53
389.646	24.9
389.853	24.9
390.061	24.96
390.268	24.89
390.475	24.71
390.683	24.66
390.89	24.51
391.098	24.65
391.305	24.76
391.512	24.54
391.72	24.52
391.927	24.39
392.135	24.24
392.342	24.14
392.549	23.93
392.756	23.89
392.964	23.61
393.171	23.75
393.378	23.31
393.586	23.31
393.793	23.5
394	23.35
394.207	23.4
394.414	23.51
394.622	23.46
394.829	23.67
395.036	23.58
395.243	23.76
395.45	23.52
395.657	23.67
395.864	23.7
396.072	23.51
396.279	23.56
396.486	23.73
396.693	23.9
396.9	23.92
397.107	23.91
397.314	24.28
397.521	24.17
397.728	24.46
397.935	24.65
398.142	24.53
398.349	24.57
398.556	24.53
398.763	24.43
398.97	24.3
399.177	24.05
399.383	23.96
399.59	23.83
399.797	23.95
400.004	23.74
400.211	23.59
400.418	23.72
400.625	23.69
400.831	23.87
401.038	23.88
401.245	23.82
401.452	24.29
401.658	24.29
401.865	24.33
402.072	24.36
402.279	24.3
402.485	24.5
402.692	24.28
402.899	24.3
403.105	24.23
403.312	24.24
403.519	24.29
403.725	23.9
403.932	23.89
404.138	23.72
404.345	23.66
404.552	23.6
404.758	23.45
404.965	23.61
405.171	23.62
405.378	23.64
405.584	23.57
405.791	23.49
405.997	23.67
406.204	23.7
406.41	23.77
406.617	24.06
406.823	24.29
407.029	24.32
407.236	24.34
407.442	24.43
407.649	24.36
407.855	24.46
408.061	24.66
408.268	24.57
408.474	24.71
408.68	24.8
408.887	24.61
409.093	24.52
409.299	24.48
409.505	24.22
409.712	24.03
409.918	23.96
410.124	24.02
410.33	23.83
410.537	24.06
410.743	24.09
410.949	24.05
411.155	24.1
411.361	24.11
411.567	24.21
411.773	24.47
411.98	24.36
412.186	24.41
412.392	24.25
412.598	24.5
412.804	24.41
413.01	24.31
413.216	24.31
413.422	24.27
413.628	24.41
413.834	24.54
414.04	24.44
414.246	24.61
414.452	24.7
414.658	24.91
414.864	24.85
415.07	24.87
415.275	24.94
415.481	24.92
415.687	24.94
415.893	24.76
416.099	24.54
416.305	24.55
416.511	24.5
416.716	24.34
416.922	24.18
417.128	23.93
417.334	23.8
417.539	23.62
417.745	23.54
417.951	23.43
418.157	23.41
418.362	23.41
418.568	23.41
418.774	23.38
418.979	23.44
419.185	23.32
419.391	23.38
419.596	23.36
419.802	23.38
420.008	23.38
420.213	22.73
420.419	22.72
420.624	22.66
420.83	22.65
421.035	22.66
421.241	22.6
421.446	22.54
421.652	22.55
421.857	22.51
422.063	22.42
422.268	22.4
422.474	22.95
422.679	22.9
422.885	23.01
423.09	22.94
423.295	22.86
423.501	22.99
423.706	23.14
423.911	23.13
424.117	23.16
424.322	23.24
424.527	23.21
424.733	23.27
424.938	23.47
425.143	23.31
425.349	23.24
425.554	23.3
425.759	23.28
425.964	23.37
426.169	23.35
426.375	23.34
426.58	23.47
426.785	23.58
426.99	23.66
427.195	23.67
427.4	24.03
427.605	24.39
427.811	24.58
428.016	24.51
428.221	24.4
428.426	24.57
428.631	24.78
428.836	24.62
429.041	24.65
429.246	24.66
429.451	24.72
429.656	24.67
429.861	24.54
430.066	24.59
430.271	24.66
430.476	24.82
430.681	24.79
430.886	24.86
431.09	25.02
431.295	25.05
431.5	25.03
431.705	24.83
431.91	24.72
432.115	24.75
432.32	24.73
432.524	24.69
432.729	24.66
432.934	24.62
433.139	24.5
433.343	24.38
433.548	24.35
433.753	24.27
433.958	24.31
434.162	24.32
434.367	24.31
434.572	24.33
434.776	24.31
434.981	24.3
435.186	24.35
435.39	24.41
435.595	24.55
435.799	24.6
436.004	24.81
436.209	24.96
436.413	24.96
436.618	24.94
436.822	25.03
437.027	25.21
437.231	25.13
437.436	25.1
437.64	24.97
437.845	24.96
438.049	24.93
438.253	24.84
438.458	24.62
438.662	24.52
438.867	24.53
439.071	24.41
439.275	24.22
439.48	24.23
439.684	24.23
439.888	24.29
440.093	24.3
440.297	24.22
440.501	24.09
440.706	24.13
440.91	24.12
441.114	24.09
441.318	24.1
441.523	24.2
441.727	24.31
441.931	24.32
442.135	24.3
442.339	24.27
442.543	24.39
442.748	24.53
442.952	24.52
443.156	24.62
443.36	24.61
443.564	24.56
443.768	24.51
443.972	24.42
444.176	24.32
444.38	24.29
444.584	24.15
444.788	24.07
444.992	24.05
445.196	24.09
445.4	24.05
445.604	24.02
445.808	23.99
446.012	23.93
446.216	23.91
446.42	23.93
446.624	24
446.828	24.07
447.032	24.11
447.235	24.03
447.439	24.05
447.643	24.04
447.847	24.06
448.051	24.08
448.254	24.07
448.458	24.05
448.662	24.14
448.866	24.07
449.069	24.07
449.273	24.06
449.477	24.14
449.681	24.02
449.884	24.12
450.088	24.17
450.292	24.18
450.495	24.38
450.699	24.36
450.902	24.32
451.106	24.32
451.31	24.34
451.513	24.43
451.717	24.37
451.92	24.51
452.124	24.5
452.327	24.46
452.531	24.47
452.734	24.43
452.938	24.49
453.141	24.5
453.345	24.52
453.548	24.61
453.752	24.52
453.955	24.75
454.158	24.77
454.362	24.71
454.565	24.8
454.769	24.93
454.972	24.97
455.175	25.17
455.379	25.17
455.582	25.21
455.785	25.19
455.988	25.13
456.192	25
456.395	24.91
456.598	24.98
456.801	24.91
457.005	24.8
457.208	24.74
457.411	24.51
457.614	24.43
457.817	24.35
458.021	24.14
458.224	24.13
458.427	24.01
458.63	24.01
458.833	24.04
459.036	23.99
459.239	24
459.442	23.95
459.645	24.05
459.848	24.1
460.051	24.15
460.254	24.2
460.457	24.27
460.66	24.36
460.863	24.48
461.066	24.4
461.269	24.51
461.472	24.6
461.675	24.61
461.878	24.55
462.081	24.6
462.284	24.49
462.486	24.59
462.689	24.68
462.892	24.8
463.095	24.81
463.298	24.92
463.5	24.91
463.703	24.84
463.906	24.91
464.109	25.01
464.311	24.98
464.514	25.18
464.717	25.26
464.92	25.21
465.122	25.11
465.325	25.07
465.528	25.15
465.73	25.31
465.933	25.31
466.135	25.32
466.338	25.34
466.541	25.43
466.743	25.33
466.946	25.21
467.148	25.17
467.351	25.17
467.553	25.07
467.756	25.01
467.958	24.89
468.161	24.93
468.363	25.04
468.566	24.92
468.768	24.94
468.971	24.93
469.173	25.13
469.375	25.04
469.578	25.02
469.78	25.21
469.983	25.21
470.185	25.2
470.387	25.23
470.59	25.19
470.792	25.39
470.994	25.31
471.196	25.44
471.399	25.17
471.601	25.25
471.803	25.28
472.005	25.19
472.208	25.14
472.41	25.17
472.612	25.23
472.814	25.26
473.016	25.15
473.218	25.19
473.421	25.04
473.623	25.21
473.825	25.27
474.027	25.34
474.229	25.37
474.431	25.48
474.633	25.43
474.835	25.41
475.037	25.31
475.239	25.34
475.441	25.37
475.643	25.47
475.845	25.47
476.047	25.46
476.249	25.53
476.451	25.49
476.653	25.36
476.855	25.24
477.057	25.11
477.258	25.07
477.46	25.09
477.662	25.08
477.864	25.02
478.066	24.88
478.268	24.87
478.469	24.75
478.671	24.75
478.873	24.7
479.075	24.74
479.276	24.78
479.478	24.76
479.68	24.65
479.882	24.64
480.083	24.7
480.285	24.76
480.487	24.63
480.688	24.61
480.89	24.59
481.091	24.63
481.293	24.63
481.495	24.53
481.696	24.51
481.898	24.38
482.099	24.25
482.301	24.06
482.502	23.97
482.704	23.9
482.905	23.81
483.107	23.67
483.308	23.61
483.51	23.56
483.711	23.52
483.913	23.49
484.114	23.47
484.315	23.44
484.517	23.46
484.718	23.43
484.92	23.46
485.121	23.49
485.322	23.53
485.524	23.55
485.725	23.6
485.926	23.63
486.127	23.64
486.329	23.63
486.53	23.68
486.731	23.71
486.932	23.76
487.134	23.77
487.335	23.74
487.536	23.75
487.737	23.7
487.938	23.66
488.139	23.65
488.341	23.64
488.542	23.7
488.743	23.7
488.944	23.67
489.145	23.69
489.346	23.69
489.547	23.72
489.748	23.75
489.949	23.8
490.15	23.8
490.351	23.81
490.552	23.85
490.753	23.84
490.954	23.87
491.155	23.87
491.356	23.88
491.557	23.86
491.758	23.9
491.959	23.9
492.159	23.96
492.36	24.01
492.561	24.1
492.762	24.13
492.963	24.1
493.164	24.13
493.364	24.21
493.565	24.17
493.766	24.16
493.967	24.24
494.167	24.38
494.368	24.33
494.569	24.41
494.769	24.36
494.97	24.38
495.171	24.51
495.371	24.48
495.572	24.6
495.773	24.8
495.973	24.94
496.174	24.88
496.375	24.82
496.575	24.88
496.776	24.85
496.976	24.9
497.177	24.93
497.377	24.96
497.578	24.99
497.778	24.87
497.979	24.83
498.179	24.87
498.38	24.92
498.58	25.02
498.78	25.08
498.981	25.16
499.181	25.12
499.382	25.13
499.582	25.2
499.782	25.28
499.983	25.44
500.183	25.51
500.383	25.55
500.584	25.59
500.784	25.5
500.984	25.51
501.184	25.54
501.385	25.6
501.585	25.66
501.785	25.61
501.985	25.67
502.185	25.69
502.386	25.67
502.586	25.67
502.786	25.77
502.986	25.73
503.186	25.75
503.386	25.79
503.586	25.88
503.786	25.86
503.987	25.87
504.187	25.87
504.387	25.82
504.587	25.85
504.787	25.95
504.987	25.9
505.187	26.02
505.387	25.97
505.587	25.97
505.786	25.98
505.986	26.13
506.186	26.24
506.386	26.4
506.586	26.53
506.786	26.57
506.986	26.51
507.186	26.48
507.386	26.45
507.585	26.56
507.785	26.6
507.985	26.65
508.185	26.67
508.384	26.67
508.584	26.57
508.784	26.44
508.984	26.47
509.183	26.5
509.383	26.59
509.583	26.62
509.782	26.72
509.982	26.73
510.182	26.84
510.381	26.8
510.581	26.8
510.781	26.77
510.98	26.81
511.18	26.83
511.379	26.86
511.579	26.87
511.778	26.95
511.978	26.87
512.177	26.95
512.377	26.86
512.576	26.95
512.776	27.04
512.975	27.2
513.175	27.3
513.374	27.4
513.573	27.45
513.773	27.47
513.972	27.5
514.172	27.53
514.371	27.58
514.57	27.74
514.77	27.83
514.969	27.89
515.168	27.93
515.367	27.91
515.567	27.94
515.766	28
515.965	28.1
516.164	28.05
516.364	28.1
516.563	28.07
516.762	27.95
516.961	27.89
517.16	27.85
517.359	27.75
517.559	27.82
517.758	27.77
517.957	27.78
518.156	27.83
518.355	27.98
518.554	28.04
518.753	28.11
518.952	28.17
519.151	28.21
519.35	28.27
519.549	28.32
519.748	28.36
519.947	28.36
520.146	28.38
520.345	28.39
520.544	28.36
520.743	28.35
520.942	28.37
521.141	28.5
521.339	28.63
521.538	28.66
521.737	28.79
521.936	28.85
522.135	28.97
522.333	29.1
522.532	29.16
522.731	29.16
522.93	29.34
523.129	29.37
523.327	29.32
523.526	29.31
523.725	29.39
523.923	29.42
524.122	29.35
524.321	29.43
524.519	29.41
524.718	29.46
524.917	29.54
525.115	29.41
525.314	29.47
525.512	29.58
525.711	29.56
525.909	29.58
526.108	29.62
526.306	29.72
526.505	29.71
526.703	29.7
526.902	29.66
527.1	29.62
527.299	29.75
527.497	29.72
527.696	29.63
527.894	29.64
528.092	29.64
528.291	29.61
528.489	29.62
528.688	29.6
528.886	29.67
529.084	29.72
529.283	29.78
529.481	29.74
529.679	29.77
529.877	29.82
530.076	29.84
530.274	29.91
530.472	30.02
530.67	30.1
530.869	30.18
531.067	30.24
531.265	30.31
531.463	30.37
531.661	30.47
531.859	30.55
532.057	30.63
532.255	30.72
532.454	30.75
532.652	30.78
532.85	30.77
533.048	30.87
533.246	30.85
533.444	30.91
533.642	30.93
533.84	31
534.038	31.01
534.236	31.07
534.434	31.16
534.632	31.24
534.83	31.29
535.027	31.39
535.225	31.5
535.423	31.56
535.621	31.56
535.819	31.7
536.017	31.72
536.215	31.79
536.412	31.81
536.61	31.77
536.808	31.72
537.006	31.76
537.203	31.86
537.401	31.83
537.599	31.87
537.797	31.93
537.994	31.96
538.192	32.05
538.39	32.11
538.587	32.23
538.785	32.37
538.983	32.5
539.18	32.64
539.378	32.61
539.575	32.76
539.773	32.83
539.97	32.9
540.168	32.9
540.366	32.89
540.563	32.97
540.761	32.96
540.958	32.95
541.155	32.96
541.353	32.95
541.55	32.97
541.748	32.93
541.945	32.94
542.143	32.93
542.34	32.98
542.537	33.03
542.735	33.06
542.932	33.12
543.129	33.16
543.327	33.26
543.524	33.37
543.721	33.5
543.919	33.62
544.116	33.78
544.313	33.94
544.51	34.12
544.708	34.26
544.905	34.41
545.102	34.65
545.299	34.88
545.496	34.95
545.693	35
545.891	34.98
546.088	35.07
546.285	35
546.482	35
546.679	34.97
546.876	34.96
547.073	34.94
547.27	34.78
547.467	34.74
547.664	34.75
547.861	34.84
548.058	34.87
548.255	34.86
548.452	35
548.649	35.16
548.846	35.13
549.043	35.21
549.24	35.3
549.437	35.42
549.633	35.48
549.83	35.63
550.027	35.7
550.224	35.82
550.421	35.75
550.618	35.69
550.814	35.68
551.011	35.75
551.208	35.74
551.405	35.77
551.601	35.88
551.798	35.98
551.995	35.89
552.191	35.85
552.388	35.83
552.585	35.98
552.781	36.08
552.978	36.09
553.175	36.05
553.371	35.99
553.568	35.94
553.764	35.9
553.961	35.83
554.157	35.73
554.354	35.69
554.55	35.74
554.747	35.72
554.943	35.89
555.14	36
555.336	36.13
555.533	36.23
555.729	36.32
555.926	36.31
556.122	36.32
556.318	36.63
556.515	36.79
556.711	36.77
556.907	36.81
557.104	36.74
557.3	36.58
557.496	36.54
557.693	36.66
557.889	36.8
558.085	36.86
558.281	36.95
558.478	36.92
558.674	36.79
558.87	36.99
559.066	37.03
559.262	36.98
559.459	37.05
559.655	37.16
559.851	37.24
560.047	37.28
560.243	37.59
560.439	37.47
560.635	37.51
560.831	37.63
561.027	37.54
561.223	37.44
561.419	37.45
561.615	37.51
561.811	37.63
562.007	37.6
562.203	37.52
562.399	37.28
562.595	37.44
562.791	37.52
562.987	37.63
563.183	37.57
563.379	37.9
563.575	37.93
563.771	37.95
563.966	37.8
564.162	37.78
564.358	37.79
564.554	37.72
564.75	37.58
564.945	37.33
565.141	37.2
565.337	37.35
565.533	37.11
565.728	37.1
565.924	37.06
566.12	37.02
566.315	37.02
566.511	36.96
566.707	37.03
566.902	37.14
567.098	37.25
567.293	37.18
567.489	37.14
567.684	37.26
567.88	37.35
568.076	37.47
568.271	37.55
568.467	37.54
568.662	37.51
568.858	37.41
569.053	37.56
569.248	37.62
569.444	37.77
569.639	37.75
569.835	37.78
570.03	37.82
570.225	37.8
570.421	37.89
570.616	37.87
570.812	37.92
571.007	37.94
571.202	37.75
571.397	37.76
571.593	37.72
571.788	37.73
571.983	37.6
572.178	37.54
572.374	37.45
572.569	37.29
572.764	37.29
572.959	37.43
573.154	37.62
573.35	37.68
573.545	37.73
573.74	37.76
573.935	37.84
574.13	37.95
574.325	38
574.52	38.16
574.715	38.25
574.91	38.3
575.105	38.33
575.3	38.38
575.495	38.54
575.69	38.56
575.885	38.66
576.08	38.59
576.275	38.66
576.47	38.72
576.665	38.79
576.86	39.04
577.055	39.17
577.25	39.11
577.444	38.95
577.639	39.01
577.834	38.92
578.029	39.09
578.224	39.12
578.418	39.16
578.613	39.29
578.808	39.31
579.003	39.32
579.197	39.35
579.392	39.34
579.587	39.55
579.781	39.5
579.976	39.82
580.171	39.64
580.365	39.75
580.56	39.98
580.755	39.94
580.949	39.99
581.144	40.04
581.338	40
581.533	40.24
581.727	40.15
581.922	40.22
582.116	40.21
582.311	40.46
582.505	40.54
582.7	40.45
582.894	40.51
583.089	40.56
583.283	40.53
583.478	40.56
583.672	40.58
583.866	40.81
584.061	40.75
584.255	40.69
584.449	40.56
584.644	40.67
584.838	40.68
585.032	40.6
585.226	40.57
585.421	40.67
585.615	40.72
585.809	40.74
586.003	40.77
586.198	40.85
586.392	40.92
586.586	40.9
586.78	40.83
586.974	40.85
587.168	41
587.363	40.84
587.557	40.72
587.751	40.85
587.945	40.83
588.139	40.92
588.333	40.89
588.527	40.79
588.721	40.86
588.915	40.91
589.109	40.86
589.303	40.88
589.497	41.07
589.691	41.02
589.885	40.89
590.079	40.78
590.273	40.57
590.466	40.67
590.66	40.68
590.854	40.77
591.048	40.76
591.242	40.83
591.436	40.8
591.629	40.82
591.823	40.86
592.017	40.91
592.211	40.93
592.404	41.09
592.598	41.09
592.792	41.18
592.986	41.23
593.179	41.15
593.373	41.13
593.567	41.16
593.76	41.18
593.954	41.12
594.147	41.13
594.341	41.25
594.535	41.28
594.728	41.27
594.922	41.17
595.115	41.1
595.309	41.16
595.502	41.14
595.696	41.05
595.889	40.92
596.083	40.86
596.276	40.82
596.47	40.71
596.663	40.52
596.856	40.35
597.05	40.3
597.243	40.32
597.437	40.22
597.63	40.19
597.823	40.11
598.017	40.2
598.21	40.31
598.403	40.46
598.596	40.52
598.79	40.64
598.983	40.83
599.176	40.96
599.369	40.98
599.563	41.13
599.756	41.27
599.949	41.42
600.142	41.57
600.335	41.48
600.528	41.31
600.722	41.42
600.915	41.35
601.108	41.2
601.301	41.29
601.494	41.19
601.687	41.24
601.88	41.18
602.073	40.92
602.266	40.65
602.459	40.74
602.652	40.69
602.845	40.7
603.038	40.77
603.231	40.82
603.424	40.86
603.617	40.84
603.809	40.75
604.002	40.71
604.195	40.86
604.388	40.81
604.581	40.8
604.774	40.8
604.966	40.77
605.159	40.63
605.352	40.56
605.545	40.48
605.737	40.61
605.93	40.76
606.123	40.8
606.316	40.96
606.508	41.31
606.701	41.43
606.894	41.57
607.086	41.61
607.279	41.89
607.471	42.1
607.664	42.29
607.857	42.33
608.049	42.6
608.242	42.93
608.434	43.18
608.627	43.39
608.819	43.65
609.012	44.21
609.204	44.7
609.397	45.32
609.589	46.03
609.782	46.58
609.974	47.45
610.166	48.13
610.359	48.87
610.551	49.59
610.743	50.26
610.936	50.81
611.128	51.19
611.32	51.52
611.513	51.69
611.705	51.74
611.897	51.87
612.09	51.46
612.282	51.14
612.474	50.82
612.666	50.35
612.858	49.91
613.051	49.83
613.243	49.46
613.435	49.2
613.627	48.86
613.819	48.71
614.011	48.76
614.203	48.64
614.395	48.42
614.588	48.15
614.78	47.89
614.972	47.76
615.164	47.45
615.356	47.15
615.548	47.01
615.74	46.89
615.932	46.5
616.124	45.88
616.315	45.71
616.507	45.42
616.699	45.35
616.891	45.29
617.083	45.09
617.275	44.97
617.467	44.82
617.659	44.79
617.85	44.49
618.042	44.45
618.234	44.31
618.426	44.06
618.618	44.09
618.809	43.93
619.001	43.76
619.193	43.82
619.384	43.72
619.576	43.84
619.768	43.86
619.959	44.21
620.151	44.11
620.343	44.3
620.534	44.12
620.726	44.17
620.917	44.15
621.109	44.42
621.301	44.3
621.492	44.38
621.684	44.48
621.875	44.51
622.067	44.29
622.258	44.44
622.45	44.46
622.641	44.75
622.832	44.82
623.024	44.83
623.215	44.64
623.407	44.55
623.598	44.38
623.789	44.32
623.981	44.2
624.172	44.3
624.363	44.26
624.555	44.32
624.746	44.13
624.937	43.91
625.129	43.97
625.32	44.12
625.511	44.3
625.702	44.44
625.893	44.42
626.085	44.37
626.276	44.05
626.467	43.96
626.658	43.81
626.849	43.91
627.04	43.97
627.231	44.01
627.422	43.88
627.614	43.67
627.805	43.78
627.996	43.64
628.187	43.58
628.378	43.89
628.569	44.06
628.76	44.27
628.951	44.19
629.142	44.38
629.332	44.36
629.523	44.57
629.714	44.95
629.905	44.96
630.096	45.1
630.287	45.34
630.478	45.39
630.669	45.47
630.859	45.43
631.05	45.74
631.241	45.76
631.432	45.69
631.623	45.54
631.813	45.26
632.004	45.09
632.195	44.99
632.385	44.94
632.576	44.81
632.767	44.63
632.957	44.48
633.148	44.4
633.339	44
633.529	44.06
633.72	43.96
633.91	43.88
634.101	43.82
634.292	43.95
634.482	43.63
634.673	43.56
634.863	43.55
635.054	43.61
635.244	43.43
635.435	43.53
635.625	43.33
635.815	43.43
636.006	43.39
636.196	43.4
636.387	43.41
636.577	43.42
636.767	43.55
636.958	43.45
637.148	43.5
637.338	43.64
637.529	43.72
637.719	43.73
637.909	43.6
638.099	43.55
638.29	43.65
638.48	43.58
638.67	43.68
638.86	43.48
639.05	43.5
639.241	43.68
639.431	43.84
639.621	43.85
639.811	44.05
640.001	44.07
640.191	44.2
640.381	44.17
640.571	44.07
640.761	44.18
640.951	44.39
641.141	44.46
641.331	44.1
641.521	44.12
641.711	44.34
641.901	44.19
642.091	44.45
642.281	44.7
642.471	44.79
642.661	45.26
642.851	45.36
643.041	45.54
643.231	45.72
643.42	45.93
643.61	45.91
643.8	45.89
643.99	46.15
644.18	45.91
644.369	45.86
644.559	45.8
644.749	45.48
644.939	45.38
645.128	45.2
645.318	45.31
645.508	45.47
645.697	45.47
645.887	45.32
646.076	45.17
646.266	45.17
646.456	45.28
646.645	45.58
646.835	45.84
647.024	45.83
647.214	45.92
647.403	45.54
647.593	45.48
647.782	45.77
647.972	45.81
648.161	45.9
648.351	46
648.54	46.2
648.73	46.16
648.919	46.11
649.108	46.33
649.298	46.58
649.487	46.84
649.677	46.86
649.866	46.58
650.055	46.56
650.244	46.54
650.434	46.6
650.623	46.41
650.812	46.25
651.002	46.15
651.191	46.07
651.38	45.74
651.569	45.83
651.758	45.53
651.947	45.55
652.137	45.42
652.326	45.42
652.515	45.5
652.704	45.56
652.893	45.66
653.082	45.84
653.271	46.13
653.46	46.39
653.649	46.28
653.838	46.17
654.027	46.04
654.216	46.28
654.405	46.46
654.594	46.45
654.783	46.25
654.972	46.14
655.161	45.75
655.35	45.58
655.539	45.59
655.728	45.41
655.916	45.55
656.105	45.41
656.294	45.3
656.483	45.09
656.672	45.19
656.86	45.44
657.049	45.3
657.238	45.46
657.427	45.29
657.615	44.98
657.804	45.14
657.993	45.26
658.181	45.3
658.37	45.25
658.559	45.35
658.747	45.2
658.936	44.9
659.125	44.73
659.313	44.69
659.502	44.86
659.69	44.93
659.879	44.8
660.067	44.93
660.256	44.94
660.444	45.25
660.633	45.25
660.821	45.41
661.01	45.78
661.198	45.99
661.387	46.51
661.575	46.57
661.763	46.6
661.952	46.77
662.14	47.01
662.328	47.25
662.517	47.15
662.705	47.16
662.893	47.14
663.082	46.89
663.27	47.02
663.458	46.62
663.646	46.56
663.834	46.77
664.023	47.01
664.211	46.77
664.399	46.84
664.587	46.86
664.775	46.74
664.963	47.04
665.152	47.45
665.34	47.75
665.528	47.58
665.716	47.81
665.904	48.03
666.092	47.92
666.28	47.87
666.468	47.76
666.656	47.89
666.844	48.31
667.032	48.31
667.22	47.92
667.408	47.74
667.596	48.17
667.784	48.04
667.971	47.92
668.159	47.81
668.347	47.61
668.535	47.82
668.723	47.57
668.911	47.17
669.098	47.05
669.286	47.34
669.474	47.38
669.662	47.06
669.849	46.87
670.037	46.84
670.225	46.91
670.413	47.01
670.6	47.04
670.788	47.18
670.976	47.46
671.163	47.15
671.351	47.18
671.538	47.26
671.726	47.64
671.913	47.62
672.101	47.59
672.289	47.74
672.476	47.61
672.664	47.45
672.851	47.68
673.039	47.77
673.226	48.16
673.413	48.02
673.601	47.85
673.788	47.61
673.976	47.69
674.163	47.87
674.35	47.9
674.538	47.92
674.725	48.03
674.912	47.98
675.1	47.92
675.287	47.67
675.474	47.85
675.662	48.26
675.849	48.25
676.036	48.37
676.223	48.24
676.411	48.29
676.598	48.43
676.785	48.44
676.972	48.41
677.159	48.25
677.346	48.17
677.533	48.22
677.721	47.71
677.908	47.48
678.095	47.2
678.282	47.09
678.469	46.79
678.656	46.99
678.843	46.75
679.03	46.55
679.217	46.26
679.404	46.52
679.591	46.32
679.778	46.35
679.964	46.69
680.151	46.9
680.338	46.79
680.525	46.93
680.712	47.08
680.899	47.22
681.086	47.61
681.272	48.06
681.459	47.84
681.646	48.13
681.833	48.11
682.02	47.96
682.206	47.96
682.393	48.37
682.58	48.35
682.766	48.06
682.953	48.22
683.14	48.09
683.326	48.44
683.513	48.92
683.7	48.82
683.886	48.97
684.073	49.22
684.259	49.28
684.446	49.05
684.632	49.59
684.819	49.73
685.005	49.64
685.192	49.67
685.378	49.15
685.565	48.95
685.751	48.83
685.938	49.06
686.124	48.92
686.31	49.11
686.497	49.29
686.683	48.96
686.87	48.98
687.056	49.01
687.242	48.74
687.429	48.86
687.615	49
687.801	49.22
687.987	49.35
688.174	49.51
688.36	49.6
688.546	49.88
688.732	49.86
688.918	49.69
689.105	49.54
689.291	49.9
689.477	50
689.663	50.12
689.849	49.88
690.035	49.88
690.221	49.88
690.407	49.99
690.593	49.84
690.779	50.24
690.965	50.69
691.151	51.16
691.337	51.17
691.523	51.27
691.709	51.31
691.895	51.38
692.081	51.28
692.267	51.67
692.453	51.56
692.639	51.83
692.825	51.48
693.011	51.22
693.196	50.98
693.382	50.99
693.568	50.63
693.754	50.4
693.94	50.66
694.125	50.75
694.311	50.35
694.497	50.16
694.682	49.86
694.868	49.44
695.054	49.82
695.239	50.11
695.425	50.17
695.611	50.6
695.796	49.99
695.982	49.62
696.168	49.39
696.353	49.08
696.539	49.05
696.724	48.86
696.91	48.9
697.095	48.68
697.281	48.2
697.466	47.74
697.652	47.5
697.837	47.73
698.023	47.58
698.208	47.74
698.393	47.73
698.579	47.53
698.764	47.57
698.949	47.67
699.135	47.49
699.32	47.77
699.505	47.8
699.691	47.81
699.876	47.94
700.061	48.17
700.246	48.15
700.432	48.29
700.617	48.42
700.802	48.38
700.987	48.63
701.172	49.33
701.358	49.34
701.543	50.09
701.728	50.12
701.913	50.55
702.098	50.73
702.283	51.23
702.468	51.8
702.653	52.43
702.838	53.1
703.023	53.27
703.208	52.74
703.393	53.06
703.578	53.11
703.763	53.84
703.948	53.64
704.133	54.36
704.318	54.4
704.503	54.55
704.688	54.72
704.873	54.88
705.057	55.57
705.242	56.02
705.427	56.25
705.612	56.62
705.797	56.63
705.981	57.25
706.166	57.34
706.351	57.52
706.536	57.57
706.72	57.57
706.905	57.3
707.09	57.1
707.274	57.29
707.459	57.17
707.644	56.96
707.828	57.18
708.013	56.87
708.197	56.55
708.382	56.36
708.567	56.13
708.751	56
708.936	55.94
709.12	55.94
709.305	55.62
709.489	55.19
709.673	54.92
709.858	54.93
710.042	54.99
710.227	55.12
710.411	55.3
710.596	55.09
710.78	55.07
710.964	55.02
711.149	54.49
711.333	54.52
711.517	54.97
711.702	54.86
711.886	54.42
712.07	54.38
712.254	53.99
712.438	54.02
712.623	54.12
712.807	53.89
712.991	54.01
713.175	54.13
713.359	54.07
713.544	54.35
713.728	54.48
713.912	54.49
714.096	54.49
714.28	54.32
714.464	53.85
714.648	53.89
714.832	53.7
715.016	53.2
715.2	53.46
715.384	53.1
715.568	52.62
715.752	52.33
715.936	52.41
716.12	51.96
716.304	52.45
716.488	52.23
716.671	51.92
716.855	52.48
717.039	52.84
717.223	52.9
717.407	53.35
717.59	53.47
717.774	54.08
717.958	54.16
718.142	54.66
718.325	54.52
718.509	55.1
718.693	55.76
718.877	55.59
719.06	55.52
719.244	55.39
719.428	55.36
719.611	55.5
719.795	55.18
719.978	55.16
720.162	55.34
720.345	55.34
720.529	55.09
720.713	55.17
720.896	55.12
721.08	55.12
721.263	55.44
721.446	56
721.63	56.18
721.813	56.57
721.997	56.63
722.18	56.77
722.364	56.54
722.547	56.52
722.73	56.08
722.914	56.36
723.097	57.21
723.28	57.28
723.464	56.73
723.647	56.83
723.83	56.31
724.013	56.28
724.197	55.81
724.38	55.73
724.563	55.93
724.746	56.89
724.929	56.65
725.112	56.5
725.296	56.27
725.479	56.45
725.662	55.83
725.845	55.76
726.028	55.82
726.211	56.04
726.394	56.37
726.577	55.99
726.76	55.6
726.943	55.63
727.126	55.71
727.309	55.58
727.492	55.46
727.675	55.28
727.858	55.69
728.041	55.87
728.224	55.88
728.407	55.45
728.589	55.77
728.772	55.71
728.955	55.29
729.138	54.8
729.321	54.64
729.503	54.93
729.686	55.09
729.869	54.96
730.052	54.78
730.234	54.68
730.417	54.76
730.6	54.65
730.782	54.28
730.965	54.52
731.148	54.43
731.33	54.42
731.513	54.42
731.695	55.01
731.878	55.36
732.061	55.47
732.243	55.71
732.426	55.91
732.608	56.35
732.791	56.7
732.973	56.7
733.156	57.14
733.338	57.26
733.52	57
733.703	56.8
733.885	57
734.068	57.19
734.25	57.23
734.432	57.41
734.615	57.37
734.797	57.27
734.979	57.14
735.162	57.13
735.344	57.51
735.526	57.98
735.708	58.04
735.891	58.54
736.073	58.2
736.255	58.14
736.437	58.42
736.619	58.1
736.802	58.23
736.984	58.78
737.166	58.89
737.348	58.58
737.53	58.93
737.712	58.96
737.894	58.1
738.076	58.36
738.258	57.87
738.44	57.49
738.622	57.43
738.804	57.25
738.986	57.07
739.168	56.48
739.35	57.13
739.532	56.93
739.714	57.21
739.896	57.33
740.078	57.47
740.259	57.62
740.441	57.69
740.623	57.56
740.805	57.56
740.987	58.11
741.168	59.05
741.35	59.03
741.532	59.33
741.714	59.5
741.895	59.74
742.077	60.17
742.259	61.2
742.44	62.02
742.622	62.58
742.804	63.11
742.985	63.7
743.167	63.33
743.348	63.07
743.53	62.75
743.711	62.82
743.893	62.62
744.075	62.43
744.256	61.97
744.438	62.19
744.619	63.01
744.8	63.03
744.982	63
745.163	63.34
745.345	63.42
745.526	64.19
745.707	63.65
745.889	63.63
746.07	63.66
746.252	64.06
746.433	63.77
746.614	63.42
746.795	62.58
746.977	62.83
747.158	62.25
747.339	62.39
747.52	61.53
747.702	62.21
747.883	62.16
748.064	61.86
748.245	61.67
748.426	62.64
748.607	61.88
748.788	62.22
748.97	60.81
749.151	60.94
749.332	61.01
749.513	60.95
749.694	60.96
749.875	61.46
750.056	61.77
750.237	61.02
750.418	59.93
750.599	60.35
750.78	60.89
750.96	61.71
751.141	62.4
751.322	62.22
751.503	62.77
751.684	61.44
751.865	61.27
752.046	61.28
752.226	61.44
752.407	61.55
752.588	61.95
752.769	61.79
752.949	61.79
753.13	61.74
753.311	61.78
753.492	61.8
753.672	62.64
753.853	62.63
754.034	62.52
754.214	63.44
754.395	63.26
754.575	63.53
754.756	63.85
754.937	63.62
755.117	63.58
755.298	64.77
755.478	64.39
755.659	64.53
755.839	64.77
756.02	64.58
756.2	64.35
756.381	64.2
756.561	64.3
756.741	64.42
756.922	64.73
757.102	64.67
757.283	63.16
757.463	63.89
757.643	63.99
757.823	63.11
758.004	63.58
758.184	63.03
758.364	63.8
758.545	63.47
758.725	63.36
758.905	62.99
759.085	62.19
759.265	61.59
759.446	60.31
759.626	59.38
759.806	59.51
759.986	59.05
760.166	58.5
760.346	58
760.526	57.27
760.706	56.66
760.886	56.31
761.066	56.57
761.246	56.8
761.426	57.07
761.606	57.42
761.786	57.11
761.966	57.08
762.146	57.47
762.326	56.41
762.506	56.31
762.686	56.05
762.866	55.71
763.046	54.92
763.225	54.29
763.405	54.08
763.585	53.87
763.765	53.99
763.945	53.54
764.124	53.18
764.304	53.35
764.484	53.44
764.664	53.26
764.843	53.17
765.023	54.07
765.203	54.91
765.382	55.39
765.562	55.83
765.741	56.23
765.921	56.91
766.101	57.75
766.28	58.15
766.46	58.23
766.639	59.45
766.819	60.84
766.998	61.56
767.178	61.87
767.357	62.42
767.537	62.97
767.716	63.78
767.896	64.31
768.075	64.91
768.254	65.28
768.434	66.49
768.613	66.64
768.792	67.08
768.972	67.35
769.151	67.81
769.33	68.35
769.51	68.92
769.689	67.93
769.868	67.8
770.047	68.31
770.226	69.07
770.406	69.11
770.585	69.22
770.764	68.55
770.943	67.94
771.122	67.6
771.301	67.03
771.48	66.75
771.66	67.08
771.839	67.29
772.018	66.4
772.197	67.49
772.376	67.19
772.555	68.39
772.734	68.6
772.913	68.84
773.092	69.45
773.271	69.75
773.449	70.72
773.628	71.87
773.807	71.81
773.986	73.13
774.165	72.21
774.344	73.05
774.523	72.77
774.701	72.97
774.88	73.37
775.059	72.55
775.238	72.61
775.417	71.75
775.595	71.95
775.774	71.69
775.953	70.94
776.131	71.14
776.31	70.05
776.489	69.49
776.667	69.5
776.846	70.3
777.025	70.42
777.203	70.16
777.382	70.61
777.56	71.35
777.739	72.26
777.917	72.59
778.096	73.06
778.274	73.43
778.453	73.24
778.631	72.99
778.81	71.66
778.988	72.53
779.166	72.28
779.345	71.81
779.523	70.11
779.702	70.86
779.88	70.13
780.058	69.25
780.237	70.66
780.415	71.11
780.593	71.57
780.771	72.5
780.95	73.09
781.128	73.83
781.306	73.52
781.484	73.82
781.662	73.04
781.841	73.42
782.019	74.85
782.197	72.34
782.375	71.69
782.553	72.41
782.731	71.48
782.909	71.91
783.087	72.16
783.265	72.03
783.443	72.82
783.621	72.41
783.799	73.02
783.977	72.36
784.155	74.05
784.333	74.89
784.511	74.48
784.689	74.67
784.867	72.71
785.045	71.36
785.223	71.6
785.4	70.65
785.578	71.29
785.756	70.63
785.934	70.62
786.112	70.73
786.289	69.45
786.467	69.15
786.645	69.05
786.823	69.31
787	70.39
787.178	70.57
787.356	69.6
787.533	69.05
787.711	68.88
787.889	68.29
788.066	67.56
788.244	68.24
788.421	68.42
788.599	67.62
788.776	68.1
788.954	68.12
789.131	67.54
789.309	69.42
789.486	71.13
789.664	70.85
789.841	71.22
790.019	71.46
790.196	72
790.373	72.1
790.551	74.51
790.728	74.47
790.906	74.33
791.083	75.24
791.26	74.94
791.437	72.78
791.615	73.36
791.792	72.77
791.969	72.76
792.146	72.37
792.324	72.75
792.501	72.24
792.678	72.37
792.855	72.94
793.032	73.67
793.209	72.7
793.387	73.51
793.564	73.75
793.741	75.12
793.918	76.41
794.095	75.89
794.272	75.22
794.449	74.74
794.626	75.12
794.803	74.32
794.98	74.26
795.157	74.68
795.334	73.22
795.511	72.8
795.688	72.44
795.864	71
796.041	70.18
796.218	70.27
796.395	69.49
796.572	68.08
796.749	68.33
796.925	67.94
797.102	68.16
797.279	68.51
797.456	68.96
797.632	68.18
797.809	69.08
797.986	69.08
798.162	69.46
798.339	70.17
798.516	72.08
798.692	71.4
798.869	72.13
799.046	72.45
799.222	72
799.399	71.92
799.575	72.23
799.752	72.58
799.928	73.31
800.105	72.27
800.281	72.15
800.458	71.62
800.634	74.26
800.811	73.77
800.987	73.33
801.163	74.21
801.34	75.14
801.516	74.66
801.692	74.46
801.869	74.82
802.045	75.89
802.221	76.73
802.398	77.54
802.574	75.75
802.75	76.29
802.926	77.24
803.103	78.93
803.279	78.22
803.455	78.3
803.631	79.3
803.807	79.91
803.983	80.42
804.16	81.25
804.336	81.38
804.512	82.9
804.688	83.73
804.864	82.29
805.04	82.61
805.216	83.36
805.392	86.88
805.568	85.94
805.744	85.51
805.92	86.91
806.096	86
806.272	86.54
806.448	85.3
806.623	84.88
806.799	85.92
806.975	84.04
807.151	82.77
807.327	80.74
807.503	80.71
807.678	81.38
807.854	78.98
808.03	77.97
808.206	77.89
808.381	77.49
808.557	77.62
808.733	77.7
808.908	78.97
809.084	79.99
809.26	79.23
809.435	78.93
809.611	77.55
809.787	78.93
809.962	80.27
810.138	79.02
810.313	79.01
810.489	79.83
810.664	79.2
810.84	77.56
811.015	77.21
811.191	77
811.366	77.19
811.542	79.14
811.717	79.01
811.892	78.48
812.068	79.98
812.243	79.74
812.419	77.58
812.594	78.08
812.769	78.77
812.944	79.4
813.12	81.27
813.295	82.63
813.47	81.71
813.645	82.04
813.821	82.3
813.996	80.67
814.171	81.84
814.346	83.2
814.521	83.81
814.697	84.87
814.872	83.98
815.047	84.65
815.222	83.96
815.397	83.95
815.572	83.46
815.747	82.89
815.922	83.53
816.097	84.81
816.272	84.9
816.447	84.19
816.622	83.5
816.797	84.72
816.972	82.71
817.147	81.3
817.322	82.66
817.496	81.59
817.671	81.52
817.846	81.88
818.021	79.82
818.196	79.66
818.371	80.51
818.545	80.03
818.72	79.06
818.895	78.29
819.069	77.88
819.244	75.8
819.419	74.85
819.594	74.55
819.768	72.33
819.943	69.76
820.117	67.6
820.292	64.09
820.467	61.66
820.641	59.23
820.816	56.17
820.99	54.18
821.165	51.93
821.339	50.49
821.514	49.69
821.688	48.19
821.863	47.38
822.037	46.43
822.212	45.98
822.386	45.65
822.56	45.33
822.735	45.36
822.909	45.06
823.084	45.45
823.258	45.71
823.432	45.35
823.606	45.76
823.781	46.07
823.955	46.51
824.129	46.87
824.303	47.15
824.478	47.83
824.652	48.83
824.826	49.75
825	50.13
825.174	50.6
825.348	51.39
825.523	52.08
825.697	52.72
825.871	53.92
826.045	54.42
826.219	55.12
826.393	54.66
826.567	54.58
826.741	54.64
826.915	54.52
827.089	53.97
827.263	54.05
827.437	54.12
827.611	54.42
827.784	54.76
827.958	54.56
828.132	54.45
828.306	55.09
828.48	55.05
828.654	55.16
828.827	55.68
829.001	57.33
829.175	57.68
829.349	58.72
829.522	59.1
829.696	60.08
829.87	62.36
830.044	63.76
830.217	66.07
830.391	68.79
830.565	70.14
830.738	71.35
830.912	72.84
831.085	73.72
831.259	74.43
831.432	74.76
831.606	74.09
831.779	73.82
831.953	73.19
832.126	70.03
832.3	69.3
832.473	68.46
832.647	66.33
832.82	63.73
832.994	63.33
833.167	62.18
833.34	61.45
833.514	59.64
833.687	58.72
833.86	58.29
834.034	58.33
834.207	56.79
834.38	57.09
834.553	58.15
834.727	59.37
834.9	58.92
835.073	59.08
835.246	59.68
835.419	60.5
835.593	61.9
835.766	62.9
835.939	63.78
836.112	65.59
836.285	66.58
836.458	68.36
836.631	69.03
836.804	71.13
836.977	73.96
837.15	77.93
837.323	80.63
837.496	82.34
837.669	84.92
837.842	88.46
838.015	89.69
838.188	91.48
838.361	92.31
838.533	91.88
838.706	93.3
838.879	91.84
839.052	90.36
839.225	91.53
839.398	89.09
839.57	87.32
839.743	87.27
839.916	87.49
840.088	86.85
840.261	86.28
840.434	87
840.607	88.09
840.779	89.16
840.952	91.36
841.124	89.55
841.297	89.84
841.47	89.89
841.642	90.59
841.815	91.33
841.987	92.86
842.16	91.84
842.332	95.15
842.505	92.34
842.677	92.29
842.85	89.95
843.022	92.17
843.194	94.44
843.367	98.91
843.539	99.24
843.712	98.31
843.884	98.39
844.056	106.25
844.229	105.27
844.401	106.44
844.573	106.32
844.745	107.18
844.918	109.03
845.09	110.58
845.262	110.67
845.434	113.73
845.606	121.02
845.779	126.57
845.951	125.84
846.123	124.49
846.295	128.32
846.467	129.98
846.639	130.52
846.811	131.78
846.983	129.93
847.155	131.69
847.327	130.74
847.499	129.1
847.671	127.62
847.843	124.53
848.015	127.46
848.187	134.24
848.359	138.37
848.531	138.73
848.703	138.43
848.875	146.31
849.047	141.32
849.218	137.29
849.39	135.29
849.562	132.11
849.734	133.14
849.905	134.48
850.077	129.18
850.249	123.26
850.421	124.65
850.592	127.59
850.764	123.2
850.936	128.81
851.107	132.93
851.279	134.79
851.451	139.01
851.622	136.98
851.794	132.72
851.965	133.42
852.137	139.29
852.308	142.54
852.48	136.52
852.651	135.43
852.823	126.87
852.994	122.54
853.166	124.68
853.337	119.81
853.509	123.02
853.68	118.72
853.851	118.1
854.023	116.29
854.194	116.02
854.365	122.78
854.537	124.33
854.708	124.7
854.879	130.3
855.05	130.86
855.222	131.66
855.393	129.56
855.564	134.75
855.735	135.95
855.906	134.58
856.078	128.06
856.249	117.43
856.42	112.34
856.591	115.32
856.762	109.23
856.933	104.61
857.104	108.7
857.275	106.88
857.446	110.77
857.617	111.45
857.788	111.52
857.959	117.39
858.13	125.51
858.301	136.23
858.472	137.48
858.643	142.33
858.814	148.67
858.985	143.18
859.155	147.93
859.326	150.56
859.497	147.3
859.668	154.74
859.839	161.99
860.009	164.45
860.18	162.07
860.351	155.64
860.522	164.36
860.692	159.43
860.863	166.92
861.034	163.17
861.204	163.24
861.375	169.18
861.546	160.37
861.716	148.35
861.887	151.15
862.057	147.91
862.228	148.23
862.398	147.51
862.569	150
862.739	144.37
862.91	140.01
863.08	133.69
863.251	130.63
863.421	133.84
863.592	140.99
863.762	132.32
863.932	135.24
864.103	133.82
864.273	131.91
864.443	129.97
864.614	129.76
864.784	127.17
864.954	133.21
865.125	135.96
865.295	133.86
865.465	129.84
865.635	132.5
865.805	130.86
865.976	139.56
866.146	143.01
866.316	149.22
866.486	155.54
866.656	168.07
866.826	170.33
866.996	166.03
867.166	170.57
867.336	174.87
867.506	178.17
867.676	176.02
867.846	169.87
868.016	162.87
868.186	161.42
868.356	158.74
868.526	161.05
868.696	158.9
868.866	162.2
869.036	156.3
869.206	151.22
869.376	142.12
869.545	147.3
869.715	150.63
869.885	148.54
870.055	148.21
870.224	148.75
870.394	141.76
870.564	138.24
870.734	134.58
870.903	139.03
871.073	138.76
871.243	143.99
871.412	132.87
871.582	131.34
871.751	132.79
871.921	130.43
872.091	125.09
872.26	122.28
872.43	125.53
872.599	126.92
872.769	125.95
872.938	126.53
873.108	127.7
873.277	137.15
873.446	131.84
873.616	133.08
873.785	132.56
873.955	138.14
874.124	143.46
874.293	138.06
874.463	138.48
874.632	138.85
874.801	137.05
874.971	139.99
875.14	141.16
875.309	144.87
875.478	143.88
875.647	142.34
875.817	139.82
875.986	136.44
876.155	135.56
876.324	143.16
876.493	145.93
876.662	143.08
876.831	134.64
877	131.37
877.17	132.35
877.339	130.02
877.508	126.12
877.677	130.36
877.846	128.5
878.015	131.62
878.184	118.62
878.352	114.97
878.521	114.91
878.69	115.56
878.859	113.55
879.028	116.86
879.197	112.59
879.366	111.03
879.534	104.31
879.703	100.3
879.872	95.44
880.041	94.91
880.21	90.76
880.378	85.57
880.547	77.97
880.716	74.22
880.884	68.31
881.053	66.34
881.222	64.76
881.39	61.46
881.559	59.4
881.727	57.05
881.896	55.83
882.065	54.42
882.233	52.56
882.402	52.61
882.57	51.68
882.739	51.42
882.907	50.51
883.076	49.96
883.244	51.38
883.412	53.17
883.581	54.08
883.749	54.49
883.918	55.43
884.086	58.82
884.254	61.64
884.423	63.37
884.591	64.67
884.759	68.59
884.927	73.19
885.096	76.02
885.264	78.14
885.432	81.85
885.6	86.45
885.769	90.92
885.937	90.1
886.105	91.79
886.273	94.9
886.441	95.22
886.609	95.34
886.777	97.11
886.945	100.07
887.113	104.84
887.281	109.3
887.449	108.8
887.617	113.18
887.785	120.15
887.953	125.42
888.121	133.86
888.289	147.13
888.457	147.54
888.625	143.91
888.793	147.97
888.961	140.19
889.129	138.71
889.296	140.22
889.464	136.15
889.632	135.04
889.8	134.21
889.967	133.19
890.135	124.64
