Data from 2938711__Reflection_03.txt Node
Date: Tue Mar 17 19:26:18 EDT 2015
User: robert
Spectrometer: USB4E03002
Autoset integration time: false
Trigger mode: 4
Integration Time (sec): 1.000000E-1
Scans to average: 10
Electric dark correction enabled: false
Nonlinearity correction enabled: false
Boxcar width: 5
Stray light correction enabled: false
XAxis mode: Wavelengths
Stop averaging: false
Number of Pixels in Spectrum: 3648
>>>>>Begin Spectral Data<<<<<
177.575	42.35
177.794	43.13
178.014	58.75
178.233	86.12
178.452	104.72
178.672	112.11
178.891	135.34
179.11	227.76
179.33	491.13
179.549	807.69
179.768	-27033.33
179.987	-509.04
180.207	-1063.73
180.426	5894.74
180.645	1538.89
180.864	626.92
181.084	856.3
181.303	18185.71
181.522	1540.79
181.741	416.73
181.96	313.22
182.179	309.02
182.398	298.54
182.618	204.71
182.837	198.36
183.056	176.49
183.275	224.13
183.494	181.66
183.713	135.47
183.932	126.75
184.151	115.54
184.37	127.34
184.589	127.2
184.808	113.41
185.027	137.5
185.246	173.31
185.465	173.02
185.684	167.53
185.903	272.5
186.122	297.15
186.341	243.1
186.56	294.35
186.779	222.06
186.998	226.5
187.216	203.08
187.435	219.24
187.654	180.86
187.873	157.4
188.092	137.09
188.311	104.48
188.53	121.56
188.748	127.71
188.967	122.04
189.186	168.01
189.405	176.47
189.623	205.08
189.842	147.25
190.061	141.15
190.28	174.07
190.498	174.31
190.717	179.48
190.936	185.31
191.154	183.06
191.373	163.41
191.592	146.08
191.81	133.68
192.029	133.62
192.248	182.53
192.466	164.02
192.685	178.14
192.904	149.03
193.122	136.32
193.341	124.89
193.559	133.24
193.778	151.73
193.996	140.55
194.215	132.46
194.433	133.51
194.652	116.99
194.87	132.83
195.089	122.44
195.307	143.32
195.526	188.47
195.744	214.36
195.963	230.01
196.181	240.63
196.399	239.2
196.618	250.91
196.836	265.05
197.055	330.92
197.273	406.84
197.491	643.75
197.71	1519.18
197.928	378.78
198.146	479.07
198.365	270.24
198.583	308.12
198.801	350.47
199.019	399.07
199.238	355.28
199.456	195.51
199.674	204.88
199.892	177.84
200.111	158.72
200.329	190.73
200.547	201.33
200.765	217.89
200.983	179.02
201.202	176.34
201.42	188.28
201.638	208.57
201.856	237.06
202.074	248.55
202.292	251.13
202.51	260.35
202.728	253.58
202.946	199.43
203.165	182.7
203.383	224.22
203.601	217.86
203.819	194.54
204.037	174.86
204.255	195.01
204.473	141.32
204.691	142.29
204.909	136.56
205.127	143.15
205.345	130.63
205.562	121.65
205.78	95.02
205.998	92.76
206.216	89.58
206.434	91.09
206.652	84.05
206.87	93.4
207.088	93.58
207.306	98
207.523	79.91
207.741	86.52
207.959	95.21
208.177	122.01
208.395	102.13
208.612	94.49
208.83	95.96
209.048	94.55
209.266	91.19
209.483	99.14
209.701	102.84
209.919	125.93
210.136	120.53
210.354	115.58
210.572	101.56
210.79	108.8
211.007	132.18
211.225	112.69
211.442	116
211.66	129.48
211.878	118.95
212.095	201.23
212.313	189.48
212.53	178.48
212.748	174.34
212.966	170.25
213.183	184.84
213.401	169.5
213.618	165.13
213.836	162.53
214.053	169.2
214.271	153.64
214.488	102.29
214.705	93.18
214.923	100
215.14	100.31
215.358	107.62
215.575	101.04
215.793	84.49
216.01	78.9
216.227	58.87
216.445	40.3
216.662	35.74
216.879	47.26
217.097	38.26
217.314	36.18
217.531	41.54
217.749	48.2
217.966	45.16
218.183	63.62
218.4	70.18
218.618	71.45
218.835	81.09
219.052	80.57
219.269	80.19
219.487	88.62
219.704	90.64
219.921	82.22
220.138	77.41
220.355	83.83
220.572	80.04
220.79	78.08
221.007	77.07
221.224	72.61
221.441	66.54
221.658	63.57
221.875	55.02
222.092	52.36
222.309	53.11
222.526	51.92
222.743	49.81
222.96	44.37
223.177	31.3
223.394	31.43
223.611	33.58
223.828	31.64
224.045	27.58
224.262	21.93
224.479	20.4
224.696	19.81
224.913	17.58
225.13	15.23
225.347	13.81
225.564	18.11
225.781	17.12
225.997	13.93
226.214	13.92
226.431	10.87
226.648	15.28
226.865	13.38
227.082	12.43
227.298	13.04
227.515	12.46
227.732	14.26
227.949	12.51
228.165	11.79
228.382	11.38
228.599	11.82
228.816	12.13
229.032	10.64
229.249	10.25
229.466	10.51
229.682	9.24
229.899	8.4
230.116	7.24
230.332	8.47
230.549	8.29
230.765	8.66
230.982	8.37
231.199	8.51
231.415	10.21
231.632	10.65
231.848	10.56
232.065	12.14
232.281	13.47
232.498	14.39
232.714	14.06
232.931	15.01
233.147	14.13
233.364	13.45
233.58	12.59
233.797	12.17
234.013	11.42
234.23	10.99
234.446	11.14
234.662	10.35
234.879	8.75
235.095	9.21
235.312	8.23
235.528	9.69
235.744	10.67
235.961	11.19
236.177	11.2
236.393	12.8
236.61	13.08
236.826	11.9
237.042	11.86
237.258	14.05
237.475	15.24
237.691	16.83
237.907	15.68
238.123	14.31
238.339	13.26
238.556	13.77
238.772	13.35
238.988	13.51
239.204	14.61
239.42	14.88
239.636	13.48
239.853	11.39
240.069	9.84
240.285	10.24
240.501	10.49
240.717	9.57
240.933	9.06
241.149	8.48
241.365	8.48
241.581	7.58
241.797	7.1
242.013	6.7
242.229	7.11
242.445	6.93
242.661	6.86
242.877	6.78
243.093	6.89
243.309	6.42
243.525	6.41
243.741	6.67
243.957	6.98
244.173	7.41
244.388	7.02
244.604	6
244.82	5.53
245.036	5.36
245.252	5.21
245.468	5.82
245.683	6.21
245.899	6.43
246.115	6.16
246.331	6.3
246.547	6.14
246.762	6.84
246.978	7.07
247.194	7.18
247.409	7.03
247.625	7.44
247.841	7.48
248.057	7.49
248.272	7.27
248.488	7.06
248.703	7
248.919	7.39
249.135	7.16
249.35	7.39
249.566	8.65
249.782	9.18
249.997	8.98
250.213	8.73
250.428	8.67
250.644	9.04
250.859	9.8
251.075	10.11
251.29	9.44
251.506	9.29
251.721	9.48
251.937	8.41
252.152	8.39
252.368	7.46
252.583	8
252.798	8.05
253.014	8.29
253.229	7.15
253.445	6.62
253.66	7.04
253.875	6.92
254.091	6.51
254.306	6.58
254.521	6.02
254.737	7.19
254.952	7.53
255.167	7.42
255.383	6.62
255.598	7.54
255.813	7.8
256.028	7.46
256.244	7.6
256.459	6.64
256.674	6.2
256.889	6.08
257.104	6.36
257.32	6.15
257.535	5.59
257.75	6.15
257.965	6.55
258.18	6.36
258.395	5.63
258.61	5.53
258.826	6.03
259.041	5.71
259.256	5.77
259.471	5.46
259.686	4.84
259.901	4.97
260.116	4.97
260.331	4.89
260.546	4.69
260.761	4.52
260.976	4.5
261.191	3.88
261.406	4.17
261.621	3.97
261.836	3.98
262.05	4.46
262.265	4.47
262.48	3.65
262.695	3.06
262.91	3.7
263.125	4.5
263.34	4.66
263.555	5.67
263.769	5.2
263.984	5.78
264.199	5.56
264.414	5.51
264.629	5.47
264.843	5.76
265.058	5.6
265.273	5
265.488	5.39
265.702	4.95
265.917	4.21
266.132	4.42
266.346	4.29
266.561	4.6
266.776	4.33
266.99	4.6
267.205	5.16
267.42	5.4
267.634	5.07
267.849	4.74
268.063	4.7
268.278	4.78
268.492	4.77
268.707	4.61
268.922	4.46
269.136	5.09
269.351	5.28
269.565	4.98
269.78	4.63
269.994	4.84
270.209	4.96
270.423	4.86
270.637	5.09
270.852	5.01
271.066	4.8
271.281	4.97
271.495	4.87
271.709	4.64
271.924	4.66
272.138	4.83
272.353	4.89
272.567	4.85
272.781	5.33
272.996	5.26
273.21	5.46
273.424	5.57
273.638	5.21
273.853	5.24
274.067	5.12
274.281	5.11
274.495	5.04
274.71	4.88
274.924	5.04
275.138	5.16
275.352	5.28
275.566	5.04
275.781	5.42
275.995	5.24
276.209	5.11
276.423	5.02
276.637	4.85
276.851	5.2
277.065	5.51
277.279	5.27
277.493	4.56
277.707	4.6
277.921	4.41
278.135	4.37
278.349	4.48
278.563	4.4
278.777	4.2
278.991	4.34
279.205	3.82
279.419	3.54
279.633	3.66
279.847	4
280.061	3.45
280.275	3.85
280.489	3.67
280.703	3.84
280.917	3.72
281.131	3.84
281.344	3.9
281.558	4.07
281.772	4.44
281.986	4.33
282.2	4.17
282.414	4.52
282.627	4.42
282.841	4.28
283.055	4.01
283.269	4
283.482	4.39
283.696	4.35
283.91	4.63
284.123	4.14
284.337	4.07
284.551	4
284.764	4.4
284.978	4.2
285.192	3.88
285.405	4.1
285.619	4.26
285.833	4.08
286.046	4.3
286.26	4.4
286.473	4.56
286.687	4.62
286.9	4.81
287.114	4.68
287.327	5.2
287.541	5.29
287.754	5.33
287.968	5.28
288.181	5.17
288.395	4.81
288.608	4.65
288.822	4.73
289.035	4.75
289.248	4.68
289.462	4.63
289.675	3.98
289.889	4.37
290.102	4.38
290.315	4.37
290.529	4.55
290.742	4.61
290.955	4.36
291.169	4.28
291.382	4.87
291.595	4.83
291.808	4.63
292.022	5.1
292.235	4.93
292.448	5.14
292.661	5
292.875	4.86
293.088	5.19
293.301	5.43
293.514	5.44
293.727	4.92
293.94	5
294.153	5.12
294.367	5.47
294.58	5.39
294.793	5.09
295.006	5.53
295.219	5.39
295.432	5.14
295.645	5.2
295.858	5.29
296.071	5.23
296.284	5.37
296.497	5.39
296.71	5
296.923	5.37
297.136	5.58
297.349	5.48
297.562	5.79
297.775	5.74
297.988	5.96
298.201	5.88
298.414	5.91
298.626	5.98
298.839	6.06
299.052	6.36
299.265	6.34
299.478	6.5
299.691	6.79
299.903	6.84
300.116	6.89
300.329	6.41
300.542	6.66
300.755	6.89
300.967	6.62
301.18	6.49
301.393	6.46
301.605	6.42
301.818	6.04
302.031	5.6
302.243	5.7
302.456	6.08
302.669	6.64
302.881	6.74
303.094	6.78
303.307	7.15
303.519	7.51
303.732	7.71
303.944	7.84
304.157	8.07
304.37	8.23
304.582	8.03
304.795	7.96
305.007	7.37
305.22	7.51
305.432	7.32
305.645	7.25
305.857	7.61
306.069	7.35
306.282	6.96
306.494	7.07
306.707	6.9
306.919	6.89
307.132	6.98
307.344	7.42
307.556	7.44
307.769	7.81
307.981	8.06
308.193	7.64
308.406	7.41
308.618	7.62
308.83	7.56
309.043	8.08
309.255	8.18
309.467	7.96
309.679	8.03
309.892	7.76
310.104	7.65
310.316	7.55
310.528	7.5
310.74	7.7
310.953	7.82
311.165	7.97
311.377	7.57
311.589	7.79
311.801	8.15
312.013	7.84
312.225	8
312.437	8.03
312.649	8.36
312.862	8.39
313.074	8.6
313.286	8.46
313.498	8.33
313.71	8.83
313.922	8.67
314.134	8.38
314.346	9.02
314.558	9.19
314.77	9.31
314.982	9.01
315.193	9.12
315.405	9.19
315.617	9.07
315.829	8.88
316.041	8.58
316.253	8.56
316.465	8.55
316.677	8.46
316.888	8.54
317.1	8.22
317.312	8.22
317.524	8.08
317.736	8.12
317.947	7.97
318.159	8.85
318.371	8.67
318.583	9.15
318.794	9.35
319.006	9.4
319.218	9.17
319.43	9.43
319.641	9.53
319.853	9.89
320.064	10.01
320.276	10.48
320.488	10.46
320.699	11.12
320.911	10.73
321.123	10.56
321.334	10.12
321.546	10.57
321.757	10.57
321.969	10.66
322.18	10.49
322.392	10.07
322.603	10.28
322.815	10.36
323.026	10.22
323.238	10.36
323.449	10.14
323.661	10.58
323.872	10.37
324.083	10.53
324.295	10.2
324.506	10.58
324.718	10.74
324.929	10.85
325.14	10.72
325.352	11.01
325.563	11.23
325.774	11.67
325.986	11.66
326.197	12.16
326.408	12.11
326.62	12.72
326.831	12.97
327.042	13.65
327.253	14.09
327.464	14.18
327.676	14.31
327.887	14.5
328.098	14.56
328.309	15.16
328.52	15.18
328.732	15.9
328.943	15.98
329.154	16.28
329.365	16.33
329.576	16.41
329.787	17
329.998	17.34
330.209	18.03
330.42	18.63
330.631	18.91
330.842	19
331.053	18.74
331.264	19.28
331.475	19.31
331.686	19.29
331.897	19.4
332.108	19.23
332.319	19.27
332.53	18.76
332.741	19.13
332.952	18.96
333.163	19.01
333.374	19.6
333.585	19.31
333.795	19.31
334.006	19.22
334.217	19.11
334.428	19.18
334.639	19.24
334.849	19.27
335.06	19.03
335.271	19.36
335.482	19.57
335.692	19.62
335.903	20.04
336.114	20.2
336.325	20.66
336.535	20.88
336.746	20.99
336.957	21.14
337.167	21.39
337.378	21.65
337.589	21.64
337.799	21.49
338.01	21.28
338.22	21.01
338.431	20.94
338.642	20.46
338.852	20.51
339.063	20.68
339.273	20.25
339.484	20.47
339.694	20.35
339.905	20.16
340.115	20.56
340.326	20.39
340.536	20.83
340.746	20.91
340.957	21.54
341.167	21.65
341.378	21.63
341.588	22.08
341.799	22.11
342.009	21.87
342.219	21.74
342.43	21.82
342.64	21.83
342.85	21.49
343.061	21.56
343.271	21.6
343.481	21.56
343.691	21.33
343.902	21.43
344.112	21.44
344.322	21.84
344.532	21.95
344.743	22.06
344.953	22.18
345.163	22.16
345.373	22.07
345.583	21.81
345.793	21.59
346.004	21.67
346.214	21.42
346.424	21.17
346.634	20.82
346.844	20.91
347.054	20.61
347.264	20.46
347.474	20.26
347.684	20.15
347.894	20.14
348.104	20.05
348.314	20.08
348.524	20.29
348.734	20.28
348.944	20.47
349.154	20.79
349.364	20.81
349.574	20.72
349.784	20.93
349.994	21.13
350.204	21.1
350.413	21.25
350.623	21.01
350.833	20.64
351.043	20.67
351.253	20.88
351.463	20.52
351.672	20.22
351.882	20.1
352.092	20.08
352.302	19.98
352.511	20.12
352.721	20.15
352.931	20.53
353.141	21.03
353.35	20.85
353.56	20.88
353.77	20.87
353.979	21.24
354.189	21.41
354.399	21.18
354.608	21.05
354.818	20.97
355.027	20.98
355.237	20.65
355.447	20.38
355.656	20.73
355.866	20.52
356.075	20.49
356.285	20.16
356.494	20.35
356.704	20.44
356.913	20.44
357.123	20.32
357.332	20.37
357.542	20.68
357.751	20.8
357.96	20.55
358.17	20.35
358.379	20.32
358.589	20.55
358.798	20.59
359.007	20.59
359.217	20.59
359.426	20.72
359.635	20.64
359.845	20.55
360.054	20.46
360.263	20.49
360.472	20.99
360.682	21.19
360.891	21.16
361.1	21.04
361.309	21.21
361.519	21.19
361.728	21.05
361.937	20.97
362.146	20.93
362.355	21.03
362.564	20.98
362.774	20.75
362.983	20.52
363.192	20.5
363.401	20.38
363.61	20.06
363.819	19.99
364.028	19.83
364.237	19.69
364.446	19.71
364.655	19.45
364.864	19.71
365.073	19.44
365.282	19.29
365.491	19.2
365.7	19.24
365.909	19.27
366.118	19.41
366.327	19.47
366.536	19.67
366.745	19.52
366.954	19.31
367.162	18.69
367.371	18.77
367.58	18.87
367.789	18.65
367.998	18.56
368.207	18.59
368.415	18.49
368.624	18.47
368.833	18.56
369.042	18.44
369.25	18.69
369.459	18.96
369.668	18.8
369.877	18.63
370.085	18.38
370.294	18.48
370.503	18.26
370.711	18
370.92	18.04
371.129	17.85
371.337	17.77
371.546	17.52
371.754	17.28
371.963	17.25
372.171	17.26
372.38	17.5
372.589	17.37
372.797	17.26
373.006	17.12
373.214	17.02
373.423	16.96
373.631	16.77
373.84	16.47
374.048	16.56
374.256	16.41
374.465	16.2
374.673	16.02
374.882	15.97
375.09	15.96
375.298	16.01
375.507	15.81
375.715	15.38
375.923	15.35
376.132	15.8
376.34	15.79
376.548	15.85
376.757	15.74
376.965	15.79
377.173	15.7
377.381	15.7
377.59	15.66
377.798	15.86
378.006	16.01
378.214	15.97
378.423	15.38
378.631	15.04
378.839	14.96
379.047	15.03
379.255	14.79
379.463	14.68
379.671	14.78
379.879	14.71
380.088	14.49
380.296	14.67
380.504	14.54
380.712	14.77
380.92	14.95
381.128	14.82
381.336	14.89
381.544	14.86
381.752	14.77
381.96	14.22
382.168	14.23
382.376	14.1
382.584	13.89
382.791	14.07
382.999	13.97
383.207	13.91
383.415	13.74
383.623	13.75
383.831	13.95
384.039	14.08
384.247	14.5
384.454	14.49
384.662	14.3
384.87	14.29
385.078	14.06
385.285	13.96
385.493	13.9
385.701	14.03
385.909	13.74
386.116	13.4
386.324	13.31
386.532	13.01
386.739	12.78
386.947	12.94
387.155	12.72
387.362	12.69
387.57	12.94
387.778	12.95
387.985	12.78
388.193	12.83
388.4	12.92
388.608	12.86
388.816	12.75
389.023	12.67
389.231	12.54
389.438	12.52
389.646	12.47
389.853	12.1
390.061	12
390.268	11.97
390.475	11.96
390.683	11.96
390.89	11.96
391.098	12.09
391.305	12.13
391.512	12.04
391.72	12.05
391.927	12
392.135	11.88
392.342	11.7
392.549	11.55
392.756	11.37
392.964	11.15
393.171	10.96
393.378	10.89
393.586	10.81
393.793	10.81
394	10.62
394.207	10.65
394.414	10.85
394.622	10.81
394.829	10.83
395.036	10.81
395.243	10.62
395.45	10.49
395.657	10.42
395.864	10.64
396.072	10.64
396.279	10.57
396.486	10.39
396.693	10.12
396.9	10.1
397.107	10.08
397.314	10.29
397.521	10.57
397.728	10.34
397.935	10.25
398.142	9.9
398.349	9.79
398.556	9.86
398.763	10.04
398.97	10.29
399.177	10.26
399.383	10.1
399.59	9.74
399.797	9.74
400.004	9.9
400.211	9.94
400.418	9.88
400.625	10.04
400.831	10.2
401.038	10.02
401.245	9.81
401.452	9.92
401.658	9.88
401.865	9.79
402.072	9.61
402.279	9.71
402.485	9.51
402.692	9.71
402.899	9.41
403.105	9.19
403.312	9.12
403.519	9.16
403.725	9
403.932	9.28
404.138	9.28
404.345	9.33
404.552	9.26
404.758	9.38
404.965	9.07
405.171	9.02
405.378	8.97
405.584	8.96
405.791	8.92
405.997	8.8
406.204	8.58
406.41	8.6
406.617	8.56
406.823	8.49
407.029	8.32
407.236	8.44
407.442	8.38
407.649	8.45
407.855	8.18
408.061	8.08
408.268	8.06
408.474	7.95
408.68	8.02
408.887	7.95
409.093	7.91
409.299	7.99
409.505	7.91
409.712	8.02
409.918	7.94
410.124	8.23
410.33	8.2
410.537	8.11
410.743	8.1
410.949	8.07
411.155	7.92
411.361	7.85
411.567	7.78
411.773	7.74
411.98	7.68
412.186	7.52
412.392	7.23
412.598	7.3
412.804	7.53
413.01	7.54
413.216	7.36
413.422	7.55
413.628	7.66
413.834	7.54
414.04	7.51
414.246	7.41
414.452	7.5
414.658	7.67
414.864	7.67
415.07	7.56
415.275	7.54
415.481	7.6
415.687	7.43
415.893	7.29
416.099	7.4
416.305	7.39
416.511	7.39
416.716	7.38
416.922	7.47
417.128	7.5
417.334	7.48
417.539	7.43
417.745	7.6
417.951	7.6
418.157	7.69
418.362	7.61
418.568	7.72
418.774	7.78
418.979	7.75
419.185	7.68
419.391	7.58
419.596	7.56
419.802	7.59
420.008	7.45
420.213	6.84
420.419	6.77
420.624	6.81
420.83	6.73
421.035	6.72
421.241	6.75
421.446	6.7
421.652	6.68
421.857	6.66
422.063	6.64
422.268	6.6
422.474	7.19
422.679	7.21
422.885	7.17
423.09	7.15
423.295	7.13
423.501	7.13
423.706	7.12
423.911	7.1
424.117	7.14
424.322	7.14
424.527	7.1
424.733	7.05
424.938	7
425.143	6.95
425.349	6.92
425.554	6.89
425.759	6.78
425.964	6.74
426.169	6.8
426.375	6.67
426.58	6.69
426.785	6.62
426.99	6.49
427.195	6.43
427.4	6.41
427.605	6.36
427.811	6.3
428.016	6.25
428.221	6.25
428.426	5.99
428.631	5.9
428.836	5.73
429.041	5.73
429.246	5.73
429.451	5.7
429.656	5.7
429.861	5.69
430.066	5.67
430.271	5.78
430.476	5.79
430.681	5.93
430.886	5.99
431.09	6.14
431.295	6.23
431.5	6.27
431.705	6.42
431.91	6.44
432.115	6.49
432.32	6.43
432.524	6.33
432.729	6.34
432.934	6.3
433.139	6.39
433.343	6.2
433.548	6.23
433.753	6.29
433.958	6.23
434.162	6.26
434.367	6.32
434.572	6.41
434.776	6.54
434.981	6.49
435.186	6.54
435.39	6.57
435.595	6.79
435.799	6.74
436.004	6.79
436.209	6.77
436.413	6.73
436.618	6.6
436.822	6.51
437.027	6.4
437.231	6.33
437.436	6.24
437.64	6.21
437.845	6.12
438.049	6.23
438.253	6.23
438.458	6.32
438.662	6.34
438.867	6.42
439.071	6.48
439.275	6.6
439.48	6.65
439.684	6.66
439.888	6.65
440.093	6.65
440.297	6.46
440.501	6.42
440.706	6.36
440.91	6.41
441.114	6.33
441.318	6.37
441.523	6.34
441.727	6.35
441.931	6.42
442.135	6.4
442.339	6.35
442.543	6.48
442.748	6.45
442.952	6.49
443.156	6.38
443.36	6.49
443.564	6.37
443.768	6.21
443.972	6.23
444.176	6.19
444.38	6.23
444.584	6.29
444.788	6.22
444.992	6.23
445.196	6.19
445.4	6.26
445.604	6.18
445.808	6.3
446.012	6.38
446.216	6.37
446.42	6.36
446.624	6.34
446.828	6.29
447.032	6.3
447.235	6.26
447.439	6.24
447.643	6.19
447.847	6.16
448.051	6
448.254	5.86
448.458	5.76
448.662	5.76
448.866	5.61
449.069	5.64
449.273	5.59
449.477	5.63
449.681	5.56
449.884	5.56
450.088	5.53
450.292	5.69
450.495	5.75
450.699	5.77
450.902	5.72
451.106	5.8
451.31	5.7
451.513	5.72
451.717	5.63
451.92	5.67
452.124	5.71
452.327	5.76
452.531	5.72
452.734	5.72
452.938	5.8
453.141	5.66
453.345	5.77
453.548	5.87
453.752	5.89
453.955	5.9
454.158	5.88
454.362	5.75
454.565	5.69
454.769	5.63
454.972	5.6
455.175	5.51
455.379	5.58
455.582	5.48
455.785	5.36
455.988	5.32
456.192	5.31
456.395	5.35
456.598	5.37
456.801	5.47
457.005	5.54
457.208	5.6
457.411	5.56
457.614	5.64
457.817	5.65
458.021	5.73
458.224	5.78
458.427	5.76
458.63	5.75
458.833	5.77
459.036	5.77
459.239	5.67
459.442	5.66
459.645	5.69
459.848	5.61
460.051	5.65
460.254	5.56
460.457	5.52
460.66	5.52
460.863	5.51
461.066	5.45
461.269	5.47
461.472	5.55
461.675	5.56
461.878	5.63
462.081	5.65
462.284	5.58
462.486	5.63
462.689	5.75
462.892	5.79
463.095	5.78
463.298	5.89
463.5	5.82
463.703	5.64
463.906	5.59
464.109	5.53
464.311	5.58
464.514	5.74
464.717	5.87
464.92	5.69
465.122	5.65
465.325	5.74
465.528	5.76
465.73	5.78
465.933	5.95
466.135	6.02
466.338	6.12
466.541	6.19
466.743	6.07
466.946	6.03
467.148	6.04
467.351	6.07
467.553	6.01
467.756	5.98
467.958	6.03
468.161	6.05
468.363	6.03
468.566	5.85
468.768	5.89
468.971	5.95
469.173	5.97
469.375	6.03
469.578	5.93
469.78	5.9
469.983	5.94
470.185	5.9
470.387	5.84
470.59	5.88
470.792	5.92
470.994	5.83
471.196	5.84
471.399	5.9
471.601	5.89
471.803	5.95
472.005	6.02
472.208	6.05
472.41	6.01
472.612	5.98
472.814	5.94
473.016	6.03
473.218	6.04
473.421	6.03
473.623	5.92
473.825	6.04
474.027	6.18
474.229	6.15
474.431	6.12
474.633	6.2
474.835	6.14
475.037	6.23
475.239	6.14
475.441	6.15
475.643	6.16
475.845	6.16
476.047	6.11
476.249	6.06
476.451	6
476.653	5.99
476.855	5.9
477.057	5.99
477.258	5.98
477.46	6.08
477.662	6.13
477.864	6.03
478.066	6.08
478.268	6.07
478.469	6.04
478.671	6.17
478.873	6.18
479.075	6.23
479.276	6.23
479.478	6.23
479.68	6.18
479.882	6.2
480.083	6.22
480.285	6.26
480.487	6.32
480.688	6.33
480.89	6.29
481.091	6.3
481.293	6.3
481.495	6.32
481.696	6.28
481.898	6.35
482.099	6.27
482.301	6.34
482.502	6.36
482.704	6.34
482.905	6.37
483.107	6.34
483.308	6.35
483.51	6.37
483.711	6.35
483.913	6.37
484.114	6.36
484.315	6.38
484.517	6.36
484.718	6.36
484.92	6.37
485.121	6.37
485.322	6.4
485.524	6.41
485.725	6.4
485.926	6.45
486.127	6.46
486.329	6.45
486.53	6.46
486.731	6.47
486.932	6.47
487.134	6.46
487.335	6.45
487.536	6.43
487.737	6.42
487.938	6.45
488.139	6.43
488.341	6.44
488.542	6.48
488.743	6.52
488.944	6.52
489.145	6.56
489.346	6.58
489.547	6.61
489.748	6.7
489.949	6.7
490.15	6.62
490.351	6.6
490.552	6.59
490.753	6.59
490.954	6.56
491.155	6.54
491.356	6.54
491.557	6.58
491.758	6.61
491.959	6.57
492.159	6.65
492.36	6.71
492.561	6.77
492.762	6.76
492.963	6.71
493.164	6.72
493.364	6.73
493.565	6.69
493.766	6.61
493.967	6.58
494.167	6.54
494.368	6.44
494.569	6.55
494.769	6.59
494.97	6.66
495.171	6.78
495.371	6.84
495.572	6.89
495.773	6.93
495.973	6.97
496.174	7.01
496.375	7.07
496.575	7.17
496.776	7.14
496.976	7.13
497.177	7.18
497.377	7.19
497.578	7.25
497.778	7.2
497.979	7.22
498.179	7.27
498.38	7.27
498.58	7.36
498.78	7.32
498.981	7.32
499.181	7.38
499.382	7.42
499.582	7.42
499.782	7.46
499.983	7.58
500.183	7.59
500.383	7.65
500.584	7.71
500.784	7.64
500.984	7.74
501.184	7.76
501.385	7.8
501.585	7.75
501.785	7.85
501.985	7.94
502.185	8.01
502.386	8.08
502.586	8.1
502.786	8.24
502.986	8.32
503.186	8.31
503.386	8.39
503.586	8.47
503.786	8.56
503.987	8.62
504.187	8.59
504.387	8.71
504.587	8.78
504.787	8.92
504.987	8.95
505.187	9.05
505.387	9.16
505.587	9.25
505.786	9.39
505.986	9.53
506.186	9.65
506.386	9.88
506.586	9.95
506.786	10.18
506.986	10.19
507.186	10.3
507.386	10.46
507.585	10.53
507.785	10.68
507.985	10.73
508.185	10.78
508.384	10.81
508.584	10.83
508.784	10.96
508.984	11.04
509.183	11.19
509.383	11.24
509.583	11.32
509.782	11.5
509.982	11.57
510.182	11.65
510.381	11.86
510.581	11.98
510.781	12.14
510.98	12.19
511.18	12.24
511.379	12.36
511.579	12.43
511.778	12.54
511.978	12.57
512.177	12.73
512.377	12.91
512.576	12.93
512.776	13.05
512.975	13.18
513.175	13.31
513.374	13.5
513.573	13.72
513.773	13.9
513.972	13.99
514.172	14.24
514.371	14.42
514.57	14.44
514.77	14.58
514.969	14.82
515.168	14.97
515.367	15.11
515.567	15.25
515.766	15.26
515.965	15.39
516.164	15.58
516.364	15.68
516.563	15.81
516.762	16.05
516.961	16.19
517.16	16.33
517.359	16.47
517.559	16.68
517.758	16.81
517.957	16.92
518.156	17.1
518.355	17.26
518.554	17.43
518.753	17.5
518.952	17.58
519.151	17.8
519.35	17.87
519.549	17.97
519.748	18.03
519.947	18.21
520.146	18.4
520.345	18.56
520.544	18.68
520.743	18.83
520.942	18.98
521.141	19.25
521.339	19.33
521.538	19.48
521.737	19.66
521.936	19.93
522.135	20.06
522.333	20.27
522.532	20.34
522.731	20.62
522.93	20.71
523.129	20.95
523.327	21.02
523.526	21.26
523.725	21.43
523.923	21.56
524.122	21.63
524.321	21.75
524.519	21.87
524.718	22.04
524.917	22.14
525.115	22.36
525.314	22.45
525.512	22.67
525.711	22.78
525.909	22.89
526.108	23.07
526.306	23.27
526.505	23.39
526.703	23.57
526.902	23.76
527.1	23.86
527.299	23.97
527.497	24.13
527.696	24.19
527.894	24.28
528.092	24.4
528.291	24.5
528.489	24.56
528.688	24.66
528.886	24.74
529.084	24.82
529.283	24.93
529.481	25.02
529.679	25.09
529.877	25.18
530.076	25.3
530.274	25.43
530.472	25.5
530.67	25.7
530.869	25.84
531.067	25.95
531.265	26.08
531.463	26.25
531.661	26.4
531.859	26.54
532.057	26.73
532.255	26.83
532.454	26.95
532.652	27.06
532.85	27.1
533.048	27.19
533.246	27.27
533.444	27.35
533.642	27.38
533.84	27.4
534.038	27.52
534.236	27.57
534.434	27.64
534.632	27.7
534.83	27.81
535.027	27.81
535.225	27.88
535.423	28.02
535.621	28.09
535.819	28.2
536.017	28.32
536.215	28.36
536.412	28.42
536.61	28.54
536.808	28.66
537.006	28.77
537.203	28.94
537.401	29.12
537.599	29.18
537.797	29.3
537.994	29.41
538.192	29.55
538.39	29.72
538.587	29.93
538.785	30.01
538.983	30.21
539.18	30.25
539.378	30.39
539.575	30.51
539.773	30.71
539.97	30.92
540.168	31.05
540.366	31.18
540.563	31.27
540.761	31.39
540.958	31.53
541.155	31.58
541.353	31.72
541.55	31.85
541.748	31.96
541.945	32.03
542.143	32.08
542.34	32.2
542.537	32.31
542.735	32.41
542.932	32.43
543.129	32.55
543.327	32.73
543.524	32.98
543.721	33.15
543.919	33.37
544.116	33.58
544.313	33.84
544.51	34.05
544.708	34.32
544.905	34.58
545.102	34.89
545.299	35.1
545.496	35.29
545.693	35.31
545.891	35.34
546.088	35.39
546.285	35.37
546.482	35.29
546.679	35.21
546.876	35.07
547.073	34.96
547.27	34.79
547.467	34.72
547.664	34.53
547.861	34.4
548.058	34.38
548.255	34.17
548.452	34.08
548.649	34.08
548.846	34.1
549.043	34.09
549.24	34.1
549.437	34.11
549.633	33.96
549.83	33.9
550.027	33.94
550.224	33.83
550.421	33.82
550.618	33.82
550.814	33.7
551.011	33.61
551.208	33.52
551.405	33.42
551.601	33.42
551.798	33.48
551.995	33.46
552.191	33.47
552.388	33.46
552.585	33.49
552.781	33.43
552.978	33.47
553.175	33.41
553.371	33.4
553.568	33.46
553.764	33.58
553.961	33.48
554.157	33.5
554.354	33.37
554.55	33.45
554.747	33.5
554.943	33.47
555.14	33.53
555.336	33.61
555.533	33.61
555.729	33.55
555.926	33.48
556.122	33.57
556.318	33.51
556.515	33.59
556.711	33.6
556.907	33.56
557.104	33.68
557.3	33.65
557.496	33.63
557.693	33.62
557.889	33.68
558.085	33.64
558.281	33.61
558.478	33.69
558.674	33.65
558.87	33.63
559.066	33.58
559.262	33.4
559.459	33.49
559.655	33.48
559.851	33.61
560.047	33.53
560.243	33.46
560.439	33.47
560.635	33.47
560.831	33.51
561.027	33.54
561.223	33.64
561.419	33.87
561.615	33.95
561.811	33.95
562.007	33.83
562.203	33.99
562.399	34.04
562.595	34.04
562.791	34.03
562.987	34.18
563.183	34.18
563.379	34.22
563.575	34.26
563.771	34.1
563.966	34.22
564.162	34.39
564.358	34.42
564.554	34.54
564.75	34.72
564.945	34.83
565.141	34.77
565.337	34.7
565.533	34.73
565.728	34.82
565.924	34.77
566.12	34.77
566.315	34.79
566.511	34.73
566.707	34.76
566.902	34.75
567.098	34.73
567.293	34.8
567.489	35
567.684	35.09
567.88	35.02
568.076	35.17
568.271	35.17
568.467	35.19
568.662	35.18
568.858	35.11
569.053	35.06
569.248	35.11
569.444	35.24
569.639	35.1
569.835	35.19
570.03	35.13
570.225	35.15
570.421	35.22
570.616	35.3
570.812	35.36
571.007	35.41
571.202	35.6
571.397	35.68
571.593	35.59
571.788	35.67
571.983	35.58
572.178	35.72
572.374	35.8
572.569	35.84
572.764	35.83
572.959	35.88
573.154	36.01
573.35	35.88
573.545	35.86
573.74	35.88
573.935	35.84
574.13	35.87
574.325	35.85
574.52	35.91
574.715	35.94
574.91	36.03
575.105	36.07
575.3	35.97
575.495	36.12
575.69	36.28
575.885	36.32
576.08	36.46
576.275	36.64
576.47	36.66
576.665	36.78
576.86	37.01
577.055	37.04
577.25	37.15
577.444	37.3
577.639	37.31
577.834	37.41
578.029	37.64
578.224	37.83
578.418	37.88
578.613	38.13
578.808	38.16
579.003	38.01
579.197	38.11
579.392	38.04
579.587	38.11
579.781	38.24
579.976	38.11
580.171	38.11
580.365	38.04
580.56	37.93
580.755	37.87
580.949	37.81
581.144	37.79
581.338	37.75
581.533	37.83
581.727	37.92
581.922	37.9
582.116	37.98
582.311	38.07
582.505	38.04
582.7	38.03
582.894	38.11
583.089	38.15
583.283	38.31
583.478	38.4
583.672	38.55
583.866	38.55
584.061	38.58
584.255	38.67
584.449	38.68
584.644	38.74
584.838	38.81
585.032	38.87
585.226	39
585.421	39.07
585.615	39.1
585.809	39.16
586.003	39.33
586.198	39.28
586.392	39.44
586.586	39.4
586.78	39.44
586.974	39.63
587.168	39.57
587.363	39.52
587.557	39.27
587.751	39.25
587.945	39.09
588.139	38.84
588.333	38.91
588.527	38.62
588.721	38.64
588.915	38.62
589.109	38.55
589.303	38.47
589.497	38.49
589.691	38.66
589.885	38.7
590.079	38.72
590.273	38.94
590.466	39.03
590.66	39.25
590.854	39.25
591.048	39.39
591.242	39.38
591.436	39.61
591.629	39.7
591.823	39.83
592.017	39.8
592.211	40.01
592.404	39.99
592.598	39.82
592.792	39.75
592.986	39.68
593.179	39.77
593.373	39.79
593.567	39.71
593.76	39.66
593.954	39.63
594.147	39.7
594.341	39.44
594.535	39.38
594.728	39.4
594.922	39.35
595.115	39.32
595.309	39.12
595.502	39.14
595.696	39.17
595.889	39.1
596.083	39.08
596.276	39.06
596.47	39.13
596.663	39.03
596.856	38.98
597.05	39.04
597.243	39.08
597.437	39.07
597.63	39.14
597.823	39.05
598.017	39.2
598.21	39.29
598.403	39.3
598.596	39.36
598.79	39.49
598.983	39.67
599.176	39.62
599.369	39.7
599.563	39.84
599.756	39.71
599.949	39.85
600.142	39.76
600.335	39.66
600.528	39.72
600.722	39.73
600.915	39.79
601.108	39.78
601.301	39.88
601.494	39.76
601.687	39.83
601.88	39.69
602.073	39.67
602.266	39.54
602.459	39.55
602.652	39.49
602.845	39.41
603.038	39.44
603.231	39.42
603.424	39.32
603.617	39.46
603.809	39.43
604.002	39.51
604.195	39.44
604.388	39.52
604.581	39.58
604.774	39.49
604.966	39.56
605.159	39.51
605.352	39.57
605.545	39.62
605.737	39.61
605.93	39.65
606.123	39.75
606.316	39.83
606.508	39.86
606.701	39.88
606.894	40.16
607.086	40.3
607.279	40.49
607.471	40.62
607.664	40.89
607.857	41.29
608.049	41.71
608.242	42.38
608.434	42.95
608.627	43.94
608.819	44.87
609.012	45.85
609.204	47.1
609.397	48.41
609.589	49.75
609.782	51.27
609.974	52.8
610.166	54.38
610.359	55.58
610.551	56.98
610.743	58.01
610.936	59.03
611.128	59.82
611.32	60.38
611.513	60.44
611.705	60.36
611.897	60.03
612.09	59.47
612.282	58.78
612.474	58.18
612.666	57.32
612.858	56.53
613.051	55.56
613.243	54.8
613.435	53.98
613.627	53.4
613.819	52.94
614.011	52.47
614.203	51.84
614.395	51.11
614.588	50.32
614.78	49.54
614.972	48.98
615.164	48.44
615.356	47.92
615.548	47.13
615.74	46.6
615.932	46.02
616.124	45.26
616.315	44.8
616.507	44.3
616.699	44.07
616.891	44.05
617.083	43.73
617.275	43.58
617.467	43.16
617.659	42.96
617.85	42.74
618.042	42.59
618.234	42.44
618.426	42.27
618.618	42.22
618.809	41.98
619.001	41.87
619.193	41.84
619.384	41.47
619.576	41.53
619.768	41.63
619.959	41.51
620.151	41.49
620.343	41.57
620.534	41.59
620.726	41.7
620.917	41.88
621.109	41.72
621.301	41.82
621.492	42.03
621.684	41.92
621.875	41.97
622.067	41.99
622.258	42.11
622.45	42.2
622.641	42.25
622.832	42.24
623.024	42.17
623.215	42.34
623.407	42.14
623.598	42.14
623.789	42.26
623.981	42.36
624.172	42.5
624.363	42.57
624.555	42.78
624.746	42.64
624.937	42.65
625.129	42.7
625.32	42.7
625.511	42.72
625.702	42.69
625.893	42.65
626.085	42.49
626.276	42.64
626.467	42.43
626.658	42.24
626.849	42.29
627.04	42.31
627.231	42.41
627.422	42.25
627.614	42.23
627.805	42.34
627.996	42.36
628.187	42.65
628.378	42.68
628.569	42.87
628.76	43.07
628.951	43.4
629.142	43.49
629.332	43.53
629.523	43.92
629.714	44.24
629.905	44.33
630.096	44.55
630.287	44.37
630.478	44.35
630.669	44.31
630.859	44.21
631.05	44.03
631.241	43.92
631.432	43.76
631.623	43.55
631.813	43.42
632.004	43.29
632.195	43
632.385	42.77
632.576	42.55
632.767	42.29
632.957	42.09
633.148	41.95
633.339	41.69
633.529	41.65
633.72	41.39
633.91	41.03
634.101	40.78
634.292	40.76
634.482	40.73
634.673	40.67
634.863	40.74
635.054	40.81
635.244	40.74
635.435	40.72
635.625	40.63
635.815	40.55
636.006	40.64
636.196	40.56
636.387	40.34
636.577	40.43
636.767	40.35
636.958	40.3
637.148	40.26
637.338	40.33
637.529	40.31
637.719	40.35
637.909	40.48
638.099	40.26
638.29	40.42
638.48	40.58
638.67	40.53
638.86	40.53
639.05	40.55
639.241	40.33
639.431	40.2
639.621	40.21
639.811	40.39
640.001	40.48
640.191	40.51
640.381	40.58
640.571	40.65
640.761	40.48
640.951	40.61
641.141	40.44
641.331	40.47
641.521	40.33
641.711	40.56
641.901	40.39
642.091	40.21
642.281	40.18
642.471	40
642.661	39.99
642.851	40.14
643.041	40.09
643.231	40.29
643.42	40.43
643.61	40.66
643.8	40.6
643.99	40.42
644.18	40.47
644.369	40.77
644.559	40.95
644.749	40.78
644.939	40.7
645.128	40.6
645.318	40.41
645.508	40.35
645.697	40.28
645.887	40.25
646.076	40.35
646.266	40.36
646.456	40.35
646.645	40.42
646.835	40.41
647.024	40.47
647.214	40.71
647.403	40.84
647.593	40.92
647.782	40.95
647.972	41.09
648.161	41.09
648.351	41.21
648.54	41.16
648.73	41.09
648.919	41.25
649.108	41.08
649.298	41.2
649.487	41.19
649.677	41.28
649.866	41.24
650.055	41.2
650.244	41.35
650.434	41.42
650.623	41.43
650.812	41.69
651.002	41.79
651.191	42.03
651.38	41.76
651.569	41.81
651.758	41.91
651.947	42.03
652.137	42.06
652.326	41.99
652.515	41.69
652.704	41.79
652.893	41.43
653.082	41.22
653.271	41.15
653.46	41.22
653.649	41.44
653.838	41.19
654.027	40.78
654.216	40.62
654.405	40.25
654.594	40.75
654.783	40.76
654.972	40.84
655.161	40.86
655.35	40.94
655.539	40.96
655.728	40.65
655.916	40.89
656.105	41.16
656.294	41.26
656.483	41.68
656.672	41.25
656.86	41.02
657.049	40.97
657.238	40.98
657.427	41.01
657.615	40.83
657.804	41.08
657.993	41.01
658.181	41.05
658.37	41.11
658.559	41.01
658.747	41.22
658.936	41.36
659.125	41.03
659.313	41.32
659.502	41.2
659.69	41.27
659.879	41.16
660.067	41.21
660.256	41
660.444	41.02
660.633	40.95
660.821	40.85
661.01	40.79
661.198	41.31
661.387	41.28
661.575	41.37
661.763	41.68
661.952	41.7
662.14	41.65
662.328	41.9
662.517	41.75
662.705	41.96
662.893	41.93
663.082	42.12
663.27	42.1
663.458	41.89
663.646	41.93
663.834	41.61
664.023	41.61
664.211	41.38
664.399	41.49
664.587	41.26
664.775	41.11
664.963	41.2
665.152	41.01
665.34	40.98
665.528	41.01
665.716	41.04
665.904	40.88
666.092	40.76
666.28	40.9
666.468	40.63
666.656	40.98
666.844	41.08
667.032	40.95
667.22	40.95
667.408	40.91
667.596	40.59
667.784	40.6
667.971	40.98
668.159	41.17
668.347	41.15
668.535	41.21
668.723	41.04
668.911	41.08
669.098	41.06
669.286	41.08
669.474	40.95
669.662	41.19
669.849	41.22
670.037	41.19
670.225	41.02
670.413	40.89
670.6	40.98
670.788	40.98
670.976	40.86
671.163	40.93
671.351	40.8
671.538	40.96
671.726	40.83
671.913	40.65
672.101	40.44
672.289	40.5
672.476	40.56
672.664	40.47
672.851	40.47
673.039	40.28
673.226	40.54
673.413	40.69
673.601	40.39
673.788	40.53
673.976	40.44
674.163	40.45
674.35	40.43
674.538	40.65
674.725	40.78
674.912	41.05
675.1	41.16
675.287	40.96
675.474	40.97
675.662	41.06
675.849	40.95
676.036	41.08
676.223	41.27
676.411	41.38
676.598	41.2
676.785	41.28
676.972	40.9
677.159	41.07
677.346	41.14
677.533	40.97
677.721	41.36
677.908	41.54
678.095	41.56
678.282	41.52
678.469	41.2
678.656	41.15
678.843	40.97
679.03	41.16
679.217	41.34
679.404	41.31
679.591	41.47
679.778	41.35
679.964	41.22
680.151	41.29
680.338	41.12
680.525	41.34
680.712	41.52
680.899	41.79
681.086	41.57
681.272	41.32
681.459	41.16
681.646	41.22
681.833	41.19
682.02	41.41
682.206	41.32
682.393	41.64
682.58	41.37
682.766	41.54
682.953	41.36
683.14	41.69
683.326	41.9
683.513	42.04
683.7	41.86
683.886	41.72
684.073	41.52
684.259	41.69
684.446	41.59
684.632	42.13
684.819	41.96
685.005	42.26
685.192	42.33
685.378	42.23
685.565	42.34
685.751	42.81
685.938	43.07
686.124	43.12
686.31	43.17
686.497	43.12
686.683	43.05
686.87	42.73
687.056	42.51
687.242	42.01
687.429	42.25
687.615	41.86
687.801	41.56
687.987	41.56
688.174	41.7
688.36	41.76
688.546	41.69
688.732	41.57
688.918	41.82
689.105	41.69
689.291	42.11
689.477	41.76
689.663	42.05
689.849	42.11
690.035	42.05
690.221	42.02
690.407	41.92
690.593	41.9
690.779	41.94
690.965	42.02
691.151	42.19
691.337	42.22
691.523	42.12
691.709	42.5
691.895	42.29
692.081	42.35
692.267	41.92
692.453	41.79
692.639	42.13
692.825	42.14
693.011	42.22
693.196	42.31
693.382	42.27
693.568	42.66
693.754	42.22
693.94	42.23
694.125	42.28
694.311	42.46
694.497	42.03
694.682	41.77
694.868	41.35
695.054	41.11
695.239	41.18
695.425	41.08
695.611	40.74
695.796	40.84
695.982	40.85
696.168	40.64
696.353	40.64
696.539	41.07
696.724	40.97
696.91	41.3
697.095	41.54
697.281	41.3
697.466	41.21
697.652	41.28
697.837	41.27
698.023	41.22
698.208	41.18
698.393	41.25
698.579	41.37
698.764	41.54
698.949	41.41
699.135	41.15
699.32	41.17
699.505	41.3
699.691	41.39
699.876	41.46
700.061	41.76
700.246	41.69
700.432	41.79
700.617	41.73
700.802	41.6
700.987	41.59
701.172	42.26
701.358	42.29
701.543	42.32
701.728	42.34
701.913	42.03
702.098	41.72
702.283	41.98
702.468	41.66
702.653	41.51
702.838	41.7
703.023	42.08
703.208	41.56
703.393	41.31
703.578	41.43
703.763	41.55
703.948	41.87
704.133	42.13
704.318	42.3
704.503	42.58
704.688	42.99
704.873	43.18
705.057	43.11
705.242	43.24
705.427	43.72
705.612	44.09
705.797	44.76
705.981	45.27
706.166	45.51
706.351	45.75
706.536	46.32
706.72	46.18
706.905	46.33
707.09	46.48
707.274	47.03
707.459	47.19
707.644	47.25
707.828	47.07
708.013	47.17
708.197	47.28
708.382	46.91
708.567	46.72
708.751	46.59
708.936	46.25
709.12	46.09
709.305	45.67
709.489	45.39
709.673	44.97
709.858	44.63
710.042	44.14
710.227	44.22
710.411	44.56
710.596	44.42
710.78	44.67
710.964	44.88
711.149	44.94
711.333	45.05
711.517	44.99
711.702	44.8
711.886	44.9
712.07	45.03
712.254	44.61
712.438	44.43
712.623	44.15
712.807	43.71
712.991	43.51
713.175	43.18
713.359	42.31
713.544	41.91
713.728	41.53
713.912	41.08
714.096	40.9
714.28	40.72
714.464	40.36
714.648	40.44
714.832	40.54
715.016	40.22
715.2	40.49
715.384	40.84
715.568	41.13
715.752	41.38
715.936	41.51
716.12	41.37
716.304	41.37
716.488	41.57
716.671	41.55
716.855	41.41
717.039	41.5
717.223	41.14
717.407	40.94
717.59	41.12
717.774	41.12
717.958	40.97
718.142	41.01
718.325	41.2
718.509	41.08
718.693	40.86
718.877	40.65
719.06	40.32
719.244	40.22
719.428	40.2
719.611	40.01
719.795	39.68
719.978	39.7
720.162	39.37
720.345	39.01
720.529	38.93
720.713	39.14
720.896	39.16
721.08	39.21
721.263	39.09
721.446	39.11
721.63	38.96
721.813	39.24
721.997	38.83
722.18	38.59
722.364	38.82
722.547	38.3
722.73	38.07
722.914	38.6
723.097	39.33
723.28	39.9
723.464	39.77
723.647	40.03
723.83	39.77
724.013	40.11
724.197	40.21
724.38	39.77
724.563	40
724.746	40.41
724.929	40.3
725.112	39.84
725.296	39.67
725.479	39.82
725.662	39.52
725.845	40.15
726.028	40.13
726.211	40.63
726.394	40.97
726.577	41.05
726.76	40.69
726.943	39.97
727.126	40.06
727.309	40.1
727.492	40.53
727.675	40.66
727.858	40.59
728.041	40.94
728.224	41.04
728.407	40.84
728.589	40.95
728.772	40.85
728.955	41.28
729.138	41.01
729.321	40.65
729.503	40.02
729.686	40.1
729.869	40.06
730.052	39.9
730.234	39.75
730.417	39.83
730.6	39.47
730.782	39.98
730.965	39.93
731.148	40.31
731.33	40.59
731.513	40.65
731.695	40.55
731.878	40.44
732.061	40.64
732.243	40.68
732.426	40.74
732.608	40.91
732.791	40.65
732.973	40.27
733.156	40.07
733.338	40.35
733.52	40.71
733.703	40.64
733.885	40.62
734.068	40.51
734.25	40.2
734.432	39.94
734.615	40.03
734.797	39.83
734.979	40.13
735.162	40.03
735.344	39.87
735.526	39.66
735.708	39.56
735.891	39.76
736.073	38.94
736.255	38.85
736.437	39.05
736.619	39.08
736.802	38.75
736.984	38.57
737.166	38.44
737.348	38.19
737.53	38.2
737.712	38.4
737.894	38.48
738.076	39.02
738.258	39.04
738.44	38.45
738.622	38.38
738.804	39.09
738.986	39.59
739.168	39.91
739.35	39.78
739.532	39.96
739.714	40.23
739.896	40.24
740.078	40.59
740.259	40.86
740.441	41.49
740.623	41.76
740.805	41.18
740.987	41.2
741.168	40.62
741.35	40.77
741.532	40.56
741.714	40.07
741.895	39.51
742.077	39.07
742.259	39.28
742.44	39.57
742.622	39.59
742.804	39.73
742.985	39.09
743.167	39.31
743.348	39.44
743.53	39.97
743.711	40.24
743.893	40.35
744.075	40.23
744.256	39.82
744.438	39.25
744.619	38.7
744.8	38.5
744.982	38.49
745.163	38.66
745.345	38.21
745.526	37.94
745.707	37.82
745.889	38.45
746.07	38.55
746.252	38.79
746.433	39.04
746.614	39.72
746.795	39.7
746.977	40.27
747.158	40.74
747.339	41.39
747.52	41.04
747.702	41.23
747.883	40.61
748.064	40.58
748.245	40.26
748.426	40.35
748.607	39.92
748.788	40.54
748.97	40.5
749.151	39.95
749.332	40.02
749.513	40.3
749.694	40.13
749.875	40.33
750.056	40.34
750.237	41.28
750.418	41.08
750.599	40.75
750.78	40.55
750.96	40.93
751.141	41.12
751.322	40.09
751.503	39.86
751.684	39.91
751.865	39.7
752.046	39.59
752.226	38.93
752.407	39.18
752.588	39.68
752.769	39.8
752.949	39.21
753.13	39.36
753.311	39.32
753.492	39.66
753.672	39.55
753.853	39.79
754.034	39.87
754.214	39.88
754.395	39.19
754.575	39.18
754.756	38.99
754.937	39.21
755.117	39.36
755.298	40.02
755.478	40.03
755.659	40.01
755.839	40.37
756.02	40.43
756.2	40.43
756.381	41.01
756.561	40.4
756.741	40.3
756.922	40.85
757.102	40.78
757.283	41.13
757.463	41
757.643	41.08
757.823	40.45
758.004	40.47
758.184	40.06
758.364	40.13
758.545	41.02
758.725	40.65
758.905	39.74
759.085	39.17
759.265	38.27
759.446	37.5
759.626	37.4
759.806	37.12
759.986	36.41
760.166	36.61
760.346	36.13
760.526	36.15
760.706	36.53
760.886	36.81
761.066	36.89
761.246	37.4
761.426	38.11
761.606	38.3
761.786	38.65
761.966	39.37
762.146	39.23
762.326	40.22
762.506	39.58
762.686	39.5
762.866	39.54
763.046	39.31
763.225	39.51
763.405	39.32
763.585	38.9
763.765	39.17
763.945	38.79
764.124	38.7
764.304	38.41
764.484	38.29
764.664	38.31
764.843	38.54
765.023	38.83
765.203	38.52
765.382	38.37
765.562	38.71
765.741	38.25
765.921	38.92
766.101	39.22
766.28	38.46
766.46	39.04
766.639	39.83
766.819	39.93
766.998	39.93
767.178	39.36
767.357	39.66
767.537	39.43
767.716	39.8
767.896	39.63
768.075	39.46
768.254	39.52
768.434	39.73
768.613	39.11
768.792	38.51
768.972	38.73
769.151	39.48
769.33	39.14
769.51	39.51
769.689	39.95
769.868	39.89
770.047	39.87
770.226	40.45
770.406	39.79
770.585	39.92
770.764	40.13
770.943	40.29
771.122	40.15
771.301	40.84
771.48	40.87
771.66	40
771.839	40.07
772.018	39.68
772.197	39.22
772.376	39.89
772.555	39.9
772.734	39.59
772.913	38.88
773.092	39.91
773.271	39.75
773.449	39.03
773.628	39.17
773.807	38.7
773.986	39.07
774.165	39.41
774.344	38.89
774.523	39.15
774.701	38.77
774.88	39.08
775.059	38.26
775.238	38.09
775.417	38.59
775.595	38.29
775.774	38.83
775.953	38.74
776.131	38.99
776.31	38.55
776.489	37.24
776.667	37.55
776.846	37.19
777.025	36.88
777.203	36.75
777.382	37.16
777.56	37.19
777.739	37.21
777.917	37.87
778.096	37.83
778.274	38.52
778.453	38.48
778.631	38.49
778.81	39.46
778.988	39.19
779.166	39.41
779.345	39.54
779.523	39.49
779.702	38.63
779.88	38.07
780.058	38.36
780.237	37.7
780.415	38.5
780.593	39.19
780.771	38.4
780.95	39.14
781.128	39.08
781.306	38.24
781.484	37.88
781.662	37.8
781.841	38.12
782.019	37.23
782.197	37.52
782.375	36.49
782.553	35.39
782.731	36.35
782.909	35.69
783.087	36.1
783.265	36.32
783.443	37.14
783.621	37.64
783.799	37.53
783.977	37.74
784.155	38.54
784.333	39.32
784.511	39.58
784.689	37.95
784.867	38.4
785.045	38.59
785.223	39.02
785.4	38.74
785.578	38.98
785.756	38.2
785.934	38.9
786.112	37.89
786.289	38.54
786.467	38.1
786.645	39.76
786.823	40.02
787	39.58
787.178	38.87
787.356	39.05
787.533	38.26
787.711	38.65
787.889	38.14
788.066	37.74
788.244	36.53
788.421	37.02
788.599	35.38
788.776	35.39
788.954	34.99
789.131	35.19
789.309	34.73
789.486	35.18
789.664	35.33
789.841	35.74
790.019	36.62
790.196	38.18
790.373	37.57
790.551	38.48
790.728	36.94
790.906	37.96
791.083	36.67
791.26	37.31
791.437	36.88
791.615	36.41
791.792	35.61
791.969	35.73
792.146	34.72
792.324	36.28
792.501	36.07
792.678	37.39
792.855	35.41
793.032	37.07
793.209	37.22
793.387	37.05
793.564	37.98
793.741	38.97
793.918	38.58
794.095	38.75
794.272	38.06
794.449	38.85
794.626	38.96
794.803	40.21
794.98	40.54
795.157	40.5
795.334	40.64
795.511	39.38
795.688	38.75
795.864	38.55
796.041	38.4
796.218	38.46
796.395	37.59
796.572	37.24
796.749	36.81
796.925	36.21
797.102	36.45
797.279	36.54
797.456	37.27
797.632	37.37
797.809	37.21
797.986	37.74
798.162	37.44
798.339	37.58
798.516	38.25
798.692	39.03
798.869	38.93
799.046	38.68
799.222	37.89
799.399	37.09
799.575	37.03
799.752	37.95
799.928	37.54
800.105	37.44
800.281	36.79
800.458	36.67
800.634	36.15
800.811	36.48
800.987	36.73
801.163	37.57
801.34	39.07
801.516	38.84
801.692	38.58
801.869	38.17
802.045	39.02
802.221	39.66
802.398	38.86
802.574	38.45
802.75	38.09
802.926	36.87
803.103	37.22
803.279	37.27
803.455	36.5
803.631	36.42
803.807	37.31
803.983	37.46
804.16	38.68
804.336	39.52
804.512	39.38
804.688	40.53
804.864	41.06
805.04	40.95
805.216	39.42
805.392	39.02
805.568	38.91
805.744	38.01
805.92	38.01
806.096	37.15
806.272	35.96
806.448	37.02
806.623	36.14
806.799	36.69
806.975	36.14
807.151	37.38
807.327	38.84
807.503	38.94
807.678	40.14
807.854	39.43
808.03	39.73
808.206	40.37
808.381	40.81
808.557	41.17
808.733	39.88
808.908	40.71
809.084	40.88
809.26	39.69
809.435	38.91
809.611	38.94
809.787	38.84
809.962	38.67
810.138	38.61
810.313	37.29
810.489	37.93
810.664	39.36
810.84	37.93
811.015	37.47
811.191	38
811.366	38.17
811.542	37.43
811.717	37.63
811.892	38.19
812.068	37.96
812.243	39.04
812.419	38.68
812.594	37.38
812.769	38.4
812.944	39.03
813.12	39.92
813.295	40.29
813.47	39.22
813.645	38.92
813.821	38.38
813.996	38.04
814.171	36.65
814.346	37.28
814.521	38.05
814.697	38.44
814.872	37.08
815.047	36.95
815.222	36.42
815.397	36.04
815.572	35.64
815.747	35.21
815.922	36.15
816.097	37.18
816.272	36.49
816.447	36.66
816.622	36.17
816.797	37.35
816.972	36.28
817.147	38.15
817.322	39.59
817.496	39.13
817.671	40.04
817.846	38.53
818.021	37.55
818.196	36.79
818.371	35.5
818.545	35.38
818.72	34.99
818.895	36.27
819.069	34.98
819.244	33.98
819.419	34.99
819.594	34.85
819.768	35.15
819.943	34.81
820.117	35.32
820.292	36.31
820.467	36.24
820.641	35.85
820.816	35.56
820.99	35.91
821.165	36.65
821.339	36.77
821.514	37.02
821.688	37.06
821.863	37.46
822.037	37.3
822.212	37.29
822.386	37.62
822.56	37.54
822.735	37.68
822.909	37.82
823.084	37.72
823.258	37.4
823.432	36.87
823.606	36.83
823.781	36.63
823.955	36.61
824.129	36.5
824.303	36.38
824.478	36.77
824.652	36.86
824.826	36.66
825	36.74
825.174	37.03
825.348	37.56
825.523	37.78
825.697	38.03
825.871	37.56
826.045	37.17
826.219	36.9
826.393	36.74
826.567	36.34
826.741	36.04
826.915	35.87
827.089	35.68
827.263	35.48
827.437	35.91
827.611	36.02
827.784	36.65
827.958	36.85
828.132	37.51
828.306	37.38
828.48	36.79
828.654	36.8
828.827	36.58
829.001	36.42
829.175	36.65
829.349	36.58
829.522	36.05
829.696	36.31
829.87	37.9
830.044	36.7
830.217	36.64
830.391	37.7
830.565	37.5
830.738	37.84
830.912	37.83
831.085	37.34
831.259	35.74
831.432	35.24
831.606	34.83
831.779	32.62
831.953	32.07
832.126	31.46
832.3	30.87
832.473	30.91
832.647	31.6
832.82	32.79
832.994	32.86
833.167	34.35
833.34	35.4
833.514	35.13
833.687	35.68
833.86	36.58
834.034	36.63
834.207	37.24
834.38	37.75
834.553	37.14
834.727	36.9
834.9	38.33
835.073	37.58
835.246	37.02
835.419	36.62
835.593	36
835.766	35.95
835.939	36.78
836.112	36.52
836.285	35.58
836.458	36.69
836.631	37.26
836.804	36.72
836.977	35.75
837.15	37.07
837.323	37.81
837.496	39.09
837.669	38.2
837.842	37.9
838.015	38.79
838.188	40.44
838.361	40.63
838.533	39.04
838.706	38.55
838.879	41.06
839.052	38.93
839.225	40.57
839.398	39.71
839.57	39.74
839.743	41.81
839.916	42.1
840.088	42.57
840.261	41.19
840.434	41.76
840.607	40.87
840.779	39.72
840.952	41.1
841.124	39.33
841.297	39.5
841.47	39.66
841.642	37.54
841.815	38.3
841.987	38.83
842.16	39.46
842.332	40.64
842.505	41.2
842.677	42.8
842.85	42.06
843.022	42.87
843.194	44.11
843.367	45.3
843.539	45.98
843.712	44.39
843.884	45.33
844.056	44.98
844.229	45.31
844.401	45.24
844.573	44.63
844.745	45.94
844.918	46.06
845.09	46.17
845.262	46.83
845.434	47.09
845.606	47.31
845.779	47.6
845.951	47.92
846.123	46.11
846.295	47.55
846.467	47.6
846.639	46.18
846.811	47.9
846.983	46.49
847.155	43.13
847.327	44.08
847.499	45.41
847.671	45.07
847.843	45.76
848.015	47.52
848.187	46.38
848.359	48.69
848.531	46.41
848.703	40.91
848.875	42.94
849.047	44.14
849.218	40.04
849.39	40.42
849.562	37.69
849.734	38.87
849.905	39.89
850.077	39.96
850.249	36.15
850.421	42.67
850.592	49.31
850.764	44.87
850.936	51.09
851.107	50.68
851.279	48.39
851.451	51.27
851.622	48.93
851.794	48.04
851.965	47.54
852.137	49.54
852.308	50.76
852.48	48.37
852.651	53.13
852.823	49.1
852.994	51.32
853.166	51.41
853.337	48.66
853.509	49.77
853.68	49.49
853.851	47.6
854.023	45.61
854.194	42.11
854.365	46.39
854.537	45.16
854.708	41.65
854.879	44.56
855.05	48.28
855.222	51.88
855.393	51.13
855.564	51.81
855.735	53.68
855.906	54.54
856.078	51.75
856.249	47.27
856.42	48.26
856.591	52.95
856.762	47.37
856.933	44.24
857.104	43.81
857.275	45.36
857.446	45.14
857.617	47.98
857.788	47.88
857.959	51.65
858.13	54.2
858.301	55.06
858.472	51.07
858.643	54.87
858.814	56.39
858.985	54.52
859.155	55.46
859.326	54.02
859.497	48.47
859.668	49.65
859.839	47.54
860.009	46.82
860.18	46.79
860.351	48.86
860.522	50.48
860.692	49.03
860.863	45.12
861.034	42.11
861.204	42.72
861.375	46.44
861.546	47.04
861.716	46.76
861.887	47.82
862.057	46.63
862.228	46.71
862.398	44.52
862.569	47.85
862.739	52.64
862.91	51.35
863.08	52.8
863.251	55.29
863.421	51.84
863.592	54.11
863.762	51.4
863.932	51.35
864.103	55.31
864.273	55.35
864.443	53.84
864.614	52.57
864.784	56.02
864.954	54.81
865.125	50.33
865.295	55.1
865.465	49.61
865.635	53.11
865.805	55.65
865.976	50.92
866.146	53.42
866.316	54
866.486	52.81
866.656	54.45
866.826	55.49
866.996	61.04
867.166	57.55
867.336	62.95
867.506	60.8
867.676	56.82
867.846	57.33
868.016	53.92
868.186	51.1
868.356	52.9
868.526	51.52
868.696	48.68
868.866	45.72
869.036	47.64
869.206	45.82
869.376	46.05
869.545	46.13
869.715	48.18
869.885	48.72
870.055	51.19
870.224	50.64
870.394	48.93
870.564	52.22
870.734	52.52
870.903	47.72
871.073	50.05
871.243	49.44
871.412	49.9
871.582	47.76
871.751	50.33
871.921	46.84
872.091	48.7
872.26	48.41
872.43	45.99
872.599	49.65
872.769	51.76
872.938	51.4
873.108	52.36
873.277	51.42
873.446	54.05
873.616	50.33
873.785	55.01
873.955	52.97
874.124	54.27
874.293	53.83
874.463	54.1
874.632	56.65
874.801	53.96
874.971	55.97
875.14	57.91
875.309	53.7
875.478	57.29
875.647	52.71
875.817	53.48
875.986	59.03
876.155	62.75
876.324	59.08
876.493	59.67
876.662	62.14
876.831	60.71
877	57.39
877.17	61.22
877.339	59.87
877.508	60.22
877.677	60.46
877.846	54.39
878.015	52.16
878.184	50.57
878.352	46.7
878.521	45.99
878.69	42.49
878.859	43.45
879.028	40.3
879.197	38.36
879.366	40.04
879.534	39.83
879.703	36.94
879.872	36.14
880.041	37.33
880.21	37.19
880.378	36.55
880.547	36.14
880.716	35.28
880.884	34.82
881.053	34.31
881.222	34.25
881.39	33.95
881.559	34.19
881.727	33.73
881.896	33.28
882.065	33.32
882.233	33.75
882.402	34.01
882.57	34.15
882.739	33.89
882.907	34.59
883.076	33.21
883.244	33.3
883.412	33.86
883.581	33.89
883.749	33.66
883.918	33.01
884.086	31.65
884.254	31.63
884.423	30.75
884.591	32.18
884.759	31.08
884.927	31.61
885.096	30.24
885.264	29.93
885.432	31.08
885.6	30.85
885.769	32.53
885.937	33.91
886.105	34.15
886.273	37.47
886.441	38.94
886.609	42.35
886.777	45.15
886.945	48.03
887.113	46.83
887.281	46.24
887.449	48.12
887.617	47.98
887.785	50.21
887.953	48.7
888.121	46.92
888.289	41.15
888.457	38.14
888.625	39.61
888.793	40.74
888.961	41.98
889.129	41.68
889.296	40.92
889.464	40.37
889.632	37.93
889.8	39.86
889.967	40.03
890.135	44.51
