Data from 2938808__Reflection_03.txt Node
Date: Thu Mar 12 21:53:59 EDT 2015
User: robert
Spectrometer: USB4E03002
Autoset integration time: false
Trigger mode: 4
Integration Time (sec): 1.000000E-1
Scans to average: 10
Electric dark correction enabled: false
Nonlinearity correction enabled: false
Boxcar width: 5
Stray light correction enabled: false
XAxis mode: Wavelengths
Stop averaging: false
Number of Pixels in Spectrum: 3648
>>>>>Begin Spectral Data<<<<<
177.575	595.16
177.794	453.14
178.014	520.3
178.233	536.64
178.452	467.07
178.672	465.91
178.891	481.27
179.11	458.24
179.33	439.91
179.549	420.42
179.768	440.41
179.987	469.27
180.207	503.26
180.426	501.94
180.645	480.18
180.864	577.97
181.084	598.55
181.303	545.17
181.522	551.04
181.741	668.95
181.96	630.12
182.179	683.68
182.398	619.94
182.618	635.4
182.837	665.54
183.056	660.42
183.275	686.25
183.494	742.19
183.713	739.13
183.932	731.11
184.151	699.89
184.37	727.95
184.589	767.73
184.808	836.51
185.027	1176.08
185.246	1162.55
185.465	1234.82
185.684	980.52
185.903	758.9
186.122	833.51
186.341	971.61
186.56	921.82
186.779	911.95
186.998	956.53
187.216	910.82
187.435	719.5
187.654	550.97
187.873	555.66
188.092	510.92
188.311	695.54
188.53	794.37
188.748	851.56
188.967	862.22
189.186	840.52
189.405	745.84
189.623	737.37
189.842	693.4
190.061	827.47
190.28	893.32
190.498	1429
190.717	1110.38
190.936	996.18
191.154	756.01
191.373	750.92
191.592	770.99
191.81	771.41
192.029	715.21
192.248	1072.36
192.466	889.29
192.685	908.04
192.904	751.87
193.122	662.39
193.341	560.02
193.559	593.53
193.778	544.73
193.996	511.45
194.215	470.17
194.433	484.38
194.652	414.93
194.87	474.9
195.089	500
195.307	465.28
195.526	458.87
195.744	525.64
195.963	590.9
196.181	574.43
196.399	550.98
196.618	602.48
196.836	674.45
197.055	643.16
197.273	565.35
197.491	472.15
197.71	454.91
197.928	402.16
198.146	387.03
198.365	367.45
198.583	375.58
198.801	419.42
199.019	423.64
199.238	387.72
199.456	377.74
199.674	370.78
199.892	418.77
200.111	505.68
200.329	578.67
200.547	530.16
200.765	489.5
200.983	510.22
201.202	510.73
201.42	489.96
201.638	541.69
201.856	650
202.074	768.67
202.292	721.94
202.51	594.52
202.728	607.73
202.946	624.24
203.165	670.99
203.383	714.61
203.601	662.85
203.819	639.21
204.037	601.48
204.255	595.87
204.473	541.11
204.691	482.46
204.909	498.98
205.127	552.56
205.345	540.66
205.562	552.72
205.78	478
205.998	432.07
206.216	416.64
206.434	456.95
206.652	440.88
206.87	450.54
207.088	511.54
207.306	486.59
207.523	424.32
207.741	431.26
207.959	424.87
208.177	427.75
208.395	458.46
208.612	489.78
208.83	461.01
209.048	438.57
209.266	454.25
209.483	435.48
209.701	458.08
209.919	572.03
210.136	526.88
210.354	609.92
210.572	628.54
210.79	575.62
211.007	511.97
211.225	456.74
211.442	435.9
211.66	447.42
211.878	455.7
212.095	396.75
212.313	362.91
212.53	391.78
212.748	348.26
212.966	349.15
213.183	368.11
213.401	383.46
213.618	388.56
213.836	401.46
214.053	373.77
214.271	368.79
214.488	438.17
214.705	405.76
214.923	357.12
215.14	375.2
215.358	404.74
215.575	419.11
215.793	419.29
216.01	470.75
216.227	506.61
216.445	514.56
216.662	492.24
216.879	490.98
217.097	565.63
217.314	717.45
217.531	618.7
217.749	609.27
217.966	535.11
218.183	506.74
218.4	466.67
218.618	414.45
218.835	387.2
219.052	394.49
219.269	367.28
219.487	340.1
219.704	324.86
219.921	304.03
220.138	266.45
220.355	269.93
220.572	269.35
220.79	253.87
221.007	264.72
221.224	262.51
221.441	248.9
221.658	248.98
221.875	232.54
222.092	236.28
222.309	248.19
222.526	247.77
222.743	238.5
222.96	235.71
223.177	233.41
223.394	213.62
223.611	207.12
223.828	205.56
224.045	201.06
224.262	199.15
224.479	186.9
224.696	169.79
224.913	158.09
225.13	148.76
225.347	140.41
225.564	131.43
225.781	125.02
225.997	114.68
226.214	106
226.431	93.38
226.648	86.33
226.865	75.97
227.082	67.37
227.298	61.03
227.515	52.95
227.732	47.37
227.949	41.6
228.165	38.47
228.382	35.72
228.599	33.46
228.816	32.4
229.032	30.85
229.249	30.18
229.466	29.94
229.682	29.45
229.899	30.22
230.116	30.71
230.332	32.16
230.549	32.26
230.765	33.26
230.982	35.03
231.199	36.86
231.415	39.37
231.632	41.45
231.848	44.04
232.065	45.59
232.281	48.81
232.498	49.69
232.714	50.87
232.931	52.8
233.147	53.95
233.364	54.37
233.58	54.5
233.797	54.42
234.013	53.24
234.23	51.99
234.446	51.92
234.662	52.1
234.879	52.19
235.095	50.85
235.312	51.32
235.528	51.85
235.744	51.98
235.961	51.27
236.177	50.92
236.393	53.62
236.61	52.81
236.826	53.86
237.042	54.54
237.258	54.93
237.475	56.27
237.691	56.43
237.907	56.38
238.123	55.09
238.339	53.82
238.556	55.07
238.772	52.9
238.988	53.31
239.204	51.24
239.42	47.69
239.636	45.43
239.853	43.77
240.069	41.02
240.285	38.19
240.501	35.67
240.717	34.43
240.933	31.93
241.149	29.93
241.365	27.67
241.581	26.1
241.797	24.89
242.013	23.4
242.229	22.32
242.445	21.66
242.661	21.5
242.877	21.76
243.093	21.84
243.309	21.89
243.525	21.92
243.741	22.69
243.957	23.57
244.173	23.86
244.388	25.42
244.604	26.31
244.82	26.81
245.036	26.36
245.252	25.85
245.468	24
245.683	22.25
245.899	21.24
246.115	20.12
246.331	18.49
246.547	17.67
246.762	16.54
246.978	15.53
247.194	15.2
247.409	14.73
247.625	14.4
247.841	14.44
248.057	14.76
248.272	14.94
248.488	15.04
248.703	15.89
248.919	16.51
249.135	17.39
249.35	18.67
249.566	19.65
249.782	21.08
249.997	22.54
250.213	23.82
250.428	24
250.644	24.78
250.859	25.82
251.075	25.34
251.29	25.49
251.506	25.23
251.721	24.83
251.937	24.82
252.152	24.31
252.368	23.69
252.583	23.89
252.798	24.54
253.014	24.81
253.229	24.76
253.445	26.23
253.66	26.97
253.875	27.92
254.091	29.26
254.306	30.2
254.521	31.73
254.737	33.79
254.952	34.36
255.167	34.23
255.383	34.71
255.598	35.14
255.813	33.65
256.028	32.94
256.244	32.72
256.459	31.86
256.674	31.1
256.889	30.13
257.104	27.87
257.32	26.23
257.535	24.84
257.75	23.4
257.965	21.5
258.18	20.13
258.395	18.64
258.61	16.88
258.826	15.54
259.041	14.12
259.256	13.41
259.471	13.22
259.686	12.7
259.901	12.64
260.116	12.43
260.331	12.12
260.546	12.49
260.761	12.79
260.976	13.22
261.191	13.77
261.406	14.62
261.621	15.47
261.836	15.98
262.05	16.86
262.265	17.63
262.48	18.59
262.695	20.04
262.91	20.55
263.125	21.18
263.34	21.81
263.555	22.65
263.769	23.03
263.984	22.89
264.199	23.62
264.414	23.95
264.629	23.87
264.843	24.04
265.058	23.41
265.273	22.87
265.488	22.45
265.702	21.73
265.917	21.12
266.132	20.91
266.346	21.02
266.561	20.48
266.776	20.25
266.99	20.29
267.205	19.47
267.42	19.76
267.634	19.8
267.849	19.57
268.063	19.6
268.278	19.43
268.492	19.24
268.707	18.85
268.922	18.97
269.136	18.99
269.351	18.91
269.565	18.58
269.78	17.84
269.994	17.35
270.209	17.63
270.423	17.79
270.637	17.19
270.852	16.92
271.066	16.65
271.281	16
271.495	15.6
271.709	14.94
271.924	15.04
272.138	15.3
272.353	14.96
272.567	14.62
272.781	14.27
272.996	14.32
273.21	14.59
273.424	14.37
273.638	14.66
273.853	14.8
274.067	15.3
274.281	15.74
274.495	15.81
274.71	16.29
274.924	16.52
275.138	17.03
275.352	17.26
275.566	17.23
275.781	17.58
275.995	17.02
276.209	17.47
276.423	17.43
276.637	17.6
276.851	17.58
277.065	17.44
277.279	17.74
277.493	17.5
277.707	17.81
277.921	18.02
278.135	18.2
278.349	18.79
278.563	18.52
278.777	18.49
278.991	18.39
279.205	18.37
279.419	18.48
279.633	18.2
279.847	18.08
280.061	17.88
280.275	17.38
280.489	17.43
280.703	17.22
280.917	16.83
281.131	16.67
281.344	16.29
281.558	16.08
281.772	16.08
281.986	15.38
282.2	15.09
282.414	14.96
282.627	14.86
282.841	14.46
283.055	14.11
283.269	13.78
283.482	13.85
283.696	13.43
283.91	13.15
284.123	12.73
284.337	13
284.551	12.91
284.764	12.63
284.978	12.32
285.192	11.93
285.405	11.96
285.619	12.01
285.833	11.69
286.046	11.78
286.26	11.97
286.473	12.01
286.687	12.09
286.9	12.03
287.114	12.19
287.327	12.5
287.541	12.94
287.754	13.15
287.968	13.29
288.181	13.54
288.395	13.65
288.608	13.58
288.822	13.36
289.035	13.35
289.248	13.63
289.462	13.62
289.675	13.64
289.889	13.57
290.102	13.36
290.315	13.56
290.529	13.69
290.742	13.72
290.955	13.93
291.169	14.44
291.382	14.66
291.595	14.8
291.808	15.08
292.022	15.35
292.235	15.65
292.448	16.04
292.661	16.23
292.875	16.09
293.088	15.93
293.301	15.75
293.514	15.5
293.727	15.24
293.94	15.15
294.153	14.86
294.367	14.22
294.58	13.6
294.793	13.19
295.006	13.01
295.219	13.11
295.432	13.39
295.645	13.44
295.858	13.17
296.071	12.74
296.284	12.44
296.497	12.22
296.71	12.27
296.923	12.34
297.136	12.43
297.349	12.25
297.562	12.08
297.775	11.88
297.988	11.67
298.201	11.98
298.414	12.52
298.626	12.73
298.839	13.34
299.052	13.51
299.265	14.01
299.478	14.29
299.691	14.54
299.903	14.93
300.116	15.16
300.329	15.5
300.542	15.35
300.755	15.45
300.967	15.71
301.18	15.47
301.393	15.68
301.605	15.42
301.818	15.34
302.031	15.41
302.243	15.44
302.456	15.78
302.669	15.89
302.881	16.43
303.094	16.17
303.307	15.91
303.519	15.92
303.732	15.9
303.944	16.12
304.157	16.57
304.37	16.75
304.582	16.71
304.795	16.69
305.007	16.88
305.22	16.73
305.432	16.71
305.645	17.08
305.857	17.28
306.069	17.5
306.282	17.58
306.494	17.09
306.707	16.91
306.919	16.92
307.132	16.53
307.344	16.55
307.556	16.68
307.769	16.89
307.981	16.93
308.193	16.68
308.406	16.32
308.618	16.25
308.83	16.27
309.043	16.18
309.255	16.01
309.467	16.08
309.679	15.67
309.892	15.32
310.104	14.96
310.316	14.74
310.528	14.6
310.74	14.7
310.953	14.51
311.165	14.31
311.377	14.51
311.589	14.48
311.801	14.49
312.013	14.86
312.225	14.9
312.437	15.5
312.649	15.85
312.862	16.29
313.074	16.43
313.286	16.85
313.498	17.11
313.71	17.41
313.922	17.74
314.134	17.9
314.346	17.82
314.558	18.48
314.77	18.21
314.982	18.13
315.193	18.09
315.405	18.2
315.617	18.24
315.829	18.46
316.041	18.39
316.253	18.47
316.465	18.85
316.677	19.2
316.888	18.93
317.1	19.41
317.312	19.51
317.524	19.48
317.736	19.9
317.947	20.09
318.159	20.2
318.371	20.36
318.583	20.44
318.794	20.39
319.006	20.04
319.218	20.44
319.43	20.72
319.641	20.93
319.853	20.93
320.064	21.29
320.276	21.35
320.488	21.5
320.699	21.68
320.911	22.18
321.123	22.41
321.334	22.93
321.546	23.17
321.757	23
321.969	23.23
322.18	23.54
322.392	23.09
322.603	23.43
322.815	23.91
323.026	23.7
323.238	23.35
323.449	23.05
323.661	23.07
323.872	22.74
324.083	22.58
324.295	22.5
324.506	22.66
324.718	22.77
324.929	22.74
325.14	22.6
325.352	22.81
325.563	23.19
325.774	23.77
325.986	23.96
326.197	24.47
326.408	24.54
326.62	24.85
326.831	25.33
327.042	25.48
327.253	25.6
327.464	26.19
327.676	26.5
327.887	27.16
328.098	27.67
328.309	28.45
328.52	29.1
328.732	29.88
328.943	30.41
329.154	30.6
329.365	30.93
329.576	31.7
329.787	32.1
329.998	32.72
330.209	32.98
330.42	33.3
330.631	33.12
330.842	33.31
331.053	33.66
331.264	34.05
331.475	34.58
331.686	35.39
331.897	35.63
332.108	35.9
332.319	36.08
332.53	36.32
332.741	36.47
332.952	37.1
333.163	37.1
333.374	37.39
333.585	37.56
333.795	37.88
334.006	38.32
334.217	38.62
334.428	38.65
334.639	39.11
334.849	39.46
335.06	39.43
335.271	39.37
335.482	39.69
335.692	39.74
335.903	39.81
336.114	39.71
336.325	39.54
336.535	39.58
336.746	39.95
336.957	39.96
337.167	39.72
337.378	39.73
337.589	40.18
337.799	40.28
338.01	40.48
338.22	40.65
338.431	41.1
338.642	41.2
338.852	40.99
339.063	40.87
339.273	40.88
339.484	41.22
339.694	41.47
339.905	41.27
340.115	41.46
340.326	41.46
340.536	41.27
340.746	41.18
340.957	41.02
341.167	41.42
341.378	41.38
341.588	41.41
341.799	41.15
342.009	41.33
342.219	41.34
342.43	41.17
342.64	40.84
342.85	40.94
343.061	40.59
343.271	40.46
343.481	40.1
343.691	39.9
343.902	39.59
344.112	39.76
344.322	39.61
344.532	39.53
344.743	39.25
344.953	39.37
345.163	39.15
345.373	39.46
345.583	39.48
345.793	39.68
346.004	39.61
346.214	39.73
346.424	39.87
346.634	39.78
346.844	39.83
347.054	40.03
347.264	40.03
347.474	40.19
347.684	40.02
347.894	40.33
348.104	40.08
348.314	40.28
348.524	40.13
348.734	39.71
348.944	39.74
349.154	39.47
349.364	39.51
349.574	39.38
349.784	39.37
349.994	39.33
350.204	38.84
350.413	38.91
350.623	38.87
350.833	38.85
351.043	38.78
351.253	38.68
351.463	38.59
351.672	38.5
351.882	38.6
352.092	38.4
352.302	38.1
352.511	38.35
352.721	38.1
352.931	37.93
353.141	38.08
353.35	38.16
353.56	37.93
353.77	38.03
353.979	37.91
354.189	37.86
354.399	37.96
354.608	37.96
354.818	37.72
355.027	37.85
355.237	37.93
355.447	37.65
355.656	37.55
355.866	37.59
356.075	37.4
356.285	37.15
356.494	37.12
356.704	36.98
356.913	36.95
357.123	36.95
357.332	36.71
357.542	36.45
357.751	36.49
357.96	36.6
358.17	36.55
358.379	36.37
358.589	36.31
358.798	36.25
359.007	36.18
359.217	36.06
359.426	35.91
359.635	35.87
359.845	35.67
360.054	35.45
360.263	35.01
360.472	34.64
360.682	34.8
360.891	34.8
361.1	34.62
361.309	34.49
361.519	34.49
361.728	34.43
361.937	34.42
362.146	34.39
362.355	34.43
362.564	34.59
362.774	34.7
362.983	34.57
363.192	34.63
363.401	34.78
363.61	34.59
363.819	34.74
364.028	34.9
364.237	35.02
364.446	35.11
364.655	35.03
364.864	35.13
365.073	35.24
365.282	35.23
365.491	35.06
365.7	34.85
365.909	35.2
366.118	35.15
366.327	35.21
366.536	35.19
366.745	35.27
366.954	35.37
367.162	35.43
367.371	35.57
367.58	35.7
367.789	35.71
367.998	36.02
368.207	35.95
368.415	35.96
368.624	35.91
368.833	35.96
369.042	35.81
369.25	35.8
369.459	35.74
369.668	35.45
369.877	35.43
370.085	35.38
370.294	35.01
370.503	35.05
370.711	34.75
370.92	34.61
371.129	34.45
371.337	34.52
371.546	34.51
371.754	34.12
371.963	34.27
372.171	34.2
372.38	34.27
372.589	34.48
372.797	34.34
373.006	34.58
373.214	34.5
373.423	34.25
373.631	34.26
373.84	34.04
374.048	34.11
374.256	34.01
374.465	34.17
374.673	34.09
374.882	33.78
375.09	33.92
375.298	33.82
375.507	33.66
375.715	33.95
375.923	33.98
376.132	34.19
376.34	34.24
376.548	34.15
376.757	33.79
376.965	33.79
377.173	33.87
377.381	33.72
377.59	33.63
377.798	33.59
378.006	33.49
378.214	33.41
378.423	33.35
378.631	33.39
378.839	33.39
379.047	33.36
379.255	33.21
379.463	33.36
379.671	33.35
379.879	33.46
380.088	33.6
380.296	33.5
380.504	33.47
380.712	33.63
380.92	33.54
381.128	33.76
381.336	33.99
381.544	34.21
381.752	34.22
381.96	34.22
382.168	34.16
382.376	34.09
382.584	34.06
382.791	34.11
382.999	33.9
383.207	33.97
383.415	33.97
383.623	34.06
383.831	33.82
384.039	33.71
384.247	33.83
384.454	33.77
384.662	33.98
384.87	33.99
385.078	34.06
385.285	34.03
385.493	34.04
385.701	33.84
385.909	33.59
386.116	33.64
386.324	33.47
386.532	33.29
386.739	33.19
386.947	33.03
387.155	33.35
387.362	33.26
387.57	33.29
387.778	33.24
387.985	33.21
388.193	33.25
388.4	33.34
388.608	33.55
388.816	33.59
389.023	33.67
389.231	33.72
389.438	33.44
389.646	33.34
389.853	33.12
390.061	33.04
390.268	32.92
390.475	32.71
390.683	32.67
390.89	32.4
391.098	32.23
391.305	32.2
391.512	32.14
391.72	32.08
391.927	32.09
392.135	32.02
392.342	31.94
392.549	32
392.756	32.06
392.964	32.09
393.171	32.25
393.378	32.36
393.586	32.33
393.793	32.29
394	32.26
394.207	32.22
394.414	32.41
394.622	32.43
394.829	32.56
395.036	32.63
395.243	32.66
395.45	32.43
395.657	32.59
395.864	32.62
396.072	32.67
396.279	32.66
396.486	32.57
396.693	32.72
396.9	32.64
397.107	32.52
397.314	32.77
397.521	32.68
397.728	32.94
397.935	32.93
398.142	32.75
398.349	32.63
398.556	32.53
398.763	32.83
398.97	32.69
399.177	32.85
399.383	32.86
399.59	32.57
399.797	32.73
400.004	32.7
400.211	32.66
400.418	32.76
400.625	32.91
400.831	33.12
401.038	33.13
401.245	33.09
401.452	32.99
401.658	33.14
401.865	33.27
402.072	33.04
402.279	33.11
402.485	32.84
402.692	32.87
402.899	32.79
403.105	32.67
403.312	32.46
403.519	32.41
403.725	32.38
403.932	32.1
404.138	31.9
404.345	31.93
404.552	31.68
404.758	31.75
404.965	31.77
405.171	31.77
405.378	31.93
405.584	31.89
405.791	31.82
405.997	31.86
406.204	32.03
406.41	32.18
406.617	32.14
406.823	32.43
407.029	32.54
407.236	32.65
407.442	32.88
407.649	32.82
407.855	32.87
408.061	33
408.268	33.09
408.474	33
408.68	32.88
408.887	33.11
409.093	32.94
409.299	32.76
409.505	32.72
409.712	32.45
409.918	32.52
410.124	32.48
410.33	32.71
410.537	32.69
410.743	32.85
410.949	32.98
411.155	32.95
411.361	32.96
411.567	33.1
411.773	33.14
411.98	33.4
412.186	33.39
412.392	33.51
412.598	33.36
412.804	33.37
413.01	33.34
413.216	33.45
413.422	33.34
413.628	33.4
413.834	33.37
414.04	33.32
414.246	33.07
414.452	33.01
414.658	32.99
414.864	33.09
415.07	33.01
415.275	32.79
415.481	32.52
415.687	32.45
415.893	32.44
416.099	32.3
416.305	32.12
416.511	32.14
416.716	32.06
416.922	31.95
417.128	31.92
417.334	31.84
417.539	31.87
417.745	31.83
417.951	31.79
418.157	31.64
418.362	31.68
418.568	31.68
418.774	31.54
418.979	31.45
419.185	31.45
419.391	31.29
419.596	31.19
419.802	31.08
420.008	31.04
420.213	31.49
420.419	31.47
420.624	31.45
420.83	31.43
421.035	31.44
421.241	31.45
421.446	31.35
421.652	31.31
421.857	31.36
422.063	31.45
422.268	31.51
422.474	31.1
422.679	31.15
422.885	31.13
423.09	31.12
423.295	31.1
423.501	31.01
423.706	31.12
423.911	31.12
424.117	31.19
424.322	31.08
424.527	31.07
424.733	30.98
424.938	30.93
425.143	30.93
425.349	30.89
425.554	30.92
425.759	31
425.964	31.03
426.169	31.17
426.375	31.18
426.58	31.43
426.785	31.47
426.99	31.68
427.195	31.74
427.4	31.82
427.605	32.03
427.811	32.16
428.016	32.28
428.221	32.33
428.426	32.28
428.631	32.31
428.836	32.36
429.041	32.43
429.246	32.43
429.451	32.65
429.656	32.71
429.861	32.66
430.066	32.74
430.271	32.74
430.476	32.69
430.681	32.69
430.886	32.74
431.09	32.63
431.295	32.6
431.5	32.59
431.705	32.42
431.91	32.5
432.115	32.5
432.32	32.41
432.524	32.36
432.729	32.43
432.934	32.38
433.139	32.3
433.343	32.3
433.548	32.36
433.753	32.37
433.958	32.38
434.162	32.26
434.367	32.24
434.572	32.27
434.776	32.37
434.981	32.24
435.186	32.29
435.39	32.45
435.595	32.55
435.799	32.53
436.004	32.57
436.209	32.68
436.413	32.67
436.618	32.7
436.822	32.66
437.027	32.7
437.231	32.68
437.436	32.68
437.64	32.49
437.845	32.43
438.049	32.37
438.253	32.36
438.458	32.31
438.662	32.43
438.867	32.39
439.071	32.47
439.275	32.25
439.48	32.35
439.684	32.36
439.888	32.35
440.093	32.26
440.297	32.29
440.501	32.22
440.706	32.19
440.91	32.1
441.114	32.07
441.318	32.01
441.523	32.1
441.727	32.06
441.931	32.02
442.135	32.09
442.339	32.19
442.543	32.31
442.748	32.32
442.952	32.38
443.156	32.39
443.36	32.45
443.564	32.54
443.768	32.59
443.972	32.61
444.176	32.64
444.38	32.64
444.584	32.6
444.788	32.4
444.992	32.29
445.196	32.2
445.4	32.18
445.604	32.1
445.808	32.05
446.012	31.98
446.216	31.92
446.42	31.85
446.624	31.78
446.828	31.74
447.032	31.78
447.235	31.85
447.439	31.85
447.643	31.91
447.847	32
448.051	32.01
448.254	32.04
448.458	32.15
448.662	32.29
448.866	32.37
449.069	32.47
449.273	32.56
449.477	32.68
449.681	32.77
449.884	32.75
450.088	32.79
450.292	32.72
450.495	32.78
450.699	32.8
450.902	32.74
451.106	32.73
451.31	32.78
451.513	32.69
451.717	32.62
451.92	32.63
452.124	32.6
452.327	32.6
452.531	32.64
452.734	32.62
452.938	32.53
453.141	32.61
453.345	32.66
453.548	32.64
453.752	32.67
453.955	32.63
454.158	32.63
454.362	32.73
454.565	32.73
454.769	32.71
454.972	32.87
455.175	32.93
455.379	32.97
455.582	32.94
455.785	32.82
455.988	32.91
456.192	33.04
456.395	33.12
456.598	33.12
456.801	33.16
457.005	33.15
457.208	32.96
457.411	33
457.614	32.81
457.817	32.69
458.021	32.65
458.224	32.52
458.427	32.28
458.63	32.21
458.833	32.16
459.036	31.98
459.239	31.99
459.442	31.94
459.645	31.8
459.848	31.77
460.051	31.91
460.254	31.95
460.457	31.98
460.66	32.16
460.863	32.14
461.066	32.11
461.269	32.26
461.472	32.3
461.675	32.38
461.878	32.52
462.081	32.66
462.284	32.69
462.486	32.74
462.689	32.89
462.892	32.94
463.095	32.94
463.298	33.11
463.5	33.22
463.703	33.28
463.906	33.29
464.109	33.29
464.311	33.35
464.514	33.26
464.717	33.24
464.92	33.16
465.122	33.08
465.325	33.19
465.528	33.14
465.73	33.17
465.933	33.11
466.135	33.1
466.338	33.19
466.541	33.22
466.743	33.27
466.946	33.34
467.148	33.39
467.351	33.43
467.553	33.37
467.756	33.29
467.958	33.29
468.161	33.22
468.363	33.3
468.566	33.19
468.768	33.21
468.971	33.17
469.173	33.15
469.375	33.12
469.578	32.93
469.78	32.99
469.983	33.02
470.185	32.92
470.387	32.95
470.59	33.01
470.792	33.01
470.994	32.91
471.196	32.83
471.399	32.86
471.601	32.77
471.803	32.88
472.005	32.86
472.208	32.87
472.41	32.83
472.612	32.77
472.814	32.68
473.016	32.71
473.218	32.66
473.421	32.74
473.623	32.7
473.825	32.66
474.027	32.68
474.229	32.65
474.431	32.69
474.633	32.68
474.835	32.8
475.037	32.78
475.239	32.78
475.441	32.79
475.643	32.72
475.845	32.57
476.047	32.67
476.249	32.78
476.451	32.83
476.653	32.86
476.855	32.77
477.057	32.77
477.258	32.72
477.46	32.64
477.662	32.71
477.864	32.69
478.066	32.72
478.268	32.64
478.469	32.57
478.671	32.53
478.873	32.38
479.075	32.38
479.276	32.18
479.478	32.23
479.68	32.28
479.882	32.14
480.083	32.1
480.285	32.08
480.487	32
480.688	31.87
480.89	31.81
481.091	31.73
481.293	31.71
481.495	31.69
481.696	31.5
481.898	31.44
482.099	31.29
482.301	31.23
482.502	31.12
482.704	31.02
482.905	30.94
483.107	30.83
483.308	30.75
483.51	30.66
483.711	30.64
483.913	30.62
484.114	30.53
484.315	30.53
484.517	30.53
484.718	30.55
484.92	30.52
485.121	30.54
485.322	30.57
485.524	30.62
485.725	30.69
485.926	30.69
486.127	30.67
486.329	30.77
486.53	30.78
486.731	30.75
486.932	30.72
487.134	30.77
487.335	30.76
487.536	30.74
487.737	30.73
487.938	30.71
488.139	30.73
488.341	30.78
488.542	30.72
488.743	30.76
488.944	30.8
489.145	30.84
489.346	30.89
489.547	30.87
489.748	30.9
489.949	30.94
490.15	30.95
490.351	30.93
490.552	30.98
490.753	30.99
490.954	30.97
491.155	30.92
491.356	30.91
491.557	30.88
491.758	30.91
491.959	30.93
492.159	30.98
492.36	31.02
492.561	31.06
492.762	31.05
492.963	31.16
493.164	31.24
493.364	31.32
493.565	31.42
493.766	31.47
493.967	31.56
494.167	31.63
494.368	31.59
494.569	31.61
494.769	31.71
494.97	31.77
495.171	31.66
495.371	31.65
495.572	31.69
495.773	31.75
495.973	31.84
496.174	31.87
496.375	31.91
496.575	32.01
496.776	32.04
496.976	31.94
497.177	31.89
497.377	31.98
497.578	32.05
497.778	32
497.979	32.01
498.179	31.97
498.38	31.99
498.58	32
498.78	31.98
498.981	32.03
499.181	32.11
499.382	32.19
499.582	32.19
499.782	32.13
499.983	32.22
500.183	32.23
500.383	32.36
500.584	32.45
500.784	32.44
500.984	32.46
501.184	32.44
501.385	32.53
501.585	32.58
501.785	32.63
501.985	32.69
502.185	32.68
502.386	32.72
502.586	32.66
502.786	32.66
502.986	32.75
503.186	32.8
503.386	32.82
503.586	32.88
503.786	32.91
503.987	32.88
504.187	32.8
504.387	32.84
504.587	32.92
504.787	33.01
504.987	32.98
505.187	33.01
505.387	33.06
505.587	33.14
505.786	33.16
505.986	33.12
506.186	33.08
506.386	33.19
506.586	33.23
506.786	33.14
506.986	33.04
507.186	33.05
507.386	33.03
507.585	32.98
507.785	32.9
507.985	32.73
508.185	32.71
508.384	32.83
508.584	32.81
508.784	32.73
508.984	32.76
509.183	32.75
509.383	32.82
509.583	32.84
509.782	32.8
509.982	32.88
510.182	32.96
510.381	32.99
510.581	32.96
510.781	33.07
510.98	33.24
511.18	33.22
511.379	33.28
511.579	33.25
511.778	33.31
511.978	33.28
512.177	33.26
512.377	33.24
512.576	33.24
512.776	33.26
512.975	33.14
513.175	33.07
513.374	33.08
513.573	33.17
513.773	33.19
513.972	33.1
514.172	33.16
514.371	33.25
514.57	33.34
514.77	33.36
514.969	33.33
515.168	33.49
515.367	33.64
515.567	33.65
515.766	33.57
515.965	33.51
516.164	33.55
516.364	33.54
516.563	33.47
516.762	33.36
516.961	33.24
517.16	33.26
517.359	33.13
517.559	32.99
517.758	32.99
517.957	33.04
518.156	33.11
518.355	33.06
518.554	33.13
518.753	33.13
518.952	33.18
519.151	33.32
519.35	33.32
519.549	33.39
519.748	33.41
519.947	33.46
520.146	33.41
520.345	33.41
520.544	33.49
520.743	33.5
520.942	33.56
521.141	33.59
521.339	33.48
521.538	33.55
521.737	33.58
521.936	33.66
522.135	33.7
522.333	33.75
522.532	33.74
522.731	33.74
522.93	33.73
523.129	33.65
523.327	33.71
523.526	33.8
523.725	33.78
523.923	33.64
524.122	33.57
524.321	33.55
524.519	33.47
524.718	33.49
524.917	33.44
525.115	33.4
525.314	33.41
525.512	33.3
525.711	33.22
525.909	33.13
526.108	33.12
526.306	33.1
526.505	33
526.703	32.97
526.902	32.86
527.1	32.81
527.299	32.73
527.497	32.67
527.696	32.63
527.894	32.6
528.092	32.57
528.291	32.53
528.489	32.47
528.688	32.46
528.886	32.42
529.084	32.41
529.283	32.42
529.481	32.45
529.679	32.48
529.877	32.52
530.076	32.59
530.274	32.67
530.472	32.74
530.67	32.8
530.869	32.88
531.067	32.94
531.265	33.03
531.463	33.03
531.661	33.05
531.859	33.1
532.057	33.11
532.255	33.05
532.454	33.02
532.652	32.97
532.85	32.99
533.048	32.95
533.246	32.93
533.444	32.88
533.642	32.9
533.84	32.92
534.038	32.9
534.236	32.91
534.434	32.92
534.632	32.95
534.83	33.06
535.027	33.08
535.225	33.11
535.423	33.14
535.621	33.2
535.819	33.26
536.017	33.27
536.215	33.2
536.412	33.26
536.61	33.31
536.808	33.35
537.006	33.29
537.203	33.33
537.401	33.41
537.599	33.46
537.797	33.51
537.994	33.49
538.192	33.54
538.39	33.62
538.587	33.68
538.785	33.77
538.983	33.72
539.18	33.77
539.378	33.73
539.575	33.66
539.773	33.61
539.97	33.51
540.168	33.48
540.366	33.41
540.563	33.38
540.761	33.37
540.958	33.28
541.155	33.28
541.353	33.26
541.55	33.23
541.748	33.22
541.945	33.26
542.143	33.29
542.34	33.34
542.537	33.4
542.735	33.48
542.932	33.49
543.129	33.6
543.327	33.66
543.524	33.8
543.721	33.94
543.919	34.07
544.116	34.21
544.313	34.33
544.51	34.4
544.708	34.5
544.905	34.59
545.102	34.7
545.299	34.73
545.496	34.83
545.693	34.77
545.891	34.79
546.088	34.79
546.285	34.73
546.482	34.68
546.679	34.72
546.876	34.69
547.073	34.63
547.27	34.63
547.467	34.54
547.664	34.53
547.861	34.64
548.058	34.66
548.255	34.73
548.452	34.86
548.649	34.94
548.846	34.99
549.043	35.19
549.24	35.21
549.437	35.15
549.633	35.25
549.83	35.39
550.027	35.37
550.224	35.38
550.421	35.27
550.618	35.23
550.814	35.3
551.011	35.25
551.208	35.15
551.405	35.19
551.601	35.27
551.798	35.34
551.995	35.19
552.191	35.16
552.388	35.04
552.585	35.09
552.781	35.06
552.978	34.96
553.175	35
553.371	34.98
553.568	34.97
553.764	35.04
553.961	34.85
554.157	34.89
554.354	34.91
554.55	35
554.747	34.99
554.943	35.07
555.14	35.17
555.336	35.15
555.533	35.2
555.729	35.22
555.926	35.27
556.122	35.46
556.318	35.45
556.515	35.47
556.711	35.55
556.907	35.56
557.104	35.63
557.3	35.58
557.496	35.65
557.693	35.54
557.889	35.55
558.085	35.36
558.281	35.41
558.478	35.47
558.674	35.53
558.87	35.53
559.066	35.62
559.262	35.65
559.459	35.58
559.655	35.59
559.851	35.67
560.047	35.7
560.243	35.83
560.439	35.77
560.635	35.85
560.831	35.89
561.027	36
561.223	36.02
561.419	35.92
561.615	36.07
561.811	35.98
562.007	36.02
562.203	36.17
562.399	35.96
562.595	35.97
562.791	35.85
562.987	35.81
563.183	35.7
563.379	35.58
563.575	35.6
563.771	35.51
563.966	35.58
564.162	35.6
564.358	35.45
564.554	35.54
564.75	35.53
564.945	35.57
565.141	35.58
565.337	35.5
565.533	35.59
565.728	35.45
565.924	35.43
566.12	35.41
566.315	35.3
566.511	35.21
566.707	35.16
566.902	35.07
567.098	35.1
567.293	35.12
567.489	35.15
567.684	35.12
567.88	35.22
568.076	35.23
568.271	35.2
568.467	35.35
568.662	35.48
568.858	35.61
569.053	35.75
569.248	35.83
569.444	35.76
569.639	35.77
569.835	35.77
570.03	35.73
570.225	35.75
570.421	35.74
570.616	35.69
570.812	35.6
571.007	35.45
571.202	35.35
571.397	35.36
571.593	35.39
571.788	35.45
571.983	35.43
572.178	35.47
572.374	35.45
572.569	35.49
572.764	35.51
572.959	35.53
573.154	35.61
573.35	35.63
573.545	35.57
573.74	35.46
573.935	35.39
574.13	35.45
574.325	35.4
574.52	35.42
574.715	35.48
574.91	35.4
575.105	35.37
575.3	35.33
575.495	35.45
575.69	35.46
575.885	35.62
576.08	35.71
576.275	35.7
576.47	35.89
576.665	35.96
576.86	35.92
577.055	35.92
577.25	36.08
577.444	36.27
577.639	36.33
577.834	36.43
578.029	36.53
578.224	36.56
578.418	36.62
578.613	36.63
578.808	36.64
579.003	36.62
579.197	36.77
579.392	36.82
579.587	36.86
579.781	36.74
579.976	36.69
580.171	36.53
580.365	36.56
580.56	36.62
580.755	36.67
580.949	36.8
581.144	36.96
581.338	36.94
581.533	37.16
581.727	37.23
581.922	37.36
582.116	37.52
582.311	37.61
582.505	37.61
582.7	37.53
582.894	37.57
583.089	37.56
583.283	37.5
583.478	37.57
583.672	37.39
583.866	37.26
584.061	37.22
584.255	37.25
584.449	37.19
584.644	37.25
584.838	37.4
585.032	37.35
585.226	37.44
585.421	37.48
585.615	37.48
585.809	37.47
586.003	37.61
586.198	37.79
586.392	37.67
586.586	37.66
586.78	37.69
586.974	37.66
587.168	37.68
587.363	37.61
587.557	37.58
587.751	37.66
587.945	37.77
588.139	37.76
588.333	37.69
588.527	37.7
588.721	37.73
588.915	37.66
589.109	37.5
589.303	37.46
589.497	37.43
589.691	37.46
589.885	37.36
590.079	37.27
590.273	37.35
590.466	37.33
590.66	37.31
590.854	37.47
591.048	37.58
591.242	37.72
591.436	37.79
591.629	37.83
591.823	37.89
592.017	37.98
592.211	37.92
592.404	37.96
592.598	38.03
592.792	38.21
592.986	38.13
593.179	38.13
593.373	38.1
593.567	38.11
593.76	38.22
593.954	38.25
594.147	38.23
594.341	38.21
594.535	38.18
594.728	38.14
594.922	37.91
595.115	37.88
595.309	37.75
595.502	37.79
595.696	37.62
595.889	37.52
596.083	37.35
596.276	37.38
596.47	37.38
596.663	37.35
596.856	37.38
597.05	37.51
597.243	37.54
597.437	37.65
597.63	37.7
597.823	37.81
598.017	37.75
598.21	37.87
598.403	37.82
598.596	37.95
598.79	38.13
598.983	38.16
599.176	38.15
599.369	38.15
599.563	38.1
599.756	38.06
599.949	38.18
600.142	38.33
600.335	38.37
600.528	38.52
600.722	38.51
600.915	38.28
601.108	38.24
601.301	38.13
601.494	38.22
601.687	38.28
601.88	38.34
602.073	38.2
602.266	38.27
602.459	38.18
602.652	38
602.845	38.1
603.038	37.98
603.231	37.93
603.424	38.01
603.617	37.94
603.809	37.83
604.002	37.72
604.195	37.69
604.388	37.65
604.581	37.73
604.774	37.81
604.966	37.71
605.159	37.75
605.352	37.79
605.545	37.9
605.737	37.88
605.93	37.87
606.123	37.94
606.316	38.16
606.508	38.11
606.701	38.36
606.894	38.32
607.086	38.61
607.279	38.74
607.471	38.81
607.664	38.75
607.857	39
608.049	39.33
608.242	39.62
608.434	39.93
608.627	40.44
608.819	40.71
609.012	41.29
609.204	41.67
609.397	42.43
609.589	43.1
609.782	43.96
609.974	44.7
610.166	45.36
610.359	46.12
610.551	46.6
610.743	47.24
610.936	47.8
611.128	48.29
611.32	48.61
611.513	48.62
611.705	48.66
611.897	48.51
612.09	48.54
612.282	48.44
612.474	48.12
612.666	47.97
612.858	47.57
613.051	47.26
613.243	46.66
613.435	46.42
613.627	46.04
613.819	45.9
614.011	45.94
614.203	45.61
614.395	45.35
614.588	45.16
614.78	44.93
614.972	44.65
615.164	44.13
615.356	44.15
615.548	43.78
615.74	43.83
615.932	43.57
616.124	42.97
616.315	42.78
616.507	42.51
616.699	42.18
616.891	42.06
617.083	41.88
617.275	41.82
617.467	41.8
617.659	41.68
617.85	41.73
618.042	41.75
618.234	41.77
618.426	41.52
618.618	41.56
618.809	41.56
619.001	41.51
619.193	41.63
619.384	41.66
619.576	41.55
619.768	41.66
619.959	41.49
620.151	41.51
620.343	41.58
620.534	41.53
620.726	41.44
620.917	41.44
621.109	41.53
621.301	41.3
621.492	41.42
621.684	41.38
621.875	41.41
622.067	41.27
622.258	41.01
622.45	41.07
622.641	40.98
622.832	41.17
623.024	41.29
623.215	41.21
623.407	41.34
623.598	41.41
623.789	41.34
623.981	41.2
624.172	41.4
624.363	41.49
624.555	41.53
624.746	41.56
624.937	41.43
625.129	41.19
625.32	41.14
625.511	41.11
625.702	40.85
625.893	40.76
626.085	40.73
626.276	40.62
626.467	40.55
626.658	40.19
626.849	40.35
627.04	40.27
627.231	40.32
627.422	40.19
627.614	40.23
627.805	40.26
627.996	40.44
628.187	40.49
628.378	40.67
628.569	40.89
628.76	41.14
628.951	41.09
629.142	41.31
629.332	41.63
629.523	42.05
629.714	42.13
629.905	42.33
630.096	42.46
630.287	42.65
630.478	42.66
630.669	42.49
630.859	42.53
631.05	42.54
631.241	42.54
631.432	42.15
631.623	41.96
631.813	41.85
632.004	41.7
632.195	41.69
632.385	41.52
632.576	41.22
632.767	41.4
632.957	41.29
633.148	41.29
633.339	41.13
633.529	41.14
633.72	40.89
633.91	40.76
634.101	40.7
634.292	40.63
634.482	40.6
634.673	40.77
634.863	40.67
635.054	40.67
635.244	40.63
635.435	40.64
635.625	40.79
635.815	40.94
636.006	41.06
636.196	41.07
636.387	41.19
636.577	41.21
636.767	41.12
636.958	41.06
637.148	41.18
637.338	41.22
637.529	41.28
637.719	41.28
637.909	41.32
638.099	41.39
638.29	41.51
638.48	41.27
638.67	41.35
638.86	41.54
639.05	41.51
639.241	41.45
639.431	41.36
639.621	41.38
639.811	41.31
640.001	41.26
640.191	41.05
640.381	41.11
640.571	41.18
640.761	41.16
640.951	41.02
641.141	41.17
641.331	41.37
641.521	41.48
641.711	41.69
641.901	41.81
642.091	41.85
642.281	41.98
642.471	41.93
642.661	42.25
642.851	42.33
643.041	42.4
643.231	42.58
643.42	42.55
643.61	42.76
643.8	42.66
643.99	42.72
644.18	42.85
644.369	42.94
644.559	42.98
644.749	42.89
644.939	42.96
645.128	42.97
645.318	42.94
645.508	42.93
645.697	42.85
645.887	42.95
646.076	42.96
646.266	42.91
646.456	43.14
646.645	43.34
646.835	43.47
647.024	43.41
647.214	43.32
647.403	43.07
647.593	43.41
647.782	43.3
647.972	43.21
648.161	43.17
648.351	43.1
648.54	42.93
648.73	42.86
648.919	42.76
649.108	42.64
649.298	42.58
649.487	42.8
649.677	42.52
649.866	42.69
650.055	42.7
650.244	42.59
650.434	42.66
650.623	42.61
650.812	42.68
651.002	42.51
651.191	42.7
651.38	42.99
651.569	42.94
651.758	42.78
651.947	42.69
652.137	42.79
652.326	42.85
652.515	43.04
652.704	43.2
652.893	43.13
653.082	43.13
653.271	43.07
653.46	42.94
653.649	43.13
653.838	43.41
654.027	43.47
654.216	43.52
654.405	43.61
654.594	43.38
654.783	43.42
654.972	43.41
655.161	43.52
655.35	43.56
655.539	43.56
655.728	43.35
655.916	43.26
656.105	43.16
656.294	43.09
656.483	42.94
656.672	43.04
656.86	42.87
657.049	42.73
657.238	42.77
657.427	42.75
657.615	42.59
657.804	42.53
657.993	42.38
658.181	42.33
658.37	42.19
658.559	42.15
658.747	42.11
658.936	42.1
659.125	42.1
659.313	41.91
659.502	41.95
659.69	42.2
659.879	42.11
660.067	42.2
660.256	42.37
660.444	42.43
660.633	42.68
660.821	42.82
661.01	42.97
661.198	43.25
661.387	43.34
661.575	43.36
661.763	43.36
661.952	43.68
662.14	43.89
662.328	43.98
662.517	44.25
662.705	44.17
662.893	44.21
663.082	44.3
663.27	44.32
663.458	44.74
663.646	44.9
663.834	44.99
664.023	44.85
664.211	45.02
664.399	44.98
664.587	44.96
664.775	45.28
664.963	45.4
665.152	45.52
665.34	45.57
665.528	45.39
665.716	45.41
665.904	45.48
666.092	45.47
666.28	45.29
666.468	45.18
666.656	45.19
666.844	44.84
667.032	44.86
667.22	44.76
667.408	44.7
667.596	44.69
667.784	44.92
667.971	45.06
668.159	45.22
668.347	45.19
668.535	45.34
668.723	45.38
668.911	45.53
669.098	45.47
669.286	45.54
669.474	45.57
669.662	45.66
669.849	45.59
670.037	45.48
670.225	45.52
670.413	45.51
670.6	45.6
670.788	45.62
670.976	45.66
671.163	45.71
671.351	45.89
671.538	46.12
671.726	45.98
671.913	45.87
672.101	45.76
672.289	45.55
672.476	45.62
672.664	45.72
672.851	45.94
673.039	46.11
673.226	46.23
673.413	46.31
673.601	46.26
673.788	46.63
673.976	46.66
674.163	46.86
674.35	46.95
674.538	46.95
674.725	47.15
674.912	47.03
675.1	47.05
675.287	47.16
675.474	46.76
675.662	46.72
675.849	46.7
676.036	46.81
676.223	47.02
676.411	47.42
676.598	47.66
676.785	47.6
676.972	47.71
677.159	47.91
677.346	47.7
677.533	47.8
677.721	47.79
677.908	47.8
678.095	47.83
678.282	47.63
678.469	47.66
678.656	47.66
678.843	47.71
679.03	47.59
679.217	47.46
679.404	47.41
679.591	47.44
679.778	47.37
679.964	47.36
680.151	47.23
680.338	47.15
680.525	46.9
680.712	46.68
680.899	46.49
681.086	46.61
681.272	46.31
681.459	46.57
681.646	46.57
681.833	46.77
682.02	46.47
682.206	46.66
682.393	46.94
682.58	47.17
682.766	47.27
682.953	47.64
683.14	47.54
683.326	48.21
683.513	48.45
683.7	48.66
683.886	48.51
684.073	49.11
684.259	49.27
684.446	49.34
684.632	49.31
684.819	49.57
685.005	49.38
685.192	49.76
685.378	49.8
685.565	49.6
685.751	49.62
685.938	49.87
686.124	50.06
686.31	49.98
686.497	49.9
686.683	49.75
686.87	49.53
687.056	49.61
687.242	49.38
687.429	49.15
687.615	49.28
687.801	49.36
687.987	49.38
688.174	49.25
688.36	49.14
688.546	49.1
688.732	49.18
688.918	49.34
689.105	49.25
689.291	49.4
689.477	49.64
689.663	49.72
689.849	49.65
690.035	49.99
690.221	49.97
690.407	50.32
690.593	50.63
690.779	50.98
690.965	51.31
691.151	51.53
691.337	51.64
691.523	51.64
691.709	51.75
691.895	52.39
692.081	52.25
692.267	52.29
692.453	52.5
692.639	52.51
692.825	52.55
693.011	52.56
693.196	52.55
693.382	52.36
693.568	52.5
693.754	52.53
693.94	52.15
694.125	52.28
694.311	52.07
694.497	52.1
694.682	52.26
694.868	52.27
695.054	52.3
695.239	52.61
695.425	53.08
695.611	53.27
695.796	53.3
695.982	53.04
696.168	52.86
696.353	53.06
696.539	52.74
696.724	52.72
696.91	52.68
697.095	52.61
697.281	52.23
697.466	51.76
697.652	51.33
697.837	51
698.023	50.73
698.208	50.6
698.393	50.43
698.579	50.48
698.764	50.18
698.949	49.9
699.135	49.96
699.32	50.07
699.505	50.19
699.691	50.13
699.876	50.29
700.061	50.71
700.246	50.86
700.432	51.34
700.617	51.41
700.802	51.7
700.987	52.23
701.172	52.04
701.358	52.21
701.543	52.44
701.728	52.68
701.913	53.04
702.098	53.54
702.283	54.17
702.468	53.83
702.653	54.22
702.838	54.45
703.023	54.59
703.208	55.24
703.393	55.68
703.578	56.14
703.763	56.56
703.948	56.67
704.133	56.88
704.318	56.35
704.503	56.7
704.688	57.11
704.873	57.28
705.057	57.5
705.242	57.88
705.427	57.87
705.612	58.22
705.797	58.49
705.981	58.66
706.166	58.76
706.351	59.54
706.536	59.64
706.72	59.37
706.905	59.56
707.09	59.64
707.274	59.48
707.459	59.72
707.644	59.73
707.828	59.86
708.013	60.26
708.197	60.09
708.382	59.87
708.567	60.1
708.751	60.08
708.936	59.91
709.12	60.05
709.305	59.84
709.489	59.37
709.673	59.15
709.858	58.65
710.042	57.95
710.227	57.65
710.411	57.57
710.596	57.64
710.78	57.48
710.964	57.62
711.149	57.48
711.333	57.92
711.517	58.07
711.702	58.05
711.886	58.28
712.07	58.69
712.254	58.54
712.438	58.26
712.623	57.85
712.807	57.64
712.991	57.65
713.175	57.28
713.359	56.83
713.544	56.55
713.728	56.29
713.912	55.98
714.096	55.8
714.28	56.12
714.464	56.26
714.648	55.91
714.832	56.07
715.016	55.8
715.2	55.85
715.384	55.82
715.568	56.2
715.752	56.31
715.936	56.74
716.12	56.71
716.304	56.86
716.488	56.9
716.671	57.85
716.855	58.25
717.039	58.61
717.223	58.52
717.407	58.48
717.59	58.86
717.774	58.94
717.958	58.72
718.142	58.52
718.325	58.48
718.509	58.63
718.693	58.01
718.877	58.17
719.06	58.12
719.244	58.86
719.428	59.43
719.611	59.35
719.795	59.63
719.978	59.89
720.162	60.47
720.345	60.54
720.529	61.51
720.713	62.05
720.896	61.42
721.08	61.29
721.263	61.38
721.446	61.46
721.63	61.32
721.813	61.31
721.997	61.6
722.18	61.76
722.364	62.14
722.547	61.67
722.73	61.63
722.914	62.43
723.097	62.69
723.28	62.38
723.464	62.09
723.647	62.16
723.83	61.94
724.013	62.16
724.197	61.97
724.38	61.61
724.563	61.47
724.746	62.26
724.929	62.23
725.112	62.7
725.296	62.8
725.479	62.88
725.662	62.65
725.845	63.07
726.028	62.81
726.211	62.69
726.394	62.51
726.577	62.49
726.76	61.86
726.943	61.41
727.126	60.85
727.309	60.9
727.492	60.71
727.675	60.87
727.858	60.65
728.041	60.43
728.224	60.71
728.407	60.88
728.589	61.03
728.772	60.73
728.955	60.99
729.138	61.05
729.321	61.04
729.503	61.29
729.686	61
729.869	60.51
730.052	60.75
730.234	60.34
730.417	60.41
730.6	60.34
730.782	60.3
730.965	60.2
731.148	60.58
731.33	60.8
731.513	60.8
731.695	61.27
731.878	61.9
732.061	62.29
732.243	62.11
732.426	62.3
732.608	62.28
732.791	62.34
732.973	62.79
733.156	63.05
733.338	62.86
733.52	62.69
733.703	62.35
733.885	62.52
734.068	62.46
734.25	63.18
734.432	63.21
734.615	63.08
734.797	63.58
734.979	63.33
735.162	63.06
735.344	63.35
735.526	63.83
735.708	64.1
735.891	64.6
736.073	64.57
736.255	64.98
736.437	64.83
736.619	65.02
736.802	65.49
736.984	65.46
737.166	65.98
737.348	65.58
737.53	66.19
737.712	66.54
737.894	65.59
738.076	65.78
738.258	65.75
738.44	65.43
738.622	66.19
738.804	65.81
738.986	66.28
739.168	65.81
739.35	66.6
739.532	66.22
739.714	66.66
739.896	67.2
740.078	66.91
740.259	66.78
740.441	67.92
740.623	67.38
740.805	67.52
740.987	66.8
741.168	66.71
741.35	66.89
741.532	66.89
741.714	66.39
741.895	66.37
742.077	67.09
742.259	66.95
742.44	66.4
742.622	66.67
742.804	66.68
742.985	67.09
743.167	67.16
743.348	66.87
743.53	66.53
743.711	66.84
743.893	66.82
744.075	66.92
744.256	67.15
744.438	67.94
744.619	68.38
744.8	68.14
744.982	68.85
745.163	69.38
745.345	69.28
745.526	70.23
745.707	70.6
745.889	70.77
746.07	70.52
746.252	70.76
746.433	70.75
746.614	70.69
746.795	71.41
746.977	71.61
747.158	71.37
747.339	72.3
747.52	71.7
747.702	71.5
747.883	72.02
748.064	71.95
748.245	72
748.426	71.47
748.607	71
748.788	70.96
748.97	71.16
749.151	71.15
749.332	71.02
749.513	71.4
749.694	70.8
749.875	70.94
750.056	70.98
750.237	70.86
750.418	71.13
750.599	71.47
750.78	72.07
750.96	71.59
751.141	72.02
751.322	71.37
751.503	70.74
751.684	71.47
751.865	70.62
752.046	70.72
752.226	70.61
752.407	71.52
752.588	71.47
752.769	70.82
752.949	70.8
753.13	70.68
753.311	70.35
753.492	70.72
753.672	69.94
753.853	70.66
754.034	70.74
754.214	70.61
754.395	70.05
754.575	70.04
754.756	70.25
754.937	70.62
755.117	70.72
755.298	70.98
755.478	71.5
755.659	71.65
755.839	71.48
756.02	71.34
756.2	71.75
756.381	72.02
756.561	72.06
756.741	71.74
756.922	71.61
757.102	71.37
757.283	71.98
757.463	71.61
757.643	72.3
757.823	72.19
758.004	72.03
758.184	71.74
758.364	70.81
758.545	71.15
758.725	71.94
758.905	71.46
759.085	71.64
759.265	70.88
759.446	71.14
759.626	71.68
759.806	71.68
759.986	72.05
760.166	71.89
760.346	72.4
760.526	72.11
760.706	71.33
760.886	70.93
761.066	71.05
761.246	71.11
761.426	70.83
761.606	69.73
761.786	69.36
761.966	69.02
762.146	69.2
762.326	68.42
762.506	67.84
762.686	67.27
762.866	67.25
763.046	66.08
763.225	65.99
763.405	65.17
763.585	65.15
763.765	65.17
763.945	64.95
764.124	64.44
764.304	64.88
764.484	65.4
764.664	65.78
764.843	66.16
765.023	66.82
765.203	66.86
765.382	67.07
765.562	67.62
765.741	67.26
765.921	67.93
766.101	68.31
766.28	68.49
766.46	68.29
766.639	68.27
766.819	68.3
766.998	68.58
767.178	68.62
767.357	69.78
767.537	70.12
767.716	71.06
767.896	71.01
768.075	71.56
768.254	71.57
768.434	72.39
768.613	72.18
768.792	72.32
768.972	73.6
769.151	73.84
769.33	73.79
769.51	73.69
769.689	74.11
769.868	74.61
770.047	75.66
770.226	75.75
770.406	76.3
770.585	77.45
770.764	77.75
770.943	77.24
771.122	78.08
771.301	78.79
771.48	79.05
771.66	79.49
771.839	79.45
772.018	78.46
772.197	78.49
772.376	77.61
772.555	78
772.734	78.23
772.913	77.83
773.092	77.77
773.271	78.05
773.449	78.53
773.628	78.27
773.807	77.73
773.986	78.65
774.165	78.89
774.344	79.02
774.523	79.08
774.701	80.11
774.88	81.22
775.059	81.83
775.238	81.72
775.417	81.38
775.595	81.66
775.774	82.91
775.953	82.24
776.131	83.09
776.31	83.1
776.489	82.69
776.667	81.8
776.846	81
777.025	80.72
777.203	79.39
777.382	79.23
777.56	78.69
777.739	78.31
777.917	78.9
778.096	78.2
778.274	78.83
778.453	79.28
778.631	80.13
778.81	80.5
778.988	80.16
779.166	81.33
779.345	81.66
779.523	81.52
779.702	82.2
779.88	81.55
780.058	82.01
780.237	81.21
780.415	80.91
780.593	80.33
780.771	80.81
780.95	81.16
781.128	81.1
781.306	81.72
781.484	82.72
781.662	82.14
781.841	82.4
782.019	81.46
782.197	82.53
782.375	82.85
782.553	83.12
782.731	83.9
782.909	83.75
783.087	84.01
783.265	84.3
783.443	84.04
783.621	83.39
783.799	84.22
783.977	85.29
784.155	85
784.333	84.92
784.511	84.19
784.689	82.94
784.867	82.99
785.045	83.21
785.223	82.98
785.4	83.43
785.578	83.81
785.756	83.69
785.934	83
786.112	83.49
786.289	83.45
786.467	83.74
786.645	83.3
786.823	83.66
787	83.29
787.178	82.25
787.356	81.59
787.533	82.1
787.711	81.64
787.889	82.37
788.066	81.43
788.244	80.77
788.421	80.77
788.599	80.86
788.776	80.66
788.954	80.49
789.131	80.61
789.309	80.91
789.486	81
789.664	80.81
789.841	80.18
790.019	80.09
790.196	80.92
790.373	80.93
790.551	82.33
790.728	82.12
790.906	83.38
791.083	83.29
791.26	83.73
791.437	84.54
791.615	85.71
791.792	85.43
791.969	86.02
792.146	86.12
792.324	86.81
792.501	85.99
792.678	86.44
792.855	86.21
793.032	87.18
793.209	87.5
793.387	86.96
793.564	85.99
793.741	87.33
793.918	87.25
794.095	87.31
794.272	87
794.449	86.68
794.626	86.22
794.803	85.79
794.98	84.68
795.157	84.12
795.334	83.9
795.511	84.88
795.688	84.9
795.864	84.3
796.041	83.2
796.218	83.73
796.395	84.32
796.572	84.6
796.749	84.59
796.925	85.44
797.102	86.14
797.279	87.04
797.456	85.54
797.632	84.92
797.809	85.18
797.986	86.58
798.162	85.82
798.339	85.88
798.516	87.11
798.692	86.28
798.869	86.46
799.046	85.47
799.222	84.68
799.399	85.76
799.575	86.38
799.752	87.37
799.928	86.92
800.105	88.03
800.281	88.25
800.458	87.9
800.634	88.27
800.811	88.28
800.987	88.88
801.163	89.47
801.34	90.1
801.516	90.02
801.692	89.65
801.869	89.1
802.045	88.57
802.221	88.37
802.398	87.29
802.574	88.46
802.75	89.57
802.926	88.97
803.103	88.88
803.279	88.34
803.455	88.68
803.631	89.93
803.807	92.14
803.983	93.17
804.16	93.48
804.336	93.8
804.512	94.6
804.688	94.26
804.864	94.79
805.04	94.36
805.216	95.08
805.392	95.01
805.568	94.89
805.744	94.22
805.92	93.63
806.096	94.54
806.272	96.88
806.448	97.18
806.623	96.43
806.799	96.85
806.975	97.35
807.151	97.12
807.327	96.84
807.503	96.39
807.678	95.98
807.854	94.94
808.03	94.9
808.206	93.66
808.381	91.87
808.557	93.07
808.733	93.76
808.908	94.48
809.084	93.33
809.26	92.54
809.435	92.87
809.611	92.94
809.787	93.8
809.962	92.64
810.138	94.31
810.313	96.4
810.489	95.48
810.664	94.27
810.84	92.95
811.015	95.06
811.191	96.67
811.366	97.67
811.542	98.15
811.717	98.46
811.892	98.04
812.068	98.33
812.243	97.67
812.419	98.72
812.594	100.41
812.769	101.43
812.944	101.49
813.12	101.02
813.295	101.49
813.47	101.42
813.645	102.82
813.821	103.87
813.996	102.97
814.171	103.36
814.346	102.27
814.521	100.84
814.697	100.71
814.872	99.48
815.047	100.95
815.222	99.98
815.397	99.92
815.572	98.9
815.747	99.93
815.922	99.29
816.097	98.02
816.272	98.39
816.447	98.94
816.622	98.36
816.797	99.62
816.972	98.67
817.147	98.76
817.322	98.03
817.496	96.72
817.671	95.58
817.846	96.3
818.021	95.35
818.196	94.86
818.371	94.63
818.545	93.85
818.72	92.99
818.895	92.14
819.069	90.08
819.244	90.3
819.419	89.33
819.594	87.05
819.768	84.37
819.943	83.6
820.117	82.07
820.292	79.25
820.467	78.14
820.641	75.36
820.816	72.22
820.99	69.85
821.165	67.07
821.339	65.28
821.514	63.98
821.688	62.56
821.863	61.39
822.037	60.44
822.212	59.98
822.386	58.99
822.56	58.37
822.735	58.24
822.909	58.08
823.084	58.32
823.258	58.23
823.432	58.41
823.606	58.66
823.781	59.07
823.955	59.09
824.129	59.49
824.303	60.54
824.478	61.4
824.652	62.33
824.826	63.03
825	63.57
825.174	64.45
825.348	64.43
825.523	65.7
825.697	66.03
825.871	66.88
826.045	66.82
826.219	66.45
826.393	66.24
826.567	65.65
826.741	65.72
826.915	65.22
827.089	65.09
827.263	65.4
827.437	64.86
827.611	64.91
827.784	65.35
827.958	65.93
828.132	66.14
828.306	66.78
828.48	67.32
828.654	68.27
828.827	69.2
829.001	70.49
829.175	71.66
829.349	73.2
829.522	74.55
829.696	75.99
829.87	77.95
830.044	79.43
830.217	82.12
830.391	83.29
830.565	84.01
830.738	86.35
830.912	86.65
831.085	88.02
831.259	89.61
831.432	88.9
831.606	89.9
831.779	88.91
831.953	88.01
832.126	86.11
832.3	85.76
832.473	84.56
832.647	82.08
832.82	80.59
832.994	79.07
833.167	76.69
833.34	75.31
833.514	72.93
833.687	71.64
833.86	71.2
834.034	70.49
834.207	69.64
834.38	69.15
834.553	70.01
834.727	70.36
834.9	70.53
835.073	71.09
835.246	72.39
835.419	73.41
835.593	74.5
835.766	75.21
835.939	76.84
836.112	78.38
836.285	80.7
836.458	81.81
836.631	83.95
836.804	85.66
836.977	87.77
837.15	90.33
837.323	93.15
837.496	94.92
837.669	97.32
837.842	98.32
838.015	101.75
838.188	103.39
838.361	103.55
838.533	105.8
838.706	108.23
838.879	108.64
839.052	107.42
839.225	105.86
839.398	105.35
839.57	105.06
839.743	105.56
839.916	105.1
840.088	105.25
840.261	106.94
840.434	106.12
840.607	105.33
840.779	105.37
840.952	105.98
841.124	108.13
841.297	108.79
841.47	110.98
841.642	110.95
841.815	112.19
841.987	113
842.16	113.96
842.332	113.48
842.505	114.5
842.677	115.23
842.85	116.25
843.022	117.72
843.194	122.21
843.367	123.89
843.539	125.25
843.712	124.84
843.884	125.09
844.056	123.37
844.229	127.68
844.401	131.4
844.573	135.45
844.745	137.67
844.918	143.08
845.09	142.73
845.262	145.75
845.434	149.51
845.606	155.8
845.779	160.73
845.951	167.72
846.123	163.91
846.295	160.83
846.467	159.95
846.639	162.46
846.811	159.34
846.983	160.4
847.155	156.08
847.327	155.54
847.499	152.39
847.671	152.45
847.843	149.69
848.015	152.77
848.187	157.95
848.359	161.81
848.531	159.23
848.703	158.54
848.875	162.85
849.047	167.04
849.218	171.1
849.39	170.03
849.562	169.32
849.734	170.81
849.905	172.83
850.077	174.43
850.249	170.07
850.421	175.56
850.592	173.07
850.764	170.25
850.936	172.81
851.107	168.49
851.279	169.19
851.451	165.52
851.622	168.39
851.794	164.09
851.965	159.17
852.137	163.86
852.308	160.1
852.48	164.15
852.651	167.75
852.823	163.76
852.994	165.48
853.166	166.55
853.337	173.11
853.509	170.08
853.68	176.27
853.851	182.14
854.023	180.32
854.194	185.14
854.365	184.77
854.537	180.59
854.708	185.09
854.879	193.07
855.05	202.8
855.222	196.68
855.393	203.52
855.564	197.95
855.735	200.73
855.906	197.11
856.078	197.98
856.249	200.92
856.42	204.96
856.591	200.69
856.762	194.47
856.933	186.78
857.104	196.92
857.275	188.66
857.446	196.04
857.617	189.42
857.788	188.9
857.959	187.55
858.13	182.15
858.301	177.95
858.472	181.47
858.643	185.99
858.814	182.38
858.985	178.13
859.155	179.11
859.326	176.65
859.497	178.03
859.668	178.08
859.839	183.47
860.009	185.64
860.18	188.48
860.351	185.94
860.522	182.03
860.692	189.06
860.863	186.85
861.034	191.39
861.204	198.4
861.375	200.95
861.546	198.28
861.716	193.39
861.887	194.45
862.057	188.52
862.228	197.33
862.398	194.95
862.569	190.91
862.739	193.08
862.91	194.91
863.08	186.62
863.251	182.01
863.421	184.33
863.592	182.14
863.762	183.24
863.932	187.96
864.103	179.57
864.273	180.58
864.443	184.91
864.614	184.49
864.784	184.61
864.954	187.56
865.125	185.92
865.295	187.31
865.465	193.77
865.635	186.69
865.805	187.47
865.976	193.42
866.146	190.57
866.316	191.65
866.486	188.96
866.656	185.75
866.826	183.33
866.996	199.57
867.166	201.67
867.336	192.76
867.506	197.94
867.676	197.7
867.846	196.41
868.016	196.84
868.186	192.64
868.356	196.24
868.526	205.93
868.696	212.16
868.866	206.94
869.036	210.36
869.206	221.92
869.376	225.47
869.545	218.83
869.715	215.31
869.885	217.53
870.055	219.85
870.224	222.4
870.394	215.66
870.564	211.09
870.734	201.82
870.903	196.02
871.073	192.54
871.243	188.86
871.412	190.78
871.582	191.39
871.751	197.76
871.921	195.83
872.091	195.02
872.26	192.25
872.43	184.45
872.599	186.44
872.769	190.26
872.938	188.47
873.108	189.42
873.277	188.33
873.446	190.1
873.616	187.16
873.785	186.44
873.955	184.06
874.124	186.7
874.293	191.23
874.463	191.41
874.632	191.22
874.801	188.69
874.971	193.54
875.14	194.02
875.309	198.35
875.478	190.18
875.647	196.54
875.817	198.83
875.986	203.39
876.155	212.24
876.324	214.24
876.493	201.32
876.662	200.05
876.831	190.59
877	193.6
877.17	188.21
877.339	184.01
877.508	175.18
877.677	172.12
877.846	164.66
878.015	153.96
878.184	153.6
878.352	159.27
878.521	163.08
878.69	159.59
878.859	151.14
879.028	146.39
879.197	147.32
879.366	144.66
879.534	138.03
879.703	132.16
879.872	126.5
880.041	115.86
880.21	106.2
880.378	96.16
880.547	91.22
880.716	85.98
880.884	81.92
881.053	77.15
881.222	72.47
881.39	68.03
881.559	64.96
881.727	63.5
881.896	61.88
882.065	60.79
882.233	60.29
882.402	59.4
882.57	59.47
882.739	58.57
882.907	58.65
883.076	59.16
883.244	60.32
883.412	61.67
883.581	62
883.749	63.8
883.918	64.9
884.086	65.92
884.254	68.05
884.423	71.18
884.591	73.65
884.759	76.82
884.927	80.63
885.096	83.62
885.264	87.21
885.432	91.5
885.6	94.27
885.769	100.36
885.937	106.86
886.105	112.34
886.273	114.78
886.441	120.65
886.609	123.63
886.777	126.69
886.945	131.32
887.113	133.36
887.281	139.8
887.449	142.83
887.617	143.2
887.785	146.37
887.953	150.04
888.121	153.12
888.289	153.64
888.457	156.72
888.625	154.28
888.793	159.96
888.961	160.01
889.129	161.69
889.296	171.55
889.464	176.55
889.632	177.71
889.8	179.01
889.967	179.83
890.135	179.49
