Data from 2938715__Reflection_02.txt Node
Date: Tue Mar 17 19:01:36 EDT 2015
User: robert
Spectrometer: USB4E03002
Autoset integration time: false
Trigger mode: 4
Integration Time (sec): 1.000000E-1
Scans to average: 10
Electric dark correction enabled: false
Nonlinearity correction enabled: false
Boxcar width: 5
Stray light correction enabled: false
XAxis mode: Wavelengths
Stop averaging: false
Number of Pixels in Spectrum: 3648
>>>>>Begin Spectral Data<<<<<
177.575	64.24
177.794	68.93
178.014	72.82
178.233	46.26
178.452	66.11
178.672	62.26
178.891	130.86
179.11	165.57
179.33	288.33
179.549	48.51
179.768	21.88
179.987	50.48
180.207	56.89
180.426	53.12
180.645	39.44
180.864	16.6
181.084	9.3
181.303	-20.93
181.522	-12.08
181.741	31.23
181.96	-4.41
182.179	20.07
182.398	17.12
182.618	13.24
182.837	0.53
183.056	-20.8
183.275	13.79
183.494	-101.8
183.713	-70.81
183.932	-80.72
184.151	-119.11
184.37	-182.57
184.589	-429.09
184.808	616.95
185.027	-212.73
185.246	-129.23
185.465	-139.82
185.684	-130
185.903	-14.01
186.122	5.18
186.341	42.01
186.56	39
186.779	56.75
186.998	57.89
187.216	75.75
187.435	130.2
187.654	230.81
187.873	201.66
188.092	483.65
188.311	-611.9
188.53	-628.12
188.748	-1091.3
188.967	265.65
189.186	336.05
189.405	638.04
189.623	335.11
189.842	303.25
190.061	130
190.28	169.73
190.498	111.81
190.717	128.31
190.936	111.73
191.154	243.88
191.373	548
191.592	492.31
191.81	-495.12
192.029	-220.45
192.248	335.29
192.466	-279.17
192.685	905
192.904	-750
193.122	-3.93
193.341	-21.82
193.559	49.3
193.778	-13.46
193.996	-27.35
194.215	16.33
194.433	9.82
194.652	12.7
194.87	49.46
195.089	11.37
195.307	33.26
195.526	15.35
195.744	42.83
195.963	11.07
196.181	19.64
196.399	-2.18
196.618	-20.45
196.836	-85.88
197.055	-4387.5
197.273	-492.86
197.491	-1033.33
197.71	71.25
197.928	14400
198.146	-172
198.365	470.27
198.583	-1885.71
198.801	-351.52
199.019	-437.78
199.238	-828.13
199.456	-39.66
199.674	5.33
199.892	-60.09
200.111	-20.64
200.329	-73.94
200.547	-42.11
200.765	-16.91
200.983	-67.5
201.202	-190.62
201.42	-394.44
201.638	-39.2
201.856	429.17
202.074	-99.12
202.292	-50.78
202.51	-158.93
202.728	-57.07
202.946	-27.93
203.165	-32.33
203.383	-37.73
203.601	0.46
203.819	3.81
204.037	22.66
204.255	24.5
204.473	44.68
204.691	61.9
204.909	58.96
205.127	102.7
205.345	75.34
205.562	51.88
205.78	35.66
205.998	25.08
206.216	52.7
206.434	19.64
206.652	12.96
206.87	-122.62
207.088	-52.77
207.306	-51.71
207.523	-2218.75
207.741	-508.2
207.959	-745.95
208.177	-17.73
208.395	18.92
208.612	34.15
208.83	145.56
209.048	52.94
209.266	487.1
209.483	-235.71
209.701	1.8
209.919	34.14
210.136	23.72
210.354	35.97
210.572	5.92
210.79	-13.68
211.007	-66.08
211.225	-48.59
211.442	-20.7
211.66	-9.05
211.878	-2.92
212.095	9
212.313	6.34
212.53	-3.71
212.748	-9.67
212.966	9.29
213.183	-23.33
213.401	-4.43
213.618	-10.15
213.836	-9.8
214.053	-70.79
214.271	-110.66
214.488	-54.82
214.705	-48.26
214.923	-39.81
215.14	-78.92
215.358	-190.26
215.575	-132.37
215.793	-698.39
216.01	-201.97
216.227	-65.7
216.445	-9.87
216.662	16.1
216.879	-46.28
217.097	-39.91
217.314	-66.11
217.531	-26.71
217.749	-7.1
217.966	2.94
218.183	8.55
218.4	0.09
218.618	-12.03
218.835	-14.89
219.052	-12.39
219.269	-0.07
219.487	-14.44
219.704	-1.51
219.921	0.6
220.138	2.86
220.355	-11.02
220.572	-23.43
220.79	-13.09
221.007	-3.02
221.224	-0.76
221.441	6.45
221.658	-0.3
221.875	10.94
222.092	9.33
222.309	5.33
222.526	1.27
222.743	4.89
222.96	8.05
223.177	7.74
223.394	5.66
223.611	11.4
223.828	6.7
224.045	4.53
224.262	-4.56
224.479	-5
224.696	-3.19
224.913	0.66
225.13	0.13
225.347	-1.39
225.564	-6.07
225.781	-11.42
225.997	-14.85
226.214	-12.98
226.431	-10.43
226.648	-7.23
226.865	-5.48
227.082	-5.78
227.298	-6.73
227.515	-5.51
227.732	-3.76
227.949	-2.25
228.165	-1.24
228.382	-1.44
228.599	-1.52
228.816	-1.52
229.032	-1.03
229.249	-0.63
229.466	-0.63
229.682	-0.34
229.899	-0.32
230.116	-1.45
230.332	-2.14
230.549	-1.94
230.765	-1.23
230.982	-1.29
231.199	0.15
231.415	-0.66
231.632	-1.61
231.848	-0.49
232.065	-1.35
232.281	-2.28
232.498	-2.65
232.714	-2.28
232.931	-1.56
233.147	-2.43
233.364	-1.85
233.58	-2.13
233.797	-1.08
234.013	-2.33
234.23	-3.87
234.446	-1.84
234.662	-2.06
234.879	-0.95
235.095	-0.95
235.312	-1.08
235.528	-2.61
235.744	-1.95
235.961	-1.38
236.177	-2.89
236.393	-0.2
236.61	1.66
236.826	1.89
237.042	3.03
237.258	2.91
237.475	3.08
237.691	2.59
237.907	5.12
238.123	3.24
238.339	2.11
238.556	5.46
238.772	3.84
238.988	3.42
239.204	1.15
239.42	1.49
239.636	1.66
239.853	1.69
240.069	2.28
240.285	2.62
240.501	2.12
240.717	2.14
240.933	1.33
241.149	0.99
241.365	0.83
241.581	2.16
241.797	2.02
242.013	2.18
242.229	2.51
242.445	2.43
242.661	1.57
242.877	2.27
243.093	2.35
243.309	2.34
243.525	3.04
243.741	3.41
243.957	2.96
244.173	2.73
244.388	3.17
244.604	2.98
244.82	2.75
245.036	2.83
245.252	2.59
245.468	2.9
245.683	2.14
245.899	2.26
246.115	1.94
246.331	2.09
246.547	2.06
246.762	1.71
246.978	1.79
247.194	1.74
247.409	2.02
247.625	2.17
247.841	1.8
248.057	1.85
248.272	1.35
248.488	1.29
248.703	0.95
248.919	1.25
249.135	1.66
249.35	1.63
249.566	1.98
249.782	2.1
249.997	2.26
250.213	2.52
250.428	2.93
250.644	2.71
250.859	2.75
251.075	3.03
251.29	2.7
251.506	2.8
251.721	2.7
251.937	2.49
252.152	1.86
252.368	0.95
252.583	0.75
252.798	0.51
253.014	0.55
253.229	0.29
253.445	-0.74
253.66	-1.04
253.875	-2.59
254.091	-2.79
254.306	-3.46
254.521	-3.95
254.737	-3.74
254.952	-3.91
255.167	-3.55
255.383	-2.17
255.598	-2.02
255.813	-1.54
256.028	-2.48
256.244	-1.04
256.459	-1.46
256.674	-2.37
256.889	-2.01
257.104	-2.16
257.32	-1.5
257.535	-1.19
257.75	-1.54
257.965	-1.24
258.18	0.08
258.395	0.66
258.61	0.53
258.826	0.62
259.041	1.02
259.256	1.22
259.471	1.3
259.686	1.31
259.901	1.29
260.116	1.45
260.331	1.53
260.546	1.23
260.761	1.52
260.976	1.43
261.191	1.61
261.406	2.07
261.621	2.38
261.836	2.43
262.05	2.46
262.265	2.45
262.48	2.42
262.695	2.36
262.91	2.06
263.125	1.29
263.34	1.42
263.555	1.07
263.769	0.24
263.984	-0.93
264.199	-1.1
264.414	-1.76
264.629	-1.74
264.843	-1.87
265.058	-1.93
265.273	-1.69
265.488	-1.75
265.702	-1.48
265.917	-1.31
266.132	-1.03
266.346	-0.88
266.561	-0.72
266.776	-0.19
266.99	-0.43
267.205	-0.17
267.42	0.13
267.634	0.08
267.849	0.41
268.063	0.12
268.278	-0.02
268.492	-0.14
268.707	0.14
268.922	0.39
269.136	0.3
269.351	0.87
269.565	0.67
269.78	0.57
269.994	0.61
270.209	0.48
270.423	0.33
270.637	0.51
270.852	0.23
271.066	0.16
271.281	0.18
271.495	0.22
271.709	0.27
271.924	0.03
272.138	0.07
272.353	0.09
272.567	-0.07
272.781	0.13
272.996	0.26
273.21	0.62
273.424	0.55
273.638	0.3
273.853	0.48
274.067	0.11
274.281	0.31
274.495	0.24
274.71	0.09
274.924	0.4
275.138	0.17
275.352	0.17
275.566	-0.06
275.781	0.5
275.995	0.49
276.209	0.63
276.423	0.47
276.637	0.46
276.851	0.28
277.065	0.97
277.279	1.07
277.493	1.54
277.707	1.99
277.921	2.25
278.135	1.69
278.349	2.03
278.563	1.07
278.777	1.41
278.991	1.49
279.205	1.5
279.419	1.01
279.633	0.74
279.847	0.48
280.061	-0.12
280.275	-0.35
280.489	0.11
280.703	-0.28
280.917	0.32
281.131	0.2
281.344	0.11
281.558	0.31
281.772	0.53
281.986	0.67
282.2	0.66
282.414	1.01
282.627	0.93
282.841	0.77
283.055	0.61
283.269	0.83
283.482	0.98
283.696	1.25
283.91	1.18
284.123	1.23
284.337	1.24
284.551	1.18
284.764	0.88
284.978	0.93
285.192	0.81
285.405	1.19
285.619	0.71
285.833	0.78
286.046	0.44
286.26	0.57
286.473	0.4
286.687	0.38
286.9	0.47
287.114	0.49
287.327	0.45
287.541	0.45
287.754	0.25
287.968	0.35
288.181	0.23
288.395	0.72
288.608	0.76
288.822	0.64
289.035	0.68
289.248	0.7
289.462	0.67
289.675	0.68
289.889	0.84
290.102	1.01
290.315	1.07
290.529	0.9
290.742	0.6
290.955	0.57
291.169	0.79
291.382	0.86
291.595	0.92
291.808	1.09
292.022	1.35
292.235	1.41
292.448	1.48
292.661	1.74
292.875	2.03
293.088	2.27
293.301	2.67
293.514	2.71
293.727	2.54
293.94	2.6
294.153	2.57
294.367	2.4
294.58	2.41
294.793	2.36
295.006	2.36
295.219	2.47
295.432	2.31
295.645	1.85
295.858	1.87
296.071	2.01
296.284	2.18
296.497	2.23
296.71	2.36
296.923	2.27
297.136	2.37
297.349	2.17
297.562	2.01
297.775	2.16
297.988	2.37
298.201	2.42
298.414	2.54
298.626	2.41
298.839	2.34
299.052	2.9
299.265	3.14
299.478	3.4
299.691	3.89
299.903	4.15
300.116	4.2
300.329	4.1
300.542	3.87
300.755	3.63
300.967	3.85
301.18	3.94
301.393	3.36
301.605	3.38
301.818	3.09
302.031	3.36
302.243	3.13
302.456	2.97
302.669	2.82
302.881	2.68
303.094	2.94
303.307	2.64
303.519	2.93
303.732	2.86
303.944	3.03
304.157	3.28
304.37	2.9
304.582	3.15
304.795	3.09
305.007	3.39
305.22	3.84
305.432	3.88
305.645	4.03
305.857	4.04
306.069	4.55
306.282	4.34
306.494	4.14
306.707	4.35
306.919	4.46
307.132	4.72
307.344	4.67
307.556	4.81
307.769	5.13
307.981	5
308.193	4.77
308.406	4.71
308.618	4.87
308.83	5.19
309.043	4.75
309.255	4.76
309.467	4.71
309.679	4.65
309.892	4.66
310.104	4.42
310.316	4.82
310.528	5.01
310.74	4.92
310.953	4.9
311.165	4.8
311.377	5.06
311.589	5.01
311.801	5.07
312.013	5.51
312.225	5.41
312.437	5.49
312.649	5.57
312.862	5.61
313.074	5.43
313.286	5.42
313.498	5.23
313.71	5.02
313.922	5.01
314.134	5.24
314.346	4.91
314.558	5.15
314.77	5.38
314.982	5.57
315.193	5.59
315.405	5.56
315.617	5.54
315.829	5.65
316.041	5.93
316.253	6
316.465	5.9
316.677	5.94
316.888	5.89
317.1	5.65
317.312	5.16
317.524	5.22
317.736	5.5
317.947	5.58
318.159	5.72
318.371	5.6
318.583	5.35
318.794	5.7
319.006	5.75
319.218	5.49
319.43	5.2
319.641	5.25
319.853	5.04
320.064	4.85
320.276	4.76
320.488	4.84
320.699	5.23
320.911	5.62
321.123	5.1
321.334	5.17
321.546	5.55
321.757	6.2
321.969	6.36
322.18	6.09
322.392	6.01
322.603	6.08
322.815	6.04
323.026	5.66
323.238	5.45
323.449	5.81
323.661	5.52
323.872	5.47
324.083	4.98
324.295	4.87
324.506	5.04
324.718	5.05
324.929	5.17
325.14	5.29
325.352	5.37
325.563	5.66
325.774	5.44
325.986	5.92
326.197	6.04
326.408	6.24
326.62	6.11
326.831	6.12
327.042	6.29
327.253	6.56
327.464	6.58
327.676	6.62
327.887	6.41
328.098	6.48
328.309	6.46
328.52	6.09
328.732	6.15
328.943	6.08
329.154	5.9
329.365	5.84
329.576	5.84
329.787	5.76
329.998	5.93
330.209	6.01
330.42	6.16
330.631	6.24
330.842	6.31
331.053	6.53
331.264	6.58
331.475	7.1
331.686	7.34
331.897	6.65
332.108	6.74
332.319	7.06
332.53	7.16
332.741	7.16
332.952	7.01
333.163	7.57
333.374	7.4
333.585	7.71
333.795	7.69
334.006	7.41
334.217	7.52
334.428	7.11
334.639	7.16
334.849	6.91
335.06	6.99
335.271	6.97
335.482	6.74
335.692	6.64
335.903	6.6
336.114	6.56
336.325	6.8
336.535	7.12
336.746	7.67
336.957	7.22
337.167	7.6
337.378	7.56
337.589	7.12
337.799	7.33
338.01	7.21
338.22	7.22
338.431	7.27
338.642	7.28
338.852	7.33
339.063	7.21
339.273	7.39
339.484	7.05
339.694	7.37
339.905	7.78
340.115	7.61
340.326	7.78
340.536	7.95
340.746	8.04
340.957	8.09
341.167	7.86
341.378	8
341.588	7.95
341.799	8.1
342.009	7.92
342.219	7.81
342.43	7.54
342.64	7.91
342.85	7.57
343.061	7.24
343.271	7.05
343.481	7.23
343.691	6.96
343.902	6.96
344.112	6.79
344.322	6.52
344.532	6.34
344.743	6.49
344.953	6.09
345.163	6.29
345.373	6.42
345.583	6.36
345.793	6.44
346.004	6.78
346.214	6.71
346.424	6.67
346.634	6.65
346.844	6.87
347.054	6.82
347.264	7.11
347.474	7
347.684	7.12
347.894	7.3
348.104	7.05
348.314	6.56
348.524	6.46
348.734	6.66
348.944	6.76
349.154	7.1
349.364	7.09
349.574	7
349.784	6.98
349.994	6.94
350.204	7.16
350.413	7.41
350.623	7.49
350.833	7.68
351.043	7.64
351.253	7.71
351.463	7.27
351.672	7.51
351.882	7.42
352.092	7.53
352.302	7.52
352.511	7.15
352.721	7.12
352.931	7.15
353.141	7.25
353.35	7.05
353.56	6.94
353.77	6.92
353.979	6.94
354.189	7.02
354.399	6.78
354.608	6.95
354.818	6.94
355.027	6.73
355.237	6.66
355.447	6.39
355.656	6.61
355.866	6.67
356.075	6.69
356.285	6.58
356.494	6.56
356.704	6.75
356.913	6.43
357.123	6.29
357.332	6.43
357.542	6.47
357.751	6.4
357.96	6.46
358.17	6.54
358.379	6.56
358.589	6.58
358.798	6.73
359.007	6.51
359.217	6.73
359.426	6.95
359.635	6.87
359.845	6.98
360.054	7.09
360.263	6.96
360.472	6.74
360.682	6.9
360.891	6.91
361.1	6.7
361.309	6.83
361.519	6.8
361.728	6.8
361.937	6.77
362.146	6.8
362.355	6.84
362.564	6.89
362.774	7
362.983	6.79
363.192	6.59
363.401	6.51
363.61	6.52
363.819	6.45
364.028	6.53
364.237	6.31
364.446	6.17
364.655	6.1
364.864	6.22
365.073	6.16
365.282	6.12
365.491	6.16
365.7	6.19
365.909	5.96
366.118	5.93
366.327	5.75
366.536	5.98
366.745	6.07
366.954	5.96
367.162	5.59
367.371	5.73
367.58	5.66
367.789	5.9
367.998	6.08
368.207	6.34
368.415	6.34
368.624	6.19
368.833	6.14
369.042	5.99
369.25	6.01
369.459	6.21
369.668	5.98
369.877	6.34
370.085	5.85
370.294	5.84
370.503	5.59
370.711	5.67
370.92	5.58
371.129	5.63
371.337	5.7
371.546	5.55
371.754	5.53
371.963	5.65
372.171	5.51
372.38	5.64
372.589	5.32
372.797	5.24
373.006	4.91
373.214	5.19
373.423	5.14
373.631	4.99
373.84	5.06
374.048	4.99
374.256	4.94
374.465	4.99
374.673	4.73
374.882	4.69
375.09	4.68
375.298	4.79
375.507	4.68
375.715	4.62
375.923	4.63
376.132	4.66
376.34	4.56
376.548	4.41
376.757	4.25
376.965	4.38
377.173	4.56
377.381	4.64
377.59	4.68
377.798	4.54
378.006	4.5
378.214	4.32
378.423	4.43
378.631	4.49
378.839	4.52
379.047	4.56
379.255	4.76
379.463	4.61
379.671	4.45
379.879	4.5
380.088	4.62
380.296	4.74
380.504	4.81
380.712	4.52
380.92	4.61
381.128	4.59
381.336	4.37
381.544	4.3
381.752	4.3
381.96	4.38
382.168	4.33
382.376	4.32
382.584	3.98
382.791	4.06
382.999	3.94
383.207	3.57
383.415	3.54
383.623	3.6
383.831	3.27
384.039	3.1
384.247	3.17
384.454	3.12
384.662	3.12
384.87	3.13
385.078	3.05
385.285	3.3
385.493	3.55
385.701	3.49
385.909	3.4
386.116	3.43
386.324	3.69
386.532	3.47
386.739	3.31
386.947	3.37
387.155	3.43
387.362	3.41
387.57	3.26
387.778	3.03
387.985	3.19
388.193	3.25
388.4	3.29
388.608	3.11
388.816	3.22
389.023	3.31
389.231	3.25
389.438	3.11
389.646	3.17
389.853	2.91
390.061	3.08
390.268	2.75
390.475	2.79
390.683	2.86
390.89	2.95
391.098	2.99
391.305	2.99
391.512	2.83
391.72	2.95
391.927	2.85
392.135	3.02
392.342	3.05
392.549	3.09
392.756	3.08
392.964	3.03
393.171	2.87
393.378	2.78
393.586	2.78
393.793	2.87
394	2.83
394.207	2.83
394.414	2.93
394.622	2.95
394.829	3.01
395.036	2.89
395.243	2.92
395.45	2.95
395.657	2.9
395.864	2.88
396.072	2.79
396.279	2.82
396.486	2.88
396.693	2.99
396.9	2.78
397.107	2.86
397.314	2.91
397.521	2.98
397.728	3.05
397.935	3.16
398.142	3.22
398.349	3.3
398.556	3.3
398.763	3.19
398.97	2.93
399.177	2.99
399.383	2.77
399.59	2.72
399.797	2.6
400.004	2.54
400.211	2.47
400.418	2.43
400.625	2.28
400.831	2.15
401.038	2.19
401.245	2.31
401.452	2.29
401.658	2.29
401.865	2.38
402.072	2.42
402.279	2.53
402.485	2.52
402.692	2.3
402.899	2.31
403.105	2.56
403.312	2.43
403.519	2.36
403.725	2.31
403.932	2.46
404.138	2.32
404.345	2.26
404.552	2.17
404.758	2.18
404.965	2.31
405.171	2.31
405.378	2.33
405.584	2.53
405.791	2.42
405.997	2.56
406.204	2.55
406.41	2.44
406.617	2.44
406.823	2.29
407.029	2.16
407.236	2.1
407.442	2.14
407.649	2.05
407.855	1.95
408.061	2.11
408.268	1.94
408.474	1.94
408.68	2.21
408.887	2.26
409.093	2.27
409.299	2.38
409.505	2.3
409.712	2.23
409.918	2.11
410.124	2.17
410.33	2.11
410.537	2.13
410.743	2.08
410.949	2
411.155	1.84
411.361	2
411.567	1.92
411.773	2
411.98	2.08
412.186	2.1
412.392	1.98
412.598	1.95
412.804	2.05
413.01	2.02
413.216	2.1
413.422	2.22
413.628	2.26
413.834	2.31
414.04	2.38
414.246	2.43
414.452	2.45
414.658	2.57
414.864	2.58
415.07	2.5
415.275	2.52
415.481	2.41
415.687	2.36
415.893	2.39
416.099	2.36
416.305	2.33
416.511	2.18
416.716	2.19
416.922	2.03
417.128	2.14
417.334	2.31
417.539	2.32
417.745	2.33
417.951	2.27
418.157	2.24
418.362	2.26
418.568	2.27
418.774	2.34
418.979	2.31
419.185	2.37
419.391	2.37
419.596	2.23
419.802	2.25
420.008	2.32
420.213	2.37
420.419	2.29
420.624	2.24
420.83	2.23
421.035	2.25
421.241	2.26
421.446	2.29
421.652	2.24
421.857	2.14
422.063	2.11
422.268	2.07
422.474	2.09
422.679	2.15
422.885	2.24
423.09	2.24
423.295	2.26
423.501	2.24
423.706	2.24
423.911	2.29
424.117	2.38
424.322	2.39
424.527	2.39
424.733	2.46
424.938	2.44
425.143	2.38
425.349	2.37
425.554	2.34
425.759	2.3
425.964	2.21
426.169	2.15
426.375	2.2
426.58	2.15
426.785	2.07
426.99	1.98
427.195	1.95
427.4	1.99
427.605	1.99
427.811	2.03
428.016	2.04
428.221	2.16
428.426	2.17
428.631	2.13
428.836	2.17
429.041	2.21
429.246	2.3
429.451	2.35
429.656	2.19
429.861	2.22
430.066	2.05
430.271	2.01
430.476	1.96
430.681	1.86
430.886	1.84
431.09	1.88
431.295	1.98
431.5	1.86
431.705	1.77
431.91	1.86
432.115	1.86
432.32	1.92
432.524	2.02
432.729	1.96
432.934	2
433.139	2.01
433.343	2.04
433.548	1.98
433.753	1.99
433.958	2.08
434.162	2.06
434.367	2.07
434.572	2.05
434.776	2.09
434.981	2.1
435.186	2.26
435.39	2.29
435.595	2.19
435.799	2.25
436.004	2.27
436.209	2.32
436.413	2.39
436.618	2.36
436.822	2.39
437.027	2.28
437.231	2.25
437.436	2.09
437.64	1.99
437.845	1.98
438.049	1.91
438.253	1.89
438.458	1.79
438.662	1.83
438.867	1.83
439.071	1.83
439.275	1.98
439.48	2.06
439.684	2.09
439.888	2.14
440.093	2.21
440.297	2.24
440.501	2.24
440.706	2.3
440.91	2.26
441.114	2.28
441.318	2.28
441.523	2.25
441.727	2.25
441.931	2.18
442.135	2.24
442.339	2.27
442.543	2.2
442.748	2.22
442.952	2.15
443.156	2.13
443.36	2
443.564	2.09
443.768	2.04
443.972	1.99
444.176	2.2
444.38	2.13
444.584	2.03
444.788	2.11
444.992	2.13
445.196	2.1
445.4	2.1
445.604	2.22
445.808	2.21
446.012	2.24
446.216	2.21
446.42	2.08
446.624	2.06
446.828	2.1
447.032	2.08
447.235	2.03
447.439	2.06
447.643	2.11
447.847	2.08
448.051	2
448.254	1.98
448.458	1.97
448.662	2.03
448.866	2.06
449.069	2.06
449.273	1.98
449.477	2.06
449.681	2.08
449.884	2.1
450.088	2.07
450.292	2.21
450.495	2.13
450.699	2.19
450.902	2.04
451.106	2.06
451.31	1.98
451.513	2.07
451.717	2.03
451.92	1.99
452.124	1.95
452.327	1.94
452.531	1.78
452.734	1.82
452.938	1.87
453.141	1.96
453.345	1.94
453.548	1.98
453.752	1.98
453.955	2.09
454.158	2.12
454.362	2.06
454.565	1.99
454.769	1.95
454.972	2.03
455.175	1.98
455.379	1.98
455.582	2.02
455.785	2.07
455.988	2.01
456.192	1.83
456.395	1.79
456.598	1.85
456.801	1.98
457.005	2.05
457.208	1.94
457.411	1.93
457.614	1.94
457.817	1.95
458.021	1.96
458.224	2.01
458.427	1.91
458.63	1.96
458.833	1.93
459.036	1.91
459.239	1.86
459.442	1.9
459.645	1.8
459.848	1.77
460.051	1.68
460.254	1.63
460.457	1.58
460.66	1.67
460.863	1.65
461.066	1.67
461.269	1.66
461.472	1.75
461.675	1.77
461.878	1.9
462.081	1.94
462.284	2.02
462.486	2.1
462.689	2.17
462.892	2.24
463.095	2.19
463.298	2.22
463.5	2.11
463.703	2.05
463.906	2
464.109	2
464.311	2.08
464.514	1.96
464.717	2.04
464.92	1.99
465.122	1.89
465.325	1.89
465.528	1.99
465.73	2.07
465.933	2.06
466.135	2.07
466.338	2.05
466.541	2.02
466.743	2.07
466.946	1.87
467.148	1.93
467.351	1.97
467.553	2.01
467.756	1.91
467.958	1.92
468.161	2.03
468.363	1.99
468.566	1.94
468.768	1.85
468.971	1.91
469.173	2.03
469.375	2.02
469.578	2.06
469.78	2.01
469.983	2.09
470.185	2.12
470.387	2.12
470.59	2.19
470.792	2.18
470.994	2.33
471.196	2.33
471.399	2.27
471.601	2.3
471.803	2.31
472.005	2.34
472.208	2.26
472.41	2.23
472.612	2.23
472.814	2.25
473.016	2.25
473.218	2.12
473.421	2.02
473.623	2.1
473.825	2.13
474.027	2.06
474.229	2.02
474.431	2.07
474.633	2.05
474.835	2.03
475.037	2.06
475.239	2.12
475.441	2.17
475.643	2.29
475.845	2.25
476.047	2.18
476.249	2.21
476.451	2.27
476.653	2.28
476.855	2.33
477.057	2.29
477.258	2.22
477.46	2.22
477.662	2.18
477.864	2.17
478.066	2.21
478.268	2.23
478.469	2.29
478.671	2.22
478.873	2.08
479.075	2.1
479.276	2.08
479.478	2.15
479.68	2.12
479.882	2.16
480.083	2.15
480.285	2.15
480.487	2.19
480.688	2.13
480.89	2.16
481.091	2.25
481.293	2.31
481.495	2.33
481.696	2.3
481.898	2.29
482.099	2.32
482.301	2.32
482.502	2.3
482.704	2.25
482.905	2.26
483.107	2.27
483.308	2.26
483.51	2.19
483.711	2.19
483.913	2.22
484.114	2.21
484.315	2.18
484.517	2.15
484.718	2.14
484.92	2.18
485.121	2.16
485.322	2.14
485.524	2.13
485.725	2.15
485.926	2.13
486.127	2.12
486.329	2.13
486.53	2.16
486.731	2.19
486.932	2.21
487.134	2.16
487.335	2.19
487.536	2.2
487.737	2.19
487.938	2.2
488.139	2.2
488.341	2.2
488.542	2.19
488.743	2.18
488.944	2.17
489.145	2.14
489.346	2.15
489.547	2.11
489.748	2.1
489.949	2.12
490.15	2.14
490.351	2.12
490.552	2.14
490.753	2.16
490.954	2.18
491.155	2.16
491.356	2.14
491.557	2.13
491.758	2.16
491.959	2.18
492.159	2.18
492.36	2.14
492.561	2.15
492.762	2.1
492.963	2.05
493.164	2.05
493.364	2.11
493.565	2.13
493.766	2.23
493.967	2.33
494.167	2.3
494.368	2.26
494.569	2.3
494.769	2.33
494.97	2.32
495.171	2.37
495.371	2.33
495.572	2.29
495.773	2.31
495.973	2.26
496.174	2.11
496.375	2.11
496.575	2.19
496.776	2.18
496.976	2.2
497.177	2.24
497.377	2.29
497.578	2.34
497.778	2.39
497.979	2.43
498.179	2.41
498.38	2.42
498.58	2.48
498.78	2.5
498.981	2.57
499.181	2.62
499.382	2.7
499.582	2.64
499.782	2.66
499.983	2.66
500.183	2.59
500.383	2.68
500.584	2.74
500.784	2.78
500.984	2.85
501.184	2.77
501.385	2.75
501.585	2.64
501.785	2.74
501.985	2.77
502.185	2.8
502.386	2.81
502.586	2.84
502.786	2.91
502.986	2.86
503.186	2.72
503.386	2.77
503.586	2.75
503.786	2.86
503.987	2.81
504.187	2.82
504.387	2.8
504.587	2.85
504.787	2.88
504.987	2.83
505.187	2.87
505.387	2.94
505.587	2.95
505.786	3
505.986	3.01
506.186	3.07
506.386	3.09
506.586	3.16
506.786	3.18
506.986	3.18
507.186	3.19
507.386	3.23
507.585	3.34
507.785	3.37
507.985	3.42
508.185	3.44
508.384	3.46
508.584	3.47
508.784	3.45
508.984	3.49
509.183	3.55
509.383	3.61
509.583	3.58
509.782	3.54
509.982	3.55
510.182	3.52
510.381	3.53
510.581	3.55
510.781	3.61
510.98	3.65
511.18	3.71
511.379	3.72
511.579	3.77
511.778	3.81
511.978	3.85
512.177	3.85
512.377	3.95
512.576	4.07
512.776	4.15
512.975	4.19
513.175	4.26
513.374	4.29
513.573	4.34
513.773	4.41
513.972	4.55
514.172	4.64
514.371	4.77
514.57	4.9
514.77	4.93
514.969	4.94
515.168	4.96
515.367	5.02
515.567	5.05
515.766	5.17
515.965	5.17
516.164	5.21
516.364	5.26
516.563	5.4
516.762	5.45
516.961	5.52
517.16	5.54
517.359	5.64
517.559	5.65
517.758	5.74
517.957	5.77
518.156	5.83
518.355	5.93
518.554	5.99
518.753	5.95
518.952	5.97
519.151	6.01
519.35	6.04
519.549	6.07
519.748	6.16
519.947	6.24
520.146	6.27
520.345	6.37
520.544	6.34
520.743	6.38
520.942	6.52
521.141	6.57
521.339	6.61
521.538	6.77
521.737	6.79
521.936	6.84
522.135	6.92
522.333	7.04
522.532	7.09
522.731	7.32
522.93	7.49
523.129	7.57
523.327	7.69
523.526	7.88
523.725	7.97
523.923	8.16
524.122	8.24
524.321	8.27
524.519	8.35
524.718	8.48
524.917	8.47
525.115	8.52
525.314	8.59
525.512	8.75
525.711	8.76
525.909	8.87
526.108	8.93
526.306	9.07
526.505	9.18
526.703	9.24
526.902	9.34
527.1	9.47
527.299	9.56
527.497	9.65
527.696	9.68
527.894	9.78
528.092	9.81
528.291	9.88
528.489	9.92
528.688	9.96
528.886	10.01
529.084	10.01
529.283	10.05
529.481	10.11
529.679	10.15
529.877	10.19
530.076	10.2
530.274	10.27
530.472	10.35
530.67	10.44
530.869	10.54
531.067	10.68
531.265	10.8
531.463	10.89
531.661	11.01
531.859	11.08
532.057	11.2
532.255	11.35
532.454	11.46
532.652	11.53
532.85	11.65
533.048	11.69
533.246	11.75
533.444	11.82
533.642	11.88
533.84	11.92
534.038	11.99
534.236	12.03
534.434	12.06
534.632	12.14
534.83	12.22
535.027	12.24
535.225	12.33
535.423	12.43
535.621	12.56
535.819	12.66
536.017	12.71
536.215	12.83
536.412	12.93
536.61	12.99
536.808	13.07
537.006	13.13
537.203	13.22
537.401	13.29
537.599	13.34
537.797	13.37
537.994	13.45
538.192	13.55
538.39	13.63
538.587	13.66
538.785	13.84
538.983	13.96
539.18	14.1
539.378	14.22
539.575	14.38
539.773	14.52
539.97	14.69
540.168	14.8
540.366	14.91
540.563	15.03
540.761	15.16
540.958	15.24
541.155	15.32
541.353	15.4
541.55	15.44
541.748	15.45
541.945	15.46
542.143	15.48
542.34	15.51
542.537	15.6
542.735	15.63
542.932	15.64
543.129	15.69
543.327	15.78
543.524	15.84
543.721	15.98
543.919	16.16
544.116	16.31
544.313	16.45
544.51	16.6
544.708	16.7
544.905	16.82
545.102	17.03
545.299	17.08
545.496	17.13
545.693	17.24
545.891	17.29
546.088	17.29
546.285	17.36
546.482	17.38
546.679	17.29
546.876	17.26
547.073	17.26
547.27	17.23
547.467	17.29
547.664	17.26
547.861	17.22
548.058	17.15
548.255	17.21
548.452	17.2
548.649	17.22
548.846	17.26
549.043	17.33
549.24	17.39
549.437	17.45
549.633	17.39
549.83	17.51
550.027	17.44
550.224	17.58
550.421	17.59
550.618	17.65
550.814	17.75
551.011	17.83
551.208	17.79
551.405	17.81
551.601	17.81
551.798	17.9
551.995	17.84
552.191	17.89
552.388	17.81
552.585	17.87
552.781	17.88
552.978	17.76
553.175	17.75
553.371	17.75
553.568	17.81
553.764	17.88
553.961	17.88
554.157	18.02
554.354	18.1
554.55	18.14
554.747	18.1
554.943	18.04
555.14	18.1
555.336	18.18
555.533	18.28
555.729	18.17
555.926	18.15
556.122	18.14
556.318	18.09
556.515	18.15
556.711	18.21
556.907	18.29
557.104	18.41
557.3	18.44
557.496	18.5
557.693	18.6
557.889	18.81
558.085	18.87
558.281	18.97
558.478	19
558.674	18.96
558.87	18.89
559.066	18.95
559.262	18.99
559.459	19.01
559.655	18.98
559.851	18.96
560.047	18.83
560.243	18.87
560.439	18.77
560.635	18.77
560.831	18.81
561.027	18.9
561.223	18.77
561.419	18.73
561.615	18.71
561.811	18.72
562.007	18.7
562.203	18.76
562.399	18.77
562.595	18.85
562.791	18.89
562.987	18.84
563.183	18.9
563.379	19.06
563.575	19.15
563.771	19.32
563.966	19.36
564.162	19.39
564.358	19.46
564.554	19.45
564.75	19.49
564.945	19.66
565.141	19.78
565.337	19.77
565.533	19.85
565.728	19.77
565.924	19.69
566.12	19.76
566.315	19.8
566.511	19.78
566.707	19.79
566.902	19.75
567.098	19.66
567.293	19.55
567.489	19.59
567.684	19.47
567.88	19.56
568.076	19.57
568.271	19.6
568.467	19.66
568.662	19.69
568.858	19.77
569.053	19.75
569.248	19.75
569.444	19.91
569.639	19.96
569.835	20.04
570.03	20.03
570.225	20.01
570.421	19.91
570.616	19.87
570.812	19.92
571.007	19.91
571.202	20.04
571.397	20.12
571.593	20.1
571.788	20.05
571.983	20.12
572.178	20.22
572.374	20.35
572.569	20.52
572.764	20.52
572.959	20.57
573.154	20.58
573.35	20.61
573.545	20.63
573.74	20.66
573.935	20.7
574.13	20.67
574.325	20.64
574.52	20.71
574.715	20.62
574.91	20.76
575.105	20.77
575.3	20.82
575.495	20.84
575.69	20.82
575.885	20.86
576.08	20.94
576.275	21
576.47	21.07
576.665	21.04
576.86	21.17
577.055	21.21
577.25	21.2
577.444	21.18
577.639	21.33
577.834	21.58
578.029	21.76
578.224	21.87
578.418	21.97
578.613	21.94
578.808	22.09
579.003	22.13
579.197	22.05
579.392	22.1
579.587	22.22
579.781	22.11
579.976	21.87
580.171	21.7
580.365	21.78
580.56	21.81
580.755	21.85
580.949	21.79
581.144	21.74
581.338	21.79
581.533	21.76
581.727	21.74
581.922	21.76
582.116	21.92
582.311	22.01
582.505	21.89
582.7	21.87
582.894	21.98
583.089	22.01
583.283	22.04
583.478	22.15
583.672	22.3
583.866	22.26
584.061	22.19
584.255	22.16
584.449	22.14
584.644	22.1
584.838	22.06
585.032	21.97
585.226	21.93
585.421	22.04
585.615	22.09
585.809	22.13
586.003	22.21
586.198	22.4
586.392	22.39
586.586	22.57
586.78	22.71
586.974	22.67
587.168	22.87
587.363	22.89
587.557	22.89
587.751	22.88
587.945	22.82
588.139	22.81
588.333	22.9
588.527	22.99
588.721	22.92
588.915	22.96
589.109	22.96
589.303	22.86
589.497	22.89
589.691	22.71
589.885	22.68
590.079	22.62
590.273	22.61
590.466	22.53
590.66	22.55
590.854	22.63
591.048	22.62
591.242	22.64
591.436	22.66
591.629	22.76
591.823	22.97
592.017	23.03
592.211	23.05
592.404	23.14
592.598	23.13
592.792	22.96
592.986	22.9
593.179	22.87
593.373	23.09
593.567	22.95
593.76	22.83
593.954	22.74
594.147	22.61
594.341	22.7
594.535	22.78
594.728	22.83
594.922	22.87
595.115	22.87
595.309	22.81
595.502	22.82
595.696	22.9
595.889	22.92
596.083	23.1
596.276	23.21
596.47	23.15
596.663	23.19
596.856	23.08
597.05	23.15
597.243	23.11
597.437	23.06
597.63	22.97
597.823	23.16
598.017	23.18
598.21	23.05
598.403	22.95
598.596	23.14
598.79	22.98
598.983	22.99
599.176	23.03
599.369	23.02
599.563	23.12
599.756	23
599.949	22.78
600.142	22.72
600.335	22.61
600.528	22.73
600.722	22.6
600.915	22.59
601.108	22.71
601.301	22.68
601.494	22.8
601.687	22.8
601.88	22.87
602.073	22.91
602.266	22.9
602.459	23.12
602.652	23.26
602.845	23.24
603.038	23.28
603.231	23.24
603.424	23.22
603.617	23.1
603.809	23.11
604.002	23.19
604.195	23.32
604.388	23.4
604.581	23.35
604.774	23.17
604.966	23.17
605.159	23.16
605.352	23.34
605.545	23.41
605.737	23.54
605.93	23.58
606.123	23.48
606.316	23.38
606.508	23.49
606.701	23.53
606.894	23.69
607.086	23.73
607.279	23.8
607.471	23.71
607.664	23.74
607.857	23.83
608.049	24.04
608.242	24.44
608.434	24.81
608.627	25.08
608.819	25.61
609.012	26.09
609.204	26.8
609.397	27.39
609.589	28.2
609.782	28.92
609.974	29.78
610.166	30.52
610.359	31.21
610.551	31.82
610.743	32.36
610.936	32.79
611.128	33.01
611.32	33.28
611.513	33.51
611.705	33.35
611.897	33.32
612.09	33.05
612.282	32.76
612.474	32.34
612.666	31.95
612.858	31.59
613.051	31.23
613.243	31.1
613.435	30.54
613.627	30.19
613.819	29.9
614.011	29.62
614.203	29.08
614.395	28.73
614.588	28.25
614.78	28
614.972	27.79
615.164	27.4
615.356	27
615.548	26.83
615.74	26.6
615.932	26.4
616.124	26.01
616.315	26.1
616.507	26.03
616.699	26.02
616.891	25.67
617.083	25.5
617.275	25.35
617.467	25.29
617.659	25.08
617.85	24.99
618.042	24.9
618.234	24.92
618.426	24.62
618.618	24.58
618.809	24.55
619.001	24.65
619.193	24.62
619.384	24.66
619.576	24.61
619.768	24.69
619.959	24.61
620.151	24.46
620.343	24.69
620.534	24.86
620.726	24.95
620.917	24.98
621.109	24.98
621.301	24.92
621.492	24.93
621.684	25.17
621.875	25.1
622.067	25.09
622.258	25.29
622.45	25.13
622.641	25.09
622.832	25.11
623.024	25.1
623.215	25.25
623.407	25.46
623.598	25.49
623.789	25.39
623.981	25.39
624.172	25.41
624.363	25.28
624.555	25.16
624.746	25.22
624.937	25.17
625.129	25.19
625.32	25.18
625.511	25.09
625.702	24.91
625.893	24.87
626.085	24.96
626.276	24.99
626.467	25.14
626.658	25.13
626.849	25.05
627.04	24.97
627.231	25.08
627.422	25.08
627.614	25.01
627.805	25.21
627.996	25.27
628.187	25.34
628.378	25.47
628.569	25.55
628.76	25.83
628.951	26.01
629.142	26.15
629.332	26.16
629.523	26.2
629.714	26.42
629.905	26.59
630.096	26.68
630.287	26.64
630.478	26.64
630.669	26.64
630.859	26.51
631.05	26.43
631.241	26.29
631.432	26.13
631.623	25.96
631.813	25.79
632.004	25.56
632.195	25.38
632.385	25.23
632.576	24.96
632.767	24.92
632.957	24.85
633.148	24.64
633.339	24.58
633.529	24.64
633.72	24.56
633.91	24.59
634.101	24.6
634.292	24.5
634.482	24.54
634.673	24.74
634.863	24.56
635.054	24.62
635.244	24.66
635.435	24.7
635.625	24.59
635.815	24.74
636.006	24.61
636.196	24.54
636.387	24.57
636.577	24.61
636.767	24.38
636.958	24.47
637.148	24.43
637.338	24.32
637.529	24.37
637.719	24.41
637.909	24.43
638.099	24.44
638.29	24.42
638.48	24.51
638.67	24.54
638.86	24.58
639.05	24.47
639.241	24.54
639.431	24.63
639.621	24.51
639.811	24.47
640.001	24.43
640.191	24.62
640.381	24.69
640.571	24.51
640.761	24.4
640.951	24.39
641.141	24.37
641.331	24.28
641.521	24.14
641.711	24.37
641.901	24.4
642.091	24.46
642.281	24.45
642.471	24.49
642.661	24.61
642.851	24.58
643.041	24.65
643.231	24.77
643.42	24.78
643.61	25.27
643.8	25.16
643.99	25.17
644.18	25.02
644.369	24.81
644.559	24.91
644.749	24.92
644.939	25.19
645.128	25.16
645.318	25
645.508	24.86
645.697	24.69
645.887	24.74
646.076	24.65
646.266	24.78
646.456	24.82
646.645	24.66
646.835	24.67
647.024	24.6
647.214	24.73
647.403	24.7
647.593	24.86
647.782	25.03
647.972	24.9
648.161	24.91
648.351	24.93
648.54	25.01
648.73	24.89
648.919	24.98
649.108	25
649.298	25.08
649.487	25.33
649.677	25.24
649.866	24.99
650.055	25.16
650.244	25.23
650.434	25.16
650.623	25.02
650.812	25.15
651.002	25.01
651.191	24.96
651.38	24.99
651.569	25.02
651.758	24.99
651.947	24.98
652.137	24.95
652.326	24.78
652.515	24.74
652.704	24.98
652.893	24.9
653.082	25.01
653.271	24.83
653.46	24.45
653.649	24.45
653.838	24.66
654.027	24.65
654.216	24.52
654.405	24.91
654.594	24.93
654.783	24.84
654.972	24.93
655.161	24.92
655.35	25.26
655.539	25.56
655.728	25.33
655.916	24.92
656.105	24.84
656.294	25.08
656.483	24.81
656.672	24.94
656.86	24.94
657.049	24.95
657.238	24.95
657.427	24.81
657.615	24.9
657.804	25.14
657.993	25.42
658.181	25.64
658.37	25.55
658.559	25.68
658.747	25.76
658.936	25.9
659.125	25.62
659.313	25.57
659.502	25.67
659.69	25.48
659.879	25.25
660.067	25.43
660.256	25.37
660.444	25.49
660.633	25.62
660.821	25.45
661.01	25.33
661.198	25.67
661.387	25.84
661.575	25.68
661.763	25.74
661.952	26.07
662.14	26.01
662.328	25.71
662.517	25.6
662.705	25.45
662.893	25.46
663.082	25.28
663.27	25.39
663.458	25.27
663.646	25.42
663.834	25.37
664.023	25.14
664.211	24.89
664.399	25.28
664.587	25.54
664.775	25.75
664.963	25.74
665.152	25.97
665.34	25.86
665.528	25.93
665.716	25.92
665.904	26.08
666.092	26.26
666.28	26.26
666.468	26.15
666.656	26
666.844	25.6
667.032	25.63
667.22	25.74
667.408	25.6
667.596	25.37
667.784	25.19
667.971	25.19
668.159	25.11
668.347	25.22
668.535	25.73
668.723	25.73
668.911	25.79
669.098	25.75
669.286	25.84
669.474	25.99
669.662	26.14
669.849	26.37
670.037	26.36
670.225	26.28
670.413	26.19
670.6	25.88
670.788	26.03
670.976	26.34
671.163	26.31
671.351	26.15
671.538	26.28
671.726	26.54
671.913	26.56
672.101	26.61
672.289	26.77
672.476	26.83
672.664	26.71
672.851	26.59
673.039	26.09
673.226	26.17
673.413	26.17
673.601	26.02
673.788	25.95
673.976	25.82
674.163	25.83
674.35	25.65
674.538	25.54
674.725	25.4
674.912	25.28
675.1	25.44
675.287	25.39
675.474	25.27
675.662	25.39
675.849	25.11
676.036	25.13
676.223	24.99
676.411	25.09
676.598	25.21
676.785	25.47
676.972	25.57
677.159	25.76
677.346	25.78
677.533	25.89
677.721	25.65
677.908	25.95
678.095	25.94
678.282	26.08
678.469	26.1
678.656	26.01
678.843	25.92
679.03	25.81
679.217	25.67
679.404	25.76
679.591	25.51
679.778	25.73
679.964	25.61
680.151	25.59
680.338	25.64
680.525	25.56
680.712	25.68
680.899	25.79
681.086	25.85
681.272	26.08
681.459	26.02
681.646	26.15
681.833	25.87
682.02	25.8
682.206	25.79
682.393	25.7
682.58	25.93
682.766	25.98
682.953	26.03
683.14	25.9
683.326	25.79
683.513	25.85
683.7	25.86
683.886	26.12
684.073	26.46
684.259	26.74
684.446	26.85
684.632	26.55
684.819	26.83
685.005	26.6
685.192	26.97
685.378	26.97
685.565	26.96
685.751	27.15
685.938	27.19
686.124	27.04
686.31	26.98
686.497	27.03
686.683	27.34
686.87	27.14
687.056	27.08
687.242	26.91
687.429	26.9
687.615	27.16
687.801	27.29
687.987	27.53
688.174	27.1
688.36	27.09
688.546	27.04
688.732	26.98
688.918	26.87
689.105	27.03
689.291	26.83
689.477	27.04
689.663	26.92
689.849	26.79
690.035	26.45
690.221	26.69
690.407	26.83
690.593	26.72
690.779	26.76
690.965	27.08
691.151	27.05
691.337	27.25
691.523	27.22
691.709	26.95
691.895	26.97
692.081	26.95
692.267	27.24
692.453	26.87
692.639	26.9
692.825	26.9
693.011	26.45
693.196	26.67
693.382	26.9
693.568	26.53
693.754	26.69
693.94	26.54
694.125	26.56
694.311	26.48
694.497	26.77
694.682	26.74
694.868	26.77
695.054	26.72
695.239	26.38
695.425	26.44
695.611	26.8
695.796	26.85
695.982	26.83
696.168	26.89
696.353	26.98
696.539	26.72
696.724	26.71
696.91	26.51
697.095	26.5
697.281	26.46
697.466	26.33
697.652	26.07
697.837	26.01
698.023	26.27
698.208	26.39
698.393	26.06
698.579	26.1
698.764	26.2
698.949	26.18
699.135	26.24
699.32	26.3
699.505	26.18
699.691	26.34
699.876	26.38
700.061	26.37
700.246	26.06
700.432	26.09
700.617	25.97
700.802	25.48
700.987	25.58
701.172	25.24
701.358	25.1
701.543	25.25
701.728	25.06
701.913	24.91
702.098	24.77
702.283	24.99
702.468	25.17
702.653	25.17
702.838	25.46
703.023	25.43
703.208	25.8
703.393	26.03
703.578	25.84
703.763	26.27
703.948	26.41
704.133	26.37
704.318	26.7
704.503	26.97
704.688	27.82
704.873	28.2
705.057	28.76
705.242	29.49
705.427	29.97
705.612	30.03
705.797	30.32
705.981	30.74
706.166	30.95
706.351	31.22
706.536	31.22
706.72	30.95
706.905	31
707.09	31.04
707.274	30.43
707.459	30.29
707.644	30.36
707.828	29.89
708.013	29.66
708.197	29.53
708.382	29.43
708.567	29.28
708.751	28.98
708.936	28.69
709.12	28.33
709.305	28.7
709.489	28.39
709.673	28.3
709.858	28.33
710.042	28.41
710.227	28.42
710.411	28.69
710.596	29.02
710.78	29.25
710.964	29.44
711.149	29.82
711.333	29.65
711.517	29.79
711.702	30.07
711.886	30.43
712.07	30.22
712.254	30.2
712.438	29.7
712.623	29.21
712.807	28.77
712.991	28.85
713.175	28.15
713.359	27.98
713.544	27.49
713.728	27.15
713.912	26.79
714.096	26.56
714.28	26.55
714.464	26.2
714.648	26.15
714.832	26.44
715.016	26.62
715.2	26.63
715.384	26.46
715.568	26.75
715.752	26.85
715.936	26.54
716.12	26.7
716.304	26.5
716.488	26.88
716.671	27.21
716.855	27.29
717.039	27.03
717.223	27.09
717.407	27.34
717.59	27.51
717.774	27.48
717.958	27.85
718.142	28.13
718.325	28.17
718.509	28.18
718.693	28.21
718.877	27.73
719.06	27.61
719.244	27.85
719.428	27.76
719.611	27.59
719.795	27.47
719.978	27.14
720.162	27.02
720.345	27.09
720.529	27.09
720.713	26.6
720.896	27
721.08	26.97
721.263	26.97
721.446	27.22
721.63	27.09
721.813	27.2
721.997	26.84
722.18	26.69
722.364	26.38
722.547	26.36
722.73	26.74
722.914	26.36
723.097	25.98
723.28	26.04
723.464	25.94
723.647	25.33
723.83	25.44
724.013	26.06
724.197	25.91
724.38	26.07
724.563	25.92
724.746	25.73
724.929	26.29
725.112	26.64
725.296	26.38
725.479	26.43
725.662	27.12
725.845	27.08
726.028	26.97
726.211	26.92
726.394	27.3
726.577	27.51
726.76	27.64
726.943	27.45
727.126	27.9
727.309	27.77
727.492	27.41
727.675	27.52
727.858	27.33
728.041	27.25
728.224	27.49
728.407	27.21
728.589	27.23
728.772	27.49
728.955	27.92
729.138	27.63
729.321	27.4
729.503	27.67
729.686	27.79
729.869	27.72
730.052	28.1
730.234	27.76
730.417	28.1
730.6	27.58
730.782	26.83
730.965	26.08
731.148	26.17
731.33	26.47
731.513	26.44
731.695	26.23
731.878	26.55
732.061	26.5
732.243	26.78
732.426	26.45
732.608	26.85
732.791	27.44
732.973	27.94
733.156	27.42
733.338	27.25
733.52	26.85
733.703	26.71
733.885	26.7
734.068	26.26
734.25	26.05
734.432	26
734.615	25.82
734.797	25.58
734.979	25.19
735.162	25.4
735.344	25.99
735.526	25.95
735.708	26.25
735.891	26.18
736.073	26.12
736.255	26.51
736.437	26.96
736.619	26.64
736.802	26.48
736.984	26.73
737.166	27.26
737.348	26.69
737.53	26.78
737.712	26.43
737.894	26.42
738.076	26.77
738.258	26.22
738.44	25.66
738.622	25.93
738.804	26.04
738.986	25.7
739.168	25.51
739.35	25.53
739.532	25.88
739.714	26.52
739.896	26.12
740.078	26.18
740.259	26.78
740.441	27.06
740.623	27.4
740.805	26.86
740.987	27.31
741.168	27.35
741.35	27.53
741.532	27.99
741.714	27.59
741.895	28.06
742.077	27.28
742.259	26.83
742.44	27.08
742.622	27
742.804	27.36
742.985	27.15
743.167	26.95
743.348	27.38
743.53	26.61
743.711	26.81
743.893	26.58
744.075	26.98
744.256	27.42
744.438	27.46
744.619	27.5
744.8	28.08
744.982	27.84
745.163	27.94
745.345	28.23
745.526	28.07
745.707	27.94
745.889	28.36
746.07	28.74
746.252	28.59
746.433	28.75
746.614	28.6
746.795	28.36
746.977	28.22
747.158	27.75
747.339	26.76
747.52	27.35
747.702	27.52
747.883	27.5
748.064	27.28
748.245	26.75
748.426	26.01
748.607	25.74
748.788	25.72
748.97	26.01
749.151	26.65
749.332	26.41
749.513	26.68
749.694	26.27
749.875	26.18
750.056	25.66
750.237	26.26
750.418	26.53
750.599	27.14
750.78	27.16
750.96	27.29
751.141	26.78
751.322	27.39
751.503	26.83
751.684	27.01
751.865	26.7
752.046	27.12
752.226	26.53
752.407	26.8
752.588	26.51
752.769	26.88
752.949	26.8
753.13	27.42
753.311	27.32
753.492	27.29
753.672	27.23
753.853	27.21
754.034	28.12
754.214	28.85
754.395	28.39
754.575	28.98
754.756	28.74
754.937	28.76
755.117	28.27
755.298	27.79
755.478	28.68
755.659	28.32
755.839	28.52
756.02	28.31
756.2	27.83
756.381	28.08
756.561	27.15
756.741	26.73
756.922	26.85
757.102	27.3
757.283	27.7
757.463	27.02
757.643	27.41
757.823	27.38
758.004	26.51
758.184	26.29
758.364	26.49
758.545	26.58
758.725	26.33
758.905	26.48
759.085	27.1
759.265	27.09
759.446	27.05
759.626	26.45
759.806	26.24
759.986	26.84
760.166	27.55
760.346	26.73
760.526	27.1
760.706	27.48
760.886	27.23
761.066	26.1
761.246	26.45
761.426	26.02
761.606	26.07
761.786	26.2
761.966	26.4
762.146	26.72
762.326	27.21
762.506	26.78
762.686	27.33
762.866	27.72
763.046	27.85
763.225	27.79
763.405	28.09
763.585	28.14
763.765	28.1
763.945	28.08
764.124	27.95
764.304	28.11
764.484	28.39
764.664	28.01
764.843	27.84
765.023	28.03
765.203	27.82
765.382	27.49
765.562	27.22
765.741	27.12
765.921	26.92
766.101	26.61
766.28	25.77
766.46	25.78
766.639	25.65
766.819	25.3
766.998	25.04
767.178	24.88
767.357	25.35
767.537	26.06
767.716	25.7
767.896	25.41
768.075	25.19
768.254	26.32
768.434	26.37
768.613	26.32
768.792	26.49
768.972	26.95
769.151	27.3
769.33	27.4
769.51	27.03
769.689	27.94
769.868	28.89
770.047	29.38
770.226	28.78
770.406	28.69
770.585	28.99
770.764	28.97
770.943	28.46
771.122	28.44
771.301	28.32
771.48	28.42
771.66	28.07
771.839	27.06
772.018	26.71
772.197	26.79
772.376	26.8
772.555	27.64
772.734	27.77
772.913	27.53
773.092	27.23
773.271	27.04
773.449	26.81
773.628	27
773.807	27.68
773.986	28.07
774.165	27.5
774.344	27.31
774.523	25.9
774.701	25.3
774.88	25.57
775.059	25.69
775.238	25.4
775.417	26.59
775.595	26.85
775.774	26.56
775.953	25.53
776.131	26.06
776.31	26.31
776.489	26.83
776.667	26.79
776.846	26.55
777.025	27.22
777.203	27.09
777.382	26.71
777.56	26.27
777.739	25.59
777.917	26.08
778.096	25.51
778.274	26
778.453	25.93
778.631	26.08
778.81	26.67
778.988	26.69
779.166	27.54
779.345	27.28
779.523	27.54
779.702	27.96
779.88	28.92
780.058	30.41
780.237	29.68
780.415	29.57
780.593	29.92
780.771	29.51
780.95	29.55
781.128	29.39
781.306	29.97
781.484	29.1
781.662	29.83
781.841	28.05
782.019	27.3
782.197	27.72
782.375	27.12
782.553	26.44
782.731	26.3
782.909	25.46
783.087	25.63
783.265	25.15
783.443	25.39
783.621	25.15
783.799	26.98
783.977	27.31
784.155	27.05
784.333	28.18
784.511	29.27
784.689	29.72
784.867	29.9
785.045	30.24
785.223	29.8
785.4	30.98
785.578	29.73
785.756	28.68
785.934	28.74
786.112	28.85
786.289	27.53
786.467	27.31
786.645	26.04
786.823	26.21
787	25.85
787.178	26.57
787.356	25.24
787.533	26.25
787.711	26.63
787.889	25.5
788.066	25.43
788.244	26.22
788.421	26.47
788.599	27.63
788.776	27.1
788.954	27.1
789.131	27.64
789.309	28.39
789.486	28.49
789.664	28.2
789.841	28.54
790.019	28.2
790.196	28.28
790.373	27.85
790.551	27.39
790.728	27.81
790.906	26.1
791.083	25.47
791.26	26.17
791.437	26.29
791.615	26.59
791.792	27.05
791.969	27.4
792.146	27.51
792.324	27.39
792.501	28.11
792.678	27.84
792.855	29.8
793.032	28.63
793.209	26.73
793.387	26.97
793.564	27.17
793.741	27.8
793.918	27.84
794.095	27.8
794.272	28.52
794.449	27.35
794.626	27.3
794.803	26.47
794.98	27.38
795.157	28.19
795.334	27.54
795.511	27.28
795.688	26.79
795.864	26.71
796.041	25.77
796.218	25.7
796.395	25.79
796.572	26.23
796.749	27.32
796.925	26.58
797.102	26.47
797.279	26.3
797.456	25.76
797.632	25.73
797.809	25.86
797.986	26.63
798.162	25.71
798.339	26.1
798.516	25.9
798.692	25.05
798.869	25.94
799.046	25.68
799.222	25.8
799.399	26.34
799.575	26.56
799.752	26.75
799.928	27.29
800.105	26.94
800.281	26.41
800.458	26.26
800.634	27.09
800.811	26.69
800.987	26.18
801.163	25.34
801.34	24.71
801.516	24.53
801.692	24.81
801.869	24.35
802.045	25.78
802.221	26.06
802.398	26.85
802.574	26.73
802.75	26.51
802.926	26.41
803.103	27.82
803.279	28.04
803.455	27.61
803.631	26.89
803.807	26.41
803.983	26.07
804.16	25.73
804.336	25.5
804.512	24.73
804.688	24.68
804.864	25.46
805.04	23.88
805.216	24.09
805.392	23.95
805.568	24.29
805.744	25.3
805.92	24.83
806.096	27.09
806.272	27.23
806.448	26.5
806.623	26.22
806.799	26.9
806.975	28.06
807.151	27.91
807.327	27.99
807.503	27.65
807.678	27
807.854	27
808.03	25.46
808.206	24.73
808.381	26.08
808.557	26.02
808.733	25.64
808.908	24.77
809.084	24.43
809.26	24.92
809.435	23.64
809.611	23.6
809.787	24.11
809.962	24.02
810.138	24.57
810.313	24.73
810.489	24.83
810.664	24.85
810.84	25.37
811.015	26.06
811.191	26.2
811.366	27.24
811.542	26.79
811.717	26.43
811.892	25.93
812.068	24.98
812.243	24.15
812.419	24.49
812.594	24.27
812.769	23.03
812.944	22.54
813.12	22.2
813.295	22.37
813.47	22.09
813.645	22.57
813.821	23.47
813.996	23.8
814.171	23.66
814.346	24.99
814.521	25.43
814.697	27.02
814.872	26.75
815.047	26.08
815.222	24.93
815.397	25.46
815.572	25.31
815.747	24.11
815.922	25.09
816.097	25.8
816.272	25.47
816.447	25.53
816.622	25.43
816.797	26.11
816.972	25.42
817.147	27.61
817.322	28.02
817.496	27.82
817.671	28.79
817.846	28.95
818.021	27.81
818.196	27
818.371	25.91
818.545	24.82
818.72	24.05
818.895	25.23
819.069	23.84
819.244	22.77
819.419	22.69
819.594	22.95
819.768	22.41
819.943	22.77
820.117	22.92
820.292	23.75
820.467	24.14
820.641	24.75
820.816	24.27
820.99	25.04
821.165	25.4
821.339	25.25
821.514	25.43
821.688	25.35
821.863	25.49
822.037	25.78
822.212	25.82
822.386	26.12
822.56	25.98
822.735	26.34
822.909	26.29
823.084	26.39
823.258	26.52
823.432	26.29
823.606	26.2
823.781	26.27
823.955	26
824.129	25.94
824.303	25.85
824.478	25.99
824.652	25.79
824.826	25.31
825	24.99
825.174	25.07
825.348	25.08
825.523	25.77
825.697	25.92
825.871	26.52
826.045	27.08
826.219	26.97
826.393	26.92
826.567	26.5
826.741	27.05
826.915	27
827.089	26.97
827.263	26.99
827.437	26.82
827.611	26.54
827.784	26.33
827.958	25.83
828.132	25.56
828.306	25.87
828.48	26.48
828.654	26.79
828.827	27.02
829.001	26.65
829.175	27.29
829.349	26.76
829.522	26.99
829.696	26.68
829.87	26.01
830.044	25.86
830.217	25.36
830.391	25.13
830.565	24.98
830.738	24.67
830.912	24.39
831.085	24.27
831.259	26.21
831.432	25.67
831.606	26.33
831.779	26.98
831.953	28.26
832.126	27.92
832.3	27.16
832.473	26.05
832.647	26.23
832.82	26.65
832.994	26.42
833.167	25.85
833.34	25.66
833.514	25.16
833.687	25.08
833.86	24.58
834.034	24.67
834.207	24.72
834.38	24.91
834.553	25.26
834.727	25.77
834.9	25.98
835.073	25.55
835.246	26.59
835.419	27.56
835.593	28.03
835.766	27.99
835.939	28.26
836.112	28.58
836.285	28.63
836.458	27.98
836.631	27.92
836.804	27.39
836.977	27.23
837.15	26.26
837.323	25.11
837.496	24.83
837.669	25.64
837.842	24.2
838.015	24.05
838.188	23.6
838.361	25.93
838.533	24.23
838.706	25.76
838.879	27.36
839.052	27.88
839.225	28.72
839.398	29.35
839.57	28.35
839.743	29.96
839.916	29.27
840.088	29.55
840.261	29.81
840.434	30.7
840.607	28.77
840.779	28.1
840.952	26.84
841.124	26.68
841.297	25.69
841.47	26.22
841.642	25.89
841.815	28.06
841.987	27.52
842.16	25.83
842.332	26.47
842.505	28.61
842.677	28.79
842.85	27.98
843.022	27.09
843.194	28.67
843.367	30.08
843.539	31.8
843.712	30.08
843.884	32.25
844.056	32.91
844.229	30.34
844.401	25.81
844.573	23.56
844.745	25.56
844.918	25.05
845.09	23.03
845.262	20.09
845.434	16.15
845.606	16.84
845.779	15.14
845.951	14.35
846.123	15
846.295	18.43
846.467	22.86
846.639	23.67
846.811	22.43
846.983	21.43
847.155	24.57
847.327	27.07
847.499	25.5
847.671	26.93
847.843	24.13
848.015	28.32
848.187	24.13
848.359	21.93
848.531	21.15
848.703	25.13
848.875	28.15
849.047	24.99
849.218	23.09
849.39	21.03
849.562	18.56
849.734	21.18
849.905	19.95
850.077	26.32
850.249	25.49
850.421	24.64
850.592	22.38
850.764	21.82
850.936	20.14
851.107	21.34
851.279	26.7
851.451	27.5
851.622	27.49
851.794	25.05
851.965	22.26
852.137	23.77
852.308	22.6
852.48	19.48
852.651	18.9
852.823	19.9
852.994	19.81
853.166	18
853.337	18.12
853.509	16.86
853.68	16.68
853.851	16.74
854.023	16.59
854.194	19.23
854.365	21.84
854.537	21.62
854.708	28.71
854.879	30.35
855.05	32.1
855.222	32.6
855.393	32.32
855.564	32.21
855.735	33.75
855.906	33.6
856.078	34.05
856.249	30.37
856.42	30.98
856.591	24.56
856.762	24.05
856.933	22.17
857.104	22.45
857.275	20.81
857.446	24.4
857.617	24.87
857.788	22.81
857.959	19.89
858.13	26.93
858.301	27.63
858.472	29.92
858.643	31.76
858.814	32.77
858.985	32.41
859.155	29.71
859.326	23.96
859.497	22.54
859.668	25.56
859.839	26.3
860.009	26.42
860.18	24.56
860.351	23.29
860.522	22.74
860.692	25.08
860.863	24.5
861.034	32.39
861.204	33.16
861.375	30.81
861.546	28.04
861.716	27.72
861.887	24.7
862.057	25.93
862.228	22.56
862.398	20.39
862.569	20.24
862.739	19.22
862.91	14.02
863.08	11.75
863.251	14.95
863.421	20.08
863.592	19.44
863.762	21.79
863.932	24.13
864.103	25.26
864.273	25.53
864.443	25.03
864.614	27.86
864.784	28.18
864.954	33.77
865.125	32.89
865.295	26.49
865.465	29.89
865.635	24.75
865.805	22.83
865.976	27
866.146	24.91
866.316	21.22
866.486	21.5
866.656	23.36
866.826	21.09
866.996	21.66
867.166	25.05
867.336	20.66
867.506	23.61
867.676	24.59
867.846	17.32
868.016	20.18
868.186	22.82
868.356	19.84
868.526	17.25
868.696	17.93
868.866	15.6
869.036	12.13
869.206	15.54
869.376	17.57
869.545	18.39
869.715	23.05
869.885	21.75
870.055	21.35
870.224	19.07
870.394	24.74
870.564	23.97
870.734	28.09
870.903	28.54
871.073	27.01
871.243	26.8
871.412	21.77
871.582	15.95
871.751	14.94
871.921	16.23
872.091	17.71
872.26	15.52
872.43	18.02
872.599	16.63
872.769	15.53
872.938	15.7
873.108	12.49
873.277	15.09
873.446	19.63
873.616	21.3
873.785	21.07
873.955	20.82
874.124	16.63
874.293	15.85
874.463	15.73
874.632	18.21
874.801	18.52
874.971	24.9
875.14	26.15
875.309	24.49
875.478	22.6
875.647	23.22
875.817	22.71
875.986	21.87
876.155	21.7
876.324	22.07
876.493	19.9
876.662	18.05
876.831	14.03
877	14.66
877.17	17.64
877.339	22.28
877.508	18.67
877.677	21.21
877.846	28.96
878.015	26.94
878.184	24.19
878.352	24.57
878.521	23.07
878.69	22.22
878.859	21.09
879.028	19.08
879.197	16.71
879.366	17.54
879.534	19.34
879.703	16.18
879.872	16.91
880.041	20.31
880.21	22
880.378	23.37
880.547	24.58
880.716	25.43
880.884	26.14
881.053	26.51
881.222	26.3
881.39	25.69
881.559	25.46
881.727	25.74
881.896	25.1
882.065	25.59
882.233	26.08
882.402	25.91
882.57	25.41
882.739	25.49
882.907	25.39
883.076	25.63
883.244	25.47
883.412	26.03
883.581	26.03
883.749	25.2
883.918	24.4
884.086	23.7
884.254	24.17
884.423	23.7
884.591	23.83
884.759	23
884.927	22.73
885.096	21.87
885.264	20.47
885.432	20.68
885.6	21.95
885.769	22.22
885.937	22.72
886.105	22.16
886.273	23.93
886.441	22.24
886.609	24.01
886.777	24.75
886.945	23.68
887.113	23.9
887.281	21.68
887.449	23.7
887.617	24.4
887.785	23.24
887.953	19.92
888.121	17.21
888.289	17.08
888.457	16.74
888.625	17.3
888.793	22.33
888.961	23.89
889.129	22.59
889.296	21.51
889.464	20.39
889.632	21.51
889.8	24.69
889.967	28.92
890.135	29.09
