Data from 2938741__Reflection_03.txt Node
Date: Sun Mar 15 12:13:54 EDT 2015
User: robert
Spectrometer: USB4E03002
Autoset integration time: false
Trigger mode: 4
Integration Time (sec): 1.000000E-1
Scans to average: 10
Electric dark correction enabled: false
Nonlinearity correction enabled: false
Boxcar width: 5
Stray light correction enabled: false
XAxis mode: Wavelengths
Stop averaging: false
Number of Pixels in Spectrum: 3648
>>>>>Begin Spectral Data<<<<<
177.575	-517.42
177.794	-785.71
178.014	-426.96
178.233	-333.85
178.452	-395.92
178.672	-473.57
178.891	-397.29
179.11	-1013.04
179.33	3148.28
179.549	-770.71
179.768	-820.88
179.987	16260
180.207	-1342.86
180.426	-1323.08
180.645	1685.71
180.864	675.65
181.084	-743.28
181.303	-749.32
181.522	-283.33
181.741	-103.49
181.96	-31.84
182.179	-77.19
182.398	-89.86
182.618	-240.58
182.837	-739.02
183.056	-660
183.275	-202.5
183.494	-2390.91
183.713	438.92
183.932	309.34
184.151	277.97
184.37	162.38
184.589	198.22
184.808	416.27
185.027	-1102.33
185.246	2756.52
185.465	1633.33
185.684	1300
185.903	377.39
186.122	-417.6
186.341	-167.62
186.56	-268.68
186.779	-221.68
186.998	-241.75
187.216	-589.69
187.435	-6494.74
187.654	2369.05
187.873	1577.05
188.092	1054.12
188.311	7758.33
188.53	1728.57
188.748	344.95
188.967	413.39
189.186	226.48
189.405	303.79
189.623	212.02
189.842	215.61
190.061	485.84
190.28	638.15
190.498	763.83
190.717	1405.71
190.936	339.94
191.154	478.26
191.373	423.79
191.592	613.29
191.81	406
192.029	1835.29
192.248	2024.39
192.466	358.68
192.685	485.53
192.904	393.81
193.122	346.22
193.341	4883.33
193.559	1190.16
193.778	1890.48
193.996	362.75
194.215	421.6
194.433	266.67
194.652	387.33
194.87	280
195.089	240.08
195.307	203.76
195.526	256.42
195.744	230.3
195.963	193.4
196.181	203.03
196.399	414.49
196.618	302.76
196.836	488.33
197.055	406.67
197.273	1108.74
197.491	2193.02
197.71	-299.21
197.928	-490.23
198.146	-185.77
198.365	-175.78
198.583	-463.89
198.801	-2989.47
199.019	-367.35
199.238	-874
199.456	694.37
199.674	399.03
199.892	257.09
200.111	171
200.329	145.18
200.547	101.03
200.765	98.73
200.983	126.62
201.202	86.23
201.42	88.63
201.638	79.11
201.856	74.34
202.074	88.46
202.292	57.96
202.51	87.16
202.728	97.85
202.946	105.54
203.165	115.92
203.383	113.64
203.601	125.18
203.819	121.41
204.037	220.28
204.255	197.75
204.473	204.57
204.691	278.42
204.909	187.62
205.127	249.75
205.345	225.29
205.562	228.16
205.78	164.01
205.998	175
206.216	166.16
206.434	155.18
206.652	158.52
206.87	145.26
207.088	158.81
207.306	164.88
207.523	122.24
207.741	117.67
207.959	135.4
208.177	172.77
208.395	133.14
208.612	159.86
208.83	123.5
209.048	125.42
209.266	111.29
209.483	99.21
209.701	87.09
209.919	78
210.136	80.64
210.354	86.16
210.572	82.58
210.79	79.42
211.007	67.6
211.225	72.86
211.442	83.96
211.66	90.83
211.878	96.87
212.095	116.9
212.313	127.56
212.53	141.93
212.748	126.08
212.966	109.01
213.183	161.92
213.401	154.24
213.618	148.56
213.836	142.08
214.053	126.18
214.271	110.53
214.488	119.74
214.705	119.12
214.923	107.45
215.14	121.02
215.358	114.49
215.575	86.43
215.793	83.69
216.01	81.9
216.227	84.35
216.445	102.45
216.662	104.95
216.879	89.82
217.097	100.2
217.314	105.77
217.531	94.84
217.749	98.06
217.966	103.95
218.183	93.66
218.4	73.87
218.618	69.18
218.835	61.52
219.052	62.73
219.269	49.16
219.487	34.95
219.704	33.86
219.921	36.35
220.138	46.01
220.355	38.6
220.572	43.9
220.79	44.01
221.007	30.57
221.224	41.58
221.441	27.85
221.658	36.47
221.875	41.83
222.092	40.8
222.309	37.56
222.526	27.27
222.743	23.65
222.96	13.37
223.177	27.73
223.394	39.65
223.611	28.69
223.828	35.38
224.045	31.3
224.262	30.79
224.479	24.22
224.696	30.92
224.913	32.12
225.13	34.46
225.347	34.02
225.564	30.12
225.781	25.68
225.997	23.06
226.214	18.19
226.431	16.47
226.648	13.2
226.865	15.26
227.082	11.4
227.298	8.7
227.515	7.81
227.732	6.81
227.949	4.01
228.165	3.53
228.382	3.84
228.599	4.23
228.816	5.39
229.032	4.78
229.249	3.73
229.466	3.11
229.682	4.04
229.899	3.07
230.116	2.92
230.332	2.95
230.549	4.05
230.765	3.39
230.982	3.23
231.199	0.51
231.415	1.7
231.632	-0.19
231.848	-0.56
232.065	-1.04
232.281	0.64
232.498	0.78
232.714	2.62
232.931	1.69
233.147	2.6
233.364	2.34
233.58	3.4
233.797	3.66
234.013	5.66
234.23	4.23
234.446	3.05
234.662	3.14
234.879	2.13
235.095	1.87
235.312	1.17
235.528	1.06
235.744	1.72
235.961	5.82
236.177	5.29
236.393	6.21
236.61	7.74
236.826	8.69
237.042	7.04
237.258	7.73
237.475	9.06
237.691	11.12
237.907	11.46
238.123	12.26
238.339	9.23
238.556	9.1
238.772	8.36
238.988	9.52
239.204	10.01
239.42	12.17
239.636	11.22
239.853	9.48
240.069	8.17
240.285	7.25
240.501	6.5
240.717	5.21
240.933	5.23
241.149	5.8
241.365	5.37
241.581	4.74
241.797	3.32
242.013	3.68
242.229	4.04
242.445	3.97
242.661	3.94
242.877	4.27
243.093	4.38
243.309	3.97
243.525	3.58
243.741	3.33
243.957	3.75
244.173	3.37
244.388	3.27
244.604	3.16
244.82	3.75
245.036	4.08
245.252	2.79
245.468	3.33
245.683	3.57
245.899	3.82
246.115	4.26
246.331	3.92
246.547	4.24
246.762	3.99
246.978	4.05
247.194	3.63
247.409	3.28
247.625	3.61
247.841	3.74
248.057	3.9
248.272	3.54
248.488	3.02
248.703	3.19
248.919	3.5
249.135	3.34
249.35	3.24
249.566	3.99
249.782	5.04
249.997	5.2
250.213	5.39
250.428	4.5
250.644	4.64
250.859	5.32
251.075	5.35
251.29	4.66
251.506	5.21
251.721	5.26
251.937	4.69
252.152	3.92
252.368	4.25
252.583	3.41
252.798	3.56
253.014	3.41
253.229	2.49
253.445	2.01
253.66	2.71
253.875	2.91
254.091	2.26
254.306	2.05
254.521	2.5
254.737	2.38
254.952	4
255.167	4.94
255.383	5.67
255.598	6.96
255.813	6.45
256.028	7.2
256.244	6.4
256.459	6.67
256.674	7.15
256.889	6.51
257.104	5.7
257.32	4.26
257.535	4.59
257.75	4.18
257.965	4.56
258.18	5.12
258.395	4.09
258.61	4.35
258.826	4.16
259.041	3.55
259.256	3.5
259.471	3.76
259.686	3.53
259.901	3.33
260.116	3.47
260.331	3.22
260.546	2.8
260.761	3.02
260.976	2.59
261.191	2.68
261.406	3.04
261.621	3.1
261.836	2.86
262.05	3.31
262.265	3.18
262.48	3.46
262.695	3.41
262.91	3.49
263.125	3.75
263.34	4.15
263.555	4.49
263.769	4.38
263.984	4.27
264.199	4.72
264.414	5.47
264.629	5.67
264.843	5.07
265.058	5.19
265.273	5.45
265.488	4.9
265.702	4.68
265.917	3.6
266.132	2.76
266.346	3.04
266.561	2.24
266.776	1.56
266.99	1.66
267.205	2.02
267.42	2.15
267.634	2.34
267.849	2.1
268.063	2.72
268.278	3.43
268.492	3.72
268.707	3.4
268.922	3.66
269.136	3.86
269.351	3.63
269.565	3.02
269.78	3.07
269.994	3.06
270.209	2.6
270.423	2.17
270.637	1.35
270.852	1.6
271.066	1.94
271.281	1.94
271.495	2.31
271.709	2.19
271.924	2.21
272.138	2.03
272.353	1.86
272.567	2.68
272.781	2.61
272.996	3.11
273.21	3.13
273.424	3.17
273.638	2.72
273.853	2.23
274.067	2.56
274.281	2.53
274.495	2.6
274.71	2.84
274.924	2.51
275.138	2.72
275.352	2.54
275.566	2.56
275.781	1.89
275.995	2.73
276.209	3.16
276.423	3.04
276.637	2.75
276.851	2.79
277.065	2.28
277.279	2.58
277.493	2.71
277.707	2.72
277.921	3.02
278.135	3.77
278.349	3.31
278.563	3.11
278.777	2.97
278.991	3.66
279.205	3.91
279.419	4.26
279.633	4.17
279.847	3.68
280.061	3.99
280.275	3.7
280.489	3.48
280.703	3.94
280.917	4.04
281.131	4.07
281.344	4.13
281.558	3.19
281.772	3.44
281.986	3.56
282.2	3.48
282.414	2.91
282.627	2.76
282.841	2.3
283.055	2.17
283.269	2.14
283.482	1.86
283.696	1.46
283.91	1.82
284.123	1.18
284.337	0.72
284.551	0.88
284.764	1.42
284.978	1.89
285.192	1.94
285.405	1.84
285.619	1.92
285.833	2.26
286.046	2.07
286.26	2.09
286.473	2.73
286.687	2.77
286.9	2.84
287.114	2.3
287.327	2.31
287.541	2.48
287.754	2.47
287.968	1.96
288.181	2.07
288.395	2.27
288.608	2.56
288.822	2.08
289.035	2.04
289.248	2.24
289.462	2.56
289.675	2.01
289.889	2.14
290.102	2.19
290.315	2.67
290.529	2.59
290.742	2.76
290.955	2.78
291.169	2.94
291.382	3.04
291.595	2.77
291.808	2.94
292.022	2.94
292.235	2.89
292.448	2.38
292.661	2.2
292.875	2.21
293.088	2.33
293.301	1.87
293.514	1.76
293.727	1.83
293.94	2.03
294.153	2
294.367	1.82
294.58	1.79
294.793	2.42
295.006	2.44
295.219	2.25
295.432	1.94
295.645	2.03
295.858	1.93
296.071	1.83
296.284	1.74
296.497	1.56
296.71	1.85
296.923	1.8
297.136	1.95
297.349	1.82
297.562	2.15
297.775	2.5
297.988	2.51
298.201	2.63
298.414	2.7
298.626	2.46
298.839	2.5
299.052	2.34
299.265	2.44
299.478	1.97
299.691	1.85
299.903	1.38
300.116	1.03
300.329	0.93
300.542	0.51
300.755	0.66
300.967	0.78
301.18	0.94
301.393	1.08
301.605	0.87
301.818	0.74
302.031	0.72
302.243	0.6
302.456	0.82
302.669	1.24
302.881	1.45
303.094	1.34
303.307	1.6
303.519	1.52
303.732	1.44
303.944	1.77
304.157	2.18
304.37	2.3
304.582	2.4
304.795	2.36
305.007	2.42
305.22	2.8
305.432	3.15
305.645	3.15
305.857	3.26
306.069	3.68
306.282	3.58
306.494	3.8
306.707	3.61
306.919	3.64
307.132	3.51
307.344	3.46
307.556	3.42
307.769	3.24
307.981	2.94
308.193	2.79
308.406	2.75
308.618	2.75
308.83	2.43
309.043	2.43
309.255	2.49
309.467	2.43
309.679	2.17
309.892	2.44
310.104	2.49
310.316	2.55
310.528	2.92
310.74	2.66
310.953	2.73
311.165	2.58
311.377	3.19
311.589	3.35
311.801	3.69
312.013	3.72
312.225	3.55
312.437	3.32
312.649	3.8
312.862	3.78
313.074	3.84
313.286	4.11
313.498	4.63
313.71	4.27
313.922	4.41
314.134	3.91
314.346	4.04
314.558	4.03
314.77	4.09
314.982	4.23
315.193	3.79
315.405	3.55
315.617	3.39
315.829	3.29
316.041	3.47
316.253	3.31
316.465	3.46
316.677	3.44
316.888	3.2
317.1	3.23
317.312	3.11
317.524	3.24
317.736	4.03
317.947	4.2
318.159	3.87
318.371	4.01
318.583	4.15
318.794	4.39
319.006	5.02
319.218	4.99
319.43	5
319.641	4.77
319.853	5.34
320.064	4.98
320.276	5.02
320.488	5.5
320.699	5.09
320.911	5.12
321.123	4.6
321.334	4.21
321.546	4.73
321.757	5.24
321.969	5.29
322.18	5.25
322.392	5.5
322.603	5.82
322.815	6.03
323.026	6.69
323.238	6.9
323.449	7.72
323.661	7.63
323.872	8
324.083	8.5
324.295	8.22
324.506	8.13
324.718	8.04
324.929	7.63
325.14	8.14
325.352	8.03
325.563	7.81
325.774	7.52
325.986	8.07
326.197	8.02
326.408	7.72
326.62	8.59
326.831	9.35
327.042	9.94
327.253	10.86
327.464	10.93
327.676	11.62
327.887	12.03
328.098	12.56
328.309	13.25
328.52	13.47
328.732	14.12
328.943	14.26
329.154	14.4
329.365	14.7
329.576	14.56
329.787	14.74
329.998	15.17
330.209	15.8
330.42	16.34
330.631	16.18
330.842	16.47
331.053	16.21
331.264	16.47
331.475	16.39
331.686	15.9
331.897	15.81
332.108	16.08
332.319	16.29
332.53	16.41
332.741	16.26
332.952	16.1
333.163	16.05
333.374	16.5
333.585	16.41
333.795	16.93
334.006	18.04
334.217	18.37
334.428	18.21
334.639	17.98
334.849	18.04
335.06	18.53
335.271	19.03
335.482	19.24
335.692	19.23
335.903	19.6
336.114	19.36
336.325	19.23
336.535	19.72
336.746	20.25
336.957	20.41
337.167	20.92
337.378	20.73
337.589	20.73
337.799	21.13
338.01	21.16
338.22	21.3
338.431	21.58
338.642	21.79
338.852	21.78
339.063	21.66
339.273	21.6
339.484	21.03
339.694	21.32
339.905	20.99
340.115	20.65
340.326	20.83
340.536	21.05
340.746	20.72
340.957	20.43
341.167	20.54
341.378	20.68
341.588	20.97
341.799	20.99
342.009	20.71
342.219	20.97
342.43	21.18
342.64	21.3
342.85	21.25
343.061	21.23
343.271	21.17
343.481	20.96
343.691	20.64
343.902	20.39
344.112	20.53
344.322	20.71
344.532	20.68
344.743	20.45
344.953	20.4
345.163	20.04
345.373	20.15
345.583	19.98
345.793	19.71
346.004	20.08
346.214	20.04
346.424	19.94
346.634	19.61
346.844	19.48
347.054	19.39
347.264	19.43
347.474	19.88
347.684	19.94
347.894	20.13
348.104	20.33
348.314	19.73
348.524	19.87
348.734	19.6
348.944	20.02
349.154	20.05
349.364	20.44
349.574	20.47
349.784	20.15
349.994	20.08
350.204	20.11
350.413	20.06
350.623	20.26
350.833	20.05
351.043	20.24
351.253	20.23
351.463	20
351.672	20
351.882	19.76
352.092	19.4
352.302	18.97
352.511	19.1
352.721	19.08
352.931	19.1
353.141	19.04
353.35	19.22
353.56	18.77
353.77	19.2
353.979	19.07
354.189	19.11
354.399	19.31
354.608	19.43
354.818	19.16
355.027	19.28
355.237	19.18
355.447	19.18
355.656	19.15
355.866	19.55
356.075	19.21
356.285	18.88
356.494	18.91
356.704	18.96
356.913	19.31
357.123	19.47
357.332	19.22
357.542	19.16
357.751	19.27
357.96	19.35
358.17	19.05
358.379	19.36
358.589	19.36
358.798	19.14
359.007	19.1
359.217	19.04
359.426	18.96
359.635	19.16
359.845	19.22
360.054	19.11
360.263	18.96
360.472	18.94
360.682	18.75
360.891	18.62
361.1	18.63
361.309	18.68
361.519	18.61
361.728	18.67
361.937	18.72
362.146	18.82
362.355	18.82
362.564	18.74
362.774	18.95
362.983	18.91
363.192	19.53
363.401	19.77
363.61	19.38
363.819	19.43
364.028	19.1
364.237	19.1
364.446	18.83
364.655	18.85
364.864	18.87
365.073	18.73
365.282	18.79
365.491	18.48
365.7	18.2
365.909	18.4
366.118	18.17
366.327	18.19
366.536	17.88
366.745	17.96
366.954	17.82
367.162	17.75
367.371	17.57
367.58	17.36
367.789	17.27
367.998	17.47
368.207	17.6
368.415	17.78
368.624	17.89
368.833	17.93
369.042	17.93
369.25	17.96
369.459	18.18
369.668	18.21
369.877	18.27
370.085	18.07
370.294	18.04
370.503	18.03
370.711	17.98
370.92	18.12
371.129	18.19
371.337	18.16
371.546	18
371.754	17.57
371.963	17.57
372.171	17.84
372.38	17.77
372.589	17.76
372.797	17.63
373.006	17.32
373.214	17.18
373.423	17.24
373.631	17.16
373.84	17.12
374.048	17.32
374.256	17.23
374.465	17.26
374.673	17.39
374.882	17.12
375.09	17.12
375.298	17.18
375.507	17.14
375.715	16.85
375.923	16.65
376.132	16.86
376.34	16.86
376.548	17.24
376.757	17.1
376.965	17.21
377.173	17.3
377.381	17.19
377.59	17.21
377.798	17.24
378.006	17.17
378.214	17.32
378.423	17.16
378.631	16.78
378.839	16.58
379.047	16.41
379.255	16.23
379.463	16.18
379.671	16.46
379.879	16.69
380.088	16.67
380.296	16.97
380.504	16.9
380.712	17.01
380.92	17.33
381.128	17.38
381.336	17.5
381.544	17.54
381.752	17.64
381.96	17.35
382.168	17.26
382.376	17.22
382.584	17.11
382.791	17.29
382.999	17.05
383.207	17.17
383.415	17.26
383.623	17.07
383.831	17.03
384.039	16.97
384.247	17.06
384.454	17.03
384.662	16.94
384.87	16.87
385.078	16.69
385.285	17.01
385.493	16.97
385.701	16.8
385.909	16.83
386.116	16.76
386.324	16.76
386.532	16.95
386.739	16.77
386.947	16.85
387.155	16.93
387.362	17.11
387.57	16.87
387.778	16.64
387.985	16.83
388.193	16.81
388.4	16.74
388.608	16.99
388.816	16.75
389.023	16.94
389.231	16.87
389.438	16.72
389.646	16.82
389.853	16.9
390.061	17.14
390.268	17
390.475	17.06
390.683	17.17
390.89	16.93
391.098	16.95
391.305	16.83
391.512	16.89
391.72	17.01
391.927	16.88
392.135	16.87
392.342	16.79
392.549	16.95
392.756	16.93
392.964	16.81
393.171	16.86
393.378	16.82
393.586	16.86
393.793	17.08
394	17.07
394.207	16.85
394.414	16.81
394.622	16.75
394.829	16.55
395.036	16.44
395.243	16.63
395.45	16.52
395.657	16.59
395.864	16.73
396.072	16.59
396.279	16.5
396.486	16.68
396.693	16.85
396.9	16.86
397.107	16.85
397.314	16.98
397.521	16.9
397.728	16.82
397.935	16.81
398.142	16.76
398.349	16.7
398.556	16.77
398.763	16.75
398.97	16.63
399.177	16.76
399.383	16.81
399.59	16.97
399.797	17.33
400.004	17.4
400.211	17.44
400.418	17.45
400.625	17.48
400.831	17.64
401.038	17.74
401.245	17.78
401.452	17.83
401.658	17.57
401.865	17.58
402.072	17.45
402.279	17.61
402.485	17.63
402.692	17.62
402.899	17.48
403.105	17.5
403.312	17.51
403.519	17.53
403.725	17.56
403.932	17.66
404.138	17.64
404.345	17.51
404.552	17.39
404.758	17.51
404.965	17.4
405.171	17.62
405.378	17.51
405.584	17.37
405.791	17.34
405.997	17.34
406.204	17.42
406.41	17.38
406.617	17.2
406.823	17.48
407.029	17.24
407.236	17.41
407.442	17.34
407.649	17.39
407.855	17.41
408.061	17.44
408.268	17.27
408.474	17.2
408.68	17.06
408.887	17.13
409.093	16.85
409.299	16.88
409.505	16.9
409.712	16.85
409.918	16.68
410.124	16.71
410.33	16.92
410.537	16.98
410.743	17.13
410.949	17.34
411.155	17.53
411.361	17.54
411.567	17.59
411.773	17.56
411.98	17.47
412.186	17.68
412.392	17.95
412.598	17.74
412.804	18.05
413.01	17.87
413.216	17.84
413.422	18.02
413.628	18.28
413.834	18.47
414.04	18.39
414.246	18.41
414.452	18.45
414.658	18.22
414.864	18.32
415.07	18.05
415.275	18.3
415.481	18.2
415.687	18.01
415.893	17.83
416.099	17.78
416.305	17.78
416.511	17.93
416.716	17.9
416.922	17.92
417.128	17.97
417.334	18
417.539	17.92
417.745	17.98
417.951	18.02
418.157	18.1
418.362	17.98
418.568	18.1
418.774	18.05
418.979	17.97
419.185	18.03
419.391	17.98
419.596	18.07
419.802	18.09
420.008	17.97
420.213	17.95
420.419	17.96
420.624	18.05
420.83	17.91
421.035	17.81
421.241	17.89
421.446	17.89
421.652	17.83
421.857	17.72
422.063	17.65
422.268	17.71
422.474	17.71
422.679	17.61
422.885	17.54
423.09	17.63
423.295	17.7
423.501	17.64
423.706	17.61
423.911	17.75
424.117	17.7
424.322	17.76
424.527	17.75
424.733	17.76
424.938	17.86
425.143	18.01
425.349	18
425.554	18.04
425.759	18.14
425.964	18.17
426.169	18.06
426.375	18.15
426.58	18.13
426.785	18.21
426.99	18.18
427.195	18.07
427.4	18.01
427.605	18.01
427.811	18.01
428.016	17.94
428.221	17.92
428.426	18
428.631	17.99
428.836	17.92
429.041	17.96
429.246	17.93
429.451	18
429.656	17.96
429.861	18.06
430.066	18.13
430.271	18.14
430.476	18.08
430.681	17.97
430.886	17.98
431.09	18.15
431.295	18.18
431.5	18.26
431.705	18.34
431.91	18.23
432.115	18.25
432.32	18.28
432.524	18.36
432.729	18.4
432.934	18.53
433.139	18.55
433.343	18.52
433.548	18.53
433.753	18.54
433.958	18.62
434.162	18.79
434.367	18.73
434.572	18.76
434.776	18.77
434.981	18.92
435.186	18.92
435.39	19.02
435.595	19.09
435.799	19.06
436.004	19.05
436.209	18.84
436.413	18.78
436.618	18.83
436.822	18.84
437.027	18.81
437.231	18.74
437.436	18.8
437.64	18.78
437.845	18.8
438.049	18.75
438.253	18.91
438.458	18.99
438.662	18.97
438.867	18.91
439.071	18.8
439.275	18.79
439.48	18.73
439.684	18.64
439.888	18.53
440.093	18.38
440.297	18.33
440.501	18.36
440.706	18.37
440.91	18.37
441.114	18.35
441.318	18.43
441.523	18.4
441.727	18.45
441.931	18.5
442.135	18.72
442.339	18.91
442.543	18.94
442.748	18.84
442.952	18.8
443.156	18.76
443.36	18.85
443.564	18.89
443.768	18.88
443.972	18.96
444.176	18.92
444.38	18.82
444.584	18.72
444.788	18.72
444.992	18.68
445.196	18.68
445.4	18.72
445.604	18.69
445.808	18.67
446.012	18.71
446.216	18.62
446.42	18.63
446.624	18.61
446.828	18.6
447.032	18.62
447.235	18.69
447.439	18.76
447.643	18.76
447.847	18.86
448.051	18.76
448.254	18.79
448.458	18.86
448.662	18.83
448.866	18.8
449.069	18.86
449.273	18.96
449.477	18.93
449.681	18.88
449.884	18.91
450.088	18.89
450.292	19.09
450.495	19.03
450.699	18.91
450.902	19.01
451.106	19.02
451.31	18.99
451.513	18.87
451.717	18.7
451.92	18.74
452.124	18.77
452.327	18.72
452.531	18.65
452.734	18.72
452.938	18.81
453.141	18.73
453.345	18.74
453.548	18.83
453.752	18.91
453.955	19.1
454.158	19.18
454.362	19.16
454.565	19.12
454.769	19.05
454.972	19.1
455.175	19.09
455.379	19.07
455.582	19.05
455.785	18.89
455.988	18.81
456.192	18.7
456.395	18.62
456.598	18.57
456.801	18.59
457.005	18.62
457.208	18.49
457.411	18.43
457.614	18.45
457.817	18.39
458.021	18.44
458.224	18.55
458.427	18.54
458.63	18.52
458.833	18.5
459.036	18.45
459.239	18.38
459.442	18.38
459.645	18.44
459.848	18.46
460.051	18.52
460.254	18.49
460.457	18.43
460.66	18.47
460.863	18.52
461.066	18.51
461.269	18.55
461.472	18.64
461.675	18.66
461.878	18.66
462.081	18.66
462.284	18.62
462.486	18.85
462.689	18.84
462.892	18.77
463.095	18.79
463.298	18.82
463.5	18.87
463.703	18.89
463.906	18.8
464.109	18.72
464.311	18.75
464.514	18.73
464.717	18.54
464.92	18.49
465.122	18.58
465.325	18.68
465.528	18.74
465.73	18.69
465.933	18.59
466.135	18.66
466.338	18.75
466.541	18.69
466.743	18.75
466.946	18.82
467.148	18.82
467.351	18.82
467.553	18.83
467.756	18.82
467.958	18.81
468.161	18.89
468.363	19.05
468.566	18.98
468.768	19.06
468.971	19.22
469.173	19.22
469.375	19.31
469.578	19.21
469.78	18.92
469.983	18.85
470.185	18.94
470.387	18.96
470.59	18.95
470.792	18.92
470.994	18.96
471.196	18.92
471.399	18.92
471.601	18.88
471.803	18.93
472.005	19.07
472.208	19.18
472.41	19.11
472.612	19.15
472.814	19.02
473.016	19.1
473.218	18.94
473.421	18.97
473.623	18.85
473.825	18.95
474.027	19.01
474.229	19
474.431	18.83
474.633	18.87
474.835	18.78
475.037	18.82
475.239	18.83
475.441	18.97
475.643	18.86
475.845	19.04
476.047	19.01
476.249	19.01
476.451	19.06
476.653	19.24
476.855	19.25
477.057	19.25
477.258	19.18
477.46	19.21
477.662	19.17
477.864	19.17
478.066	19.12
478.268	19.22
478.469	19.16
478.671	19.11
478.873	19.19
479.075	19.13
479.276	19.22
479.478	19.27
479.68	19.2
479.882	19.28
480.083	19.36
480.285	19.32
480.487	19.19
480.688	19.28
480.89	19.35
481.091	19.22
481.293	19.27
481.495	19.18
481.696	19.14
481.898	19.13
482.099	19.01
482.301	18.88
482.502	18.87
482.704	18.86
482.905	18.76
483.107	18.68
483.308	18.63
483.51	18.59
483.711	18.54
483.913	18.51
484.114	18.47
484.315	18.46
484.517	18.47
484.718	18.41
484.92	18.41
485.121	18.45
485.322	18.45
485.524	18.49
485.725	18.48
485.926	18.58
486.127	18.59
486.329	18.62
486.53	18.63
486.731	18.69
486.932	18.75
487.134	18.73
487.335	18.75
487.536	18.74
487.737	18.76
487.938	18.73
488.139	18.71
488.341	18.73
488.542	18.74
488.743	18.78
488.944	18.77
489.145	18.77
489.346	18.8
489.547	18.79
489.748	18.85
489.949	18.81
490.15	18.9
490.351	18.84
490.552	18.87
490.753	18.93
490.954	18.95
491.155	18.89
491.356	18.92
491.557	18.91
491.758	18.94
491.959	18.93
492.159	18.95
492.36	18.97
492.561	19.01
492.762	19.03
492.963	19.02
493.164	19.01
493.364	19.13
493.565	19.13
493.766	19.14
493.967	19.19
494.167	19.2
494.368	19.24
494.569	19.23
494.769	19.26
494.97	19.36
495.171	19.44
495.371	19.45
495.572	19.47
495.773	19.57
495.973	19.54
496.174	19.6
496.375	19.65
496.575	19.64
496.776	19.68
496.976	19.7
497.177	19.61
497.377	19.61
497.578	19.68
497.778	19.57
497.979	19.5
498.179	19.55
498.38	19.44
498.58	19.41
498.78	19.46
498.981	19.45
499.181	19.41
499.382	19.47
499.582	19.46
499.782	19.43
499.983	19.58
500.183	19.68
500.383	19.66
500.584	19.78
500.784	19.85
500.984	19.87
501.184	19.89
501.385	19.96
501.585	19.99
501.785	20.03
501.985	20.04
502.185	20.04
502.386	20.02
502.586	20.04
502.786	19.89
502.986	19.91
503.186	19.89
503.386	19.9
503.586	19.94
503.786	19.92
503.987	19.89
504.187	19.95
504.387	19.96
504.587	19.93
504.787	19.95
504.987	20.03
505.187	20.02
505.387	20.02
505.587	19.98
505.786	20.06
505.986	20.04
506.186	20.13
506.386	20.2
506.586	20.22
506.786	20.21
506.986	20.29
507.186	20.45
507.386	20.46
507.585	20.59
507.785	20.63
507.985	20.63
508.185	20.62
508.384	20.6
508.584	20.53
508.784	20.59
508.984	20.56
509.183	20.6
509.383	20.49
509.583	20.52
509.782	20.44
509.982	20.47
510.182	20.47
510.381	20.5
510.581	20.51
510.781	20.54
510.98	20.54
511.18	20.62
511.379	20.59
511.579	20.55
511.778	20.6
511.978	20.63
512.177	20.62
512.377	20.5
512.576	20.46
512.776	20.45
512.975	20.4
513.175	20.38
513.374	20.36
513.573	20.35
513.773	20.45
513.972	20.44
514.172	20.45
514.371	20.58
514.57	20.79
514.77	20.89
514.969	20.85
515.168	20.94
515.367	20.82
515.567	20.85
515.766	20.82
515.965	20.92
516.164	20.87
516.364	20.83
516.563	20.73
516.762	20.67
516.961	20.63
517.16	20.69
517.359	20.59
517.559	20.68
517.758	20.6
517.957	20.65
518.156	20.57
518.355	20.62
518.554	20.66
518.753	20.68
518.952	20.65
519.151	20.67
519.35	20.64
519.549	20.73
519.748	20.75
519.947	20.96
520.146	20.99
520.345	21
520.544	21.05
520.743	21.05
520.942	21.02
521.141	21.19
521.339	21.18
521.538	21.25
521.737	21.23
521.936	21.29
522.135	21.28
522.333	21.24
522.532	21.34
522.731	21.27
522.93	21.36
523.129	21.48
523.327	21.39
523.526	21.46
523.725	21.46
523.923	21.48
524.122	21.5
524.321	21.44
524.519	21.5
524.718	21.46
524.917	21.44
525.115	21.41
525.314	21.35
525.512	21.35
525.711	21.33
525.909	21.32
526.108	21.24
526.306	21.15
526.505	21.12
526.703	21
526.902	20.98
527.1	20.96
527.299	20.93
527.497	20.85
527.696	20.8
527.894	20.77
528.092	20.76
528.291	20.82
528.489	20.82
528.688	20.81
528.886	20.82
529.084	20.83
529.283	20.86
529.481	20.86
529.679	20.91
529.877	20.96
530.076	21
530.274	21.04
530.472	21.07
530.67	21.1
530.869	21.15
531.067	21.28
531.265	21.33
531.463	21.34
531.661	21.47
531.859	21.54
532.057	21.55
532.255	21.61
532.454	21.6
532.652	21.53
532.85	21.6
533.048	21.58
533.246	21.5
533.444	21.49
533.642	21.52
533.84	21.43
534.038	21.4
534.236	21.42
534.434	21.38
534.632	21.45
534.83	21.52
535.027	21.47
535.225	21.54
535.423	21.65
535.621	21.64
535.819	21.74
536.017	21.82
536.215	21.95
536.412	22.04
536.61	22.1
536.808	22.12
537.006	22.17
537.203	22.26
537.401	22.32
537.599	22.46
537.797	22.66
537.994	22.69
538.192	22.81
538.39	22.89
538.587	23.04
538.785	23.17
538.983	23.34
539.18	23.53
539.378	23.6
539.575	23.75
539.773	23.82
539.97	23.85
540.168	23.95
540.366	24.06
540.563	24.08
540.761	24.06
540.958	24.11
541.155	24.14
541.353	24.11
541.55	24.17
541.748	24.2
541.945	24.29
542.143	24.38
542.34	24.42
542.537	24.46
542.735	24.57
542.932	24.69
543.129	24.79
543.327	25.01
543.524	25.31
543.721	25.69
543.919	26.05
544.116	26.36
544.313	26.8
544.51	27.22
544.708	27.61
544.905	27.99
545.102	28.43
545.299	28.79
545.496	28.99
545.693	29.06
545.891	28.97
546.088	28.81
546.285	28.7
546.482	28.34
546.679	28.08
546.876	27.79
547.073	27.64
547.27	27.33
547.467	27.1
547.664	26.9
547.861	26.76
548.058	26.63
548.255	26.56
548.452	26.42
548.649	26.38
548.846	26.44
549.043	26.48
549.24	26.33
549.437	26.43
549.633	26.3
549.83	26
550.027	25.95
550.224	25.76
550.421	25.79
550.618	25.74
550.814	25.69
551.011	25.43
551.208	25.28
551.405	25.06
551.601	24.75
551.798	24.77
551.995	24.87
552.191	24.65
552.388	24.78
552.585	24.56
552.781	24.37
552.978	24.32
553.175	24.34
553.371	24.33
553.568	24.44
553.764	24.52
553.961	24.45
554.157	24.37
554.354	24.44
554.55	24.26
554.747	24.43
554.943	24.54
555.14	24.55
555.336	24.6
555.533	24.57
555.729	24.48
555.926	24.4
556.122	24.37
556.318	24.46
556.515	24.48
556.711	24.52
556.907	24.48
557.104	24.59
557.3	24.5
557.496	24.5
557.693	24.52
557.889	24.49
558.085	24.49
558.281	24.61
558.478	24.56
558.674	24.56
558.87	24.62
559.066	24.57
559.262	24.38
559.459	24.51
559.655	24.57
559.851	24.58
560.047	24.58
560.243	24.65
560.439	24.51
560.635	24.49
560.831	24.53
561.027	24.47
561.223	24.52
561.419	24.55
561.615	24.46
561.811	24.2
562.007	24.26
562.203	24.34
562.399	24.25
562.595	24.2
562.791	24.21
562.987	24.19
563.183	24.2
563.379	24.16
563.575	24.13
563.771	24.09
563.966	24.22
564.162	24.12
564.358	23.94
564.554	24.02
564.75	24.14
564.945	24.12
565.141	24.13
565.337	24.09
565.533	24.06
565.728	24.06
565.924	24.21
566.12	24.19
566.315	24.17
566.511	24.32
566.707	24.26
566.902	24.3
567.098	24.21
567.293	24.22
567.489	24.28
567.684	24.25
567.88	24.33
568.076	24.19
568.271	24.28
568.467	24.41
568.662	24.42
568.858	24.43
569.053	24.3
569.248	24.43
569.444	24.47
569.639	24.44
569.835	24.41
570.03	24.4
570.225	24.49
570.421	24.36
570.616	24.18
570.812	24.18
571.007	24.14
571.202	24.27
571.397	24.14
571.593	24.09
571.788	24.11
571.983	24.15
572.178	24.24
572.374	24.25
572.569	24.34
572.764	24.36
572.959	24.42
573.154	24.42
573.35	24.28
573.545	24.38
573.74	24.33
573.935	24.35
574.13	24.49
574.325	24.39
574.52	24.46
574.715	24.49
574.91	24.72
575.105	24.73
575.3	24.81
575.495	24.96
575.69	25.12
575.885	25.28
576.08	25.43
576.275	25.54
576.47	25.66
576.665	25.76
576.86	26
577.055	26.04
577.25	26.19
577.444	26.46
577.639	26.56
577.834	26.69
578.029	26.9
578.224	27.02
578.418	27.3
578.613	27.45
578.808	27.53
579.003	27.59
579.197	27.68
579.392	27.69
579.587	27.78
579.781	27.97
579.976	27.94
580.171	27.93
580.365	27.99
580.56	27.78
580.755	27.68
580.949	27.83
581.144	27.71
581.338	27.74
581.533	27.83
581.727	27.83
581.922	27.6
582.116	27.76
582.311	27.97
582.505	28
582.7	27.98
582.894	28.03
583.089	27.76
583.283	27.93
583.478	28.07
583.672	28
583.866	27.94
584.061	28.07
584.255	28.06
584.449	27.99
584.644	27.94
584.838	28
585.032	28.23
585.226	28.41
585.421	28.51
585.615	28.47
585.809	28.65
586.003	28.68
586.198	29.11
586.392	29.19
586.586	29.25
586.78	29.4
586.974	29.52
587.168	29.4
587.363	29.52
587.557	29.33
587.751	29.21
587.945	29.08
588.139	29.08
588.333	28.67
588.527	28.59
588.721	28.33
588.915	28.12
589.109	28.02
589.303	27.92
589.497	27.81
589.691	27.79
589.885	27.85
590.079	27.91
590.273	27.95
590.466	27.97
590.66	27.92
590.854	28.22
591.048	28.32
591.242	28.46
591.436	28.64
591.629	28.8
591.823	29.06
592.017	29.24
592.211	29.45
592.404	29.52
592.598	29.62
592.792	29.62
592.986	29.49
593.179	29.53
593.373	29.45
593.567	29.3
593.76	29.16
593.954	29.06
594.147	28.93
594.341	28.61
594.535	28.39
594.728	28.07
594.922	27.95
595.115	27.79
595.309	27.56
595.502	27.29
595.696	27.22
595.889	27.03
596.083	26.78
596.276	26.67
596.47	26.66
596.663	26.6
596.856	26.67
597.05	26.64
597.243	26.8
597.437	27
597.63	27.25
597.823	27.4
598.017	27.57
598.21	27.74
598.403	28.01
598.596	28.08
598.79	28.37
598.983	28.57
599.176	28.74
599.369	28.69
599.563	28.65
599.756	28.68
599.949	28.7
600.142	28.74
600.335	28.78
600.528	28.61
600.722	28.73
600.915	28.59
601.108	28.79
601.301	28.73
601.494	28.68
601.687	28.62
601.88	28.46
602.073	28.27
602.266	28.22
602.459	28.14
602.652	27.99
602.845	27.78
603.038	27.77
603.231	27.4
603.424	27.29
603.617	27.15
603.809	26.97
604.002	26.91
604.195	26.9
604.388	26.83
604.581	26.83
604.774	26.9
604.966	26.94
605.159	26.9
605.352	27.14
605.545	27.29
605.737	27.53
605.93	27.98
606.123	28.21
606.316	28.52
606.508	28.84
606.701	29.04
606.894	29.24
607.086	29.74
607.279	29.87
607.471	30.18
607.664	30.75
607.857	31.11
608.049	31.64
608.242	32.32
608.434	33.23
608.627	34.37
608.819	35.8
609.012	37.36
609.204	38.96
609.397	41.26
609.589	43.39
609.782	45.46
609.974	47.9
610.166	50.17
610.359	52.52
610.551	54.47
610.743	56.23
610.936	57.79
611.128	59.01
611.32	59.96
611.513	60.14
611.705	60.04
611.897	59.9
612.09	59.05
612.282	58.18
612.474	56.98
612.666	55.92
612.858	54.7
613.051	53.42
613.243	52.35
613.435	51.08
613.627	50.09
613.819	49.29
614.011	48.27
614.203	47.4
614.395	46.65
614.588	46.05
614.78	44.93
614.972	44.07
615.164	43.28
615.356	42.29
615.548	41.59
615.74	40.89
615.932	40.06
616.124	39.14
616.315	38.6
616.507	37.65
616.699	36.97
616.891	36.59
617.083	36.16
617.275	35.49
617.467	35.3
617.659	34.92
617.85	34.27
618.042	33.91
618.234	33.55
618.426	33.3
618.618	33.3
618.809	33.12
619.001	32.86
619.193	32.86
619.384	32.99
619.576	32.85
619.768	32.72
619.959	32.91
620.151	32.94
620.343	33.23
620.534	33.33
620.726	33.4
620.917	33.39
621.109	33.48
621.301	33.62
621.492	33.61
621.684	33.58
621.875	33.85
622.067	33.93
622.258	33.99
622.45	34
622.641	34.12
622.832	34.09
623.024	33.94
623.215	34.13
623.407	34.17
623.598	34.29
623.789	34.58
623.981	34.41
624.172	34.53
624.363	34.75
624.555	34.68
624.746	34.38
624.937	34.35
625.129	34.35
625.32	34.19
625.511	33.95
625.702	33.7
625.893	33.17
626.085	32.95
626.276	32.71
626.467	32.59
626.658	32.39
626.849	32.54
627.04	32.5
627.231	32.59
627.422	32.63
627.614	32.57
627.805	32.77
627.996	33.01
628.187	33.39
628.378	33.68
628.569	34.07
628.76	34.41
628.951	34.54
629.142	34.85
629.332	35
629.523	35.49
629.714	35.95
629.905	36.28
630.096	36.66
630.287	36.82
630.478	36.81
630.669	36.73
630.859	36.91
631.05	37.03
631.241	36.82
631.432	36.8
631.623	36.21
631.813	35.91
632.004	35.5
632.195	35
632.385	34.41
632.576	33.97
632.767	33.36
632.957	32.99
633.148	32.4
633.339	32.12
633.529	31.91
633.72	31.82
633.91	31.61
634.101	31.34
634.292	31.49
634.482	31.65
634.673	31.77
634.863	32
635.054	31.88
635.244	32.05
635.435	32.14
635.625	32.02
635.815	32.07
636.006	32.17
636.196	32.28
636.387	31.94
636.577	31.78
636.767	31.87
636.958	31.71
637.148	31.65
637.338	31.83
637.529	31.83
637.719	31.79
637.909	31.94
638.099	31.6
638.29	31.61
638.48	31.47
638.67	31.57
638.86	31.51
639.05	31.65
639.241	31.91
639.431	31.76
639.621	31.74
639.811	31.79
640.001	31.6
640.191	31.93
640.381	32
640.571	32.46
640.761	32.4
640.951	32.48
641.141	32.54
641.331	32.28
641.521	32.19
641.711	32.41
641.901	32.6
642.091	32.9
642.281	32.98
642.471	33.02
642.661	33.08
642.851	33.56
643.041	33.39
643.231	33.24
643.42	33.4
643.61	33.6
643.8	33.42
643.99	33.26
644.18	33.25
644.369	33.15
644.559	33.3
644.749	33.02
644.939	32.86
645.128	33.08
645.318	33.23
645.508	33.45
645.697	33.55
645.887	33.66
646.076	33.89
646.266	33.77
646.456	33.78
646.645	33.49
646.835	33.82
647.024	33.79
647.214	33.61
647.403	33.5
647.593	33.39
647.782	33.3
647.972	33.23
648.161	33.29
648.351	33.25
648.54	33.34
648.73	33.71
648.919	34.09
649.108	34.22
649.298	34.49
649.487	34.49
649.677	34.57
649.866	34.68
650.055	34.7
650.244	34.94
650.434	35.2
650.623	35.21
650.812	34.91
651.002	34.57
651.191	34.54
651.38	34.33
651.569	34.54
651.758	34.49
651.947	34.15
652.137	34.32
652.326	34.02
652.515	34.03
652.704	33.99
652.893	34.13
653.082	34.13
653.271	34.11
653.46	34.42
653.649	34.49
653.838	34.73
654.027	35.08
654.216	34.87
654.405	35
654.594	34.9
654.783	34.94
654.972	35.04
655.161	34.68
655.35	34.84
655.539	34.64
655.728	34.43
655.916	34.06
656.105	33.83
656.294	33.92
656.483	33.71
656.672	33.99
656.86	33.88
657.049	33.51
657.238	33.78
657.427	33.47
657.615	33.23
657.804	33.31
657.993	33.21
658.181	33.03
658.37	32.95
658.559	32.92
658.747	32.76
658.936	32.69
659.125	32.49
659.313	32.3
659.502	32.41
659.69	32.83
659.879	32.81
660.067	32.98
660.256	33.32
660.444	33.69
660.633	33.97
660.821	33.98
661.01	34.27
661.198	35.15
661.387	35.69
661.575	35.76
661.763	36.07
661.952	36.24
662.14	36.43
662.328	36.38
662.517	36.44
662.705	36.55
662.893	36.56
663.082	36.8
663.27	36.47
663.458	36.29
663.646	36.49
663.834	36.01
664.023	35.76
664.211	35.92
664.399	36.04
664.587	36.08
664.775	36.13
664.963	36.23
665.152	36.16
665.34	36.33
665.528	36.44
665.716	36.45
665.904	36.8
666.092	37.15
666.28	37.05
666.468	37.46
666.656	37.19
666.844	36.86
667.032	36.91
667.22	36.63
667.408	36.43
667.596	36.31
667.784	35.73
667.971	35.47
668.159	35.49
668.347	35.22
668.535	34.8
668.723	34.95
668.911	35.42
669.098	35.34
669.286	35.62
669.474	35.77
669.662	35.96
669.849	36.51
670.037	36.49
670.225	36.46
670.413	36.95
670.6	37.19
670.788	37.12
670.976	37.1
671.163	37.27
671.351	36.97
671.538	37.17
671.726	37.11
671.913	36.85
672.101	36.76
672.289	36.99
672.476	37.11
672.664	36.92
672.851	37.21
673.039	36.77
673.226	36.65
673.413	36.87
673.601	36.66
673.788	36.8
673.976	36.84
674.163	36.97
674.35	36.73
674.538	36.4
674.725	36.64
674.912	36.34
675.1	36.74
675.287	36.94
675.474	37.23
675.662	36.95
675.849	37.04
676.036	37.25
676.223	37.3
676.411	37.65
676.598	37.76
676.785	37.63
676.972	37.78
677.159	37.53
677.346	37.63
677.533	37.38
677.721	37.57
677.908	37.57
678.095	37.35
678.282	37.48
678.469	37.29
678.656	37.13
678.843	36.99
679.03	36.74
679.217	37.06
679.404	36.72
679.591	36.48
679.778	36.5
679.964	36.4
680.151	36.67
680.338	36.31
680.525	36.28
680.712	36.04
680.899	36.13
681.086	36.37
681.272	36.13
681.459	36.32
681.646	36.49
681.833	36.77
682.02	36.86
682.206	36.78
682.393	36.99
682.58	37.09
682.766	37.28
682.953	37.54
683.14	37.39
683.326	37.34
683.513	37.68
683.7	38.05
683.886	38.16
684.073	38.02
684.259	38.04
684.446	38.07
684.632	38.05
684.819	38.31
685.005	37.96
685.192	38.15
685.378	38.51
685.565	38.22
685.751	38.16
685.938	37.96
686.124	37.98
686.31	38.24
686.497	38.52
686.683	38.64
686.87	38.53
687.056	38.97
687.242	38.96
687.429	39.09
687.615	39.21
687.801	38.76
687.987	38.76
688.174	39.04
688.36	38.79
688.546	38.67
688.732	38.2
688.918	38.7
689.105	38.92
689.291	38.88
689.477	38.65
689.663	38.56
689.849	38.79
690.035	38.86
690.221	38.81
690.407	38.9
690.593	39.03
690.779	39.25
690.965	39.09
691.151	38.83
691.337	39.21
691.523	39.25
691.709	39.49
691.895	39.96
692.081	40.22
692.267	40.26
692.453	40.39
692.639	40.56
692.825	41.12
693.011	40.7
693.196	41.01
693.382	40.68
693.568	40.82
693.754	40.83
693.94	40.64
694.125	40.55
694.311	40.51
694.497	40.76
694.682	40.36
694.868	40.46
695.054	40.84
695.239	40.92
695.425	40.92
695.611	40.86
695.796	40.84
695.982	40.93
696.168	40.9
696.353	40.74
696.539	40.65
696.724	40.57
696.91	40.08
697.095	40
697.281	39.48
697.466	39.32
697.652	38.89
697.837	38.38
698.023	37.79
698.208	37.53
698.393	37.64
698.579	37.28
698.764	37.23
698.949	37.14
699.135	37.02
699.32	37.02
699.505	37.19
699.691	37.54
699.876	38.09
700.061	38.42
700.246	38.54
700.432	38.45
700.617	38.75
700.802	38.88
700.987	38.94
701.172	39.42
701.358	39.83
701.543	39.87
701.728	40.18
701.913	40.23
702.098	40.62
702.283	41.06
702.468	41.22
702.653	41.47
702.838	42.34
703.023	42.75
703.208	42.87
703.393	42.72
703.578	43.24
703.763	43.25
703.948	43.89
704.133	44.68
704.318	44.55
704.503	44.98
704.688	45.71
704.873	45.98
705.057	46.82
705.242	47.62
705.427	48.18
705.612	48.6
705.797	49.25
705.981	49.16
706.166	49.37
706.351	50.13
706.536	50.64
706.72	50.61
706.905	50.79
707.09	50.74
707.274	50.79
707.459	51.36
707.644	51.38
707.828	51.24
708.013	51.24
708.197	51.06
708.382	50.95
708.567	50.68
708.751	50.36
708.936	49.52
709.12	49.22
709.305	48.46
709.489	48.27
709.673	48.28
709.858	48.27
710.042	48.25
710.227	48.46
710.411	48.23
710.596	48.29
710.78	48.45
710.964	48.81
711.149	48.82
711.333	49.06
711.517	49.1
711.702	48.93
711.886	48.66
712.07	48.65
712.254	48.09
712.438	47.99
712.623	47.87
712.807	47.15
712.991	46.88
713.175	46.78
713.359	46.65
713.544	46.08
713.728	45.32
713.912	44.69
714.096	44.32
714.28	43.88
714.464	43.62
714.648	43.4
714.832	43.35
715.016	42.95
715.2	42.52
715.384	42.1
715.568	41.83
715.752	41.52
715.936	41.41
716.12	40.73
716.304	40.58
716.488	40.44
716.671	40.06
716.855	40.22
717.039	40.12
717.223	39.98
717.407	39.78
717.59	39.56
717.774	39.84
717.958	40.22
718.142	40.55
718.325	41.1
718.509	40.92
718.693	41.32
718.877	41.5
719.06	41.91
719.244	42.03
719.428	41.94
719.611	41.79
719.795	42.01
719.978	41.8
720.162	42.5
720.345	41.78
720.529	41.89
720.713	41.97
720.896	41.79
721.08	41.93
721.263	42.74
721.446	43.27
721.63	43.54
721.813	43.86
721.997	44.12
722.18	43.64
722.364	44.38
722.547	44.49
722.73	44.34
722.914	44.66
723.097	44.72
723.28	43.93
723.464	43.86
723.647	43.71
723.83	43.43
724.013	43.22
724.197	43.54
724.38	43.33
724.563	43.01
724.746	42.58
724.929	42.37
725.112	42.82
725.296	43.35
725.479	43
725.662	43.19
725.845	43.15
726.028	43.3
726.211	42.9
726.394	42.67
726.577	42.62
726.76	42.64
726.943	42.14
727.126	41.3
727.309	40.66
727.492	41.02
727.675	41.1
727.858	41.01
728.041	40.62
728.224	40.99
728.407	41.5
728.589	42.16
728.772	42.28
728.955	42.53
729.138	42.71
729.321	42.99
729.503	42.55
729.686	42.67
729.869	42.7
730.052	43.05
730.234	42.61
730.417	42.08
730.6	41.47
730.782	41.69
730.965	41.9
731.148	42.08
731.33	42.3
731.513	42.46
731.695	42.4
731.878	42.97
732.061	43.1
732.243	43.3
732.426	44.39
732.608	45.21
732.791	44.95
732.973	44.83
733.156	45.07
733.338	45.3
733.52	45.69
733.703	46.21
733.885	46.22
734.068	46.55
734.25	46.56
734.432	45.79
734.615	45.71
734.797	46.27
734.979	46.39
735.162	46.05
735.344	46.14
735.526	45.61
735.708	45.5
735.891	45.22
736.073	45.33
736.255	46.17
736.437	46.44
736.619	46.04
736.802	46.28
736.984	46.4
737.166	47.61
737.348	47.76
737.53	48.9
737.712	48.9
737.894	49.02
738.076	48.22
738.258	47.39
738.44	47.7
738.622	48.57
738.804	48.59
738.986	48.39
739.168	47.51
739.35	46.77
739.532	46.49
739.714	46.19
739.896	45.87
740.078	46.31
740.259	46.45
740.441	46.41
740.623	45.55
740.805	45.63
740.987	46.84
741.168	47
741.35	47.82
741.532	47.56
741.714	48.19
741.895	48.28
742.077	48.27
742.259	48.07
742.44	47.8
742.622	47.84
742.804	47.65
742.985	47.28
743.167	47.28
743.348	47.32
743.53	47.01
743.711	46.81
743.893	47.85
744.075	48.09
744.256	49.61
744.438	49.01
744.619	49.35
744.8	49.08
744.982	49.29
745.163	49.39
745.345	49.2
745.526	50.48
745.707	50.11
745.889	49.76
746.07	49.65
746.252	48.76
746.433	49.62
746.614	50.69
746.795	50.95
746.977	50.75
747.158	50.9
747.339	51
747.52	50.3
747.702	50.83
747.883	50.96
748.064	51.71
748.245	51.24
748.426	50.78
748.607	49.87
748.788	50.24
748.97	50.95
749.151	50.96
749.332	50.91
749.513	50.48
749.694	49.9
749.875	50.14
750.056	50.32
750.237	50.26
750.418	51.1
750.599	51.45
750.78	51.75
750.96	50.78
751.141	50.72
751.322	50.71
751.503	51.34
751.684	52.21
751.865	51.61
752.046	50.33
752.226	51.32
752.407	51.25
752.588	50.14
752.769	49.59
752.949	49.62
753.13	49.84
753.311	50.51
753.492	51.22
753.672	51.53
753.853	51.63
754.034	52.18
754.214	52.61
754.395	52.19
754.575	53.32
754.756	54.3
754.937	55.14
755.117	54.96
755.298	54.77
755.478	53.85
755.659	54.1
755.839	54.09
756.02	53.51
756.2	52.97
756.381	52.57
756.561	52.92
756.741	51.79
756.922	51.16
757.102	51.02
757.283	50.2
757.463	49.56
757.643	49.11
757.823	48.71
758.004	48.89
758.184	47.5
758.364	46.98
758.545	46.25
758.725	45.55
758.905	44.7
759.085	43.86
759.265	43.13
759.446	43.03
759.626	41.94
759.806	41.62
759.986	42.16
760.166	42.24
760.346	41.87
760.526	41.05
760.706	41.16
760.886	40.48
761.066	40.98
761.246	41.46
761.426	41.66
761.606	41.99
761.786	42.22
761.966	40.84
762.146	40.93
762.326	42
762.506	42.18
762.686	41.84
762.866	41.87
763.046	41.49
763.225	41.37
763.405	40.67
763.585	40.28
763.765	40.02
763.945	40.31
764.124	40.74
764.304	40.52
764.484	40.86
764.664	41.01
764.843	41.56
765.023	41.93
765.203	41.87
765.382	43
765.562	43.48
765.741	44.51
765.921	45.69
766.101	46.12
766.28	46.6
766.46	46.51
766.639	47.41
766.819	47.73
766.998	48.96
767.178	49.6
767.357	50.15
767.537	50.44
767.716	50.3
767.896	49.69
768.075	49.45
768.254	50.03
768.434	50.84
768.613	51.33
768.792	51.81
768.972	50.8
769.151	50.83
769.33	50.87
769.51	51.06
769.689	51.4
769.868	52.31
770.047	53.26
770.226	52.22
770.406	52.78
770.585	52.44
770.764	52.84
770.943	53.87
771.122	54.74
771.301	55.13
771.48	56.3
771.66	55
771.839	55.09
772.018	55.23
772.197	56.64
772.376	56.4
772.555	56.65
772.734	57.08
772.913	56.53
773.092	56.85
773.271	56.32
773.449	54.74
773.628	56.65
773.807	56.57
773.986	56.09
774.165	55.49
774.344	56.16
774.523	57.69
774.701	57.2
774.88	58.24
775.059	56.75
775.238	56.95
775.417	58.36
775.595	57.94
775.774	58.77
775.953	58.91
776.131	58.81
776.31	57.95
776.489	55.76
776.667	56.15
776.846	56.58
777.025	57.52
777.203	56.86
777.382	56.45
777.56	55.94
777.739	55.75
777.917	56.27
778.096	55.29
778.274	55.2
778.453	56.02
778.631	54.71
778.81	53.71
778.988	53.65
779.166	54.31
779.345	53.17
779.523	53.4
779.702	53.67
779.88	53.57
780.058	55.23
780.237	56.4
780.415	55.36
780.593	56.19
780.771	56.45
780.95	58.39
781.128	58.09
781.306	59.24
781.484	60.05
781.662	59.29
781.841	59.36
782.019	58.72
782.197	58.07
782.375	58.24
782.553	58.63
782.731	58.29
782.909	56.28
783.087	56.08
783.265	55.96
783.443	54.67
783.621	55.18
783.799	54.63
783.977	54.62
784.155	54.56
784.333	55.56
784.511	55.21
784.689	54.37
784.867	52.95
785.045	53.59
785.223	53.67
785.4	54.31
785.578	54.1
785.756	54.46
785.934	54.79
786.112	54.6
786.289	53.47
786.467	54.5
786.645	54.14
786.823	55.66
787	56.63
787.178	56.77
787.356	55.69
787.533	54.88
787.711	53.98
787.889	53.46
788.066	52.37
788.244	53.07
788.421	52.02
788.599	52.84
788.776	52.05
788.954	51.02
789.131	50.93
789.309	52.02
789.486	52.98
789.664	53.48
789.841	53.55
790.019	54.28
790.196	54.06
790.373	54.41
790.551	53.79
790.728	54.71
790.906	54.23
791.083	53.17
791.26	52.65
791.437	52.17
791.615	52.72
791.792	53.18
791.969	53.23
792.146	53.73
792.324	53.66
792.501	54.29
792.678	53.83
792.855	54.74
793.032	56.73
793.209	57.18
793.387	55.65
793.564	54.17
793.741	53.55
793.918	53.75
794.095	52.53
794.272	51.62
794.449	50.65
794.626	50.03
794.803	50.22
794.98	49.32
795.157	48.85
795.334	49.97
795.511	50.49
795.688	50.14
795.864	49.7
796.041	50.03
796.218	50.54
796.395	51.04
796.572	50.92
796.749	49.88
796.925	50.06
797.102	49.84
797.279	49.17
797.456	49.28
797.632	48.93
797.809	50.14
797.986	49.8
798.162	49.62
798.339	50.91
798.516	51.67
798.692	52.64
798.869	52.56
799.046	52.48
799.222	54.58
799.399	54.13
799.575	55.11
799.752	53.61
799.928	54.63
800.105	54.36
800.281	54.38
800.458	54.15
800.634	54.64
800.811	54.67
800.987	56.32
801.163	53.79
801.34	55.44
801.516	56.27
801.692	57.4
801.869	56.81
802.045	58.45
802.221	57.56
802.398	58.49
802.574	57.97
802.75	58.48
802.926	58.3
803.103	58.98
803.279	58.17
803.455	56.81
803.631	56.02
803.807	56.2
803.983	55.59
804.16	56.21
804.336	55.29
804.512	55.42
804.688	55.64
804.864	54.62
805.04	55.76
805.216	55.39
805.392	55.84
805.568	56.21
805.744	55.55
805.92	54.97
806.096	55.55
806.272	56.51
806.448	55.31
806.623	53.6
806.799	54.13
806.975	53.95
807.151	54.49
807.327	53.77
807.503	53
807.678	53.68
807.854	54.44
808.03	53.43
808.206	52.45
808.381	52.24
808.557	53.33
808.733	52.24
808.908	52.61
809.084	53.74
809.26	54.9
809.435	55.11
809.611	55.33
809.787	53.97
809.962	54.63
810.138	55.15
810.313	56.34
810.489	55.94
810.664	56.86
810.84	57.79
811.015	56.94
811.191	55.92
811.366	57.11
811.542	58.14
811.717	59.17
811.892	58.9
812.068	58.02
812.243	57.3
812.419	57.04
812.594	56.43
812.769	53.97
812.944	53.22
813.12	52.92
813.295	51.34
813.47	51.41
813.645	51.58
813.821	49.35
813.996	48.19
814.171	47.3
814.346	47.12
814.521	47.54
814.697	46.62
814.872	46.34
815.047	48.42
815.222	48.42
815.397	47.42
815.572	47.66
815.747	50.38
815.922	51.35
816.097	51.16
816.272	52.67
816.447	52.32
816.622	52.52
816.797	52.01
816.972	48.2
817.147	47.91
817.322	48.18
817.496	46.42
817.671	44.89
817.846	45.68
818.021	46.06
818.196	44.63
818.371	43.7
818.545	43.95
818.72	43.49
818.895	46.47
819.069	46.9
819.244	46.2
819.419	45.67
819.594	45.2
819.768	44.83
819.943	43.89
820.117	42.89
820.292	42.42
820.467	41.75
820.641	40.91
820.816	38.15
820.99	36.78
821.165	35.69
821.339	35.22
821.514	34.85
821.688	34.76
821.863	34.69
822.037	34.42
822.212	34.2
822.386	33.83
822.56	33.34
822.735	33.6
822.909	33.89
823.084	34.07
823.258	34.06
823.432	33.88
823.606	33.62
823.781	33.39
823.955	33.53
824.129	33.24
824.303	33.25
824.478	33.85
824.652	33.92
824.826	34.09
825	34.08
825.174	34.78
825.348	35.36
825.523	35.26
825.697	35.64
825.871	35.79
826.045	36.64
826.219	36.89
826.393	36.88
826.567	36.81
826.741	36.5
826.915	36.68
827.089	36.1
827.263	36.01
827.437	36.25
827.611	36.22
827.784	36.38
827.958	36.3
828.132	36.74
828.306	37.14
828.48	38.06
828.654	38.35
828.827	38.11
829.001	38.44
829.175	39.2
829.349	39.54
829.522	40.33
829.696	40.87
829.87	42.13
830.044	41.97
830.217	41.46
830.391	41
830.565	41.22
830.738	43.77
830.912	43.98
831.085	43.23
831.259	43.31
831.432	43.04
831.606	45.18
831.779	44.2
831.953	43.64
832.126	43.45
832.3	42.18
832.473	40.75
832.647	40.17
832.82	40.47
832.994	39.98
833.167	40.53
833.34	40.92
833.514	39.39
833.687	39.03
833.86	38.65
834.034	38.87
834.207	39.6
834.38	39.94
834.553	39.34
834.727	39.32
834.9	40.04
835.073	39.72
835.246	39.15
835.419	39.27
835.593	40.19
835.766	40.85
835.939	41.93
836.112	42.24
836.285	42.89
836.458	43.7
836.631	43.69
836.804	44.32
836.977	45.51
837.15	46.81
837.323	49.17
837.496	48.7
837.669	50.81
837.842	50.19
838.015	52.27
838.188	53.45
838.361	55
838.533	56.6
838.706	54.92
838.879	54.93
839.052	56.23
839.225	53.24
839.398	54.64
839.57	54.64
839.743	54.04
839.916	54.29
840.088	55.03
840.261	54.32
840.434	52.43
840.607	52.48
840.779	52.64
840.952	51.8
841.124	53.61
841.297	53.53
841.47	53.26
841.642	54.88
841.815	53.72
841.987	53.25
842.16	53.07
842.332	55.81
842.505	60.1
842.677	59.68
842.85	59.91
843.022	60.72
843.194	63.14
843.367	64.9
843.539	64.81
843.712	65.43
843.884	66.46
844.056	69.76
844.229	68.73
844.401	66.06
844.573	67.71
844.745	69.01
844.918	69.28
845.09	65.09
845.262	67.58
845.434	72.72
845.606	77.83
845.779	79.28
845.951	77.2
846.123	78.7
846.295	80.6
846.467	81.16
846.639	83.08
846.811	83.13
846.983	90.35
847.155	89.23
847.327	83.58
847.499	80.03
847.671	80.68
847.843	81.18
848.015	81.49
848.187	80.82
848.359	80.77
848.531	78.37
848.703	79.62
848.875	74.67
849.047	73.09
849.218	71.89
849.39	70.6
849.562	66.92
849.734	66.72
849.905	65.96
850.077	67.08
850.249	64.25
850.421	64.83
850.592	62.07
850.764	65.04
850.936	68.26
851.107	72.75
851.279	72.1
851.451	75.27
851.622	76.65
851.794	78.14
851.965	81.28
852.137	82.41
852.308	84.38
852.48	83.18
852.651	85.17
852.823	83.55
852.994	79.95
853.166	80.46
853.337	83.04
853.509	81.55
853.68	82.75
853.851	81.12
854.023	82.16
854.194	79.73
854.365	80.42
854.537	76.15
854.708	69.54
854.879	70.46
855.05	71.4
855.222	64.7
855.393	58.51
855.564	59.68
855.735	52.86
855.906	55.99
856.078	56.82
856.249	58.61
856.42	59.85
856.591	61.94
856.762	66.05
856.933	66.06
857.104	67.36
857.275	73.89
857.446	79.17
857.617	89.76
857.788	89.49
857.959	89.64
858.13	91.13
858.301	88.1
858.472	86.55
858.643	80.65
858.814	80.83
858.985	85.93
859.155	85.93
859.326	83.18
859.497	80.57
859.668	80.29
859.839	83.18
860.009	82.75
860.18	88.34
860.351	92.27
860.522	91.4
860.692	89.51
860.863	88.43
861.034	85.68
861.204	80.54
861.375	84.01
861.546	85.5
861.716	80.76
861.887	79.44
862.057	74.15
862.228	72.17
862.398	71.9
862.569	70.11
862.739	68.95
862.91	73.35
863.08	75.71
863.251	65.65
863.421	63.56
863.592	70.11
863.762	71.17
863.932	72.29
864.103	74.44
864.273	77.8
864.443	80.25
864.614	77.52
864.784	71.09
864.954	71.01
865.125	78.16
865.295	81.27
865.465	74.01
865.635	70.08
865.805	72.3
865.976	68.39
866.146	61.79
866.316	59.65
866.486	60.19
866.656	65.36
866.826	62.72
866.996	60.54
867.166	60.22
867.336	63.01
867.506	63.83
867.676	62.12
867.846	63.04
868.016	68.41
868.186	74.76
868.356	78.29
868.526	76.61
868.696	80.99
868.866	82.49
869.036	80.86
869.206	81.29
869.376	81.29
869.545	83.85
869.715	86.36
869.885	83.07
870.055	82.46
870.224	77.72
870.394	74.81
870.564	74.3
870.734	73.35
870.903	71.88
871.073	67.25
871.243	61.94
871.412	57.45
871.582	57.03
871.751	57.5
871.921	52.44
872.091	52.5
872.26	58.19
872.43	50.7
872.599	46.68
872.769	47.82
872.938	58.25
873.108	62.64
873.277	60.05
873.446	58.55
873.616	61.61
873.785	60.26
873.955	59.36
874.124	58.09
874.293	62.7
874.463	66.85
874.632	71.53
874.801	66.99
874.971	67.72
875.14	76.85
875.309	78.02
875.478	81.96
875.647	84.6
875.817	83.79
875.986	85.24
876.155	85.74
876.324	83.26
876.493	76.43
876.662	72.16
876.831	69.1
877	62.25
877.17	61.35
877.339	56.42
877.508	49.84
877.677	49.36
877.846	44.19
878.015	42.1
878.184	40.05
878.352	42.81
878.521	40.6
878.69	42.75
878.859	43.82
879.028	41.84
879.197	37.18
879.366	38.34
879.534	40.47
879.703	41.34
879.872	40.96
880.041	39.32
880.21	36.16
880.378	35.32
880.547	34.88
880.716	34.96
880.884	33.8
881.053	33.97
881.222	33.01
881.39	31.87
881.559	31.84
881.727	32.05
881.896	31.75
882.065	31.87
882.233	32.5
882.402	31.27
882.57	30.66
882.739	31.1
882.907	31.27
883.076	31.43
883.244	31.42
883.412	31.27
883.581	30.7
883.749	30.32
883.918	30.1
884.086	29.83
884.254	30.9
884.423	31.3
884.591	31.99
884.759	32.96
884.927	32.95
885.096	34.42
885.264	35.2
885.432	36.62
885.6	39.63
885.769	41.18
885.937	43.8
886.105	43.92
886.273	43.05
886.441	44.37
886.609	46.2
886.777	47.36
886.945	46.31
887.113	45.22
887.281	46.46
887.449	46.41
887.617	48.39
887.785	45.51
887.953	44.13
888.121	47.79
888.289	49.58
888.457	46.14
888.625	49.71
888.793	52.9
888.961	55.75
889.129	57.22
889.296	63.43
889.464	62.74
889.632	65.54
889.8	73.08
889.967	74.94
890.135	75.12
