Data from 2938837__Reflection_03.txt Node
Date: Thu Mar 12 10:48:21 EDT 2015
User: robert
Spectrometer: USB4E03002
Autoset integration time: false
Trigger mode: 4
Integration Time (sec): 1.000000E-1
Scans to average: 10
Electric dark correction enabled: false
Nonlinearity correction enabled: false
Boxcar width: 5
Stray light correction enabled: false
XAxis mode: Wavelengths
Stop averaging: false
Number of Pixels in Spectrum: 3648
>>>>>Begin Spectral Data<<<<<
177.575	291.07
177.794	451.82
178.014	448.55
178.233	500.31
178.452	486.8
178.672	517.48
178.891	616.15
179.11	585.6
179.33	532.05
179.549	446.75
179.768	440.59
179.987	867.29
180.207	810.17
180.426	888.72
180.645	606.05
180.864	429.72
181.084	520.96
181.303	447.42
181.522	466.95
181.741	682.3
181.96	1377.85
182.179	1415.89
182.398	842.7
182.618	607.11
182.837	570.28
183.056	708.51
183.275	2711.54
183.494	1375.8
183.713	2123.15
183.932	-8700
184.151	7148.39
184.37	882.88
184.589	1679.1
184.808	1573.24
185.027	1568.66
185.246	4180.43
185.465	-1716.96
185.684	2189.9
185.903	210100
186.122	665.31
186.341	402.72
186.56	312.39
186.779	310.87
186.998	321.75
187.216	280.94
187.435	266.08
187.654	263.17
187.873	223.22
188.092	260.7
188.311	232.39
188.53	267.14
188.748	283.12
188.967	362.56
189.186	506.36
189.405	431.33
189.623	403.3
189.842	420.66
190.061	390.31
190.28	371.06
190.498	391.25
190.717	357.4
190.936	370.91
191.154	420.28
191.373	374.08
191.592	348.85
191.81	331.08
192.029	459.22
192.248	393.93
192.466	432.46
192.685	473
192.904	329.26
193.122	293.95
193.341	358.86
193.559	301.96
193.778	293.35
193.996	270.19
194.215	285.29
194.433	246.28
194.652	288.16
194.87	400.44
195.089	460.22
195.307	665.89
195.526	1560.5
195.744	2466.25
195.963	-32083.33
196.181	-1721.62
196.399	-1033.33
196.618	-989.43
196.836	-556.61
197.055	-693.81
197.273	-3619.4
197.491	13557.89
197.71	60325
197.928	2451.04
198.146	2091.45
198.365	3405.88
198.583	2090.91
198.801	1021.7
199.019	644.48
199.238	422.38
199.456	449.6
199.674	468.54
199.892	414.1
200.111	370
200.329	380.06
200.547	306.15
200.765	297.68
200.983	293.35
201.202	345.85
201.42	348.9
201.638	321.73
201.856	346.52
202.074	383.42
202.292	560.27
202.51	846.18
202.728	674.68
202.946	820.31
203.165	543.09
203.383	561.74
203.601	408.6
203.819	476.63
204.037	538.66
204.255	414.81
204.473	353.61
204.691	319.11
204.909	310.45
205.127	322.42
205.345	289.95
205.562	283.09
205.78	269.53
205.998	313.51
206.216	255.25
206.434	233.8
206.652	269.85
206.87	298.97
207.088	302.63
207.306	258.61
207.523	234.04
207.741	245.62
207.959	237.15
208.177	209.92
208.395	193.04
208.612	203.78
208.83	216.79
209.048	196.7
209.266	190.53
209.483	160.96
209.701	176.29
209.919	185.22
210.136	194.38
210.354	235.01
210.572	295.63
210.79	325.46
211.007	459.47
211.225	579.42
211.442	645.35
211.66	521.1
211.878	1029.59
212.095	648.83
212.313	553.71
212.53	522.28
212.748	425.79
212.966	345.39
213.183	294.29
213.401	236.37
213.618	226.17
213.836	231.48
214.053	250.05
214.271	214.9
214.488	219.84
214.705	256.2
214.923	235.47
215.14	214.19
215.358	218.82
215.575	234.62
215.793	221.31
216.01	242.03
216.227	237.51
216.445	224.46
216.662	267.54
216.879	249.03
217.097	241.43
217.314	216.9
217.531	263.05
217.749	248.82
217.966	238.26
218.183	236.19
218.4	202.45
218.618	202.4
218.835	194.14
219.052	183.02
219.269	192.17
219.487	173.96
219.704	178.69
219.921	146.11
220.138	141.9
220.355	143.23
220.572	142.75
220.79	142.39
221.007	137.66
221.224	139.56
221.441	132.9
221.658	115.34
221.875	107.02
222.092	100.73
222.309	103.7
222.526	111.98
222.743	107.68
222.96	96.66
223.177	93.81
223.394	92.68
223.611	89.38
223.828	89.09
224.045	92.36
224.262	95.1
224.479	95.08
224.696	95.23
224.913	86.27
225.13	81.46
225.347	79.49
225.564	74.64
225.781	69.8
225.997	63.86
226.214	60.52
226.431	51.7
226.648	44.32
226.865	39.5
227.082	33.59
227.298	29.79
227.515	25.17
227.732	22.38
227.949	21.93
228.165	19.79
228.382	19.08
228.599	16.87
228.816	15.27
229.032	15.18
229.249	14.66
229.466	14.55
229.682	14.54
229.899	15.46
230.116	16.71
230.332	16.56
230.549	18.09
230.765	18.36
230.982	19.12
231.199	21.35
231.415	21.93
231.632	23.13
231.848	24.8
232.065	25.66
232.281	25.99
232.498	24.43
232.714	25.51
232.931	24.45
233.147	24.64
233.364	26.59
233.58	26.67
233.797	26.92
234.013	26.8
234.23	26.86
234.446	25.4
234.662	24.29
234.879	26.61
235.095	26.83
235.312	25.66
235.528	27
235.744	26.29
235.961	26.42
236.177	25.79
236.393	25.49
236.61	24.99
236.826	26.44
237.042	26.97
237.258	26.1
237.475	26.32
237.691	27.11
237.907	25.01
238.123	26.66
238.339	27.44
238.556	28.61
238.772	28.22
238.988	27.62
239.204	27.47
239.42	25.81
239.636	24.54
239.853	22.96
240.069	22.92
240.285	22.43
240.501	20.71
240.717	18.25
240.933	16.72
241.149	16.36
241.365	15.72
241.581	14.87
241.797	14.44
242.013	13.21
242.229	12.84
242.445	12.56
242.661	12.37
242.877	12.41
243.093	12.79
243.309	13.15
243.525	13.23
243.741	14.26
243.957	14.64
244.173	15.44
244.388	16.68
244.604	17.15
244.82	17.9
245.036	16.99
245.252	16.53
245.468	15.41
245.683	14.06
245.899	13.39
246.115	12.2
246.331	10.9
246.547	10.23
246.762	9.69
246.978	9.35
247.194	8.64
247.409	8.7
247.625	8.3
247.841	8.16
248.057	8.66
248.272	8.72
248.488	8.8
248.703	9.28
248.919	9.68
249.135	10.26
249.35	10.73
249.566	11.29
249.782	12.29
249.997	13.38
250.213	14.22
250.428	15.01
250.644	14.91
250.859	15.26
251.075	15.91
251.29	15.25
251.506	14.91
251.721	13.86
251.937	13.26
252.152	13.34
252.368	12.76
252.583	12.8
252.798	12.29
253.014	12.75
253.229	13.07
253.445	13.07
253.66	14.28
253.875	14.1
254.091	15.69
254.306	16.52
254.521	16.05
254.737	17.62
254.952	17.66
255.167	18.41
255.383	17.6
255.598	17.21
255.813	17.88
256.028	17.47
256.244	17.92
256.459	17.05
256.674	16.95
256.889	16.19
257.104	14.73
257.32	14.57
257.535	13.08
257.75	12.86
257.965	11.58
258.18	10.69
258.395	10.09
258.61	9.1
258.826	8.64
259.041	8.41
259.256	8.36
259.471	8.01
259.686	7.71
259.901	7.8
260.116	7.46
260.331	7.85
260.546	7.76
260.761	7.57
260.976	7.93
261.191	8.27
261.406	8.31
261.621	8.52
261.836	8.89
262.05	9.48
262.265	9.47
262.48	10.11
262.695	10.01
262.91	10.23
263.125	11.38
263.34	12.02
263.555	12.19
263.769	12.28
263.984	12.17
264.199	12.41
264.414	11.85
264.629	12.86
264.843	13.49
265.058	13.24
265.273	13.09
265.488	12.02
265.702	11.35
265.917	10.59
266.132	10.35
266.346	10.17
266.561	10.07
266.776	10.03
266.99	9.23
267.205	8.36
267.42	8.41
267.634	8.79
267.849	8.98
268.063	9.08
268.278	9.41
268.492	10.11
268.707	10.19
268.922	10.23
269.136	10.37
269.351	10.04
269.565	10.77
269.78	10.37
269.994	9.96
270.209	10.13
270.423	10.32
270.637	10.14
270.852	9.27
271.066	8.88
271.281	8.62
271.495	8.57
271.709	8.58
271.924	7.9
272.138	8.01
272.353	8.27
272.567	7.7
272.781	7.48
272.996	7.27
273.21	7.84
273.424	8.11
273.638	8.12
273.853	8.02
274.067	8.39
274.281	8.95
274.495	9.28
274.71	8.98
274.924	9.36
275.138	9.48
275.352	10.15
275.566	10.05
275.781	10.18
275.995	10.17
276.209	10.59
276.423	10.66
276.637	10.76
276.851	10.61
277.065	10.37
277.279	10.1
277.493	10.17
277.707	10.06
277.921	10.1
278.135	10.14
278.349	10.32
278.563	9.51
278.777	9.48
278.991	9.07
279.205	8.79
279.419	9.03
279.633	9.5
279.847	9.31
280.061	8.99
280.275	8.72
280.489	8.27
280.703	8.03
280.917	8.26
281.131	8.56
281.344	8.68
281.558	8.95
281.772	8.87
281.986	8.91
282.2	8.49
282.414	8.88
282.627	8.98
282.841	9.08
283.055	9.32
283.269	9.39
283.482	9.06
283.696	8.41
283.91	8.31
284.123	7.87
284.337	7.69
284.551	7.96
284.764	7.69
284.978	7.66
285.192	7.53
285.405	7.19
285.619	6.97
285.833	6.67
286.046	6.8
286.26	6.75
286.473	6.97
286.687	7.05
286.9	6.95
287.114	6.72
287.327	6.67
287.541	7.09
287.754	7.46
287.968	7.72
288.181	8.07
288.395	8.26
288.608	8.25
288.822	8.5
289.035	8.52
289.248	8.52
289.462	8.81
289.675	8.49
289.889	8.46
290.102	8.17
290.315	8.13
290.529	8.1
290.742	8.03
290.955	8.31
291.169	8.03
291.382	7.88
291.595	8.03
291.808	8.08
292.022	8.59
292.235	8.42
292.448	8.6
292.661	8.56
292.875	8.49
293.088	8.97
293.301	8.41
293.514	8.65
293.727	8.69
293.94	8.68
294.153	8.72
294.367	8.71
294.58	8.58
294.793	8.66
295.006	8.66
295.219	8.88
295.432	8.89
295.645	9.02
295.858	8.95
296.071	9.01
296.284	8.83
296.497	8.51
296.71	8.43
296.923	8.52
297.136	8.56
297.349	8.48
297.562	8.29
297.775	8.17
297.988	8.4
298.201	8.7
298.414	8.58
298.626	8.78
298.839	9.18
299.052	9.36
299.265	9.51
299.478	9.65
299.691	10.1
299.903	10.44
300.116	10.6
300.329	10.73
300.542	10.76
300.755	11.3
300.967	11.74
301.18	11.93
301.393	11.9
301.605	11.65
301.818	11.68
302.031	11.82
302.243	11.47
302.456	11.35
302.669	11.39
302.881	11.3
303.094	11.25
303.307	10.97
303.519	10.93
303.732	10.87
303.944	11.2
304.157	10.95
304.37	10.76
304.582	11.31
304.795	11.45
305.007	11.71
305.22	11.53
305.432	11.39
305.645	11.41
305.857	11.29
306.069	11.23
306.282	11.21
306.494	11.64
306.707	11.79
306.919	11.98
307.132	12.24
307.344	11.88
307.556	12.12
307.769	12.2
307.981	12.39
308.193	12.45
308.406	12.83
308.618	12.71
308.83	12.59
309.043	12.5
309.255	11.98
309.467	11.8
309.679	11.78
309.892	11.74
310.104	11.51
310.316	11.32
310.528	11.25
310.74	10.94
310.953	11.05
311.165	11.02
311.377	11.13
311.589	11.47
311.801	11.45
312.013	11.17
312.225	11.06
312.437	11.08
312.649	11.45
312.862	11.48
313.074	11.76
313.286	11.76
313.498	11.74
313.71	11.48
313.922	11.58
314.134	11.87
314.346	12.44
314.558	12.76
314.77	13.24
314.982	12.78
315.193	12.95
315.405	12.9
315.617	13.1
315.829	12.83
316.041	13.19
316.253	12.92
316.465	12.89
316.677	12.62
316.888	12.76
317.1	12.64
317.312	12.83
317.524	12.6
317.736	12.93
317.947	12.9
318.159	13.66
318.371	13.44
318.583	13.48
318.794	13.45
319.006	14.08
319.218	13.85
319.43	13.73
319.641	13.96
319.853	13.96
320.064	13.9
320.276	13.87
320.488	13.74
320.699	13.75
320.911	14.13
321.123	14.38
321.334	14.01
321.546	14.59
321.757	14.66
321.969	14.69
322.18	14.58
322.392	14.4
322.603	14.39
322.815	14.51
323.026	14.82
323.238	14.27
323.449	13.76
323.661	13.69
323.872	13.26
324.083	13.23
324.295	13
324.506	13.09
324.718	13.03
324.929	13
325.14	12.44
325.352	12.62
325.563	12.9
325.774	13.18
325.986	13.27
326.197	12.81
326.408	12.96
326.62	13.01
326.831	13.02
327.042	13.3
327.253	13.42
327.464	13.73
327.676	13.29
327.887	13.19
328.098	13.07
328.309	12.9
328.52	13.46
328.732	13.34
328.943	13.62
329.154	13.69
329.365	13.29
329.576	13.19
329.787	13.36
329.998	13.43
330.209	13.73
330.42	13.95
330.631	13.94
330.842	14.06
331.053	14.26
331.264	13.6
331.475	13.83
331.686	14.2
331.897	14.49
332.108	14.27
332.319	14.32
332.53	13.99
332.741	14.08
332.952	14.39
333.163	14.27
333.374	13.94
333.585	14.34
333.795	14.21
334.006	14.02
334.217	13.72
334.428	14.19
334.639	14.45
334.849	14.14
335.06	14
335.271	13.94
335.482	13.78
335.692	13.95
335.903	14.03
336.114	13.91
336.325	13.97
336.535	14.13
336.746	13.73
336.957	13.24
337.167	13.85
337.378	14.09
337.589	13.87
337.799	13.97
338.01	13.95
338.22	13.97
338.431	14.07
338.642	14.39
338.852	14.38
339.063	14.28
339.273	14.59
339.484	14.2
339.694	13.83
339.905	13.93
340.115	13.76
340.326	14.28
340.536	14.01
340.746	13.94
340.957	13.46
341.167	13.12
341.378	13.13
341.588	12.87
341.799	13.1
342.009	12.9
342.219	13.16
342.43	13.07
342.64	12.65
342.85	12.67
343.061	12.87
343.271	12.61
343.481	12.54
343.691	12.43
343.902	12.51
344.112	12.36
344.322	12.16
344.532	11.7
344.743	11.79
344.953	11.93
345.163	12.06
345.373	11.81
345.583	12.01
345.793	11.98
346.004	11.93
346.214	11.97
346.424	12.22
346.634	12.64
346.844	12.69
347.054	12.8
347.264	12.42
347.474	12.44
347.684	12.2
347.894	12.34
348.104	12.59
348.314	12.63
348.524	12.61
348.734	12.62
348.944	12.28
349.154	12.2
349.364	12.16
349.574	12.17
349.784	12.26
349.994	12.58
350.204	12.5
350.413	12.75
350.623	13.12
350.833	12.88
351.043	12.78
351.253	13.1
351.463	13.6
351.672	13.48
351.882	13.66
352.092	13.47
352.302	13.43
352.511	13.27
352.721	12.82
352.931	12.71
353.141	12.77
353.35	12.68
353.56	12.41
353.77	11.72
353.979	11.8
354.189	11.6
354.399	11.49
354.608	11.65
354.818	11.72
355.027	11.77
355.237	11.45
355.447	11.46
355.656	11.22
355.866	11.28
356.075	11.47
356.285	11.46
356.494	11.37
356.704	11.36
356.913	11.11
357.123	11.03
357.332	11.05
357.542	10.98
357.751	10.85
357.96	10.92
358.17	10.9
358.379	10.98
358.589	10.79
358.798	11.14
359.007	11.19
359.217	11.25
359.426	11.21
359.635	11.19
359.845	11.14
360.054	11.22
360.263	11.08
360.472	11.04
360.682	10.89
360.891	10.86
361.1	10.52
361.309	10.3
361.519	10.01
361.728	9.95
361.937	10
362.146	10.09
362.355	10
362.564	10.18
362.774	9.88
362.983	9.94
363.192	9.95
363.401	10.25
363.61	10.21
363.819	10.54
364.028	10.57
364.237	10.45
364.446	10.37
364.655	10.42
364.864	10.31
365.073	10.52
365.282	10.27
365.491	10.34
365.7	9.9
365.909	9.86
366.118	9.51
366.327	9.67
366.536	9.85
366.745	9.88
366.954	9.65
367.162	9.3
367.371	9.4
367.58	9.67
367.789	9.71
367.998	9.53
368.207	9.99
368.415	10.3
368.624	10.11
368.833	9.86
369.042	10.04
369.25	10.4
369.459	10.73
369.668	10.57
369.877	10.5
370.085	10.23
370.294	10.51
370.503	9.9
370.711	9.88
370.92	9.62
371.129	9.77
371.337	9.53
371.546	9.31
371.754	9.3
371.963	9.13
372.171	9.07
372.38	9.22
372.589	9.09
372.797	9.56
373.006	9.29
373.214	9.53
373.423	9.29
373.631	9.33
373.84	9.49
374.048	9.56
374.256	9.71
374.465	9.6
374.673	9.41
374.882	9.33
375.09	9.21
375.298	8.99
375.507	8.8
375.715	8.65
375.923	8.64
376.132	8.37
376.34	7.96
376.548	7.83
376.757	7.65
376.965	7.67
377.173	7.67
377.381	7.38
377.59	7.62
377.798	7.68
378.006	7.72
378.214	7.67
378.423	7.76
378.631	7.76
378.839	7.72
379.047	7.81
379.255	7.91
379.463	8
379.671	8.37
379.879	8.49
380.088	8.33
380.296	8.31
380.504	8.51
380.712	8.74
380.92	8.9
381.128	9.23
381.336	9.32
381.544	9.09
381.752	9.06
381.96	8.79
382.168	8.52
382.376	8.48
382.584	8.5
382.791	7.97
382.999	7.67
383.207	7.6
383.415	7.17
383.623	7.04
383.831	7.11
384.039	7.14
384.247	6.97
384.454	7.04
384.662	7.28
384.87	7.36
385.078	7.61
385.285	7.58
385.493	7.49
385.701	7.59
385.909	7.51
386.116	7.38
386.324	7.3
386.532	7.34
386.739	7.21
386.947	7.04
387.155	6.93
387.362	6.53
387.57	6.43
387.778	6.65
387.985	6.54
388.193	6.56
388.4	6.58
388.608	6.54
388.816	6.47
389.023	6.39
389.231	6.5
389.438	6.45
389.646	6.54
389.853	6.63
390.061	6.24
390.268	6.53
390.475	6.56
390.683	6.39
390.89	6.2
391.098	6.17
391.305	6.22
391.512	6.1
391.72	5.9
391.927	5.9
392.135	5.77
392.342	5.9
392.549	5.62
392.756	5.47
392.964	5.56
393.171	5.64
393.378	5.75
393.586	5.55
393.793	5.45
394	5.5
394.207	5.6
394.414	5.56
394.622	5.48
394.829	5.58
395.036	5.78
395.243	5.7
395.45	5.87
395.657	5.84
395.864	6.01
396.072	6.03
396.279	6.11
396.486	6.19
396.693	6.08
396.9	5.98
397.107	6
397.314	5.83
397.521	6.03
397.728	5.99
397.935	5.89
398.142	5.81
398.349	5.71
398.556	5.72
398.763	5.65
398.97	5.75
399.177	5.73
399.383	5.61
399.59	5.45
399.797	5.33
400.004	5.16
400.211	5.07
400.418	5.02
400.625	5.09
400.831	5.13
401.038	4.94
401.245	4.97
401.452	5.06
401.658	4.93
401.865	5.26
402.072	5.26
402.279	5.22
402.485	5.21
402.692	5.28
402.899	5.22
403.105	5.14
403.312	5.2
403.519	5.26
403.725	5.11
403.932	5.15
404.138	4.91
404.345	4.86
404.552	4.91
404.758	4.95
404.965	4.91
405.171	4.86
405.378	4.99
405.584	4.94
405.791	4.7
405.997	4.82
406.204	4.88
406.41	4.87
406.617	4.71
406.823	4.62
407.029	4.55
407.236	4.47
407.442	4.47
407.649	4.39
407.855	4.43
408.061	4.51
408.268	4.49
408.474	4.54
408.68	4.54
408.887	4.76
409.093	4.77
409.299	4.9
409.505	4.87
409.712	4.87
409.918	4.72
410.124	4.68
410.33	4.71
410.537	4.61
410.743	4.55
410.949	4.49
411.155	4.34
411.361	4.33
411.567	4.53
411.773	4.64
411.98	4.73
412.186	4.76
412.392	4.77
412.598	4.62
412.804	4.65
413.01	4.78
413.216	4.83
413.422	4.94
413.628	4.81
413.834	4.43
414.04	4.43
414.246	4.4
414.452	4.29
414.658	4.25
414.864	4.45
415.07	4.73
415.275	4.66
415.481	4.52
415.687	4.38
415.893	4.41
416.099	4.36
416.305	4.17
416.511	4.04
416.716	3.94
416.922	3.82
417.128	3.75
417.334	3.62
417.539	3.44
417.745	3.55
417.951	3.54
418.157	3.46
418.362	3.47
418.568	3.55
418.774	3.44
418.979	3.53
419.185	3.54
419.391	3.46
419.596	3.25
419.802	3.26
420.008	3.18
420.213	3.71
420.419	3.77
420.624	3.74
420.83	3.64
421.035	3.69
421.241	3.69
421.446	3.65
421.652	3.55
421.857	3.64
422.063	3.64
422.268	3.63
422.474	3.14
422.679	3.09
422.885	3.09
423.09	3.13
423.295	3.11
423.501	3.02
423.706	2.97
423.911	3.06
424.117	3.06
424.322	3.06
424.527	3.05
424.733	3.07
424.938	3.05
425.143	2.99
425.349	3.1
425.554	3.08
425.759	3.19
425.964	3.32
426.169	3.3
426.375	3.31
426.58	3.21
426.785	3.28
426.99	3.21
427.195	3.23
427.4	3.32
427.605	3.21
427.811	3.27
428.016	3.23
428.221	3.16
428.426	3.17
428.631	3.13
428.836	3.2
429.041	3.18
429.246	3.28
429.451	3.2
429.656	3.2
429.861	3.3
430.066	3.33
430.271	3.25
430.476	3.35
430.681	3.44
430.886	3.54
431.09	3.65
431.295	3.64
431.5	3.53
431.705	3.52
431.91	3.51
432.115	3.37
432.32	3.34
432.524	3.29
432.729	3.3
432.934	3.22
433.139	3.16
433.343	3.08
433.548	3.1
433.753	3.2
433.958	3.31
434.162	3.27
434.367	3.31
434.572	3.25
434.776	3.29
434.981	3.26
435.186	3.28
435.39	3.35
435.595	3.46
435.799	3.31
436.004	3.32
436.209	3.26
436.413	3.43
436.618	3.37
436.822	3.48
437.027	3.51
437.231	3.51
437.436	3.56
437.64	3.54
437.845	3.48
438.049	3.57
438.253	3.48
438.458	3.48
438.662	3.34
438.867	3.25
439.071	3.27
439.275	3.22
439.48	3.16
439.684	3
439.888	2.93
440.093	2.85
440.297	2.81
440.501	2.82
440.706	2.84
440.91	2.83
441.114	2.9
441.318	2.82
441.523	2.86
441.727	2.88
441.931	2.89
442.135	2.9
442.339	2.98
442.543	3.05
442.748	2.97
442.952	3.05
443.156	3.07
443.36	3.09
443.564	3.14
443.768	3.11
443.972	3.1
444.176	3.08
444.38	3.09
444.584	3
444.788	2.91
444.992	2.95
445.196	2.8
445.4	2.73
445.604	2.62
445.808	2.58
446.012	2.57
446.216	2.6
446.42	2.69
446.624	2.69
446.828	2.69
447.032	2.72
447.235	2.76
447.439	2.76
447.643	2.82
447.847	2.98
448.051	3.03
448.254	3.01
448.458	2.95
448.662	2.89
448.866	2.9
449.069	2.97
449.273	2.97
449.477	2.92
449.681	2.9
449.884	2.91
450.088	2.86
450.292	2.91
450.495	2.94
450.699	3
450.902	3.09
451.106	3.12
451.31	3.16
451.513	3.26
451.717	3.3
451.92	3.28
452.124	3.25
452.327	3.27
452.531	3.22
452.734	3.21
452.938	3.21
453.141	3.18
453.345	3.19
453.548	3.12
453.752	2.92
453.955	2.97
454.158	3.01
454.362	3.12
454.565	3.06
454.769	3.04
454.972	3.08
455.175	3.07
455.379	3.09
455.582	3.08
455.785	3.06
455.988	3.2
456.192	3.15
456.395	3.2
456.598	3.14
456.801	3.17
457.005	3.21
457.208	3.21
457.411	3.21
457.614	3.22
457.817	3.2
458.021	3.1
458.224	3.05
458.427	3
458.63	3.01
458.833	2.96
459.036	2.94
459.239	2.91
459.442	2.82
459.645	2.71
459.848	2.66
460.051	2.53
460.254	2.6
460.457	2.58
460.66	2.58
460.863	2.59
461.066	2.62
461.269	2.58
461.472	2.54
461.675	2.69
461.878	2.85
462.081	2.89
462.284	3.03
462.486	3
462.689	2.99
462.892	3.1
463.095	3.12
463.298	3.17
463.5	3.2
463.703	3.21
463.906	3.2
464.109	3.09
464.311	3.1
464.514	3.2
464.717	3.13
464.92	3.2
465.122	3.2
465.325	3.2
465.528	3.25
465.73	3.26
465.933	3.3
466.135	3.17
466.338	3.24
466.541	3.24
466.743	3.21
466.946	3.31
467.148	3.33
467.351	3.3
467.553	3.28
467.756	3.1
467.958	3.22
468.161	3.29
468.363	3.41
468.566	3.3
468.768	3.28
468.971	3.27
469.173	3.36
469.375	3.28
469.578	3.29
469.78	3.26
469.983	3.22
470.185	3.16
470.387	2.98
470.59	2.85
470.792	3.05
470.994	3.14
471.196	3.09
471.399	3.03
471.601	3.02
471.803	3.05
472.005	3.04
472.208	3.23
472.41	3.18
472.612	3.29
472.814	3.41
473.016	3.41
473.218	3.39
473.421	3.38
473.623	3.3
473.825	3.34
474.027	3.22
474.229	3.32
474.431	3.32
474.633	3.32
474.835	3.25
475.037	3.17
475.239	3.11
475.441	3.07
475.643	3.1
475.845	3
476.047	2.94
476.249	3.04
476.451	3.01
476.653	2.97
476.855	2.96
477.057	3
477.258	2.89
477.46	2.78
477.662	2.7
477.864	2.73
478.066	2.89
478.268	2.91
478.469	2.8
478.671	2.8
478.873	2.66
479.075	2.63
479.276	2.58
479.478	2.73
479.68	2.74
479.882	2.8
480.083	2.73
480.285	2.62
480.487	2.74
480.688	2.72
480.89	2.65
481.091	2.7
481.293	2.69
481.495	2.62
481.696	2.5
481.898	2.47
482.099	2.42
482.301	2.37
482.502	2.29
482.704	2.17
482.905	2.18
483.107	2.15
483.308	2.13
483.51	2.12
483.711	2.11
483.913	2.1
484.114	2.07
484.315	2.06
484.517	2.05
484.718	2.1
484.92	2.14
485.121	2.14
485.322	2.12
485.524	2.12
485.725	2.12
485.926	2.13
486.127	2.12
486.329	2.14
486.53	2.14
486.731	2.12
486.932	2.12
487.134	2.05
487.335	2.07
487.536	2.06
487.737	2.04
487.938	2.07
488.139	2.07
488.341	2.1
488.542	2.11
488.743	2.14
488.944	2.21
489.145	2.2
489.346	2.26
489.547	2.26
489.748	2.3
489.949	2.31
490.15	2.31
490.351	2.32
490.552	2.33
490.753	2.32
490.954	2.28
491.155	2.23
491.356	2.23
491.557	2.23
491.758	2.24
491.959	2.25
492.159	2.3
492.36	2.26
492.561	2.27
492.762	2.29
492.963	2.32
493.164	2.34
493.364	2.39
493.565	2.42
493.766	2.42
493.967	2.49
494.167	2.48
494.368	2.49
494.569	2.64
494.769	2.73
494.97	2.72
495.171	2.72
495.371	2.78
495.572	2.85
495.773	2.85
495.973	2.89
496.174	2.9
496.375	2.98
496.575	2.98
496.776	2.87
496.976	2.8
497.177	2.78
497.377	2.79
497.578	2.79
497.778	2.75
497.979	2.8
498.179	2.86
498.38	2.84
498.58	2.77
498.78	2.78
498.981	2.81
499.181	2.81
499.382	2.91
499.582	2.97
499.782	2.97
499.983	3.11
500.183	3.13
500.383	3.05
500.584	3.05
500.784	3.09
500.984	3.11
501.184	3.2
501.385	3.28
501.585	3.28
501.785	3.37
501.985	3.41
502.185	3.21
502.386	3.22
502.586	3.29
502.786	3.37
502.986	3.45
503.186	3.48
503.386	3.52
503.586	3.55
503.786	3.56
503.987	3.49
504.187	3.59
504.387	3.8
504.587	3.89
504.787	3.91
504.987	3.94
505.187	3.9
505.387	3.94
505.587	3.85
505.786	3.85
505.986	3.92
506.186	4
506.386	4.01
506.586	4.05
506.786	3.98
506.986	3.93
507.186	3.94
507.386	4.01
507.585	4.03
507.785	4.21
507.985	4.24
508.185	4.23
508.384	4.26
508.584	4.23
508.784	4.17
508.984	4.21
509.183	4.41
509.383	4.45
509.583	4.52
509.782	4.53
509.982	4.53
510.182	4.58
510.381	4.66
510.581	4.69
510.781	4.73
510.98	4.76
511.18	4.84
511.379	4.77
511.579	4.78
511.778	4.81
511.978	4.94
512.177	4.9
512.377	4.94
512.576	4.98
512.776	5.08
512.975	5.12
513.175	5.21
513.374	5.25
513.573	5.38
513.773	5.53
513.972	5.53
514.172	5.63
514.371	5.76
514.57	5.93
514.77	5.99
514.969	6
515.168	6.13
515.367	6.24
515.567	6.33
515.766	6.3
515.965	6.22
516.164	6.31
516.364	6.24
516.563	6.29
516.762	6.25
516.961	6.25
517.16	6.32
517.359	6.34
517.559	6.38
517.758	6.43
517.957	6.5
518.156	6.55
518.355	6.62
518.554	6.76
518.753	6.84
518.952	6.84
519.151	6.96
519.35	7.01
519.549	7.01
519.748	7.04
519.947	7.17
520.146	7.29
520.345	7.47
520.544	7.58
520.743	7.61
520.942	7.69
521.141	7.85
521.339	8
521.538	8.11
521.737	8.27
521.936	8.31
522.135	8.3
522.333	8.36
522.532	8.35
522.731	8.35
522.93	8.49
523.129	8.57
523.327	8.63
523.526	8.58
523.725	8.73
523.923	8.78
524.122	8.82
524.321	8.85
524.519	8.85
524.718	8.95
524.917	8.97
525.115	8.96
525.314	8.96
525.512	9
525.711	9.09
525.909	9
526.108	9.06
526.306	9.18
526.505	9.26
526.703	9.37
526.902	9.39
527.1	9.48
527.299	9.52
527.497	9.57
527.696	9.6
527.894	9.62
528.092	9.69
528.291	9.75
528.489	9.79
528.688	9.86
528.886	9.89
529.084	9.94
529.283	10
529.481	10.11
529.679	10.18
529.877	10.31
530.076	10.43
530.274	10.49
530.472	10.55
530.67	10.65
530.869	10.68
531.067	10.79
531.265	10.91
531.463	10.96
531.661	10.98
531.859	11.05
532.057	11.07
532.255	11.09
532.454	11.17
532.652	11.18
532.85	11.22
533.048	11.24
533.246	11.28
533.444	11.32
533.642	11.42
533.84	11.52
534.038	11.6
534.236	11.7
534.434	11.8
534.632	11.84
534.83	11.96
535.027	12.02
535.225	12.15
535.423	12.23
535.621	12.27
535.819	12.33
536.017	12.37
536.215	12.46
536.412	12.47
536.61	12.45
536.808	12.52
537.006	12.56
537.203	12.69
537.401	12.84
537.599	12.92
537.797	13.05
537.994	13.16
538.192	13.25
538.39	13.35
538.587	13.54
538.785	13.71
538.983	13.92
539.18	14.15
539.378	14.19
539.575	14.24
539.773	14.25
539.97	14.31
540.168	14.36
540.366	14.3
540.563	14.32
540.761	14.3
540.958	14.33
541.155	14.33
541.353	14.34
541.55	14.4
541.748	14.46
541.945	14.55
542.143	14.57
542.34	14.59
542.537	14.76
542.735	14.83
542.932	14.94
543.129	15.05
543.327	15.24
543.524	15.44
543.721	15.65
543.919	15.83
544.116	16.13
544.313	16.39
544.51	16.68
544.708	16.83
544.905	17.09
545.102	17.37
545.299	17.55
545.496	17.64
545.693	17.68
545.891	17.63
546.088	17.62
546.285	17.49
546.482	17.44
546.679	17.37
546.876	17.32
547.073	17.25
547.27	17.11
547.467	17.06
547.664	16.97
547.861	16.99
548.058	16.98
548.255	17.05
548.452	17.12
548.649	17.16
548.846	17.16
549.043	17.25
549.24	17.24
549.437	17.25
549.633	17.34
549.83	17.45
550.027	17.37
550.224	17.43
550.421	17.41
550.618	17.39
550.814	17.41
551.011	17.43
551.208	17.45
551.405	17.54
551.601	17.53
551.798	17.42
551.995	17.31
552.191	17.36
552.388	17.42
552.585	17.44
552.781	17.33
552.978	17.36
553.175	17.4
553.371	17.41
553.568	17.38
553.764	17.47
553.961	17.58
554.157	17.64
554.354	17.72
554.55	17.7
554.747	17.68
554.943	17.83
555.14	17.89
555.336	17.91
555.533	17.82
555.729	17.81
555.926	17.82
556.122	17.87
556.318	17.98
556.515	17.85
556.711	17.78
556.907	17.9
557.104	18
557.3	17.9
557.496	18.04
557.693	18.19
557.889	18.26
558.085	18.27
558.281	18.25
558.478	18.36
558.674	18.45
558.87	18.65
559.066	18.55
559.262	18.48
559.459	18.42
559.655	18.35
559.851	18.37
560.047	18.42
560.243	18.43
560.439	18.44
560.635	18.29
560.831	18.42
561.027	18.45
561.223	18.43
561.419	18.54
561.615	18.56
561.811	18.68
562.007	18.7
562.203	18.68
562.399	18.7
562.595	18.72
562.791	18.83
562.987	18.8
563.183	18.76
563.379	18.81
563.575	18.62
563.771	18.75
563.966	18.76
564.162	18.82
564.358	18.85
564.554	18.91
564.75	18.85
564.945	18.89
565.141	18.97
565.337	18.82
565.533	18.86
565.728	18.96
565.924	18.93
566.12	18.84
566.315	18.85
566.511	18.79
566.707	18.8
566.902	18.88
567.098	18.84
567.293	18.75
567.489	18.9
567.684	18.84
567.88	18.89
568.076	18.9
568.271	18.92
568.467	18.85
568.662	18.81
568.858	18.8
569.053	18.92
569.248	18.87
569.444	18.92
569.639	18.83
569.835	18.87
570.03	18.89
570.225	18.97
570.421	18.96
570.616	19.01
570.812	19.12
571.007	19.1
571.202	18.97
571.397	18.98
571.593	18.89
571.788	18.96
571.983	18.94
572.178	19
572.374	19.02
572.569	19.02
572.764	19.01
572.959	19.05
573.154	19.1
573.35	19.12
573.545	19.18
573.74	19.17
573.935	19.19
574.13	19.27
574.325	19.31
574.52	19.38
574.715	19.45
574.91	19.53
575.105	19.56
575.3	19.57
575.495	19.64
575.69	19.66
575.885	19.88
576.08	20.1
576.275	20.25
576.47	20.27
576.665	20.27
576.86	20.37
577.055	20.49
577.25	20.53
577.444	20.7
577.639	20.92
577.834	21
578.029	20.96
578.224	20.86
578.418	20.96
578.613	20.98
578.808	21.03
579.003	21.05
579.197	21.11
579.392	21.01
579.587	20.96
579.781	20.82
579.976	20.93
580.171	21.02
580.365	21.2
580.56	21.23
580.755	21.29
580.949	21.39
581.144	21.41
581.338	21.34
581.533	21.71
581.727	21.77
581.922	21.82
582.116	21.95
582.311	22.05
582.505	21.86
582.7	21.69
582.894	21.73
583.089	21.63
583.283	21.75
583.478	21.95
583.672	21.75
583.866	21.8
584.061	21.7
584.255	21.61
584.449	21.6
584.644	21.84
584.838	22.06
585.032	22.21
585.226	22.34
585.421	22.43
585.615	22.28
585.809	22.41
586.003	22.54
586.198	22.65
586.392	22.61
586.586	22.61
586.78	22.52
586.974	22.51
587.168	22.51
587.363	22.68
587.557	22.5
587.751	22.57
587.945	22.58
588.139	22.3
588.333	22.34
588.527	22.35
588.721	22.34
588.915	22.33
589.109	22.17
589.303	22.02
589.497	21.88
589.691	21.82
589.885	21.79
590.079	21.76
590.273	21.91
590.466	22.02
590.66	21.97
590.854	21.98
591.048	22.18
591.242	22.39
591.436	22.54
591.629	22.64
591.823	22.9
592.017	22.98
592.211	22.98
592.404	23.19
592.598	23.04
592.792	23.1
592.986	23.07
593.179	22.85
593.373	22.64
593.567	22.53
593.76	22.34
593.954	22.17
594.147	22.19
594.341	22.14
594.535	21.87
594.728	21.86
594.922	21.93
595.115	21.74
595.309	21.75
595.502	21.84
595.696	21.81
595.889	21.78
596.083	21.71
596.276	21.59
596.47	21.53
596.663	21.6
596.856	21.62
597.05	21.56
597.243	21.74
597.437	21.84
597.63	22
597.823	22.03
598.017	22.04
598.21	22.07
598.403	22.2
598.596	22.37
598.79	22.54
598.983	22.74
599.176	22.75
599.369	22.76
599.563	22.62
599.756	22.37
599.949	22.31
600.142	22.37
600.335	22.59
600.528	22.66
600.722	22.61
600.915	22.49
601.108	22.17
601.301	22.23
601.494	22.33
601.687	22.44
601.88	22.48
602.073	22.38
602.266	22.41
602.459	22.2
602.652	22.03
602.845	22.08
603.038	22.07
603.231	22.15
603.424	22.09
603.617	21.83
603.809	21.71
604.002	21.73
604.195	21.82
604.388	21.76
604.581	21.79
604.774	21.85
604.966	21.76
605.159	21.71
605.352	21.7
605.545	21.66
605.737	21.82
605.93	22.02
606.123	22.16
606.316	22.25
606.508	22.35
606.701	22.49
606.894	22.69
607.086	22.96
607.279	23.08
607.471	23.32
607.664	23.63
607.857	23.99
608.049	24.24
608.242	24.52
608.434	24.99
608.627	25.59
608.819	26.29
609.012	26.95
609.204	27.74
609.397	28.57
609.589	29.74
609.782	30.8
609.974	31.97
610.166	33.11
610.359	34.29
610.551	35.35
610.743	36.2
610.936	37
611.128	37.55
611.32	37.96
611.513	38.49
611.705	38.43
611.897	38.3
612.09	37.93
612.282	37.43
612.474	36.94
612.666	36.46
612.858	35.99
613.051	35.47
613.243	35.01
613.435	34.44
613.627	33.88
613.819	33.29
614.011	33.11
614.203	32.63
614.395	32.28
614.588	31.78
614.78	31.1
614.972	30.61
615.164	29.94
615.356	29.51
615.548	29.03
615.74	28.55
615.932	28.28
616.124	27.56
616.315	27.19
616.507	26.95
616.699	26.46
616.891	26.31
617.083	25.84
617.275	25.76
617.467	25.46
617.659	25.44
617.85	25.24
618.042	24.93
618.234	24.86
618.426	24.84
618.618	24.61
618.809	24.84
619.001	24.91
619.193	25.2
619.384	25.23
619.576	25.25
619.768	25.05
619.959	25.08
620.151	25.14
620.343	25.27
620.534	25.24
620.726	25.37
620.917	25.38
621.109	25.29
621.301	25.21
621.492	25.26
621.684	25.31
621.875	25.48
622.067	25.59
622.258	25.8
622.45	25.99
622.641	25.9
622.832	25.87
623.024	25.83
623.215	25.73
623.407	25.88
623.598	25.78
623.789	25.86
623.981	25.91
624.172	25.94
624.363	25.74
624.555	25.54
624.746	25.52
624.937	25.45
625.129	25.51
625.32	25.51
625.511	25.52
625.702	25.56
625.893	25.28
626.085	25.08
626.276	24.97
626.467	24.85
626.658	24.65
626.849	24.59
627.04	24.64
627.231	24.55
627.422	24.82
627.614	24.73
627.805	24.81
627.996	24.99
628.187	25.17
628.378	25.32
628.569	25.68
628.76	26
628.951	26.35
629.142	26.51
629.332	26.68
629.523	26.57
629.714	26.71
629.905	26.74
630.096	26.82
630.287	27.01
630.478	27.11
630.669	27.15
630.859	27.05
631.05	26.86
631.241	26.72
631.432	26.57
631.623	26.38
631.813	26.19
632.004	26.03
632.195	25.82
632.385	25.44
632.576	25.22
632.767	24.95
632.957	24.77
633.148	24.68
633.339	24.53
633.529	24.26
633.72	24.13
633.91	24.1
634.101	24
634.292	24.11
634.482	24.18
634.673	24.3
634.863	24.13
635.054	24.2
635.244	24.29
635.435	24.34
635.625	24.54
635.815	24.7
636.006	24.66
636.196	24.65
636.387	24.76
636.577	24.99
636.767	24.7
636.958	25
637.148	24.85
637.338	24.76
637.529	24.7
637.719	24.67
637.909	24.66
638.099	24.56
638.29	24.77
638.48	24.83
638.67	24.61
638.86	24.81
639.05	24.72
639.241	24.85
639.431	25
639.621	25.15
639.811	25.03
640.001	24.99
640.191	25.33
640.381	25.07
640.571	25.02
640.761	25.03
640.951	24.85
641.141	25.08
641.331	25.09
641.521	25.05
641.711	25.03
641.901	25.35
642.091	25.58
642.281	25.37
642.471	25.45
642.661	25.45
642.851	25.56
643.041	25.65
643.231	25.3
643.42	25.2
643.61	25.19
643.8	25.35
643.99	25.37
644.18	25.03
644.369	25.02
644.559	25.21
644.749	25.08
644.939	25.12
645.128	25.26
645.318	25.27
645.508	25.44
645.697	25.52
645.887	25.41
646.076	25.31
646.266	25.44
646.456	25.72
646.645	25.58
646.835	25.6
647.024	25.5
647.214	25.36
647.403	25.39
647.593	25.36
647.782	25.25
647.972	25.43
648.161	25.29
648.351	25.41
648.54	25.17
648.73	25.39
648.919	25.74
649.108	25.77
649.298	26.05
649.487	26.19
649.677	26.16
649.866	26.4
650.055	26.26
650.244	26.29
650.434	26.35
650.623	26.51
650.812	26.45
651.002	26.16
651.191	26.19
651.38	26.05
651.569	26.01
651.758	26.11
651.947	26.06
652.137	26.08
652.326	26.22
652.515	26.44
652.704	26.47
652.893	26.46
653.082	26.54
653.271	26.64
653.46	26.5
653.649	26.61
653.838	26.44
654.027	26.31
654.216	26.33
654.405	26.57
654.594	26.26
654.783	26.17
654.972	26.18
655.161	25.92
655.35	25.52
655.539	25.64
655.728	25.51
655.916	25.63
656.105	25.8
656.294	25.91
656.483	25.47
656.672	25.42
656.86	25.54
657.049	25.32
657.238	25.58
657.427	25.81
657.615	25.72
657.804	25.62
657.993	25.59
658.181	25.21
658.37	25.04
658.559	25.21
658.747	25.12
658.936	24.91
659.125	25.27
659.313	25.23
659.502	25.31
659.69	25.32
659.879	25.5
660.067	25.59
660.256	25.86
660.444	26.03
660.633	26.11
660.821	26.23
661.01	26.38
661.198	26.2
661.387	26.25
661.575	26.1
661.763	26.24
661.952	26.26
662.14	26.41
662.328	26.39
662.517	26.5
662.705	26.45
662.893	26.69
663.082	26.67
663.27	26.87
663.458	27.01
663.646	27.29
663.834	27.19
664.023	27.4
664.211	27.14
664.399	27.36
664.587	27.27
664.775	27.29
664.963	27.36
665.152	27.47
665.34	27.31
665.528	27.25
665.716	27.16
665.904	27.46
666.092	27.23
666.28	27.1
666.468	27.06
666.656	26.96
666.844	26.9
667.032	26.67
667.22	26.78
667.408	26.91
667.596	26.77
667.784	26.64
667.971	26.69
668.159	26.78
668.347	26.69
668.535	26.61
668.723	26.69
668.911	26.56
669.098	26.56
669.286	26.68
669.474	26.53
669.662	26.73
669.849	27.13
670.037	27.06
670.225	27.19
670.413	27.46
670.6	27.38
670.788	27.45
670.976	27.59
671.163	27.68
671.351	27.67
671.538	27.78
671.726	27.81
671.913	27.59
672.101	27.44
672.289	27.16
672.476	27.32
672.664	27.49
672.851	27.44
673.039	27.72
673.226	27.78
673.413	27.61
673.601	27.52
673.788	27.4
673.976	27.39
674.163	27.56
674.35	27.64
674.538	27.81
674.725	28.04
674.912	28.06
675.1	27.73
675.287	27.89
675.474	28.11
675.662	28.21
675.849	28.25
676.036	28.43
676.223	28.64
676.411	28.74
676.598	28.9
676.785	28.52
676.972	28.43
677.159	28.6
677.346	28.54
677.533	28.23
677.721	28.19
677.908	28.14
678.095	27.97
678.282	27.62
678.469	27.6
678.656	27.23
678.843	27.22
679.03	27.05
679.217	26.87
679.404	26.74
679.591	26.75
679.778	26.69
679.964	26.65
680.151	26.59
680.338	26.5
680.525	26.56
680.712	26.72
680.899	26.89
681.086	26.87
681.272	27.2
681.459	27.27
681.646	27.26
681.833	27.25
682.02	27.31
682.206	27.49
682.393	27.71
682.58	27.52
682.766	27.55
682.953	27.65
683.14	27.93
683.326	28.03
683.513	28.18
683.7	28.22
683.886	28.26
684.073	28.28
684.259	28.17
684.446	28.29
684.632	28.58
684.819	28.28
685.005	28.13
685.192	28.18
685.378	28.05
685.565	28.04
685.751	28.21
685.938	28.22
686.124	28.42
686.31	28.43
686.497	28.39
686.683	28.15
686.87	28.37
687.056	28.65
687.242	28.71
687.429	28.74
687.615	28.79
687.801	28.84
687.987	28.97
688.174	28.51
688.36	28.55
688.546	28.63
688.732	28.77
688.918	28.85
689.105	28.69
689.291	28.56
689.477	28.72
689.663	28.69
689.849	28.77
690.035	28.7
690.221	29.25
690.407	29.32
690.593	29.45
690.779	29.57
690.965	29.4
691.151	29.8
691.337	30.19
691.523	29.88
691.709	29.82
691.895	29.7
692.081	29.97
692.267	29.71
692.453	29.98
692.639	29.94
692.825	30.11
693.011	30.42
693.196	30.18
693.382	29.74
693.568	29.95
693.754	30.17
693.94	30.21
694.125	30.13
694.311	30.06
694.497	29.86
694.682	29.62
694.868	29.22
695.054	29.14
695.239	29.23
695.425	29.14
695.611	28.93
695.796	28.79
695.982	28.8
696.168	28.75
696.353	28.53
696.539	28.28
696.724	28.21
696.91	28.26
697.095	27.84
697.281	27.45
697.466	27.34
697.652	27.38
697.837	26.92
698.023	26.62
698.208	26.34
698.393	26.52
698.579	26.71
698.764	26.63
698.949	26.5
699.135	26.68
699.32	26.71
699.505	26.89
699.691	26.66
699.876	26.99
700.061	27.32
700.246	27.64
700.432	27.75
700.617	27.8
700.802	28.12
700.987	28.31
701.172	28.38
701.358	28.55
701.543	28.92
701.728	29.21
701.913	29.47
702.098	29.53
702.283	29.66
702.468	29.65
702.653	29.53
702.838	29.79
703.023	30.12
703.208	30.59
703.393	31.04
703.578	30.85
703.763	31.48
703.948	31.58
704.133	31.61
704.318	32.05
704.503	32.34
704.688	32.93
704.873	32.97
705.057	33.32
705.242	32.96
705.427	32.87
705.612	33.19
705.797	33.03
705.981	33.32
706.166	33.61
706.351	33.61
706.536	34.07
706.72	34.06
706.905	34.31
707.09	34.29
707.274	35.13
707.459	35.34
707.644	35.64
707.828	35.77
708.013	35.85
708.197	36.04
708.382	35.79
708.567	35.74
708.751	35.27
708.936	35.11
709.12	34.92
709.305	34.98
709.489	34.76
709.673	34.68
709.858	34.82
710.042	34.38
710.227	34.34
710.411	34.52
710.596	34.09
710.78	34.24
710.964	34.37
711.149	34.54
711.333	34.13
711.517	34.12
711.702	33.98
711.886	33.75
712.07	34.07
712.254	34.18
712.438	33.79
712.623	33.7
712.807	33.73
712.991	33.26
713.175	32.95
713.359	32.89
713.544	32.39
713.728	32.2
713.912	32.06
714.096	31.48
714.28	31.23
714.464	31.3
714.648	30.99
714.832	30.75
715.016	30.93
715.2	30.84
715.384	30.62
715.568	30.72
715.752	30.22
715.936	30.06
716.12	30.01
716.304	29.89
716.488	29.83
716.671	29.98
716.855	30.19
717.039	29.91
717.223	29.7
717.407	29.55
717.59	29.72
717.774	29.93
717.958	30.22
718.142	30.45
718.325	30.29
718.509	30.46
718.693	30.95
718.877	30.71
719.06	30.75
719.244	30.81
719.428	30.84
719.611	31.04
719.795	31.26
719.978	31.26
720.162	31.61
720.345	31.95
720.529	31.75
720.713	31.92
720.896	32.28
721.08	32.78
721.263	33.56
721.446	33.99
721.63	34.19
721.813	34.41
721.997	34.39
722.18	34.1
722.364	34.51
722.547	34.71
722.73	34.17
722.914	34.45
723.097	34.62
723.28	34.31
723.464	34.26
723.647	34.42
723.83	34.46
724.013	34.38
724.197	34.93
724.38	34.38
724.563	34.17
724.746	34.17
724.929	34.07
725.112	33.8
725.296	33.43
725.479	33.45
725.662	32.93
725.845	32.83
726.028	33.03
726.211	32.16
726.394	31.65
726.577	31.63
726.76	31.59
726.943	31.32
727.126	31.18
727.309	31.61
727.492	31.47
727.675	31.63
727.858	31.28
728.041	31.2
728.224	31.52
728.407	31.54
728.589	31.92
728.772	32.56
728.955	32.89
729.138	32.87
729.321	32.43
729.503	32.32
729.686	32.23
729.869	32.61
730.052	32.89
730.234	33.28
730.417	33.68
730.6	33.61
730.782	33.4
730.965	33.21
731.148	33.21
731.33	33.61
731.513	33.96
731.695	33.69
731.878	33.31
732.061	32.66
732.243	32.54
732.426	32.75
732.608	32.88
732.791	32.87
732.973	32.79
733.156	32.82
733.338	32.35
733.52	32.36
733.703	32.87
733.885	33.49
734.068	34.01
734.25	34.1
734.432	33.9
734.615	33.52
734.797	33.34
734.979	33.08
735.162	33.46
735.344	33.68
735.526	33.75
735.708	33.53
735.891	33.15
736.073	33
736.255	32.84
736.437	33.03
736.619	33.46
736.802	33.79
736.984	34.34
737.166	34.13
737.348	34.39
737.53	34.2
737.712	34.32
737.894	34.88
738.076	35.22
738.258	35.26
738.44	35.32
738.622	35
738.804	35.29
738.986	35.07
739.168	35.25
739.35	35.47
739.532	35.26
739.714	34.9
739.896	34.45
740.078	33.93
740.259	34.15
740.441	34.54
740.623	34.64
740.805	34.45
740.987	34.63
741.168	34.25
741.35	34.97
741.532	35.65
741.714	36.71
741.895	36.96
742.077	37.38
742.259	37.73
742.44	37.32
742.622	37.49
742.804	37.2
742.985	37.25
743.167	36.93
743.348	35.68
743.53	35.85
743.711	35.71
743.893	36.08
744.075	36.73
744.256	35.92
744.438	36.34
744.619	36.59
744.8	36.56
744.982	36.75
745.163	37.81
745.345	39.06
745.526	38.6
745.707	38.18
745.889	38.49
746.07	37.76
746.252	38.65
746.433	38.94
746.614	38.93
746.795	39.81
746.977	40.06
747.158	39.75
747.339	39.22
747.52	39.78
747.702	39.94
747.883	38.87
748.064	39.46
748.245	39.15
748.426	39.11
748.607	39.67
748.788	39.31
748.97	39.35
749.151	39.75
749.332	39.92
749.513	40.02
749.694	40.21
749.875	41.04
750.056	41.06
750.237	41.12
750.418	41.24
750.599	40.48
750.78	40.28
750.96	39.96
751.141	39.23
751.322	38.94
751.503	38.74
751.684	39.05
751.865	38.8
752.046	38.64
752.226	38.9
752.407	38.45
752.588	38.91
752.769	39.33
752.949	39.24
753.13	40.44
753.311	40.47
753.492	39.96
753.672	39.66
753.853	40.01
754.034	39.65
754.214	39.64
754.395	39.46
754.575	39.5
754.756	40.04
754.937	40.47
755.117	39.17
755.298	39.33
755.478	39.53
755.659	39.49
755.839	39.29
756.02	39.21
756.2	39.12
756.381	39.26
756.561	39.78
756.741	38.73
756.922	38.66
757.102	38.88
757.283	39.09
757.463	39.47
757.643	40
757.823	40.09
758.004	39.44
758.184	38.7
758.364	38.21
758.545	37.19
758.725	37.1
758.905	36.95
759.085	36.79
759.265	36.19
759.446	35.43
759.626	34.94
759.806	34.72
759.986	34.79
760.166	35.05
760.346	35.39
760.526	35.34
760.706	35.23
760.886	35.17
761.066	35.33
761.246	35.55
761.426	35.14
761.606	34.91
761.786	33.76
761.966	33.85
762.146	33.55
762.326	33.12
762.506	33.09
762.686	32.78
762.866	32.55
763.046	32.51
763.225	31.91
763.405	31.65
763.585	31.08
763.765	31.39
763.945	31.27
764.124	31.27
764.304	31.43
764.484	31.51
764.664	31.54
764.843	31.84
765.023	31.78
765.203	32.04
765.382	32.81
765.562	33.27
765.741	34.56
765.921	35.4
766.101	35.35
766.28	35.65
766.46	35.67
766.639	36.25
766.819	36.39
766.998	36.7
767.178	37.29
767.357	37.57
767.537	38.11
767.716	37.17
767.896	37.38
768.075	37.95
768.254	37.82
768.434	38.74
768.613	39.36
768.792	39.05
768.972	39.9
769.151	39.52
769.33	39.69
769.51	39.89
769.689	40.11
769.868	40.64
770.047	41.36
770.226	41.75
770.406	42.21
770.585	42.42
770.764	42.76
770.943	43.24
771.122	43.45
771.301	43.65
771.48	43.91
771.66	44.02
771.839	43.74
772.018	43.6
772.197	44.18
772.376	43.02
772.555	42.82
772.734	44.01
772.913	42.59
773.092	43.72
773.271	43.24
773.449	42.49
773.628	43.37
773.807	43.15
773.986	43.3
774.165	42.65
774.344	43.39
774.523	43.54
774.701	42.33
774.88	42.78
775.059	41.81
775.238	41.71
775.417	42.15
775.595	41.98
775.774	41.97
775.953	40.73
776.131	41.23
776.31	40.87
776.489	41.39
776.667	41.4
776.846	41.34
777.025	41.61
777.203	42.08
777.382	42.71
777.56	42.69
777.739	42.92
777.917	44.31
778.096	44.77
778.274	45.54
778.453	45.18
778.631	46.11
778.81	45.68
778.988	45.75
779.166	45.69
779.345	46.16
779.523	45.6
779.702	46.25
779.88	46.78
780.058	46.05
780.237	45.77
780.415	45.28
780.593	44.6
780.771	45.73
780.95	46
781.128	45.78
781.306	44.62
781.484	45.1
781.662	44.59
781.841	43.61
782.019	42.9
782.197	41.91
782.375	42.06
782.553	42.26
782.731	42.04
782.909	43.42
783.087	44.22
783.265	44.48
783.443	44.63
783.621	44.05
783.799	44.83
783.977	46.68
784.155	47.21
784.333	47.18
784.511	47.51
784.689	47.79
784.867	46.28
785.045	46
785.223	45.55
785.4	44.64
785.578	44.98
785.756	44.15
785.934	43.74
786.112	43.87
786.289	43.46
786.467	42.9
786.645	43.22
786.823	43.34
787	43.55
787.178	43.9
787.356	43.65
787.533	43.57
787.711	43.06
787.889	42.29
788.066	41.99
788.244	42.15
788.421	42.73
788.599	41.94
788.776	41.67
788.954	42.34
789.131	42.82
789.309	43
789.486	42.84
789.664	43.69
789.841	44.66
790.019	44.84
790.196	45.26
790.373	42.96
790.551	43.85
790.728	44.55
790.906	43.98
791.083	44.41
791.26	44.97
791.437	44.53
791.615	44.27
791.792	44.61
791.969	45.71
792.146	46.31
792.324	48.84
792.501	48.23
792.678	48.33
792.855	48.43
793.032	48.53
793.209	47.85
793.387	49.78
793.564	50.47
793.741	50.29
793.918	49.91
794.095	49.47
794.272	48.84
794.449	49.46
794.626	50.35
794.803	49.84
794.98	49.24
795.157	49.26
795.334	48.19
795.511	46.86
795.688	46.43
795.864	45.34
796.041	44.64
796.218	44.28
796.395	42.75
796.572	40.96
796.749	40.88
796.925	40.95
797.102	41.35
797.279	41.66
797.456	42.11
797.632	42.24
797.809	42.55
797.986	44.31
798.162	45.37
798.339	46.16
798.516	47.43
798.692	48.84
798.869	48.56
799.046	47.63
799.222	48.08
799.399	48.9
799.575	48.98
799.752	50.15
799.928	48.99
800.105	47.59
800.281	48.06
800.458	47.33
800.634	45.72
800.811	46.46
800.987	48.06
801.163	46.47
801.34	46.63
801.516	46.17
801.692	45.48
801.869	45.66
802.045	46.41
802.221	46.46
802.398	46.04
802.574	46.75
802.75	45.94
802.926	45.22
803.103	46.73
803.279	46.49
803.455	47.04
803.631	46.54
803.807	48.06
803.983	48.36
804.16	48.36
804.336	48.69
804.512	48.71
804.688	49.81
804.864	50.93
805.04	51.03
805.216	50.64
805.392	50.52
805.568	51.56
805.744	51.38
805.92	52.54
806.096	52.98
806.272	53.95
806.448	54.43
806.623	54.01
806.799	52.83
806.975	51.65
807.151	51.72
807.327	51.39
807.503	50.14
807.678	49.08
807.854	48.17
808.03	48.65
808.206	49.74
808.381	49.6
808.557	50.31
808.733	51.23
808.908	51.41
809.084	52.34
809.26	51.72
809.435	52.36
809.611	51.78
809.787	52.08
809.962	50.37
810.138	48.75
810.313	48.18
810.489	48.63
810.664	48.03
810.84	48.27
811.015	47.68
811.191	47.75
811.366	48.37
811.542	48.66
811.717	47.72
811.892	48.1
812.068	48.26
812.243	49.24
812.419	48.83
812.594	49.59
812.769	50.47
812.944	50.68
813.12	52.7
813.295	51.93
813.47	51.13
813.645	52.03
813.821	51.74
813.996	52.37
814.171	52.04
814.346	50.68
814.521	50
814.697	49.9
814.872	49.28
815.047	48.5
815.222	48.52
815.397	48.69
815.572	49.28
815.747	50.96
815.922	49.9
816.097	49.37
816.272	49.83
816.447	50.84
816.622	52.16
816.797	52.46
816.972	52.82
817.147	53.39
817.322	53.38
817.496	52.11
817.671	51.89
817.846	51.93
818.021	52.62
818.196	52.97
818.371	52.28
818.545	50.48
818.72	50.01
818.895	48.46
819.069	47.32
819.244	47.82
819.419	47.83
819.594	47.31
819.768	46.9
819.943	44.09
820.117	42.29
820.292	40.16
820.467	39.02
820.641	37.87
820.816	36.9
820.99	35.95
821.165	34.23
821.339	32.34
821.514	31.36
821.688	30.61
821.863	30.32
822.037	29.9
822.212	30
822.386	29.66
822.56	29.3
822.735	29.01
822.909	28.69
823.084	28.84
823.258	29.09
823.432	29.19
823.606	29.32
823.781	29.48
823.955	29.67
824.129	29.72
824.303	29.95
824.478	30.39
824.652	30.85
824.826	31.1
825	31.37
825.174	31.76
825.348	31.78
825.523	32.23
825.697	32.54
825.871	32.43
826.045	32.18
826.219	32.59
826.393	32.94
826.567	32.64
826.741	32.91
826.915	32.98
827.089	33.17
827.263	33.13
827.437	32.82
827.611	33.13
827.784	33.49
827.958	34.04
828.132	33.65
828.306	33.57
828.48	33.8
828.654	33.83
828.827	34.33
829.001	34.51
829.175	35.27
829.349	36.95
829.522	37.65
829.696	38.46
829.87	39.27
830.044	41.18
830.217	42.31
830.391	43.79
830.565	45.65
830.738	46.92
830.912	48.12
831.085	49.66
831.259	48.78
831.432	49.29
831.606	50.27
831.779	50.25
831.953	48.12
832.126	47.29
832.3	45.81
832.473	44.66
832.647	43.36
832.82	41.74
832.994	40.59
833.167	41.37
833.34	39.18
833.514	37.82
833.687	36.93
833.86	36.82
834.034	36.42
834.207	36.71
834.38	36.53
834.553	36.12
834.727	37.34
834.9	37.41
835.073	36.58
835.246	37.5
835.419	38.2
835.593	38.08
835.766	38.52
835.939	39.51
836.112	40.18
836.285	41.46
836.458	42.58
836.631	42.88
836.804	43.33
836.977	43.64
837.15	45.65
837.323	47.2
837.496	50.37
837.669	53.86
837.842	55.27
838.015	57.62
838.188	56.98
838.361	58.62
838.533	58.17
838.706	58.94
838.879	59.21
839.052	57.67
839.225	58.86
839.398	56.47
839.57	53.36
839.743	51.89
839.916	51.86
840.088	52.22
840.261	51.95
840.434	54.3
840.607	54.07
840.779	53.23
840.952	54.23
841.124	50.89
841.297	53.54
841.47	54.34
841.642	55.67
841.815	55.42
841.987	55.39
842.16	56.22
842.332	53.88
842.505	55.79
842.677	57.18
842.85	58.66
843.022	63.05
843.194	64.48
843.367	67.54
843.539	68.48
843.712	67.04
843.884	68.43
844.056	69.33
844.229	71.69
844.401	71.19
844.573	73.31
844.745	75.94
844.918	74.32
845.09	70.8
845.262	69.42
845.434	70.13
845.606	73.92
845.779	74.67
845.951	73.06
846.123	73.18
846.295	70.65
846.467	72.12
846.639	72.69
846.811	73.53
846.983	75.51
847.155	77.76
847.327	76.27
847.499	74.42
847.671	76.13
847.843	76.3
848.015	76.27
848.187	80.23
848.359	80.96
848.531	76.44
848.703	72.03
848.875	72.51
849.047	72.3
849.218	76.02
849.39	78.96
849.562	78.82
849.734	78.21
849.905	79.32
850.077	79.23
850.249	79.66
850.421	83.75
850.592	90.19
850.764	91.1
850.936	91.9
851.107	89.55
851.279	87.83
851.451	86.12
851.622	87.13
851.794	86.79
851.965	86.3
852.137	82.97
852.308	81.97
852.48	81.66
852.651	80.54
852.823	80.44
852.994	81.25
853.166	81.65
853.337	81.5
853.509	84.86
853.68	85.37
853.851	83.53
854.023	84.22
854.194	87.02
854.365	87.32
854.537	89.04
854.708	91.16
854.879	86.19
855.05	84.97
855.222	86.64
855.393	85.92
855.564	87.82
855.735	86.01
855.906	90.22
856.078	85.41
856.249	84.07
856.42	82.83
856.591	80.73
856.762	80.05
856.933	84.4
857.104	83.43
857.275	81.46
857.446	80.3
857.617	86.35
857.788	85.81
857.959	86.03
858.13	86.05
858.301	88.21
858.472	89.44
858.643	96.67
858.814	94.11
858.985	96.25
859.155	101.74
859.326	98.53
859.497	96.44
859.668	93.09
859.839	97.66
860.009	97.45
860.18	92.75
860.351	91.09
860.522	88.37
860.692	85.53
860.863	83.91
861.034	84.35
861.204	88.39
861.375	86.33
861.546	86.92
861.716	83.7
861.887	86.15
862.057	88.78
862.228	89.81
862.398	91.15
862.569	91.48
862.739	95.43
862.91	87.88
863.08	84.41
863.251	85.95
863.421	88.49
863.592	84.44
863.762	84.11
863.932	78.93
864.103	77.98
864.273	79.39
864.443	83.83
864.614	81.17
864.784	78.4
864.954	80.34
865.125	81.22
865.295	81.85
865.465	85.49
865.635	82.28
865.805	87.73
865.976	89.23
866.146	84.25
866.316	76.19
866.486	77.64
866.656	87.24
866.826	88.11
866.996	86.62
867.166	86.31
867.336	88.37
867.506	91.29
867.676	88.18
867.846	84.8
868.016	90.87
868.186	94.07
868.356	94.54
868.526	91.6
868.696	85.42
868.866	84.79
869.036	85.76
869.206	86.36
869.376	86.6
869.545	87.48
869.715	91.69
869.885	92.99
870.055	96.16
870.224	94.15
870.394	92.91
870.564	99.49
870.734	101.2
870.903	98.28
871.073	97.89
871.243	94.82
871.412	94.52
871.582	96.04
871.751	91.15
871.921	91.11
872.091	89.51
872.26	90.45
872.43	87.86
872.599	81.31
872.769	83.36
872.938	81.5
873.108	78.85
873.277	79.29
873.446	75.76
873.616	73.41
873.785	74.12
873.955	75.37
874.124	77.87
874.293	77.94
874.463	80.05
874.632	78.99
874.801	78.26
874.971	82.7
875.14	84.9
875.309	84.38
875.478	84.85
875.647	77.72
875.817	80.23
875.986	76.76
876.155	78.39
876.324	78.61
876.493	81.04
876.662	83.68
876.831	83.92
877	83.18
877.17	83.16
877.339	85.94
877.508	87.32
877.677	87.49
877.846	83.37
878.015	80.78
878.184	81.52
878.352	78.79
878.521	78.04
878.69	73.74
878.859	69.84
879.028	68.86
879.197	68.31
879.366	64.82
879.534	59.21
879.703	56.24
879.872	55.13
880.041	52.17
880.21	50.9
880.378	47.29
880.547	46.11
880.716	44.62
880.884	42.23
881.053	40.43
881.222	40.14
881.39	39.5
881.559	39.32
881.727	38.3
881.896	37.25
882.065	36.17
882.233	36.1
882.402	35.94
882.57	35.77
882.739	35.61
882.907	35.18
883.076	34.73
883.244	35.1
883.412	35.61
883.581	36.36
883.749	37.25
883.918	38.02
884.086	38.81
884.254	39.2
884.423	40.63
884.591	42.46
884.759	44.19
884.927	45.57
885.096	47.31
885.264	49.99
885.432	51.25
885.6	51.83
885.769	54.32
885.937	55.24
886.105	57.82
886.273	59.33
886.441	60.31
886.609	62.31
886.777	67.08
886.945	67.06
887.113	67.71
887.281	67.17
887.449	70.46
887.617	73.23
887.785	76.21
887.953	80.72
888.121	77.54
888.289	83.76
888.457	81.16
888.625	78.83
888.793	84.1
888.961	81.81
889.129	83.36
889.296	86.99
889.464	84.67
889.632	84.47
889.8	78.66
889.967	87.82
890.135	80.81
