Data from 2938819__Reflection_01.txt Node
Date: Thu Mar 12 14:42:21 EDT 2015
User: robert
Spectrometer: USB4E03002
Autoset integration time: false
Trigger mode: 4
Integration Time (sec): 1.000000E-1
Scans to average: 10
Electric dark correction enabled: false
Nonlinearity correction enabled: false
Boxcar width: 5
Stray light correction enabled: false
XAxis mode: Wavelengths
Stop averaging: false
Number of Pixels in Spectrum: 3648
>>>>>Begin Spectral Data<<<<<
177.575	-176.64
177.794	-188.17
178.014	-106.93
178.233	-90.68
178.452	-87.38
178.672	-107.81
178.891	-85.58
179.11	-150.47
179.33	-170.91
179.549	-215.16
179.768	-263.71
179.987	-236.36
180.207	-291.7
180.426	-518.38
180.645	-1324.06
180.864	-1725.24
181.084	-4224.39
181.303	1387.1
181.522	14790.91
181.741	-4063.16
181.96	-967.31
182.179	-2291.3
182.398	-5580
182.618	-4375
182.837	3377.5
183.056	1095.65
183.275	457.64
183.494	565.52
183.713	570.42
183.932	351.49
184.151	337.6
184.37	292.08
184.589	342.97
184.808	381.08
185.027	381.51
185.246	360.35
185.465	582.48
185.684	778.54
185.903	461.4
186.122	454.41
186.341	651.84
186.56	562.18
186.779	660.98
186.998	526.25
187.216	394.28
187.435	430.42
187.654	490.44
187.873	381.15
188.092	368.51
188.311	472.73
188.53	426.61
188.748	358
188.967	539.29
189.186	286.97
189.405	362.11
189.623	487.92
189.842	475.61
190.061	644.66
190.28	621.33
190.498	472.76
190.717	436.13
190.936	655.71
191.154	615.72
191.373	283.2
191.592	376.12
191.81	315.06
192.029	359.32
192.248	383.04
192.466	306.82
192.685	372.07
192.904	384.03
193.122	524.58
193.341	516.19
193.559	583.03
193.778	1698.92
193.996	-1337.17
194.215	-809.77
194.433	-7935.29
194.652	601.31
194.87	1556.32
195.089	937.09
195.307	1355.96
195.526	1246.55
195.744	1160.15
195.963	1542.57
196.181	839.59
196.399	747.26
196.618	1569.72
196.836	3180
197.055	-1397.04
197.273	4018.75
197.491	3396.55
197.71	5923.33
197.928	4185.37
198.146	2714.75
198.365	665.06
198.583	649.6
198.801	436.49
199.019	485.81
199.238	549.25
199.456	324.14
199.674	539.76
199.892	591.19
200.111	649.7
200.329	609.41
200.547	610.95
200.765	-47400
200.983	3057.89
201.202	-6822.22
201.42	9407.14
201.638	1262.26
201.856	11208.33
202.074	-9133.33
202.292	2391.18
202.51	3787.76
202.728	1038.17
202.946	1374.31
203.165	703.04
203.383	796.76
203.601	580.29
203.819	413.52
204.037	596.02
204.255	686.25
204.473	816.12
204.691	1891.58
204.909	1248.23
205.127	1694
205.345	1176.39
205.562	-19500
205.78	1124.22
205.998	627.71
206.216	519.43
206.434	317.13
206.652	285.94
206.87	233.98
207.088	215.46
207.306	184.42
207.523	203.26
207.741	187.6
207.959	191.2
208.177	205.42
208.395	245.11
208.612	256.04
208.83	309.5
209.048	361.08
209.266	261.82
209.483	287.66
209.701	305.41
209.919	279.24
210.136	286.51
210.354	289.27
210.572	282.85
210.79	255.1
211.007	271.78
211.225	240.17
211.442	220.31
211.66	243.98
211.878	200.36
212.095	99.89
212.313	71.4
212.53	86.18
212.748	87.93
212.966	104.03
213.183	104.61
213.401	102.2
213.618	113
213.836	122.41
214.053	146.69
214.271	159.4
214.488	312.16
214.705	369.95
214.923	326.18
215.14	374.14
215.358	363.74
215.575	350.66
215.793	455.37
216.01	358.42
216.227	465.12
216.445	370.11
216.662	309.74
216.879	251.43
217.097	266.49
217.314	272.81
217.531	217.82
217.749	276.12
217.966	244.33
218.183	212.76
218.4	210.7
218.618	180.13
218.835	174.89
219.052	154.42
219.269	152.83
219.487	149.27
219.704	142.69
219.921	136.9
220.138	108.39
220.355	119.5
220.572	118.53
220.79	115.07
221.007	106.67
221.224	100
221.441	107.78
221.658	109.52
221.875	100
222.092	88.2
222.309	91.27
222.526	91.41
222.743	82.01
222.96	75.65
223.177	78.84
223.394	76.76
223.611	80.83
223.828	74.7
224.045	70.92
224.262	72.38
224.479	78.06
224.696	69.8
224.913	67.68
225.13	65.75
225.347	64.49
225.564	61.37
225.781	54.5
225.997	50.12
226.214	44.6
226.431	40.35
226.648	33.35
226.865	26.56
227.082	24.07
227.298	21.36
227.515	18.38
227.732	17.18
227.949	16.13
228.165	14.75
228.382	13.41
228.599	12.95
228.816	12.31
229.032	12.59
229.249	12.26
229.466	11.59
229.682	11.66
229.899	12.24
230.116	11.66
230.332	11.38
230.549	12.45
230.765	12.61
230.982	12.54
231.199	12.35
231.415	12.69
231.632	14.42
231.848	15.51
232.065	15.58
232.281	15.35
232.498	17.18
232.714	17.08
232.931	17.19
233.147	16.04
233.364	16
233.58	16.83
233.797	17.61
234.013	19.24
234.23	19.03
234.446	18.4
234.662	18.58
234.879	18.18
235.095	20.63
235.312	20.36
235.528	22.91
235.744	24.56
235.961	26.48
236.177	26.15
236.393	25.38
236.61	26
236.826	26.19
237.042	26.02
237.258	26.25
237.475	26.12
237.691	27.57
237.907	25.52
238.123	25.85
238.339	24.28
238.556	24.74
238.772	23.92
238.988	23.4
239.204	23.98
239.42	23.27
239.636	22.76
239.853	19.99
240.069	17.98
240.285	17.97
240.501	16.58
240.717	15.9
240.933	14.51
241.149	14.09
241.365	13.8
241.581	13.04
241.797	12.79
242.013	11.72
242.229	11.29
242.445	11.49
242.661	11.14
242.877	10.69
243.093	10.49
243.309	11.2
243.525	10.67
243.741	10.54
243.957	11.58
244.173	11.4
244.388	12.13
244.604	12.49
244.82	11.95
245.036	11.77
245.252	12
245.468	11.12
245.683	9.9
245.899	9.55
246.115	8.92
246.331	7.93
246.547	7.83
246.762	7.41
246.978	7.3
247.194	7.12
247.409	7.07
247.625	6.87
247.841	7.26
248.057	7.29
248.272	7.49
248.488	7.8
248.703	7.64
248.919	7.8
249.135	7.8
249.35	7.95
249.566	8.64
249.782	8.53
249.997	9.04
250.213	8.94
250.428	8.92
250.644	9.05
250.859	8.79
251.075	9.18
251.29	9.07
251.506	9.5
251.721	9.73
251.937	9.54
252.152	10.63
252.368	10.68
252.583	10.15
252.798	10.77
253.014	10.26
253.229	10.79
253.445	11.33
253.66	11.47
253.875	12.25
254.091	12.82
254.306	12.61
254.521	12.06
254.737	11.87
254.952	11.71
255.167	11.37
255.383	11.83
255.598	11.99
255.813	11.55
256.028	11.92
256.244	11.49
256.459	10.92
256.674	10.67
256.889	11.16
257.104	11.24
257.32	11.55
257.535	10.7
257.75	10.98
257.965	10.26
258.18	9.89
258.395	8.9
258.61	8.26
258.826	7.39
259.041	6.9
259.256	6.43
259.471	6
259.686	5.78
259.901	5.68
260.116	5.18
260.331	5.08
260.546	4.94
260.761	4.83
260.976	4.82
261.191	5.24
261.406	5.81
261.621	5.73
261.836	5.83
262.05	5.99
262.265	6.79
262.48	7.47
262.695	7.62
262.91	7.95
263.125	8.39
263.34	8.48
263.555	8.25
263.769	7.81
263.984	7.28
264.199	8.1
264.414	8.42
264.629	8.2
264.843	7.79
265.058	7.63
265.273	8.06
265.488	8.74
265.702	8.57
265.917	8.18
266.132	8.61
266.346	9.27
266.561	8.97
266.776	8.5
266.99	7.96
267.205	8.25
267.42	8.43
267.634	8.33
267.849	7.66
268.063	7.91
268.278	8.65
268.492	8.56
268.707	7.97
268.922	7.88
269.136	7.77
269.351	8.05
269.565	7.86
269.78	7.81
269.994	7.29
270.209	7.15
270.423	6.86
270.637	6.49
270.852	6.55
271.066	6.86
271.281	6.35
271.495	6.38
271.709	6.2
271.924	5.86
272.138	5.98
272.353	6.14
272.567	6.6
272.781	6.86
272.996	6.75
273.21	6.49
273.424	6.76
273.638	7.46
273.853	7.45
274.067	7.27
274.281	7.67
274.495	7.46
274.71	7.59
274.924	7.27
275.138	6.96
275.352	6.89
275.566	6.97
275.781	7.21
275.995	7.02
276.209	7.42
276.423	7.72
276.637	7.74
276.851	7.92
277.065	7.72
277.279	7.74
277.493	7.8
277.707	7.74
277.921	7.87
278.135	7.35
278.349	6.97
278.563	6.69
278.777	6.59
278.991	6.1
279.205	6.24
279.419	5.96
279.633	5.93
279.847	6.43
280.061	6.39
280.275	6.33
280.489	6.21
280.703	6.27
280.917	6.47
281.131	6.22
281.344	6.34
281.558	6.04
281.772	6.15
281.986	5.83
282.2	5.09
282.414	5.43
282.627	5.03
282.841	5.16
283.055	5.33
283.269	5.13
283.482	5.37
283.696	5.53
283.91	5.33
284.123	5.36
284.337	5.29
284.551	5.44
284.764	5.04
284.978	5.4
285.192	5.33
285.405	5.16
285.619	5.26
285.833	5
286.046	4.71
286.26	4.97
286.473	4.73
286.687	4.79
286.9	4.96
287.114	5.28
287.327	5.19
287.541	4.97
287.754	5.22
287.968	5.08
288.181	4.97
288.395	5.4
288.608	5.22
288.822	5.43
289.035	5.75
289.248	5.87
289.462	5.67
289.675	5.66
289.889	5.91
290.102	5.53
290.315	5.69
290.529	5.92
290.742	5.85
290.955	5.99
291.169	6.3
291.382	6.08
291.595	6.07
291.808	6.21
292.022	6.33
292.235	6.29
292.448	6.55
292.661	6.64
292.875	6.92
293.088	7.24
293.301	7.35
293.514	7.16
293.727	7.69
293.94	7.68
294.153	7.84
294.367	7.87
294.58	8.21
294.793	8.19
295.006	8.08
295.219	7.89
295.432	7.89
295.645	7.7
295.858	7.91
296.071	7.72
296.284	7.83
296.497	7.54
296.71	7.35
296.923	7.32
297.136	7.24
297.349	7.36
297.562	7.66
297.775	7.57
297.988	7.64
298.201	7.35
298.414	7.58
298.626	7.44
298.839	7.86
299.052	8.12
299.265	7.7
299.478	7.72
299.691	7.76
299.903	7.92
300.116	8.02
300.329	8.27
300.542	8.37
300.755	8.49
300.967	8.53
301.18	8.56
301.393	8.65
301.605	8.93
301.818	9.3
302.031	9.49
302.243	9.15
302.456	9.29
302.669	9.05
302.881	9.16
303.094	9.33
303.307	9.35
303.519	9.32
303.732	9.54
303.944	9.82
304.157	9.77
304.37	9.89
304.582	10.19
304.795	9.88
305.007	10.2
305.22	10.51
305.432	10.08
305.645	10.34
305.857	10.35
306.069	10.24
306.282	10.15
306.494	10.36
306.707	10.26
306.919	10.31
307.132	10.58
307.344	10.68
307.556	10.74
307.769	10.71
307.981	10.69
308.193	10.38
308.406	10.28
308.618	10.27
308.83	10.14
309.043	10.29
309.255	10.07
309.467	10.03
309.679	10.13
309.892	9.93
310.104	10.3
310.316	10.59
310.528	10.99
310.74	11.11
310.953	11.13
311.165	11.27
311.377	10.89
311.589	11.06
311.801	11.26
312.013	11.01
312.225	11.31
312.437	11.25
312.649	10.9
312.862	10.81
313.074	10.81
313.286	11.19
313.498	11.39
313.71	11.72
313.922	11.76
314.134	11.37
314.346	11.15
314.558	11.22
314.77	11.45
314.982	11.88
315.193	12.06
315.405	12.17
315.617	11.72
315.829	11.33
316.041	11.53
316.253	11.84
316.465	12.05
316.677	13.05
316.888	13.05
317.1	12.91
317.312	12.75
317.524	12.77
317.736	13.06
317.947	13.83
318.159	14.62
318.371	15.04
318.583	15.25
318.794	15.77
319.006	15.46
319.218	15.66
319.43	15.61
319.641	15.71
319.853	15.96
320.064	15.92
320.276	15.73
320.488	15.3
320.699	15.09
320.911	14.68
321.123	14.48
321.334	14.58
321.546	14.61
321.757	14.38
321.969	15
322.18	14.75
322.392	14.63
322.603	14.75
322.815	14.82
323.026	15.01
323.238	15.25
323.449	15.48
323.661	15.79
323.872	15.75
324.083	16.53
324.295	16.17
324.506	16.21
324.718	16.76
324.929	17.21
325.14	17.58
325.352	17.59
325.563	17.49
325.774	17.8
325.986	17.96
326.197	18.24
326.408	18.45
326.62	18.77
326.831	19.19
327.042	18.99
327.253	18.93
327.464	19.28
327.676	19.5
327.887	20.01
328.098	20.03
328.309	20.34
328.52	20.75
328.732	21.09
328.943	21.32
329.154	21.9
329.365	22.41
329.576	22.47
329.787	22.53
329.998	23.08
330.209	23.41
330.42	23.94
330.631	24.24
330.842	24.5
331.053	24.74
331.264	25.09
331.475	25.19
331.686	25.45
331.897	25.71
332.108	26.24
332.319	26.55
332.53	26.6
332.741	26.64
332.952	26.68
333.163	26.86
333.374	26.94
333.585	26.91
333.795	27.02
334.006	27.15
334.217	27.42
334.428	27
334.639	26.73
334.849	26.81
335.06	26.93
335.271	26.96
335.482	26.95
335.692	27.13
335.903	27.62
336.114	27.62
336.325	27.87
336.535	27.84
336.746	28.24
336.957	28.52
337.167	28.79
337.378	29.01
337.589	29.2
337.799	29.23
338.01	29.19
338.22	28.94
338.431	29.12
338.642	29.11
338.852	29.06
339.063	28.98
339.273	29.16
339.484	29.2
339.694	28.81
339.905	28.47
340.115	28.24
340.326	27.95
340.536	27.83
340.746	27.64
340.957	27.31
341.167	27.43
341.378	27.52
341.588	27.24
341.799	27.17
342.009	27.58
342.219	27.68
342.43	27.85
342.64	27.99
342.85	27.88
343.061	27.69
343.271	27.81
343.481	27.47
343.691	27.12
343.902	27.08
344.112	27
344.322	26.52
344.532	26.44
344.743	26.51
344.953	26.19
345.163	26.34
345.373	26.29
345.583	26.31
345.793	26.75
346.004	26.98
346.214	26.97
346.424	26.92
346.634	27.22
346.844	27.5
347.054	27.27
347.264	27.4
347.474	27.17
347.684	27.34
347.894	27.2
348.104	27.09
348.314	27.13
348.524	27.1
348.734	27.42
348.944	27.36
349.154	27.43
349.364	27.31
349.574	27.16
349.784	27.41
349.994	27.27
350.204	27.25
350.413	26.86
350.623	26.72
350.833	26.44
351.043	26.24
351.253	26.26
351.463	25.83
351.672	26.03
351.882	26.26
352.092	26.08
352.302	26.17
352.511	25.86
352.721	26.02
352.931	26.06
353.141	25.91
353.35	25.63
353.56	25.76
353.77	26.12
353.979	25.66
354.189	25.66
354.399	25.74
354.608	25.87
354.818	26.03
355.027	26.18
355.237	26.13
355.447	26.44
355.656	26.5
355.866	26.14
356.075	25.72
356.285	26.17
356.494	25.94
356.704	25.81
356.913	25.47
357.123	25.32
357.332	25.04
357.542	24.9
357.751	24.87
357.96	24.76
358.17	24.65
358.379	24.79
358.589	24.73
358.798	24.7
359.007	24.86
359.217	24.86
359.426	25.04
359.635	24.94
359.845	24.86
360.054	24.83
360.263	24.9
360.472	24.92
360.682	24.87
360.891	24.73
361.1	24.51
361.309	24.24
361.519	24.42
361.728	24.28
361.937	24.19
362.146	24.16
362.355	24.05
362.564	23.82
362.774	23.74
362.983	23.59
363.192	23.42
363.401	23.55
363.61	23.58
363.819	23.37
364.028	23.45
364.237	23.49
364.446	23.5
364.655	23.45
364.864	23.77
365.073	23.94
365.282	23.82
365.491	23.77
365.7	23.94
365.909	23.79
366.118	23.85
366.327	23.9
366.536	23.84
366.745	23.79
366.954	24.01
367.162	23.94
367.371	23.94
367.58	24.29
367.789	24.33
367.998	24.05
368.207	24.12
368.415	24.18
368.624	24.31
368.833	24.47
369.042	24.49
369.25	24.41
369.459	24.22
369.668	23.89
369.877	23.65
370.085	23.54
370.294	23.66
370.503	23.47
370.711	23.32
370.92	22.89
371.129	22.97
371.337	22.85
371.546	22.65
371.754	22.59
371.963	22.21
372.171	21.84
372.38	21.84
372.589	21.78
372.797	22.03
373.006	21.82
373.214	21.77
373.423	21.48
373.631	21.73
373.84	21.7
374.048	21.4
374.256	21.61
374.465	21.84
374.673	21.92
374.882	21.82
375.09	21.52
375.298	21.64
375.507	21.53
375.715	21.59
375.923	21.24
376.132	21.14
376.34	21.35
376.548	21.59
376.757	21.6
376.965	21.52
377.173	21.32
377.381	21.27
377.59	20.97
377.798	21.03
378.006	20.75
378.214	20.91
378.423	20.79
378.631	20.69
378.839	20.25
379.047	20.17
379.255	20.21
379.463	20.39
379.671	20.31
379.879	20.41
380.088	20.36
380.296	20.57
380.504	20.52
380.712	20.62
380.92	20.52
381.128	20.68
381.336	20.54
381.544	20.26
381.752	20.04
381.96	20.13
382.168	20.03
382.376	20.11
382.584	20.07
382.791	19.75
382.999	19.63
383.207	19.61
383.415	19.54
383.623	19.44
383.831	19.51
384.039	19.47
384.247	19.47
384.454	19.37
384.662	19.15
384.87	18.9
385.078	19.01
385.285	18.81
385.493	18.77
385.701	18.78
385.909	18.64
386.116	18.52
386.324	18.44
386.532	18.16
386.739	18.28
386.947	18.19
387.155	18.08
387.362	18.12
387.57	17.93
387.778	17.93
387.985	17.85
388.193	17.99
388.4	17.98
388.608	18.14
388.816	18.36
389.023	18.26
389.231	18.05
389.438	18.25
389.646	18.19
389.853	18.33
390.061	18.07
390.268	17.98
390.475	17.93
390.683	17.87
390.89	17.63
391.098	17.56
391.305	17.45
391.512	17.54
391.72	17.38
391.927	17.07
392.135	16.94
392.342	17.04
392.549	17.21
392.756	17.05
392.964	17.07
393.171	17.2
393.378	17.11
393.586	17.17
393.793	17.02
394	17.06
394.207	17.13
394.414	17.16
394.622	17.1
394.829	16.89
395.036	16.94
395.243	16.99
395.45	16.64
395.657	16.61
395.864	16.68
396.072	16.93
396.279	16.8
396.486	16.77
396.693	16.84
396.9	16.67
397.107	16.57
397.314	16.55
397.521	16.48
397.728	16.73
397.935	16.63
398.142	16.55
398.349	16.39
398.556	16.38
398.763	16.32
398.97	16.28
399.177	16.42
399.383	16.58
399.59	16.43
399.797	16.32
400.004	16.36
400.211	16.51
400.418	16.34
400.625	16.44
400.831	16.42
401.038	16.36
401.245	16.39
401.452	16.42
401.658	16.14
401.865	16.31
402.072	16.52
402.279	16.49
402.485	16.31
402.692	16.37
402.899	16.17
403.105	16.14
403.312	16.23
403.519	16.11
403.725	16.1
403.932	16.05
404.138	15.95
404.345	15.78
404.552	15.5
404.758	15.51
404.965	15.47
405.171	15.42
405.378	15.48
405.584	15.54
405.791	15.65
405.997	15.57
406.204	15.75
406.41	15.63
406.617	15.58
406.823	15.75
407.029	15.87
407.236	15.82
407.442	16.05
407.649	16.08
407.855	15.97
408.061	15.75
408.268	15.65
408.474	15.57
408.68	15.68
408.887	15.78
409.093	15.78
409.299	15.64
409.505	15.54
409.712	15.51
409.918	15.37
410.124	15.4
410.33	15.58
410.537	15.66
410.743	15.67
410.949	15.67
411.155	15.56
411.361	15.46
411.567	15.39
411.773	15.4
411.98	15.14
412.186	15.19
412.392	15.08
412.598	14.9
412.804	14.91
413.01	14.83
413.216	14.71
413.422	14.51
413.628	14.72
413.834	14.9
414.04	14.96
414.246	15.17
414.452	15.3
414.658	15.31
414.864	15.44
415.07	15.52
415.275	15.55
415.481	15.6
415.687	15.57
415.893	15.45
416.099	15.32
416.305	15.24
416.511	15.14
416.716	14.99
416.922	14.99
417.128	14.85
417.334	14.62
417.539	14.55
417.745	14.48
417.951	14.53
418.157	14.56
418.362	14.35
418.568	14.27
418.774	14.22
418.979	14.07
419.185	14
419.391	13.94
419.596	14.03
419.802	14.08
420.008	14.05
420.213	14.09
420.419	14.01
420.624	14.1
420.83	14.08
421.035	14.07
421.241	14.17
421.446	14.17
421.652	14.22
421.857	14.22
422.063	14.19
422.268	14.23
422.474	14.1
422.679	14.1
422.885	14.06
423.09	14.05
423.295	14
423.501	13.95
423.706	13.92
423.911	13.84
424.117	13.78
424.322	13.78
424.527	13.75
424.733	13.85
424.938	13.8
425.143	13.82
425.349	13.88
425.554	13.9
425.759	13.95
425.964	13.98
426.169	14.09
426.375	14.03
426.58	14.07
426.785	14.1
426.99	14.09
427.195	14.23
427.4	14.27
427.605	14.22
427.811	14.19
428.016	14.21
428.221	14.33
428.426	14.3
428.631	14.34
428.836	14.36
429.041	14.41
429.246	14.47
429.451	14.42
429.656	14.33
429.861	14.41
430.066	14.54
430.271	14.54
430.476	14.49
430.681	14.49
430.886	14.56
431.09	14.55
431.295	14.46
431.5	14.35
431.705	14.34
431.91	14.37
432.115	14.42
432.32	14.38
432.524	14.36
432.729	14.35
432.934	14.3
433.139	14.3
433.343	14.19
433.548	14.12
433.753	14.2
433.958	14.14
434.162	14.28
434.367	14.26
434.572	14.37
434.776	14.43
434.981	14.33
435.186	14.45
435.39	14.38
435.595	14.49
435.799	14.5
436.004	14.41
436.209	14.51
436.413	14.41
436.618	14.31
436.822	14.2
437.027	14.1
437.231	14.13
437.436	14.02
437.64	14.05
437.845	13.97
438.049	14.1
438.253	14.1
438.458	14.06
438.662	14.08
438.867	14.09
439.071	14.05
439.275	14.09
439.48	14.06
439.684	14.08
439.888	14.13
440.093	14.1
440.297	14.07
440.501	14.16
440.706	14.13
440.91	14.11
441.114	14.07
441.318	14.14
441.523	14.15
441.727	14.25
441.931	14.26
442.135	14.2
442.339	14.25
442.543	14.21
442.748	14.12
442.952	14.19
443.156	14.3
443.36	14.4
443.564	14.35
443.768	14.24
443.972	14.07
444.176	14.13
444.38	14.16
444.584	14.2
444.788	14.24
444.992	14.35
445.196	14.27
445.4	14.18
445.604	14.14
445.808	14.12
446.012	14.11
446.216	14.09
446.42	14.02
446.624	13.95
446.828	13.86
447.032	13.82
447.235	13.82
447.439	13.85
447.643	13.84
447.847	13.73
448.051	13.7
448.254	13.75
448.458	13.88
448.662	13.94
448.866	13.94
449.069	13.98
449.273	14.03
449.477	13.91
449.681	13.88
449.884	13.89
450.088	13.94
450.292	14.05
450.495	13.97
450.699	14.06
450.902	13.96
451.106	14.02
451.31	13.99
451.513	13.99
451.717	14
451.92	13.94
452.124	14.04
452.327	14.22
452.531	14.21
452.734	14.24
452.938	14.16
453.141	14.24
453.345	14.26
453.548	14.42
453.752	14.48
453.955	14.51
454.158	14.55
454.362	14.49
454.565	14.4
454.769	14.49
454.972	14.62
455.175	14.66
455.379	14.77
455.582	14.71
455.785	14.58
455.988	14.45
456.192	14.36
456.395	14.45
456.598	14.45
456.801	14.47
457.005	14.31
457.208	14.22
457.411	14.14
457.614	14
457.817	14.15
458.021	14.08
458.224	14.19
458.427	14.19
458.63	14.14
458.833	14.14
459.036	14.09
459.239	14.1
459.442	14.1
459.645	14.08
459.848	14.03
460.051	13.99
460.254	14.05
460.457	13.95
460.66	13.94
460.863	13.96
461.066	13.96
461.269	14
461.472	14.05
461.675	14.1
461.878	14.06
462.081	14.13
462.284	14.13
462.486	14.1
462.689	14.16
462.892	14.19
463.095	14.26
463.298	14.17
463.5	14.27
463.703	14.26
463.906	14.31
464.109	14.52
464.311	14.62
464.514	14.65
464.717	14.73
464.92	14.74
465.122	14.88
465.325	14.88
465.528	14.94
465.73	14.93
465.933	14.89
466.135	14.78
466.338	14.71
466.541	14.63
466.743	14.62
466.946	14.68
467.148	14.75
467.351	14.65
467.553	14.69
467.756	14.69
467.958	14.58
468.161	14.64
468.363	14.69
468.566	14.75
468.768	14.83
468.971	14.78
469.173	14.74
469.375	14.76
469.578	14.87
469.78	14.83
469.983	14.93
470.185	15.05
470.387	15.08
470.59	15.02
470.792	15.01
470.994	15.01
471.196	15.01
471.399	15.01
471.601	15.03
471.803	14.97
472.005	15.08
472.208	15.04
472.41	15
472.612	14.99
472.814	15.02
473.016	14.98
473.218	14.96
473.421	15.03
473.623	15
473.825	14.97
474.027	14.99
474.229	14.88
474.431	14.89
474.633	15.01
474.835	14.99
475.037	14.98
475.239	15.05
475.441	15.06
475.643	15.05
475.845	15.14
476.047	15.11
476.249	15.03
476.451	15.01
476.653	14.88
476.855	14.82
477.057	14.77
477.258	14.71
477.46	14.65
477.662	14.64
477.864	14.72
478.066	14.63
478.268	14.63
478.469	14.65
478.671	14.64
478.873	14.72
479.075	14.64
479.276	14.62
479.478	14.69
479.68	14.78
479.882	14.71
480.083	14.6
480.285	14.56
480.487	14.52
480.688	14.55
480.89	14.51
481.091	14.54
481.293	14.53
481.495	14.59
481.696	14.52
481.898	14.38
482.099	14.35
482.301	14.24
482.502	14.18
482.704	14.12
482.905	14.09
483.107	14.04
483.308	13.97
483.51	13.92
483.711	13.88
483.913	13.84
484.114	13.82
484.315	13.82
484.517	13.85
484.718	13.89
484.92	13.9
485.121	13.88
485.322	13.88
485.524	13.91
485.725	13.95
485.926	13.95
486.127	14.01
486.329	14.06
486.53	14.05
486.731	14.05
486.932	14.07
487.134	14.07
487.335	14.11
487.536	14.12
487.737	14.09
487.938	14.13
488.139	14.14
488.341	14.17
488.542	14.16
488.743	14.18
488.944	14.18
489.145	14.17
489.346	14.21
489.547	14.23
489.748	14.23
489.949	14.33
490.15	14.32
490.351	14.37
490.552	14.35
490.753	14.36
490.954	14.36
491.155	14.35
491.356	14.37
491.557	14.36
491.758	14.37
491.959	14.42
492.159	14.4
492.36	14.4
492.561	14.4
492.762	14.44
492.963	14.51
493.164	14.59
493.364	14.71
493.565	14.74
493.766	14.79
493.967	14.75
494.167	14.79
494.368	14.86
494.569	14.95
494.769	15.02
494.97	15.07
495.171	15.12
495.371	15.14
495.572	15.2
495.773	15.26
495.973	15.31
496.174	15.45
496.375	15.48
496.575	15.43
496.776	15.48
496.976	15.44
497.177	15.45
497.377	15.42
497.578	15.47
497.778	15.51
497.979	15.59
498.179	15.59
498.38	15.56
498.58	15.55
498.78	15.7
498.981	15.69
499.181	15.85
499.382	15.85
499.582	15.92
499.782	15.95
499.983	15.98
500.183	16.03
500.383	16.19
500.584	16.28
500.784	16.31
500.984	16.42
501.184	16.52
501.385	16.55
501.585	16.68
501.785	16.75
501.985	16.79
502.185	16.74
502.386	16.78
502.586	16.81
502.786	16.88
502.986	17.02
503.186	17.02
503.386	17.03
503.586	17.12
503.786	17.15
503.987	17.16
504.187	17.25
504.387	17.36
504.587	17.38
504.787	17.52
504.987	17.71
505.187	17.79
505.387	17.79
505.587	17.94
505.786	17.91
505.986	18
506.186	18.13
506.386	18.19
506.586	18.23
506.786	18.33
506.986	18.41
507.186	18.42
507.386	18.58
507.585	18.74
507.785	18.77
507.985	18.93
508.185	19.01
508.384	19.1
508.584	19.18
508.784	19.25
508.984	19.29
509.183	19.32
509.383	19.45
509.583	19.51
509.782	19.61
509.982	19.64
510.182	19.78
510.381	19.86
510.581	20
510.781	20.14
510.98	20.29
511.18	20.47
511.379	20.54
511.579	20.54
511.778	20.68
511.978	20.78
512.177	21.04
512.377	21.09
512.576	21.2
512.776	21.21
512.975	21.34
513.175	21.46
513.374	21.55
513.573	21.69
513.773	21.83
513.972	21.91
514.172	21.97
514.371	22
514.57	22.1
514.77	22.2
514.969	22.38
515.168	22.58
515.367	22.73
515.567	22.8
515.766	22.9
515.965	23.13
516.164	23.31
516.364	23.47
516.563	23.61
516.762	23.72
516.961	23.87
517.16	24.03
517.359	24.08
517.559	24.12
517.758	24.28
517.957	24.37
518.156	24.4
518.355	24.43
518.554	24.55
518.753	24.58
518.952	24.67
519.151	24.72
519.35	24.77
519.549	24.87
519.748	25.06
519.947	25.14
520.146	25.28
520.345	25.38
520.544	25.43
520.743	25.47
520.942	25.58
521.141	25.78
521.339	25.94
521.538	26.12
521.737	26.24
521.936	26.34
522.135	26.49
522.333	26.53
522.532	26.73
522.731	26.95
522.93	27.06
523.129	27.2
523.327	27.33
523.526	27.49
523.725	27.64
523.923	27.7
524.122	27.74
524.321	27.79
524.519	27.95
524.718	27.98
524.917	28.13
525.115	28.26
525.314	28.32
525.512	28.34
525.711	28.42
525.909	28.44
526.108	28.54
526.306	28.55
526.505	28.65
526.703	28.65
526.902	28.77
527.1	28.73
527.299	28.75
527.497	28.8
527.696	28.8
527.894	28.78
528.092	28.77
528.291	28.79
528.489	28.83
528.688	28.83
528.886	28.86
529.084	28.85
529.283	28.9
529.481	28.94
529.679	28.99
529.877	29.09
530.076	29.18
530.274	29.27
530.472	29.34
530.67	29.45
530.869	29.54
531.067	29.69
531.265	29.76
531.463	29.78
531.661	29.9
531.859	29.95
532.057	30.03
532.255	30.03
532.454	30.08
532.652	30.09
532.85	30.18
533.048	30.16
533.246	30.2
533.444	30.31
533.642	30.4
533.84	30.4
534.038	30.52
534.236	30.54
534.434	30.61
534.632	30.64
534.83	30.78
535.027	30.74
535.225	30.85
535.423	30.82
535.621	30.85
535.819	30.91
536.017	31
536.215	30.99
536.412	31.08
536.61	31.16
536.808	31.21
537.006	31.24
537.203	31.38
537.401	31.46
537.599	31.58
537.797	31.61
537.994	31.67
538.192	31.66
538.39	31.8
538.587	31.8
538.785	31.88
538.983	32
539.18	32
539.378	32.05
539.575	32.08
539.773	32.09
539.97	32.13
540.168	32.19
540.366	32.18
540.563	32.15
540.761	32.15
540.958	32.1
541.155	32.05
541.353	32.08
541.55	32.09
541.748	32.13
541.945	32.19
542.143	32.22
542.34	32.18
542.537	32.27
542.735	32.32
542.932	32.36
543.129	32.45
543.327	32.52
543.524	32.64
543.721	32.65
543.919	32.69
544.116	32.73
544.313	32.8
544.51	32.88
544.708	32.93
544.905	32.97
545.102	33.05
545.299	33.1
545.496	33.19
545.693	33.18
545.891	33.29
546.088	33.3
546.285	33.28
546.482	33.35
546.679	33.42
546.876	33.42
547.073	33.44
547.27	33.44
547.467	33.46
547.664	33.45
547.861	33.45
548.058	33.49
548.255	33.61
548.452	33.63
548.649	33.55
548.846	33.6
549.043	33.62
549.24	33.62
549.437	33.68
549.633	33.77
549.83	33.82
550.027	33.82
550.224	33.78
550.421	33.73
550.618	33.81
550.814	33.91
551.011	33.92
551.208	34.02
551.405	33.98
551.601	33.97
551.798	33.94
551.995	34
552.191	34.07
552.388	34.13
552.585	34.08
552.781	34.1
552.978	34.11
553.175	34.05
553.371	33.99
553.568	34.15
553.764	34.16
553.961	34.22
554.157	34.14
554.354	34.13
554.55	34.06
554.747	34.18
554.943	34.2
555.14	34.21
555.336	34.25
555.533	34.2
555.729	34.1
555.926	34.23
556.122	34.2
556.318	34.13
556.515	34.1
556.711	34.12
556.907	34.05
557.104	34.05
557.3	34.03
557.496	34.08
557.693	34.1
557.889	34.03
558.085	34.06
558.281	34.12
558.478	34.32
558.674	34.3
558.87	34.34
559.066	34.44
559.262	34.38
559.459	34.4
559.655	34.38
559.851	34.51
560.047	34.58
560.243	34.43
560.439	34.37
560.635	34.36
560.831	34.4
561.027	34.48
561.223	34.39
561.419	34.4
561.615	34.27
561.811	34.29
562.007	34.2
562.203	34.23
562.399	34.4
562.595	34.58
562.791	34.52
562.987	34.59
563.183	34.47
563.379	34.64
563.575	34.73
563.771	34.9
563.966	34.83
564.162	35.02
564.358	35.1
564.554	34.85
564.75	34.65
564.945	34.72
565.141	34.65
565.337	34.74
565.533	34.64
565.728	34.46
565.924	34.48
566.12	34.49
566.315	34.39
566.511	34.37
566.707	34.37
566.902	34.47
567.098	34.54
567.293	34.54
567.489	34.5
567.684	34.52
567.88	34.7
568.076	34.71
568.271	34.85
568.467	34.88
568.662	34.84
568.858	34.98
569.053	35.02
569.248	34.99
569.444	35.05
569.639	35
569.835	35.05
570.03	35.03
570.225	34.95
570.421	34.78
570.616	34.75
570.812	34.84
571.007	34.8
571.202	34.64
571.397	34.63
571.593	34.6
571.788	34.71
571.983	34.67
572.178	34.67
572.374	34.69
572.569	34.76
572.764	34.85
572.959	34.71
573.154	34.76
573.35	34.89
573.545	34.9
573.74	34.91
573.935	34.91
574.13	34.93
574.325	34.98
574.52	34.97
574.715	34.99
574.91	34.95
575.105	35.03
575.3	35.07
575.495	35.03
575.69	35.1
575.885	35.22
576.08	35.19
576.275	35.14
576.47	35.14
576.665	35.17
576.86	35.25
577.055	35.35
577.25	35.37
577.444	35.37
577.639	35.6
577.834	35.74
578.029	35.74
578.224	35.85
578.418	36.05
578.613	36.2
578.808	36.38
579.003	36.31
579.197	36.23
579.392	36.31
579.587	36.44
579.781	36.38
579.976	36.14
580.171	36.12
580.365	36.17
580.56	36.17
580.755	36.18
580.949	36.16
581.144	36.39
581.338	36.45
581.533	36.65
581.727	36.68
581.922	36.64
582.116	36.76
582.311	36.83
582.505	36.97
582.7	36.96
582.894	36.88
583.089	36.98
583.283	36.92
583.478	36.92
583.672	36.8
583.866	36.76
584.061	36.82
584.255	36.85
584.449	36.95
584.644	36.68
584.838	36.71
585.032	36.7
585.226	36.66
585.421	36.66
585.615	36.83
585.809	36.93
586.003	37.09
586.198	37.2
586.392	37.11
586.586	37
586.78	37.18
586.974	37.28
587.168	37.39
587.363	37.37
587.557	37.35
587.751	37.32
587.945	37.23
588.139	37.09
588.333	36.97
588.527	37.15
588.721	37.24
588.915	37.27
589.109	37.25
589.303	37.32
589.497	37.36
589.691	37.26
589.885	37.11
590.079	37.12
590.273	37.14
590.466	37.31
590.66	37.32
590.854	37.35
591.048	37.47
591.242	37.44
591.436	37.4
591.629	37.45
591.823	37.61
592.017	37.84
592.211	38.04
592.404	38.19
592.598	38.21
592.792	38.2
592.986	38.24
593.179	38
593.373	38.02
593.567	37.94
593.76	37.88
593.954	37.92
594.147	37.87
594.341	37.62
594.535	37.55
594.728	37.55
594.922	37.49
595.115	37.34
595.309	37.54
595.502	37.54
595.696	37.64
595.889	37.76
596.083	37.76
596.276	37.74
596.47	37.89
596.663	37.89
596.856	37.85
597.05	37.9
597.243	38.02
597.437	38.14
597.63	38.09
597.823	38.12
598.017	38.17
598.21	38.24
598.403	38.32
598.596	38.49
598.79	38.57
598.983	38.67
599.176	38.67
599.369	38.66
599.563	38.55
599.756	38.6
599.949	38.64
600.142	38.57
600.335	38.56
600.528	38.46
600.722	38.27
600.915	38.28
601.108	38.34
601.301	38.36
601.494	38.33
601.687	38.36
601.88	38.58
602.073	38.51
602.266	38.5
602.459	38.51
602.652	38.64
602.845	38.62
603.038	38.6
603.231	38.48
603.424	38.45
603.617	38.47
603.809	38.41
604.002	38.37
604.195	38.48
604.388	38.6
604.581	38.61
604.774	38.62
604.966	38.79
605.159	38.92
605.352	39.02
605.545	39.23
605.737	39.4
605.93	39.55
606.123	39.77
606.316	39.86
606.508	39.75
606.701	40.02
606.894	40.07
607.086	40.11
607.279	40.15
607.471	40.34
607.664	40.37
607.857	40.51
608.049	40.71
608.242	40.8
608.434	40.95
608.627	41.29
608.819	41.45
609.012	41.86
609.204	42.29
609.397	42.68
609.589	43.03
609.782	43.49
609.974	44.13
610.166	44.57
610.359	45.19
610.551	45.66
610.743	46.18
610.936	46.61
611.128	46.99
611.32	47.21
611.513	47.43
611.705	47.39
611.897	47.5
612.09	47.15
612.282	47.09
612.474	46.83
612.666	46.63
612.858	46.37
613.051	46.05
613.243	45.88
613.435	45.76
613.627	45.56
613.819	45.63
614.011	45.5
614.203	45.54
614.395	45.25
614.588	44.89
614.78	44.52
614.972	44.11
615.164	43.94
615.356	43.63
615.548	43.31
615.74	43.12
615.932	42.87
616.124	42.51
616.315	42.31
616.507	42.18
616.699	42.11
616.891	42.16
617.083	42.29
617.275	42.19
617.467	42.14
617.659	41.99
617.85	42.06
618.042	42.18
618.234	42.33
618.426	42.22
618.618	42.15
618.809	42.02
619.001	41.92
619.193	41.98
619.384	41.82
619.576	41.89
619.768	41.96
619.959	42.08
620.151	41.86
620.343	41.66
620.534	41.67
620.726	41.68
620.917	41.89
621.109	42.23
621.301	42.02
621.492	42.35
621.684	42.56
621.875	42.48
622.067	42.13
622.258	42.09
622.45	42.32
622.641	42.36
622.832	42.61
623.024	42.64
623.215	42.4
623.407	42.61
623.598	42.67
623.789	42.35
623.981	42.51
624.172	42.74
624.363	42.81
624.555	42.84
624.746	42.75
624.937	42.6
625.129	42.35
625.32	42.29
625.511	42.21
625.702	42.07
625.893	42.17
626.085	42
626.276	41.83
626.467	41.94
626.658	42.03
626.849	42.04
627.04	41.87
627.231	42.04
627.422	42.13
627.614	42.16
627.805	42.24
627.996	42.23
628.187	42.45
628.378	42.53
628.569	42.66
628.76	42.49
628.951	42.58
629.142	43.02
629.332	43.14
629.523	43.12
629.714	43.32
629.905	43.43
630.096	43.59
630.287	43.8
630.478	43.85
630.669	43.84
630.859	44.09
631.05	44.16
631.241	43.84
631.432	43.79
631.623	43.94
631.813	43.61
632.004	43.38
632.195	43.18
632.385	42.76
632.576	42.74
632.767	42.48
632.957	42.24
633.148	41.94
633.339	42
633.529	41.92
633.72	41.94
633.91	41.98
634.101	42.11
634.292	42.16
634.482	42.14
634.673	42.11
634.863	42.18
635.054	42.36
635.244	42.54
635.435	42.72
635.625	42.89
635.815	42.69
636.006	42.74
636.196	42.69
636.387	42.42
636.577	42.69
636.767	42.72
636.958	42.86
637.148	42.78
637.338	42.94
637.529	42.77
637.719	42.58
637.909	42.73
638.099	42.75
638.29	42.73
638.48	43.06
638.67	43.14
638.86	43.2
639.05	43.17
639.241	43.35
639.431	43.13
639.621	43.19
639.811	43.33
640.001	43.18
640.191	43.12
640.381	43.18
640.571	43.04
640.761	43.07
640.951	43.14
641.141	43.03
641.331	42.81
641.521	42.98
641.711	43.08
641.901	42.82
642.091	43.07
642.281	43.14
642.471	43.26
642.661	43.29
642.851	43.19
643.041	43.13
643.231	43.3
643.42	43.42
643.61	43.37
643.8	43.33
643.99	43.64
644.18	43.55
644.369	43.71
644.559	43.69
644.749	43.87
644.939	43.81
645.128	43.77
645.318	43.58
645.508	43.61
645.697	43.48
645.887	43.66
646.076	43.94
646.266	44.06
646.456	44.05
646.645	43.95
646.835	43.72
647.024	43.77
647.214	43.94
647.403	44.36
647.593	44.47
647.782	44.68
647.972	44.56
648.161	44.24
648.351	43.94
648.54	43.97
648.73	43.86
648.919	44.16
649.108	44.05
649.298	43.9
649.487	43.64
649.677	43.48
649.866	43.47
650.055	43.46
650.244	43.44
650.434	43.79
650.623	43.57
650.812	43.71
651.002	43.81
651.191	44.03
651.38	43.99
651.569	44.14
651.758	44.01
651.947	43.99
652.137	43.87
652.326	44.07
652.515	44.01
652.704	44.17
652.893	44.14
653.082	43.89
653.271	43.91
653.46	44.15
653.649	44.12
653.838	44.31
654.027	44.54
654.216	44.61
654.405	44.36
654.594	44.21
654.783	44.32
654.972	44.41
655.161	44.54
655.35	44.26
655.539	44.25
655.728	44.07
655.916	44.21
656.105	44.03
656.294	44.09
656.483	44.02
656.672	44.05
656.86	43.92
657.049	43.88
657.238	43.95
657.427	44.13
657.615	44.07
657.804	44.14
657.993	43.66
658.181	43.73
658.37	43.58
658.559	43.7
658.747	43.79
658.936	43.78
659.125	43.65
659.313	43.58
659.502	43.54
659.69	43.46
659.879	43.44
660.067	43.82
660.256	43.83
660.444	44.1
660.633	43.99
660.821	44.07
661.01	44.36
661.198	44.49
661.387	44.5
661.575	44.46
661.763	44.63
661.952	44.76
662.14	44.88
662.328	45.05
662.517	44.99
662.705	45.41
662.893	45.3
663.082	45.07
663.27	45.16
663.458	45.22
663.646	45.4
663.834	45.43
664.023	45.46
664.211	45.35
664.399	45.26
664.587	45.36
664.775	45.4
664.963	45.4
665.152	45.45
665.34	45.44
665.528	45.33
665.716	45.31
665.904	45.33
666.092	45.38
666.28	45.24
666.468	45.18
666.656	45.16
666.844	45.08
667.032	45.34
667.22	45.24
667.408	45.15
667.596	45.44
667.784	45.49
667.971	45.57
668.159	45.44
668.347	45.55
668.535	45.37
668.723	45.24
668.911	45.12
669.098	45.05
669.286	45.15
669.474	45.47
669.662	45.41
669.849	45.38
670.037	45.39
670.225	45.39
670.413	45.4
670.6	45.89
670.788	46.08
670.976	45.69
671.163	45.78
671.351	45.68
671.538	45.51
671.726	45.48
671.913	45.59
672.101	45.39
672.289	45.52
672.476	45.27
672.664	44.81
672.851	44.81
673.039	45.36
673.226	45.25
673.413	45.49
673.601	45.63
673.788	45.6
673.976	45.51
674.163	45.59
674.35	45.27
674.538	45.59
674.725	45.83
674.912	45.84
675.1	45.63
675.287	45.62
675.474	45.67
675.662	45.56
675.849	45.64
676.036	45.42
676.223	45.15
676.411	45.36
676.598	45.09
676.785	44.95
676.972	44.97
677.159	45.13
677.346	45.27
677.533	45.08
677.721	45.31
677.908	45.11
678.095	45.01
678.282	45.1
678.469	45.17
678.656	45.28
678.843	45.37
679.03	45.34
679.217	45.28
679.404	45.16
679.591	45.29
679.778	45.19
679.964	45.3
680.151	45.56
680.338	45.62
680.525	45.57
680.712	45.51
680.899	45.5
681.086	45.46
681.272	45.62
681.459	45.54
681.646	45.42
681.833	45.51
682.02	45.44
682.206	45.47
682.393	45.48
682.58	45.23
682.766	45.32
682.953	45.41
683.14	45.34
683.326	45.44
683.513	45.62
683.7	45.77
683.886	45.56
684.073	45.7
684.259	45.87
684.446	45.94
684.632	46.39
684.819	46.64
685.005	46.51
685.192	46.67
685.378	46.41
685.565	46.23
685.751	46.33
685.938	46.68
686.124	46.74
686.31	46.39
686.497	46.21
686.683	46.23
686.87	46.18
687.056	46.36
687.242	46.28
687.429	46.19
687.615	46.56
687.801	46.44
687.987	46.1
688.174	45.75
688.36	45.86
688.546	46.04
688.732	45.92
688.918	45.78
689.105	45.68
689.291	45.79
689.477	46.11
689.663	45.82
689.849	45.9
690.035	46
690.221	46.63
690.407	46.66
690.593	46.84
690.779	47.11
690.965	46.97
691.151	46.71
691.337	46.76
691.523	46.61
691.709	46.75
691.895	46.64
692.081	46.77
692.267	46.64
692.453	46.79
692.639	46.67
692.825	46.44
693.011	47.02
693.196	47.26
693.382	47.14
693.568	47.04
693.754	47.18
693.94	47.16
694.125	46.97
694.311	47.09
694.497	47.08
694.682	47.3
694.868	47.5
695.054	47.15
695.239	47.12
695.425	47.23
695.611	47.07
695.796	46.97
695.982	47.08
696.168	47.07
696.353	46.96
696.539	46.93
696.724	46.59
696.91	46.42
697.095	46.38
697.281	46.32
697.466	46.08
697.652	46.06
697.837	45.62
698.023	45.22
698.208	45.17
698.393	44.92
698.579	44.83
698.764	44.74
698.949	44.53
699.135	44.47
699.32	44.25
699.505	44.1
699.691	44.26
699.876	44.61
700.061	44.95
700.246	45.09
700.432	45.14
700.617	45.02
700.802	45.37
700.987	45.53
701.172	45.37
701.358	46.07
701.543	46.73
701.728	46.83
701.913	47.09
702.098	47.01
702.283	46.93
702.468	46.91
702.653	47.27
702.838	47.38
703.023	47.7
703.208	48.13
703.393	47.82
703.578	47.52
703.763	47.57
703.948	47.4
704.133	47.5
704.318	47.55
704.503	47.92
704.688	48.39
704.873	48.53
705.057	48.72
705.242	48.87
705.427	49.3
705.612	49.39
705.797	49.42
705.981	49.43
706.166	49.74
706.351	50.12
706.536	50.37
706.72	50
706.905	49.78
707.09	49.82
707.274	50.08
707.459	49.81
707.644	49.92
707.828	50.26
708.013	50.69
708.197	50.56
708.382	50.43
708.567	50.25
708.751	49.98
708.936	49.68
709.12	49.84
709.305	49.52
709.489	49.72
709.673	49.52
709.858	49.46
710.042	48.94
710.227	48.82
710.411	48.94
710.596	48.67
710.78	48.87
710.964	49.06
711.149	48.93
711.333	48.77
711.517	48.76
711.702	48.85
711.886	48.41
712.07	48.56
712.254	48.79
712.438	48.47
712.623	48.66
712.807	48.54
712.991	48.57
713.175	48.36
713.359	48.45
713.544	48.22
713.728	47.99
713.912	47.72
714.096	47.62
714.28	47.42
714.464	47.37
714.648	47.37
714.832	47.11
715.016	46.7
715.2	46.21
715.384	45.98
715.568	45.37
715.752	45.24
715.936	45.47
716.12	45.18
716.304	45.36
716.488	45.24
716.671	44.76
716.855	44.96
717.039	45.25
717.223	45.39
717.407	45.49
717.59	46.1
717.774	45.88
717.958	45.91
718.142	45.97
718.325	46.09
718.509	46.35
718.693	46.54
718.877	46.45
719.06	46.52
719.244	46.86
719.428	46.95
719.611	46.91
719.795	47.3
719.978	47.6
720.162	48
720.345	47.57
720.529	47.63
720.713	47.94
720.896	47.83
721.08	47.62
721.263	47.81
721.446	47.92
721.63	48.3
721.813	48.41
721.997	48.2
722.18	47.76
722.364	47.84
722.547	47.62
722.73	47.57
722.914	47.62
723.097	47.72
723.28	47.35
723.464	47.11
723.647	46.79
723.83	46.65
724.013	46.44
724.197	47.23
724.38	47.5
724.563	47.69
724.746	47.81
724.929	48.23
725.112	48.46
725.296	48.9
725.479	48.98
725.662	48.96
725.845	49.21
726.028	49.46
726.211	49.06
726.394	49.19
726.577	48.92
726.76	49.05
726.943	48.86
727.126	48.65
727.309	48.19
727.492	48.25
727.675	48.03
727.858	47.62
728.041	47.15
728.224	46.94
728.407	46.43
728.589	46.26
728.772	45.39
728.955	45.06
729.138	44.39
729.321	44.31
729.503	44.05
729.686	44.12
729.869	44.53
730.052	44.58
730.234	44.99
730.417	45.16
730.6	44.9
730.782	45.34
730.965	45.75
731.148	46.25
731.33	46.19
731.513	46.46
731.695	46.37
731.878	45.92
732.061	45.83
732.243	45.52
732.426	45.4
732.608	45.89
732.791	46.08
732.973	45.82
733.156	45.96
733.338	45.83
733.52	45.55
733.703	45.93
733.885	46.38
734.068	46.47
734.25	46.72
734.432	46.47
734.615	46.9
734.797	46.97
734.979	46.86
735.162	46.96
735.344	47.43
735.526	47.33
735.708	47.15
735.891	47.21
736.073	47.59
736.255	47.16
736.437	47.4
736.619	46.69
736.802	45.91
736.984	46.36
737.166	46.6
737.348	46.75
737.53	47.37
737.712	47.38
737.894	47.95
738.076	47.94
738.258	48.33
738.44	48.86
738.622	48.94
738.804	49.69
738.986	49.37
739.168	49.87
739.35	49.75
739.532	49.32
739.714	49.14
739.896	48.15
740.078	48.38
740.259	48.14
740.441	47.4
740.623	47.71
740.805	47.43
740.987	47.75
741.168	47.16
741.35	46.82
741.532	47.27
741.714	47.71
741.895	47.88
742.077	46.91
742.259	46.98
742.44	47.33
742.622	47.21
742.804	47.84
742.985	48.06
743.167	47.66
743.348	48.3
743.53	48.32
743.711	48.46
743.893	49.04
744.075	49.81
744.256	50.07
744.438	50.91
744.619	51.02
744.8	50.61
744.982	50.22
745.163	50.57
745.345	50.08
745.526	50.49
745.707	50.46
745.889	49.49
746.07	49.91
746.252	50.23
746.433	49.18
746.614	49.65
746.795	49.65
746.977	49.83
747.158	49.85
747.339	50.21
747.52	49.24
747.702	48.97
747.883	50
748.064	49.38
748.245	49.05
748.426	48.54
748.607	48.28
748.788	48.14
748.97	48.43
749.151	48.12
749.332	47.92
749.513	47.58
749.694	47.66
749.875	47.63
750.056	48.17
750.237	48.6
750.418	49.53
750.599	48.96
750.78	49.67
750.96	48.95
751.141	49.58
751.322	49.69
751.503	50.11
751.684	49.89
751.865	49.67
752.046	49.11
752.226	48.29
752.407	47.6
752.588	48.07
752.769	47.44
752.949	47.58
753.13	47.46
753.311	47.07
753.492	46.88
753.672	46.75
753.853	46.53
754.034	47.23
754.214	48.46
754.395	48.91
754.575	49.34
754.756	49.22
754.937	49.66
755.117	49.73
755.298	50.03
755.478	50.5
755.659	50.61
755.839	50.43
756.02	50.18
756.2	49.33
756.381	49.55
756.561	49.51
756.741	50.33
756.922	50.32
757.102	49.94
757.283	49.97
757.463	50.41
757.643	50.15
757.823	50.17
758.004	49.89
758.184	49
758.364	48.8
758.545	48.82
758.725	47.86
758.905	47.29
759.085	47.36
759.265	46.92
759.446	46.6
759.626	46.43
759.806	46.31
759.986	46.05
760.166	46.62
760.346	46.15
760.526	45.76
760.706	45.53
760.886	45.45
761.066	45.2
761.246	44.91
761.426	45.04
761.606	44.91
761.786	44.99
761.966	44.94
762.146	44.48
762.326	44.12
762.506	43.4
762.686	43.52
762.866	43.51
763.046	43.31
763.225	43.41
763.405	42.92
763.585	42.74
763.765	42.21
763.945	42.02
764.124	41.72
764.304	41.73
764.484	42.02
764.664	42.02
764.843	41.85
765.023	42.02
765.203	41.65
765.382	41.65
765.562	41.99
765.741	42.17
765.921	43
766.101	43.57
766.28	43.89
766.46	43.72
766.639	43.58
766.819	44.19
766.998	44.24
767.178	44.6
767.357	44.73
767.537	45.32
767.716	45.62
767.896	45.05
768.075	45.19
768.254	45.11
768.434	45.98
768.613	46.56
768.792	47.09
768.972	47.52
769.151	48.84
769.33	48.91
769.51	48.37
769.689	49.02
769.868	49
770.047	49.03
770.226	49.81
770.406	49.86
770.585	49.62
770.764	49.34
770.943	49.54
771.122	48.67
771.301	49.93
771.48	50.04
771.66	49.51
771.839	49.5
772.018	50.58
772.197	50.6
772.376	50.5
772.555	50.93
772.734	51.29
772.913	51.05
773.092	51.45
773.271	50.55
773.449	50.26
773.628	51.14
773.807	51.6
773.986	50.85
774.165	51.56
774.344	52.24
774.523	52.31
774.701	52.66
774.88	52.73
775.059	52.67
775.238	53.2
775.417	54.19
775.595	54.55
775.774	54.32
775.953	53.76
776.131	53.57
776.31	52.86
776.489	52.23
776.667	51.08
776.846	51.29
777.025	50.05
777.203	49.7
777.382	48.91
777.56	48
777.739	47.71
777.917	48.31
778.096	48.46
778.274	48.1
778.453	48.17
778.631	49.03
778.81	48.82
778.988	50.31
779.166	50.61
779.345	52.27
779.523	52.72
779.702	53.05
779.88	53.01
780.058	53.21
780.237	53.49
780.415	54.07
780.593	53.06
780.771	53.91
780.95	53.44
781.128	53.5
781.306	51.77
781.484	51.8
781.662	52.21
781.841	52.78
782.019	51.93
782.197	52.65
782.375	52.8
782.553	53.79
782.731	53.03
782.909	52.92
783.087	52.93
783.265	54.22
783.443	54.64
783.621	54.46
783.799	54.2
783.977	54.33
784.155	53.67
784.333	53.45
784.511	52.8
784.689	52.4
784.867	53.7
785.045	52.91
785.223	52.21
785.4	52.23
785.578	52.49
785.756	52.77
785.934	52.49
786.112	52.14
786.289	51.28
786.467	51.47
786.645	51.77
786.823	50.96
787	51
787.178	50.98
787.356	50.02
787.533	48.82
787.711	48.45
787.889	48.51
788.066	48.55
788.244	49.16
788.421	48.75
788.599	48.64
788.776	48.86
788.954	49.3
789.131	49.86
789.309	51.02
789.486	52.07
789.664	52.18
789.841	51.35
790.019	50.91
790.196	50.87
790.373	51.05
790.551	51.56
790.728	50.63
790.906	50.13
791.083	48.8
791.26	47.3
791.437	47
791.615	46.49
791.792	48.3
791.969	49.3
792.146	48.69
792.324	49.01
792.501	49.1
792.678	50.03
792.855	50.87
793.032	51.16
793.209	52.69
793.387	52.6
793.564	52.27
793.741	52.57
793.918	52.76
794.095	53.19
794.272	52.87
794.449	52
794.626	52.02
794.803	51.77
794.98	52.8
795.157	53.23
795.334	52.64
795.511	52.59
795.688	50.66
795.864	50.26
796.041	51.78
796.218	51.63
796.395	51.64
796.572	50.96
796.749	50.45
796.925	50.03
797.102	49.47
797.279	48.85
797.456	50.39
797.632	50.67
797.809	50.57
797.986	50.23
798.162	51.63
798.339	50.84
798.516	51.58
798.692	51.49
798.869	51.55
799.046	50.48
799.222	51.84
799.399	50.77
799.575	51.51
799.752	51.54
799.928	50.17
800.105	48.8
800.281	49.89
800.458	49.8
800.634	50.26
800.811	49.68
800.987	49.68
801.163	49.33
801.34	50
801.516	49.13
801.692	49.27
801.869	49.56
802.045	49.62
802.221	49.85
802.398	48.91
802.574	48.97
802.75	49.13
802.926	49.46
803.103	49.64
803.279	49.99
803.455	50.19
803.631	50.55
803.807	51.23
803.983	51.2
804.16	50.45
804.336	51.75
804.512	50.88
804.688	51.37
804.864	52.31
805.04	52.99
805.216	52.27
805.392	53.49
805.568	53.85
805.744	53.6
805.92	53.71
806.096	54.2
806.272	54.28
806.448	55.27
806.623	54.51
806.799	54.32
806.975	53.59
807.151	54.93
807.327	53.78
807.503	52
807.678	51.03
807.854	50.93
808.03	50.84
808.206	51.41
808.381	50.66
808.557	51.57
808.733	51.02
808.908	51.35
809.084	50.58
809.26	50.62
809.435	51.59
809.611	51.56
809.787	52.73
809.962	52.82
810.138	51.97
810.313	53.19
810.489	53.09
810.664	52.61
810.84	52.98
811.015	52.54
811.191	52.93
811.366	53.41
811.542	54.25
811.717	54.04
811.892	55.89
812.068	55.79
812.243	55.19
812.419	55.83
812.594	56.22
812.769	55.96
812.944	55.73
813.12	55.4
813.295	56.01
813.47	55.14
813.645	55.61
813.821	54.28
813.996	54.52
814.171	53.66
814.346	53.29
814.521	53.73
814.697	53.63
814.872	53.11
815.047	54.1
815.222	52.43
815.397	51.77
815.572	51.15
815.747	49.81
815.922	49.35
816.097	50.89
816.272	50.12
816.447	49.78
816.622	50.26
816.797	49.93
816.972	48.94
817.147	49.78
817.322	50.99
817.496	49.21
817.671	49.51
817.846	49.22
818.021	48.54
818.196	48.68
818.371	49.02
818.545	48.3
818.72	47.7
818.895	46.35
819.069	45.64
819.244	44.82
819.419	46
819.594	44.99
819.768	44.44
819.943	43.57
820.117	43.5
820.292	42.89
820.467	41.35
820.641	40.71
820.816	40.43
820.99	38.93
821.165	38.05
821.339	37.3
821.514	36.56
821.688	36.04
821.863	35.29
822.037	34.62
822.212	33.89
822.386	33.77
822.56	33.64
822.735	33.61
822.909	33.58
823.084	33.54
823.258	33.06
823.432	32.94
823.606	32.85
823.781	33.12
823.955	33.28
824.129	33.49
824.303	33.65
824.478	33.27
824.652	33.12
824.826	33.33
825	33.22
825.174	33.98
825.348	34.74
825.523	35.18
825.697	35.41
825.871	35.42
826.045	35.32
826.219	35.02
826.393	35.82
826.567	36.2
826.741	36.27
826.915	36.76
827.089	36.7
827.263	36.14
827.437	35.71
827.611	35.6
827.784	35.91
827.958	36.31
828.132	36.67
828.306	36.6
828.48	36.65
828.654	37.47
828.827	37.57
829.001	37.46
829.175	38.02
829.349	39.05
829.522	39.78
829.696	39.89
829.87	40.51
830.044	41.7
830.217	43.3
830.391	43.62
830.565	43.56
830.738	44.23
830.912	44.86
831.085	45.74
831.259	45.76
831.432	45.99
831.606	46.1
831.779	44.89
831.953	44.86
832.126	43.21
832.3	43.47
832.473	42.55
832.647	41.15
832.82	39.94
832.994	39.93
833.167	40.21
833.34	39.28
833.514	38.86
833.687	38.46
833.86	36.95
834.034	36.6
834.207	35.7
834.38	35.64
834.553	36.01
834.727	36.93
834.9	37.07
835.073	36.68
835.246	36.52
835.419	37.03
835.593	38.46
835.766	39.49
835.939	40.68
836.112	41.63
836.285	42.27
836.458	42.89
836.631	43.61
836.804	43.53
836.977	44.55
837.15	46.21
837.323	47
837.496	47.67
837.669	48.68
837.842	49.35
838.015	49.43
838.188	50.38
838.361	51.83
838.533	51.97
838.706	52.67
838.879	52.56
839.052	52.87
839.225	53.1
839.398	52.32
839.57	52.93
839.743	50.61
839.916	52.47
840.088	52.48
840.261	52.58
840.434	53.52
840.607	53.1
840.779	53.53
840.952	53.95
841.124	53.52
841.297	53.78
841.47	54.14
841.642	56.19
841.815	55.95
841.987	55.6
842.16	56.72
842.332	57.79
842.505	60.14
842.677	62.72
842.85	64.84
843.022	66.41
843.194	66.37
843.367	68.31
843.539	72.34
843.712	73.59
843.884	76.92
844.056	79.56
844.229	80.04
844.401	82.7
844.573	81.34
844.745	77.96
844.918	77.47
845.09	80.37
845.262	78.84
845.434	74.76
845.606	73.8
845.779	73.54
845.951	71.18
846.123	71.54
846.295	72.59
846.467	70.01
846.639	75.77
846.811	76.65
846.983	78.25
847.155	76.58
847.327	75.87
847.499	76.7
847.671	77.25
847.843	77.84
848.015	76.13
848.187	73.37
848.359	78.02
848.531	76.23
848.703	75.56
848.875	71.15
849.047	74.03
849.218	76.27
849.39	79.45
849.562	80.08
849.734	83.03
849.905	85.8
850.077	84.83
850.249	77.88
850.421	73.52
850.592	76.36
850.764	75.15
850.936	76.83
851.107	78.16
851.279	76.7
851.451	77.06
851.622	73.95
851.794	72.15
851.965	74.49
852.137	80.88
852.308	81.76
852.48	80.09
852.651	87.51
852.823	86.78
852.994	83.41
853.166	83.94
853.337	81.3
853.509	81.29
853.68	79.03
853.851	74.19
854.023	71.65
854.194	76.29
854.365	73.85
854.537	73.42
854.708	77.42
854.879	78.99
855.05	77.86
855.222	77.82
855.393	77.35
855.564	80.25
855.735	81.53
855.906	79.23
856.078	77.97
856.249	79.53
856.42	79.58
856.591	76.97
856.762	77.7
856.933	77.01
857.104	78.68
857.275	82.59
857.446	82.34
857.617	88.96
857.788	91.09
857.959	90.44
858.13	93.15
858.301	91.15
858.472	91.94
858.643	92.3
858.814	96.34
858.985	96.12
859.155	93.68
859.326	96.49
859.497	92.19
859.668	92.08
859.839	90.68
860.009	90.63
860.18	88.68
860.351	84.81
860.522	87.03
860.692	85.35
860.863	85.14
861.034	84.28
861.204	81.7
861.375	78.44
861.546	76.38
861.716	74.92
861.887	74.63
862.057	74.39
862.228	76.76
862.398	72.62
862.569	73.45
862.739	72.66
862.91	75.66
863.08	79.49
863.251	82.5
863.421	86.15
863.592	89.54
863.762	89.36
863.932	91.1
864.103	87.14
864.273	86.65
864.443	83.85
864.614	86.92
864.784	85.93
864.954	80.55
865.125	82.27
865.295	89.02
865.465	88.6
865.635	88.28
865.805	92.16
865.976	96.17
866.146	95.14
866.316	97.7
866.486	95.67
866.656	98.54
866.826	99.36
866.996	97.87
867.166	88.01
867.336	88.57
867.506	90.95
867.676	89.64
867.846	87.93
868.016	93.74
868.186	96.88
868.356	91.89
868.526	90.71
868.696	94.32
868.866	92.7
869.036	98.23
869.206	98.63
869.376	90.52
869.545	90.45
869.715	92.62
869.885	93.45
870.055	90.78
870.224	96.98
870.394	92.18
870.564	91.47
870.734	90.66
870.903	85.93
871.073	85.06
871.243	93.2
871.412	86.56
871.582	83.98
871.751	83.78
871.921	84.77
872.091	81.34
872.26	81.94
872.43	84.18
872.599	84.78
872.769	85.12
872.938	85.04
873.108	77.96
873.277	85.56
873.446	91.76
873.616	85.5
873.785	79.02
873.955	79.84
874.124	84.81
874.293	79.55
874.463	80.71
874.632	83.35
874.801	90.32
874.971	90.12
875.14	87.5
875.309	85.45
875.478	88.36
875.647	92.02
875.817	91.29
875.986	92.27
876.155	95.68
876.324	99.54
876.493	98.64
876.662	84.51
876.831	91.18
877	89.01
877.17	87.09
877.339	87.73
877.508	86.11
877.677	81.44
877.846	73.95
878.015	73.07
878.184	69.72
878.352	70.72
878.521	75.15
878.69	70.06
878.859	68.64
879.028	65.3
879.197	60.24
879.366	60.61
879.534	60.21
879.703	57.68
879.872	54.12
880.041	48.89
880.21	46.24
880.378	40.73
880.547	39.01
880.716	37.93
880.884	37.42
881.053	36.32
881.222	35.28
881.39	34.13
881.559	34.49
881.727	33.27
881.896	32.53
882.065	32.09
882.233	32.89
882.402	33.29
882.57	32.61
882.739	32.02
882.907	32.67
883.076	32.42
883.244	32.24
883.412	32.18
883.581	32.12
883.749	33.17
883.918	33.36
884.086	33.33
884.254	33.69
884.423	34.72
884.591	35.58
884.759	36.47
884.927	37.6
885.096	39.5
885.264	40.01
885.432	41.96
885.6	43.75
885.769	47.4
885.937	49.68
886.105	51.24
886.273	52.78
886.441	53.45
886.609	54.32
886.777	55.1
886.945	57.41
887.113	61.32
887.281	65.17
887.449	68.91
887.617	64.56
887.785	62.35
887.953	59.33
888.121	59.83
888.289	63.34
888.457	62.92
888.625	64.28
888.793	63.65
888.961	65.86
889.129	66.18
889.296	63.85
889.464	65.92
889.632	69.78
889.8	74.13
889.967	75.15
890.135	77.56
