Data from 2938789__Reflection_02.txt Node
Date: Fri Mar 13 11:31:40 EDT 2015
User: robert
Spectrometer: USB4E03002
Autoset integration time: false
Trigger mode: 4
Integration Time (sec): 1.000000E-1
Scans to average: 10
Electric dark correction enabled: false
Nonlinearity correction enabled: false
Boxcar width: 5
Stray light correction enabled: false
XAxis mode: Wavelengths
Stop averaging: false
Number of Pixels in Spectrum: 3648
>>>>>Begin Spectral Data<<<<<
177.575	-769.17
177.794	-8707.14
178.014	-1255.65
178.233	-934.62
178.452	-634.09
178.672	-457.52
178.891	-486.29
179.11	-462.34
179.33	-466.73
179.549	-566.95
179.768	-638.25
179.987	-1048.53
180.207	-649.43
180.426	-1041.91
180.645	-1955.13
180.864	-7451.22
181.084	2428.36
181.303	3737.08
181.522	1927.12
181.741	4325.68
181.96	1825
182.179	799.76
182.398	709.79
182.618	583.53
182.837	656.72
183.056	487.41
183.275	464.78
183.494	512.74
183.713	469.66
183.932	488.64
184.151	465.32
184.37	524.07
184.589	634.97
184.808	724.84
185.027	728.13
185.246	713
185.465	2409.4
185.684	1335.17
185.903	1567
186.122	1729.61
186.341	5807.84
186.56	2550.86
186.779	3575.9
186.998	1810.34
187.216	-4626.56
187.435	-1132.05
187.654	-1255.78
187.873	-1710.8
188.092	-3953.62
188.311	20238.46
188.53	-3364.2
188.748	8809.38
188.967	-1425.13
189.186	-1590.12
189.405	-777.11
189.623	-2650.98
189.842	6251.06
190.061	2141.54
190.28	3026.09
190.498	-1728.24
190.717	-1319.72
190.936	-1001.11
191.154	-597.83
191.373	-1716.11
191.592	-1417.44
191.81	-1130.95
192.029	-976
192.248	-955.02
192.466	-3842.25
192.685	-20357.14
192.904	-1024.03
193.122	-5310.91
193.341	1279.2
193.559	760.44
193.778	862.89
193.996	680.23
194.215	768
194.433	791.53
194.652	657.32
194.87	1229.5
195.089	931.08
195.307	472.06
195.526	497.98
195.744	580.24
195.963	504.25
196.181	449.88
196.399	497.94
196.618	402.16
196.836	425.99
197.055	517.59
197.273	554.53
197.491	650.61
197.71	617.62
197.928	899.71
198.146	951.77
198.365	8340.63
198.583	-4909.43
198.801	-2018.94
199.019	-2193.75
199.238	-5550
199.456	1846.31
199.674	945.52
199.892	762.93
200.111	1196.57
200.329	1089.45
200.547	888.69
200.765	644.06
200.983	595.89
201.202	608.58
201.42	763.34
201.638	825.61
201.856	1401.53
202.074	1771.34
202.292	-4220.97
202.51	17931.25
202.728	10003.45
202.946	-3687.01
203.165	-3627.5
203.383	5671.15
203.601	2136.3
203.819	5045.45
204.037	1036.33
204.255	1127.2
204.473	1344.24
204.691	780.5
204.909	667.18
205.127	685.81
205.345	780.24
205.562	986.77
205.78	1242.51
205.998	1284.26
206.216	777.23
206.434	1194.68
206.652	690.22
206.87	696.87
207.088	638.68
207.306	895.72
207.523	748.54
207.741	586.26
207.959	523.08
208.177	738.7
208.395	791.73
208.612	1076.54
208.83	774.05
209.048	929.65
209.266	1224.19
209.483	1109.82
209.701	1225.88
209.919	1791.52
210.136	1360.09
210.354	1142.32
210.572	846.3
210.79	611.11
211.007	634.13
211.225	744.71
211.442	744.05
211.66	511.43
211.878	545.69
212.095	-1310.66
212.313	-3435.11
212.53	-2212.67
212.748	-1656.59
212.966	-2831.62
213.183	-1844.58
213.401	-2796.43
213.618	5738.18
213.836	-19200
214.053	-10574.19
214.271	12546.15
214.488	318.39
214.705	338.14
214.923	289.04
215.14	285.25
215.358	318.16
215.575	381.39
215.793	361.97
216.01	544.1
216.227	491.58
216.445	523.16
216.662	591
216.879	744.54
217.097	626.57
217.314	573.56
217.531	399.86
217.749	334.33
217.966	280.31
218.183	254.87
218.4	250.16
218.618	266.41
218.835	243.78
219.052	239.79
219.269	208.02
219.487	199.93
219.704	207.63
219.921	204.53
220.138	213.55
220.355	214.32
220.572	204.63
220.79	179.28
221.007	166.22
221.224	170.61
221.441	160.47
221.658	165.12
221.875	165.3
222.092	161.76
222.309	158.16
222.526	146.38
222.743	146.98
222.96	145.29
223.177	144.63
223.394	143.65
223.611	135.88
223.828	138.13
224.045	138.14
224.262	135.95
224.479	125.58
224.696	119.38
224.913	110.37
225.13	104.66
225.347	91.49
225.564	86.95
225.781	79.16
225.997	72.9
226.214	62.68
226.431	54.39
226.648	48.37
226.865	42.28
227.082	38.63
227.298	35.02
227.515	30.48
227.732	28.74
227.949	26.29
228.165	24.12
228.382	21.9
228.599	21.13
228.816	20.57
229.032	19.47
229.249	19.01
229.466	18.34
229.682	18.4
229.899	19.24
230.116	19.05
230.332	18.85
230.549	19.47
230.765	21.59
230.982	22.51
231.199	23.85
231.415	25.88
231.632	28.6
231.848	29.92
232.065	31.52
232.281	31.21
232.498	31.6
232.714	31.91
232.931	32.29
233.147	31.51
233.364	32.55
233.58	32.71
233.797	31.99
234.013	31.94
234.23	31.18
234.446	32.2
234.662	31.75
234.879	32.43
235.095	31.82
235.312	30.85
235.528	31.35
235.744	31.25
235.961	31.04
236.177	30.66
236.393	29.19
236.61	30
236.826	29.13
237.042	30.39
237.258	29.57
237.475	30.3
237.691	30.53
237.907	31.1
238.123	31.95
238.339	32.36
238.556	33.51
238.772	32.91
238.988	32.93
239.204	33.65
239.42	32.09
239.636	30.89
239.853	29.56
240.069	28.44
240.285	26.26
240.501	23.93
240.717	22.24
240.933	20.57
241.149	19.53
241.365	17.79
241.581	16.01
241.797	15.28
242.013	14.36
242.229	14.38
242.445	14.21
242.661	13.88
242.877	13.73
243.093	14.34
243.309	14.59
243.525	15.2
243.741	15.57
243.957	15.96
244.173	16.76
244.388	18.12
244.604	18.17
244.82	18.27
245.036	18.3
245.252	17.54
245.468	15.95
245.683	15.07
245.899	14.06
246.115	13.59
246.331	13.29
246.547	12.55
246.762	11.78
246.978	11.42
247.194	11.19
247.409	10.86
247.625	10.8
247.841	10.53
248.057	10.65
248.272	10.49
248.488	10.54
248.703	10.48
248.919	10.59
249.135	10.79
249.35	11.27
249.566	11.77
249.782	12.64
249.997	13.2
250.213	14.2
250.428	14.43
250.644	15.62
250.859	16.24
251.075	16.6
251.29	17.52
251.506	17.42
251.721	17.17
251.937	16.9
252.152	16.22
252.368	15.88
252.583	15.8
252.798	15.79
253.014	15.88
253.229	15.62
253.445	15.83
253.66	15.38
253.875	15.83
254.091	16.54
254.306	16.49
254.521	18.2
254.737	19.63
254.952	19.54
255.167	19.85
255.383	19.56
255.598	19.57
255.813	19.86
256.028	19.47
256.244	19.42
256.459	19.05
256.674	18.46
256.889	17.07
257.104	16.39
257.32	16.24
257.535	14.96
257.75	14.1
257.965	13.6
258.18	12.77
258.395	12.03
258.61	11.21
258.826	10.47
259.041	10.41
259.256	9.99
259.471	9.5
259.686	9.24
259.901	9.37
260.116	9.09
260.331	8.68
260.546	8.6
260.761	8.86
260.976	9.09
261.191	8.84
261.406	8.65
261.621	9.08
261.836	9.18
262.05	9.59
262.265	9.61
262.48	10.57
262.695	11.46
262.91	12.32
263.125	12.37
263.34	12.66
263.555	14.42
263.769	15.3
263.984	14.83
264.199	15.31
264.414	14.81
264.629	14.61
264.843	14.54
265.058	14.49
265.273	13.71
265.488	13.19
265.702	12.86
265.917	12.08
266.132	11.66
266.346	11.63
266.561	11.67
266.776	11.64
266.99	12.21
267.205	11.76
267.42	11.5
267.634	10.85
267.849	11.14
268.063	11.19
268.278	11.11
268.492	11.09
268.707	11.27
268.922	10.84
269.136	11.46
269.351	10.99
269.565	11.19
269.78	10.83
269.994	11.15
270.209	10.71
270.423	9.9
270.637	9.59
270.852	9.5
271.066	9.04
271.281	9.25
271.495	8.88
271.709	8.6
271.924	8.07
272.138	8.27
272.353	8.48
272.567	8.93
272.781	9.77
272.996	9.68
273.21	9.78
273.424	9.99
273.638	9.8
273.853	9.69
274.067	9.84
274.281	10.41
274.495	10.98
274.71	11.39
274.924	11.24
275.138	11.03
275.352	11.16
275.566	11.61
275.781	11.48
275.995	12.23
276.209	12.66
276.423	12.55
276.637	12.61
276.851	12.39
277.065	11.81
277.279	11.68
277.493	11.41
277.707	11.77
277.921	11.24
278.135	11.29
278.349	10.75
278.563	10.66
278.777	11.01
278.991	10.55
279.205	10.55
279.419	10.64
279.633	10.19
279.847	10.24
280.061	10.12
280.275	9.74
280.489	10.05
280.703	9.89
280.917	9.26
281.131	9.22
281.344	9.13
281.558	8.79
281.772	9.02
281.986	9.25
282.2	9.28
282.414	9.22
282.627	9.19
282.841	9.01
283.055	9.15
283.269	9.37
283.482	8.97
283.696	9.01
283.91	9.2
284.123	8.23
284.337	8.03
284.551	8.01
284.764	7.94
284.978	7.85
285.192	7.65
285.405	7.7
285.619	7.62
285.833	7.83
286.046	7.79
286.26	7.76
286.473	8.12
286.687	8.18
286.9	8.36
287.114	8.1
287.327	8.32
287.541	8.59
287.754	8.44
287.968	8.69
288.181	8.79
288.395	8.71
288.608	8.61
288.822	8.7
289.035	8.67
289.248	8.19
289.462	8.18
289.675	8.09
289.889	8.14
290.102	7.88
290.315	7.8
290.529	7.78
290.742	7.68
290.955	7.67
291.169	7.86
291.382	8.15
291.595	8.41
291.808	8.82
292.022	9.22
292.235	9.26
292.448	9.48
292.661	9.6
292.875	9.66
293.088	10.17
293.301	9.99
293.514	9.89
293.727	9.51
293.94	9.61
294.153	9.27
294.367	8.89
294.58	8.51
294.793	8.54
295.006	8.36
295.219	7.97
295.432	7.79
295.645	7.97
295.858	7.98
296.071	7.73
296.284	7.59
296.497	7.44
296.71	7.3
296.923	7.65
297.136	7.61
297.349	7.57
297.562	7.71
297.775	7.68
297.988	7.65
298.201	7.68
298.414	7.95
298.626	7.82
298.839	7.76
299.052	7.87
299.265	7.99
299.478	7.95
299.691	8.41
299.903	9.11
300.116	9.48
300.329	9.49
300.542	9.32
300.755	9.76
300.967	10.07
301.18	10.49
301.393	10.74
301.605	10.49
301.818	10.76
302.031	10.38
302.243	9.73
302.456	9.67
302.669	9.9
302.881	9.85
303.094	10.12
303.307	10.1
303.519	10.3
303.732	10.36
303.944	10.17
304.157	10.35
304.37	10.23
304.582	10.52
304.795	10.61
305.007	10.47
305.22	10.67
305.432	10.03
305.645	10
305.857	10.2
306.069	10.42
306.282	10.57
306.494	10.67
306.707	10.9
306.919	10.61
307.132	10.42
307.344	10.23
307.556	10.45
307.769	10.64
307.981	10.63
308.193	10.36
308.406	10.02
308.618	10.25
308.83	9.9
309.043	9.8
309.255	9.66
309.467	9.65
309.679	9.96
309.892	9.79
310.104	9.61
310.316	9.65
310.528	9.43
310.74	9.53
310.953	8.96
311.165	9.12
311.377	9.25
311.589	9.96
311.801	9.96
312.013	9.79
312.225	9.94
312.437	10.01
312.649	10.3
312.862	10.59
313.074	10.76
313.286	11.31
313.498	11.46
313.71	11.33
313.922	10.68
314.134	10.7
314.346	11.05
314.558	11.22
314.77	11.76
314.982	11.79
315.193	11.96
315.405	12.08
315.617	12.28
315.829	12.68
316.041	13.06
316.253	13.26
316.465	13.54
316.677	13.11
316.888	12.97
317.1	13.07
317.312	13.27
317.524	13.49
317.736	13.43
317.947	14.04
318.159	13.8
318.371	13.55
318.583	13.69
318.794	13.89
319.006	14.11
319.218	14.29
319.43	14.17
319.641	14.17
319.853	13.99
320.064	14.45
320.276	13.8
320.488	13.88
320.699	14.03
320.911	14.38
321.123	14.93
321.334	15.23
321.546	15.11
321.757	15.49
321.969	15.51
322.18	15.85
322.392	15.17
322.603	15.54
322.815	15.47
323.026	15.72
323.238	15.51
323.449	14.68
323.661	14.73
323.872	15.13
324.083	14.64
324.295	14.29
324.506	13.96
324.718	13.96
324.929	14.02
325.14	13.95
325.352	13.77
325.563	14.38
325.774	14.84
325.986	15.13
326.197	15.14
326.408	15.67
326.62	15.92
326.831	16.3
327.042	17.06
327.253	17.39
327.464	17.92
327.676	18.27
327.887	18.35
328.098	18.25
328.309	18.6
328.52	18.8
328.732	18.61
328.943	19.24
329.154	19.71
329.365	19.81
329.576	19.95
329.787	20.06
329.998	21.02
330.209	21.01
330.42	21.34
330.631	20.97
330.842	21.16
331.053	21.66
331.264	21.3
331.475	21.44
331.686	21.6
331.897	21.57
332.108	21.67
332.319	21.3
332.53	21.23
332.741	21.22
332.952	21.55
333.163	21.6
333.374	21.66
333.585	21.8
333.795	21.4
334.006	21.32
334.217	21.08
334.428	20.96
334.639	20.79
334.849	20.6
335.06	20.73
335.271	20.37
335.482	20.4
335.692	20.22
335.903	20.38
336.114	20.34
336.325	20.29
336.535	20.38
336.746	20.08
336.957	20.32
337.167	20.71
337.378	20.97
337.589	21.13
337.799	20.63
338.01	20.51
338.22	20.37
338.431	20.44
338.642	20.41
338.852	20.42
339.063	20.91
339.273	20.82
339.484	20.39
339.694	19.96
339.905	20.07
340.115	20.4
340.326	20.6
340.536	20.52
340.746	20.39
340.957	20.21
341.167	20.1
341.378	20.04
341.588	19.78
341.799	20.08
342.009	20.02
342.219	20.09
342.43	19.9
342.64	19.92
342.85	19.96
343.061	19.95
343.271	20.13
343.481	20.16
343.691	19.79
343.902	19.92
344.112	19.85
344.322	19.92
344.532	19.87
344.743	19.78
344.953	19.69
345.163	19.36
345.373	19.1
345.583	18.89
345.793	18.79
346.004	18.97
346.214	19
346.424	18.58
346.634	18.77
346.844	18.79
347.054	19.15
347.264	19.04
347.474	18.97
347.684	19.29
347.894	19.4
348.104	19.35
348.314	19.06
348.524	18.69
348.734	19.09
348.944	19.05
349.154	18.87
349.364	18.76
349.574	18.78
349.784	19.33
349.994	19.42
350.204	19.34
350.413	19.46
350.623	19.71
350.833	19.83
351.043	19.73
351.253	19.71
351.463	19.52
351.672	19.48
351.882	19.55
352.092	19.23
352.302	18.95
352.511	19.05
352.721	19.18
352.931	19.11
353.141	19.1
353.35	19.17
353.56	18.9
353.77	18.79
353.979	18.69
354.189	18.66
354.399	18.81
354.608	18.87
354.818	18.58
355.027	18.63
355.237	18.66
355.447	18.85
355.656	18.66
355.866	18.76
356.075	18.93
356.285	18.98
356.494	18.92
356.704	18.76
356.913	18.83
357.123	19.05
357.332	18.85
357.542	18.64
357.751	18.4
357.96	18.42
358.17	18.17
358.379	18.19
358.589	18.1
358.798	17.85
359.007	17.78
359.217	17.86
359.426	17.44
359.635	17.31
359.845	17.25
360.054	17.01
360.263	16.9
360.472	16.92
360.682	16.63
360.891	16.61
361.1	16.68
361.309	16.39
361.519	16.39
361.728	16.29
361.937	16.29
362.146	16.36
362.355	16.44
362.564	16.54
362.774	16.47
362.983	16.41
363.192	16.44
363.401	16.31
363.61	16.46
363.819	16.33
364.028	16.63
364.237	16.73
364.446	16.72
364.655	16.78
364.864	16.61
365.073	16.83
365.282	16.8
365.491	16.69
365.7	16.58
365.909	16.61
366.118	16.71
366.327	16.68
366.536	16.55
366.745	16.41
366.954	16.44
367.162	16.4
367.371	16.11
367.58	16.45
367.789	16.25
367.998	16.67
368.207	16.8
368.415	16.55
368.624	16.67
368.833	16.68
369.042	16.68
369.25	16.6
369.459	16.8
369.668	16.71
369.877	16.33
370.085	16.34
370.294	16.04
370.503	16
370.711	15.93
370.92	15.62
371.129	15.68
371.337	15.61
371.546	15.59
371.754	15.5
371.963	15.52
372.171	15.69
372.38	15.81
372.589	15.79
372.797	15.59
373.006	15.57
373.214	15.58
373.423	15.35
373.631	15.32
373.84	15.36
374.048	15.3
374.256	15.51
374.465	15.57
374.673	15.48
374.882	15.57
375.09	15.74
375.298	15.58
375.507	15.55
375.715	15.47
375.923	15.36
376.132	15.03
376.34	14.81
376.548	14.53
376.757	14.47
376.965	14.61
377.173	14.4
377.381	14.16
377.59	14.46
377.798	14.45
378.006	14.46
378.214	14.41
378.423	14.54
378.631	14.39
378.839	14.61
379.047	14.57
379.255	14.32
379.463	14.57
379.671	14.57
379.879	14.28
380.088	14.18
380.296	14.11
380.504	14.13
380.712	13.96
380.92	14.21
381.128	14.06
381.336	13.92
381.544	13.72
381.752	13.29
381.96	13.31
382.168	13.19
382.376	13.12
382.584	13.07
382.791	13.08
382.999	13.17
383.207	13
383.415	12.83
383.623	12.71
383.831	12.63
384.039	12.65
384.247	12.6
384.454	12.72
384.662	12.73
384.87	12.57
385.078	12.62
385.285	12.5
385.493	12.63
385.701	12.59
385.909	12.59
386.116	12.58
386.324	12.62
386.532	12.43
386.739	12.25
386.947	12.23
387.155	12.29
387.362	12.17
387.57	12.11
387.778	12
387.985	12.03
388.193	12.08
388.4	12.31
388.608	12.27
388.816	12.28
389.023	12.22
389.231	12.37
389.438	12.27
389.646	12.26
389.853	12.32
390.061	12.09
390.268	12.07
390.475	12.06
390.683	11.77
390.89	11.71
391.098	11.58
391.305	11.63
391.512	11.29
391.72	11.38
391.927	11.16
392.135	11.06
392.342	11.19
392.549	11.11
392.756	10.89
392.964	10.95
393.171	11.04
393.378	11.05
393.586	10.98
393.793	10.98
394	10.87
394.207	11.09
394.414	11.22
394.622	11.07
394.829	10.97
395.036	11
395.243	10.9
395.45	10.67
395.657	10.7
395.864	10.73
396.072	10.8
396.279	10.97
396.486	10.7
396.693	10.56
396.9	10.57
397.107	10.52
397.314	10.72
397.521	10.8
397.728	10.74
397.935	10.84
398.142	10.78
398.349	10.85
398.556	10.72
398.763	10.75
398.97	10.51
399.177	10.35
399.383	10.41
399.59	10.33
399.797	10.47
400.004	10.55
400.211	10.64
400.418	10.72
400.625	10.62
400.831	10.53
401.038	10.58
401.245	10.75
401.452	11
401.658	11.07
401.865	11.16
402.072	10.97
402.279	10.93
402.485	10.65
402.692	10.43
402.899	10.43
403.105	10.47
403.312	10.37
403.519	10.22
403.725	10.25
403.932	10.03
404.138	9.77
404.345	9.82
404.552	9.67
404.758	9.77
404.965	9.66
405.171	9.63
405.378	9.42
405.584	9.57
405.791	9.65
405.997	9.56
406.204	9.71
406.41	9.73
406.617	9.8
406.823	10.13
407.029	10.05
407.236	10.33
407.442	10.19
407.649	10.44
407.855	10.33
408.061	10.5
408.268	10.43
408.474	10.4
408.68	10.43
408.887	10.37
409.093	10.21
409.299	10.23
409.505	10.21
409.712	10.27
409.918	10.25
410.124	10.32
410.33	10.19
410.537	10.04
410.743	10.01
410.949	10.08
411.155	10.05
411.361	9.95
411.567	9.9
411.773	9.83
411.98	9.81
412.186	9.65
412.392	9.67
412.598	9.65
412.804	9.59
413.01	9.55
413.216	9.55
413.422	9.46
413.628	9.46
413.834	9.47
414.04	9.56
414.246	9.59
414.452	9.51
414.658	9.42
414.864	9.3
415.07	9.49
415.275	9.56
415.481	9.51
415.687	9.37
415.893	9.46
416.099	9.46
416.305	9.2
416.511	9.21
416.716	9.17
416.922	9.07
417.128	9.12
417.334	8.91
417.539	8.86
417.745	8.72
417.951	8.66
418.157	8.56
418.362	8.44
418.568	8.41
418.774	8.27
418.979	8.3
419.185	8.27
419.391	8.19
419.596	8.16
419.802	8.03
420.008	7.99
420.213	7.98
420.419	7.98
420.624	8
420.83	8.04
421.035	8.04
421.241	7.94
421.446	7.85
421.652	7.78
421.857	7.79
422.063	7.78
422.268	7.72
422.474	7.81
422.679	7.75
422.885	7.61
423.09	7.56
423.295	7.48
423.501	7.5
423.706	7.54
423.911	7.51
424.117	7.5
424.322	7.5
424.527	7.54
424.733	7.44
424.938	7.46
425.143	7.5
425.349	7.55
425.554	7.59
425.759	7.65
425.964	7.72
426.169	7.84
426.375	7.89
426.58	7.96
426.785	7.99
426.99	8.03
427.195	8.09
427.4	8.19
427.605	8.16
427.811	8.18
428.016	8.22
428.221	8.33
428.426	8.24
428.631	8.25
428.836	8.27
429.041	8.29
429.246	8.29
429.451	8.3
429.656	8.31
429.861	8.46
430.066	8.44
430.271	8.43
430.476	8.28
430.681	8.42
430.886	8.47
431.09	8.47
431.295	8.52
431.5	8.65
431.705	8.49
431.91	8.55
432.115	8.43
432.32	8.5
432.524	8.56
432.729	8.63
432.934	8.53
433.139	8.46
433.343	8.43
433.548	8.41
433.753	8.39
433.958	8.42
434.162	8.42
434.367	8.5
434.572	8.55
434.776	8.53
434.981	8.49
435.186	8.57
435.39	8.68
435.595	8.8
435.799	8.77
436.004	8.74
436.209	8.77
436.413	8.78
436.618	8.73
436.822	8.63
437.027	8.58
437.231	8.55
437.436	8.56
437.64	8.5
437.845	8.35
438.049	8.42
438.253	8.43
438.458	8.43
438.662	8.32
438.867	8.29
439.071	8.31
439.275	8.27
439.48	8.28
439.684	8.18
439.888	8.14
440.093	8.2
440.297	8.09
440.501	8.05
440.706	8.12
440.91	8.17
441.114	8.18
441.318	8.22
441.523	8.27
441.727	8.27
441.931	8.31
442.135	8.42
442.339	8.41
442.543	8.59
442.748	8.62
442.952	8.58
443.156	8.63
443.36	8.63
443.564	8.6
443.768	8.63
443.972	8.57
444.176	8.58
444.38	8.5
444.584	8.46
444.788	8.25
444.992	8.24
445.196	8.17
445.4	8.12
445.604	8.13
445.808	8.12
446.012	8.08
446.216	8.1
446.42	8.12
446.624	8.04
446.828	7.96
447.032	7.99
447.235	7.96
447.439	7.99
447.643	7.98
447.847	7.96
448.051	7.97
448.254	7.95
448.458	8.02
448.662	8
448.866	8.08
449.069	8.21
449.273	8.28
449.477	8.34
449.681	8.39
449.884	8.51
450.088	8.67
450.292	8.58
450.495	8.54
450.699	8.47
450.902	8.39
451.106	8.39
451.31	8.4
451.513	8.47
451.717	8.38
451.92	8.33
452.124	8.22
452.327	8.07
452.531	8.17
452.734	8.28
452.938	8.32
453.141	8.43
453.345	8.43
453.548	8.47
453.752	8.38
453.955	8.51
454.158	8.56
454.362	8.61
454.565	8.62
454.769	8.66
454.972	8.64
455.175	8.68
455.379	8.66
455.582	8.67
455.785	8.57
455.988	8.59
456.192	8.53
456.395	8.41
456.598	8.44
456.801	8.48
457.005	8.37
457.208	8.38
457.411	8.28
457.614	8.24
457.817	8.14
458.021	8.11
458.224	8.14
458.427	8.05
458.63	8.07
458.833	7.96
459.036	7.9
459.239	7.91
459.442	7.83
459.645	7.8
459.848	7.79
460.051	7.88
460.254	7.95
460.457	7.91
460.66	8.03
460.863	8.03
461.066	8.06
461.269	8.08
461.472	8.14
461.675	8.23
461.878	8.35
462.081	8.48
462.284	8.49
462.486	8.41
462.689	8.42
462.892	8.35
463.095	8.38
463.298	8.5
463.5	8.61
463.703	8.52
463.906	8.51
464.109	8.49
464.311	8.36
464.514	8.3
464.717	8.45
464.92	8.54
465.122	8.63
465.325	8.73
465.528	8.64
465.73	8.68
465.933	8.68
466.135	8.76
466.338	8.69
466.541	8.79
466.743	8.78
466.946	8.71
467.148	8.75
467.351	8.73
467.553	8.74
467.756	8.75
467.958	8.67
468.161	8.87
468.363	8.86
468.566	8.86
468.768	8.95
468.971	8.95
469.173	8.97
469.375	9.02
469.578	9.03
469.78	9.03
469.983	9.08
470.185	9.09
470.387	9.06
470.59	8.96
470.792	8.98
470.994	8.86
471.196	8.88
471.399	8.89
471.601	8.82
471.803	8.75
472.005	8.7
472.208	8.66
472.41	8.7
472.612	8.66
472.814	8.78
473.016	8.93
473.218	9.08
473.421	9.06
473.623	9.09
473.825	9.06
474.027	9.1
474.229	9.09
474.431	9.12
474.633	9.14
474.835	9.16
475.037	9.08
475.239	8.94
475.441	8.81
475.643	8.93
475.845	8.82
476.047	8.78
476.249	8.76
476.451	8.79
476.653	8.72
476.855	8.73
477.057	8.68
477.258	8.73
477.46	8.7
477.662	8.71
477.864	8.62
478.066	8.67
478.268	8.63
478.469	8.63
478.671	8.59
478.873	8.65
479.075	8.5
479.276	8.48
479.478	8.42
479.68	8.43
479.882	8.44
480.083	8.4
480.285	8.3
480.487	8.37
480.688	8.37
480.89	8.36
481.091	8.29
481.293	8.28
481.495	8.11
481.696	8.12
481.898	8
482.099	7.92
482.301	7.82
482.502	7.78
482.704	7.7
482.905	7.62
483.107	7.55
483.308	7.51
483.51	7.45
483.711	7.48
483.913	7.41
484.114	7.45
484.315	7.43
484.517	7.47
484.718	7.46
484.92	7.47
485.121	7.46
485.322	7.46
485.524	7.49
485.725	7.52
485.926	7.54
486.127	7.58
486.329	7.56
486.53	7.54
486.731	7.52
486.932	7.54
487.134	7.53
487.335	7.54
487.536	7.52
487.737	7.5
487.938	7.53
488.139	7.55
488.341	7.55
488.542	7.59
488.743	7.6
488.944	7.63
489.145	7.69
489.346	7.75
489.547	7.77
489.748	7.84
489.949	7.87
490.15	7.87
490.351	7.86
490.552	7.89
490.753	7.88
490.954	7.88
491.155	7.88
491.356	7.83
491.557	7.84
491.758	7.91
491.959	7.91
492.159	7.93
492.36	7.98
492.561	8.03
492.762	8.05
492.963	8.09
493.164	8.13
493.364	8.16
493.565	8.25
493.766	8.21
493.967	8.2
494.167	8.33
494.368	8.41
494.569	8.4
494.769	8.41
494.97	8.49
495.171	8.59
495.371	8.68
495.572	8.67
495.773	8.63
495.973	8.73
496.174	8.77
496.375	8.78
496.575	8.78
496.776	8.92
496.976	8.91
497.177	8.87
497.377	8.81
497.578	8.85
497.778	8.97
497.979	9.06
498.179	9.13
498.38	9.17
498.58	9.18
498.78	9.2
498.981	9.19
499.181	9.24
499.382	9.36
499.582	9.47
499.782	9.54
499.983	9.56
500.183	9.64
500.383	9.66
500.584	9.76
500.784	9.77
500.984	9.85
501.184	9.85
501.385	9.95
501.585	9.89
501.785	9.91
501.985	9.88
502.185	9.92
502.386	9.92
502.586	9.97
502.786	9.99
502.986	10.05
503.186	10.13
503.386	10.15
503.586	10.12
503.786	10.23
503.987	10.28
504.187	10.34
504.387	10.45
504.587	10.59
504.787	10.63
504.987	10.71
505.187	10.77
505.387	10.74
505.587	10.85
505.786	10.93
505.986	10.84
506.186	10.88
506.386	10.98
506.586	10.94
506.786	10.9
506.986	10.97
507.186	11
507.386	11.01
507.585	11.16
507.785	11.16
507.985	11.22
508.185	11.34
508.384	11.42
508.584	11.43
508.784	11.4
508.984	11.52
509.183	11.55
509.383	11.55
509.583	11.71
509.782	11.69
509.982	11.76
510.182	11.82
510.381	11.91
510.581	11.98
510.781	12.01
510.98	12.19
511.18	12.13
511.379	12.18
511.579	12.28
511.778	12.23
511.978	12.31
512.177	12.38
512.377	12.45
512.576	12.51
512.776	12.5
512.975	12.71
513.175	12.81
513.374	12.98
513.573	13.08
513.773	13.11
513.972	13.32
514.172	13.47
514.371	13.68
514.57	13.77
514.77	13.92
514.969	14.08
515.168	14.17
515.367	14.23
515.567	14.38
515.766	14.52
515.965	14.54
516.164	14.52
516.364	14.54
516.563	14.43
516.762	14.45
516.961	14.42
517.16	14.44
517.359	14.4
517.559	14.46
517.758	14.45
517.957	14.38
518.156	14.53
518.355	14.6
518.554	14.56
518.753	14.71
518.952	14.79
519.151	14.87
519.35	14.97
519.549	15.07
519.748	15.16
519.947	15.28
520.146	15.48
520.345	15.55
520.544	15.67
520.743	15.87
520.942	15.93
521.141	16.05
521.339	16.17
521.538	16.3
521.737	16.39
521.936	16.46
522.135	16.59
522.333	16.65
522.532	16.89
522.731	16.97
522.93	17.05
523.129	17.25
523.327	17.38
523.526	17.43
523.725	17.52
523.923	17.57
524.122	17.67
524.321	17.67
524.519	17.72
524.718	17.65
524.917	17.66
525.115	17.71
525.314	17.67
525.512	17.72
525.711	17.82
525.909	17.88
526.108	17.99
526.306	18.02
526.505	18.11
526.703	18.16
526.902	18.19
527.1	18.23
527.299	18.3
527.497	18.37
527.696	18.45
527.894	18.51
528.092	18.52
528.291	18.53
528.489	18.58
528.688	18.6
528.886	18.68
529.084	18.77
529.283	18.88
529.481	18.95
529.679	19.01
529.877	19.06
530.076	19.12
530.274	19.2
530.472	19.33
530.67	19.46
530.869	19.58
531.067	19.67
531.265	19.82
531.463	19.92
531.661	20.06
531.859	20.17
532.057	20.22
532.255	20.27
532.454	20.36
532.652	20.38
532.85	20.47
533.048	20.54
533.246	20.61
533.444	20.67
533.642	20.71
533.84	20.72
534.038	20.79
534.236	20.91
534.434	21.03
534.632	21.12
534.83	21.25
535.027	21.29
535.225	21.39
535.423	21.49
535.621	21.59
535.819	21.68
536.017	21.77
536.215	21.85
536.412	21.97
536.61	22.05
536.808	22.09
537.006	22.21
537.203	22.36
537.401	22.48
537.599	22.57
537.797	22.67
537.994	22.83
538.192	22.99
538.39	23.16
538.587	23.22
538.785	23.29
538.983	23.39
539.18	23.44
539.378	23.52
539.575	23.56
539.773	23.66
539.97	23.65
540.168	23.72
540.366	23.72
540.563	23.64
540.761	23.67
540.958	23.67
541.155	23.71
541.353	23.73
541.55	23.72
541.748	23.7
541.945	23.65
542.143	23.7
542.34	23.7
542.537	23.79
542.735	23.95
542.932	24.03
543.129	24.27
543.327	24.42
543.524	24.61
543.721	24.82
543.919	25.13
544.116	25.44
544.313	25.73
544.51	26.03
544.708	26.25
544.905	26.54
545.102	26.79
545.299	26.93
545.496	27.09
545.693	27.19
545.891	27.25
546.088	27.26
546.285	27.31
546.482	27.16
546.679	27.07
546.876	27.01
547.073	26.85
547.27	26.7
547.467	26.51
547.664	26.43
547.861	26.38
548.058	26.36
548.255	26.3
548.452	26.24
548.649	26.35
548.846	26.25
549.043	26.15
549.24	26.2
549.437	26.28
549.633	26.34
549.83	26.42
550.027	26.35
550.224	26.23
550.421	26.15
550.618	26.04
550.814	25.98
551.011	26
551.208	26.18
551.405	26.17
551.601	26.15
551.798	26.11
551.995	26.12
552.191	26.11
552.388	26.17
552.585	26.18
552.781	26.1
552.978	26.05
553.175	26.06
553.371	26.06
553.568	25.88
553.764	25.78
553.961	25.77
554.157	25.74
554.354	25.8
554.55	25.72
554.747	25.78
554.943	25.86
555.14	25.95
555.336	25.88
555.533	25.8
555.729	25.92
555.926	26.07
556.122	26.19
556.318	26.22
556.515	26.14
556.711	26.19
556.907	26.16
557.104	26.3
557.3	26.32
557.496	26.32
557.693	26.3
557.889	26.41
558.085	26.45
558.281	26.5
558.478	26.49
558.674	26.52
558.87	26.61
559.066	26.71
559.262	26.76
559.459	26.67
559.655	26.9
559.851	26.97
560.047	26.95
560.243	26.89
560.439	26.94
560.635	26.92
560.831	26.99
561.027	26.99
561.223	26.96
561.419	26.8
561.615	26.89
561.811	26.85
562.007	26.76
562.203	26.88
562.399	26.86
562.595	26.68
562.791	26.83
562.987	26.86
563.183	26.87
563.379	26.9
563.575	26.96
563.771	26.88
563.966	26.8
564.162	26.88
564.358	26.7
564.554	26.7
564.75	26.68
564.945	26.51
565.141	26.4
565.337	26.41
565.533	26.36
565.728	26.33
565.924	26.37
566.12	26.4
566.315	26.3
566.511	26.29
566.707	26.27
566.902	26.27
567.098	26.38
567.293	26.42
567.489	26.4
567.684	26.43
567.88	26.33
568.076	26.37
568.271	26.44
568.467	26.53
568.662	26.59
568.858	26.62
569.053	26.61
569.248	26.5
569.444	26.56
569.639	26.47
569.835	26.51
570.03	26.66
570.225	26.5
570.421	26.4
570.616	26.34
570.812	26.31
571.007	26.31
571.202	26.3
571.397	26.33
571.593	26.15
571.788	26.24
571.983	26.27
572.178	26.22
572.374	26.41
572.569	26.49
572.764	26.67
572.959	26.75
573.154	26.75
573.35	26.77
573.545	26.79
573.74	26.89
573.935	26.83
574.13	26.7
574.325	26.73
574.52	26.73
574.715	26.73
574.91	26.64
575.105	26.62
575.3	26.72
575.495	26.85
575.69	26.91
575.885	27.01
576.08	27.22
576.275	27.45
576.47	27.55
576.665	27.64
576.86	27.73
577.055	27.74
577.25	27.9
577.444	27.93
577.639	28.06
577.834	28.14
578.029	28.37
578.224	28.4
578.418	28.48
578.613	28.62
578.808	28.65
579.003	28.73
579.197	28.88
579.392	28.69
579.587	28.77
579.781	28.71
579.976	28.78
580.171	28.74
580.365	28.68
580.56	28.69
580.755	28.83
580.949	28.71
581.144	28.73
581.338	28.8
581.533	29.18
581.727	29.2
581.922	29.29
582.116	29.38
582.311	29.24
582.505	29.24
582.7	29.25
582.894	29.13
583.089	29.33
583.283	29.29
583.478	29.17
583.672	29.03
583.866	29.19
584.061	29.27
584.255	29.21
584.449	29.43
584.644	29.54
584.838	29.61
585.032	29.67
585.226	29.65
585.421	29.75
585.615	30.01
585.809	30.01
586.003	29.89
586.198	29.85
586.392	29.88
586.586	29.93
586.78	29.91
586.974	29.85
587.168	29.77
587.363	29.78
587.557	29.67
587.751	29.38
587.945	29.3
588.139	29.31
588.333	29.22
588.527	29.12
588.721	28.9
588.915	28.71
589.109	28.6
589.303	28.63
589.497	28.45
589.691	28.44
589.885	28.44
590.079	28.58
590.273	28.58
590.466	28.68
590.66	28.73
590.854	29
591.048	29.17
591.242	29.3
591.436	29.4
591.629	29.66
591.823	29.74
592.017	29.93
592.211	29.94
592.404	29.97
592.598	30
592.792	30.04
592.986	29.85
593.179	29.74
593.373	29.68
593.567	29.59
593.76	29.32
593.954	29.27
594.147	29.16
594.341	29.06
594.535	28.97
594.728	28.88
594.922	28.73
595.115	28.72
595.309	28.63
595.502	28.47
595.696	28.43
595.889	28.45
596.083	28.43
596.276	28.48
596.47	28.55
596.663	28.49
596.856	28.44
597.05	28.51
597.243	28.48
597.437	28.71
597.63	28.87
597.823	28.87
598.017	29
598.21	29.15
598.403	29.28
598.596	29.38
598.79	29.56
598.983	29.69
599.176	29.77
599.369	29.87
599.563	29.96
599.756	30.05
599.949	30.14
600.142	30.25
600.335	30.22
600.528	30.21
600.722	30.11
600.915	30.07
601.108	30.09
601.301	30.13
601.494	30.13
601.687	29.87
601.88	29.69
602.073	29.53
602.266	29.29
602.459	29.03
602.652	28.84
602.845	28.73
603.038	28.63
603.231	28.52
603.424	28.41
603.617	28.37
603.809	28.4
604.002	28.44
604.195	28.38
604.388	28.52
604.581	28.59
604.774	28.73
604.966	28.75
605.159	28.84
605.352	28.82
605.545	28.95
605.737	29.04
605.93	29.16
606.123	29.34
606.316	29.58
606.508	29.55
606.701	29.7
606.894	29.75
607.086	29.96
607.279	30.14
607.471	30.35
607.664	30.29
607.857	30.4
608.049	30.63
608.242	30.91
608.434	31.33
608.627	31.94
608.819	32.47
609.012	33.11
609.204	33.92
609.397	34.84
609.589	35.89
609.782	37.08
609.974	38.23
610.166	39.36
610.359	40.38
610.551	41.34
610.743	42.1
610.936	42.94
611.128	43.73
611.32	44.08
611.513	44.27
611.705	44.37
611.897	44.22
612.09	43.93
612.282	43.55
612.474	43.02
612.666	42.48
612.858	42.09
613.051	41.52
613.243	40.72
613.435	40.38
613.627	39.94
613.819	39.48
614.011	39.24
614.203	38.82
614.395	38.31
614.588	38.07
614.78	37.84
614.972	37.33
615.164	37.06
615.356	36.57
615.548	36.15
615.74	35.78
615.932	35.34
616.124	34.95
616.315	34.76
616.507	34.47
616.699	34.19
616.891	33.96
617.083	33.72
617.275	33.5
617.467	33.65
617.659	33.3
617.85	32.95
618.042	32.71
618.234	32.52
618.426	32.33
618.618	32.18
618.809	31.99
619.001	31.98
619.193	32.04
619.384	31.98
619.576	32.05
619.768	32.19
619.959	32.32
620.151	32.32
620.343	32.38
620.534	32.43
620.726	32.61
620.917	32.7
621.109	32.79
621.301	32.82
621.492	32.9
621.684	32.82
621.875	32.8
622.067	32.92
622.258	33.21
622.45	33.24
622.641	33.09
622.832	33.08
623.024	33.1
623.215	32.83
623.407	32.7
623.598	32.69
623.789	32.67
623.981	32.62
624.172	32.64
624.363	32.46
624.555	32.33
624.746	32.37
624.937	32.36
625.129	32.27
625.32	32.24
625.511	32.26
625.702	32.1
625.893	32.06
626.085	32.16
626.276	31.95
626.467	31.83
626.658	31.86
626.849	31.83
627.04	31.63
627.231	31.58
627.422	31.69
627.614	31.65
627.805	31.62
627.996	31.53
628.187	31.53
628.378	31.56
628.569	31.71
628.76	31.77
628.951	32.03
629.142	32.38
629.332	32.56
629.523	32.62
629.714	32.83
629.905	33.23
630.096	33.37
630.287	33.45
630.478	33.74
630.669	33.89
630.859	33.98
631.05	33.83
631.241	33.66
631.432	33.55
631.623	33.45
631.813	33.22
632.004	32.89
632.195	32.51
632.385	32.45
632.576	32.22
632.767	32.1
632.957	31.91
633.148	31.69
633.339	31.56
633.529	31.4
633.72	31.12
633.91	31.06
634.101	31
634.292	31.21
634.482	31.06
634.673	31.02
634.863	30.98
635.054	30.98
635.244	31
635.435	31.07
635.625	31.05
635.815	31.21
636.006	31.36
636.196	31.29
636.387	31.31
636.577	31.35
636.767	31.43
636.958	31.33
637.148	31.16
637.338	31.24
637.529	31.47
637.719	31.49
637.909	31.65
638.099	31.54
638.29	31.72
638.48	31.84
638.67	32.02
638.86	31.79
639.05	32.09
639.241	32.38
639.431	32.41
639.621	32.17
639.811	32.27
640.001	32.25
640.191	32.24
640.381	32.1
640.571	32.11
640.761	31.83
640.951	31.94
641.141	31.52
641.331	31.34
641.521	31.36
641.711	31.44
641.901	31.43
642.091	31.5
642.281	31.58
642.471	31.71
642.661	31.74
642.851	31.84
643.041	32
643.231	32.17
643.42	32.31
643.61	32.45
643.8	32.47
643.99	32.84
644.18	32.73
644.369	32.92
644.559	32.93
644.749	32.84
644.939	32.79
645.128	32.74
645.318	32.71
645.508	32.72
645.697	32.46
645.887	32.47
646.076	32.15
646.266	32.29
646.456	32.24
646.645	32.07
646.835	31.94
647.024	32.07
647.214	31.91
647.403	31.94
647.593	31.88
647.782	32.15
647.972	31.86
648.161	32.19
648.351	32.15
648.54	31.96
648.73	32.19
648.919	32.44
649.108	32.27
649.298	32.64
649.487	32.82
649.677	32.95
649.866	32.84
650.055	33.16
650.244	33.08
650.434	33.05
650.623	33.12
650.812	33.14
651.002	32.96
651.191	33.01
651.38	32.82
651.569	32.82
651.758	32.85
651.947	32.94
652.137	32.71
652.326	32.57
652.515	32.48
652.704	32.31
652.893	32.28
653.082	32.25
653.271	32.26
653.46	32.5
653.649	32.59
653.838	32.4
654.027	32.41
654.216	32.5
654.405	32.48
654.594	32.62
654.783	32.79
654.972	32.83
655.161	33
655.35	33.04
655.539	32.7
655.728	32.6
655.916	32.7
656.105	32.52
656.294	32.76
656.483	32.61
656.672	32.58
656.86	32.42
657.049	32.18
657.238	31.96
657.427	32.22
657.615	32.12
657.804	32.03
657.993	31.92
658.181	31.78
658.37	31.55
658.559	31.64
658.747	31.73
658.936	31.86
659.125	31.95
659.313	32.23
659.502	32.09
659.69	32.18
659.879	32.09
660.067	32.13
660.256	32.21
660.444	32.33
660.633	32.43
660.821	32.25
661.01	32.42
661.198	32.57
661.387	32.44
661.575	32.58
661.763	32.88
661.952	33.1
662.14	33.25
662.328	33.39
662.517	33.35
662.705	33.24
662.893	33.63
663.082	33.6
663.27	33.77
663.458	33.85
663.646	33.73
663.834	33.62
664.023	33.57
664.211	33.58
664.399	33.79
664.587	33.92
664.775	33.94
664.963	33.94
665.152	34
665.34	33.7
665.528	34.1
665.716	34.49
665.904	34.43
666.092	34.66
666.28	34.57
666.468	34.31
666.656	34.6
666.844	34.81
667.032	34.76
667.22	34.66
667.408	35.01
667.596	34.59
667.784	34.36
667.971	34.44
668.159	34.31
668.347	34.5
668.535	34.73
668.723	34.6
668.911	34.48
669.098	34.4
669.286	34.55
669.474	34.22
669.662	34.34
669.849	34.23
670.037	34.29
670.225	34.32
670.413	34.18
670.6	34.05
670.788	33.89
670.976	33.87
671.163	33.6
671.351	33.53
671.538	33.95
671.726	33.89
671.913	33.87
672.101	33.55
672.289	33.57
672.476	33.44
672.664	33.46
672.851	33.6
673.039	33.63
673.226	33.85
673.413	33.75
673.601	33.59
673.788	33.73
673.976	34
674.163	34.14
674.35	34.13
674.538	34.44
674.725	34.77
674.912	34.74
675.1	34.82
675.287	35.06
675.474	34.95
675.662	35.09
675.849	35.15
676.036	35.17
676.223	35.5
676.411	35.27
676.598	35.25
676.785	34.88
676.972	34.71
677.159	34.56
677.346	34.37
677.533	34.7
677.721	34.29
677.908	33.89
678.095	33.4
678.282	33.15
678.469	33.08
678.656	32.83
678.843	32.86
679.03	32.94
679.217	33.21
679.404	33.21
679.591	32.85
679.778	32.8
679.964	32.96
680.151	33.04
680.338	33.01
680.525	33.18
680.712	33.33
680.899	33.21
681.086	33.29
681.272	33.09
681.459	33.04
681.646	33.33
681.833	33.59
682.02	33.42
682.206	33.55
682.393	33.49
682.58	33.39
682.766	33.47
682.953	33.86
683.14	33.78
683.326	34.1
683.513	34.19
683.7	33.91
683.886	33.92
684.073	34.16
684.259	33.96
684.446	34.33
684.632	34.53
684.819	34.67
685.005	34.57
685.192	34.67
685.378	34.81
685.565	34.85
685.751	35.05
685.938	34.95
686.124	34.95
686.31	35.31
686.497	35.22
686.683	35.03
686.87	34.76
687.056	34.83
687.242	34.89
687.429	34.6
687.615	34.65
687.801	34.71
687.987	34.86
688.174	34.65
688.36	34.61
688.546	34.45
688.732	34.41
688.918	34.68
689.105	34.66
689.291	34.83
689.477	35.02
689.663	34.93
689.849	34.87
690.035	34.9
690.221	35.42
690.407	35.44
690.593	35.75
690.779	35.94
690.965	35.66
691.151	35.44
691.337	35.43
691.523	35.37
691.709	35.59
691.895	35.8
692.081	35.84
692.267	35.76
692.453	35.72
692.639	35.57
692.825	35.59
693.011	35.75
693.196	35.93
693.382	35.77
693.568	35.55
693.754	35.43
693.94	35.4
694.125	35.34
694.311	35.03
694.497	35.04
694.682	34.94
694.868	35.15
695.054	35.31
695.239	35.42
695.425	35.62
695.611	35.73
695.796	35.63
695.982	35.3
696.168	35.16
696.353	34.99
696.539	34.87
696.724	34.72
696.91	34.52
697.095	34.02
697.281	33.86
697.466	33.46
697.652	33.28
697.837	33.03
698.023	33.13
698.208	33.01
698.393	33.14
698.579	33.08
698.764	33.23
698.949	33.06
699.135	33.06
699.32	33.14
699.505	33.01
699.691	33.12
699.876	33.29
700.061	33.42
700.246	33.53
700.432	33.51
700.617	33.58
700.802	33.68
700.987	34.06
701.172	34.6
701.358	34.96
701.543	35.32
701.728	35.63
701.913	36
702.098	36.17
702.283	36.28
702.468	36.72
702.653	37.2
702.838	37.48
703.023	37.72
703.208	37.73
703.393	37.47
703.578	37.76
703.763	38.06
703.948	38.15
704.133	37.92
704.318	38.14
704.503	38.34
704.688	38.56
704.873	38.89
705.057	39.04
705.242	39.53
705.427	40.04
705.612	40.3
705.797	40.01
705.981	40.27
706.166	41.01
706.351	41.27
706.536	41.2
706.72	40.7
706.905	40.72
707.09	40.77
707.274	40.81
707.459	40.62
707.644	40.75
707.828	40.83
708.013	40.81
708.197	40.33
708.382	39.92
708.567	40.09
708.751	40.36
708.936	39.89
709.12	39.84
709.305	39.33
709.489	38.96
709.673	38.73
709.858	38.54
710.042	38.33
710.227	38.6
710.411	39.05
710.596	38.65
710.78	38.68
710.964	38.99
711.149	39.28
711.333	39.49
711.517	39.77
711.702	40.04
711.886	39.83
712.07	39.55
712.254	39.26
712.438	38.92
712.623	39.2
712.807	38.96
712.991	38.79
713.175	38.38
713.359	38.36
713.544	38.22
713.728	37.98
713.912	38.34
714.096	38.2
714.28	37.98
714.464	38.17
714.648	37.64
714.832	37.74
715.016	37.61
715.2	37.34
715.384	36.94
715.568	36.96
715.752	36.85
715.936	36.33
716.12	36.41
716.304	36.44
716.488	36.26
716.671	36.29
716.855	36.1
717.039	36.19
717.223	36.09
717.407	36.13
717.59	36.16
717.774	35.97
717.958	36.32
718.142	36.5
718.325	36.37
718.509	36.49
718.693	36.6
718.877	36.75
719.06	36.54
719.244	36.73
719.428	37.25
719.611	37.31
719.795	37.15
719.978	37.7
720.162	37.77
720.345	38.37
720.529	38.68
720.713	39.12
720.896	38.96
721.08	39.43
721.263	39.86
721.446	39.72
721.63	39.6
721.813	40.26
721.997	40.53
722.18	40.82
722.364	41.12
722.547	40.58
722.73	40.09
722.914	40.53
723.097	40.11
723.28	39.84
723.464	39.88
723.647	40.16
723.83	39.97
724.013	39.39
724.197	39.15
724.38	38.81
724.563	39.19
724.746	39.53
724.929	39.48
725.112	39.37
725.296	39.23
725.479	39.24
725.662	39.09
725.845	38.98
726.028	39.13
726.211	39.05
726.394	38.54
726.577	38.53
726.76	38.79
726.943	38.68
727.126	38.65
727.309	38.38
727.492	38.28
727.675	38.74
727.858	38.6
728.041	38.31
728.224	38.19
728.407	38.49
728.589	38.51
728.772	38.05
728.955	38.04
729.138	37.82
729.321	38.03
729.503	37.9
729.686	37.36
729.869	37.32
730.052	37.19
730.234	37
730.417	37.43
730.6	37.34
730.782	37.32
730.965	37.12
731.148	37.14
731.33	37.21
731.513	37.23
731.695	37.01
731.878	37.12
732.061	37.29
732.243	37.4
732.426	37.32
732.608	37.4
732.791	37.5
732.973	37.56
733.156	38.02
733.338	37.88
733.52	38.23
733.703	38.29
733.885	38.28
734.068	38.21
734.25	38.49
734.432	37.97
734.615	38.04
734.797	37.97
734.979	37.95
735.162	37.98
735.344	38.33
735.526	38.27
735.708	38.87
735.891	39.14
736.073	39.62
736.255	39.87
736.437	39.95
736.619	40.33
736.802	40.62
736.984	40.69
737.166	41.5
737.348	41.44
737.53	41.24
737.712	41.38
737.894	40.92
738.076	40.83
738.258	40.5
738.44	40.9
738.622	40.62
738.804	40.82
738.986	41.22
739.168	40.22
739.35	40.44
739.532	40.87
739.714	40.72
739.896	41.29
740.078	41.64
740.259	41.8
740.441	41.69
740.623	41.59
740.805	41.59
740.987	41.3
741.168	42.12
741.35	42.34
741.532	42.36
741.714	42.2
741.895	41.98
742.077	41.35
742.259	41.8
742.44	42.03
742.622	41.74
742.804	41.85
742.985	42.12
743.167	42.25
743.348	41.64
743.53	41.49
743.711	41.7
743.893	41.97
744.075	42.86
744.256	43.05
744.438	43.71
744.619	44.64
744.8	44.94
744.982	45.42
745.163	45.02
745.345	45.83
745.526	45.66
745.707	45.48
745.889	45.89
746.07	45.76
746.252	45.43
746.433	45
746.614	44.08
746.795	43.87
746.977	43.44
747.158	43.53
747.339	43.48
747.52	44.08
747.702	44.55
747.883	44.11
748.064	43.65
748.245	44.13
748.426	43.59
748.607	44.53
748.788	44.32
748.97	44.51
749.151	44.57
749.332	44.22
749.513	43.84
749.694	43.61
749.875	43.92
750.056	43.83
750.237	44.14
750.418	44.63
750.599	44.01
750.78	44.26
750.96	44.69
751.141	44.82
751.322	45.07
751.503	45.03
751.684	45.18
751.865	45.18
752.046	45.4
752.226	44.18
752.407	44.21
752.588	44.72
752.769	44.91
752.949	44.62
753.13	44.59
753.311	44.42
753.492	44.67
753.672	45.35
753.853	45.45
754.034	45.7
754.214	45.88
754.395	45.55
754.575	45.7
754.756	45.83
754.937	45.61
755.117	45.6
755.298	45.96
755.478	46.65
755.659	45.66
755.839	45.64
756.02	45.02
756.2	44.75
756.381	44.41
756.561	43.78
756.741	42.94
756.922	43.06
757.102	42.44
757.283	42.59
757.463	42.16
757.643	42.6
757.823	42.13
758.004	42.09
758.184	42.62
758.364	43.69
758.545	42.96
758.725	42.51
758.905	42
759.085	42.55
759.265	41.72
759.446	41.31
759.626	40.76
759.806	40.67
759.986	40.9
760.166	40.76
760.346	40.12
760.526	40.83
760.706	41.43
760.886	41.29
761.066	41.21
761.246	41.22
761.426	40.47
761.606	40.49
761.786	40.21
761.966	39.15
762.146	38.1
762.326	37.78
762.506	37.19
762.686	37.05
762.866	36.47
763.046	35.72
763.225	35.86
763.405	35.96
763.585	35.53
763.765	35.55
763.945	35.59
764.124	35.74
764.304	35.6
764.484	36
764.664	35.95
764.843	36.74
765.023	37.07
765.203	37.09
765.382	37.06
765.562	37.59
765.741	37.78
765.921	38.75
766.101	39.55
766.28	39.86
766.46	39.77
766.639	40.32
766.819	40.23
766.998	40.49
767.178	40.6
767.357	40.93
767.537	41.08
767.716	41.99
767.896	42.3
768.075	42.58
768.254	43.35
768.434	43.93
768.613	44.15
768.792	44.72
768.972	45.13
769.151	45.35
769.33	45.88
769.51	46.1
769.689	45.82
769.868	46.01
770.047	46.52
770.226	46.18
770.406	46.07
770.585	45.79
770.764	45.59
770.943	45.45
771.122	45.31
771.301	45.66
771.48	46.04
771.66	45.52
771.839	45.29
772.018	45.36
772.197	45.87
772.376	46.41
772.555	47.27
772.734	47.33
772.913	47.25
773.092	47.38
773.271	47.97
773.449	47.62
773.628	48.79
773.807	49.67
773.986	49.12
774.165	49.36
774.344	49.48
774.523	48.9
774.701	50.07
774.88	51.36
775.059	52.14
775.238	51.53
775.417	51.42
775.595	51.66
775.774	50.73
775.953	51.41
776.131	51.57
776.31	51.38
776.489	51.59
776.667	51.92
776.846	51.66
777.025	50.92
777.203	50.61
777.382	50.88
777.56	50.11
777.739	50.79
777.917	50.08
778.096	50.28
778.274	49.94
778.453	49.7
778.631	49.42
778.81	49.21
778.988	49.81
779.166	49.4
779.345	49.84
779.523	49.29
779.702	50.07
779.88	50.09
780.058	49.6
780.237	51.04
780.415	51.35
780.593	50.42
780.771	50.84
780.95	51.44
781.128	53.12
781.306	53.52
781.484	54.27
781.662	53.13
781.841	53.09
782.019	52.64
782.197	50.92
782.375	51.08
782.553	51.49
782.731	51.19
782.909	51.03
783.087	50.19
783.265	49.44
783.443	49.59
783.621	49.68
783.799	50.92
783.977	51.31
784.155	52.33
784.333	52.48
784.511	51.95
784.689	51.51
784.867	51.67
785.045	51.69
785.223	52.09
785.4	51.45
785.578	52.06
785.756	52.53
785.934	52.28
786.112	52.29
786.289	52.21
786.467	52.31
786.645	51.98
786.823	50.45
787	49.75
787.178	49.09
787.356	48.69
787.533	47.64
787.711	46.45
787.889	46.74
788.066	46.57
788.244	44.92
788.421	44.8
788.599	44.79
788.776	45.71
788.954	46.18
789.131	46.03
789.309	46.29
789.486	47.36
789.664	47.48
789.841	47.14
790.019	47.37
790.196	49.35
790.373	49.47
790.551	50.97
790.728	51.2
790.906	51.55
791.083	52.66
791.26	53.94
791.437	54.12
791.615	54.47
791.792	54.25
791.969	54.41
792.146	54.36
792.324	54.35
792.501	53.63
792.678	53.84
792.855	53.16
793.032	52.93
793.209	53.14
793.387	51.68
793.564	51.83
793.741	53.05
793.918	52.33
794.095	50.9
794.272	51.12
794.449	51.26
794.626	49.4
794.803	49.34
794.98	50.04
795.157	49.03
795.334	48.67
795.511	49.16
795.688	48.51
795.864	47.99
796.041	49.64
796.218	49.92
796.395	49.11
796.572	50.02
796.749	50.63
796.925	49.5
797.102	49.4
797.279	49.84
797.456	48.38
797.632	47.67
797.809	49
797.986	47.68
798.162	47.54
798.339	46.83
798.516	47.44
798.692	47.69
798.869	48.06
799.046	48.18
799.222	49.31
799.399	49.72
799.575	50.74
799.752	51.34
799.928	53.01
800.105	53.4
800.281	54.99
800.458	55.78
800.634	55.3
800.811	54.84
800.987	55.97
801.163	54.66
801.34	55.41
801.516	55.64
801.692	54.98
801.869	54.1
802.045	53.12
802.221	52.66
802.398	51.36
802.574	50.97
802.75	52.36
802.926	52.53
803.103	52.67
803.279	52.14
803.455	52.21
803.631	52.78
803.807	53.34
803.983	54.99
804.16	55.67
804.336	55.87
804.512	56.21
804.688	57.23
804.864	56.28
805.04	57.89
805.216	57.77
805.392	58.13
805.568	58.35
805.744	57.38
805.92	56.2
806.096	55.54
806.272	55.17
806.448	56.1
806.623	54.3
806.799	55.01
806.975	54.1
807.151	55.11
807.327	55.41
807.503	55.18
807.678	57.18
807.854	57.11
808.03	57.74
808.206	59.03
808.381	60.62
808.557	62.16
808.733	61.19
808.908	61.7
809.084	61.21
809.26	60.48
809.435	60.36
809.611	59
809.787	58.28
809.962	59.5
810.138	59.91
810.313	58.63
810.489	57.54
810.664	56.93
810.84	56.09
811.015	57.05
811.191	57.27
811.366	57.23
811.542	57.09
811.717	59.24
811.892	57.51
812.068	57.78
812.243	58.18
812.419	58.25
812.594	58.97
812.769	60.09
812.944	59.3
813.12	58.19
813.295	57.51
813.47	58.32
813.645	56.64
813.821	56.91
813.996	55.81
814.171	55.4
814.346	55.53
814.521	54.98
814.697	54.2
814.872	54.76
815.047	55.79
815.222	55.89
815.397	56.39
815.572	57.35
815.747	56.91
815.922	56.19
816.097	55.44
816.272	54.72
816.447	55.28
816.622	56.28
816.797	55.12
816.972	54.55
817.147	55
817.322	53.75
817.496	52.72
817.671	52.9
817.846	53.88
818.021	52.43
818.196	51.56
818.371	51.94
818.545	49.77
818.72	49.11
818.895	49.05
819.069	47.01
819.244	46.38
819.419	45.55
819.594	44.19
819.768	41.86
819.943	41.83
820.117	40.36
820.292	38.2
820.467	37.25
820.641	36.55
820.816	35.21
820.99	35.02
821.165	33.32
821.339	32.41
821.514	31.82
821.688	31.4
821.863	30.67
822.037	30.46
822.212	30.02
822.386	29.65
822.56	29.26
822.735	29.07
822.909	28.9
823.084	28.91
823.258	28.79
823.432	28.63
823.606	28.63
823.781	28.91
823.955	28.99
824.129	29.4
824.303	29.78
824.478	30.15
824.652	30.85
824.826	30.96
825	31.71
825.174	32.47
825.348	33.19
825.523	33.65
825.697	34.22
825.871	34.18
826.045	34.42
826.219	34.88
826.393	34.75
826.567	34.16
826.741	34.18
826.915	33.73
827.089	33.7
827.263	33.55
827.437	33.61
827.611	33.32
827.784	33.79
827.958	33.99
828.132	33.63
828.306	33.97
828.48	34.59
828.654	35.26
828.827	36.31
829.001	36.6
829.175	38.04
829.349	39.08
829.522	39.88
829.696	41.1
829.87	41.33
830.044	43.47
830.217	44.74
830.391	45.61
830.565	46.08
830.738	47.37
830.912	48.66
831.085	48.43
831.259	49.69
831.432	50.11
831.606	50.77
831.779	50.28
831.953	49.4
832.126	48.56
832.3	47.1
832.473	45.14
832.647	43.57
832.82	43.47
832.994	43.22
833.167	42.16
833.34	41.48
833.514	40
833.687	39.93
833.86	38.45
834.034	38.04
834.207	37.75
834.38	38.63
834.553	38.63
834.727	37.83
834.9	37.3
835.073	37.49
835.246	38.03
835.419	39.22
835.593	39.93
835.766	42.21
835.939	43.69
836.112	45.07
836.285	45.33
836.458	47.28
836.631	48.42
836.804	50.13
836.977	50.73
837.15	52.58
837.323	53.35
837.496	55.48
837.669	55.38
837.842	55.11
838.015	55.92
838.188	58.7
838.361	58.78
838.533	60.68
838.706	60.33
838.879	60.78
839.052	59.42
839.225	60.43
839.398	60.37
839.57	59.59
839.743	61.77
839.916	61.64
840.088	60.18
840.261	60.86
840.434	61.44
840.607	63.07
840.779	62.23
840.952	62.79
841.124	61.64
841.297	61.38
841.47	63.29
841.642	62.94
841.815	63.88
841.987	64.83
842.16	65.94
842.332	66.68
842.505	67.37
842.677	70.25
842.85	72.75
843.022	72.73
843.194	75.01
843.367	72.82
843.539	72.14
843.712	73.87
843.884	73.99
844.056	72.32
844.229	70.32
844.401	69.63
844.573	73.23
844.745	75.35
844.918	77.57
845.09	78.29
845.262	84.37
845.434	89.39
845.606	88.15
845.779	92.2
845.951	95.12
846.123	98.62
846.295	100.31
846.467	96.98
846.639	94.41
846.811	94.53
846.983	96.14
847.155	91.17
847.327	90.22
847.499	93.29
847.671	93.98
847.843	92.2
848.015	91.36
848.187	92.17
848.359	91.6
848.531	93.08
848.703	94.02
848.875	93.15
849.047	96.28
849.218	93.2
849.39	90.47
849.562	87.03
849.734	90.39
849.905	88.96
850.077	87.37
850.249	90.08
850.421	89.91
850.592	90.26
850.764	92.17
850.936	91.57
851.107	94.49
851.279	96.64
851.451	99.31
851.622	97.37
851.794	104.71
851.965	109.43
852.137	114.27
852.308	112.29
852.48	112.55
852.651	108.52
852.823	110.82
852.994	110.19
853.166	111.62
853.337	110.4
853.509	108.02
853.68	102.02
853.851	94.66
854.023	93.3
854.194	93.04
854.365	89.14
854.537	91.79
854.708	89.93
854.879	95.56
855.05	96.06
855.222	96.22
855.393	97.58
855.564	100.31
855.735	106.12
855.906	106.32
856.078	108.51
856.249	108.18
856.42	107.97
856.591	108.73
856.762	105.48
856.933	105.08
857.104	107.02
857.275	107.22
857.446	103.6
857.617	99.75
857.788	101.98
857.959	100.63
858.13	108.58
858.301	110.88
858.472	110.6
858.643	106.82
858.814	106.58
858.985	108.71
859.155	115.7
859.326	123.31
859.497	128.75
859.668	121.54
859.839	129.91
860.009	125.53
860.18	120.69
860.351	119.21
860.522	123.88
860.692	121.18
860.863	116.6
861.034	110.74
861.204	110.15
861.375	108.68
861.546	113.08
861.716	114.13
861.887	113.61
862.057	113.41
862.228	114.74
862.398	111.11
862.569	113.85
862.739	117.53
862.91	119.54
863.08	114.07
863.251	113.71
863.421	113.28
863.592	105.19
863.762	106.02
863.932	106.13
864.103	107
864.273	109.39
864.443	105.42
864.614	102.96
864.784	101.16
864.954	101.35
865.125	99.92
865.295	98.33
865.465	100.81
865.635	105.92
865.805	105.59
865.976	104.72
866.146	102.67
866.316	105.7
866.486	107.56
866.656	107.73
866.826	112.36
866.996	122.62
867.166	124.26
867.336	125.87
867.506	123.06
867.676	123.51
867.846	126.92
868.016	124.87
868.186	120.9
868.356	116.12
868.526	115.83
868.696	115.64
868.866	106.36
869.036	109.93
869.206	109.38
869.376	103.93
869.545	108.48
869.715	108.53
869.885	113.93
870.055	120.12
870.224	123.85
870.394	128.91
870.564	124.08
870.734	127.42
870.903	122.96
871.073	121.91
871.243	121.65
871.412	119.91
871.582	119.26
871.751	117.93
871.921	112.92
872.091	112.93
872.26	103.34
872.43	105.53
872.599	102.39
872.769	103.83
872.938	102.37
873.108	103.64
873.277	103.29
873.446	102.47
873.616	100.35
873.785	99.5
873.955	97.47
874.124	103.2
874.293	101.81
874.463	99.97
874.632	98.33
874.801	99.82
874.971	104.62
875.14	104.87
875.309	103.33
875.478	111.98
875.647	111.52
875.817	115.06
875.986	110.89
876.155	113.37
876.324	114.53
876.493	115.34
876.662	113.68
876.831	114.42
877	110.54
877.17	113.01
877.339	108.44
877.508	108.78
877.677	105.01
877.846	106
878.015	99.88
878.184	100.23
878.352	101.49
878.521	99.19
878.69	91.74
878.859	94.16
879.028	91.94
879.197	87.62
879.366	84.88
879.534	82.67
879.703	77.16
879.872	71.45
880.041	66.34
880.21	60.13
880.378	56.75
880.547	54.81
880.716	49.93
880.884	46.37
881.053	42.96
881.222	41.9
881.39	38.81
881.559	37.38
881.727	36.35
881.896	35.56
882.065	34.72
882.233	34.24
882.402	33.2
882.57	33.92
882.739	34.09
882.907	34.38
883.076	34.55
883.244	35.37
883.412	35.73
883.581	36.66
883.749	37.07
883.918	37.17
884.086	37.84
884.254	39.55
884.423	39.76
884.591	40.75
884.759	41.72
884.927	43.1
885.096	44.09
885.264	46.64
885.432	48.52
885.6	52.6
885.769	58.98
885.937	63.19
886.105	66.37
886.273	67.63
886.441	72.71
886.609	77.88
886.777	80.3
886.945	85.32
887.113	89
887.281	88.11
887.449	89.03
887.617	87.9
887.785	87.67
887.953	87.42
888.121	88.23
888.289	87.92
888.457	88.42
888.625	87.24
888.793	88.7
888.961	88.36
889.129	99.45
889.296	99.86
889.464	99.43
889.632	101.69
889.8	102.32
889.967	110.47
890.135	113.59
