Data from 2938834__Reflection_02.txt Node
Date: Thu Mar 12 11:41:50 EDT 2015
User: robert
Spectrometer: USB4E03002
Autoset integration time: false
Trigger mode: 4
Integration Time (sec): 1.000000E-1
Scans to average: 10
Electric dark correction enabled: false
Nonlinearity correction enabled: false
Boxcar width: 5
Stray light correction enabled: false
XAxis mode: Wavelengths
Stop averaging: false
Number of Pixels in Spectrum: 3648
>>>>>Begin Spectral Data<<<<<
177.575	172.81
177.794	182.82
178.014	168.65
178.233	172.26
178.452	162.21
178.672	147.79
178.891	147.19
179.11	141.07
179.33	152.9
179.549	146.86
179.768	24.86
179.987	-16.11
180.207	-13.37
180.426	-27.1
180.645	-203.12
180.864	2047.62
181.084	-365.67
181.303	-3.32
181.522	36.12
181.741	10.48
181.96	-26.52
182.179	-122.61
182.398	-31.06
182.618	-49.75
182.837	-372.5
183.056	-32.38
183.275	-57.43
183.494	-30.46
183.713	-33.57
183.932	-26.1
184.151	30.84
184.37	40.19
184.589	48.55
184.808	27.72
185.027	63.67
185.246	96.43
185.465	85.06
185.684	102.68
185.903	84.14
186.122	71.22
186.341	64.52
186.56	26.01
186.779	13.51
186.998	8.98
187.216	10.35
187.435	13.8
187.654	31.37
187.873	13.75
188.092	-22.37
188.311	-35.42
188.53	-42.77
188.748	-9.97
188.967	38.51
189.186	5.01
189.405	14.87
189.623	26.29
189.842	11.53
190.061	-7
190.28	-8.7
190.498	5.05
190.717	2.24
190.936	-3.82
191.154	-7.68
191.373	1.91
191.592	15.86
191.81	19.92
192.029	-71.91
192.248	-137.5
192.466	-3.49
192.685	3.83
192.904	-37.62
193.122	-9.28
193.341	12.59
193.559	-2.97
193.778	-20.47
193.996	14.29
194.215	9
194.433	30
194.652	31.44
194.87	12.33
195.089	-5.55
195.307	-7.48
195.526	-22.3
195.744	-39.5
195.963	8.9
196.181	-25.52
196.399	-75.28
196.618	-8.7
196.836	125.76
197.055	-280.52
197.273	-319.27
197.491	-175.31
197.71	-61.59
197.928	-33.33
198.146	8.31
198.365	-81.82
198.583	-33.52
198.801	-17.31
199.019	-46.15
199.238	-30.43
199.456	-41.18
199.674	-18.03
199.892	17.33
200.111	25.54
200.329	29.33
200.547	31.49
200.765	47.77
200.983	11.26
201.202	-25.76
201.42	-4.62
201.638	-14.66
201.856	-0.81
202.074	10.55
202.292	-48.15
202.51	-373.05
202.728	-106.93
202.946	-67.33
203.165	-57.32
203.383	-10.34
203.601	20.71
203.819	9.6
204.037	28.32
204.255	45.93
204.473	23.32
204.691	41.59
204.909	39.73
205.127	25.3
205.345	10.33
205.562	19.43
205.78	0.4
205.998	-17.89
206.216	-21.97
206.434	-30.26
206.652	-34.13
206.87	-37.58
207.088	-27.92
207.306	-6.22
207.523	-1.77
207.741	-3.66
207.959	-2.97
208.177	-10.07
208.395	-4.08
208.612	22
208.83	20.38
209.048	6.96
209.266	10.45
209.483	7.29
209.701	-6.06
209.919	-12.95
210.136	-9.64
210.354	-27.44
210.572	-18.62
210.79	-32.9
211.007	-39.42
211.225	-40.83
211.442	-24.65
211.66	-22.18
211.878	-32.83
212.095	68.74
212.313	63.85
212.53	59.15
212.748	61.55
212.966	78.01
213.183	99.38
213.401	88.85
213.618	117.2
213.836	104.62
214.053	120.67
214.271	130.48
214.488	43.3
214.705	42.91
214.923	32.67
215.14	31.94
215.358	15.74
215.575	6.62
215.793	14.33
216.01	-4.92
216.227	-6.34
216.445	-25.05
216.662	-42.45
216.879	-37.27
217.097	-43.53
217.314	-16.86
217.531	2.77
217.749	12.84
217.966	1.52
218.183	6.19
218.4	-2.54
218.618	11.79
218.835	30.58
219.052	38.6
219.269	21.51
219.487	23.76
219.704	17.21
219.921	-1.88
220.138	6.19
220.355	6.8
220.572	-2.28
220.79	7.22
221.007	-13.1
221.224	-14.4
221.441	-17.6
221.658	0.54
221.875	-3.73
222.092	-8.73
222.309	4.2
222.526	-2.12
222.743	-1.33
222.96	1.66
223.177	2.26
223.394	7.37
223.611	3.71
223.828	5.81
224.045	-7.7
224.262	-7.11
224.479	2.27
224.696	-2.78
224.913	4.95
225.13	10.02
225.347	8.79
225.564	6.37
225.781	5.9
225.997	5.7
226.214	5.43
226.431	9.52
226.648	8.9
226.865	7.68
227.082	6.82
227.298	4.13
227.515	3.22
227.732	4.43
227.949	5.35
228.165	4.54
228.382	4.74
228.599	4.57
228.816	3.58
229.032	4.51
229.249	4.56
229.466	4.07
229.682	4.52
229.899	4.26
230.116	5.1
230.332	4.75
230.549	5.09
230.765	4.68
230.982	5.22
231.199	6.57
231.415	4.97
231.632	4.75
231.848	5.34
232.065	4.75
232.281	4.9
232.498	3.41
232.714	3.85
232.931	1.6
233.147	1.82
233.364	-0.79
233.58	-0.26
233.797	-0.26
234.013	-1.05
234.23	-0.64
234.446	0.79
234.662	0.72
234.879	0.82
235.095	1.77
235.312	3.66
235.528	3.75
235.744	3.99
235.961	3.79
236.177	5.27
236.393	5.4
236.61	3.69
236.826	4.5
237.042	3.69
237.258	3.28
237.475	3.76
237.691	3.13
237.907	3.38
238.123	4.33
238.339	4.77
238.556	5.15
238.772	5.16
238.988	6.71
239.204	6.03
239.42	6.76
239.636	4.64
239.853	2.82
240.069	3.62
240.285	2.65
240.501	2.51
240.717	3
240.933	2.25
241.149	2.9
241.365	2.89
241.581	2.5
241.797	2.89
242.013	3.97
242.229	4.56
242.445	4.64
242.661	5.22
242.877	4.93
243.093	4.23
243.309	4.82
243.525	4.94
243.741	4.97
243.957	5.14
244.173	5.21
244.388	4.43
244.604	3.84
244.82	3.86
245.036	3.98
245.252	4.36
245.468	5.09
245.683	4.58
245.899	4.12
246.115	3.98
246.331	4.02
246.547	4.1
246.762	4.42
246.978	4.4
247.194	4.4
247.409	3.96
247.625	3.93
247.841	3.68
248.057	3.65
248.272	3.48
248.488	3.45
248.703	3.3
248.919	2.87
249.135	2.32
249.35	2.43
249.566	2.2
249.782	2.45
249.997	2.1
250.213	1.82
250.428	1.29
250.644	1.58
250.859	2.29
251.075	2.41
251.29	3.33
251.506	3.89
251.721	3.35
251.937	2.97
252.152	2.94
252.368	2.96
252.583	3.63
252.798	4.11
253.014	4.1
253.229	3.18
253.445	3.44
253.66	3.15
253.875	2.8
254.091	3.18
254.306	3.38
254.521	3.38
254.737	3.67
254.952	2.01
255.167	2.54
255.383	2.84
255.598	3.87
255.813	3.56
256.028	1.22
256.244	1.67
256.459	0.89
256.674	0.96
256.889	1.99
257.104	2.49
257.32	3.4
257.535	3.03
257.75	2.55
257.965	1.98
258.18	1.94
258.395	2.52
258.61	2.24
258.826	2.74
259.041	2.67
259.256	2.53
259.471	2.66
259.686	2.32
259.901	2.32
260.116	2.52
260.331	2.68
260.546	2.77
260.761	2.92
260.976	3.07
261.191	2.58
261.406	2.61
261.621	2.67
261.836	2.69
262.05	2.98
262.265	2.6
262.48	2.15
262.695	2.35
262.91	2.14
263.125	2.31
263.34	2.47
263.555	2.72
263.769	3.02
263.984	2.44
264.199	1.53
264.414	1.23
264.629	2.37
264.843	2.93
265.058	2
265.273	1.94
265.488	1.94
265.702	1.55
265.917	1.83
266.132	1.66
266.346	1.99
266.561	2.25
266.776	2.21
266.99	2.02
267.205	1.84
267.42	1.95
267.634	1.85
267.849	1.67
268.063	1.89
268.278	1.89
268.492	2.03
268.707	1.8
268.922	1.52
269.136	2.08
269.351	2.29
269.565	2.52
269.78	2.75
269.994	2.95
270.209	3.05
270.423	3.08
270.637	2.85
270.852	2.6
271.066	2.69
271.281	3.02
271.495	2.73
271.709	2.19
271.924	2.03
272.138	2.13
272.353	1.77
272.567	1.35
272.781	1.27
272.996	1.84
273.21	2.21
273.424	2.3
273.638	2.19
273.853	2.02
274.067	2.13
274.281	2.03
274.495	1.65
274.71	2.74
274.924	3.23
275.138	3.13
275.352	2.11
275.566	1.97
275.781	1.22
275.995	1.45
276.209	1.88
276.423	1.8
276.637	1.47
276.851	1.93
277.065	1.14
277.279	0.73
277.493	0.94
277.707	1.76
277.921	1.21
278.135	1.42
278.349	0.98
278.563	0.85
278.777	0.68
278.991	1.27
279.205	1.18
279.419	0.95
279.633	1.05
279.847	1.13
280.061	0.71
280.275	1.17
280.489	1.52
280.703	1.76
280.917	1.45
281.131	1.88
281.344	1.78
281.558	1.78
281.772	1.98
281.986	2.43
282.2	1.91
282.414	2.39
282.627	2.2
282.841	1.86
283.055	1.97
283.269	2.14
283.482	2.05
283.696	2.1
283.91	2.12
284.123	2.83
284.337	2.9
284.551	3.15
284.764	2.88
284.978	3.14
285.192	3.28
285.405	3.06
285.619	3.38
285.833	3.31
286.046	3.25
286.26	3.17
286.473	2.25
286.687	1.86
286.9	1.84
287.114	1.7
287.327	1.52
287.541	1.67
287.754	1.75
287.968	1.53
288.181	1.54
288.395	1.47
288.608	1.49
288.822	2.23
289.035	2.54
289.248	2.46
289.462	2.58
289.675	2.45
289.889	2.79
290.102	2.78
290.315	2.68
290.529	2.59
290.742	2.42
290.955	2.25
291.169	1.7
291.382	1.91
291.595	2.08
291.808	1.9
292.022	2.19
292.235	1.83
292.448	1.57
292.661	1.59
292.875	1.93
293.088	2.19
293.301	2.65
293.514	3.09
293.727	2.96
293.94	2.93
294.153	3.24
294.367	3.2
294.58	3.46
294.793	3.9
295.006	3.68
295.219	3.45
295.432	3.38
295.645	3.38
295.858	3.31
296.071	3.39
296.284	3.37
296.497	3.38
296.71	3.3
296.923	3.34
297.136	3.19
297.349	3.2
297.562	3.47
297.775	3.5
297.988	3.49
298.201	3.56
298.414	3.54
298.626	3.63
298.839	3.85
299.052	3.98
299.265	3.7
299.478	3.58
299.691	3.83
299.903	3.79
300.116	3.91
300.329	4.06
300.542	4.3
300.755	4.56
300.967	4.71
301.18	4.24
301.393	4.31
301.605	4.45
301.818	4.84
302.031	4.53
302.243	4.75
302.456	4.31
302.669	4.36
302.881	4.22
303.094	4
303.307	4.1
303.519	4.08
303.732	3.98
303.944	3.89
304.157	3.78
304.37	4.1
304.582	3.85
304.795	4.54
305.007	4.23
305.22	4.06
305.432	3.87
305.645	4.13
305.857	4.38
306.069	4.48
306.282	4.87
306.494	4.84
306.707	4.99
306.919	5.07
307.132	4.86
307.344	5.03
307.556	5.26
307.769	5.04
307.981	4.7
308.193	4.58
308.406	4.69
308.618	4.65
308.83	4.72
309.043	4.76
309.255	4.85
309.467	4.84
309.679	4.85
309.892	5.06
310.104	5.34
310.316	5.35
310.528	5.62
310.74	5.86
310.953	5.75
311.165	5.79
311.377	5.89
311.589	5.76
311.801	6.05
312.013	5.93
312.225	5.96
312.437	5.92
312.649	6.12
312.862	6.28
313.074	5.85
313.286	6.09
313.498	6.29
313.71	6.3
313.922	6.18
314.134	6.32
314.346	6.79
314.558	6.58
314.77	6.74
314.982	6.69
315.193	6.47
315.405	6.96
315.617	6.89
315.829	6.69
316.041	7.06
316.253	7.26
316.465	7.18
316.677	7.19
316.888	7.49
317.1	7.3
317.312	7.4
317.524	7.57
317.736	6.96
317.947	6.96
318.159	7.16
318.371	6.88
318.583	6.89
318.794	6.44
319.006	6.37
319.218	6.41
319.43	6.21
319.641	6.15
319.853	6.15
320.064	6.37
320.276	6.45
320.488	6.61
320.699	6.53
320.911	7
321.123	7.12
321.334	6.59
321.546	6.45
321.757	6.97
321.969	7.08
322.18	7.49
322.392	7.61
322.603	7.64
322.815	7.54
323.026	7.51
323.238	7.39
323.449	8.09
323.661	8.44
323.872	8.45
324.083	8.55
324.295	8.39
324.506	8.18
324.718	8.2
324.929	7.95
325.14	8.23
325.352	8.52
325.563	8.55
325.774	8.24
325.986	8.28
326.197	8.31
326.408	8.3
326.62	8.39
326.831	8.55
327.042	8.64
327.253	9.15
327.464	9.25
327.676	9.45
327.887	9.56
328.098	9.55
328.309	9.8
328.52	10.19
328.732	10.36
328.943	11
329.154	11.12
329.365	11.42
329.576	11.57
329.787	11.39
329.998	11.31
330.209	11.26
330.42	11.67
330.631	11.64
330.842	11.58
331.053	11.59
331.264	11.41
331.475	11.46
331.686	11.37
331.897	11.22
332.108	11.21
332.319	11.13
332.53	11.45
332.741	11.42
332.952	11.54
333.163	11.46
333.374	11.72
333.585	11.48
333.795	11.62
334.006	11.91
334.217	11.99
334.428	12.09
334.639	12.23
334.849	12.26
335.06	12.28
335.271	12.17
335.482	12.16
335.692	11.74
335.903	12.02
336.114	12.03
336.325	12.25
336.535	12.16
336.746	12.09
336.957	12.03
337.167	11.77
337.378	11.94
337.589	12.36
337.799	12.46
338.01	12.79
338.22	12.95
338.431	12.95
338.642	12.55
338.852	12.7
339.063	12.65
339.273	13.12
339.484	13.27
339.694	13.06
339.905	12.86
340.115	13.02
340.326	12.81
340.536	12.77
340.746	12.61
340.957	12.56
341.167	12.73
341.378	13.01
341.588	12.52
341.799	12.54
342.009	12.53
342.219	12.41
342.43	12.01
342.64	12.21
342.85	12.16
343.061	12.11
343.271	12.57
343.481	12.37
343.691	12.21
343.902	12.01
344.112	11.84
344.322	11.88
344.532	12.06
344.743	12.27
344.953	12.26
345.163	12.27
345.373	12.18
345.583	11.79
345.793	12.02
346.004	12.09
346.214	11.92
346.424	12.01
346.634	11.96
346.844	11.87
347.054	12.33
347.264	12.34
347.474	12.07
347.684	12.32
347.894	12.21
348.104	12.18
348.314	11.97
348.524	12.23
348.734	12.02
348.944	12.15
349.154	12.18
349.364	11.4
349.574	11.39
349.784	11.38
349.994	11.29
350.204	11.37
350.413	11.04
350.623	11.24
350.833	11.3
351.043	11.37
351.253	11.34
351.463	11.13
351.672	11.4
351.882	11.21
352.092	11.33
352.302	11.12
352.511	11.26
352.721	11.34
352.931	11.16
353.141	11.34
353.35	11.31
353.56	11.4
353.77	11.46
353.979	11.61
354.189	11.7
354.399	11.53
354.608	11.6
354.818	11.62
355.027	11.51
355.237	11.63
355.447	11.76
355.656	11.9
355.866	11.53
356.075	11.68
356.285	11.54
356.494	11.54
356.704	11.55
356.913	11.53
357.123	11.47
357.332	11.49
357.542	11.61
357.751	11.44
357.96	11.41
358.17	11.45
358.379	11.13
358.589	10.98
358.798	10.91
359.007	10.69
359.217	10.78
359.426	10.78
359.635	10.79
359.845	10.54
360.054	10.51
360.263	10.57
360.472	10.53
360.682	10.81
360.891	10.83
361.1	10.94
361.309	11.28
361.519	11.18
361.728	11.15
361.937	11.23
362.146	11.28
362.355	11.05
362.564	10.99
362.774	11
362.983	10.78
363.192	10.71
363.401	10.51
363.61	10.43
363.819	10.59
364.028	10.66
364.237	10.46
364.446	10.46
364.655	10.56
364.864	10.35
365.073	10.45
365.282	10.52
365.491	10.76
365.7	10.78
365.909	10.65
366.118	10.54
366.327	10.42
366.536	10.55
366.745	10.65
366.954	10.98
367.162	11.04
367.371	10.97
367.58	11.06
367.789	10.86
367.998	10.99
368.207	11.03
368.415	11.18
368.624	11.06
368.833	11.32
369.042	11.26
369.25	11.03
369.459	11.23
369.668	11.11
369.877	10.97
370.085	11.39
370.294	11.37
370.503	11.23
370.711	10.92
370.92	11.07
371.129	10.74
371.337	10.64
371.546	10.61
371.754	10.43
371.963	10.47
372.171	10.59
372.38	10.12
372.589	9.92
372.797	9.98
373.006	10.17
373.214	10.09
373.423	10.15
373.631	10.2
373.84	10.36
374.048	10.34
374.256	10.61
374.465	10.33
374.673	10.5
374.882	10.47
375.09	10.32
375.298	10.26
375.507	9.98
375.715	9.9
375.923	9.87
376.132	9.52
376.34	9.49
376.548	9.22
376.757	9.42
376.965	9.42
377.173	9.49
377.381	9.63
377.59	9.45
377.798	9.62
378.006	9.47
378.214	9.41
378.423	9.51
378.631	9.73
378.839	9.67
379.047	9.54
379.255	9.36
379.463	9.1
379.671	9.11
379.879	9.34
380.088	9.38
380.296	9.33
380.504	9.36
380.712	9.48
380.92	9.15
381.128	9.45
381.336	9.41
381.544	9.5
381.752	9.48
381.96	9.38
382.168	9.43
382.376	9.34
382.584	9.47
382.791	9.43
382.999	9.25
383.207	9.27
383.415	9.03
383.623	9.25
383.831	9.3
384.039	9.53
384.247	9.44
384.454	9.18
384.662	9.07
384.87	9.21
385.078	9.16
385.285	9.14
385.493	9.09
385.701	9.1
385.909	8.78
386.116	8.69
386.324	8.54
386.532	8.47
386.739	8.58
386.947	8.55
387.155	8.34
387.362	8.35
387.57	8.6
387.778	8.77
387.985	8.55
388.193	8.52
388.4	8.6
388.608	8.69
388.816	8.79
389.023	8.81
389.231	8.95
389.438	9.1
389.646	9.23
389.853	9.01
390.061	8.95
390.268	9.3
390.475	9.3
390.683	9.33
390.89	9.31
391.098	9.15
391.305	8.94
391.512	8.83
391.72	8.66
391.927	8.57
392.135	8.48
392.342	8.53
392.549	8.28
392.756	8.35
392.964	8.1
393.171	8.04
393.378	8.25
393.586	8.37
393.793	8.33
394	8.5
394.207	8.26
394.414	8.5
394.622	8.43
394.829	8.59
395.036	8.73
395.243	8.97
395.45	9.1
395.657	8.84
395.864	8.79
396.072	8.96
396.279	8.87
396.486	9.01
396.693	8.87
396.9	8.76
397.107	8.9
397.314	8.79
397.521	8.84
397.728	8.72
397.935	8.8
398.142	8.74
398.349	8.77
398.556	8.77
398.763	8.92
398.97	8.76
399.177	8.76
399.383	8.44
399.59	8.35
399.797	8.17
400.004	8.13
400.211	8.15
400.418	8.3
400.625	8.13
400.831	8.04
401.038	8.23
401.245	8.37
401.452	8.48
401.658	8.47
401.865	8.41
402.072	8.18
402.279	8.28
402.485	8.39
402.692	8.37
402.899	8.33
403.105	8.3
403.312	7.98
403.519	8.07
403.725	8.16
403.932	8.27
404.138	8.32
404.345	8.39
404.552	8.35
404.758	8.12
404.965	8.07
405.171	8.05
405.378	8.03
405.584	7.99
405.791	7.93
405.997	7.75
406.204	7.58
406.41	7.7
406.617	7.71
406.823	7.65
407.029	7.89
407.236	7.77
407.442	7.83
407.649	7.86
407.855	7.91
408.061	7.87
408.268	7.92
408.474	8.02
408.68	7.75
408.887	7.8
409.093	7.89
409.299	7.72
409.505	7.75
409.712	7.8
409.918	7.84
410.124	7.86
410.33	7.94
410.537	8
410.743	8.04
410.949	8.17
411.155	8.23
411.361	8.25
411.567	8.21
411.773	8.09
411.98	7.99
412.186	7.93
412.392	7.89
412.598	7.88
412.804	7.79
413.01	7.91
413.216	7.87
413.422	7.87
413.628	7.82
413.834	8.05
414.04	8.22
414.246	8.23
414.452	8.21
414.658	8.33
414.864	8.17
415.07	8.16
415.275	8.1
415.481	8.03
415.687	8.08
415.893	8.06
416.099	8.03
416.305	8.03
416.511	8.06
416.716	7.98
416.922	7.86
417.128	7.99
417.334	7.99
417.539	7.94
417.745	7.92
417.951	7.67
418.157	7.63
418.362	7.65
418.568	7.64
418.774	7.65
418.979	7.68
419.185	7.66
419.391	7.62
419.596	7.63
419.802	7.59
420.008	7.68
420.213	8.31
420.419	8.38
420.624	8.34
420.83	8.35
421.035	8.3
421.241	8.29
421.446	8.28
421.652	8.22
421.857	8.32
422.063	8.32
422.268	8.25
422.474	7.77
422.679	7.73
422.885	7.68
423.09	7.71
423.295	7.82
423.501	7.8
423.706	7.84
423.911	7.91
424.117	7.75
424.322	7.79
424.527	7.85
424.733	7.9
424.938	7.88
425.143	7.89
425.349	7.81
425.554	7.67
425.759	7.73
425.964	7.73
426.169	7.75
426.375	7.8
426.58	7.74
426.785	7.71
426.99	7.74
427.195	7.77
427.4	7.77
427.605	7.84
427.811	7.87
428.016	7.8
428.221	7.83
428.426	7.71
428.631	7.79
428.836	7.82
429.041	7.88
429.246	7.71
429.451	7.77
429.656	7.76
429.861	7.83
430.066	7.96
430.271	8.11
430.476	8.1
430.681	8.16
430.886	8.21
431.09	8.22
431.295	8.26
431.5	8.36
431.705	8.36
431.91	8.32
432.115	8.23
432.32	8.16
432.524	8.03
432.729	8.08
432.934	8.17
433.139	8.07
433.343	8.15
433.548	8.15
433.753	8.13
433.958	8.13
434.162	8.17
434.367	8.21
434.572	8.23
434.776	8.34
434.981	8.29
435.186	8.31
435.39	8.32
435.595	8.31
435.799	8.23
436.004	8.31
436.209	8.29
436.413	8.32
436.618	8.39
436.822	8.36
437.027	8.36
437.231	8.38
437.436	8.33
437.64	8.43
437.845	8.45
438.049	8.43
438.253	8.4
438.458	8.4
438.662	8.45
438.867	8.38
439.071	8.5
439.275	8.44
439.48	8.36
439.684	8.4
439.888	8.36
440.093	8.34
440.297	8.43
440.501	8.41
440.706	8.37
440.91	8.33
441.114	8.33
441.318	8.27
441.523	8.31
441.727	8.36
441.931	8.26
442.135	8.24
442.339	8.23
442.543	8.21
442.748	8.21
442.952	8.17
443.156	8.19
443.36	8.24
443.564	8.23
443.768	8.22
443.972	8.23
444.176	8.3
444.38	8.27
444.584	8.24
444.788	8.27
444.992	8.28
445.196	8.34
445.4	8.29
445.604	8.29
445.808	8.23
446.012	8.24
446.216	8.22
446.42	8.15
446.624	8.16
446.828	8.17
447.032	8.17
447.235	8.14
447.439	8.11
447.643	8.17
447.847	8.2
448.051	8.28
448.254	8.21
448.458	8.27
448.662	8.35
448.866	8.37
449.069	8.3
449.273	8.2
449.477	8.29
449.681	8.3
449.884	8.24
450.088	8.21
450.292	8.18
450.495	8.28
450.699	8.3
450.902	8.23
451.106	8.12
451.31	8.25
451.513	8.34
451.717	8.26
451.92	8.31
452.124	8.32
452.327	8.23
452.531	8.21
452.734	8.18
452.938	8.13
453.141	8.12
453.345	8.19
453.548	8.17
453.752	8.13
453.955	8.1
454.158	8.11
454.362	8.2
454.565	8.16
454.769	8.23
454.972	8.19
455.175	8.18
455.379	8.3
455.582	8.33
455.785	8.35
455.988	8.37
456.192	8.36
456.395	8.31
456.598	8.37
456.801	8.41
457.005	8.37
457.208	8.42
457.411	8.38
457.614	8.34
457.817	8.39
458.021	8.44
458.224	8.45
458.427	8.48
458.63	8.47
458.833	8.36
459.036	8.33
459.239	8.27
459.442	8.27
459.645	8.28
459.848	8.28
460.051	8.23
460.254	8.2
460.457	8.21
460.66	8.18
460.863	8.16
461.066	8.08
461.269	8.16
461.472	8.18
461.675	8.2
461.878	8.29
462.081	8.35
462.284	8.32
462.486	8.2
462.689	8.14
462.892	8.15
463.095	8.26
463.298	8.36
463.5	8.3
463.703	8.45
463.906	8.39
464.109	8.29
464.311	8.15
464.514	8.29
464.717	8.42
464.92	8.35
465.122	8.39
465.325	8.31
465.528	8.25
465.73	8.22
465.933	8.16
466.135	8.07
466.338	8.16
466.541	8.15
466.743	8.13
466.946	8.11
467.148	8.32
467.351	8.19
467.553	8.19
467.756	8.28
467.958	8.23
468.161	8.27
468.363	8.44
468.566	8.27
468.768	8.27
468.971	8.25
469.173	8.29
469.375	8.21
469.578	8.42
469.78	8.34
469.983	8.37
470.185	8.49
470.387	8.39
470.59	8.28
470.792	8.47
470.994	8.42
471.196	8.49
471.399	8.41
471.601	8.35
471.803	8.33
472.005	8.4
472.208	8.41
472.41	8.41
472.612	8.45
472.814	8.39
473.016	8.36
473.218	8.59
473.421	8.46
473.623	8.56
473.825	8.58
474.027	8.46
474.229	8.52
474.431	8.49
474.633	8.51
474.835	8.46
475.037	8.59
475.239	8.49
475.441	8.37
475.643	8.35
475.845	8.31
476.047	8.34
476.249	8.38
476.451	8.34
476.653	8.32
476.855	8.29
477.057	8.36
477.258	8.31
477.46	8.38
477.662	8.39
477.864	8.4
478.066	8.43
478.268	8.41
478.469	8.4
478.671	8.46
478.873	8.51
479.075	8.49
479.276	8.37
479.478	8.43
479.68	8.49
479.882	8.49
480.083	8.55
480.285	8.42
480.487	8.43
480.688	8.42
480.89	8.38
481.091	8.31
481.293	8.3
481.495	8.27
481.696	8.19
481.898	8.12
482.099	8.07
482.301	8
482.502	8.04
482.704	8
482.905	7.99
483.107	8
483.308	8.01
483.51	8.03
483.711	8.07
483.913	8.06
484.114	8.07
484.315	8.1
484.517	8.13
484.718	8.14
484.92	8.16
485.121	8.17
485.322	8.17
485.524	8.2
485.725	8.18
485.926	8.16
486.127	8.2
486.329	8.15
486.53	8.11
486.731	8.09
486.932	8.08
487.134	8.04
487.335	8.05
487.536	8.04
487.737	8.02
487.938	8.04
488.139	8.03
488.341	8.08
488.542	8.12
488.743	8.14
488.944	8.14
489.145	8.15
489.346	8.2
489.547	8.15
489.748	8.15
489.949	8.15
490.15	8.1
490.351	8.13
490.552	8.06
490.753	8.07
490.954	8.04
491.155	8.1
491.356	8.08
491.557	8.08
491.758	8.16
491.959	8.17
492.159	8.14
492.36	8.17
492.561	8.2
492.762	8.21
492.963	8.22
493.164	8.27
493.364	8.27
493.565	8.34
493.766	8.37
493.967	8.35
494.167	8.4
494.368	8.46
494.569	8.52
494.769	8.49
494.97	8.53
495.171	8.52
495.371	8.57
495.572	8.6
495.773	8.68
495.973	8.67
496.174	8.68
496.375	8.71
496.575	8.69
496.776	8.58
496.976	8.62
497.177	8.56
497.377	8.53
497.578	8.51
497.778	8.53
497.979	8.46
498.179	8.45
498.38	8.47
498.58	8.43
498.78	8.49
498.981	8.52
499.181	8.53
499.382	8.57
499.582	8.6
499.782	8.66
499.983	8.6
500.183	8.62
500.383	8.68
500.584	8.71
500.784	8.72
500.984	8.68
501.184	8.72
501.385	8.78
501.585	8.76
501.785	8.77
501.985	8.74
502.185	8.79
502.386	8.8
502.586	8.84
502.786	8.85
502.986	8.9
503.186	8.97
503.386	9.11
503.586	9.11
503.786	9.21
503.987	9.3
504.187	9.28
504.387	9.24
504.587	9.22
504.787	9.18
504.987	9.13
505.187	9.1
505.387	9.09
505.587	9.04
505.786	9.05
505.986	9.01
506.186	8.96
506.386	9.02
506.586	9.08
506.786	9.05
506.986	9.07
507.186	9.09
507.386	9.13
507.585	9.06
507.785	9.01
507.985	8.96
508.185	8.97
508.384	8.98
508.584	9.06
508.784	9.08
508.984	9.2
509.183	9.15
509.383	9.14
509.583	9.08
509.782	9.05
509.982	9.16
510.182	9.22
510.381	9.3
510.581	9.3
510.781	9.25
510.98	9.28
511.18	9.3
511.379	9.36
511.579	9.4
511.778	9.46
511.978	9.57
512.177	9.55
512.377	9.54
512.576	9.57
512.776	9.63
512.975	9.66
513.175	9.62
513.374	9.59
513.573	9.68
513.773	9.75
513.972	9.82
514.172	9.9
514.371	9.91
514.57	9.99
514.77	9.99
514.969	10
515.168	10.01
515.367	10.15
515.567	10.29
515.766	10.35
515.965	10.29
516.164	10.36
516.364	10.39
516.563	10.36
516.762	10.43
516.961	10.49
517.16	10.45
517.359	10.45
517.559	10.44
517.758	10.38
517.957	10.38
518.156	10.44
518.355	10.47
518.554	10.49
518.753	10.58
518.952	10.51
519.151	10.5
519.35	10.65
519.549	10.75
519.748	10.8
519.947	10.95
520.146	10.99
520.345	11.05
520.544	11.04
520.743	11.05
520.942	11.13
521.141	11.3
521.339	11.3
521.538	11.2
521.737	11.21
521.936	11.17
522.135	11.16
522.333	11.22
522.532	11.21
522.731	11.27
522.93	11.35
523.129	11.36
523.327	11.32
523.526	11.41
523.725	11.49
523.923	11.56
524.122	11.62
524.321	11.61
524.519	11.64
524.718	11.7
524.917	11.73
525.115	11.75
525.314	11.77
525.512	11.8
525.711	11.83
525.909	11.87
526.108	11.85
526.306	11.9
526.505	11.91
526.703	11.95
526.902	11.94
527.1	11.96
527.299	12.02
527.497	12.07
527.696	12.12
527.894	12.16
528.092	12.19
528.291	12.23
528.489	12.27
528.688	12.32
528.886	12.35
529.084	12.4
529.283	12.43
529.481	12.46
529.679	12.48
529.877	12.5
530.076	12.48
530.274	12.51
530.472	12.57
530.67	12.59
530.869	12.64
531.067	12.69
531.265	12.76
531.463	12.85
531.661	12.9
531.859	12.93
532.057	12.96
532.255	13.04
532.454	13.07
532.652	13.03
532.85	13.09
533.048	13.11
533.246	13.1
533.444	13.15
533.642	13.14
533.84	13.16
534.038	13.26
534.236	13.32
534.434	13.4
534.632	13.41
534.83	13.52
535.027	13.56
535.225	13.65
535.423	13.73
535.621	13.8
535.819	13.85
536.017	13.88
536.215	13.87
536.412	13.9
536.61	13.89
536.808	14.02
537.006	14.02
537.203	14.02
537.401	14.02
537.599	14.01
537.797	14.02
537.994	14.01
538.192	14.02
538.39	14.11
538.587	14.23
538.785	14.35
538.983	14.37
539.18	14.39
539.378	14.45
539.575	14.47
539.773	14.54
539.97	14.59
540.168	14.69
540.366	14.71
540.563	14.69
540.761	14.68
540.958	14.64
541.155	14.62
541.353	14.68
541.55	14.69
541.748	14.74
541.945	14.77
542.143	14.77
542.34	14.76
542.537	14.85
542.735	14.87
542.932	14.92
543.129	14.99
543.327	15.08
543.524	15.17
543.721	15.26
543.919	15.29
544.116	15.34
544.313	15.42
544.51	15.55
544.708	15.65
544.905	15.74
545.102	15.78
545.299	15.84
545.496	15.83
545.693	15.8
545.891	15.73
546.088	15.79
546.285	15.82
546.482	15.81
546.679	15.81
546.876	15.77
547.073	15.73
547.27	15.67
547.467	15.68
547.664	15.73
547.861	15.78
548.058	15.87
548.255	15.91
548.452	15.99
548.649	16.05
548.846	16.1
549.043	16.04
549.24	16.13
549.437	16.21
549.633	16.24
549.83	16.31
550.027	16.38
550.224	16.4
550.421	16.29
550.618	16.14
550.814	16.1
551.011	15.91
551.208	16.06
551.405	15.99
551.601	16
551.798	15.97
551.995	15.88
552.191	15.82
552.388	15.72
552.585	15.86
552.781	15.89
552.978	15.93
553.175	16
553.371	15.92
553.568	16.1
553.764	16.12
553.961	16.18
554.157	16.27
554.354	16.26
554.55	16.4
554.747	16.3
554.943	16.35
555.14	16.29
555.336	16.28
555.533	16.35
555.729	16.14
555.926	16.34
556.122	16.35
556.318	16.31
556.515	16.43
556.711	16.39
556.907	16.48
557.104	16.49
557.3	16.59
557.496	16.57
557.693	16.53
557.889	16.62
558.085	16.53
558.281	16.37
558.478	16.42
558.674	16.35
558.87	16.35
559.066	16.31
559.262	16.33
559.459	16.38
559.655	16.47
559.851	16.45
560.047	16.51
560.243	16.47
560.439	16.61
560.635	16.72
560.831	16.83
561.027	16.91
561.223	16.99
561.419	17.1
561.615	17.04
561.811	17.14
562.007	17.34
562.203	17.38
562.399	17.44
562.595	17.4
562.791	17.33
562.987	17.2
563.183	17.21
563.379	17.24
563.575	17.18
563.771	17.21
563.966	17.17
564.162	17.06
564.358	17.03
564.554	17.04
564.75	17.07
564.945	17.09
565.141	17.14
565.337	17.11
565.533	17
565.728	17.04
565.924	17.14
566.12	17.25
566.315	17.28
566.511	17.3
566.707	17.22
566.902	17.37
567.098	17.37
567.293	17.51
567.489	17.58
567.684	17.6
567.88	17.57
568.076	17.48
568.271	17.34
568.467	17.28
568.662	17.35
568.858	17.45
569.053	17.31
569.248	17.31
569.444	17.2
569.639	17.18
569.835	17.32
570.03	17.32
570.225	17.4
570.421	17.38
570.616	17.36
570.812	17.25
571.007	17.22
571.202	17.25
571.397	17.24
571.593	17.25
571.788	17.25
571.983	17.27
572.178	17.33
572.374	17.36
572.569	17.53
572.764	17.66
572.959	17.79
573.154	17.88
573.35	17.9
573.545	17.92
573.74	17.94
573.935	17.91
574.13	17.95
574.325	17.96
574.52	17.85
574.715	17.74
574.91	17.84
575.105	17.9
575.3	17.89
575.495	18.02
575.69	18.11
575.885	18.25
576.08	18.37
576.275	18.27
576.47	18.36
576.665	18.61
576.86	18.68
577.055	18.59
577.25	18.5
577.444	18.52
577.639	18.67
577.834	18.65
578.029	18.73
578.224	18.8
578.418	19.06
578.613	19.06
578.808	18.89
579.003	19
579.197	19.06
579.392	19.21
579.587	19.23
579.781	19.01
579.976	19.06
580.171	18.89
580.365	18.85
580.56	18.79
580.755	18.92
580.949	19.18
581.144	19.18
581.338	19.16
581.533	19.2
581.727	19.3
581.922	19.28
582.116	19.42
582.311	19.62
582.505	19.62
582.7	19.68
582.894	19.67
583.089	19.44
583.283	19.51
583.478	19.62
583.672	19.62
583.866	19.63
584.061	19.76
584.255	19.64
584.449	19.62
584.644	19.64
584.838	19.67
585.032	19.62
585.226	19.69
585.421	19.62
585.615	19.59
585.809	19.68
586.003	19.75
586.198	19.73
586.392	19.82
586.586	19.75
586.78	19.71
586.974	19.81
587.168	19.83
587.363	19.96
587.557	19.97
587.751	20.09
587.945	19.97
588.139	19.9
588.333	19.88
588.527	19.83
588.721	20
588.915	20.09
589.109	19.89
589.303	19.91
589.497	19.79
589.691	19.76
589.885	19.52
590.079	19.52
590.273	19.47
590.466	19.51
590.66	19.49
590.854	19.46
591.048	19.53
591.242	19.62
591.436	19.57
591.629	19.69
591.823	19.91
592.017	20.2
592.211	20.2
592.404	20.33
592.598	20.47
592.792	20.59
592.986	20.61
593.179	20.51
593.373	20.58
593.567	20.67
593.76	20.64
593.954	20.46
594.147	20.26
594.341	20.22
594.535	20.18
594.728	20.14
594.922	20
595.115	19.96
595.309	20.04
595.502	20.01
595.696	20.04
595.889	20.15
596.083	20.17
596.276	20.24
596.47	20.32
596.663	20.39
596.856	20.34
597.05	20.45
597.243	20.52
597.437	20.53
597.63	20.56
597.823	20.59
598.017	20.56
598.21	20.66
598.403	20.76
598.596	20.88
598.79	20.92
598.983	21.02
599.176	21.11
599.369	21.08
599.563	21.26
599.756	21.23
599.949	21.26
600.142	21.3
600.335	21.26
600.528	21.27
600.722	21.41
600.915	21.42
601.108	21.46
601.301	21.49
601.494	21.5
601.687	21.51
601.88	21.58
602.073	21.58
602.266	21.58
602.459	21.79
602.652	21.7
602.845	21.66
603.038	21.58
603.231	21.55
603.424	21.58
603.617	21.52
603.809	21.41
604.002	21.36
604.195	21.3
604.388	21.3
604.581	21.2
604.774	21.2
604.966	21.13
605.159	21.17
605.352	21.31
605.545	21.22
605.737	21.3
605.93	21.49
606.123	21.74
606.316	21.89
606.508	22.01
606.701	22.16
606.894	22.32
607.086	22.39
607.279	22.58
607.471	22.44
607.664	22.62
607.857	22.81
608.049	22.88
608.242	22.99
608.434	23.33
608.627	23.46
608.819	23.76
609.012	24.18
609.204	24.56
609.397	25.03
609.589	25.58
609.782	26.02
609.974	26.52
610.166	27.14
610.359	27.63
610.551	28.04
610.743	28.49
610.936	28.8
611.128	29.12
611.32	29.37
611.513	29.38
611.705	29.51
611.897	29.44
612.09	29.34
612.282	29
612.474	28.68
612.666	28.52
612.858	28.38
613.051	28.02
613.243	27.74
613.435	27.62
613.627	27.44
613.819	27.13
614.011	27.09
614.203	26.8
614.395	26.45
614.588	26.31
614.78	25.91
614.972	25.76
615.164	25.76
615.356	25.36
615.548	25.12
615.74	24.91
615.932	24.77
616.124	24.57
616.315	24.6
616.507	24.67
616.699	24.63
616.891	24.56
617.083	24.36
617.275	24.02
617.467	24.22
617.659	24.21
617.85	24.19
618.042	24.19
618.234	24.24
618.426	24.08
618.618	24.13
618.809	24.11
619.001	24.01
619.193	24
619.384	24.14
619.576	24.26
619.768	24.17
619.959	24.2
620.151	24.2
620.343	24.1
620.534	24.2
620.726	24.12
620.917	24.11
621.109	24.22
621.301	24.27
621.492	24.24
621.684	24.35
621.875	24.34
622.067	24.44
622.258	24.56
622.45	24.48
622.641	24.55
622.832	24.61
623.024	24.47
623.215	24.6
623.407	24.56
623.598	24.64
623.789	24.39
623.981	24.37
624.172	24.32
624.363	24.09
624.555	24.19
624.746	24.05
624.937	24.03
625.129	24.19
625.32	24.09
625.511	24.15
625.702	24.22
625.893	24.18
626.085	24.29
626.276	24.3
626.467	24.39
626.658	24.4
626.849	24.41
627.04	24.43
627.231	24.45
627.422	24.66
627.614	24.57
627.805	24.63
627.996	24.65
628.187	24.55
628.378	24.63
628.569	24.61
628.76	24.59
628.951	24.65
629.142	24.65
629.332	24.6
629.523	24.54
629.714	24.71
629.905	24.75
630.096	24.94
630.287	25.05
630.478	25.06
630.669	25.1
630.859	25.36
631.05	25.38
631.241	25.39
631.432	25.46
631.623	25.24
631.813	25.27
632.004	25.35
632.195	25.07
632.385	25.07
632.576	25.07
632.767	25.15
632.957	24.93
633.148	24.98
633.339	25.03
633.529	25.05
633.72	25.17
633.91	25.03
634.101	24.79
634.292	24.86
634.482	24.86
634.673	24.82
634.863	24.83
635.054	24.84
635.244	24.82
635.435	24.83
635.625	24.85
635.815	24.86
636.006	24.83
636.196	24.89
636.387	24.92
636.577	25.04
636.767	25.17
636.958	25.07
637.148	25.18
637.338	25.27
637.529	25.13
637.719	25.31
637.909	25.3
638.099	25.41
638.29	25.38
638.48	25.45
638.67	25.1
638.86	25.03
639.05	25.31
639.241	25.22
639.431	25.12
639.621	25.31
639.811	24.98
640.001	25.15
640.191	25.21
640.381	25.31
640.571	25.21
640.761	25.55
640.951	25.41
641.141	25.27
641.331	25.41
641.521	25.55
641.711	25.43
641.901	25.58
642.091	25.56
642.281	25.38
642.471	25.49
642.661	25.51
642.851	25.57
643.041	25.41
643.231	25.2
643.42	24.89
643.61	24.74
643.8	24.75
643.99	24.77
644.18	24.56
644.369	24.53
644.559	24.27
644.749	24.22
644.939	24.01
645.128	24.21
645.318	24.4
645.508	24.41
645.697	24.49
645.887	24.53
646.076	24.4
646.266	24.51
646.456	24.6
646.645	24.71
646.835	24.98
647.024	24.99
647.214	25.15
647.403	24.87
647.593	25.14
647.782	25.1
647.972	25.1
648.161	25.19
648.351	24.95
648.54	25.19
648.73	25.3
648.919	25.09
649.108	25.22
649.298	25.17
649.487	25.36
649.677	25.34
649.866	25.44
650.055	25.42
650.244	25.43
650.434	25.51
650.623	25.49
650.812	25.29
651.002	25.54
651.191	25.37
651.38	25.08
651.569	25.37
651.758	25.46
651.947	25.47
652.137	25.63
652.326	25.68
652.515	25.82
652.704	25.78
652.893	26
653.082	25.96
653.271	26.06
653.46	26.39
653.649	26.32
653.838	26.23
654.027	26.24
654.216	26.26
654.405	26.31
654.594	26.41
654.783	26.51
654.972	26.44
655.161	26.37
655.35	26.24
655.539	25.99
655.728	25.92
655.916	25.9
656.105	25.88
656.294	25.84
656.483	25.65
656.672	25.53
656.86	25.28
657.049	25.3
657.238	25.47
657.427	25.69
657.615	25.85
657.804	25.78
657.993	25.71
658.181	25.57
658.37	25.46
658.559	25.43
658.747	25.45
658.936	25.41
659.125	25.32
659.313	25.05
659.502	24.8
659.69	24.87
659.879	24.8
660.067	24.9
660.256	25.01
660.444	25.12
660.633	25.33
660.821	25.28
661.01	25.38
661.198	25.47
661.387	25.56
661.575	25.73
661.763	25.59
661.952	25.82
662.14	26.03
662.328	26.09
662.517	25.93
662.705	25.86
662.893	25.93
663.082	25.9
663.27	25.95
663.458	26.06
663.646	26.17
663.834	26.31
664.023	26.3
664.211	26.1
664.399	26.24
664.587	26.45
664.775	26.34
664.963	26.56
665.152	26.6
665.34	26.52
665.528	26.68
665.716	26.34
665.904	26.38
666.092	26.41
666.28	26.38
666.468	26.41
666.656	26.26
666.844	26.37
667.032	26.48
667.22	26.48
667.408	26.61
667.596	26.29
667.784	26.67
667.971	26.76
668.159	26.59
668.347	26.53
668.535	26.38
668.723	26.52
668.911	26.43
669.098	26.21
669.286	26.17
669.474	26.03
669.662	26.32
669.849	26.37
670.037	26.25
670.225	26.54
670.413	26.51
670.6	26.47
670.788	26.55
670.976	26.55
671.163	26.69
671.351	26.74
671.538	26.91
671.726	26.9
671.913	26.9
672.101	26.89
672.289	26.65
672.476	26.78
672.664	26.87
672.851	26.64
673.039	26.88
673.226	26.73
673.413	26.88
673.601	26.94
673.788	26.78
673.976	26.66
674.163	26.58
674.35	26.83
674.538	26.88
674.725	26.93
674.912	26.98
675.1	27.03
675.287	27.19
675.474	27.15
675.662	27.32
675.849	27.22
676.036	27.36
676.223	27.7
676.411	27.44
676.598	27.23
676.785	27.3
676.972	27.26
677.159	27.11
677.346	27.12
677.533	27.19
677.721	27.12
677.908	27.31
678.095	27.28
678.282	27.04
678.469	27.3
678.656	27.5
678.843	27.21
679.03	27.18
679.217	27.33
679.404	27.14
679.591	27.05
679.778	26.84
679.964	26.73
680.151	26.87
680.338	26.91
680.525	26.89
680.712	26.9
680.899	27.12
681.086	27.28
681.272	27.04
681.459	27.19
681.646	27.47
681.833	27.56
682.02	27.78
682.206	27.88
682.393	27.93
682.58	27.86
682.766	27.82
682.953	27.88
683.14	27.83
683.326	28.04
683.513	27.96
683.7	27.71
683.886	27.89
684.073	27.61
684.259	27.52
684.446	27.57
684.632	27.61
684.819	27.71
685.005	27.67
685.192	27.67
685.378	27.76
685.565	28.06
685.751	28.34
685.938	28.46
686.124	28.86
686.31	28.72
686.497	28.54
686.683	28.36
686.87	28.42
687.056	28.44
687.242	28.57
687.429	28.2
687.615	27.82
687.801	27.47
687.987	27.47
688.174	27.19
688.36	27.06
688.546	27.01
688.732	27.3
688.918	27.26
689.105	27.13
689.291	27.01
689.477	27.44
689.663	27.54
689.849	27.65
690.035	27.43
690.221	27.58
690.407	27.84
690.593	28.08
690.779	27.9
690.965	28.06
691.151	28.18
691.337	28.08
691.523	27.95
691.709	27.95
691.895	28.08
692.081	28.17
692.267	28.29
692.453	28.08
692.639	27.95
692.825	28.05
693.011	27.93
693.196	28.04
693.382	28.57
693.568	28.85
693.754	28.85
693.94	29.01
694.125	29.15
694.311	29.32
694.497	29.4
694.682	29.69
694.868	29.87
695.054	29.99
695.239	29.96
695.425	29.44
695.611	29.13
695.796	29.45
695.982	29.07
696.168	28.86
696.353	28.5
696.539	28.43
696.724	28.09
696.91	27.96
697.095	27.62
697.281	27.37
697.466	27.65
697.652	27.58
697.837	27.32
698.023	27.49
698.208	27.36
698.393	27.33
698.579	27.32
698.764	27.32
698.949	27.19
699.135	27.37
699.32	27.26
699.505	27.11
699.691	27.13
699.876	27.1
700.061	26.81
700.246	27.14
700.432	27.25
700.617	27.49
700.802	27.38
700.987	27.55
701.172	27.1
701.358	27.64
701.543	27.92
701.728	28.08
701.913	28.09
702.098	28.37
702.283	28.39
702.468	28.55
702.653	28.55
702.838	28.71
703.023	28.97
703.208	29.71
703.393	29.74
703.578	29.37
703.763	29.58
703.948	30.02
704.133	30.48
704.318	30.62
704.503	30.88
704.688	31.02
704.873	31.48
705.057	31.35
705.242	31.47
705.427	31.32
705.612	32.03
705.797	32.14
705.981	32.63
706.166	32.54
706.351	32.38
706.536	32.29
706.72	32.45
706.905	32.62
707.09	32.61
707.274	32.99
707.459	33.74
707.644	33.62
707.828	33.94
708.013	33.63
708.197	33.55
708.382	33.61
708.567	33.78
708.751	33.6
708.936	33.54
709.12	33.84
709.305	33.62
709.489	32.7
709.673	32.61
709.858	32.26
710.042	32.32
710.227	32.45
710.411	32.35
710.596	32.17
710.78	32.1
710.964	31.9
711.149	32
711.333	31.76
711.517	32.09
711.702	31.94
711.886	31.7
712.07	31.71
712.254	31.75
712.438	31.98
712.623	32.12
712.807	32.05
712.991	31.79
713.175	31.31
713.359	31.07
713.544	30.98
713.728	31.16
713.912	31.18
714.096	30.37
714.28	29.8
714.464	29.38
714.648	29.18
714.832	28.77
715.016	28.56
715.2	28.37
715.384	28.48
715.568	28.28
715.752	27.88
715.936	27.76
716.12	28.04
716.304	28.12
716.488	27.76
716.671	27.35
716.855	27.73
717.039	28.21
717.223	28.47
717.407	28.13
717.59	28.34
717.774	28.52
717.958	28.71
718.142	28.55
718.325	28.57
718.509	29.01
718.693	29.06
718.877	28.85
719.06	28.32
719.244	27.87
719.428	27.97
719.611	27.98
719.795	28.06
719.978	27.94
720.162	28.14
720.345	28.63
720.529	28.27
720.713	28.3
720.896	28.25
721.08	28.83
721.263	29.65
721.446	29.97
721.63	30.15
721.813	30
721.997	29.67
722.18	29.75
722.364	29.45
722.547	29.55
722.73	29.5
722.914	29.75
723.097	29.63
723.28	28.96
723.464	28.65
723.647	28.33
723.83	28.46
724.013	28.65
724.197	28.66
724.38	28.47
724.563	28.6
724.746	28.56
724.929	28.49
725.112	28.53
725.296	28.41
725.479	28.82
725.662	29
725.845	29.11
726.028	29.15
726.211	29.13
726.394	28.87
726.577	28.9
726.76	28.84
726.943	28.77
727.126	28.9
727.309	28.84
727.492	28.42
727.675	28.4
727.858	28.17
728.041	28.22
728.224	27.95
728.407	28.61
728.589	29.08
728.772	29.43
728.955	29.39
729.138	29.05
729.321	29.1
729.503	29.23
729.686	29.23
729.869	29.19
730.052	29.14
730.234	29.53
730.417	29.24
730.6	29
730.782	28.95
730.965	28.93
731.148	29.11
731.33	29.32
731.513	29.27
731.695	29.11
731.878	29.33
732.061	29.47
732.243	29.34
732.426	29.43
732.608	29.16
732.791	29.83
732.973	29.89
733.156	30.15
733.338	30.3
733.52	30.55
733.703	30.52
733.885	30.61
734.068	30.5
734.25	30.71
734.432	30.89
734.615	31.4
734.797	30.62
734.979	31.07
735.162	30.82
735.344	31.04
735.526	31.08
735.708	31.53
735.891	31.04
736.073	31.2
736.255	31.11
736.437	30.91
736.619	30.58
736.802	31.18
736.984	31.13
737.166	31.52
737.348	30.98
737.53	31.26
737.712	31.72
737.894	32.18
738.076	32.48
738.258	32.81
738.44	33.05
738.622	33.1
738.804	33.08
738.986	32.9
739.168	32.93
739.35	33.26
739.532	33.35
739.714	32.63
739.896	33.14
740.078	33.02
740.259	33.25
740.441	32.94
740.623	32.96
740.805	32.8
740.987	33.32
741.168	33.6
741.35	33.76
741.532	34.02
741.714	34.12
741.895	33.71
742.077	33.4
742.259	33.37
742.44	33.95
742.622	34.32
742.804	34.41
742.985	34.36
743.167	33.64
743.348	33.82
743.53	33.89
743.711	34.46
743.893	34.48
744.075	35.27
744.256	34.89
744.438	34.77
744.619	34.81
744.8	34.86
744.982	34.57
745.163	34.86
745.345	34.92
745.526	34.82
745.707	34.61
745.889	34.89
746.07	34.45
746.252	34.96
746.433	34.88
746.614	34.87
746.795	35.55
746.977	35.07
747.158	35.36
747.339	34.83
747.52	34.05
747.702	33.51
747.883	33.51
748.064	33.62
748.245	33.57
748.426	33.53
748.607	33.37
748.788	32.53
748.97	32.68
749.151	32.11
749.332	32.42
749.513	33.11
749.694	33.48
749.875	32.99
750.056	33.06
750.237	32.98
750.418	33.03
750.599	33.14
750.78	33.51
750.96	33.68
751.141	34.7
751.322	34.56
751.503	34.5
751.684	34.62
751.865	35.23
752.046	35.38
752.226	35.61
752.407	36.18
752.588	35.66
752.769	35.02
752.949	35.18
753.13	34.43
753.311	34.78
753.492	34.48
753.672	34.39
753.853	34.11
754.034	34
754.214	33.73
754.395	33.21
754.575	33.14
754.756	33.77
754.937	34.66
755.117	34.78
755.298	34.71
755.478	34.62
755.659	34.26
755.839	34.25
756.02	33.91
756.2	33.38
756.381	33.32
756.561	34.13
756.741	33.56
756.922	32.83
757.102	32.93
757.283	32.35
757.463	32.55
757.643	32.23
757.823	31.88
758.004	31.02
758.184	30.32
758.364	29.91
758.545	28.88
758.725	29.1
758.905	28.33
759.085	27.43
759.265	27.16
759.446	26.39
759.626	26.92
759.806	25.86
759.986	25.65
760.166	25.71
760.346	24.98
760.526	24.26
760.706	24.01
760.886	24.03
761.066	24.68
761.246	25.08
761.426	24.82
761.606	24.68
761.786	25.57
761.966	26.16
762.146	26.56
762.326	27.3
762.506	28.05
762.686	27.73
762.866	27.95
763.046	27.75
763.225	27.91
763.405	28.36
763.585	28.5
763.765	28.38
763.945	28.43
764.124	28.44
764.304	28.85
764.484	28.61
764.664	28.97
764.843	28.96
765.023	29.25
765.203	28.74
765.382	28.85
765.562	28.76
765.741	28.82
765.921	29.23
766.101	29.58
766.28	29.82
766.46	30.65
766.639	30.65
766.819	31.08
766.998	31.1
767.178	31.93
767.357	32.33
767.537	32.98
767.716	33.79
767.896	33.84
768.075	33.88
768.254	34.23
768.434	34.98
768.613	35.3
768.792	35.54
768.972	35.2
769.151	35.3
769.33	35.83
769.51	35.82
769.689	35.29
769.868	34.97
770.047	35.43
770.226	34.25
770.406	33.61
770.585	33.7
770.764	33.95
770.943	35.29
771.122	35.11
771.301	34.29
771.48	33.84
771.66	34.46
771.839	35.28
772.018	35.36
772.197	35.78
772.376	35.95
772.555	35.84
772.734	35.23
772.913	34.18
773.092	33.8
773.271	33.49
773.449	33.32
773.628	33.25
773.807	33.23
773.986	33.3
774.165	33.63
774.344	33.83
774.523	34.52
774.701	35.63
774.88	35.64
775.059	36.16
775.238	37.22
775.417	38.56
775.595	38.67
775.774	38.58
775.953	38.67
776.131	38.27
776.31	37.5
776.489	36.97
776.667	36.19
776.846	36.35
777.025	37.31
777.203	36.18
777.382	34.71
777.56	34.86
777.739	35.4
777.917	34.76
778.096	35.12
778.274	35.58
778.453	35.25
778.631	36.03
778.81	35.98
778.988	35.49
779.166	35.95
779.345	36.57
779.523	36.14
779.702	35.83
779.88	36.07
780.058	36.46
780.237	37.06
780.415	36.69
780.593	36.04
780.771	35.58
780.95	36.17
781.128	36.45
781.306	36.6
781.484	37.47
781.662	37
781.841	37.76
782.019	37
782.197	37.17
782.375	37.76
782.553	38.08
782.731	38.95
782.909	37.53
783.087	37.4
783.265	36.66
783.443	35.67
783.621	35.63
783.799	35.23
783.977	35.15
784.155	34.06
784.333	34.38
784.511	33.73
784.689	33.33
784.867	34.86
785.045	34.29
785.223	35.21
785.4	35.21
785.578	35.31
785.756	35.63
785.934	35.65
786.112	36.16
786.289	35.99
786.467	36
786.645	36.68
786.823	35.94
787	36.52
787.178	36.1
787.356	36.35
787.533	36.72
787.711	36.01
787.889	35.76
788.066	35.66
788.244	35.96
788.421	35.86
788.599	35.23
788.776	34.71
788.954	33.82
789.131	34.07
789.309	33.87
789.486	34.41
789.664	34.42
789.841	35.13
790.019	35.34
790.196	35.71
790.373	35.17
790.551	35.3
790.728	35.82
790.906	36.47
791.083	36.08
791.26	36.09
791.437	34.52
791.615	34.25
791.792	33.35
791.969	32.52
792.146	31.03
792.324	31.63
792.501	31.38
792.678	31.44
792.855	31.97
793.032	31.55
793.209	31.22
793.387	32.22
793.564	32.55
793.741	32.81
793.918	33.43
794.095	33.1
794.272	33.2
794.449	33.98
794.626	33.74
794.803	33.91
794.98	34.95
795.157	35.08
795.334	34.97
795.511	33.96
795.688	33.76
795.864	33.92
796.041	34.31
796.218	34.5
796.395	34.24
796.572	34.25
796.749	33.83
796.925	32.75
797.102	32.69
797.279	30.96
797.456	32.19
797.632	31.96
797.809	31.14
797.986	31.85
798.162	31.1
798.339	29.73
798.516	29.55
798.692	29.6
798.869	30.57
799.046	29.81
799.222	30.99
799.399	31.36
799.575	31.48
799.752	31.35
799.928	31.28
800.105	30.99
800.281	31.8
800.458	32.78
800.634	31.85
800.811	31.05
800.987	32.55
801.163	31.94
801.34	30.9
801.516	31.29
801.692	31.88
801.869	31.82
802.045	32.17
802.221	33.4
802.398	32.57
802.574	33.1
802.75	34.25
802.926	33.17
803.103	33.79
803.279	33.79
803.455	33.54
803.631	33.04
803.807	32.95
803.983	33.67
804.16	32.53
804.336	32.33
804.512	31.92
804.688	30.6
804.864	30.96
805.04	31.55
805.216	31.76
805.392	31.33
805.568	31.25
805.744	31.04
805.92	30.44
806.096	31.23
806.272	32.25
806.448	32.6
806.623	33.04
806.799	34.58
806.975	34.23
807.151	33.54
807.327	33.81
807.503	34.5
807.678	34.6
807.854	35.39
808.03	34.39
808.206	33.32
808.381	32.82
808.557	32.03
808.733	30.29
808.908	30.59
809.084	31.76
809.26	32.72
809.435	32.43
809.611	32.16
809.787	31.01
809.962	30.57
810.138	30.46
810.313	31.09
810.489	32.19
810.664	32.25
810.84	32.1
811.015	31.46
811.191	30.79
811.366	29.52
811.542	28.66
811.717	28.98
811.892	28.83
812.068	28.18
812.243	28.71
812.419	28.93
812.594	29.17
812.769	28.97
812.944	29.08
813.12	28.9
813.295	31.15
813.47	31.53
813.645	31.31
813.821	32.26
813.996	31.64
814.171	30.82
814.346	29.94
814.521	29.25
814.697	28.91
814.872	28.36
815.047	27.94
815.222	26.16
815.397	25.42
815.572	24.57
815.747	26.06
815.922	26.84
816.097	25.99
816.272	26.2
816.447	25.66
816.622	25.27
816.797	26.37
816.972	26.04
817.147	27.3
817.322	26.76
817.496	26.34
817.671	24.01
817.846	24.06
818.021	25.58
818.196	25.24
818.371	25.58
818.545	26.38
818.72	25.71
818.895	26.31
819.069	26.25
819.244	27.11
819.419	29.27
819.594	29.01
819.768	28.63
819.943	27.93
820.117	27.07
820.292	27.13
820.467	26.98
820.641	26.81
820.816	25.84
820.99	25.12
821.165	24.75
821.339	24.07
821.514	24.55
821.688	24.49
821.863	24.48
822.037	24.67
822.212	24.6
822.386	24.3
822.56	24.13
822.735	24.25
822.909	24
823.084	23.95
823.258	23.99
823.432	23.72
823.606	23.73
823.781	23.66
823.955	23.77
824.129	23.78
824.303	24.09
824.478	23.97
824.652	24.27
824.826	24.93
825	25.28
825.174	25.58
825.348	25.21
825.523	25.52
825.697	25.23
825.871	24.96
826.045	25.02
826.219	24.78
826.393	25.41
826.567	25.08
826.741	24.65
826.915	24.63
827.089	24.68
827.263	25.36
827.437	25.13
827.611	25.72
827.784	25.56
827.958	24.92
828.132	24.97
828.306	24.84
828.48	24.24
828.654	24.43
828.827	24.51
829.001	24.16
829.175	23.95
829.349	23.31
829.522	23.08
829.696	23.79
829.87	25.42
830.044	25.53
830.217	25.83
830.391	28.18
830.565	28.49
830.738	28.16
830.912	27.76
831.085	27.88
831.259	29.35
831.432	28.23
831.606	26.86
831.779	25.9
831.953	27.31
832.126	26.58
832.3	25.54
832.473	26.14
832.647	26.8
832.82	26.16
832.994	25.7
833.167	25.68
833.34	26.46
833.514	26.86
833.687	27.16
833.86	26.3
834.034	26.17
834.207	25.9
834.38	24.9
834.553	25.21
834.727	26.33
834.9	26.7
835.073	26.78
835.246	26.84
835.419	26.93
835.593	26.38
835.766	25.45
835.939	24.8
836.112	25.2
836.285	25.19
836.458	24.17
836.631	23.12
836.804	23.01
836.977	22.65
837.15	22.78
837.323	22.11
837.496	22.7
837.669	23.23
837.842	23.95
838.015	22.66
838.188	23.44
838.361	22.95
838.533	23.39
838.706	23.97
838.879	25.17
839.052	24.76
839.225	27.56
839.398	25.91
839.57	26.33
839.743	27.58
839.916	29.32
840.088	30.99
840.261	31.79
840.434	31.58
840.607	32.3
840.779	31.59
840.952	30.91
841.124	28.93
841.297	30.28
841.47	29.41
841.642	28.44
841.815	29.17
841.987	27.82
842.16	29.44
842.332	29.14
842.505	26.69
842.677	26.63
842.85	26.59
843.022	27.1
843.194	26.46
843.367	30.74
843.539	31.91
843.712	30.49
843.884	31.42
844.056	30.87
844.229	32.18
844.401	33.5
844.573	34.85
844.745	34.5
844.918	33.85
845.09	34.46
845.262	30.44
845.434	31.47
845.606	34.59
845.779	33.51
845.951	33.48
846.123	33.59
846.295	35.14
846.467	34.8
846.639	35.01
846.811	35.91
846.983	37.13
847.155	38.49
847.327	36.89
847.499	34.66
847.671	33.94
847.843	33.01
848.015	32.24
848.187	31.01
848.359	31.42
848.531	31.8
848.703	32.48
848.875	34.36
849.047	35.75
849.218	40.25
849.39	42.22
849.562	42.9
849.734	41.35
849.905	43.33
850.077	42.41
850.249	42.18
850.421	42.57
850.592	44.72
850.764	44.15
850.936	42.79
851.107	41.63
851.279	38.65
851.451	41.42
851.622	39.59
851.794	37.49
851.965	37.96
852.137	38
852.308	39.95
852.48	36.25
852.651	37.43
852.823	41.38
852.994	37.7
853.166	38.86
853.337	37.98
853.509	40.97
853.68	44.03
853.851	42.84
854.023	42.14
854.194	38.99
854.365	39.77
854.537	37
854.708	31.59
854.879	33.51
855.05	35.33
855.222	33.29
855.393	33.58
855.564	30.52
855.735	32.14
855.906	28.27
856.078	31.37
856.249	30.97
856.42	29.19
856.591	29.61
856.762	29.11
856.933	30.72
857.104	30.68
857.275	30.77
857.446	33.01
857.617	31.33
857.788	34.58
857.959	28.07
858.13	26.26
858.301	23.72
858.472	25.36
858.643	26.45
858.814	17.81
858.985	17.6
859.155	16.19
859.326	17.73
859.497	19.29
859.668	21.87
859.839	28.76
860.009	29
860.18	30.88
860.351	31.25
860.522	30.36
860.692	34.14
860.863	35.36
861.034	33.22
861.204	29.42
861.375	27.93
861.546	27.66
861.716	23.83
861.887	25.74
862.057	32.75
862.228	33.38
862.398	33.54
862.569	32.48
862.739	32.06
862.91	33.18
863.08	32.87
863.251	36.06
863.421	32.55
863.592	33.49
863.762	32.66
863.932	27
864.103	23.98
864.273	21.51
864.443	24.13
864.614	23.24
864.784	24.83
864.954	28.26
865.125	23.21
865.295	22.51
865.465	22.95
865.635	18.73
865.805	15.52
865.976	16.29
866.146	18.46
866.316	21.69
866.486	22.98
866.656	25.43
866.826	25.96
866.996	29.3
867.166	30.07
867.336	27.42
867.506	31.5
867.676	32.86
867.846	34.08
868.016	32.82
868.186	29.47
868.356	28.7
868.526	28.17
868.696	28.32
868.866	30.7
869.036	30.68
869.206	29.26
869.376	29.55
869.545	29.58
869.715	29.73
869.885	31.23
870.055	31.19
870.224	30.38
870.394	26.82
870.564	23.91
870.734	23.47
870.903	20.27
871.073	28.16
871.243	26.58
871.412	28.33
871.582	28.8
871.751	28.63
871.921	26.02
872.091	28.53
872.26	32.45
872.43	32.22
872.599	27.67
872.769	30.27
872.938	26.97
873.108	30.82
873.277	32.33
873.446	27.73
873.616	26.77
873.785	28.07
873.955	24.29
874.124	24.59
874.293	21.52
874.463	23.93
874.632	25.1
874.801	26.56
874.971	24.9
875.14	24.58
875.309	27.26
875.478	28.25
875.647	31.3
875.817	31.47
875.986	31.16
876.155	34.05
876.324	34.63
876.493	37.53
876.662	37.87
876.831	34.58
877	32.3
877.17	31.35
877.339	30.76
877.508	26.89
877.677	29.2
877.846	24.68
878.015	22.51
878.184	20.65
878.352	16.42
878.521	13.73
878.69	17.89
878.859	19.32
879.028	23.81
879.197	23.24
879.366	22.7
879.534	21.93
879.703	23.46
879.872	26.49
880.041	26.26
880.21	26.29
880.378	27.09
880.547	25.54
880.716	24.54
880.884	23.08
881.053	22.76
881.222	22.77
881.39	22.23
881.559	21.6
881.727	21.13
881.896	21.03
882.065	21.02
882.233	20.61
882.402	20.4
882.57	20.35
882.739	20.58
882.907	21.48
883.076	21.8
883.244	22.09
883.412	22.05
883.581	22.01
883.749	22.4
883.918	22.33
884.086	22.39
884.254	22.39
884.423	22.44
884.591	22.16
884.759	20.81
884.927	20.08
885.096	19.75
885.264	19.28
885.432	17.97
885.6	16.9
885.769	17.6
885.937	17
886.105	18.46
886.273	18.24
886.441	17.54
886.609	16.3
886.777	15.6
886.945	15.09
887.113	17.32
887.281	20.85
887.449	23.24
887.617	18.86
887.785	20.91
887.953	19.49
888.121	22.2
888.289	24.08
888.457	24.51
888.625	29.28
888.793	30.57
888.961	29.05
889.129	28.23
889.296	26.43
889.464	30.08
889.632	29.02
889.8	31.45
889.967	29.66
890.135	29.19
