Data from 2938851__Reflection_03.txt Node
Date: Wed Mar 11 12:56:22 EDT 2015
User: robert
Spectrometer: USB4E03002
Autoset integration time: false
Trigger mode: 4
Integration Time (sec): 1.000000E-1
Scans to average: 10
Electric dark correction enabled: false
Nonlinearity correction enabled: false
Boxcar width: 5
Stray light correction enabled: false
XAxis mode: Wavelengths
Stop averaging: false
Number of Pixels in Spectrum: 3648
>>>>>Begin Spectral Data<<<<<
177.575	-51.85
177.794	-87.5
178.014	-82.19
178.233	-279.41
178.452	-114.6
178.672	-42.07
178.891	-42.51
179.11	-53.38
179.33	-139.39
179.549	-169.06
179.768	-308.65
179.987	-368.95
180.207	-337.01
180.426	-306.28
180.645	-271.61
180.864	-210.44
181.084	-431.38
181.303	-2223.81
181.522	-818.58
181.741	-461.54
181.96	-649.65
182.179	-1320.69
182.398	-875.29
182.618	851.65
182.837	1541.54
183.056	2291.49
183.275	402.86
183.494	424.39
183.713	680
183.932	324.22
184.151	340.51
184.37	398.64
184.589	819.21
184.808	897.81
185.027	-2680.95
185.246	-1085.56
185.465	-331.73
185.684	-178.53
185.903	-183.38
186.122	-117.16
186.341	-130.54
186.56	-101.42
186.779	-61.01
186.998	-43.95
187.216	-26.79
187.435	-32.16
187.654	-31.4
187.873	-30.7
188.092	-49.26
188.311	-43.74
188.53	-32.17
188.748	-23.67
188.967	-18.62
189.186	-22.71
189.405	-18.31
189.623	2.03
189.842	4.39
190.061	-3.02
190.28	-12.71
190.498	-7.27
190.717	-20
190.936	-19.77
191.154	-15.01
191.373	-13.97
191.592	-46.5
191.81	-58.16
192.029	-106.1
192.248	-237.76
192.466	-247.59
192.685	-273.67
192.904	-286.46
193.122	-265.9
193.341	-697.9
193.559	-710
193.778	-1346.91
193.996	-663.43
194.215	-570.73
194.433	-330.74
194.652	-231.39
194.87	-254.79
195.089	-213.38
195.307	-201.1
195.526	-240.12
195.744	-102.19
195.963	-102.12
196.181	-84.34
196.399	-83.71
196.618	-73.33
196.836	-79.05
197.055	-25.39
197.273	2.65
197.491	-37.38
197.71	-87.87
197.928	-57.68
198.146	-87.23
198.365	-113.93
198.583	-102.23
198.801	-100.48
199.019	-109.16
199.238	-115.79
199.456	-168.09
199.674	-226.22
199.892	-110.76
200.111	-68.33
200.329	-80.32
200.547	-84.51
200.765	-59.48
200.983	-90.69
201.202	-96.35
201.42	-61.81
201.638	-51.47
201.856	-52.99
202.074	-73.34
202.292	-99.27
202.51	-127.02
202.728	-168.45
202.946	-114.29
203.165	-147.79
203.383	-104.32
203.601	-146.56
203.819	-198.26
204.037	-235.97
204.255	-116.31
204.473	-130.66
204.691	-141.53
204.909	-165.65
205.127	-162.69
205.345	-221.87
205.562	-177.33
205.78	-192.41
205.998	-259.53
206.216	-242.93
206.434	-123.81
206.652	-108.13
206.87	-91.48
207.088	-45.29
207.306	-38.94
207.523	-34.38
207.741	-36.38
207.959	-24.81
208.177	-32.26
208.395	-23.29
208.612	-35.07
208.83	-72.2
209.048	-100.43
209.266	-68.77
209.483	-125.43
209.701	-131.28
209.919	-131.25
210.136	-189.49
210.354	-162.63
210.572	-151.24
210.79	-164.32
211.007	-210.06
211.225	-177.22
211.442	-158.61
211.66	-238.71
211.878	-209.3
212.095	-157.18
212.313	-156.98
212.53	-107.52
212.748	-89.57
212.966	-77.78
213.183	-65.51
213.401	-35.59
213.618	-38.4
213.836	-19
214.053	-16.89
214.271	-12.46
214.488	-15.09
214.705	-25.25
214.923	-48.95
215.14	-65.92
215.358	-81.2
215.575	-63.44
215.793	-74.04
216.01	-96.3
216.227	-99.38
216.445	-69.78
216.662	-55.07
216.879	-53.12
217.097	-42.93
217.314	-19.93
217.531	-13.03
217.749	5.35
217.966	3.74
218.183	12.95
218.4	15.48
218.618	10.28
218.835	9.69
219.052	-4.36
219.269	0.74
219.487	-6.63
219.704	-21.57
219.921	-23.28
220.138	-28.06
220.355	-29.37
220.572	-29.85
220.79	-22.8
221.007	-16.21
221.224	-33.32
221.441	-30.67
221.658	-28.66
221.875	-22.92
222.092	-17.19
222.309	-17.68
222.526	-18.77
222.743	-21.92
222.96	-28.01
223.177	-31.91
223.394	-34.88
223.611	-28.74
223.828	-21.41
224.045	-21.23
224.262	-19.42
224.479	-16.76
224.696	-12.79
224.913	-7.5
225.13	-3.53
225.347	-6.49
225.564	-2.4
225.781	-3.79
225.997	-2.65
226.214	-3.48
226.431	-2.78
226.648	-2.42
226.865	-2.5
227.082	-1.82
227.298	-2.91
227.515	-2.82
227.732	-1
227.949	-0.73
228.165	-0.86
228.382	-0.54
228.599	-0.04
228.816	0.22
229.032	0.83
229.249	0.96
229.466	0.24
229.682	0.12
229.899	0.3
230.116	0.64
230.332	-0.02
230.549	0.69
230.765	0.32
230.982	-0.11
231.199	-0.1
231.415	-1.37
231.632	-2.16
231.848	-1.58
232.065	-0.54
232.281	-0.63
232.498	-1.69
232.714	-1.95
232.931	-1.98
233.147	-0.25
233.364	-0.06
233.58	0.16
233.797	1.36
234.013	1.17
234.23	1.03
234.446	0.03
234.662	-0.62
234.879	-1.38
235.095	-0.88
235.312	-0.71
235.528	-2.78
235.744	-2.26
235.961	-2.83
236.177	-3.51
236.393	-2.99
236.61	-2.52
236.826	-1.11
237.042	0.11
237.258	-0.49
237.475	-1.13
237.691	-2.65
237.907	-0.97
238.123	-1.97
238.339	-1.88
238.556	-1.61
238.772	-1.35
238.988	-1.75
239.204	-1.67
239.42	-2.04
239.636	0.32
239.853	0.47
240.069	0.49
240.285	0.46
240.501	1.08
240.717	0.76
240.933	0.24
241.149	0.3
241.365	-0.24
241.581	-0.37
241.797	-0.46
242.013	-0.52
242.229	0.03
242.445	0.76
242.661	0.44
242.877	0.14
243.093	0.4
243.309	0.59
243.525	0.75
243.741	1.17
243.957	1.04
244.173	1.21
244.388	1
244.604	0.53
244.82	-0.59
245.036	-0.3
245.252	0.01
245.468	0.42
245.683	1.44
245.899	1.53
246.115	2.11
246.331	2.27
246.547	2.61
246.762	2.63
246.978	2.65
247.194	3.05
247.409	3.26
247.625	3.47
247.841	3.1
248.057	3.1
248.272	3.29
248.488	2.94
248.703	3.18
248.919	2.62
249.135	2.66
249.35	2.87
249.566	2.6
249.782	2.52
249.997	1.88
250.213	2.15
250.428	1.43
250.644	0.73
250.859	0.92
251.075	0.8
251.29	1.24
251.506	1.45
251.721	1.93
251.937	1.97
252.152	1.88
252.368	2.29
252.583	2.74
252.798	2.75
253.014	3.22
253.229	3.19
253.445	2.59
253.66	1.66
253.875	1.41
254.091	-0.5
254.306	-0.46
254.521	-0.38
254.737	-0.24
254.952	-1.5
255.167	-1.47
255.383	-1.82
255.598	-2.14
255.813	-1.56
256.028	-0.24
256.244	0.22
256.459	2.16
256.674	1.57
256.889	1.15
257.104	0.69
257.32	1.32
257.535	0.76
257.75	1.39
257.965	1.95
258.18	2.04
258.395	2.14
258.61	2.03
258.826	1.66
259.041	1.91
259.256	1.85
259.471	1.9
259.686	1.88
259.901	2.12
260.116	1.92
260.331	1.87
260.546	1.89
260.761	1.78
260.976	1.6
261.191	1.6
261.406	1.6
261.621	1.87
261.836	1.82
262.05	1.51
262.265	1.48
262.48	1.08
262.695	0.27
262.91	0.16
263.125	0.06
263.34	0.29
263.555	0.18
263.769	-0.2
263.984	-1.47
264.199	-1.54
264.414	-1.06
264.629	-1.3
264.843	-1.04
265.058	0.08
265.273	-0.27
265.488	-0.52
265.702	-0.77
265.917	-0.18
266.132	-0.32
266.346	0.63
266.561	0.82
266.776	0.62
266.99	0.66
267.205	0.59
267.42	0.21
267.634	-0.03
267.849	0.5
268.063	0.59
268.278	0.23
268.492	1.14
268.707	0.92
268.922	0.74
269.136	0.83
269.351	0.87
269.565	0.87
269.78	1.24
269.994	1.57
270.209	1.4
270.423	1.69
270.637	1.78
270.852	1.42
271.066	1.77
271.281	1.69
271.495	1.71
271.709	1.6
271.924	2.02
272.138	1.69
272.353	1.63
272.567	1.6
272.781	1.47
272.996	1.01
273.21	0.96
273.424	1.14
273.638	1.02
273.853	1.04
274.067	1.44
274.281	1.5
274.495	1.85
274.71	1.77
274.924	1.92
275.138	2.15
275.352	3.07
275.566	3.2
275.781	2.67
275.995	2.84
276.209	2.89
276.423	2.59
276.637	1.97
276.851	1.86
277.065	1.85
277.279	1.5
277.493	1.19
277.707	0.67
277.921	0.71
278.135	0.51
278.349	0.51
278.563	0.29
278.777	0.53
278.991	0.37
279.205	0.13
279.419	0.35
279.633	0.81
279.847	1.1
280.061	1.2
280.275	1.14
280.489	1.1
280.703	1.43
280.917	1.69
281.131	1.4
281.344	1.95
281.558	2.1
281.772	2.03
281.986	1.98
282.2	1.73
282.414	1.69
282.627	1.57
282.841	2.14
283.055	1.99
283.269	2.22
283.482	2.45
283.696	2.46
283.91	2.35
284.123	2.2
284.337	2.09
284.551	2.44
284.764	2.63
284.978	2.5
285.192	2.41
285.405	2.3
285.619	1.98
285.833	1.97
286.046	1.96
286.26	2.04
286.473	2.32
286.687	2.2
286.9	2.24
287.114	2.31
287.327	2.29
287.541	2.01
287.754	2.08
287.968	2.2
288.181	2.31
288.395	2.04
288.608	1.95
288.822	1.84
289.035	2.03
289.248	1.75
289.462	1.64
289.675	1.91
289.889	1.89
290.102	1.94
290.315	1.87
290.529	1.76
290.742	1.92
290.955	1.74
291.169	1.48
291.382	1.51
291.595	1.48
291.808	1.48
292.022	1.25
292.235	0.9
292.448	0.75
292.661	0.71
292.875	0.62
293.088	0.71
293.301	0.99
293.514	1.44
293.727	1.6
293.94	1.53
294.153	1.28
294.367	1.52
294.58	2.02
294.793	2.06
295.006	2.23
295.219	2.38
295.432	2.27
295.645	2.43
295.858	2.43
296.071	2.22
296.284	2.24
296.497	2.2
296.71	2.13
296.923	2.12
297.136	2.31
297.349	2.24
297.562	2.32
297.775	2.47
297.988	2.49
298.201	2.5
298.414	2.42
298.626	2.32
298.839	2.48
299.052	2.46
299.265	2.27
299.478	2.14
299.691	2.13
299.903	1.95
300.116	1.91
300.329	1.88
300.542	1.89
300.755	2.04
300.967	2.13
301.18	2.49
301.393	2.42
301.605	2.9
301.818	2.85
302.031	3.02
302.243	3.03
302.456	2.95
302.669	2.81
302.881	2.49
303.094	2.63
303.307	2.96
303.519	2.66
303.732	2.78
303.944	2.69
304.157	2.81
304.37	2.88
304.582	2.57
304.795	2.36
305.007	2.12
305.22	2.54
305.432	2.52
305.645	2.36
305.857	2.06
306.069	2.12
306.282	2.02
306.494	1.95
306.707	1.88
306.919	2.26
307.132	2.19
307.344	2.77
307.556	2.37
307.769	2.42
307.981	2.67
308.193	3.12
308.406	3.21
308.618	3.03
308.83	3.23
309.043	3.17
309.255	3.07
309.467	3.24
309.679	3.18
309.892	3.5
310.104	3.63
310.316	3.62
310.528	3.57
310.74	3.71
310.953	3.74
311.165	3.52
311.377	3.6
311.589	3.62
311.801	3.71
312.013	3.56
312.225	3.13
312.437	3.17
312.649	3.01
312.862	2.97
313.074	2.89
313.286	2.62
313.498	2.8
313.71	2.86
313.922	2.72
314.134	2.78
314.346	2.89
314.558	3.1
314.77	2.46
314.982	2.27
315.193	2.23
315.405	1.95
315.617	2.24
315.829	1.86
316.041	1.73
316.253	1.82
316.465	1.58
316.677	1.51
316.888	1.54
317.1	1.82
317.312	2.04
317.524	2.37
317.736	2.16
317.947	2.45
318.159	2.86
318.371	2.75
318.583	3.01
318.794	3.07
319.006	3.33
319.218	3.6
319.43	3.72
319.641	3.72
319.853	2.95
320.064	3.14
320.276	3.15
320.488	3.29
320.699	3.53
320.911	3.49
321.123	3.48
321.334	3.35
321.546	3.39
321.757	3.51
321.969	3.35
322.18	4.14
322.392	4.66
322.603	4.58
322.815	4.37
323.026	4.5
323.238	4.37
323.449	4.64
323.661	4.92
323.872	4.61
324.083	4.37
324.295	4.72
324.506	4.18
324.718	3.92
324.929	3.9
325.14	4.04
325.352	3.9
325.563	4.17
325.774	4.14
325.986	3.78
326.197	3.94
326.408	3.96
326.62	3.81
326.831	4.21
327.042	4.12
327.253	4.02
327.464	3.6
327.676	3.38
327.887	3.31
328.098	3.52
328.309	3.6
328.52	3.27
328.732	3.29
328.943	3.25
329.154	3.36
329.365	3.53
329.576	3.87
329.787	4.09
329.998	4.48
330.209	4.52
330.42	4.44
330.631	4.59
330.842	4.71
331.053	4.73
331.264	4.75
331.475	4.89
331.686	4.76
331.897	4.6
332.108	4.64
332.319	4.51
332.53	4.44
332.741	3.94
332.952	3.67
333.163	4.08
333.374	4.44
333.585	4.28
333.795	4.06
334.006	4.28
334.217	4.14
334.428	4.48
334.639	4.36
334.849	4.43
335.06	4.81
335.271	4.64
335.482	4.7
335.692	4.47
335.903	4.64
336.114	4.87
336.325	4.96
336.535	4.88
336.746	4.81
336.957	4.83
337.167	4.66
337.378	4.54
337.589	4.85
337.799	4.56
338.01	4.43
338.22	4.31
338.431	4.24
338.642	3.82
338.852	4.1
339.063	4.01
339.273	3.95
339.484	4
339.694	4.05
339.905	4.05
340.115	4.37
340.326	4.52
340.536	4.58
340.746	4.6
340.957	4.68
341.167	4.74
341.378	4.83
341.588	4.92
341.799	5
342.009	5.08
342.219	5.07
342.43	5.06
342.64	4.95
342.85	4.63
343.061	4.38
343.271	4.49
343.481	4.2
343.691	4.02
343.902	4.35
344.112	4.26
344.322	4.41
344.532	4.47
344.743	4.18
344.953	4.34
345.163	4.55
345.373	4.65
345.583	4.73
345.793	4.73
346.004	4.88
346.214	4.28
346.424	4.25
346.634	4.02
346.844	4.02
347.054	4.05
347.264	3.83
347.474	3.65
347.684	3.66
347.894	3.55
348.104	3.6
348.314	3.36
348.524	3.59
348.734	3.84
348.944	4.03
349.154	3.8
349.364	4.09
349.574	4.26
349.784	4.71
349.994	4.59
350.204	4.56
350.413	4.9
350.623	4.84
350.833	4.9
351.043	4.42
351.253	4.23
351.463	4.41
351.672	4.19
351.882	4.23
352.092	4.23
352.302	4.19
352.511	4.29
352.721	3.93
352.931	4.36
353.141	4.34
353.35	4.5
353.56	4.47
353.77	4.48
353.979	4.49
354.189	4.48
354.399	4.29
354.608	4.34
354.818	4.21
355.027	4.36
355.237	3.99
355.447	3.95
355.656	4.14
355.866	3.85
356.075	3.87
356.285	4.02
356.494	3.99
356.704	4.1
356.913	4.24
357.123	4.23
357.332	4.31
357.542	4.38
357.751	4.45
357.96	4.44
358.17	4.65
358.379	4.65
358.589	4.37
358.798	4.38
359.007	4.26
359.217	4.17
359.426	4.24
359.635	4.23
359.845	4.14
360.054	4.11
360.263	4.14
360.472	4.28
360.682	4.2
360.891	4.3
361.1	4.46
361.309	4.44
361.519	4.52
361.728	4.57
361.937	4.56
362.146	4.57
362.355	4.69
362.564	4.67
362.774	4.78
362.983	4.89
363.192	5.03
363.401	4.77
363.61	4.91
363.819	4.8
364.028	4.69
364.237	4.61
364.446	5.12
364.655	5.11
364.864	5.11
365.073	4.79
365.282	4.71
365.491	4.58
365.7	4.53
365.909	4.38
366.118	4.22
366.327	4.45
366.536	4.46
366.745	3.75
366.954	3.67
367.162	3.74
367.371	3.76
367.58	3.69
367.789	3.72
367.998	3.84
368.207	3.84
368.415	3.97
368.624	3.94
368.833	3.86
369.042	4.17
369.25	4.04
369.459	3.8
369.668	3.8
369.877	3.82
370.085	3.76
370.294	3.77
370.503	3.92
370.711	3.91
370.92	3.49
371.129	3.52
371.337	3.47
371.546	3.43
371.754	3.57
371.963	3.68
372.171	3.74
372.38	3.7
372.589	3.57
372.797	3.37
373.006	3.25
373.214	3.66
373.423	3.62
373.631	3.48
373.84	3.66
374.048	3.41
374.256	3.49
374.465	3.35
374.673	3.36
374.882	3.54
375.09	3.66
375.298	3.52
375.507	3.27
375.715	3.37
375.923	3.37
376.132	3.25
376.34	3.47
376.548	3.23
376.757	3.34
376.965	3.37
377.173	3.47
377.381	3.46
377.59	3.62
377.798	3.84
378.006	3.8
378.214	3.88
378.423	3.81
378.631	3.72
378.839	3.82
379.047	3.72
379.255	3.76
379.463	3.53
379.671	3.56
379.879	3.67
380.088	3.77
380.296	3.69
380.504	3.94
380.712	4.02
380.92	4.05
381.128	3.84
381.336	4.02
381.544	4.13
381.752	4.17
381.96	4.08
382.168	4.01
382.376	3.77
382.584	3.79
382.791	3.5
382.999	3.37
383.207	3.31
383.415	3.39
383.623	3.13
383.831	3.04
384.039	3.03
384.247	2.88
384.454	3.1
384.662	3.08
384.87	3.23
385.078	3.38
385.285	3.43
385.493	3.41
385.701	3.47
385.909	3.66
386.116	3.53
386.324	3.82
386.532	4.09
386.739	3.85
386.947	3.84
387.155	3.83
387.362	3.84
387.57	3.97
387.778	4.06
387.985	4.02
388.193	4.01
388.4	3.89
388.608	3.58
388.816	3.54
389.023	3.46
389.231	3.43
389.438	3.22
389.646	3.14
389.853	2.98
390.061	2.89
390.268	2.99
390.475	2.86
390.683	3.01
390.89	3.12
391.098	2.98
391.305	3.1
391.512	3.1
391.72	3.22
391.927	2.91
392.135	3.04
392.342	3.13
392.549	3.12
392.756	3.2
392.964	3.2
393.171	3.26
393.378	3.31
393.586	3.28
393.793	3.27
394	3.25
394.207	3.61
394.414	3.64
394.622	3.41
394.829	3.36
395.036	3.16
395.243	3.14
395.45	3.06
395.657	3.13
395.864	3.2
396.072	3.17
396.279	3.26
396.486	3.04
396.693	2.9
396.9	2.99
397.107	2.89
397.314	3.06
397.521	2.96
397.728	2.68
397.935	2.67
398.142	2.5
398.349	2.7
398.556	2.54
398.763	2.43
398.97	2.49
399.177	2.6
399.383	2.78
399.59	2.9
399.797	3.08
400.004	3.31
400.211	3.32
400.418	3.34
400.625	3.29
400.831	3.33
401.038	3.45
401.245	3.57
401.452	3.51
401.658	3.47
401.865	3.2
402.072	3.19
402.279	3.1
402.485	3.03
402.692	3.05
402.899	2.91
403.105	3
403.312	3.1
403.519	3
403.725	2.96
403.932	2.77
404.138	2.84
404.345	2.82
404.552	2.76
404.758	2.62
404.965	2.59
405.171	2.58
405.378	2.61
405.584	2.49
405.791	2.53
405.997	2.69
406.204	2.8
406.41	2.99
406.617	2.86
406.823	2.97
407.029	3.09
407.236	3.21
407.442	3.17
407.649	2.91
407.855	2.78
408.061	2.67
408.268	2.51
408.474	2.47
408.68	2.39
408.887	2.38
409.093	2.27
409.299	2.3
409.505	2.19
409.712	2.16
409.918	2.32
410.124	2.5
410.33	2.42
410.537	2.45
410.743	2.53
410.949	2.58
411.155	2.61
411.361	2.69
411.567	2.75
411.773	2.84
411.98	2.95
412.186	2.76
412.392	2.82
412.598	3.06
412.804	3.01
413.01	2.89
413.216	2.78
413.422	2.84
413.628	2.63
413.834	2.43
414.04	2.23
414.246	2.2
414.452	2.37
414.658	2.28
414.864	2.17
415.07	2.11
415.275	2.27
415.481	2.29
415.687	2.32
415.893	2.55
416.099	2.56
416.305	2.66
416.511	2.66
416.716	2.54
416.922	2.59
417.128	2.61
417.334	2.76
417.539	2.74
417.745	2.74
417.951	2.73
418.157	2.63
418.362	2.79
418.568	2.68
418.774	2.74
418.979	2.78
419.185	2.85
419.391	2.89
419.596	2.83
419.802	2.85
420.008	2.81
420.213	2.76
420.419	2.83
420.624	2.75
420.83	2.82
421.035	2.82
421.241	2.82
421.446	2.75
421.652	2.68
421.857	2.68
422.063	2.61
422.268	2.62
422.474	2.7
422.679	2.68
422.885	2.72
423.09	2.71
423.295	2.68
423.501	2.68
423.706	2.7
423.911	2.78
424.117	2.78
424.322	2.84
424.527	2.91
424.733	2.96
424.938	2.93
425.143	2.9
425.349	2.93
425.554	3.02
425.759	2.99
425.964	2.93
426.169	2.92
426.375	2.84
426.58	2.78
426.785	2.67
426.99	2.6
427.195	2.61
427.4	2.61
427.605	2.54
427.811	2.45
428.016	2.55
428.221	2.68
428.426	2.66
428.631	2.79
428.836	2.82
429.041	2.85
429.246	2.8
429.451	2.84
429.656	2.86
429.861	2.9
430.066	2.79
430.271	2.67
430.476	2.59
430.681	2.45
430.886	2.46
431.09	2.4
431.295	2.41
431.5	2.35
431.705	2.36
431.91	2.3
432.115	2.41
432.32	2.5
432.524	2.57
432.729	2.58
432.934	2.6
433.139	2.54
433.343	2.6
433.548	2.57
433.753	2.63
433.958	2.61
434.162	2.63
434.367	2.63
434.572	2.65
434.776	2.72
434.981	2.7
435.186	2.78
435.39	2.87
435.595	2.94
435.799	2.86
436.004	2.83
436.209	2.91
436.413	2.87
436.618	2.77
436.822	2.79
437.027	2.7
437.231	2.74
437.436	2.73
437.64	2.72
437.845	2.71
438.049	2.83
438.253	2.8
438.458	2.71
438.662	2.75
438.867	2.79
439.071	2.77
439.275	2.85
439.48	2.88
439.684	2.86
439.888	2.82
440.093	2.78
440.297	2.79
440.501	2.86
440.706	2.84
440.91	2.83
441.114	2.84
441.318	2.79
441.523	2.75
441.727	2.74
441.931	2.69
442.135	2.68
442.339	2.64
442.543	2.58
442.748	2.47
442.952	2.49
443.156	2.44
443.36	2.5
443.564	2.47
443.768	2.51
443.972	2.46
444.176	2.62
444.38	2.6
444.584	2.63
444.788	2.58
444.992	2.67
445.196	2.67
445.4	2.68
445.604	2.7
445.808	2.74
446.012	2.66
446.216	2.66
446.42	2.6
446.624	2.6
446.828	2.54
447.032	2.57
447.235	2.56
447.439	2.56
447.643	2.6
447.847	2.57
448.051	2.56
448.254	2.58
448.458	2.57
448.662	2.54
448.866	2.57
449.069	2.65
449.273	2.78
449.477	2.79
449.681	2.78
449.884	2.76
450.088	2.73
450.292	2.79
450.495	2.81
450.699	2.89
450.902	2.94
451.106	2.94
451.31	2.93
451.513	2.76
451.717	2.71
451.92	2.69
452.124	2.69
452.327	2.56
452.531	2.56
452.734	2.5
452.938	2.46
453.141	2.39
453.345	2.39
453.548	2.43
453.752	2.45
453.955	2.4
454.158	2.37
454.362	2.34
454.565	2.42
454.769	2.39
454.972	2.47
455.175	2.53
455.379	2.58
455.582	2.53
455.785	2.44
455.988	2.5
456.192	2.61
456.395	2.68
456.598	2.72
456.801	2.76
457.005	2.77
457.208	2.87
457.411	2.79
457.614	2.86
457.817	2.94
458.021	2.99
458.224	2.94
458.427	2.94
458.63	2.81
458.833	2.8
459.036	2.86
459.239	2.77
459.442	2.71
459.645	2.67
459.848	2.67
460.051	2.59
460.254	2.57
460.457	2.55
460.66	2.46
460.863	2.57
461.066	2.61
461.269	2.55
461.472	2.62
461.675	2.47
461.878	2.42
462.081	2.26
462.284	2.29
462.486	2.34
462.689	2.45
462.892	2.47
463.095	2.47
463.298	2.38
463.5	2.37
463.703	2.32
463.906	2.27
464.109	2.35
464.311	2.41
464.514	2.42
464.717	2.37
464.92	2.3
465.122	2.36
465.325	2.41
465.528	2.33
465.73	2.33
465.933	2.28
466.135	2.4
466.338	2.48
466.541	2.49
466.743	2.4
466.946	2.41
467.148	2.42
467.351	2.47
467.553	2.43
467.756	2.58
467.958	2.65
468.161	2.66
468.363	2.62
468.566	2.56
468.768	2.56
468.971	2.58
469.173	2.6
469.375	2.61
469.578	2.54
469.78	2.51
469.983	2.5
470.185	2.38
470.387	2.44
470.59	2.5
470.792	2.54
470.994	2.57
471.196	2.63
471.399	2.68
471.601	2.6
471.803	2.63
472.005	2.62
472.208	2.58
472.41	2.61
472.612	2.57
472.814	2.58
473.016	2.59
473.218	2.49
473.421	2.47
473.623	2.35
473.825	2.44
474.027	2.44
474.229	2.45
474.431	2.51
474.633	2.62
474.835	2.77
475.037	2.69
475.239	2.8
475.441	2.88
475.643	2.87
475.845	2.96
476.047	2.91
476.249	2.89
476.451	2.89
476.653	2.87
476.855	2.73
477.057	2.59
477.258	2.62
477.46	2.51
477.662	2.49
477.864	2.55
478.066	2.56
478.268	2.58
478.469	2.55
478.671	2.65
478.873	2.59
479.075	2.67
479.276	2.74
479.478	2.77
479.68	2.7
479.882	2.77
480.083	2.75
480.285	2.74
480.487	2.72
480.688	2.75
480.89	2.69
481.091	2.7
481.293	2.69
481.495	2.69
481.696	2.76
481.898	2.8
482.099	2.79
482.301	2.78
482.502	2.79
482.704	2.83
482.905	2.84
483.107	2.81
483.308	2.83
483.51	2.82
483.711	2.82
483.913	2.81
484.114	2.82
484.315	2.82
484.517	2.82
484.718	2.81
484.92	2.77
485.121	2.78
485.322	2.76
485.524	2.74
485.725	2.74
485.926	2.73
486.127	2.7
486.329	2.7
486.53	2.68
486.731	2.67
486.932	2.67
487.134	2.65
487.335	2.64
487.536	2.69
487.737	2.67
487.938	2.66
488.139	2.66
488.341	2.66
488.542	2.64
488.743	2.64
488.944	2.68
489.145	2.7
489.346	2.75
489.547	2.75
489.748	2.76
489.949	2.8
490.15	2.84
490.351	2.86
490.552	2.87
490.753	2.92
490.954	2.91
491.155	2.91
491.356	2.9
491.557	2.91
491.758	2.93
491.959	2.9
492.159	2.9
492.36	2.87
492.561	2.85
492.762	2.81
492.963	2.79
493.164	2.8
493.364	2.81
493.565	2.8
493.766	2.77
493.967	2.75
494.167	2.76
494.368	2.76
494.569	2.84
494.769	2.89
494.97	3
495.171	3.02
495.371	3.06
495.572	2.98
495.773	3
495.973	2.99
496.174	2.94
496.375	2.92
496.575	2.95
496.776	2.9
496.976	2.91
497.177	2.86
497.377	2.84
497.578	2.78
497.778	2.81
497.979	2.77
498.179	2.81
498.38	2.88
498.58	2.93
498.78	2.85
498.981	2.8
499.181	2.75
499.382	2.79
499.582	2.84
499.782	2.84
499.983	2.79
500.183	2.82
500.383	2.78
500.584	2.74
500.784	2.69
500.984	2.81
501.184	2.95
501.385	3.02
501.585	3.08
501.785	3.08
501.985	3.16
502.185	3.24
502.386	3.33
502.586	3.38
502.786	3.38
502.986	3.36
503.186	3.29
503.386	3.29
503.586	3.24
503.786	3.19
503.987	3.14
504.187	3.07
504.387	3.12
504.587	3.04
504.787	3.07
504.987	3.15
505.187	3.16
505.387	3.23
505.587	3.17
505.786	3.24
505.986	3.25
506.186	3.3
506.386	3.35
506.586	3.37
506.786	3.42
506.986	3.33
507.186	3.32
507.386	3.44
507.585	3.36
507.785	3.42
507.985	3.45
508.185	3.46
508.384	3.49
508.584	3.52
508.784	3.51
508.984	3.59
509.183	3.68
509.383	3.62
509.583	3.6
509.782	3.68
509.982	3.67
510.182	3.67
510.381	3.69
510.581	3.66
510.781	3.67
510.98	3.68
511.18	3.65
511.379	3.63
511.579	3.68
511.778	3.66
511.978	3.65
512.177	3.73
512.377	3.79
512.576	3.82
512.776	3.87
512.975	3.94
513.175	3.97
513.374	3.97
513.573	3.94
513.773	4
513.972	4.08
514.172	4.12
514.371	4.03
514.57	3.93
514.77	3.99
514.969	3.96
515.168	3.93
515.367	3.91
515.567	3.93
515.766	4.03
515.965	4.04
516.164	4.07
516.364	4.11
516.563	4.24
516.762	4.38
516.961	4.36
517.16	4.41
517.359	4.47
517.559	4.54
517.758	4.5
517.957	4.51
518.156	4.52
518.355	4.48
518.554	4.48
518.753	4.5
518.952	4.45
519.151	4.47
519.35	4.51
519.549	4.47
519.748	4.45
519.947	4.6
520.146	4.65
520.345	4.7
520.544	4.74
520.743	4.79
520.942	4.78
521.141	4.84
521.339	4.85
521.538	4.8
521.737	4.92
521.936	4.94
522.135	4.9
522.333	4.91
522.532	4.96
522.731	5.01
522.93	5.04
523.129	5.11
523.327	5.15
523.526	5.23
523.725	5.29
523.923	5.23
524.122	5.26
524.321	5.33
524.519	5.32
524.718	5.31
524.917	5.36
525.115	5.38
525.314	5.39
525.512	5.43
525.711	5.45
525.909	5.49
526.108	5.59
526.306	5.63
526.505	5.65
526.703	5.74
526.902	5.78
527.1	5.79
527.299	5.85
527.497	5.9
527.696	5.89
527.894	5.89
528.092	5.92
528.291	5.94
528.489	5.95
528.688	5.95
528.886	5.96
529.084	5.98
529.283	5.99
529.481	6
529.679	6.03
529.877	6.04
530.076	6.08
530.274	6.09
530.472	6.09
530.67	6.18
530.869	6.22
531.067	6.27
531.265	6.29
531.463	6.37
531.661	6.43
531.859	6.41
532.057	6.47
532.255	6.56
532.454	6.63
532.652	6.65
532.85	6.58
533.048	6.6
533.246	6.59
533.444	6.61
533.642	6.62
533.84	6.59
534.038	6.6
534.236	6.6
534.434	6.55
534.632	6.55
534.83	6.61
535.027	6.67
535.225	6.7
535.423	6.75
535.621	6.82
535.819	6.88
536.017	6.96
536.215	6.97
536.412	7.03
536.61	7.07
536.808	7.1
537.006	7.08
537.203	7.19
537.401	7.18
537.599	7.26
537.797	7.32
537.994	7.36
538.192	7.39
538.39	7.44
538.587	7.5
538.785	7.57
538.983	7.61
539.18	7.66
539.378	7.65
539.575	7.69
539.773	7.64
539.97	7.61
540.168	7.6
540.366	7.6
540.563	7.64
540.761	7.64
540.958	7.71
541.155	7.69
541.353	7.74
541.55	7.77
541.748	7.79
541.945	7.85
542.143	7.88
542.34	7.92
542.537	8
542.735	8.05
542.932	8.14
543.129	8.16
543.327	8.24
543.524	8.28
543.721	8.33
543.919	8.44
544.116	8.46
544.313	8.51
544.51	8.56
544.708	8.64
544.905	8.69
545.102	8.7
545.299	8.71
545.496	8.8
545.693	8.83
545.891	8.85
546.088	8.8
546.285	8.83
546.482	8.91
546.679	8.97
546.876	8.95
547.073	9
547.27	9.01
547.467	8.98
547.664	8.95
547.861	9
548.058	9.05
548.255	9.15
548.452	9.22
548.649	9.23
548.846	9.25
549.043	9.24
549.24	9.15
549.437	9.25
549.633	9.37
549.83	9.33
550.027	9.35
550.224	9.39
550.421	9.47
550.618	9.42
550.814	9.4
551.011	9.42
551.208	9.52
551.405	9.62
551.601	9.59
551.798	9.65
551.995	9.69
552.191	9.77
552.388	9.69
552.585	9.61
552.781	9.69
552.978	9.76
553.175	9.74
553.371	9.81
553.568	9.9
553.764	9.93
553.961	9.86
554.157	9.93
554.354	9.94
554.55	10.02
554.747	10.17
554.943	10.34
555.14	10.34
555.336	10.34
555.533	10.33
555.729	10.21
555.926	10.15
556.122	10.07
556.318	10.04
556.515	10.11
556.711	10.13
556.907	10.1
557.104	9.93
557.3	9.98
557.496	9.98
557.693	10.07
557.889	10.27
558.085	10.36
558.281	10.6
558.478	10.65
558.674	10.58
558.87	10.63
559.066	10.64
559.262	10.62
559.459	10.68
559.655	10.76
559.851	10.8
560.047	10.78
560.243	10.92
560.439	10.88
560.635	10.91
560.831	10.98
561.027	11.08
561.223	11.19
561.419	11.26
561.615	11.33
561.811	11.32
562.007	11.28
562.203	11.2
562.399	11.23
562.595	11.29
562.791	11.46
562.987	11.43
563.183	11.38
563.379	11.42
563.575	11.54
563.771	11.5
563.966	11.67
564.162	11.87
564.358	12.04
564.554	12.06
564.75	12.2
564.945	12.19
565.141	12.31
565.337	12.42
565.533	12.36
565.728	12.38
565.924	12.44
566.12	12.29
566.315	12.16
566.511	12.2
566.707	12.23
566.902	12.14
567.098	12.26
567.293	12.17
567.489	12.17
567.684	12.27
567.88	12.37
568.076	12.42
568.271	12.66
568.467	12.69
568.662	12.64
568.858	12.74
569.053	12.82
569.248	12.79
569.444	12.96
569.639	13.06
569.835	13.02
570.03	13.01
570.225	13.11
570.421	13.13
570.616	13.2
570.812	13.26
571.007	13.18
571.202	13.2
571.397	13.18
571.593	13.16
571.788	13.19
571.983	13.34
572.178	13.37
572.374	13.37
572.569	13.45
572.764	13.45
572.959	13.43
573.154	13.48
573.35	13.5
573.545	13.6
573.74	13.63
573.935	13.63
574.13	13.57
574.325	13.65
574.52	13.61
574.715	13.53
574.91	13.6
575.105	13.74
575.3	13.86
575.495	13.92
575.69	13.93
575.885	13.95
576.08	13.96
576.275	14.07
576.47	14.04
576.665	14.16
576.86	14.25
577.055	14.2
577.25	14.22
577.444	14.17
577.639	14.3
577.834	14.38
578.029	14.4
578.224	14.45
578.418	14.46
578.613	14.68
578.808	14.65
579.003	14.77
579.197	14.87
579.392	14.85
579.587	14.81
579.781	14.79
579.976	14.62
580.171	14.78
580.365	14.82
580.56	14.79
580.755	14.68
580.949	14.64
581.144	14.49
581.338	14.48
581.533	14.52
581.727	14.6
581.922	14.59
582.116	14.73
582.311	14.61
582.505	14.59
582.7	14.46
582.894	14.51
583.089	14.63
583.283	14.68
583.478	14.75
583.672	14.83
583.866	14.85
584.061	14.83
584.255	14.77
584.449	14.84
584.644	14.85
584.838	15.06
585.032	14.92
585.226	14.84
585.421	14.99
585.615	15.03
585.809	15.02
586.003	15.15
586.198	15.03
586.392	15.12
586.586	15.22
586.78	15.31
586.974	15.35
587.168	15.45
587.363	15.51
587.557	15.33
587.751	15.36
587.945	15.34
588.139	15.23
588.333	15.35
588.527	15.32
588.721	15.25
588.915	15.23
589.109	15.17
589.303	15.16
589.497	15.09
589.691	15.11
589.885	15.07
590.079	15.06
590.273	15.18
590.466	15.25
590.66	15.29
590.854	15.39
591.048	15.49
591.242	15.45
591.436	15.45
591.629	15.56
591.823	15.61
592.017	15.74
592.211	15.86
592.404	15.74
592.598	15.73
592.792	15.74
592.986	15.69
593.179	15.66
593.373	15.73
593.567	15.82
593.76	15.79
593.954	15.85
594.147	15.76
594.341	15.8
594.535	15.82
594.728	15.87
594.922	15.9
595.115	15.9
595.309	15.92
595.502	15.96
595.696	15.94
595.889	15.88
596.083	15.92
596.276	15.92
596.47	15.86
596.663	15.93
596.856	15.83
597.05	15.82
597.243	15.82
597.437	15.91
597.63	15.89
597.823	15.98
598.017	16.11
598.21	16.12
598.403	16.12
598.596	16.19
598.79	16.23
598.983	16.31
599.176	16.41
599.369	16.46
599.563	16.29
599.756	16.39
599.949	16.48
600.142	16.43
600.335	16.33
600.528	16.33
600.722	16.26
600.915	16.18
601.108	16.13
601.301	15.93
601.494	15.86
601.687	15.92
601.88	15.93
602.073	15.73
602.266	15.78
602.459	15.85
602.652	15.79
602.845	15.83
603.038	15.8
603.231	15.83
603.424	15.97
603.617	16.01
603.809	15.98
604.002	15.9
604.195	15.85
604.388	15.79
604.581	15.88
604.774	15.98
604.966	16.01
605.159	16.14
605.352	16.08
605.545	16.13
605.737	16.16
605.93	16.2
606.123	16.23
606.316	16.35
606.508	16.36
606.701	16.33
606.894	16.48
607.086	16.5
607.279	16.51
607.471	16.74
607.664	16.68
607.857	16.89
608.049	16.96
608.242	17.15
608.434	17.29
608.627	17.63
608.819	17.82
609.012	17.93
609.204	18.18
609.397	18.45
609.589	18.74
609.782	19.16
609.974	19.5
610.166	19.86
610.359	20.26
610.551	20.55
610.743	20.8
610.936	20.97
611.128	21.26
611.32	21.26
611.513	21.38
611.705	21.53
611.897	21.42
612.09	21.21
612.282	21
612.474	20.7
612.666	20.62
612.858	20.43
613.051	20.33
613.243	20.21
613.435	20.22
613.627	19.95
613.819	19.61
614.011	19.61
614.203	19.47
614.395	19.39
614.588	19.35
614.78	19.18
614.972	18.91
615.164	18.65
615.356	18.35
615.548	18.14
615.74	18.05
615.932	17.88
616.124	17.59
616.315	17.57
616.507	17.74
616.699	17.51
616.891	17.37
617.083	17.42
617.275	17.42
617.467	17.36
617.659	17.47
617.85	17.46
618.042	17.45
618.234	17.5
618.426	17.26
618.618	16.97
618.809	17.06
619.001	17.09
619.193	17.05
619.384	17.04
619.576	17.04
619.768	17.04
619.959	17.13
620.151	17.18
620.343	17.25
620.534	17.41
620.726	17.55
620.917	17.53
621.109	17.62
621.301	17.69
621.492	17.61
621.684	17.65
621.875	17.62
622.067	17.58
622.258	17.64
622.45	17.58
622.641	17.59
622.832	17.53
623.024	17.64
623.215	17.55
623.407	17.48
623.598	17.52
623.789	17.49
623.981	17.41
624.172	17.33
624.363	17.28
624.555	17.28
624.746	17.36
624.937	17.34
625.129	17.16
625.32	17.2
625.511	17.19
625.702	17.23
625.893	17.27
626.085	17.26
626.276	17.38
626.467	17.43
626.658	17.49
626.849	17.4
627.04	17.33
627.231	17.36
627.422	17.38
627.614	17.44
627.805	17.51
627.996	17.53
628.187	17.57
628.378	17.66
628.569	17.68
628.76	17.61
628.951	17.76
629.142	17.93
629.332	17.95
629.523	18.05
629.714	18.06
629.905	18.07
630.096	18.02
630.287	18.15
630.478	18.03
630.669	17.95
630.859	17.99
631.05	17.89
631.241	17.97
631.432	17.95
631.623	17.7
631.813	17.78
632.004	17.64
632.195	17.69
632.385	17.57
632.576	17.63
632.767	17.6
632.957	17.54
633.148	17.46
633.339	17.27
633.529	17.31
633.72	17.44
633.91	17.33
634.101	17.35
634.292	17.32
634.482	17.32
634.673	17.24
634.863	17.19
635.054	17.22
635.244	17.37
635.435	17.49
635.625	17.47
635.815	17.46
636.006	17.5
636.196	17.56
636.387	17.62
636.577	17.74
636.767	17.7
636.958	17.77
637.148	17.69
637.338	17.6
637.529	17.46
637.719	17.52
637.909	17.46
638.099	17.59
638.29	17.55
638.48	17.36
638.67	17.25
638.86	17.23
639.05	17.23
639.241	17.28
639.431	17.25
639.621	17.16
639.811	17.1
640.001	17.23
640.191	16.96
640.381	17.07
640.571	17.29
640.761	17.21
640.951	17.32
641.141	17.5
641.331	17.45
641.521	17.47
641.711	17.58
641.901	17.65
642.091	17.6
642.281	17.8
642.471	17.75
642.661	17.69
642.851	17.84
643.041	17.69
643.231	17.58
643.42	17.67
643.61	17.75
643.8	17.86
643.99	17.66
644.18	17.76
644.369	17.83
644.559	17.94
644.749	18
644.939	17.95
645.128	18.11
645.318	18.15
645.508	18.03
645.697	18.12
645.887	18.02
646.076	18.08
646.266	18.01
646.456	17.86
646.645	17.65
646.835	17.39
647.024	17.42
647.214	17.44
647.403	17.36
647.593	17.35
647.782	17.09
647.972	17.27
648.161	17.41
648.351	17.58
648.54	17.52
648.73	17.69
648.919	17.84
649.108	17.86
649.298	17.77
649.487	17.88
649.677	18.21
649.866	18.33
650.055	18.31
650.244	18.22
650.434	18.14
650.623	18.24
650.812	18.18
651.002	18.16
651.191	18.25
651.38	18.2
651.569	18.24
651.758	18.18
651.947	18.1
652.137	18.02
652.326	18.19
652.515	18.08
652.704	18.12
652.893	18.09
653.082	18.3
653.271	18.19
653.46	18.22
653.649	18.24
653.838	18.06
654.027	18.06
654.216	17.95
654.405	17.93
654.594	17.94
654.783	17.84
654.972	18.01
655.161	17.91
655.35	18
655.539	18.1
655.728	18.07
655.916	18.12
656.105	18.19
656.294	18.23
656.483	18.23
656.672	18.19
656.86	18.24
657.049	18.14
657.238	17.93
657.427	17.9
657.615	17.84
657.804	17.74
657.993	17.71
658.181	17.72
658.37	17.84
658.559	17.94
658.747	18.15
658.936	18.01
659.125	17.75
659.313	17.85
659.502	17.76
659.69	17.84
659.879	17.96
660.067	17.98
660.256	18.05
660.444	17.87
660.633	17.65
660.821	17.48
661.01	17.68
661.198	17.94
661.387	18.24
661.575	18.41
661.763	18.22
661.952	18
662.14	18.12
662.328	18.21
662.517	18.59
662.705	18.67
662.893	18.75
663.082	18.9
663.27	19.15
663.458	19.07
663.646	18.9
663.834	19.05
664.023	19.3
664.211	19.28
664.399	19.07
664.587	18.73
664.775	18.86
664.963	18.8
665.152	18.43
665.34	18.43
665.528	18.29
665.716	18.28
665.904	18.35
666.092	18.47
666.28	18.6
666.468	18.67
666.656	18.84
666.844	18.75
667.032	18.61
667.22	18.76
667.408	18.57
667.596	18.51
667.784	18.6
667.971	18.71
668.159	18.51
668.347	18.29
668.535	18.16
668.723	18.29
668.911	18.47
669.098	18.45
669.286	18.34
669.474	18.49
669.662	18.66
669.849	18.63
670.037	18.56
670.225	18.49
670.413	18.67
670.6	19.06
670.788	18.8
670.976	18.77
671.163	19.08
671.351	19.12
671.538	18.82
671.726	18.68
671.913	18.71
672.101	18.58
672.289	18.75
672.476	18.69
672.664	18.28
672.851	18.37
673.039	18.4
673.226	18.21
673.413	18.48
673.601	18.55
673.788	18.54
673.976	18.49
674.163	18.52
674.35	18.52
674.538	18.62
674.725	18.99
674.912	19.01
675.1	19.07
675.287	19.09
675.474	19
675.662	19.24
675.849	19.23
676.036	19.36
676.223	19.67
676.411	19.75
676.598	19.71
676.785	19.38
676.972	19.45
677.159	19.06
677.346	19.22
677.533	19.24
677.721	19.2
677.908	19.31
678.095	19.33
678.282	18.97
678.469	18.86
678.656	19.06
678.843	19.01
679.03	18.98
679.217	19
679.404	18.86
679.591	18.75
679.778	18.64
679.964	18.46
680.151	18.28
680.338	18.37
680.525	18.23
680.712	18.05
680.899	18.23
681.086	18.35
681.272	18.56
681.459	18.48
681.646	18.61
681.833	18.74
682.02	18.8
682.206	18.89
682.393	19.06
682.58	19.24
682.766	19.18
682.953	19.26
683.14	19.18
683.326	19.01
683.513	19.22
683.7	19.18
683.886	19.08
684.073	19.25
684.259	19.49
684.446	19.29
684.632	19.39
684.819	19.2
685.005	19.26
685.192	19.27
685.378	19.43
685.565	19.4
685.751	19.35
685.938	19.18
686.124	19.02
686.31	18.85
686.497	18.88
686.683	18.84
686.87	19.02
687.056	18.93
687.242	18.86
687.429	18.88
687.615	18.93
687.801	18.93
687.987	19.04
688.174	18.91
688.36	19.15
688.546	19.11
688.732	18.7
688.918	18.81
689.105	18.57
689.291	18.95
689.477	18.89
689.663	18.87
689.849	19.05
690.035	19.1
690.221	18.97
690.407	18.72
690.593	18.74
690.779	19.06
690.965	18.9
691.151	18.84
691.337	18.64
691.523	18.88
691.709	18.8
691.895	18.8
692.081	18.65
692.267	19.04
692.453	19.23
692.639	19.11
692.825	19.01
693.011	19.07
693.196	19.26
693.382	18.92
693.568	19.03
693.754	19.26
693.94	19.27
694.125	19.46
694.311	19.42
694.497	19.41
694.682	19.68
694.868	20.03
695.054	20.24
695.239	19.86
695.425	20.18
695.611	19.77
695.796	19.58
695.982	19.42
696.168	19.28
696.353	19.28
696.539	19.11
696.724	19.36
696.91	19.43
697.095	19.28
697.281	19.63
697.466	19.37
697.652	19.4
697.837	19.4
698.023	19.43
698.208	19.58
698.393	19.65
698.579	19.83
698.764	19.61
698.949	19.53
699.135	19.62
699.32	19.74
699.505	19.92
699.691	19.84
699.876	19.75
700.061	19.77
700.246	19.64
700.432	19.48
700.617	19.41
700.802	19.18
700.987	19.06
701.172	18.96
701.358	18.74
701.543	18.72
701.728	19.04
701.913	19.44
702.098	19.45
702.283	19.93
702.468	20.33
702.653	20.35
702.838	21.01
703.023	21.17
703.208	21.12
703.393	21.14
703.578	21.11
703.763	21.21
703.948	21.08
704.133	21.37
704.318	21.43
704.503	21.24
704.688	21.13
704.873	20.8
705.057	20.87
705.242	21.1
705.427	21.38
705.612	21.51
705.797	21.22
705.981	21.12
706.166	20.96
706.351	20.95
706.536	21.01
706.72	21.17
706.905	21.27
707.09	21.25
707.274	21.51
707.459	21.42
707.644	21.48
707.828	22.13
708.013	22.38
708.197	22.7
708.382	22.61
708.567	22.6
708.751	22.71
708.936	22.57
709.12	22.73
709.305	22.45
709.489	22.52
709.673	22.51
709.858	22.04
710.042	22.11
710.227	21.9
710.411	21.63
710.596	21.64
710.78	21.77
710.964	21.63
711.149	21.27
711.333	21.1
711.517	21.01
711.702	20.81
711.886	20.97
712.07	20.71
712.254	20.5
712.438	20.59
712.623	20.62
712.807	20.21
712.991	20.5
713.175	20.64
713.359	20.84
713.544	20.8
713.728	20.82
713.912	20.47
714.096	20.56
714.28	20.59
714.464	20.52
714.648	20.63
714.832	20.59
715.016	20.4
715.2	20.3
715.384	20
715.568	20.02
715.752	19.99
715.936	20
716.12	20.03
716.304	20.04
716.488	20.18
716.671	19.57
716.855	19.6
717.039	19.57
717.223	19.45
717.407	19.51
717.59	19.51
717.774	19.68
717.958	19.86
718.142	19.45
718.325	19.29
718.509	19.03
718.693	19.34
718.877	19.16
719.06	19.18
719.244	19.48
719.428	19.46
719.611	19.35
719.795	19
719.978	19.21
720.162	19.57
720.345	19.9
720.529	20.11
720.713	20.11
720.896	20.51
721.08	20.43
721.263	20.39
721.446	20.51
721.63	20.52
721.813	20.32
721.997	20.16
722.18	19.58
722.364	19.36
722.547	18.83
722.73	18.61
722.914	18.51
723.097	18.58
723.28	18.46
723.464	18.67
723.647	18.89
723.83	19.2
724.013	19.09
724.197	19.51
724.38	19.39
724.563	19.85
724.746	20.43
724.929	20.72
725.112	20.3
725.296	20.44
725.479	20.24
725.662	19.7
725.845	19.73
726.028	19.91
726.211	19.89
726.394	19.75
726.577	19.9
726.76	19.91
726.943	19.74
727.126	20.12
727.309	19.78
727.492	19.71
727.675	20.01
727.858	20.11
728.041	19.74
728.224	19.69
728.407	20.02
728.589	19.83
728.772	19.36
728.955	19.32
729.138	19.43
729.321	19.64
729.503	19.79
729.686	19.77
729.869	20.07
730.052	20.38
730.234	20.16
730.417	19.85
730.6	19.59
730.782	19.9
730.965	20.05
731.148	20.02
731.33	19.85
731.513	19.23
731.695	19.25
731.878	18.78
732.061	18.9
732.243	19.16
732.426	19.49
732.608	19.59
732.791	19.43
732.973	19.35
733.156	19.19
733.338	19.58
733.52	20.26
733.703	20.26
733.885	20.94
734.068	21
734.25	20.91
734.432	20.85
734.615	21.02
734.797	21.02
734.979	20.98
735.162	21.11
735.344	21.08
735.526	21.12
735.708	21
735.891	20.61
736.073	20.38
736.255	20.31
736.437	20.01
736.619	20.15
736.802	20.16
736.984	19.48
737.166	19.37
737.348	19.37
737.53	19.65
737.712	19.57
737.894	19.42
738.076	18.83
738.258	19.37
738.44	20.19
738.622	19.58
738.804	19.98
738.986	20.33
739.168	20.88
739.35	20.47
739.532	20.34
739.714	20.56
739.896	20.84
740.078	20.94
740.259	20.76
740.441	20.14
740.623	21.04
740.805	20.45
740.987	21.21
741.168	20.97
741.35	21.04
741.532	21.12
741.714	21.05
741.895	20.58
742.077	21.02
742.259	20.91
742.44	21.41
742.622	20.75
742.804	21.54
742.985	21.06
743.167	20.64
743.348	20.7
743.53	20.38
743.711	20.68
743.893	21.05
744.075	20.98
744.256	20.86
744.438	20.56
744.619	21.04
744.8	20.35
744.982	20.64
745.163	21.42
745.345	21.11
745.526	21.39
745.707	21.57
745.889	21.4
746.07	21.61
746.252	21.89
746.433	22.57
746.614	22.13
746.795	22.88
746.977	22.44
747.158	22.08
747.339	22.47
747.52	22.02
747.702	21.74
747.883	21.73
748.064	21.46
748.245	21.43
748.426	20.36
748.607	20.49
748.788	20.02
748.97	20.78
749.151	20.58
749.332	20.7
749.513	20.72
749.694	21.08
749.875	21.17
750.056	21.66
750.237	21.62
750.418	21.51
750.599	21.61
750.78	21.97
750.96	21.16
751.141	21.61
751.322	21.56
751.503	22.32
751.684	22.49
751.865	22.15
752.046	21.74
752.226	21.56
752.407	21.93
752.588	22.22
752.769	21.71
752.949	21.54
753.13	21.12
753.311	21.51
753.492	21.16
753.672	20.74
753.853	21.5
754.034	22.08
754.214	21.9
754.395	22.15
754.575	21.65
754.756	22.4
754.937	22.49
755.117	22.79
755.298	21.82
755.478	21.98
755.659	22.37
755.839	22.23
756.02	21.69
756.2	22.36
756.381	22.32
756.561	22.64
756.741	22.19
756.922	23.08
757.102	22.89
757.283	23.61
757.463	23.42
757.643	23.12
757.823	22.79
758.004	22.67
758.184	22.21
758.364	22
758.545	21.73
758.725	21.17
758.905	20.42
759.085	20.34
759.265	20.09
759.446	19.31
759.626	18.96
759.806	18.44
759.986	17.75
760.166	18.31
760.346	17.84
760.526	17.83
760.706	17.91
760.886	17.81
761.066	17.83
761.246	17.37
761.426	18.01
761.606	17.73
761.786	17.94
761.966	18.8
762.146	18.14
762.326	17.77
762.506	17.68
762.686	17.83
762.866	17.87
763.046	18.04
763.225	18.65
763.405	18.3
763.585	18.57
763.765	18.6
763.945	18.44
764.124	18.66
764.304	19.16
764.484	19.53
764.664	19.75
764.843	19.97
765.023	19.81
765.203	19.79
765.382	20.35
765.562	20.05
765.741	20.47
765.921	20.39
766.101	20.39
766.28	20.17
766.46	20.37
766.639	20.54
766.819	21.09
766.998	21
767.178	21.62
767.357	21.41
767.537	22.14
767.716	21.7
767.896	21.78
768.075	21.9
768.254	23.34
768.434	22.97
768.613	23.06
768.792	22.26
768.972	22.78
769.151	22.32
769.33	21.8
769.51	21.63
769.689	22
769.868	22.38
770.047	22.57
770.226	21.9
770.406	21.78
770.585	21.6
770.764	21.86
770.943	21.44
771.122	20.51
771.301	20.98
771.48	21.26
771.66	21.39
771.839	21.12
772.018	21.34
772.197	21.12
772.376	21.17
772.555	21.27
772.734	21.46
772.913	21.52
773.092	22.48
773.271	22.55
773.449	21.87
773.628	21.32
773.807	21.29
773.986	21
774.165	21.02
774.344	21.16
774.523	20.97
774.701	20.12
774.88	20.48
775.059	20.56
775.238	19.94
775.417	21.24
775.595	22.29
775.774	21.51
775.953	21.56
776.131	21.31
776.31	21.78
776.489	21.33
776.667	22.24
776.846	22.06
777.025	22.03
777.203	22.77
777.382	21.77
777.56	21.02
777.739	22.55
777.917	22.38
778.096	22.94
778.274	21.63
778.453	22.96
778.631	22.98
778.81	22.88
778.988	22.58
779.166	23.05
779.345	23.75
779.523	24.57
779.702	24.45
779.88	24.22
780.058	23.83
780.237	24.4
780.415	23.14
780.593	23.28
780.771	23.42
780.95	24.04
781.128	23.73
781.306	23.74
781.484	23.26
781.662	22.58
781.841	22.94
782.019	22.49
782.197	22.8
782.375	22.8
782.553	22.04
782.731	21.31
782.909	21.05
783.087	20.59
783.265	19.66
783.443	20.53
783.621	21.79
783.799	21.4
783.977	22.26
784.155	22.41
784.333	22.61
784.511	23.59
784.689	23.55
784.867	23.84
785.045	24.49
785.223	25.04
785.4	23.92
785.578	23.24
785.756	24.42
785.934	24.45
786.112	24.61
786.289	23.78
786.467	23.22
786.645	23.72
786.823	23.36
787	24.12
787.178	23.92
787.356	23.08
787.533	23.42
787.711	22.11
787.889	21.95
788.066	21.74
788.244	22.27
788.421	22.24
788.599	22.83
788.776	22.71
788.954	21.23
789.131	21.02
789.309	21.94
789.486	21.86
789.664	22.4
789.841	21.85
790.019	20.98
790.196	21.54
790.373	21.76
790.551	21.18
790.728	21.24
790.906	21.8
791.083	22.9
791.26	22.61
791.437	22.5
791.615	22.4
791.792	21.68
791.969	23.16
792.146	22.83
792.324	22.34
792.501	22.14
792.678	21.33
792.855	21.65
793.032	20.67
793.209	20.89
793.387	21.09
793.564	21.1
793.741	22.59
793.918	21.63
794.095	21.92
794.272	22.58
794.449	22.83
794.626	23.73
794.803	23.76
794.98	23.72
795.157	22.82
795.334	23.47
795.511	23.61
795.688	24.26
795.864	23.3
796.041	23.12
796.218	21.94
796.395	22.34
796.572	22.31
796.749	22.71
796.925	22.84
797.102	23.76
797.279	22.35
797.456	22.05
797.632	21.26
797.809	22.32
797.986	23.19
798.162	24.09
798.339	24.62
798.516	24.28
798.692	23.49
798.869	23.45
799.046	22.55
799.222	22.73
799.399	23.06
799.575	22.41
799.752	22.35
799.928	21.6
800.105	21.9
800.281	21.61
800.458	21.07
800.634	21.4
800.811	20.41
800.987	21.46
801.163	21.75
801.34	21.49
801.516	21.89
801.692	22.47
801.869	22.1
802.045	20.84
802.221	20.93
802.398	21.47
802.574	21.53
802.75	22.68
802.926	22.6
803.103	21.99
803.279	21.4
803.455	21.07
803.631	20.36
803.807	20.86
803.983	22.16
804.16	21.03
804.336	21.24
804.512	21.56
804.688	20.74
804.864	20.23
805.04	19.73
805.216	19.35
805.392	19.69
805.568	19.53
805.744	17.5
805.92	18.13
806.096	17.52
806.272	16.8
806.448	15.73
806.623	16.95
806.799	17.93
806.975	18.03
807.151	18.79
807.327	19.45
807.503	19.26
807.678	21.43
807.854	19.37
808.03	20.16
808.206	19.27
808.381	19.64
808.557	19.55
808.733	19.78
808.908	21.54
809.084	22.1
809.26	20.74
809.435	21.24
809.611	20.59
809.787	21.19
809.962	21.12
810.138	22.37
810.313	23.08
810.489	22.78
810.664	22.13
810.84	20.86
811.015	20.85
811.191	21.49
811.366	21.24
811.542	21.93
811.717	21.9
811.892	21.76
812.068	21.94
812.243	21.32
812.419	21.06
812.594	20.14
812.769	20.71
812.944	19.26
813.12	19.63
813.295	18.86
813.47	16.82
813.645	16.72
813.821	17
813.996	16.85
814.171	15.8
814.346	15.28
814.521	15.56
814.697	14.41
814.872	14.94
815.047	14.87
815.222	15.65
815.397	16.22
815.572	16.36
815.747	16.4
815.922	15.76
816.097	16.47
816.272	17.45
816.447	18.91
816.622	19.82
816.797	19.64
816.972	17.98
817.147	17.71
817.322	17.97
817.496	18.8
817.671	17.93
817.846	18.44
818.021	18.27
818.196	17.15
818.371	16.58
818.545	16.29
818.72	17.52
818.895	18.52
819.069	18.11
819.244	17.96
819.419	18.16
819.594	18.9
819.768	19.49
819.943	19.31
820.117	20.06
820.292	19.5
820.467	19.32
820.641	18.85
820.816	18.9
820.99	19.16
821.165	19.42
821.339	18.78
821.514	18.54
821.688	18.27
821.863	18.16
822.037	18.1
822.212	18.15
822.386	18.2
822.56	18.36
822.735	18.54
822.909	18.57
823.084	18.52
823.258	18.7
823.432	18.87
823.606	18.92
823.781	19.02
823.955	19.22
824.129	19.31
824.303	19.33
824.478	19.04
824.652	18.81
824.826	18.64
825	18.82
825.174	18.55
825.348	18.81
825.523	18.73
825.697	18.79
825.871	18.35
826.045	18.28
826.219	18.28
826.393	18.49
826.567	18.36
826.741	18.71
826.915	18.51
827.089	19.24
827.263	18.46
827.437	18.57
827.611	18.49
827.784	18.58
827.958	18.66
828.132	18.66
828.306	18.83
828.48	19.2
828.654	18.46
828.827	18.32
829.001	17.92
829.175	18.38
829.349	18.56
829.522	18.78
829.696	18.25
829.87	18.13
830.044	18.29
830.217	18.64
830.391	18.13
830.565	19.49
830.738	20.19
830.912	19.9
831.085	19.56
831.259	19.73
831.432	19.02
831.606	20.14
831.779	19.9
831.953	19.39
832.126	18.07
832.3	18.28
832.473	18.16
832.647	17.38
832.82	17.19
832.994	17.31
833.167	16.98
833.34	17.71
833.514	18.7
833.687	18.41
833.86	18.42
834.034	18.45
834.207	18.9
834.38	19.28
834.553	18.96
834.727	19.72
834.9	19.55
835.073	19.42
835.246	19.26
835.419	18.33
835.593	18.62
835.766	18.83
835.939	19.34
836.112	18.21
836.285	17.07
836.458	19
836.631	17.75
836.804	17.26
836.977	17.54
837.15	17.97
837.323	18.37
837.496	19.04
837.669	17.17
837.842	17.2
838.015	19.09
838.188	19.26
838.361	17.51
838.533	18.01
838.706	20.88
838.879	20.16
839.052	20.25
839.225	19.59
839.398	19.3
839.57	21.05
839.743	22.35
839.916	21.3
840.088	23.36
840.261	23.25
840.434	23.99
840.607	22.39
840.779	21.22
840.952	20.94
841.124	21.04
841.297	20.73
841.47	21.26
841.642	18.97
841.815	18.17
841.987	16.64
842.16	14.34
842.332	14.02
842.505	13.86
842.677	14.96
842.85	14.22
843.022	13.04
843.194	12.33
843.367	11.83
843.539	13.31
843.712	13.21
843.884	9.78
844.056	11.94
844.229	9.27
844.401	9.15
844.573	11.6
844.745	10.88
844.918	13.55
845.09	13.66
845.262	13.1
845.434	12.08
845.606	12.01
845.779	15.56
845.951	16.84
846.123	18.13
846.295	16.7
846.467	16.33
846.639	18.17
846.811	13.9
846.983	12.68
847.155	14
847.327	13.11
847.499	16.24
847.671	14.88
847.843	12.76
848.015	15.97
848.187	17.57
848.359	16.62
848.531	17.94
848.703	17.64
848.875	16.48
849.047	15.69
849.218	14.41
849.39	13.77
849.562	16.06
849.734	21.79
849.905	17.91
850.077	16.37
850.249	16.96
850.421	10.99
850.592	15.01
850.764	14.93
850.936	16.25
851.107	18.12
851.279	17.76
851.451	17.65
851.622	11.59
851.794	11.67
851.965	13.14
852.137	12.34
852.308	14.54
852.48	11.65
852.651	12.9
852.823	8.84
852.994	5.68
853.166	6.94
853.337	6.34
853.509	7.8
853.68	10.8
853.851	10.92
854.023	8.49
854.194	10.49
854.365	9.56
854.537	11.09
854.708	14.53
854.879	16.46
855.05	14.01
855.222	12.34
855.393	15.49
855.564	12.18
855.735	10.81
855.906	13
856.078	12.54
856.249	11.74
856.42	14.1
856.591	17.04
856.762	20.84
856.933	20.83
857.104	19.34
857.275	17.13
857.446	19.53
857.617	19.87
857.788	18.27
857.959	18.21
858.13	20.06
858.301	17
858.472	12.44
858.643	10.12
858.814	8.31
858.985	11.21
859.155	10.15
859.326	8.05
859.497	11.02
859.668	12.48
859.839	11.52
860.009	14.3
860.18	15.4
860.351	17.33
860.522	16.48
860.692	17.34
860.863	16.98
861.034	16.78
861.204	19.94
861.375	18.05
861.546	14.45
861.716	15.93
861.887	14.48
862.057	13.29
862.228	9.55
862.398	8.36
862.569	10.54
862.739	10.75
862.91	12.22
863.08	6.16
863.251	1.53
863.421	6.14
863.592	4.88
863.762	5.84
863.932	10.36
864.103	10.45
864.273	11.21
864.443	7.94
864.614	8.21
864.784	2.69
864.954	3.08
865.125	8.63
865.295	8.38
865.465	8.42
865.635	8.4
865.805	2.57
865.976	8.56
866.146	10.64
866.316	9.44
866.486	9.38
866.656	9.23
866.826	13.49
866.996	11.31
867.166	13.1
867.336	8.75
867.506	6.84
867.676	9.82
867.846	7.16
868.016	3.97
868.186	4.62
868.356	0.73
868.526	4.02
868.696	4.13
868.866	5.67
869.036	3.12
869.206	4.5
869.376	5.5
869.545	8.94
869.715	5.53
869.885	6.53
870.055	13.01
870.224	12.21
870.394	12.83
870.564	12.77
870.734	8.48
870.903	11.44
871.073	15.72
871.243	11.09
871.412	2.66
871.582	5.71
871.751	5.2
871.921	-1.64
872.091	2.61
872.26	-0.32
872.43	-0.48
872.599	0.9
872.769	0.13
872.938	-2.49
873.108	4.71
873.277	7.79
873.446	3.16
873.616	5.53
873.785	9.42
873.955	9.6
874.124	12.56
874.293	11.88
874.463	14.39
874.632	11.05
874.801	12.75
874.971	6.99
875.14	5.29
875.309	10.95
875.478	10.06
875.647	9.27
875.817	9.78
875.986	5.73
876.155	6.13
876.324	3.71
876.493	6.52
876.662	7.15
876.831	11.34
877	10.92
877.17	9.5
877.339	8.57
877.508	6.12
877.677	6.09
877.846	9.6
878.015	6.95
878.184	9.26
878.352	10.41
878.521	9.17
878.69	9.4
878.859	13.87
879.028	14.61
879.197	13.15
879.366	12.24
879.534	11.45
879.703	14.58
879.872	18.09
880.041	17.55
880.21	16.44
880.378	15.91
880.547	15.1
880.716	16
880.884	15.65
881.053	16.3
881.222	17.39
881.39	17.58
881.559	17.23
881.727	17.71
881.896	17.52
882.065	18.19
882.233	18.08
882.402	18.24
882.57	18.14
882.739	18.17
882.907	18.17
883.076	17.82
883.244	18.32
883.412	17.91
883.581	17.44
883.749	17.82
883.918	17.09
884.086	17.09
884.254	17.4
884.423	16.58
884.591	16.91
884.759	16.87
884.927	17.53
885.096	16.44
885.264	16.35
885.432	15.31
885.6	13.02
885.769	13.84
885.937	13.68
886.105	11.09
886.273	10.61
886.441	8.62
886.609	7.65
886.777	6.11
886.945	6.29
887.113	5.28
887.281	3.33
887.449	5.39
887.617	3.83
887.785	1.06
887.953	3.88
888.121	2.12
888.289	0.77
888.457	0.13
888.625	1.91
888.793	1.15
888.961	1.84
889.129	4.09
889.296	4.27
889.464	2.59
889.632	6.87
889.8	5.62
889.967	7.72
890.135	14.63
