Data from 2938848__Reflection_04.txt Node
Date: Wed Mar 11 13:45:36 EDT 2015
User: robert
Spectrometer: USB4E03002
Autoset integration time: false
Trigger mode: 4
Integration Time (sec): 1.000000E-1
Scans to average: 10
Electric dark correction enabled: false
Nonlinearity correction enabled: false
Boxcar width: 5
Stray light correction enabled: false
XAxis mode: Wavelengths
Stop averaging: false
Number of Pixels in Spectrum: 3648
>>>>>Begin Spectral Data<<<<<
177.575	-1940.74
177.794	1087.5
178.014	369.86
178.233	779.41
178.452	393.43
178.672	184.76
178.891	116.95
179.11	78.87
179.33	43.02
179.549	61.87
179.768	76.92
179.987	-30.59
180.207	-11.02
180.426	-26.91
180.645	-11.44
180.864	-10.44
181.084	-98.94
181.303	-880.95
181.522	-300
181.741	-242.01
181.96	-480.85
182.179	-1268.97
182.398	-672.94
182.618	705.49
182.837	961.54
183.056	1551.06
183.275	286.79
183.494	224.39
183.713	256.97
183.932	152.99
184.151	124.36
184.37	104.08
184.589	172.85
184.808	201.46
185.027	-528.57
185.246	-65.56
185.465	3.32
185.684	41.31
185.903	25.83
186.122	13.77
186.341	14.85
186.56	-1.6
186.779	6.52
186.998	4.55
187.216	17.12
187.435	13.44
187.654	3.96
187.873	11.89
188.092	-4.87
188.311	14.09
188.53	32.54
188.748	36.67
188.967	40.2
189.186	54.16
189.405	60.04
189.623	63.99
189.842	65.23
190.061	77.82
190.28	75.96
190.498	72.66
190.717	63.32
190.936	56.07
191.154	50.71
191.373	72.68
191.592	44.2
191.81	48.83
192.029	39.65
192.248	90.27
192.466	38.91
192.685	37.33
192.904	58.33
193.122	36.68
193.341	11.89
193.559	-18
193.778	-216.05
193.996	-82.09
194.215	-97.56
194.433	-52.43
194.652	-56.73
194.87	-65.98
195.089	-60.08
195.307	-39.34
195.526	-48.77
195.744	27.32
195.963	42.76
196.181	62.3
196.399	91.2
196.618	54.53
196.836	66.48
197.055	67.09
197.273	85.19
197.491	84.92
197.71	56.77
197.928	52.19
198.146	33.03
198.365	14.67
198.583	2.13
198.801	2.52
199.019	17.11
199.238	-5.5
199.456	-22.94
199.674	-73.78
199.892	-7.09
200.111	-1.13
200.329	-13.81
200.547	-19.76
200.765	-9.07
200.983	-17.98
201.202	-35.97
201.42	-11.67
201.638	19.56
201.856	18.16
202.074	18.78
202.292	-5.71
202.51	7.5
202.728	-15.29
202.946	5.33
203.165	18.63
203.383	37.5
203.601	36.13
203.819	45.3
204.037	13.67
204.255	21.46
204.473	8.25
204.691	-13.31
204.909	-11.79
205.127	-1.15
205.345	-22.99
205.562	-0.88
205.78	-27.07
205.998	-44.39
206.216	-96.34
206.434	-27.3
206.652	-22.73
206.87	3.21
207.088	34.11
207.306	34.68
207.523	29.84
207.741	19.29
207.959	5.71
208.177	20.48
208.395	24.66
208.612	58.16
208.83	67.25
209.048	85.34
209.266	67.31
209.483	32.69
209.701	5.96
209.919	30.49
210.136	72.66
210.354	78.38
210.572	62.9
210.79	41.28
211.007	24.95
211.225	1.13
211.442	6.56
211.66	-26
211.878	13.46
212.095	18.83
212.313	0.87
212.53	-16.73
212.748	-5.06
212.966	-7.87
213.183	0.73
213.401	4.88
213.618	2.36
213.836	3.35
214.053	10.63
214.271	1.33
214.488	-6.57
214.705	-9.96
214.923	-6.28
215.14	-32.59
215.358	-20.83
215.575	-19.46
215.793	-21.35
216.01	-26.41
216.227	-16.23
216.445	-6.89
216.662	1.38
216.879	2.93
217.097	15.46
217.314	15.25
217.531	20.53
217.749	16.06
217.966	17.35
218.183	22.65
218.4	24.68
218.618	21.65
218.835	17.99
219.052	15.22
219.269	15.54
219.487	11.09
219.704	15.62
219.921	24.11
220.138	22.02
220.355	27.06
220.572	20.96
220.79	20.36
221.007	17.26
221.224	8.41
221.441	3.17
221.658	12.52
221.875	7.55
222.092	6.32
222.309	-1.21
222.526	-2
222.743	-9.26
222.96	-8.02
223.177	-9.28
223.394	-7.51
223.611	-2.14
223.828	0.79
224.045	1.43
224.262	6.88
224.479	6.73
224.696	13.71
224.913	15.67
225.13	19.49
225.347	16.5
225.564	17.45
225.781	15.16
225.997	16.15
226.214	18.95
226.431	15.37
226.648	12.69
226.865	11.73
227.082	10.69
227.298	10.57
227.515	9.36
227.732	9.16
227.949	8.95
228.165	8.24
228.382	7.12
228.599	5.4
228.816	5.81
229.032	6.39
229.249	5.91
229.466	5.12
229.682	4.72
229.899	4.89
230.116	4.83
230.332	4.16
230.549	4.18
230.765	4.68
230.982	5.31
231.199	4.93
231.415	3.94
231.632	3.77
231.848	3.54
232.065	4.45
232.281	4.06
232.498	3.89
232.714	3.65
232.931	3.9
233.147	3.21
233.364	3.38
233.58	3.82
233.797	4.61
234.013	4.81
234.23	5.05
234.446	4.53
234.662	3.39
234.879	3.44
235.095	4.1
235.312	5.09
235.528	4.12
235.744	4.11
235.961	3.02
236.177	2.55
236.393	3.16
236.61	2.78
236.826	4.08
237.042	5.02
237.258	3.42
237.475	3.38
237.691	1.83
237.907	3.18
238.123	3.09
238.339	3.82
238.556	3.26
238.772	3.48
238.988	4.57
239.204	3.21
239.42	4.64
239.636	6.89
239.853	7.27
240.069	7.46
240.285	7.82
240.501	7.31
240.717	7.18
240.933	7.01
241.149	6.83
241.365	6.36
241.581	6.42
241.797	5.45
242.013	5.19
242.229	4.83
242.445	4.71
242.661	4.55
242.877	4.37
243.093	4.37
243.309	4.52
243.525	4.79
243.741	5.15
243.957	4.73
244.173	5.1
244.388	5.18
244.604	5.02
244.82	4.94
245.036	4.76
245.252	5.17
245.468	5.61
245.683	6.02
245.899	5.63
246.115	5.47
246.331	5.81
246.547	5.4
246.762	5.62
246.978	5.64
247.194	5.96
247.409	6.08
247.625	6.25
247.841	5.81
248.057	5.68
248.272	5.65
248.488	5.44
248.703	5.56
248.919	5.52
249.135	5.47
249.35	5.58
249.566	4.93
249.782	4.89
249.997	4.42
250.213	4.65
250.428	4.19
250.644	4.43
250.859	5.17
251.075	4.59
251.29	5.52
251.506	5.35
251.721	5.26
251.937	5.97
252.152	6.02
252.368	6.3
252.583	6.44
252.798	6.36
253.014	6.39
253.229	5.9
253.445	6.23
253.66	5.62
253.875	5.35
254.091	5.15
254.306	5.25
254.521	4.79
254.737	5.28
254.952	4.93
255.167	4.97
255.383	4.3
255.598	4.17
255.813	4.03
256.028	4.03
256.244	5.05
256.459	5.63
256.674	5.04
256.889	4.85
257.104	3.95
257.32	3.75
257.535	3.53
257.75	3.73
257.965	3.94
258.18	3.91
258.395	4.24
258.61	3.85
258.826	3.48
259.041	3.56
259.256	3.98
259.471	3.93
259.686	4.28
259.901	4.42
260.116	4.51
260.331	4.56
260.546	4.7
260.761	4.59
260.976	4.42
261.191	4.67
261.406	4.68
261.621	4.43
261.836	4.45
262.05	3.91
262.265	3.67
262.48	3.22
262.695	2.8
262.91	2.24
263.125	2.48
263.34	2.26
263.555	2.01
263.769	1.79
263.984	1.32
264.199	1.31
264.414	1.76
264.629	1.71
264.843	2.55
265.058	3.05
265.273	2.61
265.488	1.98
265.702	2.27
265.917	2.77
266.132	2.68
266.346	2.98
266.561	3.71
266.776	3.85
266.99	4.2
267.205	3.93
267.42	3.81
267.634	4.29
267.849	4.74
268.063	4.8
268.278	4.34
268.492	4.8
268.707	4.57
268.922	3.91
269.136	3.79
269.351	3.51
269.565	3.39
269.78	3.19
269.994	2.91
270.209	2.85
270.423	2.73
270.637	2.9
270.852	2.88
271.066	3.37
271.281	3.21
271.495	3.28
271.709	3.21
271.924	3.39
272.138	3.54
272.353	3.61
272.567	3.5
272.781	3.74
272.996	3.71
273.21	3.65
273.424	3.81
273.638	4
273.853	4.11
274.067	4.52
274.281	4.69
274.495	4.53
274.71	4.69
274.924	4.65
275.138	4.68
275.352	4.9
275.566	4.88
275.781	4.63
275.995	4.96
276.209	4.74
276.423	4.74
276.637	4.15
276.851	4.41
277.065	4.5
277.279	4.83
277.493	4.64
277.707	4.72
277.921	4.68
278.135	4.59
278.349	4.2
278.563	3.79
278.777	3.53
278.991	3.77
279.205	3.37
279.419	3.51
279.633	3.44
279.847	3.61
280.061	3.58
280.275	3.51
280.489	3.17
280.703	3.28
280.917	4.04
281.131	4.07
281.344	4.19
281.558	4.57
281.772	4.19
281.986	3.94
282.2	3.78
282.414	3.6
282.627	3.63
282.841	3.68
283.055	3.8
283.269	3.42
283.482	3.34
283.696	3.36
283.91	3.27
284.123	3.4
284.337	3.48
284.551	3.63
284.764	3.69
284.978	3.72
285.192	3.84
285.405	3.59
285.619	3.77
285.833	3.84
286.046	3.73
286.26	3.75
286.473	3.76
286.687	3.79
286.9	3.88
287.114	3.97
287.327	3.94
287.541	3.97
287.754	4
287.968	3.83
288.181	4.11
288.395	4.01
288.608	3.78
288.822	3.57
289.035	3.64
289.248	3.47
289.462	3.65
289.675	3.78
289.889	3.73
290.102	3.97
290.315	3.95
290.529	3.82
290.742	4.01
290.955	4.28
291.169	4.46
291.382	4.61
291.595	4.8
291.808	4.63
292.022	4.6
292.235	4.54
292.448	4.38
292.661	4.59
292.875	4.52
293.088	4.62
293.301	4.57
293.514	4.62
293.727	4.42
293.94	4.2
294.153	4.01
294.367	4.23
294.58	4.42
294.793	4.43
295.006	4.12
295.219	4.08
295.432	3.83
295.645	4.06
295.858	4
296.071	3.85
296.284	3.77
296.497	3.86
296.71	3.86
296.923	3.94
297.136	4.15
297.349	4.44
297.562	4.54
297.775	4.63
297.988	4.52
298.201	4.68
298.414	4.96
298.626	5.14
298.839	5.16
299.052	5.3
299.265	5.19
299.478	5.3
299.691	5.41
299.903	5.74
300.116	5.87
300.329	5.73
300.542	5.89
300.755	5.96
300.967	6.11
301.18	6.53
301.393	6.2
301.605	6.66
301.818	6.73
302.031	6.74
302.243	6.56
302.456	6.71
302.669	6.98
302.881	6.96
303.094	6.94
303.307	7.09
303.519	6.84
303.732	6.99
303.944	6.72
304.157	6.61
304.37	6.45
304.582	6.39
304.795	6.58
305.007	6.48
305.22	6.5
305.432	6.5
305.645	6.4
305.857	6.22
306.069	6.33
306.282	6.44
306.494	6.47
306.707	6.45
306.919	6.89
307.132	6.98
307.344	7.67
307.556	7.3
307.769	7.37
307.981	7.5
308.193	7.74
308.406	7.91
308.618	8.11
308.83	8.11
309.043	8.26
309.255	7.91
309.467	7.77
309.679	7.38
309.892	7.72
310.104	7.92
310.316	7.92
310.528	8.2
310.74	8.32
310.953	8.08
311.165	8.18
311.377	8.3
311.589	8.29
311.801	8.31
312.013	8.26
312.225	8.28
312.437	8.28
312.649	8.43
312.862	8.03
313.074	8.14
313.286	8.03
313.498	8.2
313.71	8.32
313.922	8.28
314.134	8.75
314.346	8.65
314.558	8.67
314.77	8.4
314.982	8.37
315.193	8.44
315.405	7.87
315.617	8.15
315.829	7.73
316.041	7.7
316.253	7.7
316.465	7.14
316.677	7.6
316.888	7.77
317.1	7.82
317.312	7.76
317.524	8.01
317.736	8.04
317.947	8.44
318.159	8.66
318.371	8.54
318.583	9.1
318.794	9.29
319.006	9.32
319.218	9.3
319.43	9.2
319.641	9.07
319.853	8.58
320.064	8.64
320.276	8.39
320.488	8.22
320.699	8.31
320.911	8.38
321.123	8.34
321.334	8.24
321.546	8.33
321.757	8.74
321.969	9.21
322.18	9.82
322.392	10.23
322.603	10.26
322.815	10.71
323.026	10.58
323.238	10.22
323.449	10.45
323.661	10.26
323.872	10.13
324.083	9.97
324.295	9.9
324.506	9.53
324.718	9.45
324.929	9.53
325.14	9.46
325.352	9.5
325.563	9.92
325.774	9.63
325.986	9.73
326.197	9.61
326.408	9.72
326.62	9.44
326.831	10.08
327.042	10.1
327.253	9.88
327.464	9.76
327.676	9.88
327.887	9.63
328.098	9.74
328.309	9.83
328.52	9.82
328.732	9.74
328.943	10.05
329.154	9.87
329.365	9.79
329.576	10.03
329.787	9.93
329.998	10
330.209	10.29
330.42	10.57
330.631	10.36
330.842	10.53
331.053	10.57
331.264	10.54
331.475	10.71
331.686	10.89
331.897	11.15
332.108	11.16
332.319	10.91
332.53	10.8
332.741	10.44
332.952	10.59
333.163	10.67
333.374	10.83
333.585	10.72
333.795	10.72
334.006	10.5
334.217	9.96
334.428	10.17
334.639	10.34
334.849	10.15
335.06	10.36
335.271	10.19
335.482	10.53
335.692	10.45
335.903	10.34
336.114	10.12
336.325	10.23
336.535	10.42
336.746	10.56
336.957	10.3
337.167	10.38
337.378	10.38
337.589	10.87
337.799	10.78
338.01	10.58
338.22	10.63
338.431	10.29
338.642	10.28
338.852	10.28
339.063	10.09
339.273	10.05
339.484	10.06
339.694	9.99
339.905	9.51
340.115	9.22
340.326	9.29
340.536	9.37
340.746	9.8
340.957	9.7
341.167	9.9
341.378	9.94
341.588	10.23
341.799	10.06
342.009	9.91
342.219	9.71
342.43	10.08
342.64	10.13
342.85	9.85
343.061	9.76
343.271	9.87
343.481	9.5
343.691	9.42
343.902	9.49
344.112	9.38
344.322	9.45
344.532	9.74
344.743	9.22
344.953	9.32
345.163	9.49
345.373	9.39
345.583	9.47
345.793	9.66
346.004	9.6
346.214	9.19
346.424	9.51
346.634	9.66
346.844	9.69
347.054	9.72
347.264	9.75
347.474	9.57
347.684	9.53
347.894	9.28
348.104	9.05
348.314	8.73
348.524	8.92
348.734	8.83
348.944	8.58
349.154	8.4
349.364	8.45
349.574	8.27
349.784	8.69
349.994	8.56
350.204	8.6
350.413	8.54
350.623	8.61
350.833	8.6
351.043	8.37
351.253	8.46
351.463	8.72
351.672	8.73
351.882	8.96
352.092	8.83
352.302	8.99
352.511	9.21
352.721	9.21
352.931	9.26
353.141	9.2
353.35	9.19
353.56	9.26
353.77	9.12
353.979	9.14
354.189	8.87
354.399	8.51
354.608	8.53
354.818	8.24
355.027	8.51
355.237	8.56
355.447	8.65
355.656	8.81
355.866	8.37
356.075	8.47
356.285	8.48
356.494	8.48
356.704	8.9
356.913	9
357.123	8.89
357.332	8.92
357.542	9.06
357.751	9.01
357.96	8.83
358.17	9.02
358.379	8.83
358.589	8.77
358.798	8.93
359.007	8.76
359.217	8.56
359.426	8.86
359.635	8.81
359.845	8.57
360.054	8.72
360.263	8.86
360.472	8.99
360.682	8.85
360.891	8.87
361.1	8.83
361.309	8.82
361.519	8.87
361.728	8.89
361.937	8.78
362.146	8.84
362.355	8.83
362.564	8.86
362.774	9.04
362.983	9.18
363.192	9.19
363.401	9.23
363.61	9.22
363.819	9.16
364.028	9.02
364.237	9.18
364.446	9.53
364.655	9.48
364.864	9.39
365.073	9.11
365.282	9.03
365.491	9.11
365.7	8.97
365.909	8.98
366.118	8.9
366.327	9
366.536	8.77
366.745	8.29
366.954	8.23
367.162	8.54
367.371	8.43
367.58	8.39
367.789	8.2
367.998	8.24
368.207	8.1
368.415	7.92
368.624	7.87
368.833	8.02
369.042	8.3
369.25	8.21
369.459	7.75
369.668	7.81
369.877	8.01
370.085	7.91
370.294	7.94
370.503	7.99
370.711	8.27
370.92	8.13
371.129	8.1
371.337	8
371.546	8.12
371.754	8.25
371.963	8.44
372.171	8.37
372.38	8.37
372.589	8.09
372.797	8.1
373.006	7.92
373.214	8.1
373.423	8.14
373.631	8.16
373.84	8.2
374.048	8.04
374.256	7.89
374.465	7.77
374.673	7.76
374.882	8.03
375.09	7.92
375.298	7.98
375.507	7.81
375.715	7.66
375.923	7.42
376.132	7.21
376.34	7.39
376.548	7.29
376.757	7.4
376.965	7.5
377.173	7.29
377.381	7.41
377.59	7.38
377.798	7.46
378.006	7.57
378.214	7.76
378.423	7.87
378.631	7.7
378.839	7.7
379.047	7.59
379.255	7.61
379.463	7.6
379.671	7.56
379.879	7.5
380.088	7.54
380.296	7.48
380.504	7.57
380.712	7.5
380.92	7.36
381.128	7.11
381.336	7.15
381.544	7.27
381.752	7.38
381.96	7.29
382.168	7.26
382.376	7.01
382.584	6.99
382.791	6.71
382.999	6.39
383.207	6.56
383.415	6.67
383.623	6.54
383.831	6.3
384.039	6.3
384.247	6.16
384.454	6.39
384.662	6.42
384.87	6.41
385.078	6.51
385.285	6.62
385.493	6.54
385.701	6.64
385.909	6.82
386.116	6.94
386.324	6.92
386.532	7.07
386.739	6.66
386.947	6.65
387.155	6.68
387.362	6.75
387.57	6.73
387.778	6.81
387.985	6.68
388.193	6.73
388.4	6.36
388.608	6.25
388.816	6.05
389.023	6.12
389.231	6.15
389.438	5.99
389.646	5.88
389.853	6.02
390.061	6.04
390.268	6.02
390.475	5.85
390.683	6.12
390.89	6.18
391.098	6.17
391.305	6.26
391.512	6.14
391.72	6.18
391.927	6
392.135	5.97
392.342	5.95
392.549	6.14
392.756	6.07
392.964	6.03
393.171	6.1
393.378	6.2
393.586	6.14
393.793	6.13
394	6.06
394.207	6.25
394.414	6.24
394.622	6.17
394.829	5.99
395.036	5.9
395.243	5.82
395.45	5.61
395.657	5.6
395.864	5.62
396.072	5.66
396.279	5.76
396.486	5.49
396.693	5.38
396.9	5.26
397.107	5.25
397.314	5.5
397.521	5.43
397.728	5.36
397.935	5.42
398.142	5.3
398.349	5.47
398.556	5.36
398.763	5.49
398.97	5.54
399.177	5.6
399.383	5.6
399.59	5.59
399.797	5.71
400.004	5.77
400.211	5.83
400.418	5.86
400.625	5.93
400.831	5.97
401.038	5.88
401.245	5.93
401.452	5.91
401.658	6.04
401.865	5.73
402.072	5.82
402.279	5.8
402.485	5.54
402.692	5.58
402.899	5.32
403.105	5.42
403.312	5.46
403.519	5.36
403.725	5.34
403.932	5.15
404.138	5.21
404.345	5.12
404.552	5.03
404.758	5.13
404.965	5.2
405.171	5.25
405.378	5.14
405.584	4.99
405.791	5.11
405.997	5.27
406.204	5.34
406.41	5.45
406.617	5.38
406.823	5.5
407.029	5.67
407.236	5.59
407.442	5.48
407.649	5.46
407.855	5.5
408.061	5.38
408.268	5.3
408.474	5.26
408.68	5.34
408.887	5.34
409.093	5.36
409.299	5.15
409.505	5.14
409.712	5.19
409.918	5.28
410.124	5.38
410.33	5.41
410.537	5.39
410.743	5.4
410.949	5.34
411.155	5.37
411.361	5.33
411.567	5.43
411.773	5.48
411.98	5.53
412.186	5.32
412.392	5.34
412.598	5.5
412.804	5.62
413.01	5.67
413.216	5.75
413.422	5.81
413.628	5.69
413.834	5.73
414.04	5.68
414.246	5.6
414.452	5.75
414.658	5.77
414.864	5.59
415.07	5.44
415.275	5.37
415.481	5.33
415.687	5.34
415.893	5.39
416.099	5.26
416.305	5.21
416.511	5.21
416.716	5.11
416.922	5.13
417.128	5.15
417.334	5.21
417.539	5.3
417.745	5.39
417.951	5.46
418.157	5.51
418.362	5.58
418.568	5.52
418.774	5.65
418.979	5.66
419.185	5.62
419.391	5.6
419.596	5.57
419.802	5.59
420.008	5.49
420.213	4.78
420.419	4.78
420.624	4.73
420.83	4.83
421.035	4.76
421.241	4.79
421.446	4.83
421.652	4.89
421.857	4.87
422.063	4.8
422.268	4.8
422.474	5.39
422.679	5.43
422.885	5.45
423.09	5.48
423.295	5.51
423.501	5.48
423.706	5.52
423.911	5.5
424.117	5.51
424.322	5.54
424.527	5.6
424.733	5.68
424.938	5.68
425.143	5.6
425.349	5.59
425.554	5.6
425.759	5.66
425.964	5.58
426.169	5.6
426.375	5.58
426.58	5.54
426.785	5.48
426.99	5.44
427.195	5.45
427.4	5.48
427.605	5.42
427.811	5.34
428.016	5.37
428.221	5.39
428.426	5.38
428.631	5.45
428.836	5.49
429.041	5.56
429.246	5.5
429.451	5.57
429.656	5.77
429.861	5.86
430.066	5.79
430.271	5.77
430.476	5.76
430.681	5.71
430.886	5.76
431.09	5.68
431.295	5.59
431.5	5.56
431.705	5.49
431.91	5.47
432.115	5.51
432.32	5.64
432.524	5.64
432.729	5.68
432.934	5.68
433.139	5.64
433.343	5.74
433.548	5.75
433.753	5.86
433.958	5.83
434.162	5.87
434.367	5.77
434.572	5.72
434.776	5.79
434.981	5.84
435.186	5.78
435.39	5.78
435.595	5.75
435.799	5.78
436.004	5.8
436.209	5.84
436.413	5.73
436.618	5.77
436.822	5.91
437.027	5.81
437.231	5.86
437.436	6.04
437.64	6.07
437.845	6.11
438.049	6.13
438.253	6.12
438.458	6.08
438.662	6.11
438.867	6.06
439.071	6.05
439.275	6.14
439.48	6.09
439.684	5.98
439.888	5.91
440.093	5.92
440.297	5.95
440.501	5.87
440.706	5.85
440.91	5.84
441.114	5.92
441.318	5.75
441.523	5.69
441.727	5.74
441.931	5.83
442.135	5.86
442.339	5.85
442.543	5.82
442.748	5.85
442.952	5.85
443.156	5.8
443.36	5.75
443.564	5.87
443.768	5.88
443.972	5.89
444.176	5.86
444.38	5.88
444.584	5.87
444.788	5.76
444.992	5.77
445.196	5.86
445.4	5.94
445.604	6.05
445.808	6.09
446.012	6.1
446.216	6.01
446.42	6.04
446.624	5.99
446.828	5.95
447.032	6.01
447.235	5.95
447.439	5.94
447.643	5.89
447.847	5.83
448.051	5.78
448.254	5.74
448.458	5.69
448.662	5.66
448.866	5.77
449.069	5.78
449.273	5.76
449.477	5.73
449.681	5.73
449.884	5.73
450.088	5.68
450.292	5.78
450.495	5.86
450.699	6
450.902	6.01
451.106	5.9
451.31	5.98
451.513	6.02
451.717	6.16
451.92	6.08
452.124	6.13
452.327	6.12
452.531	6.04
452.734	5.93
452.938	5.83
453.141	5.84
453.345	5.91
453.548	5.83
453.752	5.8
453.955	5.7
454.158	5.7
454.362	5.65
454.565	5.68
454.769	5.75
454.972	5.77
455.175	5.86
455.379	5.82
455.582	5.8
455.785	5.82
455.988	5.89
456.192	5.99
456.395	6.07
456.598	6.07
456.801	6.11
457.005	6.1
457.208	6.18
457.411	6.12
457.614	6.15
457.817	6.13
458.021	6.15
458.224	6.07
458.427	6.03
458.63	5.94
458.833	5.91
459.036	5.86
459.239	5.75
459.442	5.73
459.645	5.67
459.848	5.67
460.051	5.69
460.254	5.66
460.457	5.64
460.66	5.64
460.863	5.64
461.066	5.7
461.269	5.74
461.472	5.82
461.675	5.8
461.878	5.81
462.081	5.71
462.284	5.77
462.486	5.84
462.689	5.96
462.892	5.94
463.095	6.01
463.298	5.96
463.5	5.97
463.703	6
463.906	5.97
464.109	5.98
464.311	5.96
464.514	5.83
464.717	5.72
464.92	5.66
465.122	5.68
465.325	5.67
465.528	5.61
465.73	5.59
465.933	5.57
466.135	5.59
466.338	5.57
466.541	5.67
466.743	5.62
466.946	5.69
467.148	5.73
467.351	5.74
467.553	5.76
467.756	5.82
467.958	5.81
468.161	5.75
468.363	5.78
468.566	5.87
468.768	5.91
468.971	5.92
469.173	5.9
469.375	5.96
469.578	5.99
469.78	6.03
469.983	6.1
470.185	6.05
470.387	6.11
470.59	6.1
470.792	6.14
470.994	6.11
471.196	6.16
471.399	6.22
471.601	6.12
471.803	6.12
472.005	6.11
472.208	6.12
472.41	6.15
472.612	6.17
472.814	6.23
473.016	6.25
473.218	6.19
473.421	6.23
473.623	6.12
473.825	6.22
474.027	6.22
474.229	6.1
474.431	5.93
474.633	5.97
474.835	6
475.037	5.99
475.239	5.96
475.441	6.01
475.643	5.99
475.845	6.12
476.047	6.08
476.249	6.04
476.451	6.19
476.653	6.34
476.855	6.26
477.057	6.22
477.258	6.14
477.46	6.12
477.662	6.16
477.864	6.21
478.066	6.18
478.268	6.15
478.469	6.13
478.671	6.08
478.873	6.08
479.075	6.12
479.276	6.16
479.478	6.18
479.68	6.12
479.882	6.14
480.083	6.12
480.285	6.12
480.487	6.09
480.688	6.14
480.89	6.14
481.091	6.08
481.293	6.14
481.495	6.1
481.696	6.15
481.898	6.19
482.099	6.17
482.301	6.18
482.502	6.19
482.704	6.2
482.905	6.18
483.107	6.19
483.308	6.18
483.51	6.13
483.711	6.12
483.913	6.14
484.114	6.14
484.315	6.12
484.517	6.1
484.718	6.09
484.92	6.09
485.121	6.08
485.322	6.04
485.524	6.03
485.725	6.07
485.926	6.09
486.127	6.03
486.329	6.02
486.53	6.03
486.731	6.06
486.932	6.05
487.134	6.04
487.335	6.07
487.536	6.1
487.737	6.1
487.938	6.11
488.139	6.08
488.341	6.09
488.542	6.1
488.743	6.1
488.944	6.11
489.145	6.1
489.346	6.13
489.547	6.08
489.748	6.08
489.949	6.11
490.15	6.09
490.351	6.13
490.552	6.17
490.753	6.18
490.954	6.2
491.155	6.14
491.356	6.19
491.557	6.2
491.758	6.23
491.959	6.23
492.159	6.25
492.36	6.26
492.561	6.25
492.762	6.23
492.963	6.26
493.164	6.24
493.364	6.33
493.565	6.31
493.766	6.32
493.967	6.35
494.167	6.33
494.368	6.31
494.569	6.36
494.769	6.4
494.97	6.43
495.171	6.36
495.371	6.39
495.572	6.39
495.773	6.39
495.973	6.41
496.174	6.39
496.375	6.49
496.575	6.58
496.776	6.57
496.976	6.59
497.177	6.57
497.377	6.63
497.578	6.62
497.778	6.62
497.979	6.64
498.179	6.62
498.38	6.65
498.58	6.65
498.78	6.6
498.981	6.54
499.181	6.49
499.382	6.64
499.582	6.64
499.782	6.72
499.983	6.71
500.183	6.69
500.383	6.74
500.584	6.73
500.784	6.66
500.984	6.63
501.184	6.71
501.385	6.81
501.585	6.81
501.785	6.88
501.985	6.89
502.185	7.05
502.386	7.13
502.586	7.12
502.786	7.19
502.986	7.19
503.186	7.19
503.386	7.27
503.586	7.24
503.786	7.2
503.987	7.16
504.187	7.06
504.387	7.02
504.587	6.95
504.787	7.03
504.987	7.14
505.187	7.23
505.387	7.38
505.587	7.32
505.786	7.36
505.986	7.46
506.186	7.53
506.386	7.66
506.586	7.67
506.786	7.74
506.986	7.73
507.186	7.67
507.386	7.74
507.585	7.76
507.785	7.86
507.985	7.89
508.185	7.82
508.384	7.91
508.584	7.99
508.784	7.99
508.984	8.1
509.183	8.1
509.383	8.09
509.583	8.13
509.782	8.19
509.982	8.24
510.182	8.28
510.381	8.42
510.581	8.35
510.781	8.36
510.98	8.36
511.18	8.36
511.379	8.4
511.579	8.47
511.778	8.51
511.978	8.49
512.177	8.47
512.377	8.53
512.576	8.53
512.776	8.56
512.975	8.62
513.175	8.73
513.374	8.74
513.573	8.82
513.773	8.91
513.972	8.98
514.172	9.01
514.371	9.11
514.57	9.1
514.77	9.16
514.969	9.27
515.168	9.24
515.367	9.33
515.567	9.51
515.766	9.59
515.965	9.65
516.164	9.7
516.364	9.82
516.563	9.85
516.762	10.03
516.961	10.1
517.16	10.11
517.359	10.21
517.559	10.31
517.758	10.27
517.957	10.35
518.156	10.43
518.355	10.45
518.554	10.49
518.753	10.6
518.952	10.65
519.151	10.7
519.35	10.85
519.549	10.93
519.748	10.93
519.947	11.06
520.146	11.09
520.345	11.16
520.544	11.25
520.743	11.33
520.942	11.39
521.141	11.41
521.339	11.48
521.538	11.46
521.737	11.58
521.936	11.65
522.135	11.71
522.333	11.84
522.532	11.87
522.731	12.03
522.93	12.16
523.129	12.24
523.327	12.4
523.526	12.51
523.725	12.6
523.923	12.62
524.122	12.71
524.321	12.81
524.519	12.8
524.718	12.92
524.917	12.92
525.115	12.96
525.314	13.01
525.512	13.09
525.711	13.14
525.909	13.18
526.108	13.33
526.306	13.42
526.505	13.53
526.703	13.69
526.902	13.78
527.1	13.88
527.299	13.97
527.497	14.1
527.696	14.11
527.894	14.2
528.092	14.29
528.291	14.34
528.489	14.4
528.688	14.43
528.886	14.46
529.084	14.52
529.283	14.56
529.481	14.64
529.679	14.66
529.877	14.73
530.076	14.8
530.274	14.87
530.472	14.93
530.67	15.03
530.869	15.11
531.067	15.19
531.265	15.26
531.463	15.37
531.661	15.43
531.859	15.55
532.057	15.67
532.255	15.79
532.454	15.9
532.652	15.97
532.85	16.06
533.048	16.15
533.246	16.23
533.444	16.27
533.642	16.37
533.84	16.44
534.038	16.49
534.236	16.53
534.434	16.57
534.632	16.6
534.83	16.7
535.027	16.73
535.225	16.8
535.423	16.86
535.621	17.01
535.819	17.05
536.017	17.12
536.215	17.14
536.412	17.24
536.61	17.27
536.808	17.33
537.006	17.37
537.203	17.45
537.401	17.44
537.599	17.54
537.797	17.59
537.994	17.67
538.192	17.72
538.39	17.84
538.587	17.93
538.785	18.05
538.983	18.21
539.18	18.31
539.378	18.46
539.575	18.6
539.773	18.67
539.97	18.7
540.168	18.82
540.366	18.9
540.563	18.99
540.761	19.06
540.958	19.15
541.155	19.15
541.353	19.18
541.55	19.19
541.748	19.22
541.945	19.28
542.143	19.35
542.34	19.36
542.537	19.42
542.735	19.44
542.932	19.48
543.129	19.53
543.327	19.56
543.524	19.63
543.721	19.69
543.919	19.8
544.116	19.86
544.313	19.91
544.51	19.96
544.708	20.02
544.905	20.09
545.102	20.14
545.299	20.12
545.496	20.23
545.693	20.31
545.891	20.34
546.088	20.32
546.285	20.35
546.482	20.38
546.679	20.44
546.876	20.47
547.073	20.53
547.27	20.52
547.467	20.53
547.664	20.58
547.861	20.59
548.058	20.61
548.255	20.7
548.452	20.75
548.649	20.88
548.846	20.85
549.043	20.88
549.24	20.88
549.437	21.03
549.633	21.15
549.83	21.12
550.027	21.07
550.224	21.17
550.421	21.25
550.618	21.2
550.814	21.18
551.011	21.24
551.208	21.31
551.405	21.3
551.601	21.27
551.798	21.31
551.995	21.4
552.191	21.5
552.388	21.5
552.585	21.47
552.781	21.57
552.978	21.63
553.175	21.66
553.371	21.67
553.568	21.76
553.764	21.82
553.961	21.74
554.157	21.73
554.354	21.71
554.55	21.67
554.747	21.69
554.943	21.78
555.14	21.78
555.336	21.83
555.533	21.9
555.729	21.9
555.926	21.88
556.122	21.87
556.318	21.89
556.515	22.01
556.711	22.15
556.907	22.25
557.104	22.2
557.3	22.1
557.496	22.06
557.693	22.05
557.889	22.27
558.085	22.34
558.281	22.66
558.478	22.74
558.674	22.83
558.87	22.82
559.066	22.81
559.262	22.78
559.459	22.96
559.655	23.12
559.851	23.24
560.047	23.09
560.243	23.22
560.439	23.12
560.635	23.06
560.831	22.99
561.027	22.93
561.223	22.94
561.419	23.13
561.615	23.07
561.811	23.13
562.007	23.04
562.203	23.02
562.399	22.96
562.595	23.01
562.791	23.22
562.987	23.29
563.183	23.4
563.379	23.48
563.575	23.43
563.771	23.38
563.966	23.32
564.162	23.46
564.358	23.58
564.554	23.62
564.75	23.75
564.945	23.64
565.141	23.66
565.337	23.71
565.533	23.74
565.728	23.77
565.924	23.89
566.12	23.88
566.315	23.85
566.511	23.77
566.707	23.78
566.902	23.67
567.098	23.75
567.293	23.77
567.489	23.76
567.684	23.73
567.88	23.74
568.076	23.85
568.271	23.96
568.467	23.97
568.662	24.05
568.858	24.09
569.053	24.11
569.248	24.06
569.444	24.18
569.639	24.15
569.835	24.22
570.03	24.24
570.225	24.26
570.421	24.31
570.616	24.36
570.812	24.39
571.007	24.45
571.202	24.5
571.397	24.52
571.593	24.42
571.788	24.46
571.983	24.51
572.178	24.5
572.374	24.51
572.569	24.56
572.764	24.51
572.959	24.5
573.154	24.46
573.35	24.44
573.545	24.55
573.74	24.64
573.935	24.72
574.13	24.62
574.325	24.68
574.52	24.73
574.715	24.66
574.91	24.69
575.105	24.83
575.3	24.79
575.495	24.83
575.69	24.76
575.885	24.7
576.08	24.65
576.275	24.77
576.47	24.76
576.665	24.74
576.86	24.72
577.055	24.88
577.25	24.88
577.444	24.92
577.639	25
577.834	25.14
578.029	25.19
578.224	25.25
578.418	25.34
578.613	25.41
578.808	25.36
579.003	25.5
579.197	25.45
579.392	25.32
579.587	25.43
579.781	25.47
579.976	25.36
580.171	25.59
580.365	25.53
580.56	25.49
580.755	25.5
580.949	25.6
581.144	25.52
581.338	25.41
581.533	25.57
581.727	25.56
581.922	25.51
582.116	25.62
582.311	25.49
582.505	25.6
582.7	25.58
582.894	25.51
583.089	25.59
583.283	25.55
583.478	25.69
583.672	25.62
583.866	25.65
584.061	25.75
584.255	25.72
584.449	25.81
584.644	25.85
584.838	25.92
585.032	25.97
585.226	25.84
585.421	25.95
585.615	26.03
585.809	26.07
586.003	26.06
586.198	25.99
586.392	25.97
586.586	26.05
586.78	26.07
586.974	26.13
587.168	26.1
587.363	26.2
587.557	26.22
587.751	26.03
587.945	25.97
588.139	26.1
588.333	26.03
588.527	26
588.721	25.78
588.915	25.68
589.109	25.52
589.303	25.69
589.497	25.65
589.691	25.63
589.885	25.83
590.079	25.92
590.273	25.81
590.466	25.98
590.66	26.04
590.854	26.2
591.048	26.23
591.242	26.33
591.436	26.17
591.629	26.18
591.823	26.16
592.017	26.02
592.211	26.08
592.404	26.07
592.598	26.02
592.792	26.03
592.986	25.83
593.179	25.91
593.373	25.86
593.567	26.01
593.76	25.97
593.954	26.03
594.147	26.17
594.341	26.13
594.535	26.18
594.728	26.18
594.922	26.31
595.115	26.54
595.309	26.52
595.502	26.55
595.696	26.5
595.889	26.46
596.083	26.41
596.276	26.36
596.47	26.4
596.663	26.44
596.856	26.33
597.05	26.29
597.243	26.23
597.437	26.19
597.63	26.18
597.823	26.15
598.017	26.18
598.21	26.31
598.403	26.28
598.596	26.25
598.79	26.22
598.983	26.28
599.176	26.38
599.369	26.38
599.563	26.5
599.756	26.48
599.949	26.72
600.142	26.85
600.335	26.71
600.528	26.8
600.722	26.71
600.915	26.79
601.108	26.81
601.301	26.69
601.494	26.65
601.687	26.73
601.88	26.74
602.073	26.51
602.266	26.39
602.459	26.37
602.652	26.34
602.845	26.42
603.038	26.35
603.231	26.34
603.424	26.32
603.617	26.35
603.809	26.41
604.002	26.31
604.195	26.3
604.388	26.34
604.581	26.54
604.774	26.59
604.966	26.56
605.159	26.58
605.352	26.7
605.545	26.83
605.737	26.92
605.93	26.83
606.123	26.99
606.316	27.01
606.508	27
606.701	26.87
606.894	26.93
607.086	26.98
607.279	27.06
607.471	27.1
607.664	27.04
607.857	26.92
608.049	26.98
608.242	27.03
608.434	27.19
608.627	27.44
608.819	27.59
609.012	27.66
609.204	27.92
609.397	28.06
609.589	28.24
609.782	28.48
609.974	28.78
610.166	28.94
610.359	29.31
610.551	29.54
610.743	29.79
610.936	29.89
611.128	30.17
611.32	30.09
611.513	30.22
611.705	30.34
611.897	30.22
612.09	30.22
612.282	30.04
612.474	29.8
612.666	29.66
612.858	29.46
613.051	29.29
613.243	29.11
613.435	29.11
613.627	28.98
613.819	28.74
614.011	28.75
614.203	28.52
614.395	28.65
614.588	28.62
614.78	28.59
614.972	28.4
615.164	28.28
615.356	28.13
615.548	28.15
615.74	28.16
615.932	28.11
616.124	27.96
616.315	28.16
616.507	28.17
616.699	28.14
616.891	27.95
617.083	28.01
617.275	28.07
617.467	28.11
617.659	28.17
617.85	28.04
618.042	28.18
618.234	28.2
618.426	28.04
618.618	27.88
618.809	27.81
619.001	27.94
619.193	27.73
619.384	27.74
619.576	27.83
619.768	27.8
619.959	27.88
620.151	27.79
620.343	27.99
620.534	28.05
620.726	28.33
620.917	28.31
621.109	28.18
621.301	28.52
621.492	28.48
621.684	28.39
621.875	28.31
622.067	28.26
622.258	28.2
622.45	27.84
622.641	27.55
622.832	27.34
623.024	27.47
623.215	27.59
623.407	27.34
623.598	27.37
623.789	27.33
623.981	27.37
624.172	27.24
624.363	27.25
624.555	27.42
624.746	27.65
624.937	27.69
625.129	27.75
625.32	27.74
625.511	27.81
625.702	27.98
625.893	27.96
626.085	27.97
626.276	28.11
626.467	28.22
626.658	28.21
626.849	28.33
627.04	28.38
627.231	28.27
627.422	28.49
627.614	28.45
627.805	28.28
627.996	28.43
628.187	28.4
628.378	28.43
628.569	28.44
628.76	28.52
628.951	28.38
629.142	28.44
629.332	28.38
629.523	28.3
629.714	28.25
629.905	28.38
630.096	28.34
630.287	28.42
630.478	28.41
630.669	28.35
630.859	28.43
631.05	28.43
631.241	28.41
631.432	28.57
631.623	28.53
631.813	28.75
632.004	28.77
632.195	28.74
632.385	28.58
632.576	28.58
632.767	28.53
632.957	28.36
633.148	28.38
633.339	28.25
633.529	28.32
633.72	28.41
633.91	28.28
634.101	28.14
634.292	28.04
634.482	28.03
634.673	27.98
634.863	28.01
635.054	28.08
635.244	28.05
635.435	28.15
635.625	27.99
635.815	27.87
636.006	27.93
636.196	27.96
636.387	28.18
636.577	28.29
636.767	28.22
636.958	28.25
637.148	28.38
637.338	28.45
637.529	28.41
637.719	28.46
637.909	28.55
638.099	28.63
638.29	28.6
638.48	28.57
638.67	28.55
638.86	28.7
639.05	28.73
639.241	28.57
639.431	28.56
639.621	28.54
639.811	28.51
640.001	28.39
640.191	28.23
640.381	28.35
640.571	28.34
640.761	28.4
640.951	28.35
641.141	28.3
641.331	28.3
641.521	28.47
641.711	28.5
641.901	28.63
642.091	28.71
642.281	28.64
642.471	28.71
642.661	28.59
642.851	28.5
643.041	28.61
643.231	28.66
643.42	28.88
643.61	28.87
643.8	28.82
643.99	28.59
644.18	28.64
644.369	28.85
644.559	28.86
644.749	29.06
644.939	28.99
645.128	28.88
645.318	29.03
645.508	28.92
645.697	28.77
645.887	28.65
646.076	28.84
646.266	28.49
646.456	28.33
646.645	28.22
646.835	27.94
647.024	28.04
647.214	28
647.403	27.8
647.593	28.06
647.782	28.14
647.972	28.23
648.161	28.24
648.351	28.61
648.54	28.61
648.73	28.64
648.919	28.85
649.108	28.82
649.298	28.87
649.487	28.96
649.677	28.74
649.866	28.5
650.055	28.62
650.244	28.7
650.434	28.52
650.623	28.73
650.812	28.95
651.002	28.88
651.191	28.96
651.38	28.88
651.569	28.87
651.758	28.96
651.947	29.25
652.137	29.36
652.326	29.39
652.515	29.56
652.704	29.49
652.893	29.47
653.082	29.65
653.271	29.48
653.46	29.68
653.649	29.8
653.838	29.68
654.027	29.43
654.216	29.25
654.405	29.04
654.594	28.88
654.783	28.81
654.972	28.79
655.161	28.59
655.35	28.83
655.539	28.84
655.728	28.67
655.916	28.58
656.105	28.73
656.294	28.67
656.483	28.82
656.672	28.85
656.86	28.76
657.049	28.7
657.238	28.73
657.427	28.73
657.615	28.66
657.804	28.63
657.993	28.76
658.181	28.69
658.37	28.95
658.559	29.06
658.747	29.21
658.936	29.15
659.125	29.18
659.313	29.24
659.502	29.23
659.69	29.35
659.879	29.52
660.067	29.6
660.256	29.7
660.444	29.45
660.633	29.19
660.821	28.99
661.01	29.33
661.198	29.27
661.387	29.22
661.575	29.14
661.763	28.92
661.952	28.76
662.14	28.62
662.328	28.7
662.517	28.96
662.705	29.15
662.893	29.27
663.082	29.39
663.27	29.52
663.458	29.59
663.646	29.88
663.834	30.11
664.023	30.08
664.211	30.18
664.399	30.18
664.587	30.04
664.775	30.06
664.963	30
665.152	29.61
665.34	29.65
665.528	29.84
665.716	29.63
665.904	29.51
666.092	29.57
666.28	29.56
666.468	29.5
666.656	29.64
666.844	29.49
667.032	29.57
667.22	29.61
667.408	29.52
667.596	29.29
667.784	29.15
667.971	29.29
668.159	29.26
668.347	29.27
668.535	29.09
668.723	29.24
668.911	29.32
669.098	29.19
669.286	29.14
669.474	29.09
669.662	29.24
669.849	29.45
670.037	29.34
670.225	29.45
670.413	29.36
670.6	29.62
670.788	29.15
670.976	29.3
671.163	29.66
671.351	29.82
671.538	29.81
671.726	29.77
671.913	29.57
672.101	29.41
672.289	29.36
672.476	29.42
672.664	29.19
672.851	29.28
673.039	29.18
673.226	28.9
673.413	28.78
673.601	28.68
673.788	28.6
673.976	28.72
674.163	28.94
674.35	29.16
674.538	28.96
674.725	29.26
674.912	29.38
675.1	29.61
675.287	29.58
675.474	29.69
675.662	30.05
675.849	30.03
676.036	30.01
676.223	29.87
676.411	29.87
676.598	30.03
676.785	30.01
676.972	30.27
677.159	30.02
677.346	30.35
677.533	30.41
677.721	30.11
677.908	30.15
678.095	30.29
678.282	30.12
678.469	30.16
678.656	30.1
678.843	29.98
679.03	29.86
679.217	29.99
679.404	29.82
679.591	29.81
679.778	29.97
679.964	29.88
680.151	29.71
680.338	29.86
680.525	29.71
680.712	29.91
680.899	30.05
681.086	30.05
681.272	30.17
681.459	30.12
681.646	30.12
681.833	30.22
682.02	30.29
682.206	30.42
682.393	30.5
682.58	30.59
682.766	30.47
682.953	30.37
683.14	30.36
683.326	30.23
683.513	30.56
683.7	30.51
683.886	30.33
684.073	30.33
684.259	30.53
684.446	30.61
684.632	30.65
684.819	30.63
685.005	30.62
685.192	30.68
685.378	30.72
685.565	30.49
685.751	30.49
685.938	30.5
686.124	30.35
686.31	29.98
686.497	30.02
686.683	30.05
686.87	30.21
687.056	30.25
687.242	30.28
687.429	30.07
687.615	30.2
687.801	30.24
687.987	30.13
688.174	30.36
688.36	30.72
688.546	30.73
688.732	30.54
688.918	30.35
689.105	30.49
689.291	30.65
689.477	30.73
689.663	30.61
689.849	30.89
690.035	30.88
690.221	30.88
690.407	30.93
690.593	30.88
690.779	31.12
690.965	31.42
691.151	31.21
691.337	30.99
691.523	30.92
691.709	31.08
691.895	30.81
692.081	31.06
692.267	31.2
692.453	31.27
692.639	31.1
692.825	30.96
693.011	30.89
693.196	30.95
693.382	31.14
693.568	31.5
693.754	31.6
693.94	31.5
694.125	31.44
694.311	31.72
694.497	31.71
694.682	31.91
694.868	32.08
695.054	32.28
695.239	32.27
695.425	32.1
695.611	31.79
695.796	31.85
695.982	32.13
696.168	32.03
696.353	31.76
696.539	31.47
696.724	31.6
696.91	31.52
697.095	31.17
697.281	31.11
697.466	31.14
697.652	31.24
697.837	30.92
698.023	30.78
698.208	30.9
698.393	30.87
698.579	30.74
698.764	30.65
698.949	30.56
699.135	30.42
699.32	30.62
699.505	30.57
699.691	30.54
699.876	30.58
700.061	30.67
700.246	30.91
700.432	30.97
700.617	31.22
700.802	31.29
700.987	31.53
701.172	32.09
701.358	32.07
701.543	32.22
701.728	32.31
701.913	32.42
702.098	32.33
702.283	32.19
702.468	32.26
702.653	32.53
702.838	32.56
703.023	32.31
703.208	32.04
703.393	31.73
703.578	31.84
703.763	32.07
703.948	32.34
704.133	32.74
704.318	32.88
704.503	32.89
704.688	32.59
704.873	32.67
705.057	32.79
705.242	33.38
705.427	34.06
705.612	34.27
705.797	34.11
705.981	33.82
706.166	33.62
706.351	33.23
706.536	33.35
706.72	33.3
706.905	33.14
707.09	33.21
707.274	32.81
707.459	32.63
707.644	32.7
707.828	32.82
708.013	33.25
708.197	33.2
708.382	33.6
708.567	33.52
708.751	33.88
708.936	33.94
709.12	33.92
709.305	34.11
709.489	34.14
709.673	33.81
709.858	33.87
710.042	33.61
710.227	33.81
710.411	33.36
710.596	33.36
710.78	33.33
710.964	33.4
711.149	33.56
711.333	33.35
711.517	33.37
711.702	33.37
711.886	33.32
712.07	33.33
712.254	33.02
712.438	33.26
712.623	32.93
712.807	32.79
712.991	32.86
713.175	32.74
713.359	32.86
713.544	32.83
713.728	32.92
713.912	32.86
714.096	33.27
714.28	33.17
714.464	32.87
714.648	33.26
714.832	33.44
715.016	33.46
715.2	33.88
715.384	33.67
715.568	33.5
715.752	33.2
715.936	33.08
716.12	32.7
716.304	32.85
716.488	33.33
716.671	32.95
716.855	33
717.039	32.79
717.223	31.89
717.407	31.84
717.59	31.94
717.774	32.16
717.958	32.22
718.142	32.2
718.325	32.47
718.509	32.39
718.693	32.37
718.877	31.63
719.06	31.73
719.244	32.26
719.428	32.33
719.611	32.22
719.795	32.05
719.978	32.08
720.162	32.06
720.345	31.7
720.529	31.74
720.713	32.05
720.896	32.46
721.08	32.32
721.263	32.24
721.446	32.4
721.63	32.59
721.813	32.65
721.997	32.72
722.18	32.63
722.364	32.63
722.547	32.41
722.73	32.34
722.914	32.16
723.097	32.33
723.28	32.35
723.464	32.33
723.647	32.41
723.83	32.31
724.013	32.46
724.197	32.43
724.38	32.61
724.563	32.48
724.746	32.67
724.929	33.3
725.112	33.22
725.296	33.28
725.479	32.95
725.662	32.51
725.845	32.44
726.028	32.55
726.211	32.58
726.394	32.44
726.577	32.58
726.76	32.58
726.943	32.28
727.126	32.42
727.309	32.38
727.492	32.8
727.675	32.8
727.858	33.13
728.041	32.9
728.224	33.02
728.407	33.23
728.589	33.22
728.772	33.09
728.955	32.98
729.138	32.71
729.321	32.77
729.503	32.3
729.686	32.35
729.869	32.4
730.052	32.43
730.234	32.43
730.417	32.19
730.6	32.24
730.782	32.2
730.965	32.43
731.148	32.42
731.33	32.5
731.513	32.47
731.695	32.2
731.878	31.76
732.061	31.63
732.243	31.61
732.426	31.79
732.608	31.57
732.791	31.61
732.973	31.7
733.156	31.75
733.338	31.75
733.52	31.88
733.703	32.45
733.885	33.06
734.068	33.4
734.25	33.29
734.432	33.58
734.615	33.92
734.797	34.01
734.979	33.87
735.162	34.14
735.344	33.86
735.526	34.14
735.708	33.9
735.891	33.54
736.073	33.53
736.255	33.97
736.437	33.92
736.619	33.76
736.802	34.03
736.984	33.65
737.166	33.85
737.348	34.18
737.53	34.31
737.712	34.73
737.894	35.07
738.076	34.59
738.258	34.59
738.44	34.35
738.622	34.26
738.804	34.27
738.986	33.9
739.168	34.04
739.35	33.76
739.532	33.7
739.714	33.71
739.896	33.6
740.078	33.78
740.259	33.67
740.441	33.66
740.623	34.05
740.805	34.19
740.987	35.16
741.168	34.76
741.35	34.83
741.532	34.93
741.714	34.43
741.895	34.76
742.077	34.96
742.259	35.37
742.44	35.3
742.622	35.03
742.804	35.18
742.985	34.71
743.167	34.33
743.348	34.49
743.53	34.65
743.711	35.2
743.893	34.71
744.075	34.56
744.256	33.89
744.438	34.11
744.619	34.01
744.8	33.71
744.982	34.01
745.163	34.82
745.345	35.33
745.526	35.66
745.707	35.34
745.889	35.43
746.07	35.61
746.252	36.19
746.433	36.42
746.614	36.9
746.795	37.14
746.977	37.03
747.158	36.95
747.339	36.25
747.52	35.76
747.702	35.75
747.883	35.72
748.064	35.39
748.245	35.08
748.426	34.57
748.607	34.17
748.788	33.82
748.97	33.56
749.151	33.46
749.332	33.74
749.513	33.88
749.694	34.28
749.875	33.94
750.056	34.66
750.237	34.98
750.418	34.93
750.599	34.43
750.78	34.63
750.96	35.08
751.141	35.41
751.322	35.96
751.503	36.03
751.684	35.74
751.865	36.14
752.046	35.31
752.226	34.98
752.407	35.69
752.588	36.48
752.769	36.37
752.949	36.7
753.13	35.92
753.311	35.34
753.492	35.11
753.672	35.63
753.853	35.66
754.034	36.39
754.214	36.74
754.395	35.9
754.575	35.76
754.756	36.23
754.937	35.86
755.117	36.75
755.298	36.45
755.478	36.39
755.659	36.29
755.839	36.29
756.02	35.78
756.2	35.63
756.381	36.35
756.561	36.35
756.741	36.05
756.922	36.39
757.102	36.1
757.283	36.4
757.463	36.21
757.643	36.05
757.823	36.42
758.004	36.26
758.184	35.85
758.364	35.16
758.545	34.87
758.725	34.2
758.905	34.07
759.085	33.69
759.265	33.74
759.446	34.05
759.626	33.82
759.806	32.95
759.986	33.14
760.166	33.45
760.346	33.62
760.526	33.84
760.706	33.91
760.886	33.19
761.066	33.37
761.246	33.08
761.426	32.76
761.606	32.39
761.786	33
761.966	32.66
762.146	32.42
762.326	32.38
762.506	32.26
762.686	32.79
762.866	33.25
763.046	33.5
763.225	33.73
763.405	33.52
763.585	33.45
763.765	33.33
763.945	33.52
764.124	33.47
764.304	33.96
764.484	34.18
764.664	34.05
764.843	33.9
765.023	33.75
765.203	33.95
765.382	34.41
765.562	34.4
765.741	34.7
765.921	34.87
766.101	34.82
766.28	34.32
766.46	34.39
766.639	34.57
766.819	34.79
766.998	34.76
767.178	34.6
767.357	34.25
767.537	34.7
767.716	34.02
767.896	34.33
768.075	34.98
768.254	35.29
768.434	35.2
768.613	34.94
768.792	34.57
768.972	34.45
769.151	34.2
769.33	34.66
769.51	34.62
769.689	34.89
769.868	34.32
770.047	34.46
770.226	34.3
770.406	34.2
770.585	33.85
770.764	34.11
770.943	34.04
771.122	33.92
771.301	33.63
771.48	33.81
771.66	33.88
771.839	34.01
772.018	33.77
772.197	33.71
772.376	33.77
772.555	34.09
772.734	34.37
772.913	34.88
773.092	35.55
773.271	35.64
773.449	35.63
773.628	35.71
773.807	36.38
773.986	36.38
774.165	36.37
774.344	36.66
774.523	36.64
774.701	36.54
774.88	36.57
775.059	36.67
775.238	36.75
775.417	36.5
775.595	36.18
775.774	35.31
775.953	34.97
776.131	35.06
776.31	35.19
776.489	35.21
776.667	34.93
776.846	34.95
777.025	34.79
777.203	35.11
777.382	35.19
777.56	35.51
777.739	36.42
777.917	37.05
778.096	37.41
778.274	37.17
778.453	37.68
778.631	38.11
778.81	37.94
778.988	37.88
779.166	38.55
779.345	39.4
779.523	39.65
779.702	39.17
779.88	38.23
780.058	37.83
780.237	37.97
780.415	37.43
780.593	36.78
780.771	36.62
780.95	36.73
781.128	36.31
781.306	36.47
781.484	36.21
781.662	35.8
781.841	37.16
782.019	36.28
782.197	36.64
782.375	36.47
782.553	36.52
782.731	36.38
782.909	35.81
783.087	34.33
783.265	33.41
783.443	34.23
783.621	34.42
783.799	33.73
783.977	34.91
784.155	34.71
784.333	35.32
784.511	36.03
784.689	35.48
784.867	36.19
785.045	37.82
785.223	37.39
785.4	36.71
785.578	37.54
785.756	38.46
785.934	38.06
786.112	38.07
786.289	37.35
786.467	37.12
786.645	37.56
786.823	37.94
787	36.88
787.178	37.07
787.356	36.44
787.533	35.88
787.711	34.6
787.889	34.06
788.066	33.81
788.244	33.78
788.421	34.04
788.599	34.78
788.776	33.93
788.954	33.96
789.131	34.33
789.309	34.6
789.486	35.13
789.664	36.32
789.841	37.68
790.019	37.15
790.196	36.99
790.373	36.82
790.551	36.68
790.728	37.13
790.906	37.05
791.083	38
791.26	37.77
791.437	36.9
791.615	37
791.792	36.17
791.969	36.07
792.146	36.13
792.324	34.66
792.501	34.1
792.678	34.17
792.855	35.34
793.032	35.09
793.209	35.86
793.387	36.39
793.564	34.39
793.741	35.29
793.918	35.37
794.095	36.6
794.272	38.83
794.449	39.34
794.626	38.54
794.803	38
794.98	37.45
795.157	36.79
795.334	37.13
795.511	38.46
795.688	38.55
795.864	38.72
796.041	38.75
796.218	37.35
796.395	37.26
796.572	36.69
796.749	36.54
796.925	35.69
797.102	36.95
797.279	37.01
797.456	36.16
797.632	35.48
797.809	35.92
797.986	36.01
798.162	36.49
798.339	36.72
798.516	38.16
798.692	38.99
798.869	40.29
799.046	39.5
799.222	38.38
799.399	38.3
799.575	38.1
799.752	38.87
799.928	38.68
800.105	39.12
800.281	38.34
800.458	37.36
800.634	36.42
800.811	36.33
800.987	36.53
801.163	37.64
801.34	37.99
801.516	37.66
801.692	36.76
801.869	35.43
802.045	35.38
802.221	36.49
802.398	37.09
802.574	37.56
802.75	36.43
802.926	36.76
803.103	36.36
803.279	35.26
803.455	36.02
803.631	35.52
803.807	37.44
803.983	37.3
804.16	36.97
804.336	35.79
804.512	37.6
804.688	37.39
804.864	36.35
805.04	35.52
805.216	36.25
805.392	37.23
805.568	36.51
805.744	34.12
805.92	34.48
806.096	33.28
806.272	33.31
806.448	31.23
806.623	33.13
806.799	34.62
806.975	34.89
807.151	34.52
807.327	34.24
807.503	35.37
807.678	36.09
807.854	34.34
808.03	34.72
808.206	35.63
808.381	34.15
808.557	32.77
808.733	32.52
808.908	32.7
809.084	32.79
809.26	31.18
809.435	31.48
809.611	31.9
809.787	32.31
809.962	32.09
810.138	31.88
810.313	33.09
810.489	34.33
810.664	33.66
810.84	32.9
811.015	34.17
811.191	33.75
811.366	34.68
811.542	35.5
811.717	35.27
811.892	35.89
812.068	35.45
812.243	35.48
812.419	34.36
812.594	33.97
812.769	35.11
812.944	32.86
813.12	32.7
813.295	31.07
813.47	28.64
813.645	30.05
813.821	28.44
813.996	29.51
814.171	29.4
814.346	29.85
814.521	30.86
814.697	30.03
814.872	32.38
815.047	32.91
815.222	33.88
815.397	34.86
815.572	34.35
815.747	34.74
815.922	33.46
816.097	33.01
816.272	32.68
816.447	31.12
816.622	31.26
816.797	30.13
816.972	31.6
817.147	31.77
817.322	31.99
817.496	31.79
817.671	32.25
817.846	32.94
818.021	33.21
818.196	32.53
818.371	33.56
818.545	33.21
818.72	33.33
818.895	33.21
819.069	32.17
819.244	33.51
819.419	34.12
819.594	34.15
819.768	34.54
819.943	34.44
820.117	34.65
820.292	34.13
820.467	34.59
820.641	34.12
820.816	33.32
820.99	33.68
821.165	32.92
821.339	32.56
821.514	32.84
821.688	32.47
821.863	32.24
822.037	32.15
822.212	32.15
822.386	32.12
822.56	32.29
822.735	32.32
822.909	32.03
823.084	31.98
823.258	31.83
823.432	31.52
823.606	31.57
823.781	31.81
823.955	32.07
824.129	31.95
824.303	31.79
824.478	32.19
824.652	31.9
824.826	32.35
825	32.61
825.174	32.96
825.348	33.23
825.523	33.03
825.697	32.77
825.871	32.47
826.045	32.69
826.219	32.79
826.393	32.11
826.567	32.47
826.741	32
826.915	31.77
827.089	31.89
827.263	31.48
827.437	31.7
827.611	31.85
827.784	31.55
827.958	31.67
828.132	31.76
828.306	31.69
828.48	32.53
828.654	32.5
828.827	32.73
829.001	32.79
829.175	33.41
829.349	33.78
829.522	34.68
829.696	34.98
829.87	35.28
830.044	35.05
830.217	35.25
830.391	33.85
830.565	34.4
830.738	34.37
830.912	34.63
831.085	34.69
831.259	34.16
831.432	32.25
831.606	32.01
831.779	31.52
831.953	31.8
832.126	32.05
832.3	31.87
832.473	31.76
832.647	31.47
832.82	30.74
832.994	30.81
833.167	31.4
833.34	31.8
833.514	33.06
833.687	32.72
833.86	32.91
834.034	32.34
834.207	32.48
834.38	32.42
834.553	32.65
834.727	33.35
834.9	33.35
835.073	32.62
835.246	31.86
835.419	30.49
835.593	29.94
835.766	29.21
835.939	29.41
836.112	29.7
836.285	29.35
836.458	29.44
836.631	27.87
836.804	26.53
836.977	27.18
837.15	29.02
837.323	30.56
837.496	32.99
837.669	32.57
837.842	32.42
838.015	32.17
838.188	33.06
838.361	32.26
838.533	33.02
838.706	36.66
838.879	37.04
839.052	36.77
839.225	35.49
839.398	35.08
839.57	37.65
839.743	38
839.916	38.33
840.088	38.06
840.261	37.72
840.434	38.99
840.607	35.94
840.779	35.27
840.952	34.35
841.124	34.27
841.297	32.85
841.47	33.05
841.642	33.46
841.815	33.56
841.987	33.46
842.16	32.85
842.332	33.34
842.505	35.28
842.677	35.9
842.85	36.57
843.022	37.81
843.194	38.68
843.367	36.18
843.539	37.26
843.712	37.06
843.884	35.14
844.056	36.64
844.229	35.27
844.401	34.27
844.573	36.22
844.745	33.9
844.918	33.65
845.09	34.38
845.262	35.6
845.434	32.85
845.606	29.09
845.779	32.29
845.951	34.11
846.123	36.64
846.295	36.63
846.467	32.69
846.639	35.48
846.811	36.98
846.983	36.89
847.155	37.04
847.327	34.41
847.499	37.92
847.671	38.23
847.843	38.13
848.015	34.21
848.187	35.9
848.359	39.93
848.531	39.78
848.703	36.7
848.875	34.7
849.047	34.66
849.218	34.88
849.39	34.57
849.562	34.08
849.734	32.64
849.905	29.93
850.077	25.88
850.249	21.67
850.421	17.54
850.592	19.33
850.764	18.87
850.936	21.06
851.107	22.81
851.279	23.72
851.451	23.76
851.622	24.02
851.794	26.01
851.965	32.19
852.137	32.53
852.308	33.92
852.48	33.78
852.651	37.64
852.823	38.05
852.994	42.07
853.166	42
853.337	40.07
853.509	38.5
853.68	42.33
853.851	39.47
854.023	42.28
854.194	44.16
854.365	42.61
854.537	43.38
854.708	39.68
854.879	36.97
855.05	34.79
855.222	36.23
855.393	40
855.564	38.78
855.735	36.48
855.906	35.99
856.078	37.11
856.249	38.12
856.42	34.78
856.591	41.13
856.762	42.73
856.933	44.6
857.104	39.81
857.275	37.3
857.446	35.45
857.617	34.38
857.788	33.67
857.959	32.93
858.13	35.64
858.301	37.28
858.472	33.68
858.643	31.94
858.814	32.63
858.985	37.9
859.155	37.72
859.326	39.64
859.497	45.78
859.668	42.71
859.839	40.55
860.009	39.81
860.18	42.82
860.351	41.25
860.522	39.78
860.692	38.22
860.863	37.08
861.034	38.8
861.204	36.35
861.375	35.49
861.546	40.37
861.716	41.67
861.887	40.56
862.057	40.05
862.228	38.81
862.398	38.86
862.569	38.29
862.739	38.86
862.91	38.22
863.08	37.06
863.251	34.31
863.421	30.17
863.592	29.48
863.762	30.29
863.932	27.19
864.103	27.85
864.273	29.67
864.443	31.33
864.614	31.93
864.784	28.1
864.954	26.06
865.125	29.91
865.295	33.8
865.465	32.49
865.635	30.67
865.805	33.12
865.976	35.21
866.146	36.68
866.316	36.1
866.486	34.18
866.656	36.27
866.826	40.66
866.996	38.9
867.166	36.57
867.336	33.64
867.506	33.3
867.676	31.76
867.846	30.57
868.016	32.21
868.186	31.54
868.356	31
868.526	28.8
868.696	29.7
868.866	32.73
869.036	28.72
869.206	32.51
869.376	33.02
869.545	33.89
869.715	30.78
869.885	26.82
870.055	26.5
870.224	25.94
870.394	27.36
870.564	28.56
870.734	21.48
870.903	26.06
871.073	27.69
871.243	23.03
871.412	20.97
871.582	23.04
871.751	22.12
871.921	18.53
872.091	20.99
872.26	21.98
872.43	22.28
872.599	24.1
872.769	28.04
872.938	26.97
873.108	31.05
873.277	32.33
873.446	33.34
873.616	33.57
873.785	39.17
873.955	38.18
874.124	36.1
874.293	33.47
874.463	36.01
874.632	31.01
874.801	33.73
874.971	31.39
875.14	29.6
875.309	29.68
875.478	30.79
875.647	28.24
875.817	30.31
875.986	31.79
876.155	34.79
876.324	33.13
876.493	36.45
876.662	37.78
876.831	35.65
877	35.98
877.17	36.82
877.339	40.1
877.508	42.09
877.677	40.18
877.846	40.68
878.015	38.83
878.184	38.81
878.352	37.39
878.521	28.85
878.69	32.52
878.859	35.67
879.028	36.8
879.197	35.55
879.366	33.51
879.534	33.14
879.703	32.86
879.872	32.44
880.041	32.28
880.21	31.12
880.378	33.06
880.547	32.81
880.716	32.33
880.884	32.32
881.053	30.87
881.222	30.85
881.39	30.65
881.559	30.57
881.727	31.39
881.896	31.06
882.065	31.91
882.233	31.48
882.402	31.07
882.57	31.03
882.739	30.51
882.907	30.91
883.076	30.3
883.244	30.49
883.412	30.23
883.581	29.5
883.749	29.4
883.918	28.77
884.086	28.68
884.254	28.79
884.423	27.64
884.591	28.16
884.759	27.77
884.927	28.93
885.096	28.54
885.264	28.44
885.432	29.24
885.6	28.13
885.769	28.17
885.937	29.12
886.105	28.66
886.273	31.66
886.441	30.2
886.609	31.31
886.777	32.69
886.945	33.21
887.113	34.44
887.281	32.73
887.449	36.85
887.617	38.16
887.785	38.09
887.953	38.59
888.121	32.48
888.289	31.16
888.457	30.31
888.625	29.79
888.793	31.14
888.961	28.59
889.129	33.68
889.296	28.1
889.464	25.42
889.632	25.45
889.8	24.63
889.967	32.62
890.135	37.36
