Data from 2938760__Reflection_01.txt Node
Date: Fri Mar 13 17:47:26 EDT 2015
User: robert
Spectrometer: USB4E03002
Autoset integration time: false
Trigger mode: 4
Integration Time (sec): 1.000000E-1
Scans to average: 10
Electric dark correction enabled: false
Nonlinearity correction enabled: false
Boxcar width: 5
Stray light correction enabled: false
XAxis mode: Wavelengths
Stop averaging: false
Number of Pixels in Spectrum: 3648
>>>>>Begin Spectral Data<<<<<
177.575	-1975
177.794	-9092.31
178.014	-1578.21
178.233	-832.47
178.452	-644.95
178.672	-505.04
178.891	-288.69
179.11	-176.52
179.33	-235.95
179.549	-514.67
179.768	-441.84
179.987	-474.05
180.207	-340.56
180.426	-335.69
180.645	-1376.67
180.864	-5833.33
181.084	1571.91
181.303	1697.7
181.522	663.27
181.741	980.82
181.96	1342.55
182.179	570.35
182.398	567.36
182.618	479.2
182.837	337.39
183.056	368.8
183.275	354.63
183.494	260.71
183.713	208.25
183.932	162.3
184.151	141.11
184.37	137.71
184.589	109.92
184.808	109.34
185.027	120.33
185.246	120.37
185.465	124.15
185.684	154.36
185.903	230.52
186.122	273.48
186.341	512.39
186.56	2200
186.779	914.41
186.998	-481.58
187.216	-1504.55
187.435	731.75
187.654	-5080
187.873	-431.33
188.092	11966.67
188.311	666.67
188.53	252
188.748	255.88
188.967	259.32
189.186	264.67
189.405	200.41
189.623	219.9
189.842	283.91
190.061	595.42
190.28	424.54
190.498	593.65
190.717	457.85
190.936	565.95
191.154	437.55
191.373	395.58
191.592	345.45
191.81	372.69
192.029	592
192.248	845.3
192.466	281.69
192.685	228.39
192.904	257.23
193.122	237.39
193.341	347.2
193.559	803.09
193.778	1371.43
193.996	3688.89
194.215	-2358.54
194.433	3324.14
194.652	-1077.46
194.87	-326.63
195.089	-3705.26
195.307	1267.86
195.526	-4676.47
195.744	920.79
195.963	490.91
196.181	329.21
196.399	288.73
196.618	231.09
196.836	250.45
197.055	259.61
197.273	246.11
197.491	308.31
197.71	231.04
197.928	187.06
198.146	176.67
198.365	136.06
198.583	144.3
198.801	144.23
199.019	182.2
199.238	198.52
199.456	169.46
199.674	180.13
199.892	171.57
200.111	197.89
200.329	214.8
200.547	254.74
200.765	375.41
200.983	412.5
201.202	364.37
201.42	307.94
201.638	217.08
201.856	289.83
202.074	192.57
202.292	251.29
202.51	196.34
202.728	230.71
202.946	178.82
203.165	160.54
203.383	171.7
203.601	173.1
203.819	208.96
204.037	250.25
204.255	279.06
204.473	346.2
204.691	240.63
204.909	227.35
205.127	210.3
205.345	237.28
205.562	268.06
205.78	228.57
205.998	274.83
206.216	376.82
206.434	282.25
206.652	263.77
206.87	450.44
207.088	405.24
207.306	1398.41
207.523	720
207.741	644.7
207.959	496.86
208.177	592.56
208.395	262.94
208.612	161.87
208.83	195.83
209.048	246.65
209.266	230.73
209.483	242.67
209.701	228.74
209.919	254.14
210.136	234.69
210.354	281.77
210.572	268.58
210.79	281.25
211.007	294.93
211.225	250.79
211.442	245.63
211.66	210.73
211.878	171.51
212.095	182.52
212.313	150.84
212.53	151.74
212.748	124.05
212.966	135.13
213.183	148.15
213.401	173.47
213.618	133.85
213.836	113.32
214.053	107.57
214.271	138.49
214.488	143.96
214.705	190.57
214.923	209.67
215.14	236.3
215.358	202.6
215.575	161.72
215.793	142.53
216.01	173.93
216.227	198.34
216.445	172.33
216.662	137.56
216.879	125.97
217.097	117.66
217.314	105.36
217.531	98.13
217.749	99.03
217.966	96.73
218.183	92.29
218.4	95.78
218.618	84.83
218.835	87.55
219.052	101.02
219.269	88.77
219.487	87.89
219.704	83.31
219.921	83.45
220.138	83.76
220.355	76.08
220.572	70.11
220.79	69.91
221.007	75.75
221.224	82.56
221.441	68.83
221.658	57.46
221.875	61.27
222.092	62.95
222.309	65.13
222.526	62.84
222.743	64.66
222.96	60.98
223.177	58.15
223.394	56.88
223.611	45.38
223.828	48.43
224.045	58.49
224.262	50.78
224.479	53.61
224.696	45.46
224.913	44.4
225.13	41.58
225.347	39.93
225.564	35.48
225.781	30.27
225.997	28.1
226.214	22.91
226.431	22.05
226.648	18.96
226.865	16.35
227.082	17.02
227.298	13.75
227.515	11.63
227.732	8.95
227.949	7.68
228.165	6.96
228.382	5.63
228.599	5.54
228.816	4.84
229.032	5.27
229.249	4.39
229.466	4.1
229.682	5.4
229.899	5.78
230.116	6.12
230.332	7.08
230.549	7.89
230.765	8.92
230.982	9.3
231.199	9.79
231.415	10.17
231.632	11.43
231.848	11.08
232.065	10.73
232.281	10.9
232.498	10.86
232.714	10.44
232.931	10.09
233.147	11.19
233.364	10.29
233.58	10.21
233.797	8.65
234.013	8.05
234.23	7.98
234.446	6.65
234.662	7.77
234.879	7.86
235.095	8.29
235.312	8.52
235.528	5.91
235.744	5.45
235.961	5.39
236.177	7.16
236.393	8.08
236.61	7.59
236.826	9.58
237.042	8.63
237.258	9.72
237.475	10.22
237.691	11.1
237.907	12.45
238.123	14.06
238.339	13.99
238.556	14.18
238.772	12.64
238.988	12.02
239.204	11.53
239.42	11.78
239.636	10.71
239.853	9.27
240.069	8.45
240.285	7.8
240.501	7.26
240.717	7.2
240.933	6.77
241.149	5.65
241.365	5.85
241.581	4.85
241.797	4.07
242.013	3.9
242.229	3.67
242.445	3.11
242.661	3.63
242.877	3.73
243.093	3.21
243.309	3
243.525	3.51
243.741	4.32
243.957	5.17
244.173	5.55
244.388	5.96
244.604	6.67
244.82	7.47
245.036	7.31
245.252	6.13
245.468	5.87
245.683	5.96
245.899	5.52
246.115	4.25
246.331	4.28
246.547	4.35
246.762	3.62
246.978	3.71
247.194	2.92
247.409	2.87
247.625	3.18
247.841	3.58
248.057	3.2
248.272	3.21
248.488	3.49
248.703	3.22
248.919	2.93
249.135	3.53
249.35	3.38
249.566	4.22
249.782	3.79
249.997	3.67
250.213	3.5
250.428	4.19
250.644	5.44
250.859	5.16
251.075	4.37
251.29	4.76
251.506	4.56
251.721	4.58
251.937	4.32
252.152	4.76
252.368	5.37
252.583	5.62
252.798	6.12
253.014	5.62
253.229	6.68
253.445	7.23
253.66	7.66
253.875	8.1
254.091	7.96
254.306	8.47
254.521	9.47
254.737	9.42
254.952	7.43
255.167	6.62
255.383	6.01
255.598	5.83
255.813	6.25
256.028	7.09
256.244	6.29
256.459	6.14
256.674	5.49
256.889	5.19
257.104	4.74
257.32	5.6
257.535	4.41
257.75	3.62
257.965	2.69
258.18	2.22
258.395	1.69
258.61	1.59
258.826	1.81
259.041	1.61
259.256	1.36
259.471	1.32
259.686	1.45
259.901	1.64
260.116	1.92
260.331	1.81
260.546	1.92
260.761	1.71
260.976	1.9
261.191	1.73
261.406	2.33
261.621	2.55
261.836	2.87
262.05	2.72
262.265	2.94
262.48	3.18
262.695	3.91
262.91	4.65
263.125	4.91
263.34	5.68
263.555	5.92
263.769	5.6
263.984	5.3
264.199	5.08
264.414	5.62
264.629	5.54
264.843	5.69
265.058	6.06
265.273	5.54
265.488	5.4
265.702	4.82
265.917	5.36
266.132	5.36
266.346	5.23
266.561	4.99
266.776	4.66
266.99	4.47
267.205	4.51
267.42	3.91
267.634	3.89
267.849	4.24
268.063	4.7
268.278	4.13
268.492	3.67
268.707	3.43
268.922	3.55
269.136	3.94
269.351	3.88
269.565	3.51
269.78	3.46
269.994	3.35
270.209	3.46
270.423	2.74
270.637	2.75
270.852	3.13
271.066	2.97
271.281	2.92
271.495	2.42
271.709	2.55
271.924	2.52
272.138	2.77
272.353	2.53
272.567	2.04
272.781	2.32
272.996	2.17
273.21	2.24
273.424	2.68
273.638	2.55
273.853	2.64
274.067	3.1
274.281	3.5
274.495	2.91
274.71	2.84
274.924	2.87
275.138	2.93
275.352	3.27
275.566	2.83
275.781	2.6
275.995	2.63
276.209	3.01
276.423	2.75
276.637	2.45
276.851	3.03
277.065	3.16
277.279	3.16
277.493	2.78
277.707	2.97
277.921	3.18
278.135	3.53
278.349	3.13
278.563	3.46
278.777	3.45
278.991	3.73
279.205	3.67
279.419	3.29
279.633	3.72
279.847	3.97
280.061	3.72
280.275	3.67
280.489	3.5
280.703	4.07
280.917	3.45
281.131	2.95
281.344	2.64
281.558	2.66
281.772	3.29
281.986	2.87
282.2	2.79
282.414	2.79
282.627	2.87
282.841	2.74
283.055	2.71
283.269	2.8
283.482	2.79
283.696	2.78
283.91	2.9
284.123	2.53
284.337	2.53
284.551	2.72
284.764	2.49
284.978	2.63
285.192	2.69
285.405	2.49
285.619	2.47
285.833	2.56
286.046	2.71
286.26	2.26
286.473	2.31
286.687	2.29
286.9	2.03
287.114	2.12
287.327	2.03
287.541	1.94
287.754	2.21
287.968	2.37
288.181	2.55
288.395	2.03
288.608	2.41
288.822	2.66
289.035	2.79
289.248	2.86
289.462	2.98
289.675	3.06
289.889	3.11
290.102	2.72
290.315	2.55
290.529	2.54
290.742	3.06
290.955	2.65
291.169	2.47
291.382	2.52
291.595	2.44
291.808	2.29
292.022	1.75
292.235	1.88
292.448	2.05
292.661	1.95
292.875	1.78
293.088	1.56
293.301	2.16
293.514	2.35
293.727	2.2
293.94	2.21
294.153	2.28
294.367	2.52
294.58	2.37
294.793	2.35
295.006	2.38
295.219	2.45
295.432	2.29
295.645	2.07
295.858	1.7
296.071	1.6
296.284	1.57
296.497	1.57
296.71	1.63
296.923	1.67
297.136	2.08
297.349	2.19
297.562	2.31
297.775	2.09
297.988	2.25
298.201	2.48
298.414	2.55
298.626	2.74
298.839	2.77
299.052	2.73
299.265	2.76
299.478	2.36
299.691	2.6
299.903	2.46
300.116	2.84
300.329	2.68
300.542	2.56
300.755	2.62
300.967	2.44
301.18	2.42
301.393	2.67
301.605	2.77
301.818	2.68
302.031	2.22
302.243	2.23
302.456	2.42
302.669	2.39
302.881	2.57
303.094	2.55
303.307	2.88
303.519	2.72
303.732	2.4
303.944	2.48
304.157	2.68
304.37	2.67
304.582	2.69
304.795	2.72
305.007	2.88
305.22	2.99
305.432	3.04
305.645	3.04
305.857	3.31
306.069	3.63
306.282	3.57
306.494	3.76
306.707	4.04
306.919	4.09
307.132	3.87
307.344	3.77
307.556	3.44
307.769	3.73
307.981	3.7
308.193	3.43
308.406	3.2
308.618	3.09
308.83	2.77
309.043	2.31
309.255	2.19
309.467	2.12
309.679	2.09
309.892	2.4
310.104	1.92
310.316	2.09
310.528	2.47
310.74	2.46
310.953	2.63
311.165	2.62
311.377	2.77
311.589	2.93
311.801	3.08
312.013	3.2
312.225	3.34
312.437	3.72
312.649	3.47
312.862	3.29
313.074	3.32
313.286	2.99
313.498	3.27
313.71	3.33
313.922	3.38
314.134	3.09
314.346	3.15
314.558	2.82
314.77	3.17
314.982	2.89
315.193	2.9
315.405	3.03
315.617	3.09
315.829	2.99
316.041	3.55
316.253	3.43
316.465	4.14
316.677	4.33
316.888	4.27
317.1	4.26
317.312	4.66
317.524	4.48
317.736	4.36
317.947	4.48
318.159	4.65
318.371	4.38
318.583	4.61
318.794	4.28
319.006	4.35
319.218	4.2
319.43	3.9
319.641	3.79
319.853	4.13
320.064	4.67
320.276	5.2
320.488	4.95
320.699	4.9
320.911	4.91
321.123	4.99
321.334	4.68
321.546	5.37
321.757	5.99
321.969	6.14
322.18	6.5
322.392	6.17
322.603	5.96
322.815	6.31
323.026	6.46
323.238	6.3
323.449	6.6
323.661	6.67
323.872	6.34
324.083	5.99
324.295	6.13
324.506	5.96
324.718	6.09
324.929	6.37
325.14	6.55
325.352	6.86
325.563	7.01
325.774	7.22
325.986	7.55
326.197	7.96
326.408	8.19
326.62	8.08
326.831	8.33
327.042	8.94
327.253	8.71
327.464	8.44
327.676	8.65
327.887	9.16
328.098	9.3
328.309	9.69
328.52	9.91
328.732	9.95
328.943	10.37
329.154	10.55
329.365	10.55
329.576	11.21
329.787	11.91
329.998	11.99
330.209	12.44
330.42	12.99
330.631	13.04
330.842	12.92
331.053	13.53
331.264	13.84
331.475	14.18
331.686	14.6
331.897	14.95
332.108	15.58
332.319	16.03
332.53	15.88
332.741	15.97
332.952	16.09
333.163	16.54
333.374	16.58
333.585	16.88
333.795	17.17
334.006	17.15
334.217	17.18
334.428	16.95
334.639	17.01
334.849	17.23
335.06	17.07
335.271	17.08
335.482	17.24
335.692	17.44
335.903	17.75
336.114	18
336.325	18.24
336.535	18.25
336.746	18.27
336.957	18.17
337.167	18.04
337.378	18.58
337.589	18.75
337.799	18.81
338.01	18.91
338.22	18.54
338.431	18.36
338.642	18.43
338.852	18.57
339.063	18.81
339.273	19.08
339.484	19.25
339.694	18.95
339.905	19.02
340.115	18.99
340.326	18.85
340.536	19.05
340.746	19.11
340.957	18.93
341.167	18.76
341.378	18.61
341.588	18.34
341.799	18.4
342.009	18.15
342.219	18.09
342.43	17.79
342.64	17.89
342.85	17.77
343.061	17.78
343.271	17.77
343.481	17.69
343.691	18
343.902	17.92
344.112	18.02
344.322	18.4
344.532	18.47
344.743	18.7
344.953	18.52
345.163	18.79
345.373	18.47
345.583	18.58
345.793	18.7
346.004	18.56
346.214	18.84
346.424	18.71
346.634	18.54
346.844	18.4
347.054	18.48
347.264	18.46
347.474	18.38
347.684	18.52
347.894	18.21
348.104	18.06
348.314	18.1
348.524	17.97
348.734	17.75
348.944	17.65
349.154	17.57
349.364	17.47
349.574	17.73
349.784	17.52
349.994	17.14
350.204	17.51
350.413	17.27
350.623	16.98
350.833	16.98
351.043	17.16
351.253	17.22
351.463	17.08
351.672	17.11
351.882	16.85
352.092	17.13
352.302	17.57
352.511	17.29
352.721	17.62
352.931	17.85
353.141	17.73
353.35	17.63
353.56	17.64
353.77	17.87
353.979	17.78
354.189	17.87
354.399	17.65
354.608	17.71
354.818	17.71
355.027	17.77
355.237	17.75
355.447	17.72
355.656	17.7
355.866	17.57
356.075	17.39
356.285	17.17
356.494	17.03
356.704	16.95
356.913	16.81
357.123	16.75
357.332	16.6
357.542	16.47
357.751	16.55
357.96	16.61
358.17	16.61
358.379	16.87
358.589	17.1
358.798	17.09
359.007	17.12
359.217	17.01
359.426	16.93
359.635	16.91
359.845	16.72
360.054	16.49
360.263	16.27
360.472	16.2
360.682	16.11
360.891	15.89
361.1	15.83
361.309	15.88
361.519	15.85
361.728	15.76
361.937	15.77
362.146	15.6
362.355	15.65
362.564	15.59
362.774	15.73
362.983	15.8
363.192	16.02
363.401	16.11
363.61	15.94
363.819	16.06
364.028	16.19
364.237	16.12
364.446	16.34
364.655	16.41
364.864	16.61
365.073	16.5
365.282	16.34
365.491	16.29
365.7	16.28
365.909	16.48
366.118	16.39
366.327	16.19
366.536	16.3
366.745	16.25
366.954	16.13
367.162	16.13
367.371	16.01
367.58	16.1
367.789	16.15
367.998	16.15
368.207	16.1
368.415	16.05
368.624	16.3
368.833	16.1
369.042	16.14
369.25	16.12
369.459	16.02
369.668	16.08
369.877	15.87
370.085	15.68
370.294	15.73
370.503	15.73
370.711	15.94
370.92	15.86
371.129	16.15
371.337	16.24
371.546	16.27
371.754	16.2
371.963	16.08
372.171	16.05
372.38	16.09
372.589	15.98
372.797	15.89
373.006	15.57
373.214	15.65
373.423	15.43
373.631	15.37
373.84	15.47
374.048	15.69
374.256	15.87
374.465	15.86
374.673	15.95
374.882	16.06
375.09	16.12
375.298	16.19
375.507	16.11
375.715	16.4
375.923	16.51
376.132	16.49
376.34	16.4
376.548	16.41
376.757	16.32
376.965	16.23
377.173	16.13
377.381	15.96
377.59	16.18
377.798	16.35
378.006	16.05
378.214	15.89
378.423	15.83
378.631	15.98
378.839	15.96
379.047	16.16
379.255	16.27
379.463	16.03
379.671	16.22
379.879	16.21
380.088	16.05
380.296	16.16
380.504	16.12
380.712	16.17
380.92	15.94
381.128	15.87
381.336	15.92
381.544	16
381.752	16.35
381.96	16.31
382.168	16.18
382.376	16.01
382.584	16.3
382.791	16.36
382.999	16.46
383.207	16.64
383.415	16.61
383.623	16.49
383.831	16.26
384.039	16.36
384.247	16.38
384.454	16.44
384.662	16.64
384.87	16.27
385.078	16.36
385.285	16.12
385.493	15.98
385.701	15.94
385.909	15.89
386.116	16
386.324	15.85
386.532	15.6
386.739	15.51
386.947	15.29
387.155	15.04
387.362	14.98
387.57	15.19
387.778	15.17
387.985	15.4
388.193	15.41
388.4	15.33
388.608	15.28
388.816	15.29
389.023	15.5
389.231	15.73
389.438	16.01
389.646	15.93
389.853	15.66
390.061	15.62
390.268	15.33
390.475	15.2
390.683	15.16
390.89	15.08
391.098	15.15
391.305	14.87
391.512	14.81
391.72	14.81
391.927	14.8
392.135	14.76
392.342	14.83
392.549	14.91
392.756	14.86
392.964	14.92
393.171	15.03
393.378	14.96
393.586	15.07
393.793	14.99
394	15.09
394.207	15.2
394.414	15.45
394.622	15.41
394.829	15.47
395.036	15.63
395.243	15.62
395.45	15.47
395.657	15.62
395.864	15.55
396.072	15.47
396.279	15.33
396.486	15.2
396.693	15.09
396.9	15.08
397.107	15.29
397.314	15.33
397.521	15.26
397.728	15.45
397.935	15.6
398.142	15.62
398.349	15.84
398.556	15.72
398.763	16.03
398.97	16.01
399.177	16.14
399.383	16
399.59	16.11
399.797	16.11
400.004	16.07
400.211	15.77
400.418	15.77
400.625	15.7
400.831	15.92
401.038	15.65
401.245	15.76
401.452	15.63
401.658	15.51
401.865	15.38
402.072	15.48
402.279	15.45
402.485	15.51
402.692	15.63
402.899	15.61
403.105	15.49
403.312	15.6
403.519	15.61
403.725	15.56
403.932	15.57
404.138	15.54
404.345	15.38
404.552	15.35
404.758	15.41
404.965	15.18
405.171	15.19
405.378	15.21
405.584	15.22
405.791	15.08
405.997	15.12
406.204	15.06
406.41	15.03
406.617	15.25
406.823	15.34
407.029	15.22
407.236	15.33
407.442	15.37
407.649	15.57
407.855	15.52
408.061	15.62
408.268	15.76
408.474	15.78
408.68	15.92
408.887	15.98
409.093	15.95
409.299	16.06
409.505	16.12
409.712	16.05
409.918	15.89
410.124	15.86
410.33	15.84
410.537	15.67
410.743	15.71
410.949	15.65
411.155	15.53
411.361	15.55
411.567	15.43
411.773	15.44
411.98	15.49
412.186	15.52
412.392	15.54
412.598	15.33
412.804	15.45
413.01	15.51
413.216	15.43
413.422	15.4
413.628	15.41
413.834	15.57
414.04	15.54
414.246	15.57
414.452	15.49
414.658	15.52
414.864	15.69
415.07	15.68
415.275	15.61
415.481	15.65
415.687	15.52
415.893	15.35
416.099	15.37
416.305	15.22
416.511	15.16
416.716	15.06
416.922	14.97
417.128	14.9
417.334	14.83
417.539	14.71
417.745	14.74
417.951	14.76
418.157	14.74
418.362	14.65
418.568	14.84
418.774	14.82
418.979	14.9
419.185	14.78
419.391	14.68
419.596	14.65
419.802	14.7
420.008	14.68
420.213	14.69
420.419	14.67
420.624	14.7
420.83	14.59
421.035	14.51
421.241	14.47
421.446	14.53
421.652	14.62
421.857	14.63
422.063	14.63
422.268	14.65
422.474	14.63
422.679	14.63
422.885	14.5
423.09	14.51
423.295	14.55
423.501	14.57
423.706	14.57
423.911	14.58
424.117	14.61
424.322	14.54
424.527	14.48
424.733	14.45
424.938	14.5
425.143	14.57
425.349	14.69
425.554	14.81
425.759	14.76
425.964	14.85
426.169	14.9
426.375	14.93
426.58	15.07
426.785	15.08
426.99	15.25
427.195	15.36
427.4	15.46
427.605	15.33
427.811	15.28
428.016	15.43
428.221	15.43
428.426	15.35
428.631	15.37
428.836	15.37
429.041	15.45
429.246	15.44
429.451	15.36
429.656	15.33
429.861	15.37
430.066	15.42
430.271	15.42
430.476	15.4
430.681	15.4
430.886	15.35
431.09	15.34
431.295	15.34
431.5	15.24
431.705	15.23
431.91	15.3
432.115	15.33
432.32	15.29
432.524	15.12
432.729	15.06
432.934	15.11
433.139	15.2
433.343	15.13
433.548	15.24
433.753	15.23
433.958	15.25
434.162	15.26
434.367	15.34
434.572	15.31
434.776	15.49
434.981	15.47
435.186	15.48
435.39	15.55
435.595	15.66
435.799	15.54
436.004	15.57
436.209	15.5
436.413	15.41
436.618	15.28
436.822	15.3
437.027	15.27
437.231	15.35
437.436	15.37
437.64	15.21
437.845	15.25
438.049	15.23
438.253	15.25
438.458	15.23
438.662	15.29
438.867	15.22
439.071	15.21
439.275	15.15
439.48	15.1
439.684	15.09
439.888	15.09
440.093	15.05
440.297	15
440.501	15.01
440.706	14.98
440.91	14.94
441.114	15
441.318	15.02
441.523	14.99
441.727	15.06
441.931	15.1
442.135	15.15
442.339	15.17
442.543	15.22
442.748	15.2
442.952	15.31
443.156	15.35
443.36	15.35
443.564	15.37
443.768	15.48
443.972	15.49
444.176	15.46
444.38	15.43
444.584	15.41
444.788	15.37
444.992	15.37
445.196	15.35
445.4	15.2
445.604	15.16
445.808	15.14
446.012	15.09
446.216	15
446.42	15.01
446.624	15.03
446.828	15
447.032	15.05
447.235	14.93
447.439	14.96
447.643	15.08
447.847	15.17
448.051	15.21
448.254	15.25
448.458	15.34
448.662	15.28
448.866	15.23
449.069	15.23
449.273	15.25
449.477	15.36
449.681	15.49
449.884	15.55
450.088	15.48
450.292	15.46
450.495	15.43
450.699	15.39
450.902	15.48
451.106	15.59
451.31	15.63
451.513	15.69
451.717	15.83
451.92	15.59
452.124	15.54
452.327	15.58
452.531	15.5
452.734	15.5
452.938	15.65
453.141	15.7
453.345	15.65
453.548	15.6
453.752	15.58
453.955	15.58
454.158	15.68
454.362	15.74
454.565	15.71
454.769	15.74
454.972	15.76
455.175	15.65
455.379	15.54
455.582	15.61
455.785	15.61
455.988	15.6
456.192	15.48
456.395	15.5
456.598	15.44
456.801	15.46
457.005	15.51
457.208	15.46
457.411	15.49
457.614	15.56
457.817	15.47
458.021	15.4
458.224	15.43
458.427	15.39
458.63	15.29
458.833	15.31
459.036	15.29
459.239	15.22
459.442	15.17
459.645	15.13
459.848	15.11
460.051	15.08
460.254	15.16
460.457	15.13
460.66	15.21
460.863	15.33
461.066	15.27
461.269	15.25
461.472	15.35
461.675	15.46
461.878	15.46
462.081	15.41
462.284	15.56
462.486	15.56
462.689	15.7
462.892	15.65
463.095	15.59
463.298	15.65
463.5	15.75
463.703	15.75
463.906	15.79
464.109	15.85
464.311	15.9
464.514	15.77
464.717	15.7
464.92	15.52
465.122	15.55
465.325	15.52
465.528	15.61
465.73	15.65
465.933	15.57
466.135	15.5
466.338	15.45
466.541	15.36
466.743	15.3
466.946	15.47
467.148	15.59
467.351	15.59
467.553	15.64
467.756	15.6
467.958	15.53
468.161	15.59
468.363	15.68
468.566	15.68
468.768	15.83
468.971	15.96
469.173	15.9
469.375	15.74
469.578	15.77
469.78	15.84
469.983	15.82
470.185	15.91
470.387	15.89
470.59	15.8
470.792	15.88
470.994	15.82
471.196	15.81
471.399	15.83
471.601	15.95
471.803	15.91
472.005	15.91
472.208	15.92
472.41	15.86
472.612	15.83
472.814	15.93
473.016	15.81
473.218	15.72
473.421	15.71
473.623	15.75
473.825	15.74
474.027	15.68
474.229	15.44
474.431	15.44
474.633	15.51
474.835	15.55
475.037	15.44
475.239	15.48
475.441	15.4
475.643	15.39
475.845	15.24
476.047	15.21
476.249	15.31
476.451	15.45
476.653	15.39
476.855	15.32
477.057	15.33
477.258	15.36
477.46	15.33
477.662	15.48
477.864	15.42
478.066	15.43
478.268	15.42
478.469	15.21
478.671	15.26
478.873	15.24
479.075	15.21
479.276	15.11
479.478	15.07
479.68	15.1
479.882	15.06
480.083	15.09
480.285	15.2
480.487	15.17
480.688	15.26
480.89	15.21
481.091	15.22
481.293	15.17
481.495	15.17
481.696	15.17
481.898	15.07
482.099	15.01
482.301	14.94
482.502	14.78
482.704	14.71
482.905	14.66
483.107	14.6
483.308	14.57
483.51	14.54
483.711	14.51
483.913	14.5
484.114	14.52
484.315	14.51
484.517	14.51
484.718	14.54
484.92	14.58
485.121	14.63
485.322	14.65
485.524	14.7
485.725	14.72
485.926	14.74
486.127	14.74
486.329	14.73
486.53	14.7
486.731	14.68
486.932	14.69
487.134	14.63
487.335	14.6
487.536	14.6
487.737	14.57
487.938	14.62
488.139	14.67
488.341	14.67
488.542	14.69
488.743	14.76
488.944	14.81
489.145	14.87
489.346	14.96
489.547	14.96
489.748	14.98
489.949	14.98
490.15	14.9
490.351	14.84
490.552	14.8
490.753	14.83
490.954	14.81
491.155	14.81
491.356	14.79
491.557	14.75
491.758	14.8
491.959	14.8
492.159	14.82
492.36	14.86
492.561	14.91
492.762	15.02
492.963	15.02
493.164	15.08
493.364	15.11
493.565	15.1
493.766	15.14
493.967	15.16
494.167	15.21
494.368	15.28
494.569	15.28
494.769	15.28
494.97	15.27
495.171	15.24
495.371	15.3
495.572	15.26
495.773	15.25
495.973	15.29
496.174	15.28
496.375	15.3
496.575	15.26
496.776	15.36
496.976	15.41
497.177	15.37
497.377	15.44
497.578	15.39
497.778	15.46
497.979	15.48
498.179	15.52
498.38	15.6
498.58	15.64
498.78	15.65
498.981	15.59
499.181	15.49
499.382	15.5
499.582	15.49
499.782	15.53
499.983	15.55
500.183	15.61
500.383	15.53
500.584	15.5
500.784	15.47
500.984	15.5
501.184	15.59
501.385	15.64
501.585	15.68
501.785	15.71
501.985	15.6
502.185	15.68
502.386	15.76
502.586	15.83
502.786	15.81
502.986	15.86
503.186	15.98
503.386	15.97
503.586	16.01
503.786	16.04
503.987	16.01
504.187	16.22
504.387	16.17
504.587	16.18
504.787	16.14
504.987	16.15
505.187	16.08
505.387	16.04
505.587	15.98
505.786	15.93
505.986	15.98
506.186	16
506.386	15.82
506.586	15.83
506.786	15.76
506.986	15.73
507.186	15.71
507.386	15.73
507.585	15.63
507.785	15.67
507.985	15.63
508.185	15.62
508.384	15.66
508.584	15.75
508.784	15.72
508.984	15.74
509.183	15.76
509.383	15.74
509.583	15.76
509.782	15.77
509.982	15.75
510.182	15.86
510.381	15.82
510.581	15.82
510.781	15.74
510.98	15.74
511.18	15.76
511.379	15.73
511.579	15.75
511.778	15.78
511.978	15.82
512.177	15.82
512.377	15.89
512.576	15.91
512.776	15.89
512.975	15.95
513.175	15.98
513.374	16.02
513.573	16.13
513.773	16.18
513.972	16.16
514.172	16.09
514.371	16.16
514.57	16.08
514.77	16.05
514.969	16.04
515.168	16.07
515.367	16.07
515.567	15.98
515.766	16.01
515.965	16.09
516.164	16.02
516.364	16.07
516.563	16.03
516.762	15.97
516.961	15.9
517.16	15.94
517.359	15.88
517.559	15.84
517.758	15.8
517.957	15.69
518.156	15.61
518.355	15.61
518.554	15.62
518.753	15.63
518.952	15.64
519.151	15.73
519.35	15.74
519.549	15.77
519.748	15.8
519.947	15.84
520.146	15.92
520.345	15.96
520.544	16.05
520.743	16.01
520.942	16.05
521.141	16.15
521.339	16.18
521.538	16.2
521.737	16.24
521.936	16.32
522.135	16.41
522.333	16.42
522.532	16.4
522.731	16.36
522.93	16.46
523.129	16.49
523.327	16.47
523.526	16.38
523.725	16.34
523.923	16.32
524.122	16.27
524.321	16.16
524.519	16.07
524.718	16.01
524.917	16.01
525.115	15.95
525.314	15.87
525.512	15.83
525.711	15.87
525.909	15.83
526.108	15.72
526.306	15.64
526.505	15.67
526.703	15.68
526.902	15.59
527.1	15.49
527.299	15.46
527.497	15.46
527.696	15.4
527.894	15.38
528.092	15.39
528.291	15.4
528.489	15.43
528.688	15.39
528.886	15.4
529.084	15.5
529.283	15.54
529.481	15.59
529.679	15.6
529.877	15.64
530.076	15.68
530.274	15.71
530.472	15.77
530.67	15.78
530.869	15.88
531.067	15.9
531.265	15.82
531.463	15.87
531.661	15.89
531.859	15.84
532.057	15.84
532.255	15.75
532.454	15.75
532.652	15.73
532.85	15.74
533.048	15.71
533.246	15.72
533.444	15.79
533.642	15.78
533.84	15.76
534.038	15.8
534.236	15.78
534.434	15.85
534.632	15.86
534.83	15.92
535.027	15.92
535.225	15.95
535.423	15.93
535.621	15.93
535.819	15.95
536.017	15.99
536.215	16.01
536.412	16.09
536.61	16.11
536.808	16.11
537.006	16.08
537.203	16.09
537.401	16.16
537.599	16.26
537.797	16.29
537.994	16.4
538.192	16.41
538.39	16.4
538.587	16.34
538.785	16.35
538.983	16.41
539.18	16.47
539.378	16.4
539.575	16.32
539.773	16.26
539.97	16.19
540.168	16.1
540.366	16.11
540.563	16.12
540.761	16.2
540.958	16.19
541.155	16.15
541.353	16.13
541.55	16.16
541.748	16.2
541.945	16.23
542.143	16.25
542.34	16.31
542.537	16.34
542.735	16.38
542.932	16.44
543.129	16.53
543.327	16.61
543.524	16.73
543.721	16.88
543.919	16.97
544.116	17.03
544.313	17.19
544.51	17.33
544.708	17.49
544.905	17.61
545.102	17.68
545.299	17.75
545.496	17.76
545.693	17.81
545.891	17.78
546.088	17.78
546.285	17.75
546.482	17.74
546.679	17.69
546.876	17.61
547.073	17.5
547.27	17.37
547.467	17.28
547.664	17.3
547.861	17.28
548.058	17.31
548.255	17.27
548.452	17.39
548.649	17.36
548.846	17.29
549.043	17.24
549.24	17.36
549.437	17.53
549.633	17.52
549.83	17.52
550.027	17.33
550.224	17.25
550.421	17.27
550.618	17.2
550.814	17.28
551.011	17.31
551.208	17.31
551.405	17.32
551.601	17.11
551.798	17.1
551.995	17.01
552.191	17.02
552.388	17
552.585	16.86
552.781	16.72
552.978	16.59
553.175	16.57
553.371	16.49
553.568	16.42
553.764	16.49
553.961	16.55
554.157	16.57
554.354	16.57
554.55	16.63
554.747	16.72
554.943	16.81
555.14	16.86
555.336	16.89
555.533	16.88
555.729	16.9
555.926	16.98
556.122	16.92
556.318	17.06
556.515	17.16
556.711	17.07
556.907	17.05
557.104	17.03
557.3	17.02
557.496	17.04
557.693	17.32
557.889	17.34
558.085	17.34
558.281	17.38
558.478	17.31
558.674	17.32
558.87	17.39
559.066	17.41
559.262	17.44
559.459	17.44
559.655	17.38
559.851	17.24
560.047	17.16
560.243	17.06
560.439	17.07
560.635	16.94
560.831	16.89
561.027	16.87
561.223	17.01
561.419	16.98
561.615	16.97
561.811	17.03
562.007	16.91
562.203	16.92
562.399	16.94
562.595	17.02
562.791	17.13
562.987	17.09
563.183	17.04
563.379	16.98
563.575	16.95
563.771	16.95
563.966	16.97
564.162	16.97
564.358	16.86
564.554	16.92
564.75	16.83
564.945	16.72
565.141	16.81
565.337	16.83
565.533	16.86
565.728	16.83
565.924	16.86
566.12	16.74
566.315	16.77
566.511	16.93
566.707	16.84
566.902	16.81
567.098	16.91
567.293	16.84
567.489	16.88
567.684	16.91
567.88	16.98
568.076	16.9
568.271	16.95
568.467	16.94
568.662	16.86
568.858	16.91
569.053	16.98
569.248	16.92
569.444	16.9
569.639	16.88
569.835	16.75
570.03	16.73
570.225	16.75
570.421	16.7
570.616	16.77
570.812	16.7
571.007	16.79
571.202	16.73
571.397	16.66
571.593	16.63
571.788	16.56
571.983	16.67
572.178	16.73
572.374	16.87
572.569	16.89
572.764	16.85
572.959	16.91
573.154	16.78
573.35	16.78
573.545	16.85
573.74	17.01
573.935	16.99
574.13	16.93
574.325	16.85
574.52	16.73
574.715	16.83
574.91	16.76
575.105	16.81
575.3	16.88
575.495	16.94
575.69	16.98
575.885	16.8
576.08	16.84
576.275	16.87
576.47	16.97
576.665	17.05
576.86	17.06
577.055	17.22
577.25	17.23
577.444	17.31
577.639	17.41
577.834	17.56
578.029	17.76
578.224	17.86
578.418	17.96
578.613	17.98
578.808	18.07
579.003	18.03
579.197	18.12
579.392	18.26
579.587	18.28
579.781	18.13
579.976	18.16
580.171	18.07
580.365	18.1
580.56	18.12
580.755	17.93
580.949	17.84
581.144	17.92
581.338	17.82
581.533	17.77
581.727	17.6
581.922	17.65
582.116	17.48
582.311	17.46
582.505	17.52
582.7	17.62
582.894	17.77
583.089	17.78
583.283	17.82
583.478	17.96
583.672	17.92
583.866	18.12
584.061	18.01
584.255	17.99
584.449	18.11
584.644	18.06
584.838	17.9
585.032	18.06
585.226	18.18
585.421	18.18
585.615	18.12
585.809	18.19
586.003	18.28
586.198	18.45
586.392	18.48
586.586	18.55
586.78	18.51
586.974	18.75
587.168	18.73
587.363	18.61
587.557	18.44
587.751	18.31
587.945	18.19
588.139	18.09
588.333	18.05
588.527	18.07
588.721	18.09
588.915	18.07
589.109	17.79
589.303	17.81
589.497	17.91
589.691	17.98
589.885	18.16
590.079	18.26
590.273	18.22
590.466	18.27
590.66	18.28
590.854	18.24
591.048	18.28
591.242	18.48
591.436	18.4
591.629	18.38
591.823	18.38
592.017	18.38
592.211	18.36
592.404	18.44
592.598	18.46
592.792	18.57
592.986	18.54
593.179	18.52
593.373	18.34
593.567	18.27
593.76	18.3
593.954	18.31
594.147	18.13
594.341	18.1
594.535	18.13
594.728	18.11
594.922	18.02
595.115	18.01
595.309	18.09
595.502	18.18
595.696	18.14
595.889	18.04
596.083	17.95
596.276	17.97
596.47	17.9
596.663	17.78
596.856	17.84
597.05	17.99
597.243	18.12
597.437	17.99
597.63	17.91
597.823	17.96
598.017	18.02
598.21	18.08
598.403	18.14
598.596	18.28
598.79	18.35
598.983	18.28
599.176	18.1
599.369	18
599.563	18.19
599.756	18.29
599.949	18.43
600.142	18.51
600.335	18.56
600.528	18.51
600.722	18.57
600.915	18.48
601.108	18.38
601.301	18.39
601.494	18.38
601.687	18.28
601.88	18.26
602.073	18.07
602.266	18.07
602.459	18.01
602.652	17.9
602.845	17.8
603.038	17.82
603.231	17.85
603.424	17.76
603.617	17.72
603.809	17.57
604.002	17.52
604.195	17.6
604.388	17.59
604.581	17.64
604.774	17.76
604.966	17.83
605.159	17.82
605.352	17.94
605.545	18.07
605.737	18.09
605.93	18.19
606.123	18.28
606.316	18.32
606.508	18.22
606.701	18.28
606.894	18.23
607.086	18.24
607.279	18.39
607.471	18.3
607.664	18.34
607.857	18.48
608.049	18.67
608.242	18.77
608.434	19.15
608.627	19.43
608.819	19.78
609.012	20.24
609.204	20.73
609.397	21.18
609.589	21.6
609.782	22.19
609.974	22.7
610.166	23.3
610.359	24
610.551	24.41
610.743	24.86
610.936	25.21
611.128	25.54
611.32	25.83
611.513	25.92
611.705	26.11
611.897	26.13
612.09	26.07
612.282	25.87
612.474	25.52
612.666	25.25
612.858	24.95
613.051	24.66
613.243	24.43
613.435	23.93
613.627	23.77
613.819	23.7
614.011	23.42
614.203	23.22
614.395	23.17
614.588	22.74
614.78	22.42
614.972	22.44
615.164	22.31
615.356	22.12
615.548	22.01
615.74	21.85
615.932	21.68
616.124	21.62
616.315	21.26
616.507	20.86
616.699	20.89
616.891	20.86
617.083	20.61
617.275	20.54
617.467	20.34
617.659	20.19
617.85	20
618.042	19.74
618.234	19.63
618.426	19.71
618.618	19.74
618.809	19.8
619.001	19.67
619.193	19.71
619.384	19.61
619.576	19.66
619.768	19.73
619.959	19.73
620.151	19.67
620.343	19.65
620.534	19.66
620.726	19.67
620.917	19.75
621.109	19.77
621.301	19.8
621.492	19.69
621.684	19.88
621.875	19.9
622.067	19.95
622.258	20.12
622.45	20.04
622.641	20.03
622.832	20.08
623.024	19.9
623.215	20.02
623.407	19.88
623.598	20.09
623.789	19.92
623.981	19.93
624.172	19.9
624.363	19.82
624.555	19.92
624.746	19.85
624.937	19.72
625.129	19.75
625.32	19.48
625.511	19.58
625.702	19.34
625.893	19.37
626.085	19.17
626.276	19.1
626.467	19.08
626.658	19
626.849	19.09
627.04	19.29
627.231	19.18
627.422	19.16
627.614	19.24
627.805	19.39
627.996	19.38
628.187	19.57
628.378	19.62
628.569	19.71
628.76	19.76
628.951	19.93
629.142	19.84
629.332	20
629.523	20.27
629.714	20.48
629.905	20.7
630.096	20.77
630.287	20.92
630.478	21.07
630.669	21.08
630.859	21.24
631.05	21.05
631.241	20.99
631.432	21.09
631.623	21.01
631.813	20.56
632.004	20.25
632.195	20.07
632.385	19.75
632.576	19.61
632.767	19.59
632.957	19.36
633.148	19.38
633.339	19.29
633.529	18.98
633.72	18.87
633.91	19.03
634.101	18.92
634.292	18.92
634.482	19.01
634.673	19.04
634.863	18.92
635.054	18.92
635.244	18.81
635.435	18.96
635.625	19.21
635.815	19.28
636.006	19.04
636.196	19.08
636.387	19.34
636.577	19.42
636.767	19.53
636.958	19.67
637.148	19.77
637.338	19.9
637.529	19.96
637.719	19.83
637.909	19.87
638.099	19.82
638.29	19.83
638.48	19.59
638.67	19.65
638.86	19.66
639.05	19.54
639.241	19.67
639.431	19.71
639.621	19.42
639.811	19.51
640.001	19.69
640.191	20.02
640.381	20.19
640.571	20.26
640.761	20.34
640.951	20.28
641.141	20.38
641.331	20.1
641.521	20.1
641.711	20.26
641.901	20.34
642.091	20.31
642.281	20.25
642.471	20.22
642.661	20.22
642.851	20.07
643.041	20.01
643.231	20.02
643.42	20.06
643.61	19.77
643.8	19.65
643.99	19.47
644.18	19.22
644.369	19.26
644.559	19.24
644.749	19.18
644.939	19.08
645.128	19.13
645.318	18.99
645.508	19.03
645.697	19.33
645.887	19.37
646.076	19.44
646.266	19.57
646.456	19.54
646.645	19.62
646.835	19.88
647.024	19.87
647.214	19.72
647.403	19.69
647.593	20.01
647.782	19.85
647.972	20.03
648.161	19.94
648.351	19.97
648.54	19.96
648.73	19.82
648.919	19.52
649.108	19.56
649.298	19.79
649.487	19.95
649.677	19.77
649.866	19.91
650.055	19.88
650.244	19.84
650.434	19.88
650.623	19.88
650.812	19.84
651.002	19.86
651.191	20.06
651.38	19.96
651.569	19.95
651.758	20.02
651.947	20.02
652.137	20.12
652.326	20.46
652.515	20.47
652.704	20.49
652.893	20.51
653.082	20.57
653.271	20.4
653.46	20.33
653.649	20.33
653.838	20.16
654.027	20.13
654.216	20
654.405	20.03
654.594	20.02
654.783	19.91
654.972	20.17
655.161	20.19
655.35	20.24
655.539	20.45
655.728	20.67
655.916	20.76
656.105	20.71
656.294	20.74
656.483	20.77
656.672	20.96
656.86	20.95
657.049	20.93
657.238	20.92
657.427	20.87
657.615	20.73
657.804	20.54
657.993	20.26
658.181	20.27
658.37	20.11
658.559	19.83
658.747	19.6
658.936	19.63
659.125	19.43
659.313	19.31
659.502	19.29
659.69	19.22
659.879	19.2
660.067	19.24
660.256	19.12
660.444	19.29
660.633	19.41
660.821	19.35
661.01	19.32
661.198	19.43
661.387	19.41
661.575	19.38
661.763	19.52
661.952	19.56
662.14	19.9
662.328	20.28
662.517	20.42
662.705	20.53
662.893	20.68
663.082	20.86
663.27	20.93
663.458	21.28
663.646	21.64
663.834	21.68
664.023	21.73
664.211	21.93
664.399	21.84
664.587	21.78
664.775	21.77
664.963	22.05
665.152	22.01
665.34	22.18
665.528	21.77
665.716	21.65
665.904	21.42
666.092	21.35
666.28	20.95
666.468	20.87
666.656	20.73
666.844	20.69
667.032	20.56
667.22	20.54
667.408	20.38
667.596	20.62
667.784	20.51
667.971	20.82
668.159	20.82
668.347	20.88
668.535	20.99
668.723	21.12
668.911	21.08
669.098	21.1
669.286	21.01
669.474	21.03
669.662	21.2
669.849	21.25
670.037	20.98
670.225	21.16
670.413	21.13
670.6	21.05
670.788	20.89
670.976	20.97
671.163	20.69
671.351	20.77
671.538	20.69
671.726	20.3
671.913	20.25
672.101	20.57
672.289	20.46
672.476	20.59
672.664	20.61
672.851	20.72
673.039	20.7
673.226	21.04
673.413	20.96
673.601	21.1
673.788	21.63
673.976	21.51
674.163	21.24
674.35	21.44
674.538	21.36
674.725	21.23
674.912	21.42
675.1	21.37
675.287	21.26
675.474	21.59
675.662	21.69
675.849	21.35
676.036	21.49
676.223	21.57
676.411	21.67
676.598	21.58
676.785	21.69
676.972	21.57
677.159	21.74
677.346	21.65
677.533	21.47
677.721	21.43
677.908	21.43
678.095	21.31
678.282	21.42
678.469	21.16
678.656	21.13
678.843	21.11
679.03	20.93
679.217	20.9
679.404	21.18
679.591	20.98
679.778	20.99
679.964	20.92
680.151	20.75
680.338	20.75
680.525	20.73
680.712	20.92
680.899	20.99
681.086	21.19
681.272	21.14
681.459	20.96
681.646	21.15
681.833	21.07
682.02	21.35
682.206	21.62
682.393	21.39
682.58	21.41
682.766	21.55
682.953	21.55
683.14	21.57
683.326	21.64
683.513	21.69
683.7	21.7
683.886	21.78
684.073	21.68
684.259	21.81
684.446	22.14
684.632	22.42
684.819	22.41
685.005	22.37
685.192	22.57
685.378	22.59
685.565	22.78
685.751	22.84
685.938	22.95
686.124	22.85
686.31	22.91
686.497	23
686.683	22.91
686.87	22.95
687.056	22.98
687.242	22.68
687.429	22.66
687.615	22.41
687.801	22.43
687.987	22.34
688.174	22.54
688.36	22.54
688.546	22.74
688.732	22.43
688.918	22.26
689.105	22.36
689.291	22.49
689.477	22.49
689.663	22.65
689.849	22.7
690.035	22.77
690.221	22.65
690.407	22.6
690.593	22.28
690.779	22.53
690.965	23.01
691.151	23.08
691.337	22.89
691.523	22.99
691.709	23.06
691.895	23.16
692.081	23.15
692.267	23.16
692.453	23.37
692.639	23.64
692.825	23.64
693.011	23.3
693.196	23.21
693.382	23.5
693.568	23.75
693.754	23.63
693.94	23.36
694.125	23.2
694.311	23.34
694.497	23.01
694.682	22.56
694.868	22.57
695.054	22.23
695.239	22.36
695.425	22.22
695.611	21.98
695.796	22.04
695.982	22.43
696.168	22.2
696.353	22.08
696.539	22.23
696.724	22.44
696.91	22.41
697.095	22.42
697.281	22.19
697.466	22.05
697.652	21.7
697.837	21.36
698.023	20.97
698.208	21.22
698.393	21.27
698.579	21
698.764	20.79
698.949	20.83
699.135	21.12
699.32	21.1
699.505	21.39
699.691	21.73
699.876	21.98
700.061	22.15
700.246	22.19
700.432	22.27
700.617	22.61
700.802	22.67
700.987	22.46
701.172	22.47
701.358	22.67
701.543	22.71
701.728	22.71
701.913	22.83
702.098	23.16
702.283	23.44
702.468	23.55
702.653	23.73
702.838	24.21
703.023	24.43
703.208	24.13
703.393	23.97
703.578	23.75
703.763	23.86
703.948	24.12
704.133	24.18
704.318	23.81
704.503	24.23
704.688	24.42
704.873	24.41
705.057	24.77
705.242	25.19
705.427	25.67
705.612	25.96
705.797	26.02
705.981	25.88
706.166	25.95
706.351	26.71
706.536	26.64
706.72	26.33
706.905	26.71
707.09	26.65
707.274	26.49
707.459	26.38
707.644	26.41
707.828	26.86
708.013	26.99
708.197	26.86
708.382	26.61
708.567	26.24
708.751	26.54
708.936	26.19
709.12	26.28
709.305	26.37
709.489	26.08
709.673	25.96
709.858	25.5
710.042	25.64
710.227	25.64
710.411	25.5
710.596	25.61
710.78	25.44
710.964	25.57
711.149	25.33
711.333	25.18
711.517	25.34
711.702	25.36
711.886	25.68
712.07	25.47
712.254	25.69
712.438	25.5
712.623	25.39
712.807	25.48
712.991	25.35
713.175	25.72
713.359	25.93
713.544	26.28
713.728	26.49
713.912	26.18
714.096	26.12
714.28	25.63
714.464	25.69
714.648	25.62
714.832	25.49
715.016	25.43
715.2	25.17
715.384	24.75
715.568	24.23
715.752	24.07
715.936	24.12
716.12	23.83
716.304	24.16
716.488	24.01
716.671	24.06
716.855	24.1
717.039	24.11
717.223	24.07
717.407	24.15
717.59	24.5
717.774	24.25
717.958	23.87
718.142	23.99
718.325	23.83
718.509	24
718.693	24.08
718.877	24.03
719.06	24.23
719.244	24.19
719.428	24.28
719.611	24.39
719.795	24.67
719.978	24.91
720.162	25.05
720.345	25.3
720.529	25.8
720.713	25.75
720.896	26.11
721.08	26.08
721.263	26.25
721.446	26.92
721.63	26.71
721.813	26.57
721.997	26.49
722.18	26.77
722.364	26.83
722.547	26.23
722.73	26.48
722.914	26.62
723.097	26.31
723.28	26.3
723.464	25.73
723.647	25.77
723.83	25.86
724.013	26.05
724.197	25.94
724.38	26.17
724.563	26.78
724.746	27.06
724.929	26.73
725.112	26.88
725.296	26.84
725.479	27.42
725.662	27.52
725.845	27.18
726.028	27.19
726.211	27.29
726.394	26.88
726.577	25.74
726.76	25.45
726.943	25.18
727.126	25.34
727.309	25.26
727.492	24.58
727.675	24.45
727.858	24.8
728.041	24.81
728.224	24.71
728.407	24.48
728.589	25.38
728.772	25.82
728.955	26.35
729.138	26.38
729.321	26.6
729.503	27.12
729.686	27.09
729.869	27.59
730.052	27.63
730.234	27.47
730.417	27.72
730.6	27.85
730.782	27.17
730.965	26.7
731.148	26.62
731.33	26.66
731.513	26.5
731.695	26.57
731.878	26.28
732.061	26.07
732.243	26.43
732.426	26.46
732.608	26.11
732.791	26.41
732.973	27.03
733.156	27.27
733.338	27.19
733.52	26.97
733.703	26.69
733.885	26.53
734.068	26.83
734.25	26.63
734.432	26.77
734.615	26.97
734.797	27.41
734.979	27.28
735.162	27.16
735.344	27.32
735.526	27.6
735.708	27.89
735.891	27.9
736.073	27.81
736.255	27.55
736.437	27.6
736.619	27.31
736.802	26.25
736.984	26.2
737.166	25.83
737.348	25.25
737.53	25.73
737.712	25.62
737.894	25.61
738.076	25.63
738.258	25.51
738.44	25.33
738.622	25.49
738.804	26.5
738.986	26.38
739.168	26.79
739.35	27.09
739.532	26.79
739.714	26.66
739.896	26.5
740.078	26.79
740.259	27.55
740.441	28.12
740.623	28.26
740.805	27.8
740.987	27.7
741.168	27.55
741.35	27.43
741.532	27.68
741.714	28.2
741.895	28.25
742.077	28.33
742.259	27.77
742.44	27.44
742.622	27.83
742.804	28.13
742.985	27.71
743.167	28.18
743.348	28.01
743.53	27.57
743.711	27.15
743.893	27.68
744.075	27.4
744.256	27.59
744.438	27.56
744.619	27.17
744.8	27.05
744.982	28.03
745.163	27.6
745.345	28.24
745.526	27.81
745.707	27.93
745.889	27.93
746.07	28.32
746.252	28.16
746.433	28.37
746.614	28.3
746.795	28.71
746.977	28.25
747.158	28.17
747.339	28.35
747.52	28.68
747.702	29.29
747.883	29.32
748.064	29.36
748.245	29.65
748.426	29.64
748.607	29.56
748.788	29.07
748.97	28.99
749.151	29.29
749.332	29.18
749.513	29.42
749.694	29.36
749.875	29.23
750.056	28.94
750.237	29.16
750.418	28.98
750.599	29.15
750.78	28.69
750.96	29.18
751.141	29.14
751.322	29
751.503	28.74
751.684	29.12
751.865	28.61
752.046	28.63
752.226	28.77
752.407	28.58
752.588	27.99
752.769	28.84
752.949	27.85
753.13	28.08
753.311	28.81
753.492	28.63
753.672	28.3
753.853	28.69
754.034	29.06
754.214	29.37
754.395	28.95
754.575	29.11
754.756	28.85
754.937	29.71
755.117	29.86
755.298	29.41
755.478	30.18
755.659	29.83
755.839	30.06
756.02	30.22
756.2	29.73
756.381	30.21
756.561	30.75
756.741	30.3
756.922	29.63
757.102	29.21
757.283	28.98
757.463	28.35
757.643	28.59
757.823	28.37
758.004	27.54
758.184	27.35
758.364	27.77
758.545	27.3
758.725	27.35
758.905	27.85
759.085	28.01
759.265	28.36
759.446	28.53
759.626	28.23
759.806	28.04
759.986	29
760.166	29.19
760.346	29.23
760.526	29.45
760.706	29.73
760.886	29.45
761.066	29.57
761.246	28.92
761.426	28.7
761.606	28.71
761.786	28.72
761.966	27.8
762.146	27.48
762.326	27.26
762.506	27.16
762.686	27.04
762.866	26.81
763.046	26.09
763.225	26.1
763.405	26.4
763.585	26.43
763.765	26.43
763.945	26.73
764.124	26.47
764.304	26.2
764.484	26.42
764.664	26.56
764.843	26.75
765.023	27.32
765.203	27.54
765.382	27.43
765.562	27.24
765.741	27.09
765.921	27.29
766.101	27.49
766.28	27.95
766.46	27.95
766.639	27.53
766.819	28.29
766.998	28.15
767.178	28.75
767.357	29.1
767.537	29.56
767.716	29.87
767.896	29.28
768.075	29.68
768.254	29.6
768.434	30.14
768.613	30.8
768.792	30.87
768.972	31.71
769.151	31.56
769.33	32.05
769.51	33.02
769.689	33.48
769.868	34.57
770.047	35.14
770.226	35.07
770.406	34.9
770.585	35.18
770.764	35.36
770.943	34.86
771.122	35.02
771.301	34.2
771.48	33.2
771.66	32.75
771.839	32.16
772.018	32.15
772.197	31.44
772.376	31.42
772.555	31.21
772.734	30.34
772.913	29.8
773.092	29.48
773.271	29.84
773.449	30.13
773.628	30.33
773.807	30.34
773.986	30.1
774.165	30.79
774.344	30.48
774.523	29.54
774.701	29.46
774.88	30.6
775.059	31.2
775.238	31.36
775.417	30.9
775.595	31.15
775.774	31.29
775.953	31.49
776.131	31.48
776.31	30.81
776.489	31.17
776.667	31.64
776.846	30.73
777.025	29.44
777.203	29.58
777.382	29.95
777.56	30.74
777.739	30.64
777.917	30.65
778.096	30.93
778.274	31.11
778.453	31.49
778.631	31.06
778.81	30.57
778.988	31.23
779.166	31.05
779.345	30.77
779.523	29.66
779.702	30.03
779.88	30.05
780.058	29.48
780.237	30.13
780.415	30.05
780.593	30.08
780.771	30.83
780.95	31.52
781.128	31.23
781.306	30.74
781.484	30.97
781.662	30.27
781.841	31.07
782.019	31.29
782.197	30.96
782.375	30.78
782.553	30.86
782.731	31.2
782.909	30.01
783.087	30.16
783.265	30.64
783.443	30.32
783.621	30.34
783.799	30.54
783.977	30.27
784.155	31.2
784.333	31.81
784.511	32.28
784.689	31.37
784.867	31.33
785.045	31.86
785.223	32.06
785.4	31.96
785.578	32.09
785.756	30.62
785.934	31.64
786.112	31.16
786.289	30.26
786.467	29.11
786.645	29.79
786.823	30.54
787	29.9
787.178	29.42
787.356	29.46
787.533	29.3
787.711	29.59
787.889	30.1
788.066	29.48
788.244	30.71
788.421	31.08
788.599	30.79
788.776	30.69
788.954	30.21
789.131	30.34
789.309	31.3
789.486	30.98
789.664	30.93
789.841	29.72
790.019	30.75
790.196	29.9
790.373	29.7
790.551	29.94
790.728	30.63
790.906	31.93
791.083	31.82
791.26	30.86
791.437	31.93
791.615	31.94
791.792	32.85
791.969	33.56
792.146	34.71
792.324	36
792.501	35.7
792.678	34.16
792.855	33.12
793.032	33.01
793.209	33.1
793.387	32.47
793.564	32.39
793.741	31.78
793.918	30.68
794.095	30.07
794.272	29.04
794.449	30.28
794.626	30.91
794.803	30.33
794.98	31.54
795.157	32.32
795.334	32.96
795.511	33.59
795.688	33.27
795.864	33.41
796.041	33.53
796.218	34.12
796.395	32.98
796.572	32.84
796.749	33.97
796.925	33.32
797.102	33.38
797.279	33.32
797.456	32.82
797.632	33.39
797.809	32.94
797.986	32.48
798.162	31.58
798.339	30.72
798.516	30.73
798.692	31.05
798.869	31.62
799.046	31.71
799.222	31.3
799.399	31.98
799.575	32.85
799.752	32.72
799.928	33.26
800.105	33.5
800.281	35.23
800.458	35.02
800.634	34.45
800.811	33.49
800.987	32.58
801.163	32.38
801.34	32.07
801.516	31.35
801.692	31.28
801.869	30.51
802.045	30.48
802.221	29.61
802.398	29.7
802.574	30.57
802.75	30.02
802.926	29.49
803.103	30.98
803.279	31.36
803.455	31.75
803.631	32.24
803.807	32.87
803.983	33.46
804.16	34.38
804.336	35.03
804.512	34.02
804.688	36.14
804.864	36.13
805.04	34.98
805.216	33.63
805.392	32.38
805.568	31.83
805.744	31.06
805.92	30.32
806.096	30.76
806.272	31.02
806.448	31.7
806.623	30.63
806.799	31.37
806.975	30.94
807.151	31.68
807.327	32.87
807.503	31.76
807.678	32.42
807.854	33.67
808.03	33.03
808.206	32.65
808.381	32.65
808.557	33.6
808.733	34.82
808.908	34.81
809.084	35.34
809.26	35.31
809.435	36.31
809.611	36.5
809.787	35.52
809.962	34.89
810.138	35.14
810.313	34.23
810.489	33.5
810.664	32.44
810.84	32.24
811.015	32.42
811.191	31.97
811.366	32.31
811.542	32.01
811.717	32.13
811.892	33.34
812.068	33.43
812.243	34.13
812.419	34.3
812.594	35.01
812.769	35.58
812.944	34.49
813.12	34.29
813.295	34.68
813.47	33.5
813.645	34.5
813.821	33.74
813.996	33.2
814.171	32.56
814.346	33.79
814.521	34.25
814.697	33.84
814.872	35.24
815.047	35.91
815.222	36.49
815.397	38.43
815.572	38.04
815.747	38.32
815.922	38.49
816.097	38.65
816.272	37.19
816.447	36.08
816.622	37.28
816.797	36.77
816.972	36.11
817.147	36.28
817.322	34.84
817.496	34.88
817.671	35.52
817.846	35.78
818.021	36.34
818.196	36.61
818.371	36
818.545	34.33
818.72	33.93
818.895	34.21
819.069	33.7
819.244	33.65
819.419	32.64
819.594	31.34
819.768	30.28
819.943	29
820.117	27.59
820.292	27.4
820.467	27.24
820.641	26.08
820.816	25.25
820.99	24.43
821.165	23.52
821.339	22.79
821.514	22.8
821.688	22.52
821.863	22.64
822.037	22.48
822.212	22.36
822.386	22.26
822.56	22.41
822.735	22.2
822.909	22.38
823.084	22.94
823.258	23.2
823.432	23.16
823.606	23.42
823.781	23.38
823.955	23.77
824.129	23.99
824.303	24.14
824.478	24.46
824.652	25.05
824.826	25.17
825	24.93
825.174	25.37
825.348	25.13
825.523	25.24
825.697	25.58
825.871	25.74
826.045	25.22
826.219	25.07
826.393	24.92
826.567	24.85
826.741	24.42
826.915	24.55
827.089	24.89
827.263	25.29
827.437	25.36
827.611	24.99
827.784	25.13
827.958	25.37
828.132	25.59
828.306	25.77
828.48	25.96
828.654	26.86
828.827	26.73
829.001	26.57
829.175	26.38
829.349	26.42
829.522	27.04
829.696	26.86
829.87	27.62
830.044	27.79
830.217	27.8
830.391	27.33
830.565	26.38
830.738	27.24
830.912	27.81
831.085	28.99
831.259	30.29
831.432	30.39
831.606	30.71
831.779	31.36
831.953	31.71
832.126	31.19
832.3	31.07
832.473	31.08
832.647	31.39
832.82	30.49
832.994	30.67
833.167	29.44
833.34	28.64
833.514	27.88
833.687	26.92
833.86	26.77
834.034	26.96
834.207	26.74
834.38	26.93
834.553	25.58
834.727	25.43
834.9	25.26
835.073	25.74
835.246	26.7
835.419	27.43
835.593	27.36
835.766	27.49
835.939	27.37
836.112	27.98
836.285	28.47
836.458	29.03
836.631	28.56
836.804	29.27
836.977	29.67
837.15	28.64
837.323	29.75
837.496	31.68
837.669	32.61
837.842	33.8
838.015	34.09
838.188	34.02
838.361	36.33
838.533	38.5
838.706	36.7
838.879	35.12
839.052	37
839.225	36.07
839.398	35.79
839.57	36.73
839.743	36.28
839.916	35.51
840.088	35.83
840.261	35.01
840.434	35.25
840.607	37.16
840.779	38.76
840.952	36.79
841.124	35.86
841.297	35.17
841.47	34.32
841.642	33.91
841.815	35.86
841.987	34.81
842.16	35.83
842.332	33.4
842.505	30.52
842.677	28.11
842.85	30.1
843.022	31.54
843.194	33.31
843.367	34.91
843.539	34.81
843.712	36.22
843.884	37.23
844.056	38.5
844.229	42.22
844.401	45.07
844.573	47.57
844.745	46.54
844.918	45.8
845.09	43.45
845.262	40.88
845.434	41.98
845.606	38.37
845.779	39.37
845.951	39.99
846.123	38.9
846.295	42.27
846.467	43.25
846.639	43.33
846.811	45.3
846.983	48.54
847.155	48.01
847.327	48.32
847.499	53.02
847.671	53.49
847.843	50.28
848.015	53.34
848.187	49.74
848.359	50.02
848.531	51.18
848.703	50.63
848.875	50.8
849.047	53.75
849.218	56.06
849.39	54.27
849.562	50.72
849.734	54.45
849.905	50.25
850.077	49.01
850.249	49.03
850.421	46.41
850.592	46.83
850.764	45.8
850.936	44.22
851.107	41.61
851.279	43.82
851.451	50.03
851.622	45.91
851.794	50.39
851.965	53.63
852.137	50.4
852.308	55.21
852.48	55.33
852.651	54.88
852.823	57.44
852.994	55.14
853.166	52.56
853.337	50.54
853.509	52.46
853.68	50.01
853.851	49.4
854.023	50.72
854.194	50.74
854.365	52.76
854.537	49.7
854.708	48.94
854.879	49.09
855.05	49.23
855.222	49.84
855.393	48.17
855.564	46.42
855.735	42.68
855.906	43.66
856.078	40.52
856.249	40.88
856.42	43.15
856.591	40.59
856.762	44.76
856.933	45.43
857.104	42.39
857.275	44.93
857.446	45.69
857.617	50.75
857.788	49.18
857.959	52.54
858.13	49.77
858.301	51.07
858.472	55.49
858.643	53.3
858.814	57.31
858.985	59.17
859.155	58.49
859.326	58.88
859.497	56.46
859.668	57.21
859.839	55.63
860.009	53.83
860.18	55.1
860.351	49.22
860.522	45.67
860.692	37.42
860.863	35.86
861.034	40.87
861.204	40.91
861.375	38.96
861.546	37.67
861.716	36.13
861.887	38.69
862.057	38.6
862.228	40.24
862.398	46.66
862.569	53.14
862.739	53.81
862.91	48.77
863.08	46.47
863.251	47.94
863.421	47.26
863.592	46.64
863.762	50.97
863.932	48.06
864.103	49.84
864.273	47.43
864.443	45.15
864.614	42.67
864.784	42.47
864.954	46.75
865.125	45.28
865.295	47.44
865.465	48.25
865.635	39.85
865.805	43.02
865.976	41.26
866.146	38.11
866.316	37.79
866.486	41.91
866.656	42.37
866.826	48.81
866.996	51.13
867.166	50.96
867.336	53.7
867.506	54.8
867.676	51.72
867.846	57.1
868.016	59.09
868.186	55.84
868.356	52.89
868.526	50.15
868.696	41.14
868.866	43.38
869.036	42.27
869.206	39.04
869.376	41.51
869.545	45.32
869.715	44.29
869.885	44.27
870.055	48.56
870.224	45.36
870.394	48.67
870.564	49.49
870.734	44.18
870.903	42.91
871.073	39.49
871.243	40.59
871.412	40.88
871.582	36.43
871.751	37.55
871.921	39.24
872.091	39.94
872.26	37.68
872.43	33.56
872.599	35.06
872.769	41.45
872.938	47.36
873.108	45.26
873.277	46.65
873.446	47.64
873.616	43.71
873.785	41.68
873.955	41.23
874.124	42.17
874.293	47.25
874.463	43.27
874.632	40.68
874.801	37.27
874.971	41
875.14	40.31
875.309	34.4
875.478	36.65
875.647	35.27
875.817	38.57
875.986	37.83
876.155	36.55
876.324	42.23
876.493	41.98
876.662	44.18
876.831	43.48
877	40.29
877.17	48.98
877.339	51.02
877.508	51.65
877.677	49.77
877.846	50.74
878.015	51.64
878.184	47.13
878.352	48.08
878.521	50.86
878.69	45.85
878.859	45.15
879.028	43.52
879.197	43.51
879.366	38.75
879.534	37.66
879.703	34.63
879.872	32.44
880.041	34.77
880.21	31.87
880.378	29.73
880.547	31.26
880.716	30.89
880.884	29.21
881.053	27.77
881.222	28.19
881.39	27.57
881.559	26.71
881.727	25.55
881.896	24.21
882.065	23.35
882.233	22.61
882.402	21.74
882.57	21.05
882.739	21.23
882.907	20.6
883.076	20.62
883.244	20.39
883.412	20.6
883.581	21.28
883.749	21.84
883.918	21.78
884.086	22.17
884.254	22.65
884.423	23.51
884.591	23.99
884.759	24.27
884.927	24.33
885.096	24.54
885.264	26.57
885.432	27.72
885.6	27.62
885.769	30.5
885.937	30.26
886.105	30.86
886.273	33.06
886.441	31.1
886.609	33.41
886.777	33.52
886.945	35.64
887.113	35.41
887.281	32.91
887.449	36.24
887.617	35.43
887.785	38.92
887.953	40.67
888.121	38.93
888.289	41.51
888.457	40.52
888.625	43.67
888.793	42.77
888.961	41.49
889.129	42.9
889.296	44.09
889.464	44.91
889.632	42.5
889.8	40.09
889.967	39.04
890.135	40.99
