Data from 2938718__Reflection_01.txt Node
Date: Tue Mar 17 18:41:54 EDT 2015
User: robert
Spectrometer: USB4E03002
Autoset integration time: false
Trigger mode: 4
Integration Time (sec): 1.000000E-1
Scans to average: 10
Electric dark correction enabled: false
Nonlinearity correction enabled: false
Boxcar width: 5
Stray light correction enabled: false
XAxis mode: Wavelengths
Stop averaging: false
Number of Pixels in Spectrum: 3648
>>>>>Begin Spectral Data<<<<<
177.575	401.72
177.794	-273.53
178.014	-133.51
178.233	-28.34
178.452	-27.64
178.672	-26.87
178.891	-22.14
179.11	-16.27
179.33	-2.05
179.549	-15.21
179.768	-3.77
179.987	-13.16
180.207	-60.06
180.426	-300
180.645	-260.94
180.864	-295.83
181.084	-638.24
181.303	256.25
181.522	203.13
181.741	130.12
181.96	138.63
182.179	113.33
182.398	168.18
182.618	137.82
182.837	211.24
183.056	117.67
183.275	69.06
183.494	105.54
183.713	89.93
183.932	79.8
184.151	242.16
184.37	572.73
184.589	218.25
184.808	163.76
185.027	335.71
185.246	173.65
185.465	244.62
185.684	552.94
185.903	188.6
186.122	377.33
186.341	2746.67
186.56	4975
186.779	312.63
186.998	2569.23
187.216	-554.35
187.435	-847.06
187.654	-153.4
187.873	-562.26
188.092	-1446.15
188.311	-147.78
188.53	-104.89
188.748	-7037.5
188.967	567.41
189.186	382.44
189.405	393.85
189.623	825.49
189.842	643.31
190.061	558.93
190.28	-4884.21
190.498	-11262.5
190.717	-1534.78
190.936	373.47
191.154	162.59
191.373	270.16
191.592	13600
191.81	325.23
192.029	85.11
192.248	-5.11
192.466	-221.43
192.685	-2221.43
192.904	558.14
193.122	193.6
193.341	52.02
193.559	63.33
193.778	75.28
193.996	143.5
194.215	66.78
194.433	-40.72
194.652	-203.49
194.87	-117.44
195.089	-77.71
195.307	-273.68
195.526	185.23
195.744	128.66
195.963	124.41
196.181	195.54
196.399	-1217.65
196.618	3.55
196.836	10.95
197.055	12.69
197.273	-2371.43
197.491	211.76
197.71	115.38
197.928	238.42
198.146	420
198.365	378.67
198.583	261.96
198.801	286.81
199.019	190.83
199.238	143.07
199.456	141.49
199.674	78.17
199.892	57.26
200.111	34.38
200.329	275.76
200.547	598
200.765	152.6
200.983	136.17
201.202	450
201.42	-12.7
201.638	178.12
201.856	113.82
202.074	124.13
202.292	179.07
202.51	119.91
202.728	127.92
202.946	92.05
203.165	60.62
203.383	57.77
203.601	69.7
203.819	58.32
204.037	60.8
204.255	62.61
204.473	69.49
204.691	57.67
204.909	74.53
205.127	88.6
205.345	95.63
205.562	121.73
205.78	111.49
205.998	90.72
206.216	81.38
206.434	88.42
206.652	88.87
206.87	93.59
207.088	122.77
207.306	179.4
207.523	203.45
207.741	181.71
207.959	101.3
208.177	349.43
208.395	-876.09
208.612	-184.56
208.83	-364.15
209.048	-84.71
209.266	-405.45
209.483	-395.65
209.701	-497.83
209.919	-304.55
210.136	-25.44
210.354	-4.98
210.572	89.92
210.79	-314.81
211.007	134.72
211.225	296.4
211.442	6850
211.66	358.67
211.878	-318.52
212.095	-174.38
212.313	-305.26
212.53	-1366.67
212.748	-45.9
212.966	-11.67
213.183	5.44
213.401	-65.78
213.618	24.85
213.836	81.78
214.053	127.72
214.271	129.69
214.488	130.75
214.705	109.07
214.923	91.64
215.14	90.57
215.358	78.53
215.575	75.75
215.793	79.75
216.01	62.21
216.227	13.62
216.445	13.91
216.662	2.61
216.879	-6.62
217.097	-20.17
217.314	11.86
217.531	22.09
217.749	26.28
217.966	22.56
218.183	21.2
218.4	30.23
218.618	36.96
218.835	39.76
219.052	43.7
219.269	41.11
219.487	49.44
219.704	46.22
219.921	41.55
220.138	40.66
220.355	44.53
220.572	47.86
220.79	37.32
221.007	39.23
221.224	29.36
221.441	31.65
221.658	26.4
221.875	24.77
222.092	17.22
222.309	19.78
222.526	16.22
222.743	17.28
222.96	9.78
223.177	15.96
223.394	14.43
223.611	23
223.828	18.3
224.045	23.93
224.262	14.91
224.479	20.99
224.696	20.18
224.913	22.55
225.13	17.3
225.347	18.61
225.564	13.12
225.781	12.11
225.997	10.68
226.214	9.96
226.431	7.97
226.648	10.57
226.865	8.91
227.082	7.56
227.298	7.4
227.515	9.13
227.732	8.37
227.949	9.47
228.165	8.18
228.382	6.51
228.599	6.99
228.816	6.32
229.032	6.05
229.249	5.18
229.466	4.89
229.682	3.78
229.899	3.08
230.116	3.47
230.332	3.67
230.549	3.94
230.765	4.97
230.982	4.77
231.199	4.87
231.415	5.76
231.632	6.36
231.848	7.34
232.065	7.73
232.281	8.12
232.498	8.41
232.714	8.58
232.931	9.24
233.147	9.14
233.364	8.15
233.58	8.61
233.797	7.22
234.013	6.05
234.23	3.98
234.446	4.24
234.662	4.85
234.879	4.43
235.095	3.65
235.312	2.95
235.528	2.88
235.744	3.24
235.961	3.3
236.177	4.09
236.393	5.07
236.61	6.53
236.826	8.43
237.042	6.85
237.258	6.15
237.475	5.55
237.691	6.29
237.907	7.09
238.123	7.68
238.339	8.24
238.556	9.16
238.772	9.62
238.988	9.59
239.204	8.53
239.42	9.45
239.636	8.98
239.853	9.6
240.069	8.33
240.285	8.08
240.501	7.12
240.717	7.2
240.933	6.64
241.149	5.87
241.365	4.97
241.581	4.96
241.797	5.04
242.013	5.67
242.229	5.5
242.445	5.3
242.661	4.87
242.877	4.79
243.093	4.54
243.309	3.72
243.525	3.9
243.741	4.33
243.957	4.2
244.173	3.97
244.388	3.47
244.604	3.85
244.82	4.74
245.036	5.38
245.252	5.52
245.468	5.66
245.683	5.55
245.899	5.92
246.115	6.08
246.331	6.2
246.547	6.24
246.762	6.01
246.978	5.72
247.194	5.43
247.409	5.3
247.625	5.11
247.841	4.95
248.057	5.34
248.272	5.23
248.488	5.1
248.703	4.95
248.919	4.42
249.135	4.34
249.35	4.4
249.566	4.71
249.782	4.74
249.997	5.63
250.213	5.79
250.428	5.79
250.644	5.57
250.859	4.95
251.075	4.64
251.29	5.7
251.506	5.37
251.721	5.58
251.937	5.3
252.152	5.05
252.368	4.76
252.583	4.3
252.798	4.03
253.014	4.26
253.229	4.92
253.445	5.09
253.66	5.07
253.875	6.14
254.091	6.66
254.306	6.68
254.521	6.25
254.737	5.96
254.952	5.98
255.167	5.91
255.383	5.94
255.598	5.59
255.813	6.16
256.028	5.91
256.244	4.5
256.459	3.49
256.674	3.16
256.889	3.79
257.104	3.66
257.32	3.96
257.535	4.3
257.75	3.67
257.965	3.93
258.18	3.56
258.395	3.11
258.61	3.77
258.826	3.84
259.041	3.76
259.256	3.83
259.471	3.75
259.686	3.72
259.901	3.96
260.116	4.14
260.331	4.04
260.546	4.1
260.761	4.33
260.976	4.26
261.191	3.81
261.406	4.13
261.621	4.14
261.836	4.43
262.05	4.56
262.265	4.39
262.48	4.01
262.695	4.36
262.91	4.67
263.125	4.5
263.34	4.09
263.555	5.13
263.769	5.15
263.984	5.23
264.199	4.55
264.414	4.11
264.629	4.09
264.843	3.99
265.058	3.42
265.273	2.63
265.488	2.68
265.702	2.95
265.917	2.56
266.132	2.09
266.346	1.56
266.561	1.92
266.776	2.08
266.99	1.59
267.205	2.46
267.42	2.53
267.634	2.68
267.849	2.73
268.063	2.69
268.278	2.93
268.492	3.29
268.707	3.85
268.922	3.87
269.136	3.81
269.351	4.02
269.565	3.75
269.78	3.65
269.994	3.89
270.209	3.68
270.423	3.87
270.637	3.49
270.852	3.22
271.066	3.05
271.281	3.15
271.495	3.43
271.709	3.67
271.924	3.57
272.138	3.61
272.353	3.37
272.567	3.68
272.781	3.55
272.996	4.14
273.21	4.16
273.424	4.49
273.638	4.71
273.853	4.83
274.067	4.55
274.281	4.67
274.495	5.15
274.71	5.44
274.924	4.87
275.138	4.88
275.352	4.75
275.566	4.87
275.781	5
275.995	4.65
276.209	4.61
276.423	4.6
276.637	4.36
276.851	3.51
277.065	3.52
277.279	3.6
277.493	3.46
277.707	3.26
277.921	2.96
278.135	2.57
278.349	2.27
278.563	1.87
278.777	1.65
278.991	1.78
279.205	2.05
279.419	1.96
279.633	2.42
279.847	2.68
280.061	2.53
280.275	2.84
280.489	2.61
280.703	3.19
280.917	3.32
281.131	3.6
281.344	3.53
281.558	3.71
281.772	3.76
281.986	3.68
282.2	3.51
282.414	3.44
282.627	3.2
282.841	3.2
283.055	2.86
283.269	2.84
283.482	2.63
283.696	2.64
283.91	2.6
284.123	2.41
284.337	2.14
284.551	2.14
284.764	2.11
284.978	2.29
285.192	2.22
285.405	2.26
285.619	2.48
285.833	2.5
286.046	2.62
286.26	2.45
286.473	2.39
286.687	2.59
286.9	2.71
287.114	2.78
287.327	2.82
287.541	2.76
287.754	2.75
287.968	2.58
288.181	2.5
288.395	2.39
288.608	2.72
288.822	2.82
289.035	2.72
289.248	2.82
289.462	3.14
289.675	3.27
289.889	3.66
290.102	3.66
290.315	3.54
290.529	3.58
290.742	3.51
290.955	3.44
291.169	3.41
291.382	3.58
291.595	3.61
291.808	2.91
292.022	2.78
292.235	2.5
292.448	2.77
292.661	3.11
292.875	3.19
293.088	3.07
293.301	2.91
293.514	2.91
293.727	2.83
293.94	2.68
294.153	3.24
294.367	3.14
294.58	3.23
294.793	2.86
295.006	2.81
295.219	3.2
295.432	3.58
295.645	3.73
295.858	4.03
296.071	3.96
296.284	3.99
296.497	4.02
296.71	4.05
296.923	4.11
297.136	4.22
297.349	4.37
297.562	4.29
297.775	4.16
297.988	4.07
298.201	4.03
298.414	4.04
298.626	4.06
298.839	3.9
299.052	4.08
299.265	3.68
299.478	3.68
299.691	3.34
299.903	3.21
300.116	3.05
300.329	3.1
300.542	2.87
300.755	3
300.967	2.88
301.18	3
301.393	2.84
301.605	3.38
301.818	3.56
302.031	3.82
302.243	3.69
302.456	3.76
302.669	4.01
302.881	4.13
303.094	3.95
303.307	3.75
303.519	3.77
303.732	3.93
303.944	3.82
304.157	3.57
304.37	3.66
304.582	3.95
304.795	4.14
305.007	3.86
305.22	4.1
305.432	4.14
305.645	4.7
305.857	4.58
306.069	4.46
306.282	4.19
306.494	4.51
306.707	4.47
306.919	4.42
307.132	4.51
307.344	4.47
307.556	4.3
307.769	4.58
307.981	4.36
308.193	4.51
308.406	4.49
308.618	5.05
308.83	4.99
309.043	4.84
309.255	4.72
309.467	4.43
309.679	4.32
309.892	4.35
310.104	4.19
310.316	4.16
310.528	4.32
310.74	4.8
310.953	4.61
311.165	4.41
311.377	4.61
311.589	4.79
311.801	5.23
312.013	5.87
312.225	6.07
312.437	5.91
312.649	5.92
312.862	5.59
313.074	4.78
313.286	4.86
313.498	4.87
313.71	4.45
313.922	4.21
314.134	3.93
314.346	3.61
314.558	3.21
314.77	3.61
314.982	3.72
315.193	3.92
315.405	4.07
315.617	4.19
315.829	4.82
316.041	5.35
316.253	5.32
316.465	5.27
316.677	5.13
316.888	5.7
317.1	5.57
317.312	5.82
317.524	5.39
317.736	5.95
317.947	5.99
318.159	5.74
318.371	5.57
318.583	5.85
318.794	5.91
319.006	5.88
319.218	5.19
319.43	5.62
319.641	5.38
319.853	5.96
320.064	5.75
320.276	5.36
320.488	5.17
320.699	5.32
320.911	5.31
321.123	4.96
321.334	4.94
321.546	5.21
321.757	5.21
321.969	5.03
322.18	4.91
322.392	4.92
322.603	5.29
322.815	5.1
323.026	4.69
323.238	4.46
323.449	5.25
323.661	5.11
323.872	5.16
324.083	5.33
324.295	5.45
324.506	5.64
324.718	5.54
324.929	5.21
325.14	5.27
325.352	5.43
325.563	5.66
325.774	5.13
325.986	5.18
326.197	5.02
326.408	4.62
326.62	4.73
326.831	4.78
327.042	4.97
327.253	4.89
327.464	4.89
327.676	4.94
327.887	5.15
328.098	5.5
328.309	5.69
328.52	6.12
328.732	6.24
328.943	6.17
329.154	5.99
329.365	5.68
329.576	6.08
329.787	6.42
329.998	6.51
330.209	5.95
330.42	6.16
330.631	6.12
330.842	5.86
331.053	5.91
331.264	6.12
331.475	6.07
331.686	6.36
331.897	6.22
332.108	6.19
332.319	6.01
332.53	6.1
332.741	5.81
332.952	5.9
333.163	5.77
333.374	5.58
333.585	5.59
333.795	5.61
334.006	5.45
334.217	5.54
334.428	5.69
334.639	5.95
334.849	5.84
335.06	5.71
335.271	5.11
335.482	5.25
335.692	5.45
335.903	5.29
336.114	5.31
336.325	5.22
336.535	5.13
336.746	5.35
336.957	5.06
337.167	5.25
337.378	5.49
337.589	6.11
337.799	6.11
338.01	5.89
338.22	5.86
338.431	6.13
338.642	6.36
338.852	6.44
339.063	6.28
339.273	6.31
339.484	6.3
339.694	6.26
339.905	6.42
340.115	6.34
340.326	6.49
340.536	6.6
340.746	6.32
340.957	6.11
341.167	5.99
341.378	5.48
341.588	5.52
341.799	5.53
342.009	5.43
342.219	5.02
342.43	5.17
342.64	5.27
342.85	5.44
343.061	5.42
343.271	5.64
343.481	5.77
343.691	6.1
343.902	6.03
344.112	6.17
344.322	6.46
344.532	6.6
344.743	6.52
344.953	6.21
345.163	5.83
345.373	5.86
345.583	5.69
345.793	5.52
346.004	5.42
346.214	5.65
346.424	5.56
346.634	5.28
346.844	5.25
347.054	5.06
347.264	5.05
347.474	5.29
347.684	5.36
347.894	5.6
348.104	5.79
348.314	5.8
348.524	5.58
348.734	5.58
348.944	5.36
349.154	5.42
349.364	5.61
349.574	5.59
349.784	5.57
349.994	5.61
350.204	5.34
350.413	5
350.623	5.06
350.833	5.22
351.043	5.31
351.253	5.54
351.463	5.57
351.672	5.51
351.882	5.58
352.092	5.72
352.302	5.43
352.511	5.76
352.721	5.97
352.931	5.79
353.141	5.52
353.35	5.22
353.56	5.04
353.77	4.85
353.979	4.78
354.189	4.66
354.399	4.64
354.608	4.76
354.818	4.7
355.027	4.66
355.237	4.57
355.447	4.78
355.656	5
355.866	5.04
356.075	5.15
356.285	5.16
356.494	5.49
356.704	5.32
356.913	5.5
357.123	5.4
357.332	5.55
357.542	5.57
357.751	5.37
357.96	5.08
358.17	4.9
358.379	5.02
358.589	5.23
358.798	5.17
359.007	5.11
359.217	4.92
359.426	4.88
359.635	4.75
359.845	4.7
360.054	4.76
360.263	5.03
360.472	5.33
360.682	5.23
360.891	5.37
361.1	5.49
361.309	5.68
361.519	5.61
361.728	5.53
361.937	5.43
362.146	5.49
362.355	5.56
362.564	5.46
362.774	5.28
362.983	5.25
363.192	4.91
363.401	4.75
363.61	4.56
363.819	4.7
364.028	4.68
364.237	4.77
364.446	4.85
364.655	4.78
364.864	4.78
365.073	4.83
365.282	4.73
365.491	4.72
365.7	4.63
365.909	4.57
366.118	4.6
366.327	4.57
366.536	4.66
366.745	4.4
366.954	4.49
367.162	4.42
367.371	4.24
367.58	4.47
367.789	4.41
367.998	4.33
368.207	4.45
368.415	4.45
368.624	4.48
368.833	4.36
369.042	4.58
369.25	4.41
369.459	4.64
369.668	4.63
369.877	4.67
370.085	4.96
370.294	5.12
370.503	5.07
370.711	4.89
370.92	5
371.129	5.09
371.337	4.96
371.546	5.09
371.754	4.88
371.963	5.05
372.171	4.98
372.38	4.74
372.589	4.52
372.797	4.45
373.006	4.46
373.214	4.32
373.423	4.3
373.631	4.42
373.84	4.38
374.048	4.29
374.256	4.23
374.465	4.13
374.673	4.19
374.882	4.44
375.09	4.46
375.298	4.34
375.507	4.17
375.715	4.26
375.923	4.3
376.132	4.16
376.34	4.28
376.548	4.27
376.757	4.2
376.965	3.93
377.173	3.89
377.381	3.75
377.59	3.84
377.798	4.08
378.006	3.67
378.214	3.4
378.423	3.24
378.631	3.1
378.839	3.37
379.047	3.54
379.255	3.79
379.463	3.83
379.671	4.03
379.879	4.2
380.088	4.1
380.296	4.46
380.504	4.62
380.712	4.88
380.92	5.05
381.128	4.93
381.336	4.87
381.544	4.83
381.752	4.62
381.96	4.49
382.168	4.16
382.376	4.44
382.584	4.36
382.791	4.21
382.999	4.17
383.207	4.09
383.415	3.96
383.623	3.98
383.831	3.93
384.039	3.82
384.247	3.73
384.454	3.8
384.662	3.55
384.87	3.51
385.078	3.54
385.285	3.51
385.493	3.56
385.701	3.32
385.909	3.2
386.116	3.29
386.324	3.31
386.532	3.43
386.739	3.43
386.947	3.36
387.155	3.28
387.362	3.53
387.57	3.4
387.778	3.39
387.985	3.48
388.193	3.34
388.4	3.3
388.608	3.12
388.816	3.14
389.023	3.06
389.231	3.03
389.438	3.04
389.646	2.93
389.853	3.11
390.061	2.98
390.268	2.98
390.475	2.91
390.683	2.95
390.89	3.11
391.098	3.04
391.305	3.19
391.512	3.01
391.72	2.97
391.927	2.97
392.135	2.85
392.342	2.94
392.549	2.98
392.756	3.06
392.964	2.96
393.171	2.96
393.378	2.89
393.586	2.77
393.793	3.03
394	3.2
394.207	3.13
394.414	2.98
394.622	2.91
394.829	2.89
395.036	2.9
395.243	2.86
395.45	2.93
395.657	3.01
395.864	3.14
396.072	3.16
396.279	3.03
396.486	2.96
396.693	3.22
396.9	3.32
397.107	3.5
397.314	3.72
397.521	3.72
397.728	3.66
397.935	3.71
398.142	3.63
398.349	3.72
398.556	3.68
398.763	3.6
398.97	3.42
399.177	3.35
399.383	2.98
399.59	2.91
399.797	2.9
400.004	2.96
400.211	2.81
400.418	2.65
400.625	2.49
400.831	2.46
401.038	2.35
401.245	2.29
401.452	2.34
401.658	2.56
401.865	2.35
402.072	2.36
402.279	2.26
402.485	2.13
402.692	2.23
402.899	2.24
403.105	2.33
403.312	2.44
403.519	2.42
403.725	2.33
403.932	2.25
404.138	2.3
404.345	2.24
404.552	2.2
404.758	2.3
404.965	2.36
405.171	2.36
405.378	2.31
405.584	2.45
405.791	2.54
405.997	2.58
406.204	2.53
406.41	2.6
406.617	2.64
406.823	2.54
407.029	2.63
407.236	2.62
407.442	2.54
407.649	2.63
407.855	2.54
408.061	2.51
408.268	2.39
408.474	2.45
408.68	2.27
408.887	2.48
409.093	2.67
409.299	2.54
409.505	2.56
409.712	2.56
409.918	2.48
410.124	2.4
410.33	2.38
410.537	2.44
410.743	2.43
410.949	2.49
411.155	2.33
411.361	2.32
411.567	2.33
411.773	2.2
411.98	2.08
412.186	1.99
412.392	2.01
412.598	2.15
412.804	2.12
413.01	2.12
413.216	2.04
413.422	2.18
413.628	2.11
413.834	2.06
414.04	2.22
414.246	2.34
414.452	2.38
414.658	2.42
414.864	2.32
415.07	2.23
415.275	2.29
415.481	2.33
415.687	2.22
415.893	2.09
416.099	2.11
416.305	2.1
416.511	2.05
416.716	2.02
416.922	1.96
417.128	1.93
417.334	2.11
417.539	2.1
417.745	2.09
417.951	2.01
418.157	2.16
418.362	2.19
418.568	2.12
418.774	2.11
418.979	2.05
419.185	2.14
419.391	2.14
419.596	2.15
419.802	2.18
420.008	2.21
420.213	2.24
420.419	2.25
420.624	2.25
420.83	2.25
421.035	2.24
421.241	2.31
421.446	2.27
421.652	2.3
421.857	2.19
422.063	2.12
422.268	2.07
422.474	2.07
422.679	2.03
422.885	2.05
423.09	2.05
423.295	2.03
423.501	1.99
423.706	1.95
423.911	1.97
424.117	1.98
424.322	1.99
424.527	2
424.733	2.03
424.938	2.02
425.143	1.91
425.349	1.85
425.554	1.9
425.759	1.85
425.964	1.83
426.169	1.83
426.375	1.82
426.58	1.85
426.785	1.85
426.99	1.79
427.195	1.78
427.4	1.89
427.605	1.99
427.811	2.01
428.016	2.12
428.221	2.21
428.426	2.14
428.631	2.07
428.836	1.94
429.041	1.89
429.246	2
429.451	2.08
429.656	2.13
429.861	2.09
430.066	2.07
430.271	2.1
430.476	2.14
430.681	2.24
430.886	2.35
431.09	2.45
431.295	2.46
431.5	2.38
431.705	2.25
431.91	2.15
432.115	2.1
432.32	2.03
432.524	2
432.729	1.92
432.934	1.88
433.139	1.86
433.343	1.8
433.548	1.82
433.753	1.86
433.958	1.93
434.162	1.97
434.367	1.99
434.572	2.07
434.776	1.95
434.981	2.03
435.186	2
435.39	2.07
435.595	2.18
435.799	2.22
436.004	2.26
436.209	2.23
436.413	2.3
436.618	2.39
436.822	2.45
437.027	2.51
437.231	2.42
437.436	2.42
437.64	2.44
437.845	2.29
438.049	2.32
438.253	2.28
438.458	2.2
438.662	2.11
438.867	2.13
439.071	2.1
439.275	2.16
439.48	2.15
439.684	2.19
439.888	2.15
440.093	2.19
440.297	2.17
440.501	2.09
440.706	2.23
440.91	2.2
441.114	2.08
441.318	2.01
441.523	2
441.727	2.03
441.931	1.97
442.135	1.88
442.339	1.91
442.543	1.95
442.748	2.04
442.952	1.93
443.156	1.98
443.36	2.06
443.564	2.13
443.768	2.05
443.972	2.02
444.176	1.94
444.38	2.01
444.584	2.02
444.788	1.99
444.992	1.99
445.196	1.96
445.4	1.93
445.604	1.89
445.808	1.93
446.012	1.97
446.216	1.95
446.42	2.01
446.624	2.01
446.828	1.97
447.032	1.9
447.235	1.81
447.439	1.85
447.643	1.9
447.847	1.89
448.051	1.82
448.254	1.82
448.458	1.81
448.662	1.79
448.866	1.79
449.069	1.74
449.273	1.75
449.477	1.83
449.681	1.89
449.884	1.82
450.088	1.87
450.292	1.87
450.495	1.91
450.699	1.91
450.902	2.04
451.106	2.01
451.31	2.09
451.513	2.05
451.717	2.05
451.92	1.95
452.124	2.06
452.327	2.04
452.531	2.05
452.734	1.98
452.938	1.95
453.141	1.84
453.345	1.86
453.548	1.86
453.752	1.89
453.955	1.95
454.158	1.98
454.362	1.92
454.565	1.91
454.769	1.95
454.972	1.96
455.175	2.15
455.379	2.11
455.582	2.11
455.785	2.08
455.988	2.08
456.192	1.91
456.395	1.88
456.598	1.82
456.801	1.77
457.005	1.68
457.208	1.79
457.411	1.68
457.614	1.78
457.817	1.74
458.021	1.65
458.224	1.69
458.427	1.74
458.63	1.78
458.833	1.77
459.036	1.79
459.239	1.86
459.442	1.76
459.645	1.78
459.848	1.78
460.051	1.8
460.254	1.88
460.457	1.87
460.66	1.88
460.863	1.92
461.066	1.94
461.269	1.88
461.472	1.86
461.675	1.84
461.878	1.86
462.081	1.75
462.284	1.72
462.486	1.72
462.689	1.75
462.892	1.73
463.095	1.67
463.298	1.68
463.5	1.72
463.703	1.68
463.906	1.67
464.109	1.66
464.311	1.73
464.514	1.79
464.717	1.85
464.92	1.79
465.122	1.89
465.325	1.94
465.528	1.91
465.73	1.93
465.933	1.94
466.135	2.03
466.338	2.07
466.541	2.1
466.743	2.14
466.946	2.06
467.148	2.13
467.351	2.06
467.553	1.98
467.756	2.09
467.958	2.07
468.161	2.08
468.363	2.09
468.566	2.08
468.768	2.11
468.971	2.11
469.173	2.15
469.375	2.14
469.578	2.18
469.78	2.22
469.983	2.21
470.185	2.21
470.387	2.19
470.59	2.24
470.792	2.18
470.994	2.14
471.196	2.11
471.399	2.07
471.601	1.99
471.803	1.96
472.005	1.93
472.208	1.86
472.41	1.94
472.612	1.96
472.814	1.92
473.016	1.88
473.218	1.9
473.421	1.89
473.623	1.98
473.825	2.04
474.027	2
474.229	1.95
474.431	1.98
474.633	1.95
474.835	2
475.037	1.96
475.239	1.98
475.441	2.06
475.643	2.01
475.845	1.95
476.047	1.92
476.249	1.99
476.451	2.04
476.653	2.03
476.855	2.02
477.057	2.04
477.258	1.91
477.46	1.95
477.662	1.84
477.864	1.89
478.066	1.88
478.268	1.88
478.469	1.85
478.671	1.8
478.873	1.85
479.075	1.87
479.276	1.91
479.478	2.02
479.68	1.97
479.882	1.99
480.083	1.94
480.285	1.91
480.487	1.87
480.688	1.86
480.89	1.92
481.091	1.92
481.293	1.86
481.495	1.77
481.696	1.75
481.898	1.78
482.099	1.79
482.301	1.81
482.502	1.85
482.704	1.86
482.905	1.86
483.107	1.84
483.308	1.81
483.51	1.8
483.711	1.78
483.913	1.8
484.114	1.78
484.315	1.77
484.517	1.75
484.718	1.75
484.92	1.75
485.121	1.74
485.322	1.77
485.524	1.8
485.725	1.85
485.926	1.87
486.127	1.87
486.329	1.91
486.53	1.94
486.731	1.94
486.932	1.92
487.134	1.91
487.335	1.93
487.536	1.92
487.737	1.89
487.938	1.84
488.139	1.87
488.341	1.87
488.542	1.84
488.743	1.83
488.944	1.84
489.145	1.84
489.346	1.83
489.547	1.82
489.748	1.82
489.949	1.82
490.15	1.85
490.351	1.87
490.552	1.88
490.753	1.91
490.954	1.86
491.155	1.9
491.356	1.87
491.557	1.88
491.758	1.89
491.959	1.89
492.159	1.91
492.36	1.95
492.561	1.89
492.762	1.86
492.963	1.84
493.164	1.86
493.364	1.87
493.565	1.92
493.766	1.95
493.967	1.98
494.167	1.96
494.368	2.03
494.569	1.94
494.769	1.96
494.97	1.99
495.171	2.01
495.371	2.07
495.572	2.06
495.773	2.09
495.973	2.14
496.174	2.08
496.375	2.08
496.575	2.03
496.776	2.16
496.976	2.23
497.177	2.27
497.377	2.24
497.578	2.28
497.778	2.27
497.979	2.22
498.179	2.19
498.38	2.22
498.58	2.26
498.78	2.26
498.981	2.22
499.181	2.15
499.382	2.15
499.582	2.16
499.782	2.13
499.983	2.18
500.183	2.23
500.383	2.25
500.584	2.23
500.784	2.18
500.984	2.28
501.184	2.28
501.385	2.38
501.585	2.35
501.785	2.4
501.985	2.45
502.185	2.47
502.386	2.43
502.586	2.41
502.786	2.44
502.986	2.5
503.186	2.5
503.386	2.54
503.586	2.51
503.786	2.54
503.987	2.53
504.187	2.58
504.387	2.58
504.587	2.63
504.787	2.72
504.987	2.73
505.187	2.8
505.387	2.73
505.587	2.72
505.786	2.74
505.986	2.75
506.186	2.88
506.386	2.79
506.586	2.78
506.786	2.71
506.986	2.68
507.186	2.76
507.386	2.69
507.585	2.72
507.785	2.71
507.985	2.67
508.185	2.68
508.384	2.64
508.584	2.67
508.784	2.65
508.984	2.73
509.183	2.71
509.383	2.66
509.583	2.68
509.782	2.71
509.982	2.74
510.182	2.79
510.381	2.84
510.581	2.91
510.781	2.92
510.98	3.01
511.18	3.07
511.379	3.08
511.579	3.12
511.778	3.2
511.978	3.19
512.177	3.2
512.377	3.25
512.576	3.31
512.776	3.28
512.975	3.3
513.175	3.31
513.374	3.37
513.573	3.5
513.773	3.51
513.972	3.49
514.172	3.58
514.371	3.67
514.57	3.65
514.77	3.71
514.969	3.76
515.168	3.77
515.367	3.75
515.567	3.7
515.766	3.74
515.965	3.84
516.164	3.92
516.364	3.96
516.563	3.96
516.762	4.08
516.961	4.07
517.16	4.07
517.359	4.21
517.559	4.29
517.758	4.37
517.957	4.35
518.156	4.41
518.355	4.41
518.554	4.46
518.753	4.52
518.952	4.53
519.151	4.61
519.35	4.68
519.549	4.65
519.748	4.64
519.947	4.71
520.146	4.75
520.345	4.8
520.544	4.89
520.743	4.94
520.942	5.02
521.141	5.03
521.339	5.07
521.538	5.08
521.737	5.19
521.936	5.25
522.135	5.18
522.333	5.27
522.532	5.28
522.731	5.3
522.93	5.36
523.129	5.38
523.327	5.5
523.526	5.45
523.725	5.52
523.923	5.56
524.122	5.64
524.321	5.71
524.519	5.76
524.718	5.73
524.917	5.8
525.115	5.8
525.314	5.84
525.512	5.85
525.711	5.97
525.909	6.02
526.108	6.08
526.306	6.09
526.505	6.21
526.703	6.29
526.902	6.37
527.1	6.37
527.299	6.43
527.497	6.46
527.696	6.49
527.894	6.5
528.092	6.53
528.291	6.56
528.489	6.6
528.688	6.61
528.886	6.6
529.084	6.62
529.283	6.64
529.481	6.66
529.679	6.67
529.877	6.71
530.076	6.73
530.274	6.78
530.472	6.81
530.67	6.9
530.869	6.91
531.067	7.02
531.265	7.1
531.463	7.19
531.661	7.25
531.859	7.3
532.057	7.36
532.255	7.44
532.454	7.49
532.652	7.49
532.85	7.48
533.048	7.53
533.246	7.5
533.444	7.55
533.642	7.59
533.84	7.6
534.038	7.67
534.236	7.73
534.434	7.78
534.632	7.81
534.83	7.87
535.027	7.98
535.225	8.06
535.423	8.12
535.621	8.19
535.819	8.28
536.017	8.42
536.215	8.42
536.412	8.37
536.61	8.42
536.808	8.42
537.006	8.49
537.203	8.5
537.401	8.52
537.599	8.59
537.797	8.56
537.994	8.53
538.192	8.46
538.39	8.57
538.587	8.74
538.785	8.76
538.983	8.87
539.18	8.99
539.378	9.05
539.575	9.05
539.773	9.11
539.97	9.19
540.168	9.3
540.366	9.38
540.563	9.43
540.761	9.42
540.958	9.5
541.155	9.52
541.353	9.55
541.55	9.64
541.748	9.7
541.945	9.73
542.143	9.8
542.34	9.81
542.537	9.87
542.735	9.9
542.932	9.97
543.129	9.98
543.327	10.08
543.524	10.11
543.721	10.1
543.919	10.21
544.116	10.32
544.313	10.34
544.51	10.44
544.708	10.52
544.905	10.63
545.102	10.74
545.299	10.84
545.496	10.93
545.693	11.05
545.891	11.15
546.088	11.12
546.285	11.12
546.482	11.17
546.679	11.19
546.876	11.22
547.073	11.15
547.27	11.2
547.467	11.21
547.664	11.16
547.861	11.19
548.058	11.16
548.255	11.23
548.452	11.25
548.649	11.32
548.846	11.35
549.043	11.36
549.24	11.46
549.437	11.4
549.633	11.38
549.83	11.47
550.027	11.47
550.224	11.59
550.421	11.59
550.618	11.7
550.814	11.69
551.011	11.7
551.208	11.79
551.405	11.94
551.601	12.04
551.798	12.14
551.995	12.12
552.191	12.1
552.388	12.11
552.585	12.15
552.781	12.16
552.978	12.19
553.175	12.28
553.371	12.29
553.568	12.29
553.764	12.32
553.961	12.3
554.157	12.34
554.354	12.38
554.55	12.5
554.747	12.56
554.943	12.51
555.14	12.46
555.336	12.41
555.533	12.45
555.729	12.52
555.926	12.52
556.122	12.6
556.318	12.68
556.515	12.85
556.711	12.82
556.907	12.92
557.104	13.11
557.3	13.27
557.496	13.38
557.693	13.43
557.889	13.42
558.085	13.48
558.281	13.44
558.478	13.4
558.674	13.37
558.87	13.46
559.066	13.51
559.262	13.5
559.459	13.49
559.655	13.52
559.851	13.56
560.047	13.62
560.243	13.51
560.439	13.58
560.635	13.71
560.831	13.75
561.027	13.71
561.223	13.8
561.419	13.88
561.615	13.97
561.811	14.02
562.007	13.98
562.203	14.06
562.399	14.21
562.595	14.34
562.791	14.32
562.987	14.27
563.183	14.31
563.379	14.24
563.575	14.23
563.771	14.32
563.966	14.38
564.162	14.45
564.358	14.36
564.554	14.38
564.75	14.41
564.945	14.61
565.141	14.63
565.337	14.73
565.533	14.85
565.728	14.86
565.924	14.87
566.12	14.89
566.315	14.92
566.511	15.03
566.707	15.09
566.902	15.22
567.098	15.18
567.293	15.18
567.489	15.19
567.684	15.11
567.88	15.17
568.076	15.26
568.271	15.31
568.467	15.42
568.662	15.54
568.858	15.62
569.053	15.54
569.248	15.58
569.444	15.73
569.639	15.7
569.835	15.77
570.03	15.82
570.225	15.76
570.421	15.83
570.616	15.89
570.812	15.89
571.007	16
571.202	15.97
571.397	16.05
571.593	16.11
571.788	16.22
571.983	16.24
572.178	16.26
572.374	16.35
572.569	16.36
572.764	16.31
572.959	16.29
573.154	16.26
573.35	16.44
573.545	16.45
573.74	16.5
573.935	16.48
574.13	16.58
574.325	16.74
574.52	16.75
574.715	16.89
574.91	16.93
575.105	17.08
575.3	17.14
575.495	17.18
575.69	17.27
575.885	17.34
576.08	17.46
576.275	17.57
576.47	17.57
576.665	17.67
576.86	17.72
577.055	17.78
577.25	17.79
577.444	17.85
577.639	17.88
577.834	17.89
578.029	17.92
578.224	17.91
578.418	17.86
578.613	17.96
578.808	18
579.003	17.95
579.197	18.07
579.392	18
579.587	17.99
579.781	18.06
579.976	18.17
580.171	18.21
580.365	18.35
580.56	18.47
580.755	18.46
580.949	18.55
581.144	18.64
581.338	18.7
581.533	18.88
581.727	18.97
581.922	18.93
582.116	18.83
582.311	18.76
582.505	18.68
582.7	18.61
582.894	18.6
583.089	18.51
583.283	18.65
583.478	18.65
583.672	18.55
583.866	18.52
584.061	18.54
584.255	18.63
584.449	18.81
584.644	18.9
584.838	18.98
585.032	19.04
585.226	19.25
585.421	19.11
585.615	19.23
585.809	19.39
586.003	19.47
586.198	19.45
586.392	19.52
586.586	19.38
586.78	19.38
586.974	19.37
587.168	19.41
587.363	19.31
587.557	19.33
587.751	19.26
587.945	19.25
588.139	19.3
588.333	19.29
588.527	19.26
588.721	19.26
588.915	19.32
589.109	19.36
589.303	19.24
589.497	19.21
589.691	19.15
589.885	19.15
590.079	19.15
590.273	19.07
590.466	19.14
590.66	19.22
590.854	19.47
591.048	19.31
591.242	19.32
591.436	19.47
591.629	19.58
591.823	19.75
592.017	19.86
592.211	19.89
592.404	19.95
592.598	19.98
592.792	19.98
592.986	19.95
593.179	20.14
593.373	20.24
593.567	20.13
593.76	20.14
593.954	20.05
594.147	20.05
594.341	19.92
594.535	19.88
594.728	19.85
594.922	19.74
595.115	19.65
595.309	19.61
595.502	19.55
595.696	19.64
595.889	19.62
596.083	19.66
596.276	19.61
596.47	19.63
596.663	19.64
596.856	19.64
597.05	19.68
597.243	19.71
597.437	19.71
597.63	19.78
597.823	19.78
598.017	19.76
598.21	19.73
598.403	19.76
598.596	19.79
598.79	19.89
598.983	19.91
599.176	19.81
599.369	19.86
599.563	19.94
599.756	20.01
599.949	20.01
600.142	19.97
600.335	20.15
600.528	20.17
600.722	20.14
600.915	20.08
601.108	20.07
601.301	20.21
601.494	20.21
601.687	20.22
601.88	20.04
602.073	19.99
602.266	20.1
602.459	20.06
602.652	20.02
602.845	20.16
603.038	20.25
603.231	20.33
603.424	20.3
603.617	20.3
603.809	20.26
604.002	20.24
604.195	20.35
604.388	20.35
604.581	20.21
604.774	20.2
604.966	20.21
605.159	20.1
605.352	20.07
605.545	20.04
605.737	20.09
605.93	20.19
606.123	20.28
606.316	20.35
606.508	20.38
606.701	20.62
606.894	20.66
607.086	20.63
607.279	20.88
607.471	20.93
607.664	21.08
607.857	21.15
608.049	21.23
608.242	21.46
608.434	21.59
608.627	21.84
608.819	22.19
609.012	22.71
609.204	23.34
609.397	23.92
609.589	24.56
609.782	25.18
609.974	25.74
610.166	26.34
610.359	27.1
610.551	27.81
610.743	28.37
610.936	28.81
611.128	29.13
611.32	29.3
611.513	29.36
611.705	29.37
611.897	29.35
612.09	29.38
612.282	29.17
612.474	28.78
612.666	28.28
612.858	27.94
613.051	27.6
613.243	27.18
613.435	26.81
613.627	26.45
613.819	26.22
614.011	25.91
614.203	25.62
614.395	25.49
614.588	25.02
614.78	24.86
614.972	24.63
615.164	24.32
615.356	23.96
615.548	23.65
615.74	23.33
615.932	23.01
616.124	22.93
616.315	22.49
616.507	22.15
616.699	22.13
616.891	21.89
617.083	21.57
617.275	21.35
617.467	21.51
617.659	21.58
617.85	21.51
618.042	21.5
618.234	21.18
618.426	21.19
618.618	21.27
618.809	21.23
619.001	21.29
619.193	21.5
619.384	21.54
619.576	21.52
619.768	21.51
619.959	21.67
620.151	21.66
620.343	21.87
620.534	22.06
620.726	22.12
620.917	22.27
621.109	22.17
621.301	22.24
621.492	22.28
621.684	22.31
621.875	22.22
622.067	22.22
622.258	22.42
622.45	22.5
622.641	22.43
622.832	22.43
623.024	22.16
623.215	22.34
623.407	22.25
623.598	22.34
623.789	22.18
623.981	22.2
624.172	22.17
624.363	22.12
624.555	21.91
624.746	22
624.937	22.04
625.129	22.16
625.32	22.11
625.511	22.15
625.702	22.11
625.893	22.22
626.085	22.4
626.276	22.44
626.467	22.36
626.658	22.52
626.849	22.47
627.04	22.43
627.231	22.51
627.422	22.45
627.614	22.53
627.805	22.58
627.996	22.62
628.187	22.48
628.378	22.47
628.569	22.48
628.76	22.52
628.951	22.83
629.142	23.08
629.332	23.06
629.523	23.17
629.714	23.13
629.905	23.28
630.096	23.42
630.287	23.51
630.478	23.6
630.669	23.73
630.859	23.76
631.05	23.32
631.241	23.12
631.432	23
631.623	22.85
631.813	22.65
632.004	22.41
632.195	22.37
632.385	22.29
632.576	22.28
632.767	22.14
632.957	21.96
633.148	22.06
633.339	21.92
633.529	22.05
633.72	22.13
633.91	22.2
634.101	22.3
634.292	22.04
634.482	21.87
634.673	21.7
634.863	21.61
635.054	21.57
635.244	21.36
635.435	21.38
635.625	21.28
635.815	21.34
636.006	21.41
636.196	21.23
636.387	21.28
636.577	21.35
636.767	21.39
636.958	21.48
637.148	21.45
637.338	21.52
637.529	21.53
637.719	21.58
637.909	21.35
638.099	21.2
638.29	21.24
638.48	21.25
638.67	21.23
638.86	21.3
639.05	21.07
639.241	21.05
639.431	21.15
639.621	20.98
639.811	20.91
640.001	21.08
640.191	21.23
640.381	21.26
640.571	21.34
640.761	21.45
640.951	21.19
641.141	21.53
641.331	21.74
641.521	21.65
641.711	21.68
641.901	21.89
642.091	21.93
642.281	21.86
642.471	21.77
642.661	21.69
642.851	21.57
643.041	21.68
643.231	21.51
643.42	21.27
643.61	21.29
643.8	21.3
643.99	21.09
644.18	21.13
644.369	21.09
644.559	21.19
644.749	21.3
644.939	21.6
645.128	21.74
645.318	21.79
645.508	22.05
645.697	22.24
645.887	22.35
646.076	22.48
646.266	22.41
646.456	22.42
646.645	22.63
646.835	22.55
647.024	22.13
647.214	22.2
647.403	22.2
647.593	22.06
647.782	21.99
647.972	21.9
648.161	21.79
648.351	21.85
648.54	21.95
648.73	21.88
648.919	21.92
649.108	22.22
649.298	22.11
649.487	22.29
649.677	22.42
649.866	22.28
650.055	22.4
650.244	22.56
650.434	22.67
650.623	22.75
650.812	22.89
651.002	22.98
651.191	22.88
651.38	23.01
651.569	22.91
651.758	22.76
651.947	22.78
652.137	22.73
652.326	22.64
652.515	22.6
652.704	22.29
652.893	21.96
653.082	21.98
653.271	22.13
653.46	22.23
653.649	22.04
653.838	22.25
654.027	22.16
654.216	22.23
654.405	22.16
654.594	22.04
654.783	22.31
654.972	22.5
655.161	22.39
655.35	22.29
655.539	22.05
655.728	22.21
655.916	22.47
656.105	22.64
656.294	22.7
656.483	22.74
656.672	22.79
656.86	22.82
657.049	22.6
657.238	22.71
657.427	22.56
657.615	22.56
657.804	22.48
657.993	22.13
658.181	22.09
658.37	21.89
658.559	21.94
658.747	21.92
658.936	21.77
659.125	21.98
659.313	21.95
659.502	22.13
659.69	22.18
659.879	22.28
660.067	22.36
660.256	22.54
660.444	22.75
660.633	22.68
660.821	22.64
661.01	22.76
661.198	22.63
661.387	22.53
661.575	22.57
661.763	22.6
661.952	22.69
662.14	22.85
662.328	22.8
662.517	22.85
662.705	22.7
662.893	23.07
663.082	23.27
663.27	23.32
663.458	23.53
663.646	23.46
663.834	23.49
664.023	23.35
664.211	23.23
664.399	22.98
664.587	22.95
664.775	23.31
664.963	23.08
665.152	23.06
665.34	23.29
665.528	23.16
665.716	23.05
665.904	23.04
666.092	23.23
666.28	23.16
666.468	23.24
666.656	23.11
666.844	23.09
667.032	23.01
667.22	23.11
667.408	23.02
667.596	23.19
667.784	23.25
667.971	23.1
668.159	22.9
668.347	23.02
668.535	23.31
668.723	23.46
668.911	23.28
669.098	23.24
669.286	22.86
669.474	22.77
669.662	22.55
669.849	22.68
670.037	22.53
670.225	22.31
670.413	22.53
670.6	22.58
670.788	22.4
670.976	22.57
671.163	22.43
671.351	22.52
671.538	22.36
671.726	22.59
671.913	22.43
672.101	22.75
672.289	23.11
672.476	22.53
672.664	22.19
672.851	22.52
673.039	22.54
673.226	22.83
673.413	23.01
673.601	23.33
673.788	23.16
673.976	23.18
674.163	23.15
674.35	23.17
674.538	23.4
674.725	23.69
674.912	23.5
675.1	23.43
675.287	23.42
675.474	23.41
675.662	23.35
675.849	23.62
676.036	23.5
676.223	23.43
676.411	23.18
676.598	23.35
676.785	23.19
676.972	23.23
677.159	23.27
677.346	23.28
677.533	23.35
677.721	23.48
677.908	23.21
678.095	23.56
678.282	23.69
678.469	23.88
678.656	23.73
678.843	23.89
679.03	23.72
679.217	23.77
679.404	23.65
679.591	23.59
679.778	23.44
679.964	23.49
680.151	23.34
680.338	23.31
680.525	22.98
680.712	23.07
680.899	22.9
681.086	22.89
681.272	22.76
681.459	22.89
681.646	22.76
681.833	22.91
682.02	22.92
682.206	22.81
682.393	22.72
682.58	23.12
682.766	23.03
682.953	23
683.14	23.07
683.326	23.1
683.513	23.15
683.7	23.37
683.886	23.24
684.073	23.24
684.259	23.34
684.446	23.35
684.632	23.41
684.819	23.48
685.005	23.67
685.192	23.79
685.378	23.97
685.565	23.98
685.751	24.07
685.938	24.2
686.124	24.35
686.31	24.4
686.497	24.66
686.683	24.66
686.87	24.64
687.056	24.53
687.242	24.46
687.429	24.5
687.615	24.49
687.801	24.2
687.987	24.05
688.174	24.03
688.36	23.96
688.546	23.97
688.732	23.75
688.918	23.7
689.105	23.67
689.291	23.69
689.477	23.67
689.663	23.46
689.849	23.57
690.035	23.69
690.221	23.74
690.407	23.83
690.593	23.66
690.779	23.78
690.965	23.86
691.151	23.91
691.337	23.96
691.523	23.83
691.709	24.1
691.895	24.31
692.081	24.39
692.267	24.04
692.453	24.27
692.639	24.39
692.825	24.53
693.011	24.7
693.196	24.84
693.382	24.86
693.568	24.82
693.754	25.01
693.94	24.71
694.125	24.59
694.311	25.11
694.497	25.08
694.682	24.97
694.868	24.94
695.054	24.79
695.239	24.63
695.425	24.57
695.611	24.73
695.796	24.65
695.982	24.98
696.168	24.74
696.353	24.64
696.539	24.55
696.724	24.51
696.91	24.3
697.095	24.46
697.281	24.23
697.466	24.43
697.652	24.45
697.837	24.29
698.023	24.03
698.208	24.17
698.393	24.04
698.579	24.03
698.764	24.09
698.949	24.1
699.135	23.79
699.32	23.94
699.505	23.7
699.691	23.64
699.876	23.53
700.061	23.56
700.246	23.51
700.432	23.49
700.617	23.24
700.802	22.89
700.987	23.09
701.172	23.21
701.358	23.33
701.543	23.65
701.728	23.74
701.913	23.91
702.098	24.21
702.283	24.27
702.468	24.3
702.653	24.54
702.838	25.19
703.023	24.93
703.208	25.22
703.393	25.13
703.578	24.86
703.763	24.84
703.948	25.12
704.133	25.07
704.318	25.28
704.503	25.43
704.688	25.66
704.873	25.66
705.057	26.01
705.242	26.21
705.427	26.57
705.612	26.81
705.797	26.85
705.981	27.16
706.166	27.35
706.351	27.67
706.536	27.86
706.72	28.14
706.905	28.22
707.09	28.17
707.274	28.13
707.459	27.82
707.644	28.05
707.828	28.37
708.013	28.32
708.197	28.6
708.382	28.01
708.567	27.75
708.751	27.42
708.936	27.1
709.12	27.1
709.305	26.9
709.489	26.97
709.673	27.08
709.858	26.87
710.042	26.75
710.227	26.31
710.411	26.81
710.596	27.28
710.78	27.4
710.964	27.61
711.149	27.89
711.333	28.21
711.517	28.3
711.702	27.99
711.886	27.89
712.07	27.38
712.254	27.29
712.438	27.05
712.623	26.53
712.807	26.05
712.991	25.99
713.175	25.44
713.359	25.2
713.544	24.7
713.728	24.69
713.912	24.67
714.096	24.9
714.28	24.75
714.464	24.61
714.648	24.51
714.832	24.38
715.016	24.11
715.2	24.58
715.384	24.49
715.568	24.7
715.752	24.55
715.936	24.6
716.12	24.39
716.304	24.31
716.488	23.98
716.671	24.1
716.855	24.44
717.039	24.81
717.223	24.41
717.407	24.34
717.59	24.42
717.774	24.44
717.958	24.29
718.142	24.08
718.325	24.11
718.509	24.1
718.693	24.12
718.877	24.06
719.06	23.79
719.244	23.74
719.428	23.8
719.611	24
719.795	24.1
719.978	24.08
720.162	24.5
720.345	24.34
720.529	24.81
720.713	24.79
720.896	25.37
721.08	24.84
721.263	25.29
721.446	25.68
721.63	25.6
721.813	25.53
721.997	25.17
722.18	25.23
722.364	25.33
722.547	25.23
722.73	25.17
722.914	24.79
723.097	25.44
723.28	25.13
723.464	25.1
723.647	24.84
723.83	24.72
724.013	24.59
724.197	23.95
724.38	24.01
724.563	24
724.746	24.12
724.929	24.01
725.112	24
725.296	23.66
725.479	22.91
725.662	23.24
725.845	23.57
726.028	23.99
726.211	24.91
726.394	24.89
726.577	24.77
726.76	24.66
726.943	24.59
727.126	24.27
727.309	24.39
727.492	24.71
727.675	24.14
727.858	23.42
728.041	23.4
728.224	22.91
728.407	22.89
728.589	22.77
728.772	22.55
728.955	22.55
729.138	22.48
729.321	22.48
729.503	22.35
729.686	22.4
729.869	22.85
730.052	22.74
730.234	22.9
730.417	22.95
730.6	22.99
730.782	23.09
730.965	23.12
731.148	23.19
731.33	23.62
731.513	23.56
731.695	23.62
731.878	23.77
732.061	23.66
732.243	23.82
732.426	23.69
732.608	23.94
732.791	24.2
732.973	24.14
733.156	23.9
733.338	23.42
733.52	23.73
733.703	23.89
733.885	23.8
734.068	24.42
734.25	24.06
734.432	24.61
734.615	24.69
734.797	24.72
734.979	24.62
735.162	25.11
735.344	25.62
735.526	25.43
735.708	25.41
735.891	25.58
736.073	24.91
736.255	25.07
736.437	24.53
736.619	24.43
736.802	24.28
736.984	24.57
737.166	24.44
737.348	24.14
737.53	24.08
737.712	24.46
737.894	24.37
738.076	25.06
738.258	24.95
738.44	24.95
738.622	24.5
738.804	24.8
738.986	25.1
739.168	24.94
739.35	24.94
739.532	24.9
739.714	24.88
739.896	24.74
740.078	24.61
740.259	24.95
740.441	25.04
740.623	25.22
740.805	24.55
740.987	24.4
741.168	24.64
741.35	25.12
741.532	26.02
741.714	25.43
741.895	25.49
742.077	25.63
742.259	25.93
742.44	26.02
742.622	26.27
742.804	26.62
742.985	26.57
743.167	26.46
743.348	26.32
743.53	25.63
743.711	25.89
743.893	26.73
744.075	26.49
744.256	26.27
744.438	26.12
744.619	25.85
744.8	25.65
744.982	25.56
745.163	26.04
745.345	25.97
745.526	25.91
745.707	26.3
745.889	25.93
746.07	25.62
746.252	25.7
746.433	26.22
746.614	26.68
746.795	27.2
746.977	27.6
747.158	27.77
747.339	27.59
747.52	27.67
747.702	27.59
747.883	27.3
748.064	27.59
748.245	27.14
748.426	27.16
748.607	27.88
748.788	27.7
748.97	27.69
749.151	27.32
749.332	27.62
749.513	27.79
749.694	27.86
749.875	27.79
750.056	28.1
750.237	27.34
750.418	26.67
750.599	25.6
750.78	25.49
750.96	24.79
751.141	24.95
751.322	24.86
751.503	24.37
751.684	24.38
751.865	24.9
752.046	24.49
752.226	25.11
752.407	25.7
752.588	26.28
752.769	26.37
752.949	26.99
753.13	26.81
753.311	26.37
753.492	26.58
753.672	26.36
753.853	25.49
754.034	25.34
754.214	26.42
754.395	26.54
754.575	26.45
754.756	26.61
754.937	26.84
755.117	26.19
755.298	26.69
755.478	27.33
755.659	27.34
755.839	27.67
756.02	27.29
756.2	26.73
756.381	26.64
756.561	26.53
756.741	27
756.922	26.55
757.102	27.12
757.283	26.72
757.463	25.96
757.643	26.17
757.823	26.44
758.004	27.13
758.184	27.3
758.364	26.9
758.545	26.61
758.725	25.77
758.905	25.43
759.085	25.91
759.265	25.88
759.446	26.05
759.626	26.02
759.806	25.68
759.986	25.69
760.166	24.97
760.346	25.31
760.526	25.25
760.706	25.29
760.886	25.4
761.066	24.84
761.246	24.32
761.426	24.49
761.606	24.27
761.786	24.09
761.966	24.06
762.146	24.13
762.326	24.04
762.506	24.6
762.686	24.44
762.866	24.57
763.046	24.28
763.225	24.94
763.405	25.23
763.585	25.08
763.765	25.4
763.945	25.44
764.124	25.48
764.304	25.47
764.484	25.24
764.664	25.47
764.843	25.21
765.023	25.44
765.203	25
765.382	24.27
765.562	24.27
765.741	23.83
765.921	23.79
766.101	23.77
766.28	23.62
766.46	23.31
766.639	24.02
766.819	24.12
766.998	23.69
767.178	24.03
767.357	25.32
767.537	25.5
767.716	25.5
767.896	25.66
768.075	26.12
768.254	26.53
768.434	26.96
768.613	26.34
768.792	26.91
768.972	27.25
769.151	27.29
769.33	26.55
769.51	26.11
769.689	26.53
769.868	26.58
770.047	25.95
770.226	25.93
770.406	25.82
770.585	26.34
770.764	25.99
770.943	26.44
771.122	26.67
771.301	26.82
771.48	27.36
771.66	26.98
771.839	26.57
772.018	26.52
772.197	25.93
772.376	26.12
772.555	25.24
772.734	25.87
772.913	25.24
773.092	25.13
773.271	24.42
773.449	24.11
773.628	24.52
773.807	24.3
773.986	24.68
774.165	25.03
774.344	24.5
774.523	24.87
774.701	24.39
774.88	25.59
775.059	25.77
775.238	25.67
775.417	25.89
775.595	25.84
775.774	26.11
775.953	26
776.131	26.45
776.31	27.08
776.489	26.74
776.667	25.98
776.846	24.71
777.025	24.38
777.203	24.6
777.382	24.88
777.56	25.4
777.739	25.37
777.917	25.3
778.096	25.6
778.274	25.48
778.453	25.75
778.631	26.53
778.81	27.42
778.988	27.03
779.166	27.19
779.345	27.49
779.523	25.97
779.702	25.7
779.88	25.95
780.058	25.23
780.237	25.18
780.415	25.36
780.593	24.99
780.771	24.63
780.95	24.86
781.128	25.36
781.306	25.23
781.484	26.12
781.662	26.49
781.841	26.48
782.019	26.39
782.197	26.32
782.375	26.56
782.553	26.35
782.731	26.65
782.909	26.11
783.087	25.39
783.265	24.73
783.443	25.01
783.621	24.45
783.799	23.91
783.977	24.03
784.155	22.77
784.333	21.23
784.511	20.98
784.689	21.43
784.867	21.95
785.045	21.55
785.223	21.84
785.4	21.22
785.578	21.6
785.756	22.36
785.934	22.04
786.112	23.01
786.289	24.89
786.467	26.55
786.645	26.14
786.823	25.91
787	26.06
787.178	26.34
787.356	26.49
787.533	26.53
787.711	26.43
787.889	27.11
788.066	26.92
788.244	26.81
788.421	25.59
788.599	25.21
788.776	25.45
788.954	26.05
789.131	25.05
789.309	25.01
789.486	25.24
789.664	24.6
789.841	24.37
790.019	24.29
790.196	24.74
790.373	25.55
790.551	25.04
790.728	26.09
790.906	25.58
791.083	26.24
791.26	26.4
791.437	25.39
791.615	26.17
791.792	25.48
791.969	25.72
792.146	23.84
792.324	22.97
792.501	24.38
792.678	23.95
792.855	23.83
793.032	22.91
793.209	23.17
793.387	23.58
793.564	22.43
793.741	24.11
793.918	25.69
794.095	25.39
794.272	26.7
794.449	26.55
794.626	25.69
794.803	25.79
794.98	27.32
795.157	27.4
795.334	27.16
795.511	27.81
795.688	26.99
795.864	25.87
796.041	26.46
796.218	25.58
796.395	25.09
796.572	25.28
796.749	25.33
796.925	25.12
797.102	24.68
797.279	25.53
797.456	25.68
797.632	25.51
797.809	25.9
797.986	26.07
798.162	25.64
798.339	25.69
798.516	25.74
798.692	26.79
798.869	27.19
799.046	27.49
799.222	27.28
799.399	27.46
799.575	27.99
799.752	26.97
799.928	27.1
800.105	28.11
800.281	28.55
800.458	29.09
800.634	27.82
800.811	27.14
800.987	27.45
801.163	27.75
801.34	28.16
801.516	28.19
801.692	28.79
801.869	28.6
802.045	28.21
802.221	27.63
802.398	26.93
802.574	26.84
802.75	27.49
802.926	26.81
803.103	26.76
803.279	26.1
803.455	25.68
803.631	25.24
803.807	24.85
803.983	25.02
804.16	24.99
804.336	24.62
804.512	25.31
804.688	25.37
804.864	25.48
805.04	25.65
805.216	25.53
805.392	24.57
805.568	24.44
805.744	24.78
805.92	24.56
806.096	24.39
806.272	23.77
806.448	24.16
806.623	23.26
806.799	24.53
806.975	23.72
807.151	23.68
807.327	23.99
807.503	24.94
807.678	24.82
807.854	24.55
808.03	24.62
808.206	26.11
808.381	25.45
808.557	26.36
808.733	25.01
808.908	25.44
809.084	24.46
809.26	24.75
809.435	24.18
809.611	24.15
809.787	23.7
809.962	24.27
810.138	24.39
810.313	23.2
810.489	23.57
810.664	23.78
810.84	23.19
811.015	24.56
811.191	24.85
811.366	25.56
811.542	25.79
811.717	26.58
811.892	26.87
812.068	25.42
812.243	25.59
812.419	25.44
812.594	24.85
812.769	25.39
812.944	24.96
813.12	24.64
813.295	24.75
813.47	23.94
813.645	23.57
813.821	22.97
813.996	24.15
814.171	26.96
814.346	25.6
814.521	25.22
814.697	25.55
814.872	26.72
815.047	26.85
815.222	26.77
815.397	26.37
815.572	27.03
815.747	27.36
815.922	27.51
816.097	25.31
816.272	26.3
816.447	26.66
816.622	26.89
816.797	26.25
816.972	26.21
817.147	25.99
817.322	28.32
817.496	27.68
817.671	27.21
817.846	27.46
818.021	28.05
818.196	28.22
818.371	28.51
818.545	27.8
818.72	27.13
818.895	26.84
819.069	26.94
819.244	26.19
819.419	27.07
819.594	26.18
819.768	25.77
819.943	25.26
820.117	24.18
820.292	24.26
820.467	23.7
820.641	24.01
820.816	24.17
820.99	23.46
821.165	23.48
821.339	23.23
821.514	23.8
821.688	23.71
821.863	23.67
822.037	23.64
822.212	23.66
822.386	23.85
822.56	23.74
822.735	23.87
822.909	24.1
823.084	24
823.258	24.08
823.432	24.02
823.606	24.04
823.781	24.12
823.955	24.38
824.129	24.22
824.303	24.16
824.478	24.06
824.652	24.01
824.826	23.38
825	23.39
825.174	22.76
825.348	22.41
825.523	22.39
825.697	22.44
825.871	22.04
826.045	22.44
826.219	22.48
826.393	22.4
826.567	22.02
826.741	22.82
826.915	22.72
827.089	23.09
827.263	23.57
827.437	23.44
827.611	23.59
827.784	23.63
827.958	23.09
828.132	23.2
828.306	23.51
828.48	23.87
828.654	23.76
828.827	23.89
829.001	24.42
829.175	24.48
829.349	24.27
829.522	23.77
829.696	24.61
829.87	25.7
830.044	25.64
830.217	25.85
830.391	25.52
830.565	25.68
830.738	25.74
830.912	24.78
831.085	23.74
831.259	25.01
831.432	25.17
831.606	24.73
831.779	23.6
831.953	23.24
832.126	23.42
832.3	23.82
832.473	24.48
832.647	24.79
832.82	25.16
832.994	25.4
833.167	25.13
833.34	25.25
833.514	25.26
833.687	25.39
833.86	25.95
834.034	25.91
834.207	25.76
834.38	25.34
834.553	25.51
834.727	25.2
834.9	25.36
835.073	24.78
835.246	24.58
835.419	24.17
835.593	24.67
835.766	24.21
835.939	24.42
836.112	23.86
836.285	24.37
836.458	23.84
836.631	23.97
836.804	24.23
836.977	25.2
837.15	26.2
837.323	25.83
837.496	24.19
837.669	24.62
837.842	24.85
838.015	24.98
838.188	23
838.361	22.15
838.533	22.92
838.706	22.85
838.879	24.06
839.052	23.28
839.225	23.53
839.398	22.94
839.57	23.92
839.743	22.88
839.916	23.7
840.088	24.77
840.261	25.89
840.434	26.46
840.607	25.56
840.779	23.91
840.952	24.07
841.124	24.72
841.297	26.18
841.47	23.57
841.642	24.66
841.815	24.25
841.987	25.25
842.16	24.37
842.332	22.4
842.505	23.26
842.677	24.9
842.85	23.65
843.022	25.73
843.194	25.57
843.367	27.69
843.539	27.73
843.712	28.83
843.884	28.69
844.056	29.06
844.229	31.95
844.401	33.5
844.573	31.82
844.745	32.29
844.918	30.31
845.09	31.75
845.262	33.99
845.434	33.87
845.606	30.72
845.779	32.53
845.951	31.71
846.123	30.38
846.295	28.71
846.467	27.47
846.639	25.04
846.811	24.85
846.983	23.12
847.155	20.45
847.327	19.83
847.499	23.12
847.671	19.4
847.843	20.36
848.015	21.35
848.187	21.51
848.359	25.04
848.531	26.48
848.703	28.79
848.875	31.84
849.047	32.35
849.218	31.57
849.39	29.62
849.562	32.48
849.734	30.16
849.905	25.69
850.077	23.15
850.249	20.73
850.421	23.63
850.592	22.23
850.764	21.13
850.936	23.39
851.107	20.72
851.279	21.19
851.451	19.42
851.622	23.02
851.794	23.42
851.965	25.53
852.137	27.7
852.308	29.98
852.48	30.66
852.651	29.68
852.823	27.06
852.994	28.53
853.166	29.3
853.337	28.13
853.509	30.76
853.68	30.57
853.851	30.2
854.023	30.17
854.194	25.81
854.365	21.29
854.537	24.98
854.708	23.03
854.879	26.98
855.05	28.57
855.222	28.28
855.393	27.36
855.564	25.7
855.735	25.02
855.906	24.79
856.078	23.15
856.249	27.8
856.42	24.1
856.591	27.31
856.762	27.69
856.933	25.35
857.104	26.82
857.275	23.45
857.446	26.41
857.617	26.53
857.788	25.66
857.959	27.28
858.13	24.03
858.301	28.01
858.472	24.24
858.643	20.38
858.814	20.32
858.985	21.12
859.155	24.52
859.326	27.19
859.497	25.19
859.668	23.6
859.839	24.4
860.009	27.46
860.18	26.78
860.351	30.01
860.522	30.65
860.692	31.39
860.863	27.77
861.034	26.79
861.204	25.3
861.375	27.33
861.546	26.63
861.716	27.62
861.887	25.08
862.057	21.27
862.228	18.82
862.398	20.68
862.569	23.48
862.739	22.9
862.91	21.44
863.08	17.58
863.251	17.16
863.421	21.24
863.592	17.89
863.762	23.41
863.932	22.83
864.103	20.46
864.273	17.87
864.443	15.12
864.614	21.99
864.784	20.99
864.954	24.98
865.125	26.58
865.295	22.74
865.465	26.71
865.635	23.16
865.805	23.51
865.976	28.58
866.146	27.53
866.316	28.85
866.486	25.75
866.656	27.21
866.826	26.27
866.996	26.47
867.166	26.67
867.336	25.94
867.506	25.85
867.676	28.09
867.846	28.81
868.016	32.82
868.186	34.49
868.356	30.89
868.526	31.81
868.696	34.34
868.866	30.22
869.036	29.59
869.206	28.24
869.376	29.74
869.545	26.23
869.715	19.62
869.885	21.37
870.055	16.68
870.224	20.47
870.394	20.12
870.564	16.4
870.734	17.51
870.903	20.94
871.073	22.15
871.243	23.09
871.412	28.07
871.582	34.49
871.751	33.97
871.921	36.53
872.091	40.6
872.26	42.58
872.43	41.36
872.599	42.56
872.769	43.54
872.938	43.36
873.108	42.27
873.277	39.19
873.446	38.42
873.616	33.4
873.785	33.45
873.955	31.13
874.124	29.14
874.293	30.74
874.463	27.29
874.632	18.81
874.801	21.66
874.971	19.33
875.14	20.66
875.309	19.2
875.478	18.81
875.647	20.72
875.817	13.86
875.986	13.56
876.155	14.79
876.324	18.7
876.493	25
876.662	24.1
876.831	24.72
877	23.25
877.17	23.21
877.339	26.02
877.508	25.01
877.677	27.12
877.846	26.62
878.015	26.01
878.184	25.48
878.352	23.04
878.521	24.24
878.69	21.95
878.859	25.08
879.028	22.14
879.197	19.98
879.366	18.75
879.534	18.81
879.703	20.57
879.872	20.13
880.041	19.34
880.21	19.28
880.378	18.63
880.547	20.21
880.716	20.22
880.884	20.64
881.053	22.33
881.222	22.46
881.39	23.36
881.559	23.1
881.727	23.46
881.896	23.38
882.065	23.96
882.233	23.47
882.402	23.21
882.57	22.84
882.739	23.01
882.907	22.73
883.076	22.88
883.244	22.7
883.412	22.81
883.581	22.69
883.749	22.79
883.918	22.32
884.086	22.47
884.254	22.88
884.423	23.63
884.591	24.05
884.759	23.47
884.927	23.13
885.096	22.58
885.264	21.56
885.432	22.36
885.6	22.5
885.769	23.13
885.937	23.26
886.105	21.17
886.273	19.36
886.441	17.5
886.609	20.15
886.777	20.57
886.945	21.45
887.113	22.81
887.281	20.5
887.449	23.16
887.617	22.37
887.785	26.44
887.953	28.89
888.121	27.85
888.289	30.65
888.457	30.94
888.625	31.34
888.793	30.22
888.961	31.98
889.129	31.17
889.296	28.6
889.464	30.58
889.632	26.39
889.8	24.86
889.967	28.23
890.135	28.12
