Data from 2938746__Reflection_02.txt Node
Date: Sun Mar 15 11:39:26 EDT 2015
User: robert
Spectrometer: USB4E03002
Autoset integration time: false
Trigger mode: 4
Integration Time (sec): 1.000000E-1
Scans to average: 10
Electric dark correction enabled: false
Nonlinearity correction enabled: false
Boxcar width: 5
Stray light correction enabled: false
XAxis mode: Wavelengths
Stop averaging: false
Number of Pixels in Spectrum: 3648
>>>>>Begin Spectral Data<<<<<
177.575	134
177.794	115.87
178.014	123.43
178.233	137.34
178.452	125.12
178.672	200
178.891	209.02
179.11	-251.16
179.33	-53.01
179.549	-50.77
179.768	-199.3
179.987	-542.86
180.207	-141.22
180.426	-1196.15
180.645	-1055.22
180.864	-12071.43
181.084	712.5
181.303	-3509.52
181.522	453.89
181.741	394.39
181.96	653.66
182.179	183.04
182.398	165.49
182.618	118.76
182.837	100.46
183.056	72.83
183.275	78.27
183.494	97.74
183.713	79.18
183.932	72.51
184.151	59.38
184.37	65.9
184.589	77.67
184.808	75.37
185.027	66.92
185.246	102.43
185.465	97.31
185.684	90.63
185.903	61.39
186.122	61.03
186.341	78.37
186.56	131.17
186.779	57.1
186.998	57.52
187.216	3.19
187.435	24.2
187.654	0.6
187.873	-148
188.092	-15.43
188.311	74.46
188.53	55.77
188.748	30.05
188.967	50.43
189.186	50.48
189.405	70.54
189.623	210.47
189.842	116.21
190.061	109.31
190.28	100.67
190.498	190.91
190.717	167
190.936	298.41
191.154	259.78
191.373	227.1
191.592	130.39
191.81	91.29
192.029	68.38
192.248	89.44
192.466	118.37
192.685	130.34
192.904	109.6
193.122	88.56
193.341	133.66
193.559	115.56
193.778	101.94
193.996	183.82
194.215	360.61
194.433	-1492.59
194.652	459.09
194.87	201.54
195.089	273.26
195.307	315.09
195.526	335.44
195.744	505.19
195.963	-393.68
196.181	-1183.72
196.399	-1156
196.618	-390.4
196.836	-384.48
197.055	-183.33
197.273	-339.81
197.491	-380.79
197.71	-1232.14
197.928	-435.71
198.146	-294.92
198.365	-193.58
198.583	-520.69
198.801	864.71
199.019	254.94
199.238	147.57
199.456	100.45
199.674	144.12
199.892	187.23
200.111	236.27
200.329	301.17
200.547	142.98
200.765	119.78
200.983	115.38
201.202	118.12
201.42	126.33
201.638	130.59
201.856	133.7
202.074	98.39
202.292	91.63
202.51	99.29
202.728	99.26
202.946	127.04
203.165	152.06
203.383	126.37
203.601	132.3
203.819	123.45
204.037	113.04
204.255	124.25
204.473	108.72
204.691	116.3
204.909	102.83
205.127	108.37
205.345	78.86
205.562	92
205.78	107.02
205.998	108.27
206.216	132.9
206.434	142.07
206.652	149.85
206.87	285.94
207.088	867.65
207.306	226.48
207.523	277.22
207.741	360.42
207.959	355.37
208.177	159.76
208.395	126.97
208.612	106.83
208.83	88.07
209.048	104.63
209.266	68.11
209.483	52.41
209.701	55.1
209.919	30.21
210.136	20.6
210.354	3.49
210.572	11.75
210.79	51.22
211.007	41.44
211.225	74.01
211.442	52.21
211.66	72.11
211.878	73.47
212.095	90.84
212.313	89.33
212.53	96.64
212.748	104.17
212.966	96.59
213.183	76.41
213.401	90.01
213.618	90.4
213.836	94.06
214.053	92.33
214.271	87.88
214.488	69.92
214.705	75.37
214.923	82.94
215.14	85.99
215.358	72.22
215.575	96.73
215.793	85.61
216.01	81.9
216.227	88.88
216.445	88.94
216.662	82.4
216.879	75.55
217.097	72.32
217.314	65.09
217.531	72.96
217.749	71.09
217.966	60.67
218.183	56.74
218.4	53.51
218.618	48.69
218.835	36.98
219.052	50.89
219.269	53.87
219.487	57.49
219.704	59.08
219.921	33.96
220.138	33.87
220.355	35.46
220.572	39.28
220.79	36.1
221.007	29.88
221.224	33.29
221.441	33.72
221.658	36.98
221.875	35.26
222.092	32.13
222.309	35.17
222.526	36.12
222.743	36.04
222.96	35.81
223.177	36.1
223.394	41.07
223.611	35.96
223.828	30.49
224.045	24.77
224.262	24.76
224.479	21.67
224.696	22.76
224.913	27.61
225.13	25.78
225.347	26.85
225.564	21.36
225.781	20.55
225.997	23.73
226.214	25.17
226.431	25.1
226.648	21.32
226.865	20.97
227.082	19.38
227.298	14.65
227.515	13.67
227.732	11.28
227.949	11.67
228.165	9.6
228.382	9.59
228.599	8.31
228.816	7.96
229.032	8.81
229.249	9.39
229.466	10.03
229.682	9.83
229.899	9.94
230.116	10.08
230.332	10.39
230.549	11.33
230.765	11.08
230.982	13.43
231.199	12.97
231.415	12.19
231.632	12.72
231.848	11.07
232.065	11.26
232.281	10.34
232.498	10.42
232.714	9.74
232.931	8.22
233.147	9.13
233.364	7.43
233.58	7.47
233.797	7.31
234.013	6.07
234.23	5.74
234.446	7.77
234.662	8.66
234.879	6.84
235.095	6.81
235.312	8
235.528	6.98
235.744	7.49
235.961	8.45
236.177	9.28
236.393	10.14
236.61	11.8
236.826	10.49
237.042	11.47
237.258	13.77
237.475	14.65
237.691	14.47
237.907	14.9
238.123	13.49
238.339	12.42
238.556	12.74
238.772	12.81
238.988	12.55
239.204	14.7
239.42	13.64
239.636	11.95
239.853	11.83
240.069	11.94
240.285	11.14
240.501	11.26
240.717	11.29
240.933	10.17
241.149	8.39
241.365	8.02
241.581	7.16
241.797	7.85
242.013	8.62
242.229	8.44
242.445	7.94
242.661	8.43
242.877	8.46
243.093	8.77
243.309	9.26
243.525	9.92
243.741	10.45
243.957	10.9
244.173	10.03
244.388	8.95
244.604	8.98
244.82	9.92
245.036	9.18
245.252	8.46
245.468	7.73
245.683	7.61
245.899	7.43
246.115	6.75
246.331	6.09
246.547	6.12
246.762	6.67
246.978	6.35
247.194	6.33
247.409	6.58
247.625	6.65
247.841	6.53
248.057	6.39
248.272	6.51
248.488	6.05
248.703	6.05
248.919	5.74
249.135	5.84
249.35	6.47
249.566	6.09
249.782	5.68
249.997	5.58
250.213	5.2
250.428	5.43
250.644	5.07
250.859	6.03
251.075	6.24
251.29	7.03
251.506	6.09
251.721	5.72
251.937	5.11
252.152	4.8
252.368	4.61
252.583	5.56
252.798	4.67
253.014	4.72
253.229	4.41
253.445	4.38
253.66	4.14
253.875	5.33
254.091	5.46
254.306	5.58
254.521	6.62
254.737	7.52
254.952	7.53
255.167	8.75
255.383	8.24
255.598	9.35
255.813	8.67
256.028	8.29
256.244	6.85
256.459	5.73
256.674	5.99
256.889	4.06
257.104	3.76
257.32	3.5
257.535	3.33
257.75	3.34
257.965	3.3
258.18	3.54
258.395	3.51
258.61	3.55
258.826	3.85
259.041	4.02
259.256	4.13
259.471	4.31
259.686	4.38
259.901	4.28
260.116	4.19
260.331	3.97
260.546	4.01
260.761	4.29
260.976	4.16
261.191	3.93
261.406	3.93
261.621	4.5
261.836	4.21
262.05	4.38
262.265	4.48
262.48	4.78
262.695	4.72
262.91	4.79
263.125	4.64
263.34	5.58
263.555	6.53
263.769	6.45
263.984	6.93
264.199	7.54
264.414	6.97
264.629	7.16
264.843	6.87
265.058	7.53
265.273	7.7
265.488	7.66
265.702	7.63
265.917	6.84
266.132	6.9
266.346	6.78
266.561	6.27
266.776	6.39
266.99	6.56
267.205	6.68
267.42	6.27
267.634	5.83
267.849	5.66
268.063	5.23
268.278	5.33
268.492	5.17
268.707	4.79
268.922	4.5
269.136	4.26
269.351	4.13
269.565	4.29
269.78	4.24
269.994	4.76
270.209	4.81
270.423	4.51
270.637	4.75
270.852	4.75
271.066	4.48
271.281	4.95
271.495	4.58
271.709	4.52
271.924	4.63
272.138	5.02
272.353	4.68
272.567	4.64
272.781	4.7
272.996	4.65
273.21	4.5
273.424	4.79
273.638	4.92
273.853	4.88
274.067	4.98
274.281	5.26
274.495	4.37
274.71	5.03
274.924	5.05
275.138	5.13
275.352	5.62
275.566	5.83
275.781	5.34
275.995	5.23
276.209	5.72
276.423	5.14
276.637	4.46
276.851	5.13
277.065	4.87
277.279	5.1
277.493	5.22
277.707	4.51
277.921	4.68
278.135	4.94
278.349	4.61
278.563	4.19
278.777	4.83
278.991	5.01
279.205	4.64
279.419	4.27
279.633	4.03
279.847	3.54
280.061	3.86
280.275	3.49
280.489	3.56
280.703	3.67
280.917	4.11
281.131	3.65
281.344	4.01
281.558	4.35
281.772	4.62
281.986	4.78
282.2	5.64
282.414	5.59
282.627	5.53
282.841	5.37
283.055	5.38
283.269	5.4
283.482	5.56
283.696	5.28
283.91	5.29
284.123	4.94
284.337	4.63
284.551	4.47
284.764	4.03
284.978	4.2
285.192	4.43
285.405	4.59
285.619	4.85
285.833	4.89
286.046	5.04
286.26	4.84
286.473	5.17
286.687	5.18
286.9	5.28
287.114	5.59
287.327	5.62
287.541	5.55
287.754	5.38
287.968	4.7
288.181	4.59
288.395	4.14
288.608	4.38
288.822	4.05
289.035	4.18
289.248	3.94
289.462	3.76
289.675	3.62
289.889	3.59
290.102	3.36
290.315	3.89
290.529	4.05
290.742	4.22
290.955	4.48
291.169	4.4
291.382	4.48
291.595	4.28
291.808	4.23
292.022	4.93
292.235	4.94
292.448	5.2
292.661	4.6
292.875	4.7
293.088	4.74
293.301	4.04
293.514	4.62
293.727	4.53
293.94	5
294.153	5.25
294.367	4.7
294.58	4.75
294.793	4.55
295.006	4.86
295.219	4.93
295.432	5.02
295.645	5.18
295.858	4.83
296.071	5
296.284	4.62
296.497	4.78
296.71	4.7
296.923	4.51
297.136	4.57
297.349	4.7
297.562	4.46
297.775	4.22
297.988	4.3
298.201	4.58
298.414	4.8
298.626	4.72
298.839	4.6
299.052	4.8
299.265	5.23
299.478	5.3
299.691	5.58
299.903	5.86
300.116	5.93
300.329	6.25
300.542	5.9
300.755	5.59
300.967	5.72
301.18	5.87
301.393	5.77
301.605	5.65
301.818	5.6
302.031	5.4
302.243	5.62
302.456	5.98
302.669	5.89
302.881	6.17
303.094	6.45
303.307	6.76
303.519	6.72
303.732	6.92
303.944	6.79
304.157	7.25
304.37	7.34
304.582	7.22
304.795	7.18
305.007	6.71
305.22	6.93
305.432	7.03
305.645	6.76
305.857	6.77
306.069	6.55
306.282	6.39
306.494	5.82
306.707	5.83
306.919	5.71
307.132	5.48
307.344	5.8
307.556	5.55
307.769	5.31
307.981	5.46
308.193	5.2
308.406	5.53
308.618	5.66
308.83	5.86
309.043	5.98
309.255	5.98
309.467	6.28
309.679	6.46
309.892	6.38
310.104	6.2
310.316	6.09
310.528	6.34
310.74	6
310.953	6.15
311.165	6.45
311.377	6.09
311.589	6.04
311.801	5.92
312.013	5.83
312.225	6.17
312.437	6.63
312.649	6.8
312.862	6.54
313.074	6.97
313.286	7.03
313.498	6.83
313.71	6.88
313.922	7.27
314.134	7.73
314.346	8.24
314.558	8.05
314.77	7.55
314.982	7.97
315.193	8.73
315.405	8.34
315.617	8.14
315.829	8.37
316.041	9
316.253	8.73
316.465	8.55
316.677	8.32
316.888	8.76
317.1	9.04
317.312	8.94
317.524	8.64
317.736	9.34
317.947	9.81
318.159	10.03
318.371	9.7
318.583	9.87
318.794	10.01
319.006	9.8
319.218	9.66
319.43	9.57
319.641	9.56
319.853	10.12
320.064	10.31
320.276	10.23
320.488	10.33
320.699	10.81
320.911	11.03
321.123	10.95
321.334	10.75
321.546	10.73
321.757	10.61
321.969	10.78
322.18	10.39
322.392	10.56
322.603	11.41
322.815	11.28
323.026	10.85
323.238	10.57
323.449	10.67
323.661	11.09
323.872	11.19
324.083	11.78
324.295	12.04
324.506	12.4
324.718	11.92
324.929	11.89
325.14	12.06
325.352	12.73
325.563	13.2
325.774	13.5
325.986	13.8
326.197	13.96
326.408	14.33
326.62	14.07
326.831	13.59
327.042	14.31
327.253	14.32
327.464	14.75
327.676	14.81
327.887	15.21
328.098	15.56
328.309	16.01
328.52	16.56
328.732	16.54
328.943	17.21
329.154	17.89
329.365	17.98
329.576	18.2
329.787	18.45
329.998	18.85
330.209	18.82
330.42	18.82
330.631	18.7
330.842	18.59
331.053	19.03
331.264	19.39
331.475	19.81
331.686	20.05
331.897	20.11
332.108	20.1
332.319	19.92
332.53	20.6
332.741	20.98
332.952	21.56
333.163	21.47
333.374	20.99
333.585	21.15
333.795	21.24
334.006	21.5
334.217	21.77
334.428	21.96
334.639	21.87
334.849	21.71
335.06	21.73
335.271	21.78
335.482	22.1
335.692	22.43
335.903	22.3
336.114	22.46
336.325	22.36
336.535	22.46
336.746	22.19
336.957	22.48
337.167	22.31
337.378	22.1
337.589	22.2
337.799	22.14
338.01	22.17
338.22	22.18
338.431	21.48
338.642	21.45
338.852	21.21
339.063	21.49
339.273	21.16
339.484	21.04
339.694	21.43
339.905	20.99
340.115	20.92
340.326	21
340.536	20.87
340.746	21.1
340.957	21.15
341.167	21.03
341.378	21.01
341.588	21.06
341.799	21.14
342.009	20.99
342.219	20.91
342.43	20.69
342.64	20.51
342.85	20.5
343.061	20.64
343.271	20.11
343.481	20.02
343.691	19.75
343.902	19.82
344.112	19.81
344.322	19.86
344.532	20.02
344.743	20.27
344.953	20.45
345.163	20.36
345.373	20.53
345.583	20.81
345.793	21.18
346.004	21.28
346.214	21.27
346.424	21.23
346.634	20.96
346.844	20.45
347.054	20.56
347.264	20.48
347.474	20.59
347.684	20.61
347.894	20.48
348.104	20.14
348.314	20.07
348.524	20.58
348.734	20.27
348.944	20.67
349.154	20.75
349.364	20.56
349.574	20.22
349.784	20.34
349.994	19.9
350.204	20.02
350.413	20.1
350.623	20.14
350.833	19.83
351.043	19.98
351.253	19.42
351.463	19.81
351.672	19.96
351.882	20.12
352.092	20.02
352.302	20.14
352.511	20.23
352.721	19.99
352.931	20.16
353.141	19.79
353.35	19.68
353.56	19.81
353.77	19.81
353.979	19.4
354.189	19.35
354.399	19.34
354.608	19.5
354.818	19.15
355.027	19.35
355.237	19.21
355.447	19.2
355.656	19.39
355.866	19.25
356.075	18.88
356.285	19.03
356.494	19
356.704	18.6
356.913	18.25
357.123	18.45
357.332	18.52
357.542	18.48
357.751	18.4
357.96	18.43
358.17	18.71
358.379	18.51
358.589	18.79
358.798	18.94
359.007	19.07
359.217	19.21
359.426	19.07
359.635	18.98
359.845	18.84
360.054	19.07
360.263	18.94
360.472	18.74
360.682	19.33
360.891	19.03
361.1	19.01
361.309	18.89
361.519	18.74
361.728	18.75
361.937	18.77
362.146	18.94
362.355	18.81
362.564	18.91
362.774	18.86
362.983	18.53
363.192	18.45
363.401	18.24
363.61	18.34
363.819	18.56
364.028	18.65
364.237	18.59
364.446	18.46
364.655	18.54
364.864	18.54
365.073	18.99
365.282	19.27
365.491	19.29
365.7	19.49
365.909	19.32
366.118	19.31
366.327	19.08
366.536	19.01
366.745	18.88
366.954	19.23
367.162	19.07
367.371	18.45
367.58	18.48
367.789	18.36
367.998	18.24
368.207	18.45
368.415	18.53
368.624	18.5
368.833	18.7
369.042	18.74
369.25	18.61
369.459	18.95
369.668	19.1
369.877	18.65
370.085	18.87
370.294	18.69
370.503	18.65
370.711	18.6
370.92	18.71
371.129	18.7
371.337	18.6
371.546	18.52
371.754	18.34
371.963	18.35
372.171	18.2
372.38	18.3
372.589	18.39
372.797	18.4
373.006	18.2
373.214	18.1
373.423	17.79
373.631	17.63
373.84	17.28
374.048	17.3
374.256	17.39
374.465	17.74
374.673	17.53
374.882	17.63
375.09	17.7
375.298	17.89
375.507	18.06
375.715	17.97
375.923	18.07
376.132	18.25
376.34	17.98
376.548	17.93
376.757	17.76
376.965	17.8
377.173	17.64
377.381	17.59
377.59	17.18
377.798	17.05
378.006	17.11
378.214	17.27
378.423	17.22
378.631	17.28
378.839	17.03
379.047	17.26
379.255	17.15
379.463	17.14
379.671	17.09
379.879	17.03
380.088	16.82
380.296	16.82
380.504	16.57
380.712	16.5
380.92	16.54
381.128	16.68
381.336	16.43
381.544	16.37
381.752	16.13
381.96	16.01
382.168	16.32
382.376	16.74
382.584	16.87
382.791	17.1
382.999	17.16
383.207	16.95
383.415	17.05
383.623	17
383.831	17.05
384.039	17.27
384.247	17.35
384.454	17.23
384.662	17.16
384.87	17.08
385.078	16.76
385.285	16.6
385.493	16.59
385.701	16.39
385.909	16.34
386.116	16.31
386.324	16.42
386.532	16.41
386.739	16.59
386.947	16.57
387.155	16.51
387.362	16.73
387.57	16.8
387.778	17.05
387.985	17.29
388.193	17.56
388.4	17.76
388.608	17.69
388.816	17.72
389.023	17.65
389.231	17.7
389.438	17.75
389.646	17.73
389.853	17.8
390.061	17.8
390.268	17.55
390.475	17.2
390.683	17.12
390.89	17.05
391.098	16.98
391.305	16.88
391.512	16.7
391.72	16.71
391.927	16.58
392.135	16.5
392.342	16.24
392.549	16.26
392.756	16.31
392.964	16.14
393.171	16.25
393.378	15.98
393.586	16.01
393.793	16.03
394	16.03
394.207	16.05
394.414	15.95
394.622	16.06
394.829	16.03
395.036	15.9
395.243	15.92
395.45	15.67
395.657	15.95
395.864	16.02
396.072	15.77
396.279	15.58
396.486	15.55
396.693	15.49
396.9	15.35
397.107	15.19
397.314	15.43
397.521	15.22
397.728	15.41
397.935	15.38
398.142	15.22
398.349	15.44
398.556	15.57
398.763	15.5
398.97	15.55
399.177	15.63
399.383	15.8
399.59	15.7
399.797	15.86
400.004	15.63
400.211	15.56
400.418	15.79
400.625	15.68
400.831	15.61
401.038	15.72
401.245	15.98
401.452	16.1
401.658	16.1
401.865	16.16
402.072	16.27
402.279	16.43
402.485	16.56
402.692	16.35
402.899	16.41
403.105	16.43
403.312	16.43
403.519	16.14
403.725	16.03
403.932	16.04
404.138	16.19
404.345	16.23
404.552	16.32
404.758	16.25
404.965	16.3
405.171	16.4
405.378	16.33
405.584	16.26
405.791	16.39
405.997	16.41
406.204	16.49
406.41	16.36
406.617	16.34
406.823	16.2
407.029	16.17
407.236	16.23
407.442	16.21
407.649	16.33
407.855	16.3
408.061	16.42
408.268	16.34
408.474	16.29
408.68	16.36
408.887	16.28
409.093	16.34
409.299	16.4
409.505	16
409.712	15.94
409.918	15.88
410.124	16.09
410.33	16.04
410.537	16.22
410.743	16.09
410.949	16.04
411.155	16.19
411.361	16.08
411.567	16.12
411.773	16.35
411.98	16.37
412.186	16.36
412.392	16.14
412.598	15.95
412.804	15.79
413.01	15.89
413.216	15.74
413.422	15.75
413.628	15.81
413.834	15.87
414.04	15.78
414.246	15.83
414.452	15.99
414.658	16.1
414.864	16.24
415.07	16.38
415.275	16.35
415.481	16.37
415.687	16.3
415.893	16.37
416.099	16.28
416.305	16.58
416.511	16.59
416.716	16.44
416.922	16.35
417.128	16.32
417.334	16.28
417.539	16.22
417.745	16.22
417.951	16.19
418.157	16.13
418.362	16.06
418.568	15.93
418.774	15.83
418.979	15.84
419.185	15.9
419.391	15.84
419.596	15.77
419.802	15.87
420.008	15.89
420.213	15.89
420.419	15.91
420.624	15.84
420.83	15.92
421.035	15.93
421.241	15.97
421.446	15.86
421.652	15.95
421.857	15.97
422.063	15.88
422.268	15.9
422.474	15.81
422.679	15.76
422.885	15.94
423.09	15.86
423.295	15.78
423.501	15.81
423.706	15.91
423.911	15.92
424.117	15.85
424.322	16
424.527	15.94
424.733	15.99
424.938	16.03
425.143	15.91
425.349	15.92
425.554	15.98
425.759	15.92
425.964	15.96
426.169	16
426.375	16.01
426.58	15.9
426.785	16.1
426.99	16.06
427.195	16.04
427.4	16.21
427.605	16.23
427.811	16.36
428.016	16.5
428.221	16.36
428.426	16.25
428.631	16.32
428.836	16.3
429.041	16.24
429.246	16.46
429.451	16.68
429.656	16.61
429.861	16.65
430.066	16.64
430.271	16.51
430.476	16.54
430.681	16.48
430.886	16.73
431.09	16.8
431.295	16.77
431.5	16.72
431.705	16.49
431.91	16.46
432.115	16.49
432.32	16.42
432.524	16.39
432.729	16.49
432.934	16.58
433.139	16.44
433.343	16.41
433.548	16.44
433.753	16.42
433.958	16.55
434.162	16.58
434.367	16.58
434.572	16.65
434.776	16.74
434.981	16.72
435.186	16.71
435.39	16.73
435.595	16.75
435.799	16.77
436.004	16.86
436.209	16.84
436.413	16.85
436.618	16.8
436.822	16.71
437.027	16.78
437.231	16.76
437.436	16.78
437.64	16.77
437.845	16.72
438.049	16.64
438.253	16.55
438.458	16.54
438.662	16.55
438.867	16.58
439.071	16.7
439.275	16.59
439.48	16.63
439.684	16.64
439.888	16.63
440.093	16.65
440.297	16.73
440.501	16.75
440.706	16.74
440.91	16.69
441.114	16.67
441.318	16.55
441.523	16.48
441.727	16.56
441.931	16.49
442.135	16.46
442.339	16.51
442.543	16.4
442.748	16.42
442.952	16.33
443.156	16.49
443.36	16.52
443.564	16.55
443.768	16.67
443.972	16.52
444.176	16.49
444.38	16.53
444.584	16.46
444.788	16.52
444.992	16.54
445.196	16.58
445.4	16.48
445.604	16.47
445.808	16.55
446.012	16.57
446.216	16.63
446.42	16.69
446.624	16.72
446.828	16.77
447.032	16.66
447.235	16.6
447.439	16.66
447.643	16.75
447.847	16.81
448.051	16.74
448.254	16.67
448.458	16.57
448.662	16.58
448.866	16.55
449.069	16.54
449.273	16.67
449.477	16.69
449.681	16.75
449.884	16.63
450.088	16.51
450.292	16.49
450.495	16.6
450.699	16.63
450.902	16.57
451.106	16.46
451.31	16.46
451.513	16.46
451.717	16.54
451.92	16.42
452.124	16.49
452.327	16.45
452.531	16.52
452.734	16.36
452.938	16.35
453.141	16.44
453.345	16.56
453.548	16.56
453.752	16.48
453.955	16.42
454.158	16.46
454.362	16.3
454.565	16.4
454.769	16.4
454.972	16.52
455.175	16.69
455.379	16.63
455.582	16.52
455.785	16.6
455.988	16.73
456.192	16.75
456.395	16.68
456.598	16.82
456.801	16.78
457.005	16.74
457.208	16.8
457.411	16.73
457.614	16.69
457.817	16.78
458.021	16.74
458.224	16.66
458.427	16.62
458.63	16.66
458.833	16.73
459.036	16.78
459.239	16.84
459.442	16.85
459.645	16.88
459.848	16.87
460.051	16.82
460.254	16.72
460.457	16.71
460.66	16.68
460.863	16.68
461.066	16.53
461.269	16.43
461.472	16.33
461.675	16.26
461.878	16.1
462.081	16
462.284	16.05
462.486	16.2
462.689	16.18
462.892	16.33
463.095	16.31
463.298	16.42
463.5	16.46
463.703	16.47
463.906	16.47
464.109	16.58
464.311	16.69
464.514	16.65
464.717	16.67
464.92	16.72
465.122	16.64
465.325	16.64
465.528	16.66
465.73	16.8
465.933	16.8
466.135	16.78
466.338	16.8
466.541	16.9
466.743	17
466.946	16.95
467.148	16.89
467.351	16.76
467.553	16.77
467.756	16.8
467.958	16.71
468.161	16.78
468.363	16.85
468.566	16.78
468.768	16.75
468.971	16.59
469.173	16.68
469.375	16.76
469.578	16.77
469.78	16.82
469.983	16.67
470.185	16.61
470.387	16.66
470.59	16.6
470.792	16.77
470.994	16.86
471.196	16.98
471.399	16.87
471.601	16.87
471.803	17.02
472.005	17.07
472.208	17.18
472.41	17.31
472.612	17.35
472.814	17.45
473.016	17.38
473.218	17.25
473.421	17.2
473.623	17.22
473.825	17.16
474.027	17.17
474.229	17.24
474.431	17.23
474.633	17.28
474.835	17.22
475.037	17.14
475.239	17.28
475.441	17.39
475.643	17.33
475.845	17.3
476.047	17.41
476.249	17.43
476.451	17.23
476.653	17.17
476.855	16.95
477.057	16.93
477.258	16.96
477.46	16.92
477.662	16.93
477.864	16.94
478.066	16.92
478.268	16.82
478.469	16.75
478.671	16.72
478.873	16.73
479.075	16.77
479.276	16.75
479.478	16.71
479.68	16.65
479.882	16.51
480.083	16.54
480.285	16.61
480.487	16.57
480.688	16.61
480.89	16.77
481.091	16.83
481.293	16.83
481.495	16.86
481.696	16.82
481.898	16.79
482.099	16.88
482.301	16.87
482.502	16.79
482.704	16.81
482.905	16.77
483.107	16.7
483.308	16.71
483.51	16.75
483.711	16.73
483.913	16.72
484.114	16.72
484.315	16.7
484.517	16.68
484.718	16.7
484.92	16.74
485.121	16.74
485.322	16.77
485.524	16.73
485.725	16.67
485.926	16.66
486.127	16.7
486.329	16.66
486.53	16.65
486.731	16.68
486.932	16.68
487.134	16.66
487.335	16.66
487.536	16.69
487.737	16.68
487.938	16.72
488.139	16.74
488.341	16.71
488.542	16.75
488.743	16.74
488.944	16.75
489.145	16.75
489.346	16.8
489.547	16.82
489.748	16.82
489.949	16.87
490.15	16.84
490.351	16.82
490.552	16.82
490.753	16.84
490.954	16.86
491.155	16.86
491.356	16.84
491.557	16.76
491.758	16.77
491.959	16.74
492.159	16.73
492.36	16.75
492.561	16.79
492.762	16.8
492.963	16.76
493.164	16.78
493.364	16.83
493.565	16.85
493.766	16.82
493.967	16.89
494.167	16.9
494.368	16.96
494.569	16.98
494.769	16.95
494.97	17
495.171	17.08
495.371	17.07
495.572	17.05
495.773	17.14
495.973	17.31
496.174	17.17
496.375	17.2
496.575	17.22
496.776	17.21
496.976	17.18
497.177	17.25
497.377	17.28
497.578	17.21
497.778	17.19
497.979	17.27
498.179	17.28
498.38	17.41
498.58	17.41
498.78	17.38
498.981	17.4
499.181	17.44
499.382	17.42
499.582	17.48
499.782	17.51
499.983	17.53
500.183	17.4
500.383	17.38
500.584	17.36
500.784	17.42
500.984	17.43
501.184	17.48
501.385	17.5
501.585	17.44
501.785	17.39
501.985	17.46
502.185	17.47
502.386	17.52
502.586	17.47
502.786	17.41
502.986	17.34
503.186	17.42
503.386	17.44
503.586	17.54
503.786	17.55
503.987	17.57
504.187	17.65
504.387	17.63
504.587	17.65
504.787	17.81
504.987	17.91
505.187	18
505.387	17.95
505.587	17.94
505.786	17.96
505.986	18.08
506.186	18.18
506.386	18.27
506.586	18.36
506.786	18.31
506.986	18.21
507.186	18.22
507.386	18.2
507.585	18.16
507.785	18.29
507.985	18.21
508.185	18.22
508.384	18.2
508.584	18.1
508.784	18.11
508.984	18.16
509.183	18.14
509.383	18.2
509.583	18.22
509.782	18.35
509.982	18.29
510.182	18.41
510.381	18.35
510.581	18.31
510.781	18.37
510.98	18.43
511.18	18.5
511.379	18.57
511.579	18.59
511.778	18.66
511.978	18.66
512.177	18.76
512.377	18.73
512.576	18.79
512.776	18.83
512.975	18.93
513.175	18.91
513.374	18.91
513.573	18.95
513.773	18.92
513.972	18.93
514.172	19
514.371	18.91
514.57	18.95
514.77	19.09
514.969	19.2
515.168	19.04
515.367	19.04
515.567	19.21
515.766	19.29
515.965	19.35
516.164	19.36
516.364	19.31
516.563	19.4
516.762	19.41
516.961	19.38
517.16	19.39
517.359	19.46
517.559	19.6
517.758	19.46
517.957	19.48
518.156	19.46
518.355	19.57
518.554	19.65
518.753	19.67
518.952	19.71
519.151	19.72
519.35	19.72
519.549	19.69
519.748	19.75
519.947	19.77
520.146	19.75
520.345	19.82
520.544	19.83
520.743	19.86
520.942	19.92
521.141	19.99
521.339	20.12
521.538	20.22
521.737	20.36
521.936	20.28
522.135	20.33
522.333	20.36
522.532	20.43
522.731	20.45
522.93	20.61
523.129	20.64
523.327	20.65
523.526	20.62
523.725	20.71
523.923	20.7
524.122	20.73
524.321	20.79
524.519	20.83
524.718	20.88
524.917	20.92
525.115	20.94
525.314	21.02
525.512	21.04
525.711	21.05
525.909	21.04
526.108	21.17
526.306	21.27
526.505	21.36
526.703	21.42
526.902	21.45
527.1	21.44
527.299	21.44
527.497	21.43
527.696	21.5
527.894	21.56
528.092	21.55
528.291	21.53
528.489	21.51
528.688	21.56
528.886	21.61
529.084	21.62
529.283	21.69
529.481	21.66
529.679	21.65
529.877	21.65
530.076	21.65
530.274	21.71
530.472	21.8
530.67	21.79
530.869	21.79
531.067	21.8
531.265	21.87
531.463	21.85
531.661	21.93
531.859	21.99
532.057	22.03
532.255	22.12
532.454	22.21
532.652	22.21
532.85	22.34
533.048	22.4
533.246	22.41
533.444	22.46
533.642	22.53
533.84	22.58
534.038	22.66
534.236	22.68
534.434	22.7
534.632	22.67
534.83	22.68
535.027	22.72
535.225	22.71
535.423	22.74
535.621	22.72
535.819	22.74
536.017	22.79
536.215	22.83
536.412	22.91
536.61	22.91
536.808	22.93
537.006	22.96
537.203	22.87
537.401	22.9
537.599	22.94
537.797	23.06
537.994	23.08
538.192	23.14
538.39	23.17
538.587	23.23
538.785	23.33
538.983	23.38
539.18	23.49
539.378	23.63
539.575	23.74
539.773	23.84
539.97	23.79
540.168	23.85
540.366	23.9
540.563	23.98
540.761	24
540.958	24.01
541.155	24.04
541.353	24.08
541.55	24.1
541.748	24.09
541.945	24.07
542.143	24.13
542.34	24.21
542.537	24.19
542.735	24.22
542.932	24.22
543.129	24.3
543.327	24.41
543.524	24.48
543.721	24.58
543.919	24.74
544.116	24.85
544.313	25.05
544.51	25.09
544.708	25.2
544.905	25.33
545.102	25.59
545.299	25.69
545.496	25.7
545.693	25.74
545.891	25.69
546.088	25.65
546.285	25.59
546.482	25.51
546.679	25.54
546.876	25.55
547.073	25.48
547.27	25.21
547.467	25.16
547.664	25.14
547.861	25.17
548.058	25.16
548.255	25.16
548.452	25.29
548.649	25.35
548.846	25.36
549.043	25.38
549.24	25.35
549.437	25.44
549.633	25.41
549.83	25.48
550.027	25.44
550.224	25.5
550.421	25.49
550.618	25.36
550.814	25.21
551.011	25.08
551.208	24.99
551.405	25.01
551.601	25.02
551.798	24.95
551.995	24.85
552.191	24.88
552.388	24.78
552.585	24.74
552.781	24.76
552.978	24.8
553.175	24.8
553.371	24.84
553.568	24.83
553.764	24.85
553.961	24.87
554.157	24.68
554.354	24.61
554.55	24.62
554.747	24.65
554.943	24.6
555.14	24.7
555.336	24.7
555.533	24.62
555.729	24.62
555.926	24.61
556.122	24.53
556.318	24.83
556.515	24.84
556.711	24.89
556.907	24.85
557.104	24.81
557.3	24.7
557.496	24.67
557.693	24.71
557.889	24.67
558.085	24.58
558.281	24.81
558.478	24.65
558.674	24.58
558.87	24.68
559.066	24.72
559.262	24.79
559.459	24.73
559.655	24.82
559.851	24.87
560.047	24.9
560.243	24.98
560.439	24.68
560.635	24.7
560.831	24.86
561.027	24.76
561.223	24.65
561.419	24.67
561.615	24.64
561.811	24.6
562.007	24.57
562.203	24.58
562.399	24.47
562.595	24.6
562.791	24.67
562.987	24.57
563.183	24.53
563.379	24.65
563.575	24.7
563.771	24.82
563.966	24.85
564.162	24.98
564.358	25.01
564.554	25.04
564.75	25.03
564.945	24.91
565.141	24.92
565.337	25.05
565.533	24.98
565.728	24.89
565.924	24.79
566.12	24.74
566.315	24.68
566.511	24.67
566.707	24.72
566.902	24.74
567.098	24.79
567.293	24.74
567.489	24.7
567.684	24.79
567.88	24.87
568.076	24.85
568.271	24.79
568.467	24.76
568.662	24.78
568.858	24.8
569.053	24.8
569.248	24.87
569.444	24.96
569.639	24.93
569.835	24.98
570.03	24.94
570.225	25
570.421	25.04
570.616	25.07
570.812	25
571.007	25.06
571.202	25.09
571.397	25.09
571.593	25.07
571.788	25.08
571.983	24.96
572.178	24.99
572.374	24.97
572.569	25.11
572.764	25.15
572.959	25.12
573.154	25.12
573.35	25
573.545	25.03
573.74	24.98
573.935	24.9
574.13	25.08
574.325	25.07
574.52	25.14
574.715	25.2
574.91	25.09
575.105	25.16
575.3	25.2
575.495	25.47
575.69	25.41
575.885	25.41
576.08	25.52
576.275	25.46
576.47	25.51
576.665	25.63
576.86	25.73
577.055	25.79
577.25	25.75
577.444	25.79
577.639	25.81
577.834	25.95
578.029	26.11
578.224	26.07
578.418	26
578.613	26.09
578.808	26
579.003	25.86
579.197	25.88
579.392	25.95
579.587	25.95
579.781	25.73
579.976	25.69
580.171	25.61
580.365	25.75
580.56	26.03
580.755	25.92
580.949	25.92
581.144	25.98
581.338	26.08
581.533	26.19
581.727	26
581.922	26.15
582.116	26.23
582.311	26.5
582.505	26.56
582.7	26.39
582.894	26.55
583.089	26.64
583.283	26.62
583.478	26.55
583.672	26.57
583.866	26.91
584.061	26.86
584.255	26.86
584.449	26.76
584.644	26.82
584.838	26.88
585.032	26.81
585.226	26.82
585.421	26.8
585.615	27.03
585.809	27.09
586.003	26.97
586.198	27.04
586.392	27.1
586.586	27.06
586.78	27.05
586.974	27.09
587.168	27.16
587.363	27.03
587.557	27.12
587.751	27.04
587.945	27
588.139	27.08
588.333	27.05
588.527	26.96
588.721	26.89
588.915	26.78
589.109	26.84
589.303	26.8
589.497	26.8
589.691	26.7
589.885	26.64
590.079	26.47
590.273	26.24
590.466	26.36
590.66	26.42
590.854	26.56
591.048	26.76
591.242	26.62
591.436	26.76
591.629	27.03
591.823	27.17
592.017	27.23
592.211	27.45
592.404	27.63
592.598	27.55
592.792	27.64
592.986	27.61
593.179	27.54
593.373	27.48
593.567	27.31
593.76	27.18
593.954	26.9
594.147	26.9
594.341	26.82
594.535	26.79
594.728	26.8
594.922	26.59
595.115	26.33
595.309	26.33
595.502	26.5
595.696	26.66
595.889	26.71
596.083	26.77
596.276	26.77
596.47	26.68
596.663	26.71
596.856	26.75
597.05	26.77
597.243	27.07
597.437	26.96
597.63	26.92
597.823	26.77
598.017	26.63
598.21	26.67
598.403	26.59
598.596	26.63
598.79	26.69
598.983	26.76
599.176	26.91
599.369	26.82
599.563	26.98
599.756	27.1
599.949	27.24
600.142	27.48
600.335	27.53
600.528	27.61
600.722	27.82
600.915	27.66
601.108	27.5
601.301	27.4
601.494	27.19
601.687	27.03
601.88	26.99
602.073	26.88
602.266	26.85
602.459	26.87
602.652	26.94
602.845	26.9
603.038	27
603.231	26.94
603.424	27.14
603.617	27.25
603.809	27.31
604.002	27.25
604.195	27.25
604.388	27.17
604.581	27.15
604.774	27.13
604.966	27.08
605.159	26.93
605.352	26.92
605.545	26.77
605.737	26.73
605.93	26.8
606.123	26.81
606.316	27.03
606.508	27.19
606.701	27.32
606.894	27.35
607.086	27.4
607.279	27.62
607.471	27.82
607.664	27.98
607.857	28.32
608.049	28.54
608.242	29.02
608.434	29.58
608.627	30.07
608.819	30.64
609.012	31.44
609.204	32.24
609.397	33.14
609.589	34.03
609.782	34.82
609.974	35.82
610.166	36.89
610.359	37.77
610.551	38.45
610.743	39.17
610.936	39.67
611.128	40.14
611.32	40.49
611.513	40.66
611.705	40.78
611.897	40.94
612.09	40.57
612.282	40.17
612.474	39.58
612.666	38.92
612.858	38.23
613.051	37.9
613.243	37.4
613.435	36.98
613.627	36.58
613.819	36.14
614.011	35.88
614.203	35.47
614.395	34.92
614.588	34.69
614.78	34.48
614.972	34.26
615.164	33.77
615.356	33.29
615.548	32.86
615.74	32.48
615.932	32.28
616.124	31.68
616.315	31.33
616.507	31.12
616.699	30.63
616.891	30.34
617.083	30.05
617.275	29.88
617.467	29.57
617.659	29.48
617.85	29.38
618.042	29.22
618.234	29.3
618.426	29.15
618.618	29.12
618.809	29.24
619.001	29.01
619.193	29.27
619.384	29.23
619.576	29.27
619.768	29.28
619.959	29.43
620.151	29.33
620.343	29.28
620.534	29.39
620.726	29.54
620.917	29.43
621.109	29.82
621.301	29.47
621.492	29.55
621.684	29.79
621.875	29.81
622.067	29.73
622.258	29.79
622.45	29.96
622.641	30.13
622.832	30.12
623.024	30.3
623.215	30.04
623.407	30.19
623.598	30.06
623.789	30.03
623.981	29.94
624.172	30.03
624.363	30.15
624.555	30.11
624.746	29.94
624.937	29.77
625.129	29.58
625.32	29.55
625.511	29.57
625.702	29.66
625.893	29.68
626.085	29.76
626.276	29.41
626.467	29.22
626.658	29.06
626.849	29.14
627.04	29.07
627.231	29.38
627.422	29.56
627.614	29.58
627.805	29.85
627.996	29.73
628.187	29.83
628.378	30.11
628.569	30.3
628.76	30.66
628.951	30.72
629.142	30.96
629.332	30.88
629.523	30.98
629.714	31.14
629.905	30.99
630.096	31.32
630.287	31.28
630.478	31.4
630.669	31.51
630.859	31.33
631.05	31.41
631.241	31.42
631.432	31.38
631.623	31.22
631.813	30.95
632.004	30.8
632.195	30.64
632.385	30.55
632.576	30.36
632.767	30.17
632.957	30
633.148	29.9
633.339	29.82
633.529	29.65
633.72	29.65
633.91	29.64
634.101	29.51
634.292	29.39
634.482	29.23
634.673	29.08
634.863	29.15
635.054	29.13
635.244	28.98
635.435	28.96
635.625	29
635.815	29.17
636.006	29.26
636.196	29.5
636.387	29.43
636.577	29.57
636.767	29.85
636.958	29.69
637.148	29.71
637.338	29.77
637.529	29.7
637.719	29.81
637.909	29.37
638.099	29.31
638.29	29.18
638.48	29.06
638.67	28.88
638.86	28.54
639.05	28.47
639.241	28.4
639.431	28.36
639.621	28.27
639.811	27.96
640.001	27.97
640.191	27.91
640.381	27.92
640.571	28.18
640.761	28.28
640.951	28.46
641.141	28.4
641.331	28.33
641.521	28.51
641.711	28.68
641.901	28.81
642.091	29.21
642.281	29.51
642.471	29.49
642.661	29.53
642.851	29.6
643.041	29.75
643.231	29.67
643.42	29.88
643.61	29.87
643.8	29.97
643.99	30.15
644.18	29.84
644.369	29.81
644.559	29.72
644.749	29.5
644.939	29.43
645.128	29.5
645.318	29.83
645.508	29.94
645.697	29.86
645.887	29.66
646.076	29.68
646.266	29.61
646.456	29.35
646.645	29.61
646.835	29.69
647.024	29.6
647.214	29.27
647.403	28.94
647.593	28.9
647.782	29.06
647.972	29.14
648.161	29.13
648.351	29.26
648.54	29.52
648.73	29.56
648.919	29.59
649.108	29.8
649.298	30.02
649.487	30.33
649.677	30.19
649.866	30.04
650.055	29.96
650.244	30.1
650.434	30.04
650.623	29.95
650.812	29.92
651.002	30.1
651.191	29.9
651.38	29.77
651.569	29.7
651.758	29.89
651.947	29.95
652.137	29.99
652.326	29.85
652.515	29.97
652.704	30.2
652.893	30.07
653.082	29.95
653.271	30.09
653.46	30.04
653.649	30.01
653.838	29.89
654.027	29.66
654.216	29.71
654.405	29.77
654.594	29.81
654.783	29.42
654.972	29.55
655.161	29.45
655.35	29.59
655.539	30.02
655.728	30.17
655.916	30.07
656.105	30.15
656.294	30.02
656.483	30
656.672	29.88
656.86	30.09
657.049	30.19
657.238	30.27
657.427	30.18
657.615	29.94
657.804	29.99
657.993	30.05
658.181	29.9
658.37	29.88
658.559	29.63
658.747	29.56
658.936	29.51
659.125	28.94
659.313	28.8
659.502	28.72
659.69	28.55
659.879	28.42
660.067	28.52
660.256	28.7
660.444	29.02
660.633	29.17
660.821	29.24
661.01	29.36
661.198	29.77
661.387	30.04
661.575	30.26
661.763	30.4
661.952	30.49
662.14	30.67
662.328	30.62
662.517	30.42
662.705	30.48
662.893	30.58
663.082	30.52
663.27	30.48
663.458	30.35
663.646	30.47
663.834	30.58
664.023	30.71
664.211	30.33
664.399	30.29
664.587	30.39
664.775	30.34
664.963	30.35
665.152	30.52
665.34	30.74
665.528	30.82
665.716	30.61
665.904	30.38
666.092	30.34
666.28	30.48
666.468	30.41
666.656	30.45
666.844	30.71
667.032	30.85
667.22	30.55
667.408	30.61
667.596	30.63
667.784	30.49
667.971	30.96
668.159	30.96
668.347	31
668.535	31.56
668.723	31.15
668.911	30.65
669.098	30.55
669.286	30.64
669.474	30.34
669.662	30.38
669.849	30.56
670.037	30.29
670.225	30.16
670.413	30.19
670.6	30
670.788	30.43
670.976	30.84
671.163	30.64
671.351	30.6
671.538	30.89
671.726	31.09
671.913	31.05
672.101	31.27
672.289	31.17
672.476	31.08
672.664	30.74
672.851	30.66
673.039	30.68
673.226	30.89
673.413	30.74
673.601	30.65
673.788	30.2
673.976	30.2
674.163	30.16
674.35	30.06
674.538	30.26
674.725	30.4
674.912	30.57
675.1	30.64
675.287	30.97
675.474	31.1
675.662	31.23
675.849	31.35
676.036	31.35
676.223	31.34
676.411	31.75
676.598	31.51
676.785	31.35
676.972	31.33
677.159	30.99
677.346	30.38
677.533	30.62
677.721	30.38
677.908	30.17
678.095	30.24
678.282	30.07
678.469	29.89
678.656	29.69
678.843	29.73
679.03	29.52
679.217	29.38
679.404	29.82
679.591	29.48
679.778	29.6
679.964	29.99
680.151	29.92
680.338	29.85
680.525	29.88
680.712	30.25
680.899	30.34
681.086	30.45
681.272	30.78
681.459	30.61
681.646	30.85
681.833	30.97
682.02	30.74
682.206	30.67
682.393	30.89
682.58	30.73
682.766	30.67
682.953	30.91
683.14	30.83
683.326	30.48
683.513	30.43
683.7	30.19
683.886	30.37
684.073	30.65
684.259	31
684.446	30.96
684.632	31.45
684.819	31.53
685.005	31.31
685.192	31.43
685.378	31.77
685.565	31.92
685.751	32.14
685.938	31.83
686.124	31.87
686.31	31.93
686.497	31.95
686.683	31.81
686.87	31.87
687.056	32.04
687.242	31.78
687.429	31.76
687.615	31.99
687.801	32.04
687.987	32.16
688.174	32.12
688.36	31.62
688.546	31.78
688.732	31.73
688.918	31.72
689.105	31.5
689.291	31.83
689.477	31.89
689.663	31.84
689.849	31.78
690.035	31.72
690.221	31.79
690.407	32.44
690.593	32.25
690.779	32.13
690.965	32.13
691.151	32.43
691.337	32.48
691.523	32.5
691.709	32.41
691.895	32.46
692.081	32.58
692.267	32.72
692.453	32.22
692.639	32.26
692.825	32.19
693.011	32.16
693.196	31.86
693.382	31.78
693.568	31.64
693.754	31.49
693.94	31.52
694.125	31.45
694.311	31.25
694.497	31.28
694.682	31.51
694.868	31.51
695.054	31.68
695.239	32.02
695.425	31.77
695.611	31.97
695.796	31.86
695.982	31.81
696.168	31.44
696.353	31.04
696.539	31.33
696.724	30.89
696.91	30.98
697.095	30.97
697.281	30.82
697.466	30.81
697.652	30.73
697.837	30.66
698.023	30.76
698.208	30.99
698.393	31.19
698.579	30.88
698.764	30.82
698.949	30.78
699.135	30.57
699.32	30.39
699.505	30.43
699.691	30.44
699.876	30.58
700.061	30.42
700.246	30.29
700.432	30.32
700.617	30.28
700.802	30.7
700.987	31.06
701.172	31.08
701.358	31.35
701.543	31.61
701.728	31.84
701.913	32.2
702.098	32.24
702.283	32.51
702.468	32.35
702.653	32.42
702.838	32.53
703.023	32.56
703.208	32.42
703.393	32.31
703.578	32.44
703.763	32.89
703.948	32.92
704.133	33.61
704.318	33.5
704.503	34.21
704.688	34.76
704.873	34.76
705.057	35.24
705.242	35.76
705.427	36.36
705.612	36.59
705.797	36.74
705.981	36.77
706.166	36.42
706.351	36.66
706.536	36.63
706.72	36.71
706.905	36.41
707.09	36
707.274	36.21
707.459	36.01
707.644	35.83
707.828	35.96
708.013	36
708.197	36.13
708.382	36.17
708.567	35.92
708.751	36.04
708.936	36.15
709.12	35.98
709.305	35.44
709.489	35.09
709.673	34.96
709.858	34.31
710.042	34.25
710.227	34.13
710.411	34.51
710.596	34.51
710.78	34
710.964	34.11
711.149	33.99
711.333	34.57
711.517	34.98
711.702	34.65
711.886	35.04
712.07	34.59
712.254	34.76
712.438	34.45
712.623	34.47
712.807	34.21
712.991	33.98
713.175	33.78
713.359	33.27
713.544	33.36
713.728	33.55
713.912	33.28
714.096	33.35
714.28	33.07
714.464	32.84
714.648	32.26
714.832	32.62
715.016	32.74
715.2	33.18
715.384	33.25
715.568	32.92
715.752	32.97
715.936	32.74
716.12	32.65
716.304	32.75
716.488	32.77
716.671	32.94
716.855	33
717.039	32.85
717.223	32.74
717.407	32.65
717.59	32.58
717.774	32.4
717.958	32.26
718.142	32.34
718.325	32.16
718.509	32.28
718.693	32.46
718.877	32.18
719.06	32.08
719.244	32.09
719.428	32.12
719.611	31.87
719.795	32.16
719.978	32.17
720.162	32.3
720.345	31.86
720.529	31.98
720.713	32.07
720.896	32.8
721.08	33.09
721.263	33.02
721.446	33.28
721.63	34.33
721.813	34.4
721.997	34.07
722.18	34.19
722.364	34.45
722.547	34.14
722.73	33.76
722.914	33.32
723.097	33.69
723.28	34.08
723.464	33.57
723.647	32.45
723.83	32.31
724.013	32.73
724.197	32.44
724.38	32.32
724.563	32.3
724.746	32.96
724.929	33.01
725.112	32.24
725.296	32.07
725.479	31.82
725.662	32.16
725.845	31.8
726.028	31.71
726.211	32.03
726.394	32.38
726.577	32.46
726.76	32.26
726.943	31.85
727.126	32.35
727.309	31.64
727.492	31.8
727.675	31.94
727.858	32.38
728.041	32.44
728.224	32.15
728.407	31.92
728.589	31.54
728.772	31.71
728.955	31.64
729.138	31.24
729.321	31.7
729.503	31.89
729.686	31.7
729.869	31.66
730.052	31.69
730.234	31.93
730.417	32.34
730.6	32.04
730.782	31.77
730.965	31.91
731.148	32.32
731.33	31.96
731.513	31.76
731.695	31.93
731.878	32.09
732.061	32.57
732.243	32.69
732.426	32.42
732.608	32.9
732.791	33.07
732.973	33.42
733.156	32.96
733.338	33.11
733.52	33.87
733.703	33.67
733.885	33.34
734.068	32.93
734.25	32.86
734.432	32.68
734.615	32.83
734.797	32.93
734.979	32.67
735.162	32.97
735.344	33.02
735.526	32.4
735.708	32.77
735.891	33.46
736.073	33.69
736.255	33.76
736.437	34.08
736.619	34.04
736.802	33.88
736.984	33.54
737.166	33.76
737.348	33.96
737.53	33.98
737.712	33.87
737.894	33.27
738.076	33.08
738.258	32.55
738.44	32.31
738.622	32.24
738.804	32.03
738.986	32.62
739.168	32.26
739.35	32.66
739.532	33.38
739.714	33.61
739.896	34.12
740.078	34.12
740.259	34.88
740.441	35.6
740.623	35.39
740.805	35.6
740.987	35.49
741.168	35.8
741.35	35.69
741.532	35.04
741.714	35.24
741.895	34.73
742.077	34.95
742.259	35.03
742.44	33.92
742.622	34.49
742.804	34.92
742.985	34.94
743.167	34.79
743.348	33.85
743.53	34.19
743.711	34.13
743.893	33.93
744.075	33.98
744.256	33.03
744.438	33.74
744.619	34.03
744.8	33.65
744.982	33.95
745.163	34.08
745.345	34.87
745.526	35.02
745.707	34.51
745.889	34.89
746.07	34.8
746.252	35.29
746.433	35.41
746.614	35.28
746.795	35.17
746.977	34.75
747.158	34.62
747.339	34.62
747.52	34.2
747.702	34.05
747.883	34.16
748.064	33.54
748.245	33.36
748.426	33.11
748.607	32.96
748.788	32.53
748.97	32.55
749.151	32.16
749.332	31.78
749.513	31.78
749.694	32.48
749.875	32.41
750.056	33.07
750.237	33.33
750.418	33.2
750.599	33.49
750.78	33.85
750.96	34.06
751.141	34.66
751.322	34.65
751.503	34.93
751.684	34.22
751.865	34.29
752.046	34.94
752.226	35.29
752.407	35.33
752.588	34.53
752.769	34.66
752.949	34.97
753.13	34.8
753.311	35.13
753.492	35
753.672	34.79
753.853	35.04
754.034	34.54
754.214	34.3
754.395	34.14
754.575	34.79
754.756	34.48
754.937	34.02
755.117	34.31
755.298	34.04
755.478	33.91
755.659	34.01
755.839	33.39
756.02	33.11
756.2	32.56
756.381	32.68
756.561	31.77
756.741	32.48
756.922	31.87
757.102	32.21
757.283	32.5
757.463	33.03
757.643	32.91
757.823	32.52
758.004	32.13
758.184	31.87
758.364	32.05
758.545	32.38
758.725	32.59
758.905	33.13
759.085	32.73
759.265	31.96
759.446	31.73
759.626	31.94
759.806	32.67
759.986	32.59
760.166	33.05
760.346	32.7
760.526	32.96
760.706	31.5
760.886	31.02
761.066	30.57
761.246	31.15
761.426	31.17
761.606	31.16
761.786	30.96
761.966	31.16
762.146	31.18
762.326	30.92
762.506	30.44
762.686	30.82
762.866	30.97
763.046	30.92
763.225	30.55
763.405	30.47
763.585	30.48
763.765	30.49
763.945	30.1
764.124	30.05
764.304	30.68
764.484	30.89
764.664	30.82
764.843	30.84
765.023	31.13
765.203	30.85
765.382	30.43
765.562	30.47
765.741	30.4
765.921	31.13
766.101	31.14
766.28	30.68
766.46	30.78
766.639	30.98
766.819	30.84
766.998	30.68
767.178	31.57
767.357	32.22
767.537	32.11
767.716	32.69
767.896	33.49
768.075	33.36
768.254	33.02
768.434	33.18
768.613	33.18
768.792	33.99
768.972	33.48
769.151	34.3
769.33	34.22
769.51	35.26
769.689	34.44
769.868	33.63
770.047	34.04
770.226	34.51
770.406	34.02
770.585	34.67
770.764	34.58
770.943	34.99
771.122	34.2
771.301	34.04
771.48	33.53
771.66	32.87
771.839	32.27
772.018	31.94
772.197	33.32
772.376	34.13
772.555	34.89
772.734	34.19
772.913	35.04
773.092	34.96
773.271	35.89
773.449	35.75
773.628	36.64
773.807	37.07
773.986	38.02
774.165	36.78
774.344	36.15
774.523	36
774.701	36.53
774.88	36.03
775.059	36.57
775.238	35.83
775.417	35.77
775.595	36.08
775.774	36.67
775.953	35.56
776.131	35.73
776.31	35.85
776.489	35.27
776.667	35.31
776.846	35.32
777.025	34.51
777.203	34.89
777.382	35.19
777.56	35.04
777.739	34.26
777.917	35.25
778.096	34.37
778.274	34.35
778.453	34.84
778.631	35.34
778.81	36.14
778.988	36.63
779.166	35.92
779.345	34.77
779.523	34.91
779.702	36.1
779.88	35.64
780.058	36.35
780.237	36.67
780.415	36.27
780.593	36.52
780.771	36.13
780.95	36.55
781.128	36.65
781.306	36.77
781.484	37.22
781.662	36.31
781.841	35.65
782.019	36.52
782.197	37.16
782.375	36.76
782.553	35.46
782.731	35.26
782.909	35.44
783.087	35.33
783.265	36.17
783.443	36.12
783.621	35.82
783.799	36.6
783.977	36.8
784.155	36.05
784.333	36.91
784.511	37.28
784.689	38.01
784.867	36.54
785.045	36.71
785.223	36.38
785.4	36.42
785.578	36.88
785.756	36.69
785.934	36.15
786.112	36.51
786.289	36.04
786.467	36.17
786.645	34.91
786.823	35.61
787	35.16
787.178	34.27
787.356	32.64
787.533	32.71
787.711	32.54
787.889	31.62
788.066	31.68
788.244	31.12
788.421	31.38
788.599	31.13
788.776	31.06
788.954	31.55
789.131	32.02
789.309	33.42
789.486	33.31
789.664	33.83
789.841	34.35
790.019	34.54
790.196	35.95
790.373	36.09
790.551	37.58
790.728	38.36
790.906	39.17
791.083	38.84
791.26	38.45
791.437	37.6
791.615	36.92
791.792	36.33
791.969	36
792.146	34.31
792.324	33.87
792.501	33.79
792.678	32.6
792.855	32.3
793.032	33.21
793.209	32.55
793.387	33.09
793.564	33.99
793.741	35.72
793.918	36.79
794.095	37.66
794.272	37.39
794.449	37.12
794.626	37.58
794.803	37.65
794.98	37.84
795.157	38.27
795.334	38.74
795.511	38.07
795.688	37.6
795.864	36.65
796.041	35.65
796.218	34.78
796.395	35.23
796.572	34.91
796.749	34.57
796.925	34.11
797.102	34.16
797.279	34.06
797.456	33.57
797.632	33.84
797.809	33.46
797.986	33.73
798.162	36.46
798.339	34.78
798.516	35.25
798.692	34.66
798.869	35.02
799.046	34.92
799.222	35.57
799.399	36.7
799.575	35.54
799.752	36.5
799.928	36.98
800.105	34.63
800.281	34.67
800.458	34.09
800.634	35.03
800.811	35.79
800.987	36.3
801.163	35.41
801.34	33.82
801.516	33.12
801.692	31.91
801.869	30.71
802.045	31.12
802.221	32.41
802.398	32.15
802.574	31.68
802.75	31.68
802.926	33.08
803.103	33.1
803.279	34.22
803.455	35.96
803.631	37.91
803.807	38.03
803.983	38.84
804.16	38.48
804.336	38.58
804.512	37.7
804.688	37.41
804.864	34.9
805.04	35.57
805.216	36.36
805.392	37.63
805.568	35.73
805.744	34.64
805.92	35.18
806.096	35.12
806.272	34.45
806.448	36.16
806.623	35.35
806.799	36.11
806.975	35.12
807.151	33.23
807.327	30.95
807.503	30.56
807.678	32.01
807.854	31.08
808.03	31.23
808.206	33.14
808.381	31.7
808.557	33.64
808.733	34.4
808.908	35.85
809.084	36.94
809.26	38.62
809.435	39.02
809.611	39.27
809.787	40.35
809.962	40.64
810.138	41.16
810.313	43.06
810.489	43.92
810.664	43.52
810.84	40.98
811.015	41.22
811.191	39.97
811.366	40.44
811.542	41.47
811.717	40.59
811.892	40.2
812.068	40.01
812.243	38.92
812.419	36.08
812.594	35.59
812.769	36.92
812.944	36.32
813.12	36.77
813.295	38.17
813.47	37.02
813.645	37.87
813.821	37.89
813.996	35.56
814.171	35.26
814.346	35.66
814.521	35.32
814.697	35.43
814.872	35.77
815.047	35.65
815.222	34.5
815.397	35.24
815.572	34
815.747	33.71
815.922	34.78
816.097	35.81
816.272	35.17
816.447	35.83
816.622	34.98
816.797	36.67
816.972	36.59
817.147	36.76
817.322	37.2
817.496	35.21
817.671	35.51
817.846	35.87
818.021	35.43
818.196	36.68
818.371	36.64
818.545	36.63
818.72	34.96
818.895	34.08
819.069	34.84
819.244	32.84
819.419	34.11
819.594	33.98
819.768	32.28
819.943	30.92
820.117	29.48
820.292	28.59
820.467	28.9
820.641	28.13
820.816	28.06
820.99	27.05
821.165	27.12
821.339	26.99
821.514	26.64
821.688	26.87
821.863	26.83
822.037	26.92
822.212	26.75
822.386	26.6
822.56	26.55
822.735	26.17
822.909	26.15
823.084	26.03
823.258	26.17
823.432	25.91
823.606	25.78
823.781	25.66
823.955	25.61
824.129	25.64
824.303	25.62
824.478	25.98
824.652	26.62
824.826	26.51
825	26.4
825.174	25.8
825.348	26.67
825.523	26.94
825.697	27.07
825.871	27.47
826.045	27.9
826.219	28.23
826.393	27.47
826.567	27.28
826.741	27.61
826.915	27.8
827.089	28.06
827.263	27.9
827.437	28.04
827.611	28.45
827.784	28.45
827.958	28.46
828.132	27.27
828.306	27.32
828.48	27.59
828.654	27.52
828.827	27.84
829.001	28.25
829.175	27.87
829.349	27.41
829.522	26.83
829.696	27.96
829.87	27.73
830.044	28.51
830.217	29.29
830.391	29.38
830.565	29.27
830.738	29.87
830.912	30.22
831.085	30.91
831.259	30.6
831.432	31.21
831.606	28.52
831.779	29.01
831.953	29.8
832.126	29.89
832.3	29.99
832.473	30.13
832.647	29.25
832.82	27.83
832.994	27.23
833.167	27.8
833.34	27.08
833.514	27.71
833.687	27.94
833.86	27.85
834.034	27.43
834.207	26.9
834.38	26.64
834.553	27
834.727	27.38
834.9	27.87
835.073	28.14
835.246	28.46
835.419	28.99
835.593	28.26
835.766	28.7
835.939	29.97
836.112	30.78
836.285	32.02
836.458	32.94
836.631	33.47
836.804	33.79
836.977	34.87
837.15	35.92
837.323	34.5
837.496	37.32
837.669	37.28
837.842	36.83
838.015	37.1
838.188	36.07
838.361	35.3
838.533	35.87
838.706	37.78
838.879	38.16
839.052	37.83
839.225	38.45
839.398	35.87
839.57	37.13
839.743	37.05
839.916	34.27
840.088	35.26
840.261	35.81
840.434	36.36
840.607	34.2
840.779	32.94
840.952	33.21
841.124	33.45
841.297	33.52
841.47	32.45
841.642	32.47
841.815	35.96
841.987	36.6
842.16	37.85
842.332	37.49
842.505	38.78
842.677	38.6
842.85	38.84
843.022	38.93
843.194	39.85
843.367	43.49
843.539	45.98
843.712	44.09
843.884	41.86
844.056	43.3
844.229	42.69
844.401	43.46
844.573	44.33
844.745	46.32
844.918	48.91
845.09	50.76
845.262	46
845.434	44.51
845.606	46.18
845.779	51.77
845.951	50.44
846.123	54.83
846.295	55.53
846.467	54.04
846.639	51.27
846.811	51.13
846.983	48.88
847.155	51.57
847.327	50.6
847.499	52.64
847.671	49
847.843	46.1
848.015	44.13
848.187	43.47
848.359	41.75
848.531	44.1
848.703	41.43
848.875	47.02
849.047	44.35
849.218	47.39
849.39	44.43
849.562	44.82
849.734	47.6
849.905	49.25
850.077	51.41
850.249	50.72
850.421	49.81
850.592	49.3
850.764	46.38
850.936	47.74
851.107	42.42
851.279	40.39
851.451	39.09
851.622	37.41
851.794	33.5
851.965	28.03
852.137	33.23
852.308	36.61
852.48	37.46
852.651	35.93
852.823	36.41
852.994	38.33
853.166	42.17
853.337	45
853.509	45.78
853.68	46.13
853.851	50.34
854.023	49.04
854.194	43
854.365	44.44
854.537	43.8
854.708	41.77
854.879	41.3
855.05	39.78
855.222	38.05
855.393	34.75
855.564	32.23
855.735	28.25
855.906	27.14
856.078	29.07
856.249	28.25
856.42	28.93
856.591	31.11
856.762	31.26
856.933	31.31
857.104	33.31
857.275	33.3
857.446	36.42
857.617	39.63
857.788	39.71
857.959	40.01
858.13	43.85
858.301	48.69
858.472	45
858.643	48.88
858.814	52.33
858.985	43.64
859.155	43.12
859.326	44.92
859.497	42.16
859.668	42
859.839	44.63
860.009	42.22
860.18	37.71
860.351	38.66
860.522	32.44
860.692	27.53
860.863	37.58
861.034	42.07
861.204	41.51
861.375	43.39
861.546	43.05
861.716	45.68
861.887	47.54
862.057	47.12
862.228	48.73
862.398	54.91
862.569	60.98
862.739	53.3
862.91	51.44
863.08	50.72
863.251	48.35
863.421	51.46
863.592	45.48
863.762	42.64
863.932	43.9
864.103	43.86
864.273	37.54
864.443	37.36
864.614	39.07
864.784	40.58
864.954	37.93
865.125	42.05
865.295	43.54
865.465	45.79
865.635	43.39
865.805	45.35
865.976	46.88
866.146	44.53
866.316	39.53
866.486	42.11
866.656	40.07
866.826	39.77
866.996	31.7
867.166	32.73
867.336	38.33
867.506	48.06
867.676	45.48
867.846	44.98
868.016	55.08
868.186	55.17
868.356	52.38
868.526	51.66
868.696	51.91
868.866	54.38
869.036	51.3
869.206	44.45
869.376	34.58
869.545	33.89
869.715	35.59
869.885	31.65
870.055	31.78
870.224	29.14
870.394	31.67
870.564	30.42
870.734	35.53
870.903	34.01
871.073	36.26
871.243	42.13
871.412	40.13
871.582	37.78
871.751	39.7
871.921	40.76
872.091	41.06
872.26	36.37
872.43	37.98
872.599	33.94
872.769	35.04
872.938	33.97
873.108	32.34
873.277	33.63
873.446	34.04
873.616	31.71
873.785	28.55
873.955	29.44
874.124	34.53
874.293	34.99
874.463	36.69
874.632	38.9
874.801	40.47
874.971	43.16
875.14	42.28
875.309	48.08
875.478	49.07
875.647	53.18
875.817	55.26
875.986	50.65
876.155	54.73
876.324	54.92
876.493	50.8
876.662	52.51
876.831	48.98
877	50.14
877.17	43.3
877.339	42.57
877.508	38.28
877.677	40.27
877.846	42.33
878.015	39.92
878.184	37.34
878.352	38.31
878.521	32.27
878.69	32.75
878.859	33.81
879.028	38.7
879.197	39.9
879.366	38.97
879.534	35.96
879.703	36.32
879.872	35.14
880.041	35.83
880.21	35.48
880.378	36.27
880.547	34.34
880.716	31.85
880.884	30.76
881.053	30.48
881.222	30.46
881.39	29.04
881.559	27.75
881.727	27.23
881.896	26.59
882.065	26.4
882.233	25.53
882.402	25.34
882.57	25.22
882.739	24.55
882.907	23.78
883.076	23.49
883.244	23.64
883.412	25.16
883.581	25.67
883.749	26.08
883.918	25.82
884.086	26.13
884.254	26.87
884.423	27.69
884.591	27.34
884.759	28.09
884.927	29.45
885.096	30.63
885.264	29.61
885.432	28.72
885.6	28.82
885.769	29.86
885.937	31.93
886.105	32.58
886.273	32.35
886.441	33.85
886.609	34.26
886.777	33.12
886.945	35.06
887.113	35.05
887.281	35.68
887.449	38.18
887.617	38.22
887.785	37.19
887.953	36.35
888.121	40.16
888.289	41.32
888.457	41.37
888.625	45.08
888.793	39.13
888.961	39.52
889.129	38.99
889.296	38.66
889.464	39.64
889.632	41.65
889.8	42.58
889.967	39.26
890.135	38.26
