Data from 2938839__Reflection_01.txt Node
Date: Wed Mar 11 15:53:52 EDT 2015
User: robert
Spectrometer: USB4E03002
Autoset integration time: false
Trigger mode: 4
Integration Time (sec): 1.000000E-1
Scans to average: 10
Electric dark correction enabled: false
Nonlinearity correction enabled: false
Boxcar width: 5
Stray light correction enabled: false
XAxis mode: Wavelengths
Stop averaging: false
Number of Pixels in Spectrum: 3648
>>>>>Begin Spectral Data<<<<<
177.575	820
177.794	257.33
178.014	293.66
178.233	384.56
178.452	774.19
178.672	884.37
178.891	955.77
179.11	-3164.29
179.33	-115.06
179.549	-106.05
179.768	-70.86
179.987	-130.77
180.207	-225.64
180.426	-142.47
180.645	-99.44
180.864	-131.88
181.084	-69.92
181.303	50.43
181.522	54.84
181.741	487.5
181.96	-152.7
182.179	-63.83
182.398	66
182.618	154.42
182.837	192.08
183.056	53.74
183.275	41.36
183.494	118.38
183.713	225.37
183.932	236.89
184.151	99.25
184.37	-4625
184.589	-577.5
184.808	-412.8
185.027	-381.88
185.246	-634
185.465	-666.4
185.684	-505.97
185.903	-160.21
186.122	-238.95
186.341	-190.16
186.56	-84.81
186.779	-155.22
186.998	-56.41
187.216	19.83
187.435	81.45
187.654	118.06
187.873	109.27
188.092	38.79
188.311	81.85
188.53	86.79
188.748	78.73
188.967	132.54
189.186	-83.21
189.405	-25.7
189.623	-3.78
189.842	-69.43
190.061	-1015.38
190.28	-106.29
190.498	-81.52
190.717	-96.11
190.936	-29.91
191.154	-12.62
191.373	-19.89
191.592	124.69
191.81	101.79
192.029	100
192.248	62.42
192.466	-102.22
192.685	43.77
192.904	47.65
193.122	33.4
193.341	17.84
193.559	22.11
193.778	34.73
193.996	27.99
194.215	23.39
194.433	8.6
194.652	-46.84
194.87	-58.05
195.089	-117.56
195.307	-2991.67
195.526	-209.52
195.744	-721.74
195.963	1805.26
196.181	-132.68
196.399	-223.62
196.618	-118.98
196.836	-11.49
197.055	29.44
197.273	33.95
197.491	15.27
197.71	21.31
197.928	20.5
198.146	54.39
198.365	87.97
198.583	34.47
198.801	50.22
199.019	23.56
199.238	168.91
199.456	169.63
199.674	130.19
199.892	57.75
200.111	83.53
200.329	82.43
200.547	87.7
200.765	75.08
200.983	92.7
201.202	108.4
201.42	112.83
201.638	112.4
201.856	125.24
202.074	99.06
202.292	134.93
202.51	181.15
202.728	165.8
202.946	218.88
203.165	193.39
203.383	132
203.601	154.23
203.819	95.79
204.037	96.51
204.255	163.16
204.473	128.73
204.691	135.83
204.909	47.93
205.127	37.87
205.345	34.99
205.562	26.25
205.78	30.03
205.998	23.52
206.216	35.91
206.434	21.69
206.652	18.6
206.87	5.27
207.088	-22.34
207.306	-95.8
207.523	-68.16
207.741	-14.29
207.959	-54.24
208.177	-34.01
208.395	47.42
208.612	76.64
208.83	29.05
209.048	24.65
209.266	74.9
209.483	52.05
209.701	-165
209.919	27.33
210.136	88.89
210.354	-651.43
210.572	-440.54
210.79	-123.28
211.007	-20.86
211.225	-126.89
211.442	-66.84
211.66	9.03
211.878	23.85
212.095	406.1
212.313	361.96
212.53	401.45
212.748	398.16
212.966	261.8
213.183	175.37
213.401	128.45
213.618	102.75
213.836	111.25
214.053	107.14
214.271	92.94
214.488	-77.63
214.705	-59.02
214.923	-18.89
215.14	-28.73
215.358	-36.87
215.575	-42.3
215.793	-35.75
216.01	0.11
216.227	-19.69
216.445	-54.66
216.662	-41.16
216.879	-15.74
217.097	-28.47
217.314	-32.48
217.531	-8.79
217.749	10.51
217.966	13.45
218.183	25.29
218.4	20.71
218.618	16.82
218.835	22.59
219.052	21.11
219.269	21.09
219.487	24.48
219.704	14.4
219.921	8.88
220.138	-0.21
220.355	0.69
220.572	-9.97
220.79	-9.67
221.007	0.12
221.224	6.3
221.441	-6.28
221.658	2.34
221.875	1.46
222.092	1.32
222.309	-2.76
222.526	-2.79
222.743	-0.66
222.96	-6.04
223.177	-5.43
223.394	-8.26
223.611	-17.13
223.828	-7.19
224.045	-7.3
224.262	-4.54
224.479	-4.82
224.696	-2.21
224.913	-0.15
225.13	-4.27
225.347	-2.36
225.564	-6.36
225.781	-5.68
225.997	-1.68
226.214	0.13
226.431	-3.05
226.648	-4
226.865	-1.4
227.082	-1.73
227.298	-1.6
227.515	0.33
227.732	0.5
227.949	1.28
228.165	1.34
228.382	0.34
228.599	1.58
228.816	2.2
229.032	2.27
229.249	1.69
229.466	2.44
229.682	1.91
229.899	1
230.116	0.57
230.332	1.17
230.549	1.2
230.765	1.36
230.982	-1.34
231.199	-3.41
231.415	-3.56
231.632	-3.14
231.848	-5.53
232.065	-4.24
232.281	-3.38
232.498	-3.09
232.714	-4.77
232.931	-4.26
233.147	-4.52
233.364	-2.39
233.58	0.1
233.797	-0.2
234.013	-0.54
234.23	0.05
234.446	-1.25
234.662	-2.17
234.879	-2.48
235.095	-1.44
235.312	-2.24
235.528	0.24
235.744	-1.01
235.961	-1.82
236.177	-1.82
236.393	-2.22
236.61	-1.35
236.826	-1.34
237.042	-1.12
237.258	-2.1
237.475	-2.7
237.691	-4.12
237.907	-6.02
238.123	-5.9
238.339	-5.7
238.556	-4.78
238.772	-2.99
238.988	-3.4
239.204	-2.96
239.42	-3.03
239.636	-1.28
239.853	-1.32
240.069	-0.4
240.285	0.68
240.501	-0.29
240.717	0.98
240.933	1.11
241.149	0.15
241.365	0.78
241.581	0.88
241.797	1.41
242.013	1.94
242.229	1.88
242.445	2.89
242.661	2.21
242.877	3.6
243.093	2.73
243.309	2.91
243.525	2.89
243.741	2.94
243.957	2.85
244.173	3.06
244.388	3.02
244.604	3.34
244.82	2.54
245.036	3.3
245.252	3.16
245.468	3.09
245.683	2.27
245.899	3.02
246.115	2.9
246.331	2.88
246.547	2.98
246.762	2.75
246.978	2.82
247.194	2.51
247.409	2.55
247.625	2.47
247.841	2.62
248.057	2.78
248.272	2.69
248.488	2.73
248.703	2.73
248.919	2.88
249.135	2.92
249.35	2.63
249.566	3.08
249.782	2.44
249.997	1.61
250.213	1.61
250.428	1.81
250.644	0.99
250.859	1
251.075	1.13
251.29	0.55
251.506	0.07
251.721	0.36
251.937	0.35
252.152	0.77
252.368	0.64
252.583	0.82
252.798	0.26
253.014	0.64
253.229	-0.28
253.445	-0.42
253.66	-0.53
253.875	-0.12
254.091	0.47
254.306	0.33
254.521	0.36
254.737	0.88
254.952	0.56
255.167	0.84
255.383	1.03
255.598	1.31
255.813	1.24
256.028	1.15
256.244	0.57
256.459	0.02
256.674	-0.23
256.889	-0.69
257.104	-1.12
257.32	-0.83
257.535	-0.42
257.75	-0
257.965	0.55
258.18	0.89
258.395	1.54
258.61	2.34
258.826	2.4
259.041	2.41
259.256	2.74
259.471	3.04
259.686	3.14
259.901	3.08
260.116	2.88
260.331	2.7
260.546	2.44
260.761	2.08
260.976	1.49
261.191	1.35
261.406	1.46
261.621	1.29
261.836	1.19
262.05	1.14
262.265	1.22
262.48	1.4
262.695	1.41
262.91	1.56
263.125	1.42
263.34	1.7
263.555	1.38
263.769	0.93
263.984	1.04
264.199	0.8
264.414	0.28
264.629	0.13
264.843	0.46
265.058	0.83
265.273	1.31
265.488	1.07
265.702	1
265.917	1.56
266.132	1.75
266.346	1.42
266.561	1.87
266.776	2.03
266.99	1.79
267.205	1.67
267.42	1.53
267.634	1.28
267.849	1.46
268.063	1.59
268.278	1.58
268.492	1.45
268.707	1.34
268.922	1.38
269.136	0.97
269.351	0.99
269.565	0.49
269.78	0.59
269.994	0.71
270.209	1.23
270.423	1.38
270.637	1.19
270.852	1.7
271.066	1.63
271.281	1.28
271.495	1.54
271.709	1.88
271.924	2.39
272.138	2.29
272.353	2.21
272.567	2.1
272.781	2.18
272.996	2.23
273.21	1.86
273.424	1.8
273.638	1.77
273.853	1.82
274.067	1.32
274.281	1.19
274.495	1.49
274.71	0.96
274.924	0.96
275.138	0.79
275.352	0.53
275.566	0.37
275.781	0.82
275.995	1.3
276.209	1.07
276.423	1.46
276.637	0.97
276.851	0.59
277.065	1.24
277.279	0.59
277.493	0.74
277.707	0.83
277.921	1.03
278.135	0.45
278.349	0.07
278.563	0.37
278.777	-0.2
278.991	0.02
279.205	0.35
279.419	0.3
279.633	0.95
279.847	0.53
280.061	0.72
280.275	0.55
280.489	1.15
280.703	0.84
280.917	0.68
281.131	1.21
281.344	1.51
281.558	1.01
281.772	1.37
281.986	1.4
282.2	1.98
282.414	1.78
282.627	1.79
282.841	1.6
283.055	2.03
283.269	2.08
283.482	1.77
283.696	1.63
283.91	1.81
284.123	1.72
284.337	1.67
284.551	1.43
284.764	1.85
284.978	1.67
285.192	1.74
285.405	1.48
285.619	1.53
285.833	1.51
286.046	1.63
286.26	2.06
286.473	1.67
286.687	1.4
286.9	1.42
287.114	1.35
287.327	1.9
287.541	1.67
287.754	1.94
287.968	2.05
288.181	2.21
288.395	2.13
288.608	1.87
288.822	1.88
289.035	1.93
289.248	2.03
289.462	1.91
289.675	1.88
289.889	2.22
290.102	1.94
290.315	1.7
290.529	2.15
290.742	2.1
290.955	2.14
291.169	2.43
291.382	2.95
291.595	2.95
291.808	3.11
292.022	3.17
292.235	3.32
292.448	3.7
292.661	4.11
292.875	3.69
293.088	3.75
293.301	3.79
293.514	3.67
293.727	3.22
293.94	3.1
294.153	2.78
294.367	2.31
294.58	1.88
294.793	1.49
295.006	1.24
295.219	1.43
295.432	1.28
295.645	1.12
295.858	1.38
296.071	1.81
296.284	1.98
296.497	2.26
296.71	2.42
296.923	2.82
297.136	2.93
297.349	2.82
297.562	2.92
297.775	3.12
297.988	3.29
298.201	3.19
298.414	3.07
298.626	2.91
298.839	2.72
299.052	2.55
299.265	2.36
299.478	2.57
299.691	2.75
299.903	2.67
300.116	2.68
300.329	2.75
300.542	2.65
300.755	2.82
300.967	2.99
301.18	3.16
301.393	3.24
301.605	2.9
301.818	2.66
302.031	2.38
302.243	2.11
302.456	1.78
302.669	1.73
302.881	2.05
303.094	1.54
303.307	1.77
303.519	1.66
303.732	2.04
303.944	2.26
304.157	2.72
304.37	2.88
304.582	3.23
304.795	3.67
305.007	3.49
305.22	3.16
305.432	3.12
305.645	3.01
305.857	3.25
306.069	3.19
306.282	3.23
306.494	2.99
306.707	3.43
306.919	3.33
307.132	3.1
307.344	3.13
307.556	3.44
307.769	3.8
307.981	3.57
308.193	3.46
308.406	3.55
308.618	3.66
308.83	3.79
309.043	3.52
309.255	3.35
309.467	3.63
309.679	3.65
309.892	3.4
310.104	3.23
310.316	3.4
310.528	3.38
310.74	3.35
310.953	3.42
311.165	3.24
311.377	3.49
311.589	3.63
311.801	3.46
312.013	3.39
312.225	3.82
312.437	3.73
312.649	3.82
312.862	3.97
313.074	4.15
313.286	4.03
313.498	3.95
313.71	4.26
313.922	4.16
314.134	4.11
314.346	4.23
314.558	3.53
314.77	3.94
314.982	4.05
315.193	3.79
315.405	3.31
315.617	3.29
315.829	3.47
316.041	3.07
316.253	3.11
316.465	3.18
316.677	3.12
316.888	3.76
317.1	3.78
317.312	3.06
317.524	3.22
317.736	3.53
317.947	4.06
318.159	4.18
318.371	4.4
318.583	4.34
318.794	4.53
319.006	4.82
319.218	4.87
319.43	4.63
319.641	5.02
319.853	5.27
320.064	5.24
320.276	4.9
320.488	5.12
320.699	4.62
320.911	4.94
321.123	4.71
321.334	4.63
321.546	4.61
321.757	4.95
321.969	5.27
322.18	5.55
322.392	5.74
322.603	5.73
322.815	5.96
323.026	6.62
323.238	6.66
323.449	7.12
323.661	7.12
323.872	6.9
324.083	7.05
324.295	7.18
324.506	7.17
324.718	6.98
324.929	6.92
325.14	6.79
325.352	6.76
325.563	7
325.774	6.68
325.986	6.91
326.197	7.39
326.408	7.74
326.62	7.82
326.831	8.03
327.042	8.45
327.253	9.11
327.464	9.33
327.676	9.37
327.887	9.83
328.098	10.35
328.309	10.69
328.52	11.07
328.732	11.15
328.943	11.43
329.154	11.79
329.365	11.84
329.576	11.82
329.787	11.9
329.998	12.21
330.209	12.24
330.42	12.43
330.631	12.58
330.842	12.25
331.053	12.28
331.264	12.64
331.475	12.54
331.686	13.11
331.897	13.1
332.108	13.59
332.319	14.03
332.53	14.02
332.741	14.5
332.952	14.78
333.163	15.08
333.374	15.24
333.585	15.26
333.795	15.54
334.006	15.44
334.217	15.65
334.428	15.59
334.639	15.52
334.849	15.42
335.06	15.07
335.271	15.14
335.482	15.58
335.692	15.52
335.903	15.63
336.114	15.47
336.325	15.66
336.535	15.75
336.746	15.99
336.957	16.13
337.167	16.36
337.378	16.48
337.589	16.42
337.799	16.21
338.01	16.42
338.22	16.41
338.431	16.18
338.642	16.13
338.852	16.32
339.063	15.95
339.273	16
339.484	15.97
339.694	15.88
339.905	15.82
340.115	15.55
340.326	15.71
340.536	15.83
340.746	16.07
340.957	16.19
341.167	16.28
341.378	16.3
341.588	16.15
341.799	16.32
342.009	16.81
342.219	16.74
342.43	17.2
342.64	17.16
342.85	17.05
343.061	17.22
343.271	17.3
343.481	17.08
343.691	17.35
343.902	17.49
344.112	17.36
344.322	17.1
344.532	17.23
344.743	16.97
344.953	16.71
345.163	16.76
345.373	16.44
345.583	16.01
345.793	16.14
346.004	16.34
346.214	16.18
346.424	16.1
346.634	16.11
346.844	16.14
347.054	16.27
347.264	16.19
347.474	16.05
347.684	16.12
347.894	16.3
348.104	16.43
348.314	16.35
348.524	16.28
348.734	16.38
348.944	16.25
349.154	16.12
349.364	16.08
349.574	16.27
349.784	16.09
349.994	16.04
350.204	15.89
350.413	15.84
350.623	15.71
350.833	15.4
351.043	15.1
351.253	14.94
351.463	15.2
351.672	15.3
351.882	15.12
352.092	15.28
352.302	15.49
352.511	15.64
352.721	15.33
352.931	15.28
353.141	15.52
353.35	15.84
353.56	16
353.77	15.88
353.979	15.83
354.189	15.89
354.399	15.74
354.608	15.84
354.818	15.81
355.027	15.9
355.237	15.87
355.447	15.85
355.656	15.55
355.866	15.39
356.075	15.54
356.285	15.81
356.494	15.92
356.704	16.04
356.913	15.91
357.123	15.76
357.332	15.85
357.542	15.65
357.751	15.86
357.96	16
358.17	16.04
358.379	15.86
358.589	15.35
358.798	15.22
359.007	15.15
359.217	15.29
359.426	15.56
359.635	15.48
359.845	15.61
360.054	15.53
360.263	15.4
360.472	15.49
360.682	15.44
360.891	15.61
361.1	15.72
361.309	15.84
361.519	15.68
361.728	15.55
361.937	15.61
362.146	15.72
362.355	15.63
362.564	15.71
362.774	15.9
362.983	15.89
363.192	15.99
363.401	15.95
363.61	15.95
363.819	16
364.028	16.16
364.237	16.02
364.446	15.85
364.655	15.88
364.864	15.96
365.073	15.44
365.282	15.45
365.491	15.14
365.7	14.99
365.909	14.94
366.118	14.94
366.327	15.02
366.536	14.89
366.745	14.93
366.954	14.92
367.162	15.12
367.371	15.43
367.58	15.49
367.789	15.7
367.998	16.08
368.207	16.04
368.415	15.99
368.624	15.52
368.833	15.81
369.042	15.77
369.25	15.67
369.459	15.52
369.668	15.55
369.877	15.41
370.085	15.39
370.294	15.21
370.503	15.31
370.711	15.29
370.92	15.5
371.129	15.31
371.337	15.15
371.546	14.96
371.754	14.9
371.963	14.82
372.171	14.87
372.38	14.59
372.589	14.51
372.797	14.65
373.006	14.71
373.214	14.86
373.423	14.94
373.631	15.08
373.84	15.4
374.048	15.37
374.256	15.36
374.465	15.4
374.673	15.6
374.882	15.69
375.09	15.42
375.298	15.43
375.507	15.23
375.715	15.2
375.923	15.25
376.132	15.08
376.34	14.97
376.548	14.8
376.757	14.75
376.965	14.8
377.173	14.64
377.381	14.76
377.59	14.66
377.798	14.74
378.006	14.61
378.214	14.58
378.423	14.68
378.631	14.67
378.839	14.86
379.047	14.84
379.255	14.64
379.463	14.65
379.671	14.54
379.879	14.5
380.088	14.47
380.296	14.72
380.504	14.74
380.712	14.67
380.92	14.84
381.128	14.77
381.336	14.72
381.544	14.96
381.752	15.15
381.96	15.09
382.168	15.35
382.376	15.37
382.584	15.33
382.791	15.12
382.999	15.2
383.207	15.08
383.415	15.14
383.623	15.23
383.831	15.12
384.039	15.01
384.247	14.97
384.454	14.93
384.662	14.8
384.87	14.66
385.078	14.72
385.285	14.71
385.493	14.77
385.701	14.68
385.909	14.56
386.116	14.5
386.324	14.46
386.532	14.25
386.739	14.12
386.947	14.18
387.155	14.16
387.362	14.33
387.57	14.23
387.778	14.15
387.985	14.26
388.193	14.53
388.4	14.2
388.608	14.23
388.816	14.5
389.023	14.51
389.231	14.66
389.438	14.64
389.646	14.57
389.853	14.68
390.061	14.77
390.268	14.63
390.475	14.35
390.683	14.68
390.89	14.82
391.098	14.82
391.305	14.76
391.512	14.77
391.72	14.75
391.927	14.62
392.135	14.71
392.342	14.75
392.549	14.88
392.756	14.91
392.964	14.87
393.171	14.7
393.378	14.71
393.586	14.65
393.793	14.5
394	14.64
394.207	14.79
394.414	14.67
394.622	14.51
394.829	14.49
395.036	14.45
395.243	14.54
395.45	14.48
395.657	14.34
395.864	14.35
396.072	14.28
396.279	14.26
396.486	14.22
396.693	14.24
396.9	14.38
397.107	14.28
397.314	14.53
397.521	14.57
397.728	14.57
397.935	14.53
398.142	14.47
398.349	14.57
398.556	14.57
398.763	14.71
398.97	14.76
399.177	14.69
399.383	14.7
399.59	14.49
399.797	14.42
400.004	14.39
400.211	14.65
400.418	14.86
400.625	14.95
400.831	15.07
401.038	15.07
401.245	15.12
401.452	15.18
401.658	15.22
401.865	15.27
402.072	15.17
402.279	15.33
402.485	15.15
402.692	15.1
402.899	15.08
403.105	14.93
403.312	14.79
403.519	14.72
403.725	14.63
403.932	14.67
404.138	14.66
404.345	14.85
404.552	14.85
404.758	14.81
404.965	14.93
405.171	14.87
405.378	15.06
405.584	15.12
405.791	15.01
405.997	14.99
406.204	15.15
406.41	15.15
406.617	15.16
406.823	15.11
407.029	15.25
407.236	15.05
407.442	15.09
407.649	14.99
407.855	14.99
408.061	15
408.268	15.11
408.474	14.87
408.68	14.96
408.887	15.01
409.093	15.11
409.299	15.11
409.505	15.19
409.712	15.35
409.918	15.26
410.124	15.26
410.33	15.4
410.537	15.35
410.743	15.39
410.949	15.37
411.155	15.22
411.361	15.08
411.567	15.14
411.773	15.17
411.98	15.21
412.186	15.41
412.392	15.37
412.598	15.33
412.804	15.25
413.01	15.18
413.216	15.34
413.422	15.47
413.628	15.52
413.834	15.42
414.04	15.48
414.246	15.28
414.452	15.23
414.658	15.31
414.864	15.39
415.07	15.39
415.275	15.58
415.481	15.59
415.687	15.71
415.893	15.86
416.099	15.88
416.305	15.76
416.511	15.77
416.716	15.71
416.922	15.81
417.128	15.88
417.334	16
417.539	15.92
417.745	15.85
417.951	15.7
418.157	15.68
418.362	15.74
418.568	15.75
418.774	15.88
418.979	15.92
419.185	15.88
419.391	15.83
419.596	15.79
419.802	15.79
420.008	15.72
420.213	16.09
420.419	16.01
420.624	16.01
420.83	16.06
421.035	15.95
421.241	15.97
421.446	15.93
421.652	15.93
421.857	15.97
422.063	16
422.268	16.04
422.474	15.74
422.679	15.76
422.885	15.79
423.09	15.78
423.295	15.8
423.501	15.78
423.706	15.8
423.911	15.81
424.117	15.81
424.322	15.86
424.527	15.83
424.733	15.88
424.938	15.92
425.143	15.86
425.349	15.84
425.554	15.84
425.759	15.81
425.964	15.83
426.169	15.78
426.375	15.77
426.58	15.69
426.785	15.75
426.99	15.7
427.195	15.77
427.4	15.74
427.605	15.91
427.811	15.99
428.016	16.1
428.221	16.04
428.426	16.09
428.631	16.02
428.836	16.09
429.041	16.03
429.246	16.02
429.451	15.96
429.656	15.98
429.861	15.97
430.066	15.96
430.271	15.89
430.476	15.89
430.681	16.01
430.886	16
431.09	16.13
431.295	16.26
431.5	16.38
431.705	16.41
431.91	16.32
432.115	16.32
432.32	16.3
432.524	16.35
432.729	16.39
432.934	16.44
433.139	16.47
433.343	16.39
433.548	16.29
433.753	16.25
433.958	16.21
434.162	16.37
434.367	16.33
434.572	16.34
434.776	16.32
434.981	16.38
435.186	16.29
435.39	16.39
435.595	16.36
435.799	16.46
436.004	16.34
436.209	16.41
436.413	16.31
436.618	16.33
436.822	16.3
437.027	16.38
437.231	16.32
437.436	16.31
437.64	16.34
437.845	16.32
438.049	16.39
438.253	16.54
438.458	16.56
438.662	16.56
438.867	16.53
439.071	16.63
439.275	16.58
439.48	16.64
439.684	16.69
439.888	16.6
440.093	16.67
440.297	16.68
440.501	16.6
440.706	16.61
440.91	16.68
441.114	16.67
441.318	16.64
441.523	16.65
441.727	16.57
441.931	16.52
442.135	16.58
442.339	16.5
442.543	16.48
442.748	16.52
442.952	16.4
443.156	16.39
443.36	16.38
443.564	16.32
443.768	16.34
443.972	16.39
444.176	16.37
444.38	16.36
444.584	16.43
444.788	16.43
444.992	16.51
445.196	16.48
445.4	16.46
445.604	16.48
445.808	16.57
446.012	16.58
446.216	16.65
446.42	16.64
446.624	16.64
446.828	16.62
447.032	16.55
447.235	16.48
447.439	16.59
447.643	16.62
447.847	16.58
448.051	16.53
448.254	16.48
448.458	16.46
448.662	16.49
448.866	16.45
449.069	16.46
449.273	16.5
449.477	16.5
449.681	16.48
449.884	16.47
450.088	16.49
450.292	16.63
450.495	16.72
450.699	16.7
450.902	16.74
451.106	16.79
451.31	16.77
451.513	16.72
451.717	16.7
451.92	16.72
452.124	16.73
452.327	16.75
452.531	16.61
452.734	16.52
452.938	16.42
453.141	16.44
453.345	16.42
453.548	16.39
453.752	16.36
453.955	16.38
454.158	16.38
454.362	16.35
454.565	16.42
454.769	16.44
454.972	16.42
455.175	16.53
455.379	16.49
455.582	16.46
455.785	16.45
455.988	16.58
456.192	16.64
456.395	16.62
456.598	16.56
456.801	16.52
457.005	16.58
457.208	16.63
457.411	16.65
457.614	16.53
457.817	16.55
458.021	16.62
458.224	16.53
458.427	16.39
458.63	16.47
458.833	16.55
459.036	16.5
459.239	16.47
459.442	16.42
459.645	16.32
459.848	16.42
460.051	16.37
460.254	16.39
460.457	16.37
460.66	16.43
460.863	16.37
461.066	16.31
461.269	16.36
461.472	16.36
461.675	16.37
461.878	16.4
462.081	16.37
462.284	16.4
462.486	16.33
462.689	16.5
462.892	16.51
463.095	16.5
463.298	16.49
463.5	16.52
463.703	16.45
463.906	16.45
464.109	16.45
464.311	16.58
464.514	16.66
464.717	16.71
464.92	16.6
465.122	16.66
465.325	16.71
465.528	16.74
465.73	16.72
465.933	16.71
466.135	16.79
466.338	16.92
466.541	16.74
466.743	16.73
466.946	16.71
467.148	16.73
467.351	16.68
467.553	16.66
467.756	16.61
467.958	16.55
468.161	16.56
468.363	16.58
468.566	16.46
468.768	16.48
468.971	16.44
469.173	16.41
469.375	16.31
469.578	16.27
469.78	16.21
469.983	16.2
470.185	16.23
470.387	16.28
470.59	16.28
470.792	16.33
470.994	16.38
471.196	16.44
471.399	16.45
471.601	16.59
471.803	16.7
472.005	16.77
472.208	16.9
472.41	16.78
472.612	16.79
472.814	16.63
473.016	16.68
473.218	16.7
473.421	16.59
473.623	16.62
473.825	16.56
474.027	16.55
474.229	16.52
474.431	16.5
474.633	16.57
474.835	16.59
475.037	16.68
475.239	16.67
475.441	16.74
475.643	16.83
475.845	16.79
476.047	16.82
476.249	16.76
476.451	16.8
476.653	16.82
476.855	16.8
477.057	16.81
477.258	16.86
477.46	16.77
477.662	16.72
477.864	16.65
478.066	16.7
478.268	16.7
478.469	16.7
478.671	16.62
478.873	16.62
479.075	16.63
479.276	16.54
479.478	16.49
479.68	16.5
479.882	16.46
480.083	16.47
480.285	16.47
480.487	16.43
480.688	16.47
480.89	16.55
481.091	16.51
481.293	16.56
481.495	16.54
481.696	16.56
481.898	16.61
482.099	16.62
482.301	16.61
482.502	16.56
482.704	16.6
482.905	16.55
483.107	16.57
483.308	16.59
483.51	16.55
483.711	16.55
483.913	16.52
484.114	16.49
484.315	16.47
484.517	16.44
484.718	16.44
484.92	16.42
485.121	16.42
485.322	16.34
485.524	16.34
485.725	16.35
485.926	16.35
486.127	16.36
486.329	16.39
486.53	16.4
486.731	16.45
486.932	16.5
487.134	16.49
487.335	16.51
487.536	16.49
487.737	16.48
487.938	16.46
488.139	16.46
488.341	16.44
488.542	16.43
488.743	16.46
488.944	16.45
489.145	16.38
489.346	16.37
489.547	16.33
489.748	16.38
489.949	16.39
490.15	16.38
490.351	16.4
490.552	16.43
490.753	16.47
490.954	16.45
491.155	16.45
491.356	16.51
491.557	16.55
491.758	16.6
491.959	16.6
492.159	16.58
492.36	16.61
492.561	16.59
492.762	16.58
492.963	16.57
493.164	16.58
493.364	16.61
493.565	16.6
493.766	16.63
493.967	16.66
494.167	16.67
494.368	16.72
494.569	16.74
494.769	16.84
494.97	16.88
495.171	16.85
495.371	16.83
495.572	16.95
495.773	17
495.973	16.94
496.174	16.93
496.375	16.93
496.575	16.9
496.776	16.95
496.976	16.91
497.177	16.95
497.377	17.01
497.578	17.04
497.778	16.91
497.979	16.85
498.179	16.89
498.38	16.97
498.58	16.94
498.78	16.93
498.981	16.94
499.181	16.99
499.382	16.94
499.582	16.93
499.782	16.92
499.983	16.98
500.183	17.03
500.383	17.07
500.584	16.93
500.784	17.08
500.984	17.19
501.184	17.18
501.385	17.15
501.585	17.2
501.785	17.26
501.985	17.31
502.185	17.38
502.386	17.39
502.586	17.4
502.786	17.5
502.986	17.48
503.186	17.53
503.386	17.51
503.586	17.56
503.786	17.62
503.987	17.65
504.187	17.63
504.387	17.59
504.587	17.6
504.787	17.59
504.987	17.57
505.187	17.63
505.387	17.57
505.587	17.62
505.786	17.59
505.986	17.6
506.186	17.64
506.386	17.7
506.586	17.71
506.786	17.75
506.986	17.82
507.186	17.78
507.386	17.73
507.585	17.8
507.785	17.92
507.985	18.02
508.185	18.01
508.384	17.96
508.584	17.93
508.784	18
508.984	18.05
509.183	18.06
509.383	18.2
509.583	18.24
509.782	18.27
509.982	18.19
510.182	18.18
510.381	18.17
510.581	18.17
510.781	18.32
510.98	18.32
511.18	18.39
511.379	18.39
511.579	18.34
511.778	18.33
511.978	18.34
512.177	18.38
512.377	18.47
512.576	18.5
512.776	18.55
512.975	18.55
513.175	18.51
513.374	18.51
513.573	18.58
513.773	18.61
513.972	18.67
514.172	18.64
514.371	18.67
514.57	18.64
514.77	18.75
514.969	18.78
515.168	18.82
515.367	18.97
515.567	18.94
515.766	18.97
515.965	19.03
516.164	19.06
516.364	19.2
516.563	19.29
516.762	19.38
516.961	19.37
517.16	19.45
517.359	19.51
517.559	19.5
517.758	19.47
517.957	19.44
518.156	19.49
518.355	19.52
518.554	19.48
518.753	19.45
518.952	19.44
519.151	19.41
519.35	19.45
519.549	19.36
519.748	19.36
519.947	19.45
520.146	19.51
520.345	19.51
520.544	19.49
520.743	19.47
520.942	19.58
521.141	19.63
521.339	19.73
521.538	19.73
521.737	19.82
521.936	19.91
522.135	19.98
522.333	20.02
522.532	20.03
522.731	20.19
522.93	20.26
523.129	20.28
523.327	20.26
523.526	20.25
523.725	20.28
523.923	20.33
524.122	20.34
524.321	20.34
524.519	20.39
524.718	20.46
524.917	20.49
525.115	20.55
525.314	20.59
525.512	20.62
525.711	20.72
525.909	20.74
526.108	20.75
526.306	20.84
526.505	20.89
526.703	20.9
526.902	20.91
527.1	20.93
527.299	20.95
527.497	20.99
527.696	21
527.894	21.01
528.092	21.01
528.291	21.03
528.489	21
528.688	21.01
528.886	21.06
529.084	21.12
529.283	21.13
529.481	21.16
529.679	21.17
529.877	21.23
530.076	21.24
530.274	21.32
530.472	21.37
530.67	21.4
530.869	21.42
531.067	21.44
531.265	21.42
531.463	21.5
531.661	21.54
531.859	21.58
532.057	21.6
532.255	21.65
532.454	21.66
532.652	21.7
532.85	21.78
533.048	21.85
533.246	21.92
533.444	21.97
533.642	21.97
533.84	22.01
534.038	22.02
534.236	21.99
534.434	21.98
534.632	22.03
534.83	22.02
535.027	22.05
535.225	22.02
535.423	22.02
535.621	22.07
535.819	22.09
536.017	22.13
536.215	22.21
536.412	22.33
536.61	22.4
536.808	22.42
537.006	22.49
537.203	22.51
537.401	22.65
537.599	22.65
537.797	22.64
537.994	22.74
538.192	22.74
538.39	22.75
538.587	22.75
538.785	22.78
538.983	22.84
539.18	22.92
539.378	22.96
539.575	22.95
539.773	23.05
539.97	23.1
540.168	23.06
540.366	23.09
540.563	23.14
540.761	23.16
540.958	23.23
541.155	23.27
541.353	23.26
541.55	23.29
541.748	23.32
541.945	23.39
542.143	23.41
542.34	23.49
542.537	23.56
542.735	23.59
542.932	23.66
543.129	23.69
543.327	23.69
543.524	23.76
543.721	23.82
543.919	23.88
544.116	23.86
544.313	23.93
544.51	24
544.708	24.04
544.905	24.1
545.102	24.15
545.299	24.18
545.496	24.21
545.693	24.31
545.891	24.31
546.088	24.22
546.285	24.2
546.482	24.2
546.679	24.17
546.876	24.15
547.073	24.19
547.27	24.2
547.467	24.15
547.664	24.21
547.861	24.17
548.058	24.15
548.255	24.34
548.452	24.42
548.649	24.44
548.846	24.43
549.043	24.44
549.24	24.34
549.437	24.26
549.633	24.27
549.83	24.2
550.027	24.19
550.224	24.26
550.421	24.22
550.618	24.22
550.814	24.26
551.011	24.37
551.208	24.37
551.405	24.56
551.601	24.67
551.798	24.76
551.995	24.9
552.191	24.96
552.388	25.02
552.585	25.05
552.781	25.08
552.978	25.08
553.175	25.06
553.371	25.2
553.568	25.13
553.764	25.22
553.961	25.3
554.157	25.33
554.354	25.26
554.55	25.26
554.747	25.29
554.943	25.36
555.14	25.45
555.336	25.5
555.533	25.54
555.729	25.55
555.926	25.4
556.122	25.38
556.318	25.37
556.515	25.47
556.711	25.47
556.907	25.42
557.104	25.38
557.3	25.3
557.496	25.43
557.693	25.38
557.889	25.4
558.085	25.5
558.281	25.53
558.478	25.59
558.674	25.72
558.87	25.77
559.066	25.82
559.262	25.9
559.459	26
559.655	25.97
559.851	26.07
560.047	26.13
560.243	26.17
560.439	26.21
560.635	26.17
560.831	26.09
561.027	26.15
561.223	26.15
561.419	26.09
561.615	26.2
561.811	26.17
562.007	26.18
562.203	26.19
562.399	26.3
562.595	26.24
562.791	26.25
562.987	26.39
563.183	26.28
563.379	26.44
563.575	26.49
563.771	26.38
563.966	26.46
564.162	26.45
564.358	26.4
564.554	26.43
564.75	26.54
564.945	26.56
565.141	26.45
565.337	26.52
565.533	26.58
565.728	26.66
565.924	26.63
566.12	26.59
566.315	26.57
566.511	26.65
566.707	26.67
566.902	26.66
567.098	26.75
567.293	26.81
567.489	26.93
567.684	26.81
567.88	26.74
568.076	26.81
568.271	26.91
568.467	26.89
568.662	26.96
568.858	26.89
569.053	26.98
569.248	26.93
569.444	26.95
569.639	26.91
569.835	27.04
570.03	27.02
570.225	27.08
570.421	27.04
570.616	27.13
570.812	27.16
571.007	27.14
571.202	27.12
571.397	27.14
571.593	27.17
571.788	27.18
571.983	27.14
572.178	27.22
572.374	27.27
572.569	27.2
572.764	27.3
572.959	27.31
573.154	27.35
573.35	27.26
573.545	27.26
573.74	27.23
573.935	27.28
574.13	27.32
574.325	27.42
574.52	27.4
574.715	27.49
574.91	27.4
575.105	27.42
575.3	27.44
575.495	27.54
575.69	27.57
575.885	27.65
576.08	27.6
576.275	27.56
576.47	27.53
576.665	27.48
576.86	27.41
577.055	27.57
577.25	27.6
577.444	27.65
577.639	27.67
577.834	27.76
578.029	27.79
578.224	27.76
578.418	27.8
578.613	27.77
578.808	27.78
579.003	27.9
579.197	27.81
579.392	27.78
579.587	27.92
579.781	27.97
579.976	27.96
580.171	27.92
580.365	27.9
580.56	27.98
580.755	27.95
580.949	28.13
581.144	28.25
581.338	28.19
581.533	28.19
581.727	28.23
581.922	28.05
582.116	28.14
582.311	28.06
582.505	28.29
582.7	28.36
582.894	28.5
583.089	28.41
583.283	28.4
583.478	28.44
583.672	28.5
583.866	28.34
584.061	28.44
584.255	28.34
584.449	28.49
584.644	28.41
584.838	28.3
585.032	28.21
585.226	28.22
585.421	28.25
585.615	28.32
585.809	28.34
586.003	28.54
586.198	28.64
586.392	28.73
586.586	28.87
586.78	29.01
586.974	29.01
587.168	29.21
587.363	29.19
587.557	29.14
587.751	29.09
587.945	28.95
588.139	28.83
588.333	28.9
588.527	28.89
588.721	28.88
588.915	28.76
589.109	28.84
589.303	28.66
589.497	28.66
589.691	28.68
589.885	28.74
590.079	28.84
590.273	28.9
590.466	28.87
590.66	28.81
590.854	28.74
591.048	28.75
591.242	28.8
591.436	28.83
591.629	28.99
591.823	29.09
592.017	29.08
592.211	29.15
592.404	29.02
592.598	29.02
592.792	29.11
592.986	29.17
593.179	29.2
593.373	29.17
593.567	29.2
593.76	29.13
593.954	29.21
594.147	29.25
594.341	29.35
594.535	29.53
594.728	29.63
594.922	29.58
595.115	29.52
595.309	29.6
595.502	29.65
595.696	29.73
595.889	29.79
596.083	29.7
596.276	29.7
596.47	29.61
596.663	29.58
596.856	29.62
597.05	29.69
597.243	29.68
597.437	29.64
597.63	29.68
597.823	29.66
598.017	29.69
598.21	29.65
598.403	29.61
598.596	29.65
598.79	29.64
598.983	29.45
599.176	29.54
599.369	29.53
599.563	29.55
599.756	29.58
599.949	29.48
600.142	29.42
600.335	29.36
600.528	29.38
600.722	29.5
600.915	29.6
601.108	29.76
601.301	29.68
601.494	29.83
601.687	29.89
601.88	29.83
602.073	29.91
602.266	29.94
602.459	30.12
602.652	30.19
602.845	30.14
603.038	30.05
603.231	30.07
603.424	30.12
603.617	30.02
603.809	30.05
604.002	30
604.195	29.94
604.388	29.87
604.581	29.89
604.774	29.91
604.966	29.81
605.159	29.7
605.352	29.65
605.545	29.67
605.737	29.74
605.93	29.67
606.123	29.83
606.316	29.97
606.508	30.04
606.701	30.04
606.894	30.1
607.086	30.16
607.279	30.34
607.471	30.49
607.664	30.33
607.857	30.37
608.049	30.52
608.242	30.45
608.434	30.55
608.627	30.77
608.819	30.91
609.012	31.09
609.204	31.33
609.397	31.65
609.589	31.9
609.782	32.32
609.974	32.63
610.166	32.99
610.359	33.26
610.551	33.66
610.743	33.88
610.936	34.12
611.128	34.37
611.32	34.57
611.513	34.55
611.705	34.51
611.897	34.47
612.09	34.45
612.282	34.23
612.474	34.27
612.666	34.12
612.858	33.95
613.051	33.71
613.243	33.41
613.435	33.31
613.627	33.34
613.819	33.37
614.011	33.34
614.203	33.19
614.395	33.16
614.588	33
614.78	32.68
614.972	32.64
615.164	32.62
615.356	32.56
615.548	32.36
615.74	32.17
615.932	32.08
616.124	31.8
616.315	31.65
616.507	31.49
616.699	31.44
616.891	31.31
617.083	31.01
617.275	30.98
617.467	31.06
617.659	30.96
617.85	30.96
618.042	31
618.234	30.99
618.426	31.05
618.618	31.14
618.809	31.06
619.001	31.07
619.193	31.15
619.384	31.01
619.576	30.79
619.768	30.8
619.959	30.81
620.151	30.65
620.343	30.91
620.534	31.02
620.726	31.03
620.917	31.15
621.109	31.45
621.301	31.47
621.492	31.64
621.684	31.68
621.875	31.89
622.067	31.98
622.258	31.86
622.45	31.63
622.641	31.49
622.832	31.54
623.024	31.41
623.215	31.4
623.407	31.4
623.598	31.5
623.789	31.65
623.981	31.55
624.172	31.59
624.363	31.81
624.555	32.01
624.746	32.02
624.937	31.85
625.129	31.88
625.32	31.82
625.511	31.87
625.702	31.72
625.893	31.72
626.085	31.9
626.276	31.92
626.467	31.94
626.658	31.76
626.849	31.7
627.04	31.78
627.231	31.89
627.422	31.94
627.614	32.02
627.805	32.03
627.996	32.02
628.187	32.06
628.378	31.9
628.569	31.89
628.76	31.9
628.951	32.01
629.142	32.13
629.332	32.07
629.523	32.06
629.714	32.06
629.905	32.27
630.096	32.19
630.287	31.89
630.478	31.97
630.669	31.94
630.859	32.04
631.05	32.18
631.241	32.01
631.432	32.02
631.623	32.05
631.813	32.08
632.004	31.83
632.195	31.96
632.385	32.15
632.576	32.25
632.767	32.32
632.957	32.36
633.148	32.32
633.339	32.28
633.529	32.18
633.72	32.08
633.91	31.88
634.101	31.95
634.292	31.68
634.482	31.5
634.673	31.52
634.863	31.32
635.054	31.28
635.244	31.26
635.435	31.44
635.625	31.52
635.815	31.52
636.006	31.75
636.196	31.87
636.387	32.14
636.577	32.41
636.767	32.26
636.958	32.3
637.148	32.25
637.338	32.2
637.529	32.12
637.719	32.06
637.909	32.05
638.099	32.03
638.29	31.93
638.48	31.81
638.67	31.84
638.86	31.82
639.05	31.79
639.241	31.74
639.431	31.65
639.621	31.67
639.811	31.87
640.001	31.93
640.191	31.89
640.381	32.03
640.571	32
640.761	31.83
640.951	31.83
641.141	31.88
641.331	32.1
641.521	32.24
641.711	32.52
641.901	32.59
642.091	32.67
642.281	32.7
642.471	32.52
642.661	32.79
642.851	32.72
643.041	32.92
643.231	33.04
643.42	32.95
643.61	32.96
643.8	32.54
643.99	32.3
644.18	32.4
644.369	32.6
644.559	32.67
644.749	32.44
644.939	32.47
645.128	32.27
645.318	32.43
645.508	32.53
645.697	32.45
645.887	32.54
646.076	32.62
646.266	32.68
646.456	32.58
646.645	32.66
646.835	32.78
647.024	32.92
647.214	32.99
647.403	32.83
647.593	32.85
647.782	33.09
647.972	33.22
648.161	33.39
648.351	33.36
648.54	33.29
648.73	33.32
648.919	33.3
649.108	33.3
649.298	33.35
649.487	33.44
649.677	33.5
649.866	33.18
650.055	33.24
650.244	33.04
650.434	32.99
650.623	33.06
650.812	33.16
651.002	33.16
651.191	33.32
651.38	33.57
651.569	33.56
651.758	33.45
651.947	33.97
652.137	34.03
652.326	34.14
652.515	34.08
652.704	33.95
652.893	33.6
653.082	33.63
653.271	33.42
653.46	33.23
653.649	33.05
653.838	32.98
654.027	32.6
654.216	32.51
654.405	32.4
654.594	32.34
654.783	32.16
654.972	32.44
655.161	32.63
655.35	32.67
655.539	32.53
655.728	32.83
655.916	32.76
656.105	32.9
656.294	32.94
656.483	32.98
656.672	33.12
656.86	33.44
657.049	33.45
657.238	33.25
657.427	33.23
657.615	33.38
657.804	33.35
657.993	33.53
658.181	33.39
658.37	33.25
658.559	33.34
658.747	33.36
658.936	33.46
659.125	33.23
659.313	33.33
659.502	33.35
659.69	33.36
659.879	33.41
660.067	33.38
660.256	33.4
660.444	33.58
660.633	33.59
660.821	33.49
661.01	33.44
661.198	33.6
661.387	33.48
661.575	33.45
661.763	33.44
661.952	33.36
662.14	33.12
662.328	33.29
662.517	33.34
662.705	33.42
662.893	33.58
663.082	33.52
663.27	33.62
663.458	33.96
663.646	34.04
663.834	34.25
664.023	34.23
664.211	34.55
664.399	34.51
664.587	34.49
664.775	34.65
664.963	34.52
665.152	34.52
665.34	34.6
665.528	34.5
665.716	34.52
665.904	34.2
666.092	34.1
666.28	34.23
666.468	34.19
666.656	34.06
666.844	33.75
667.032	33.52
667.22	33.77
667.408	33.65
667.596	33.47
667.784	33.32
667.971	33.38
668.159	33.46
668.347	33.33
668.535	33.23
668.723	33.26
668.911	33.44
669.098	34.06
669.286	33.64
669.474	33.9
669.662	33.85
669.849	34.01
670.037	34.15
670.225	34.18
670.413	34.32
670.6	34.27
670.788	34.24
670.976	34.27
671.163	34.01
671.351	34.06
671.538	33.88
671.726	33.97
671.913	33.99
672.101	33.88
672.289	34.1
672.476	34.22
672.664	34.52
672.851	34.52
673.039	34.47
673.226	34.52
673.413	34.74
673.601	34.92
673.788	34.93
673.976	34.91
674.163	35.02
674.35	35.08
674.538	34.84
674.725	34.8
674.912	34.75
675.1	34.68
675.287	34.65
675.474	34.82
675.662	34.62
675.849	34.87
676.036	35.16
676.223	35.04
676.411	34.75
676.598	34.8
676.785	34.9
676.972	35.12
677.159	35.15
677.346	35.29
677.533	35.34
677.721	35.63
677.908	35.45
678.095	35.32
678.282	35.34
678.469	35.19
678.656	34.96
678.843	35.07
679.03	35.07
679.217	35.4
679.404	35.26
679.591	35.08
679.778	35.05
679.964	35.11
680.151	35.05
680.338	35.16
680.525	35.42
680.712	35.67
680.899	35.75
681.086	35.91
681.272	35.75
681.459	35.79
681.646	35.83
681.833	35.83
682.02	35.62
682.206	35.65
682.393	35.62
682.58	35.55
682.766	35.6
682.953	35.4
683.14	35.19
683.326	35.22
683.513	35.24
683.7	35.09
683.886	34.95
684.073	35.09
684.259	35.04
684.446	35.1
684.632	35.37
684.819	35.45
685.005	35.44
685.192	35.37
685.378	35.41
685.565	35.43
685.751	35.77
685.938	35.87
686.124	35.94
686.31	35.97
686.497	35.92
686.683	35.78
686.87	35.89
687.056	35.91
687.242	36.05
687.429	35.92
687.615	35.9
687.801	35.71
687.987	35.99
688.174	36.15
688.36	36.25
688.546	36.3
688.732	36.35
688.918	36.07
689.105	36.14
689.291	36.19
689.477	36.32
689.663	36.58
689.849	36.64
690.035	36.32
690.221	36.31
690.407	36.18
690.593	36.11
690.779	35.76
690.965	35.84
691.151	35.57
691.337	35.46
691.523	35.35
691.709	35.02
691.895	35.23
692.081	35.12
692.267	35.1
692.453	35.35
692.639	35.45
692.825	35.75
693.011	35.87
693.196	36.19
693.382	36.48
693.568	36.75
693.754	36.75
693.94	36.57
694.125	36.62
694.311	36.9
694.497	36.88
694.682	36.75
694.868	36.7
695.054	36.8
695.239	36.84
695.425	36.58
695.611	36.23
695.796	36.45
695.982	36.43
696.168	36.47
696.353	36.13
696.539	36.1
696.724	36.19
696.91	36.37
697.095	36.15
697.281	35.98
697.466	36.32
697.652	36.43
697.837	36.33
698.023	36.4
698.208	36.75
698.393	36.9
698.579	36.96
698.764	36.95
698.949	36.76
699.135	36.92
699.32	36.87
699.505	36.64
699.691	36.58
699.876	36.75
700.061	36.64
700.246	36.36
700.432	36.38
700.617	36.28
700.802	36.38
700.987	36.59
701.172	36.67
701.358	36.93
701.543	37.19
701.728	37.36
701.913	36.99
702.098	37.32
702.283	37.23
702.468	37.05
702.653	37.02
702.838	37.22
703.023	37.36
703.208	36.94
703.393	36.74
703.578	36.71
703.763	36.6
703.948	37.19
704.133	36.95
704.318	36.96
704.503	37.46
704.688	37.62
704.873	37.46
705.057	37.58
705.242	37.8
705.427	38.05
705.612	38.07
705.797	38.55
705.981	38.27
706.166	38.62
706.351	38.91
706.536	38.47
706.72	38.33
706.905	38.51
707.09	38.08
707.274	38.05
707.459	38.07
707.644	38.31
707.828	38.05
708.013	38.15
708.197	38.3
708.382	37.93
708.567	38.14
708.751	38.07
708.936	37.82
709.12	37.9
709.305	38.24
709.489	38.24
709.673	38.13
709.858	38.04
710.042	37.96
710.227	37.62
710.411	37.91
710.596	38.14
710.78	38.1
710.964	38.26
711.149	38.36
711.333	38.49
711.517	38.59
711.702	38.4
711.886	38.22
712.07	38.62
712.254	38.93
712.438	38.91
712.623	38.5
712.807	38.78
712.991	38.53
713.175	38.71
713.359	38.39
713.544	37.95
713.728	38.17
713.912	38.35
714.096	37.93
714.28	37.69
714.464	37.59
714.648	37.69
714.832	37.48
715.016	37.82
715.2	37.58
715.384	37.69
715.568	37.92
715.752	37.85
715.936	37.93
716.12	37.9
716.304	37.85
716.488	37.83
716.671	37.66
716.855	37.35
717.039	37.02
717.223	36.93
717.407	36.65
717.59	36.52
717.774	36.16
717.958	35.99
718.142	35.89
718.325	36.05
718.509	36.01
718.693	36.14
718.877	36.7
719.06	36.75
719.244	37.05
719.428	37.3
719.611	37.24
719.795	37.6
719.978	37.81
720.162	38.02
720.345	38.03
720.529	38.42
720.713	38.66
720.896	38.38
721.08	38.14
721.263	37.9
721.446	37.87
721.63	37.69
721.813	37.56
721.997	37.49
722.18	37.1
722.364	36.72
722.547	36.39
722.73	36.11
722.914	36.33
723.097	36.67
723.28	36.97
723.464	37.06
723.647	37.37
723.83	37.37
724.013	37.18
724.197	37.82
724.38	38.26
724.563	38.35
724.746	38.42
724.929	38.93
725.112	38.71
725.296	38.76
725.479	38.42
725.662	38.86
725.845	38.57
726.028	38.8
726.211	38.57
726.394	38.01
726.577	38.05
726.76	38.29
726.943	37.73
727.126	37.81
727.309	37.62
727.492	37.97
727.675	37.69
727.858	37.83
728.041	37.84
728.224	37.77
728.407	37.98
728.589	37.88
728.772	37.56
728.955	37.48
729.138	37.25
729.321	37.05
729.503	37.02
729.686	37.2
729.869	37.19
730.052	36.97
730.234	36.93
730.417	37.31
730.6	37.26
730.782	37.53
730.965	37.72
731.148	38.13
731.33	38.17
731.513	37.87
731.695	37.48
731.878	37.86
732.061	38.02
732.243	38.49
732.426	38.41
732.608	38.92
732.791	39.02
732.973	38.94
733.156	38.87
733.338	39.18
733.52	39.35
733.703	39.36
733.885	39.26
734.068	39.13
734.25	38.7
734.432	38.78
734.615	38.49
734.797	38.86
734.979	38.99
735.162	39.22
735.344	39.13
735.526	38.95
735.708	39.38
735.891	39.98
736.073	39.96
736.255	40.09
736.437	39.88
736.619	39.68
736.802	38.66
736.984	39.29
737.166	39.38
737.348	39.33
737.53	39.37
737.712	38.83
737.894	38.13
738.076	38.69
738.258	38.94
738.44	39.04
738.622	39.38
738.804	40.16
738.986	39.63
739.168	39.44
739.35	39.95
739.532	40.68
739.714	40.68
739.896	40.38
740.078	40.47
740.259	40.42
740.441	39.96
740.623	39.39
740.805	39.03
740.987	39.25
741.168	39.16
741.35	38.99
741.532	38.35
741.714	38.58
741.895	38.8
742.077	38.39
742.259	38.73
742.44	39.11
742.622	39.44
742.804	39.55
742.985	39.31
743.167	39.04
743.348	39.31
743.53	39.44
743.711	39.65
743.893	39.64
744.075	39.98
744.256	39.26
744.438	39.29
744.619	39.22
744.8	38.9
744.982	38.9
745.163	39.26
745.345	38.46
745.526	38.98
745.707	38.86
745.889	38.78
746.07	38.51
746.252	39.32
746.433	39.64
746.614	40.05
746.795	40.37
746.977	40.5
747.158	40.59
747.339	41.04
747.52	40.3
747.702	40.75
747.883	40.34
748.064	40.42
748.245	39.35
748.426	38.77
748.607	38.49
748.788	38.46
748.97	38.48
749.151	38.8
749.332	39.3
749.513	40.11
749.694	40.47
749.875	41.43
750.056	41.03
750.237	41.23
750.418	41.65
750.599	41.65
750.78	41.68
750.96	41.74
751.141	40.97
751.322	39.84
751.503	38.97
751.684	38.21
751.865	37.99
752.046	37.96
752.226	37.84
752.407	37.28
752.588	37.46
752.769	37.35
752.949	36.95
753.13	37.37
753.311	37.59
753.492	37.94
753.672	38.05
753.853	38.12
754.034	38.24
754.214	38.61
754.395	38.55
754.575	38.31
754.756	38.5
754.937	38.99
755.117	39.34
755.298	40.06
755.478	40.45
755.659	39.9
755.839	39.83
756.02	39.82
756.2	39.99
756.381	40.76
756.561	40.73
756.741	41.03
756.922	40.8
757.102	40.16
757.283	39.35
757.463	39.42
757.643	39.83
757.823	39.35
758.004	39.32
758.184	38.64
758.364	38.53
758.545	38.49
758.725	38.01
758.905	37.92
759.085	37.64
759.265	37.3
759.446	36.2
759.626	36.05
759.806	36.39
759.986	36.67
760.166	36.86
760.346	36.48
760.526	36.84
760.706	36.32
760.886	36.36
761.066	36.78
761.246	36.81
761.426	37.48
761.606	37.28
761.786	37.12
761.966	37.27
762.146	37.43
762.326	37.59
762.506	37.6
762.686	38.09
762.866	38.22
763.046	38.36
763.225	38.78
763.405	38.73
763.585	38.72
763.765	38.64
763.945	38.47
764.124	38.42
764.304	38.47
764.484	38.12
764.664	38.09
764.843	38.21
765.023	38.23
765.203	38.09
765.382	37.98
765.562	38.55
765.741	38.56
765.921	38.56
766.101	38.74
766.28	39.04
766.46	39.31
766.639	39.3
766.819	39.17
766.998	39.09
767.178	39.49
767.357	40.22
767.537	40.3
767.716	41
767.896	41.4
768.075	41.64
768.254	41.09
768.434	41.34
768.613	41.12
768.792	40.78
768.972	40.76
769.151	40.45
769.33	39.61
769.51	39.96
769.689	39.38
769.868	39.77
770.047	40.24
770.226	40.31
770.406	39.94
770.585	40.22
770.764	40.61
770.943	40.89
771.122	40.79
771.301	41.12
771.48	41.46
771.66	41.62
771.839	41.09
772.018	40.98
772.197	40.99
772.376	40.89
772.555	41.1
772.734	40.57
772.913	40.78
773.092	40.56
773.271	40.94
773.449	39.72
773.628	39.63
773.807	39.35
773.986	38.59
774.165	39.01
774.344	39.81
774.523	39.42
774.701	39.67
774.88	39.34
775.059	39.92
775.238	40.01
775.417	40.37
775.595	39.96
775.774	40.02
775.953	40.07
776.131	40.1
776.31	39.92
776.489	39.8
776.667	39.95
776.846	40.48
777.025	40.48
777.203	40.5
777.382	40.42
777.56	40.86
777.739	40.7
777.917	40.34
778.096	40.39
778.274	40.34
778.453	40.99
778.631	41
778.81	40.03
778.988	40.18
779.166	39.64
779.345	40.37
779.523	40.17
779.702	41.64
779.88	42.47
780.058	42.36
780.237	42.38
780.415	42.32
780.593	42.24
780.771	42.77
780.95	42.91
781.128	42.66
781.306	42.11
781.484	42.81
781.662	42.01
781.841	41.05
782.019	40.99
782.197	41.11
782.375	41.1
782.553	41.5
782.731	41.83
782.909	41.89
783.087	42.25
783.265	42.01
783.443	41.62
783.621	41.92
783.799	43.47
783.977	43.23
784.155	41.76
784.333	41.19
784.511	41.21
784.689	39.01
784.867	38.46
785.045	38.82
785.223	38.92
785.4	39.12
785.578	38.36
785.756	37.52
785.934	37.11
786.112	39.04
786.289	39.99
786.467	40.12
786.645	42.1
786.823	41.79
787	41.17
787.178	40.53
787.356	40.03
787.533	40.72
787.711	40.18
787.889	41.04
788.066	39.61
788.244	38.36
788.421	37.85
788.599	37.16
788.776	37.98
788.954	37.69
789.131	38.01
789.309	38.02
789.486	37.7
789.664	38.14
789.841	38.36
790.019	38.77
790.196	39.36
790.373	38.53
790.551	38.43
790.728	37.39
790.906	37.73
791.083	37.61
791.26	37.46
791.437	36.94
791.615	37.09
791.792	36.51
791.969	36.66
792.146	36.46
792.324	38.09
792.501	37.95
792.678	38.22
792.855	38.33
793.032	37.64
793.209	37.66
793.387	38.47
793.564	37.61
793.741	36.72
793.918	37.07
794.095	36.24
794.272	34.95
794.449	35.63
794.626	36.5
794.803	36.56
794.98	37.05
795.157	36.55
795.334	36.24
795.511	36.31
795.688	36.8
795.864	35.01
796.041	36.07
796.218	36.07
796.395	36.21
796.572	35.37
796.749	34.87
796.925	35.15
797.102	35.77
797.279	35.27
797.456	35.13
797.632	35.8
797.809	36.89
797.986	35.61
798.162	36.48
798.339	36.12
798.516	35.62
798.692	36.6
798.869	36.27
799.046	36.79
799.222	36.51
799.399	36.43
799.575	35.53
799.752	35.14
799.928	35.79
800.105	35.62
800.281	36.64
800.458	37.46
800.634	37.36
800.811	36.91
800.987	36.44
801.163	36
801.34	35.81
801.516	36.47
801.692	36.88
801.869	37.53
802.045	37.82
802.221	35.84
802.398	35.86
802.574	35.63
802.75	36.17
802.926	36.24
803.103	36.78
803.279	37
803.455	37.04
803.631	37.75
803.807	37.42
803.983	37.59
804.16	37.77
804.336	37.12
804.512	36.62
804.688	36.73
804.864	36.55
805.04	36.82
805.216	37.36
805.392	36.63
805.568	35.39
805.744	34.82
805.92	34.16
806.096	35.09
806.272	35.3
806.448	35.8
806.623	35.87
806.799	36.17
806.975	35.81
807.151	36.59
807.327	36.68
807.503	37.33
807.678	38.25
807.854	38.89
808.03	39.18
808.206	38.7
808.381	37.87
808.557	38.39
808.733	38.48
808.908	38.7
809.084	38.01
809.26	37.88
809.435	36.63
809.611	36.94
809.787	35.72
809.962	34.89
810.138	35.44
810.313	36.97
810.489	36.65
810.664	36.23
810.84	35.89
811.015	36.32
811.191	36.17
811.366	37.52
811.542	37.04
811.717	37.55
811.892	38.62
812.068	37.93
812.243	36.5
812.419	36.12
812.594	36.53
812.769	36.08
812.944	36.05
813.12	35.87
813.295	34.84
813.47	35.49
813.645	34.76
813.821	34.37
813.996	35.42
814.171	35.68
814.346	36.39
814.521	35.48
814.697	36.25
814.872	35.07
815.047	36.29
815.222	38.15
815.397	37.24
815.572	37.03
815.747	36.16
815.922	36.55
816.097	36.5
816.272	37.23
816.447	36.97
816.622	38.06
816.797	39.01
816.972	37.81
817.147	38.94
817.322	38.74
817.496	38.6
817.671	38.56
817.846	39.27
818.021	39.79
818.196	37.55
818.371	38.15
818.545	37.6
818.72	37.14
818.895	37.5
819.069	35.51
819.244	35.65
819.419	36.7
819.594	36.56
819.768	34.96
819.943	35.74
820.117	36.15
820.292	36.49
820.467	36.34
820.641	36.13
820.816	36.5
820.99	36.45
821.165	36.19
821.339	35.54
821.514	35.47
821.688	35.64
821.863	35.06
822.037	34.99
822.212	34.8
822.386	34.83
822.56	34.93
822.735	34.52
822.909	34.37
823.084	34.34
823.258	34.4
823.432	34.44
823.606	34.32
823.781	34.44
823.955	34.63
824.129	34.78
824.303	34.7
824.478	34.46
824.652	34.94
824.826	34.96
825	34.96
825.174	34.93
825.348	35.34
825.523	35.04
825.697	34.53
825.871	34.36
826.045	34.13
826.219	34.76
826.393	34.68
826.567	34.26
826.741	34.7
826.915	34.99
827.089	34.96
827.263	34.73
827.437	35.01
827.611	35.38
827.784	34.96
827.958	34.68
828.132	33.83
828.306	33.84
828.48	33.9
828.654	34.17
828.827	34.21
829.001	34.1
829.175	33.96
829.349	34.02
829.522	33.3
829.696	34.39
829.87	35.1
830.044	35.59
830.217	36.27
830.391	35.63
830.565	35.07
830.738	34.32
830.912	34.28
831.085	34.68
831.259	34.48
831.432	35.36
831.606	35.36
831.779	35.1
831.953	34.8
832.126	33.89
832.3	34.91
832.473	35.02
832.647	35.18
832.82	34.74
832.994	34.32
833.167	34.72
833.34	35.01
833.514	34.71
833.687	34.03
833.86	33.34
834.034	33.55
834.207	33.8
834.38	33.64
834.553	33.97
834.727	34.22
834.9	34.02
835.073	33.76
835.246	33.59
835.419	33.62
835.593	34.18
835.766	35.05
835.939	35.73
836.112	35.81
836.285	35.91
836.458	34.36
836.631	34.68
836.804	33.96
836.977	33.71
837.15	33.33
837.323	32.05
837.496	31.46
837.669	29.85
837.842	30.1
838.015	27.95
838.188	27.16
838.361	28.89
838.533	29.09
838.706	29.98
838.879	30.62
839.052	31.18
839.225	31.57
839.398	32.92
839.57	35.07
839.743	33.27
839.916	35.83
840.088	35.63
840.261	36.44
840.434	35.63
840.607	36.22
840.779	35.61
840.952	34.66
841.124	33.78
841.297	33.39
841.47	32.01
841.642	32.72
841.815	30.8
841.987	29.9
842.16	28.12
842.332	31.11
842.505	30.45
842.677	30.92
842.85	32.95
843.022	35.3
843.194	36.72
843.367	38.99
843.539	37.06
843.712	35.53
843.884	37.52
844.056	39.48
844.229	37.13
844.401	38.46
844.573	39.72
844.745	40.79
844.918	37.86
845.09	35.2
845.262	33.73
845.434	34.91
845.606	35.54
845.779	36.02
845.951	34.4
846.123	35.21
846.295	33.51
846.467	31.51
846.639	28.63
846.811	32.97
846.983	33.98
847.155	32.77
847.327	33.56
847.499	34.15
847.671	32.53
847.843	33.78
848.015	32.24
848.187	33.25
848.359	31.97
848.531	34.52
848.703	32.99
848.875	32.05
849.047	32.83
849.218	31.55
849.39	30.42
849.562	29.9
849.734	27.78
849.905	28.73
850.077	29.88
850.249	30.52
850.421	28.2
850.592	27.28
850.764	26.43
850.936	23.99
851.107	25.93
851.279	29.39
851.451	33.14
851.622	35.11
851.794	35.18
851.965	33.55
852.137	35.98
852.308	36.28
852.48	34.39
852.651	35.47
852.823	38.16
852.994	39.71
853.166	35.4
853.337	32.9
853.509	32.43
853.68	31.49
853.851	30.61
854.023	27.53
854.194	25.96
854.365	31.09
854.537	31.78
854.708	30.19
854.879	27.83
855.05	31.31
855.222	32.18
855.393	33.89
855.564	33.68
855.735	34.2
855.906	35.7
856.078	36.73
856.249	27.1
856.42	27.77
856.591	32.22
856.762	34.81
856.933	35.88
857.104	34.47
857.275	31.5
857.446	32.09
857.617	32.01
857.788	35.18
857.959	34.69
858.13	41.23
858.301	38.66
858.472	34.19
858.643	33.26
858.814	30.95
858.985	32.42
859.155	33.04
859.326	31.93
859.497	33.23
859.668	30.3
859.839	28.71
860.009	25.6
860.18	27.59
860.351	29.7
860.522	28.06
860.692	28.02
860.863	25.46
861.034	28.3
861.204	31.24
861.375	32.15
861.546	36.91
861.716	39.39
861.887	45.34
862.057	46.46
862.228	45.35
862.398	44.81
862.569	51.17
862.739	50.65
862.91	49.86
863.08	46.12
863.251	44.34
863.421	40.05
863.592	39.47
863.762	35.19
863.932	31.98
864.103	28.55
864.273	30.48
864.443	21.96
864.614	20.85
864.784	14.78
864.954	15.84
865.125	12.42
865.295	13.57
865.465	9.79
865.635	13.89
865.805	13.88
865.976	20.92
866.146	21.4
866.316	22.23
866.486	26.93
866.656	30.66
866.826	33.03
866.996	34.62
867.166	34.07
867.336	37.03
867.506	35.41
867.676	35.55
867.846	36.63
868.016	35.14
868.186	36.03
868.356	32.94
868.526	33.77
868.696	33.39
868.866	32.95
869.036	31.47
869.206	29.69
869.376	30.4
869.545	31.67
869.715	26.28
869.885	27.5
870.055	29.48
870.224	31.45
870.394	26.46
870.564	22.89
870.734	22.26
870.903	23.23
871.073	21.71
871.243	18.55
871.412	18.72
871.582	22.13
871.751	22.19
871.921	19.3
872.091	17.65
872.26	20.66
872.43	19.96
872.599	18.93
872.769	20.78
872.938	21.84
873.108	20.21
873.277	16.58
873.446	15.05
873.616	13.93
873.785	16.42
873.955	18.62
874.124	16.6
874.293	23.02
874.463	23.24
874.632	25.32
874.801	28.15
874.971	31.06
875.14	28.42
875.309	28.03
875.478	26.15
875.647	24.63
875.817	23.25
875.986	25.55
876.155	23.97
876.324	26.31
876.493	23.32
876.662	21.29
876.831	23.82
877	27.09
877.17	26.54
877.339	31.25
877.508	32.15
877.677	33.5
877.846	35.91
878.015	33.27
878.184	34.72
878.352	37.87
878.521	37.23
878.69	32.69
878.859	35.82
879.028	35.08
879.197	33.96
879.366	33.29
879.534	31.59
879.703	29.24
879.872	29.46
880.041	28.24
880.21	25.88
880.378	26.78
880.547	28.29
880.716	28.5
880.884	28.85
881.053	28.27
881.222	28.01
881.39	28.51
881.559	28.85
881.727	29.4
881.896	29.45
882.065	29.51
882.233	30.14
882.402	30.11
882.57	29.29
882.739	29.08
882.907	29.37
883.076	30.03
883.244	29.5
883.412	29.32
883.581	29.14
883.749	28.27
883.918	27.95
884.086	27.22
884.254	26.6
884.423	27.03
884.591	26.63
884.759	26.09
884.927	24.87
885.096	24.9
885.264	24.04
885.432	23.71
885.6	23.75
885.769	24.47
885.937	23.76
886.105	23.77
886.273	23.62
886.441	25.72
886.609	27.35
886.777	27.53
886.945	29.76
887.113	30.36
887.281	31.86
887.449	33.32
887.617	32.61
887.785	34.53
887.953	33.88
888.121	34.49
888.289	28.21
888.457	25.89
888.625	28.05
888.793	26.38
888.961	24.99
889.129	21.9
889.296	21.13
889.464	21.97
889.632	20.14
889.8	22.28
889.967	20.45
890.135	29.54
