Data from 2938812__Reflection_01.txt Node
Date: Thu Mar 12 16:43:58 EDT 2015
User: robert
Spectrometer: USB4E03002
Autoset integration time: false
Trigger mode: 4
Integration Time (sec): 1.000000E-1
Scans to average: 10
Electric dark correction enabled: false
Nonlinearity correction enabled: false
Boxcar width: 5
Stray light correction enabled: false
XAxis mode: Wavelengths
Stop averaging: false
Number of Pixels in Spectrum: 3648
>>>>>Begin Spectral Data<<<<<
177.575	9.74
177.794	109.88
178.014	-261.9
178.233	447.62
178.452	2575
178.672	338.46
178.891	-88.57
179.11	-331.48
179.33	-144.95
179.549	-343.48
179.768	-27.49
179.987	42.18
180.207	138.27
180.426	203.33
180.645	-15.66
180.864	2.33
181.084	35
181.303	102.16
181.522	142.86
181.741	178.4
181.96	133.33
182.179	-61.11
182.398	261.4
182.618	-59.74
182.837	-89.8
183.056	35.08
183.275	43.02
183.494	89.74
183.713	-2200
183.932	-85.47
184.151	-30.72
184.37	10.21
184.589	42.76
184.808	49.8
185.027	51.33
185.246	44.22
185.465	31.27
185.684	41.8
185.903	-25.2
186.122	-123.98
186.341	632.2
186.56	2500
186.779	104.79
186.998	120.82
187.216	116.25
187.435	92.46
187.654	100.81
187.873	140.95
188.092	194.64
188.311	217.57
188.53	129.4
188.748	86.86
188.967	80.88
189.186	162.96
189.405	513.51
189.623	-155.56
189.842	43.2
190.061	85.07
190.28	95.76
190.498	126.7
190.717	102.1
190.936	90.5
191.154	54.83
191.373	43.63
191.592	50.47
191.81	41.14
192.029	36.85
192.248	30.81
192.466	9.69
192.685	15.85
192.904	-13.66
193.122	16.06
193.341	-13.72
193.559	12.06
193.778	2.68
193.996	-17.6
194.215	-1.2
194.433	-4.08
194.652	9.34
194.87	-19.42
195.089	-4.81
195.307	9.78
195.526	17.52
195.744	10.02
195.963	39.1
196.181	130.08
196.399	113.93
196.618	113.55
196.836	415.07
197.055	129.31
197.273	200.49
197.491	121.09
197.71	92.86
197.928	122.9
198.146	44.78
198.365	-6.38
198.583	-371.28
198.801	-264.66
199.019	-59.94
199.238	-19.27
199.456	-92.22
199.674	-78.46
199.892	-189.47
200.111	-28.57
200.329	-70.59
200.547	29.34
200.765	36.61
200.983	55.16
201.202	53.44
201.42	434.48
201.638	-14000
201.856	-313.46
202.074	2160
202.292	-515.62
202.51	-149.64
202.728	-40
202.946	-196.97
203.165	-71.79
203.383	-66.53
203.601	4.43
203.819	20.51
204.037	24.74
204.255	26.14
204.473	44.56
204.691	41.07
204.909	21.3
205.127	-11.73
205.345	47.46
205.562	56.73
205.78	113.46
205.998	115.62
206.216	66.35
206.434	151.53
206.652	-1213.04
206.87	-316.28
207.088	16.49
207.306	-105.85
207.523	-388.17
207.741	-616
207.959	278.85
208.177	113.68
208.395	104.04
208.612	74.04
208.83	76.15
209.048	72.44
209.266	68.04
209.483	52.52
209.701	47.13
209.919	29.2
210.136	25.02
210.354	9.78
210.572	-18.54
210.79	-9.1
211.007	-24.35
211.225	-49.1
211.442	-57.91
211.66	-59.51
211.878	-10.06
212.095	-94.94
212.313	-79.5
212.53	-66.53
212.748	-61.73
212.966	-40.38
213.183	-41.99
213.401	-42.09
213.618	-48.65
213.836	-49.52
214.053	-46.54
214.271	-62.79
214.488	15.62
214.705	11.27
214.923	1.18
215.14	12.42
215.358	17.58
215.575	1.65
215.793	1.25
216.01	-3.89
216.227	-14.14
216.445	-9.65
216.662	-33.79
216.879	-56.48
217.097	-85.23
217.314	-44.17
217.531	-40.73
217.749	-41.63
217.966	-35.72
218.183	-19.07
218.4	-19.22
218.618	-9.38
218.835	-12.69
219.052	2.58
219.269	15.12
219.487	20.62
219.704	18
219.921	14.43
220.138	0.33
220.355	-6.97
220.572	-15.41
220.79	-3.75
221.007	-5.84
221.224	-19.16
221.441	-15.58
221.658	-17
221.875	-10.93
222.092	-21.21
222.309	-17.37
222.526	-2.99
222.743	1.36
222.96	-3.72
223.177	-17.31
223.394	-9.84
223.611	-10.46
223.828	-13.88
224.045	-12.21
224.262	-15.25
224.479	-13.12
224.696	-14.05
224.913	-22.66
225.13	-23.21
225.347	-15.3
225.564	-10.1
225.781	-15.95
225.997	-7.75
226.214	-3.3
226.431	-3.71
226.648	-2.03
226.865	0.05
227.082	-0.3
227.298	0.08
227.515	1.56
227.732	1.17
227.949	3.1
228.165	4.75
228.382	4.86
228.599	4.4
228.816	3.85
229.032	3.79
229.249	4.31
229.466	5.1
229.682	5.74
229.899	6.16
230.116	6.54
230.332	4.69
230.549	4.16
230.765	2.91
230.982	3.02
231.199	2.86
231.415	3.61
231.632	3.04
231.848	1.16
232.065	0.22
232.281	-0.8
232.498	-0.85
232.714	1.51
232.931	1.42
233.147	1.5
233.364	-0.13
233.58	0.75
233.797	-1.32
234.013	-1.07
234.23	1.08
234.446	-0.56
234.662	-1.78
234.879	-2.15
235.095	-3.13
235.312	-2.87
235.528	-1.51
235.744	0.61
235.961	0.9
236.177	1.6
236.393	0.56
236.61	0.52
236.826	3.3
237.042	3.49
237.258	3.26
237.475	4.84
237.691	4.3
237.907	4.42
238.123	3.09
238.339	2.67
238.556	2.67
238.772	2.74
238.988	2.29
239.204	1.5
239.42	1.53
239.636	3.69
239.853	3.27
240.069	3.11
240.285	3.17
240.501	2.56
240.717	2.99
240.933	3.15
241.149	3.99
241.365	4.78
241.581	4.54
241.797	4.42
242.013	3.59
242.229	3.75
242.445	4.07
242.661	3.86
242.877	3.74
243.093	3.79
243.309	3.95
243.525	3.46
243.741	2.5
243.957	2.61
244.173	3.27
244.388	4.15
244.604	2.97
244.82	2.4
245.036	2.85
245.252	3.2
245.468	3.42
245.683	3.24
245.899	3.11
246.115	3.02
246.331	3.12
246.547	3.04
246.762	3
246.978	3.17
247.194	3.34
247.409	3.35
247.625	3.33
247.841	3.31
248.057	3.17
248.272	3.39
248.488	3.67
248.703	3.79
248.919	3.62
249.135	3.18
249.35	3.36
249.566	3.37
249.782	3.45
249.997	3.8
250.213	3.37
250.428	3.61
250.644	3.76
250.859	3.44
251.075	2.99
251.29	3.21
251.506	3.67
251.721	3.5
251.937	3.27
252.152	3.05
252.368	2.53
252.583	2.98
252.798	3.41
253.014	3.02
253.229	3.54
253.445	3.6
253.66	3.67
253.875	2.97
254.091	3.71
254.306	3.49
254.521	2.64
254.737	3.09
254.952	1.8
255.167	1.13
255.383	2.35
255.598	2.64
255.813	4
256.028	3.42
256.244	4.26
256.459	4.01
256.674	4.59
256.889	4.19
257.104	4.15
257.32	5.08
257.535	4.6
257.75	3.06
257.965	2.4
258.18	1.61
258.395	2.1
258.61	1.97
258.826	1.99
259.041	1.76
259.256	1.92
259.471	1.9
259.686	1.77
259.901	2.02
260.116	2.43
260.331	2.43
260.546	2.68
260.761	2.6
260.976	2.42
261.191	2.31
261.406	2.55
261.621	2.54
261.836	2.75
262.05	2.97
262.265	3.01
262.48	2.71
262.695	3.12
262.91	3.06
263.125	2.43
263.34	2.97
263.555	2.36
263.769	2.13
263.984	2.6
264.199	2.28
264.414	1.8
264.629	1.46
264.843	1.98
265.058	1.76
265.273	1.53
265.488	2.55
265.702	2.55
265.917	2.93
266.132	2.62
266.346	2.55
266.561	2.31
266.776	2.4
266.99	2.43
267.205	2.06
267.42	2.05
267.634	1.99
267.849	1.28
268.063	0.68
268.278	0.69
268.492	0.78
268.707	0.47
268.922	0.6
269.136	0.55
269.351	0.65
269.565	1.12
269.78	1.38
269.994	1.61
270.209	1.96
270.423	2.49
270.637	2.37
270.852	2.52
271.066	2.8
271.281	2.58
271.495	2.37
271.709	1.97
271.924	1.84
272.138	1.52
272.353	1.59
272.567	1.68
272.781	2.07
272.996	2.11
273.21	2.25
273.424	2.1
273.638	2.39
273.853	2.77
274.067	2.93
274.281	3.02
274.495	3.17
274.71	2.89
274.924	2.79
275.138	2.11
275.352	2.32
275.566	2.29
275.781	2.36
275.995	2.48
276.209	2.14
276.423	2.44
276.637	2.18
276.851	2.14
277.065	1.72
277.279	2.04
277.493	2.49
277.707	2.85
277.921	2.69
278.135	2.46
278.349	2.59
278.563	3.37
278.777	3.31
278.991	3.18
279.205	3.29
279.419	3.71
279.633	3.52
279.847	2.89
280.061	2.55
280.275	2.57
280.489	2.98
280.703	2.63
280.917	1.8
281.131	1.84
281.344	2.14
281.558	1.73
281.772	1.6
281.986	1.64
282.2	1.87
282.414	1.7
282.627	1.68
282.841	1.52
283.055	1.53
283.269	1.65
283.482	1.49
283.696	1.17
283.91	1.5
284.123	1.8
284.337	1.62
284.551	1.39
284.764	1.92
284.978	1.93
285.192	1.79
285.405	1.76
285.619	1.74
285.833	1.94
286.046	2.03
286.26	2.02
286.473	2.02
286.687	2.15
286.9	2.52
287.114	2.3
287.327	2.32
287.541	2.32
287.754	2.75
287.968	3.06
288.181	2.74
288.395	2.89
288.608	2.77
288.822	2.73
289.035	2.65
289.248	2.25
289.462	2.25
289.675	1.91
289.889	2.06
290.102	1.59
290.315	1.38
290.529	1.72
290.742	1.31
290.955	1.68
291.169	1.75
291.382	1.75
291.595	1.71
291.808	1.49
292.022	2
292.235	1.97
292.448	2.39
292.661	2.35
292.875	2.69
293.088	3.29
293.301	3.1
293.514	2.88
293.727	2.7
293.94	3.27
294.153	3.28
294.367	3.36
294.58	3.49
294.793	3.48
295.006	3.52
295.219	2.97
295.432	2.76
295.645	2.62
295.858	2.98
296.071	3.11
296.284	2.86
296.497	3.08
296.71	2.91
296.923	3
297.136	3.04
297.349	3.19
297.562	3.3
297.775	3.59
297.988	3.92
298.201	3.51
298.414	3.77
298.626	3.9
298.839	3.94
299.052	3.78
299.265	3.89
299.478	3.81
299.691	3.56
299.903	3.83
300.116	3.58
300.329	3.45
300.542	3.62
300.755	3.43
300.967	3.27
301.18	3.25
301.393	3.34
301.605	3.16
301.818	3.4
302.031	3.69
302.243	3.64
302.456	3.76
302.669	3.47
302.881	3.31
303.094	3.35
303.307	3.39
303.519	3.37
303.732	3.73
303.944	3.61
304.157	3.45
304.37	3.42
304.582	3.21
304.795	3.27
305.007	3.47
305.22	4.08
305.432	4.33
305.645	4.65
305.857	4.75
306.069	4.69
306.282	4.88
306.494	4.96
306.707	4.81
306.919	4.7
307.132	4.68
307.344	4.65
307.556	4.28
307.769	4.24
307.981	4.16
308.193	4.25
308.406	4.23
308.618	4.45
308.83	4.36
309.043	4.69
309.255	5.14
309.467	4.91
309.679	4.92
309.892	5.25
310.104	5.38
310.316	5.36
310.528	5.59
310.74	5.87
310.953	5.77
311.165	6
311.377	6.01
311.589	5.89
311.801	6.23
312.013	6.38
312.225	6.28
312.437	6.27
312.649	6.56
312.862	6.35
313.074	6.06
313.286	5.8
313.498	6.12
313.71	6.42
313.922	6.54
314.134	6.12
314.346	6.15
314.558	6.2
314.77	6
314.982	6.07
315.193	5.93
315.405	5.79
315.617	6.29
315.829	5.78
316.041	6.01
316.253	5.76
316.465	6.88
316.677	7.03
316.888	7.27
317.1	7.43
317.312	7.17
317.524	7.44
317.736	7.89
317.947	7.47
318.159	7.71
318.371	7.36
318.583	7.54
318.794	7.48
319.006	7.72
319.218	8.06
319.43	8.22
319.641	8.21
319.853	8.56
320.064	8.88
320.276	9.52
320.488	9.24
320.699	9.08
320.911	9.33
321.123	9.06
321.334	8.71
321.546	8.87
321.757	9.2
321.969	9.29
322.18	9.1
322.392	8.59
322.603	8.54
322.815	8.65
323.026	9.34
323.238	9.24
323.449	9.34
323.661	9.38
323.872	9.06
324.083	9
324.295	9.34
324.506	9.18
324.718	9.28
324.929	9.46
325.14	9.61
325.352	9.15
325.563	9.54
325.774	9.58
325.986	10.09
326.197	10.47
326.408	10.42
326.62	10.52
326.831	10.37
327.042	10.46
327.253	10.4
327.464	10.68
327.676	10.94
327.887	10.97
328.098	10.77
328.309	10.93
328.52	10.75
328.732	11.05
328.943	11.05
329.154	11.63
329.365	11.99
329.576	12.45
329.787	12.53
329.998	13.06
330.209	13.26
330.42	13.76
330.631	13.87
330.842	13.89
331.053	13.7
331.264	14.07
331.475	14.04
331.686	14.19
331.897	13.74
332.108	14.16
332.319	14.21
332.53	14.04
332.741	14.45
332.952	14.47
333.163	15.08
333.374	15.65
333.585	15.52
333.795	15.79
334.006	15.88
334.217	16.13
334.428	15.79
334.639	15.72
334.849	16.44
335.06	16.09
335.271	16.12
335.482	16.07
335.692	15.91
335.903	16.31
336.114	16.61
336.325	16.6
336.535	16.91
336.746	16.91
336.957	16.75
337.167	16.42
337.378	16.49
337.589	16.29
337.799	15.8
338.01	15.65
338.22	15.5
338.431	15.05
338.642	15.22
338.852	15.17
339.063	15.41
339.273	15.38
339.484	15.22
339.694	15.27
339.905	15.58
340.115	16
340.326	16.28
340.536	16.34
340.746	17
340.957	17.06
341.167	16.78
341.378	17
341.588	17.24
341.799	17.5
342.009	17.39
342.219	17.2
342.43	17.18
342.64	17.17
342.85	17.31
343.061	16.9
343.271	16.64
343.481	16.74
343.691	16.17
343.902	15.85
344.112	16.1
344.322	16.04
344.532	15.94
344.743	15.95
344.953	16.03
345.163	16.01
345.373	15.96
345.583	16.11
345.793	16.62
346.004	16.66
346.214	16.89
346.424	16.95
346.634	17.09
346.844	17.06
347.054	17.19
347.264	16.9
347.474	16.55
347.684	16.56
347.894	16.56
348.104	16.46
348.314	16.58
348.524	16.66
348.734	16.28
348.944	16.04
349.154	16.21
349.364	16.22
349.574	16.18
349.784	16.35
349.994	16.47
350.204	16.34
350.413	15.93
350.623	16
350.833	15.9
351.043	15.61
351.253	16.11
351.463	16.01
351.672	15.95
351.882	16.08
352.092	16.04
352.302	15.94
352.511	15.77
352.721	15.69
352.931	15.65
353.141	15.4
353.35	15.27
353.56	15.09
353.77	15.28
353.979	15.12
354.189	15.11
354.399	15.19
354.608	15.29
354.818	15.26
355.027	15.33
355.237	15.61
355.447	15.94
355.656	16.19
355.866	16.12
356.075	16.12
356.285	16.29
356.494	16.24
356.704	16.15
356.913	16.15
357.123	16.47
357.332	16.36
357.542	16.27
357.751	16.23
357.96	16.06
358.17	16.06
358.379	15.69
358.589	15.42
358.798	15.5
359.007	15.63
359.217	15.49
359.426	15.47
359.635	15.67
359.845	15.56
360.054	15.56
360.263	15.7
360.472	15.74
360.682	15.91
360.891	16.02
361.1	15.99
361.309	15.9
361.519	15.78
361.728	15.61
361.937	15.45
362.146	15.41
362.355	15.16
362.564	15.23
362.774	15.1
362.983	15.28
363.192	15.17
363.401	15.23
363.61	15.17
363.819	15.24
364.028	15.35
364.237	15.34
364.446	15.57
364.655	15.91
364.864	15.79
365.073	15.75
365.282	15.33
365.491	15.34
365.7	15.16
365.909	15.33
366.118	15.58
366.327	15.62
366.536	15.68
366.745	15.38
366.954	15.24
367.162	15.22
367.371	15.31
367.58	15.26
367.789	15.23
367.998	15.06
368.207	14.76
368.415	14.3
368.624	14.09
368.833	14.21
369.042	13.91
369.25	13.93
369.459	13.84
369.668	13.57
369.877	13.86
370.085	13.85
370.294	13.77
370.503	13.94
370.711	14.2
370.92	14.21
371.129	13.98
371.337	14.38
371.546	14.32
371.754	14.36
371.963	14.68
372.171	14.72
372.38	14.59
372.589	14.66
372.797	14.72
373.006	14.65
373.214	14.83
373.423	14.68
373.631	14.45
373.84	14.5
374.048	14.58
374.256	14.3
374.465	14.31
374.673	14.37
374.882	14.38
375.09	14.04
375.298	14.1
375.507	14.05
375.715	14.32
375.923	14.41
376.132	14.2
376.34	14.25
376.548	14.41
376.757	14.21
376.965	14
377.173	13.89
377.381	13.88
377.59	13.79
377.798	13.61
378.006	13.37
378.214	13.34
378.423	13.23
378.631	13.08
378.839	12.92
379.047	13.01
379.255	13.12
379.463	13.35
379.671	13.2
379.879	13
380.088	13
380.296	13.06
380.504	13.05
380.712	13.02
380.92	12.78
381.128	12.59
381.336	12.5
381.544	12.59
381.752	12.61
381.96	12.73
382.168	12.77
382.376	12.88
382.584	12.75
382.791	12.7
382.999	12.97
383.207	13.25
383.415	13.46
383.623	13.5
383.831	13.46
384.039	13.24
384.247	13.36
384.454	13.32
384.662	12.93
384.87	12.89
385.078	12.92
385.285	12.75
385.493	12.83
385.701	12.6
385.909	12.24
386.116	12.23
386.324	12.21
386.532	12
386.739	12.09
386.947	12.47
387.155	12.82
387.362	12.9
387.57	12.9
387.778	12.76
387.985	12.9
388.193	13.05
388.4	13.15
388.608	13.13
388.816	13.04
389.023	13
389.231	12.76
389.438	12.59
389.646	12.14
389.853	12.24
390.061	12.23
390.268	12.14
390.475	12.22
390.683	12.15
390.89	12.21
391.098	12.42
391.305	12.25
391.512	12.14
391.72	11.8
391.927	11.99
392.135	11.85
392.342	11.65
392.549	11.64
392.756	11.67
392.964	11.62
393.171	11.62
393.378	11.57
393.586	11.77
393.793	11.91
394	12.12
394.207	12.23
394.414	12.22
394.622	12.28
394.829	12.55
395.036	12.39
395.243	12.44
395.45	12.27
395.657	12.03
395.864	11.78
396.072	11.79
396.279	11.86
396.486	11.76
396.693	11.86
396.9	12.03
397.107	11.71
397.314	11.99
397.521	11.91
397.728	11.98
397.935	12.34
398.142	12.49
398.349	12.58
398.556	12.61
398.763	12.66
398.97	12.54
399.177	12.41
399.383	12.5
399.59	12.23
399.797	12.21
400.004	12.24
400.211	11.92
400.418	11.97
400.625	11.79
400.831	11.8
401.038	11.75
401.245	11.97
401.452	11.95
401.658	11.99
401.865	11.84
402.072	11.8
402.279	11.91
402.485	11.92
402.692	11.91
402.899	12.1
403.105	12.08
403.312	12.28
403.519	12.18
403.725	12.11
403.932	12.05
404.138	12.23
404.345	12.34
404.552	12.32
404.758	12.44
404.965	12.38
405.171	12.18
405.378	12.1
405.584	11.76
405.791	11.61
405.997	11.77
406.204	11.61
406.41	11.63
406.617	11.63
406.823	11.54
407.029	11.56
407.236	11.57
407.442	11.71
407.649	11.77
407.855	11.95
408.061	12.01
408.268	11.96
408.474	12.21
408.68	12.22
408.887	12.09
409.093	12.07
409.299	12.02
409.505	11.96
409.712	11.82
409.918	11.8
410.124	11.69
410.33	11.9
410.537	11.85
410.743	11.75
410.949	11.71
411.155	11.71
411.361	11.68
411.567	11.76
411.773	11.69
411.98	11.68
412.186	11.61
412.392	11.58
412.598	11.24
412.804	11.24
413.01	11.18
413.216	11.17
413.422	11.07
413.628	11.25
413.834	11.13
414.04	11.34
414.246	11.43
414.452	11.35
414.658	11.66
414.864	11.7
415.07	11.55
415.275	11.44
415.481	11.35
415.687	11.39
415.893	11.22
416.099	11.22
416.305	11.23
416.511	11.37
416.716	11.38
416.922	11.35
417.128	11.47
417.334	11.63
417.539	11.69
417.745	11.75
417.951	11.76
418.157	11.75
418.362	11.72
418.568	11.58
418.774	11.48
418.979	11.46
419.185	11.35
419.391	11.29
419.596	11.26
419.802	11.23
420.008	11.21
420.213	10.53
420.419	10.56
420.624	10.55
420.83	10.64
421.035	10.69
421.241	10.76
421.446	10.81
421.652	10.87
421.857	10.89
422.063	10.93
422.268	10.96
422.474	11.57
422.679	11.51
422.885	11.77
423.09	11.79
423.295	11.75
423.501	11.69
423.706	11.56
423.911	11.46
424.117	11.44
424.322	11.41
424.527	11.42
424.733	11.49
424.938	11.56
425.143	11.35
425.349	11.29
425.554	11.25
425.759	11.18
425.964	11.29
426.169	11.25
426.375	11.18
426.58	11.19
426.785	11.09
426.99	11.11
427.195	11.22
427.4	11.25
427.605	11.21
427.811	11.27
428.016	11.42
428.221	11.43
428.426	11.45
428.631	11.42
428.836	11.44
429.041	11.58
429.246	11.56
429.451	11.36
429.656	11.3
429.861	11.32
430.066	11.3
430.271	11.35
430.476	11.43
430.681	11.36
430.886	11.4
431.09	11.46
431.295	11.34
431.5	11.33
431.705	11.31
431.91	11.4
432.115	11.4
432.32	11.37
432.524	11.28
432.729	11.18
432.934	11.49
433.139	11.42
433.343	11.4
433.548	11.55
433.753	11.5
433.958	11.64
434.162	11.66
434.367	11.76
434.572	11.87
434.776	12.04
434.981	12.15
435.186	12.02
435.39	12.2
435.595	12.33
435.799	12.36
436.004	12.44
436.209	12.39
436.413	12.37
436.618	12.35
436.822	12.32
437.027	12.15
437.231	12.11
437.436	12.14
437.64	11.92
437.845	11.86
438.049	11.79
438.253	11.69
438.458	11.59
438.662	11.53
438.867	11.46
439.071	11.38
439.275	11.41
439.48	11.39
439.684	11.31
439.888	11.55
440.093	11.53
440.297	11.45
440.501	11.55
440.706	11.55
440.91	11.46
441.114	11.48
441.318	11.53
441.523	11.53
441.727	11.54
441.931	11.61
442.135	11.54
442.339	11.47
442.543	11.51
442.748	11.45
442.952	11.54
443.156	11.62
443.36	11.65
443.564	11.67
443.768	11.73
443.972	11.73
444.176	11.71
444.38	11.68
444.584	11.76
444.788	11.78
444.992	11.75
445.196	11.74
445.4	11.85
445.604	11.89
445.808	11.84
446.012	11.78
446.216	11.7
446.42	11.66
446.624	11.57
446.828	11.47
447.032	11.47
447.235	11.52
447.439	11.44
447.643	11.34
447.847	11.26
448.051	11.25
448.254	11.25
448.458	11.23
448.662	11.25
448.866	11.31
449.069	11.33
449.273	11.25
449.477	11.18
449.681	11.25
449.884	11.28
450.088	11.22
450.292	11.17
450.495	11.05
450.699	11.07
450.902	11.03
451.106	11.01
451.31	11.1
451.513	11.16
451.717	11.15
451.92	11.11
452.124	11.05
452.327	11.11
452.531	11.2
452.734	11.22
452.938	11.22
453.141	11.29
453.345	11.28
453.548	11.22
453.752	11.17
453.955	11.09
454.158	11.18
454.362	11.19
454.565	11.1
454.769	11.12
454.972	11.28
455.175	11.32
455.379	11.33
455.582	11.37
455.785	11.38
455.988	11.46
456.192	11.57
456.395	11.52
456.598	11.49
456.801	11.51
457.005	11.4
457.208	11.31
457.411	11.23
457.614	11.21
457.817	11.15
458.021	11.16
458.224	11.14
458.427	11.04
458.63	11.01
458.833	11.1
459.036	11.2
459.239	11.26
459.442	11.23
459.645	11.28
459.848	11.23
460.051	11.24
460.254	11.28
460.457	11.24
460.66	11.32
460.863	11.3
461.066	11.19
461.269	11.12
461.472	11.06
461.675	10.99
461.878	10.99
462.081	11
462.284	11.07
462.486	11.04
462.689	11.22
462.892	11.24
463.095	11.24
463.298	11.41
463.5	11.4
463.703	11.48
463.906	11.58
464.109	11.57
464.311	11.67
464.514	11.68
464.717	11.69
464.92	11.46
465.122	11.37
465.325	11.43
465.528	11.35
465.73	11.38
465.933	11.37
466.135	11.33
466.338	11.36
466.541	11.37
466.743	11.33
466.946	11.33
467.148	11.38
467.351	11.44
467.553	11.53
467.756	11.57
467.958	11.59
468.161	11.52
468.363	11.53
468.566	11.57
468.768	11.64
468.971	11.69
469.173	11.61
469.375	11.63
469.578	11.62
469.78	11.59
469.983	11.71
470.185	11.67
470.387	11.71
470.59	11.75
470.792	11.68
470.994	11.56
471.196	11.63
471.399	11.72
471.601	11.78
471.803	11.81
472.005	11.84
472.208	11.71
472.41	11.84
472.612	11.94
472.814	11.93
473.016	11.94
473.218	11.98
473.421	11.78
473.623	11.76
473.825	11.66
474.027	11.59
474.229	11.66
474.431	11.64
474.633	11.62
474.835	11.58
475.037	11.65
475.239	11.73
475.441	11.71
475.643	11.76
475.845	11.74
476.047	11.84
476.249	11.9
476.451	11.77
476.653	11.75
476.855	11.67
477.057	11.7
477.258	11.7
477.46	11.57
477.662	11.6
477.864	11.57
478.066	11.59
478.268	11.56
478.469	11.59
478.671	11.57
478.873	11.61
479.075	11.59
479.276	11.7
479.478	11.66
479.68	11.67
479.882	11.67
480.083	11.7
480.285	11.65
480.487	11.75
480.688	11.73
480.89	11.83
481.091	11.84
481.293	11.87
481.495	11.79
481.696	11.75
481.898	11.79
482.099	11.74
482.301	11.72
482.502	11.72
482.704	11.72
482.905	11.7
483.107	11.67
483.308	11.7
483.51	11.71
483.711	11.7
483.913	11.73
484.114	11.74
484.315	11.77
484.517	11.81
484.718	11.8
484.92	11.78
485.121	11.76
485.322	11.77
485.524	11.75
485.725	11.76
485.926	11.77
486.127	11.78
486.329	11.79
486.53	11.78
486.731	11.75
486.932	11.8
487.134	11.86
487.335	11.91
487.536	11.91
487.737	11.91
487.938	11.88
488.139	11.89
488.341	11.88
488.542	11.87
488.743	11.9
488.944	11.91
489.145	11.85
489.346	11.76
489.547	11.75
489.748	11.81
489.949	11.84
490.15	11.87
490.351	11.86
490.552	11.83
490.753	11.92
490.954	11.92
491.155	11.93
491.356	11.99
491.557	11.99
491.758	12
491.959	11.96
492.159	11.98
492.36	11.97
492.561	12.04
492.762	12.07
492.963	12.08
493.164	12.1
493.364	12.05
493.565	12.06
493.766	12.16
493.967	12.19
494.167	12.28
494.368	12.19
494.569	12.25
494.769	12.13
494.97	12.17
495.171	12.09
495.371	12.07
495.572	12.18
495.773	12.28
495.973	12.28
496.174	12.29
496.375	12.23
496.575	12.34
496.776	12.33
496.976	12.41
497.177	12.48
497.377	12.57
497.578	12.57
497.778	12.62
497.979	12.57
498.179	12.54
498.38	12.56
498.58	12.56
498.78	12.55
498.981	12.55
499.181	12.51
499.382	12.53
499.582	12.47
499.782	12.56
499.983	12.55
500.183	12.57
500.383	12.54
500.584	12.54
500.784	12.59
500.984	12.72
501.184	12.84
501.385	12.94
501.585	12.95
501.785	12.99
501.985	13.04
502.185	13.09
502.386	13.18
502.586	13.28
502.786	13.31
502.986	13.42
503.186	13.45
503.386	13.43
503.586	13.43
503.786	13.42
503.987	13.5
504.187	13.5
504.387	13.47
504.587	13.48
504.787	13.53
504.987	13.62
505.187	13.62
505.387	13.57
505.587	13.62
505.786	13.63
505.986	13.68
506.186	13.65
506.386	13.62
506.586	13.68
506.786	13.74
506.986	13.84
507.186	13.89
507.386	13.87
507.585	13.91
507.785	13.94
507.985	13.98
508.185	13.99
508.384	14.08
508.584	14.19
508.784	14.29
508.984	14.37
509.183	14.35
509.383	14.43
509.583	14.49
509.782	14.6
509.982	14.63
510.182	14.68
510.381	14.79
510.581	14.81
510.781	14.92
510.98	14.9
511.18	14.92
511.379	14.98
511.579	14.96
511.778	15.07
511.978	15.03
512.177	15.16
512.377	15.16
512.576	15.22
512.776	15.28
512.975	15.23
513.175	15.24
513.374	15.26
513.573	15.27
513.773	15.23
513.972	15.26
514.172	15.37
514.371	15.37
514.57	15.49
514.77	15.55
514.969	15.64
515.168	15.75
515.367	15.9
515.567	15.96
515.766	16.15
515.965	16.36
516.164	16.49
516.364	16.54
516.563	16.61
516.762	16.79
516.961	16.87
517.16	16.94
517.359	16.96
517.559	17.02
517.758	17.11
517.957	17.1
518.156	17.14
518.355	17.13
518.554	17.16
518.753	17.24
518.952	17.22
519.151	17.25
519.35	17.34
519.549	17.43
519.748	17.51
519.947	17.53
520.146	17.67
520.345	17.75
520.544	17.88
520.743	18.01
520.942	18.13
521.141	18.16
521.339	18.23
521.538	18.25
521.737	18.25
521.936	18.33
522.135	18.49
522.333	18.58
522.532	18.67
522.731	18.79
522.93	18.87
523.129	18.88
523.327	18.93
523.526	19.05
523.725	19.14
523.923	19.34
524.122	19.43
524.321	19.46
524.519	19.58
524.718	19.65
524.917	19.71
525.115	19.77
525.314	19.92
525.512	20.09
525.711	20.16
525.909	20.3
526.108	20.4
526.306	20.51
526.505	20.68
526.703	20.75
526.902	20.89
527.1	21.02
527.299	21.12
527.497	21.23
527.696	21.35
527.894	21.45
528.092	21.48
528.291	21.49
528.489	21.57
528.688	21.61
528.886	21.62
529.084	21.62
529.283	21.59
529.481	21.64
529.679	21.58
529.877	21.54
530.076	21.51
530.274	21.56
530.472	21.62
530.67	21.67
530.869	21.67
531.067	21.77
531.265	21.9
531.463	22.14
531.661	22.31
531.859	22.58
532.057	22.76
532.255	22.95
532.454	23.08
532.652	23.22
532.85	23.31
533.048	23.48
533.246	23.58
533.444	23.71
533.642	23.74
533.84	23.7
534.038	23.71
534.236	23.83
534.434	23.9
534.632	23.97
534.83	23.99
535.027	24.12
535.225	24.2
535.423	24.31
535.621	24.5
535.819	24.61
536.017	24.8
536.215	24.97
536.412	25.11
536.61	25.26
536.808	25.41
537.006	25.6
537.203	25.66
537.401	25.79
537.599	25.99
537.797	26.05
537.994	26.21
538.192	26.42
538.39	26.6
538.587	26.75
538.785	26.91
538.983	27.14
539.18	27.42
539.378	27.76
539.575	28.01
539.773	28.21
539.97	28.45
540.168	28.72
540.366	28.9
540.563	28.99
540.761	29.12
540.958	29.27
541.155	29.39
541.353	29.48
541.55	29.54
541.748	29.62
541.945	29.72
542.143	29.78
542.34	29.88
542.537	29.94
542.735	30.03
542.932	30.13
543.129	30.26
543.327	30.49
543.524	30.75
543.721	31.11
543.919	31.56
544.116	32.04
544.313	32.53
544.51	33.01
544.708	33.6
544.905	34.22
545.102	34.85
545.299	35.25
545.496	35.62
545.693	35.89
545.891	36
546.088	36.02
546.285	35.95
546.482	35.81
546.679	35.62
546.876	35.37
547.073	35.22
547.27	34.91
547.467	34.8
547.664	34.59
547.861	34.36
548.058	34.22
548.255	34.03
548.452	33.84
548.649	33.63
548.846	33.45
549.043	33.29
549.24	33.04
549.437	32.89
549.633	32.65
549.83	32.49
550.027	32.4
550.224	32.18
550.421	32.01
550.618	31.92
550.814	31.96
551.011	31.95
551.208	31.94
551.405	31.88
551.601	31.9
551.798	31.88
551.995	31.72
552.191	31.74
552.388	31.66
552.585	31.66
552.781	31.59
552.978	31.4
553.175	31.32
553.371	31.28
553.568	31.22
553.764	31.09
553.961	30.97
554.157	30.94
554.354	30.78
554.55	30.92
554.747	30.9
554.943	30.92
555.14	31.01
555.336	30.93
555.533	30.89
555.729	30.89
555.926	30.94
556.122	31.01
556.318	31.15
556.515	31.15
556.711	31.05
556.907	30.94
557.104	30.92
557.3	30.91
557.496	31.08
557.693	31.1
557.889	31.04
558.085	31.07
558.281	31.18
558.478	31.06
558.674	31.13
558.87	31.15
559.066	31.27
559.262	31.26
559.459	31.48
559.655	31.42
559.851	31.45
560.047	31.62
560.243	31.68
560.439	31.55
560.635	31.64
560.831	31.55
561.027	31.58
561.223	31.68
561.419	31.77
561.615	31.56
561.811	31.6
562.007	31.74
562.203	31.72
562.399	31.67
562.595	31.82
562.791	31.72
562.987	31.85
563.183	31.96
563.379	31.9
563.575	31.88
563.771	31.96
563.966	31.94
564.162	31.98
564.358	32.01
564.554	32.06
564.75	32.08
564.945	32.21
565.141	32.22
565.337	32.27
565.533	32.32
565.728	32.3
565.924	32.41
566.12	32.48
566.315	32.28
566.511	32.29
566.707	32.27
566.902	32.28
567.098	32.38
567.293	32.43
567.489	32.36
567.684	32.33
567.88	32.39
568.076	32.45
568.271	32.48
568.467	32.69
568.662	32.78
568.858	32.92
569.053	32.96
569.248	32.87
569.444	32.83
569.639	32.96
569.835	33.01
570.03	33.01
570.225	33.01
570.421	33.11
570.616	33.28
570.812	33.22
571.007	33.09
571.202	33.02
571.397	33.11
571.593	33.26
571.788	33.27
571.983	33.24
572.178	33.3
572.374	33.22
572.569	33.23
572.764	33.08
572.959	33.1
573.154	33.12
573.35	33.2
573.545	33.24
573.74	33.24
573.935	33.21
574.13	33.47
574.325	33.54
574.52	33.82
574.715	33.87
574.91	34
575.105	34.27
575.3	34.57
575.495	34.67
575.69	34.83
575.885	34.96
576.08	35.21
576.275	35.29
576.47	35.46
576.665	35.53
576.86	35.72
577.055	35.92
577.25	36
577.444	36.13
577.639	36.42
577.834	36.68
578.029	36.85
578.224	36.9
578.418	37.04
578.613	37.15
578.808	37.19
579.003	37.25
579.197	37.2
579.392	37.24
579.587	37.05
579.781	37.02
579.976	36.89
580.171	36.82
580.365	36.92
580.56	36.92
580.755	36.81
580.949	36.74
581.144	36.68
581.338	36.82
581.533	36.94
581.727	37.26
581.922	37.34
582.116	37.37
582.311	37.41
582.505	37.3
582.7	37.41
582.894	37.47
583.089	37.85
583.283	38.03
583.478	37.93
583.672	37.97
583.866	37.8
584.061	37.84
584.255	37.99
584.449	38.04
584.644	38.22
584.838	38.21
585.032	38.49
585.226	38.56
585.421	38.66
585.615	38.94
585.809	39.15
586.003	39.38
586.198	39.48
586.392	39.7
586.586	39.75
586.78	39.9
586.974	39.86
587.168	39.89
587.363	39.66
587.557	39.62
587.751	39.47
587.945	39.2
588.139	39.08
588.333	38.9
588.527	38.53
588.721	38.51
588.915	38.17
589.109	38.09
589.303	37.77
589.497	37.61
589.691	37.53
589.885	37.49
590.079	37.58
590.273	37.66
590.466	37.84
590.66	38.07
590.854	38.23
591.048	38.61
591.242	38.78
591.436	39.07
591.629	39.34
591.823	39.47
592.017	39.61
592.211	39.76
592.404	39.79
592.598	39.64
592.792	39.48
592.986	39.36
593.179	39.22
593.373	39.18
593.567	39.17
593.76	39.27
593.954	39.12
594.147	39.03
594.341	38.88
594.535	38.65
594.728	38.85
594.922	38.85
595.115	38.75
595.309	38.63
595.502	38.42
595.696	38.3
595.889	38.13
596.083	38.18
596.276	38.23
596.47	38.09
596.663	38.15
596.856	38.06
597.05	38.09
597.243	38.19
597.437	38.25
597.63	38.38
597.823	38.52
598.017	38.51
598.21	38.52
598.403	38.53
598.596	38.84
598.79	39.13
598.983	39.08
599.176	39.24
599.369	39.36
599.563	39.38
599.756	39.51
599.949	39.46
600.142	39.7
600.335	39.7
600.528	39.78
600.722	39.61
600.915	39.45
601.108	39.57
601.301	39.4
601.494	39.36
601.687	39.32
601.88	39.38
602.073	39.33
602.266	39.14
602.459	39.15
602.652	39.2
602.845	39.2
603.038	39.18
603.231	39.16
603.424	39.21
603.617	39.09
603.809	39.14
604.002	39.04
604.195	39.16
604.388	39.18
604.581	39.1
604.774	38.86
604.966	38.84
605.159	38.81
605.352	38.78
605.545	38.62
605.737	38.68
605.93	38.69
606.123	38.73
606.316	38.8
606.508	39.01
606.701	39.3
606.894	39.79
607.086	40.24
607.279	40.69
607.471	41.21
607.664	42.06
607.857	42.68
608.049	43.54
608.242	44.37
608.434	45.6
608.627	46.89
608.819	48.64
609.012	50.54
609.204	52.55
609.397	54.73
609.589	57
609.782	59.41
609.974	62.11
610.166	64.68
610.359	67.5
610.551	69.78
610.743	72.01
610.936	73.76
611.128	75.2
611.32	76.14
611.513	76.79
611.705	77.01
611.897	76.89
612.09	76.34
612.282	75.61
612.474	74.2
612.666	72.76
612.858	71.44
613.051	70.12
613.243	68.64
613.435	67.37
613.627	65.89
613.819	64.65
614.011	63.29
614.203	61.88
614.395	60.45
614.588	59.3
614.78	58.17
614.972	57.05
615.164	55.83
615.356	54.69
615.548	53.69
615.74	52.85
615.932	51.69
616.124	50.76
616.315	49.92
616.507	49.19
616.699	48.47
616.891	47.97
617.083	47.22
617.275	46.43
617.467	45.76
617.659	45.23
617.85	44.87
618.042	44.68
618.234	44.32
618.426	44.35
618.618	44.19
618.809	43.86
619.001	43.86
619.193	43.82
619.384	43.85
619.576	44.1
619.768	44
619.959	43.84
620.151	44
620.343	44.18
620.534	43.75
620.726	43.64
620.917	43.85
621.109	43.74
621.301	43.87
621.492	44.07
621.684	44.06
621.875	44.08
622.067	44.37
622.258	44.2
622.45	44.07
622.641	44.35
622.832	44.5
623.024	44.58
623.215	44.43
623.407	44.37
623.598	44.49
623.789	44.36
623.981	44.56
624.172	44.46
624.363	44.51
624.555	44.44
624.746	44.47
624.937	44.47
625.129	44.27
625.32	44.47
625.511	44.37
625.702	44.22
625.893	44.11
626.085	44.08
626.276	43.91
626.467	43.77
626.658	43.89
626.849	43.91
627.04	43.95
627.231	44.04
627.422	44.15
627.614	44.33
627.805	44.47
627.996	44.55
628.187	44.62
628.378	44.93
628.569	45.33
628.76	45.73
628.951	46.07
629.142	46.47
629.332	46.8
629.523	46.87
629.714	47.07
629.905	47.24
630.096	47.59
630.287	47.78
630.478	47.8
630.669	47.83
630.859	47.54
631.05	47.19
631.241	46.68
631.432	46.38
631.623	45.98
631.813	45.55
632.004	45.16
632.195	44.77
632.385	44.22
632.576	43.74
632.767	43.46
632.957	43.17
633.148	43.01
633.339	42.92
633.529	42.67
633.72	42.49
633.91	42.28
634.101	42.02
634.292	41.8
634.482	41.69
634.673	41.63
634.863	41.43
635.054	41.32
635.244	41.15
635.435	41
635.625	40.82
635.815	40.89
636.006	40.72
636.196	40.7
636.387	40.79
636.577	40.86
636.767	40.59
636.958	40.59
637.148	40.58
637.338	40.61
637.529	40.62
637.719	40.92
637.909	40.95
638.099	40.94
638.29	40.94
638.48	40.83
638.67	40.66
638.86	41.14
639.05	41.06
639.241	41.12
639.431	40.86
639.621	40.93
639.811	40.9
640.001	40.69
640.191	40.74
640.381	40.91
640.571	40.92
640.761	41.03
640.951	40.99
641.141	41.04
641.331	40.94
641.521	41.29
641.711	41.28
641.901	41.41
642.091	41.6
642.281	41.76
642.471	41.56
642.661	41.84
642.851	41.8
643.041	41.48
643.231	41.52
643.42	41.43
643.61	41.5
643.8	41.34
643.99	41.15
644.18	41.04
644.369	40.94
644.559	41.14
644.749	41.08
644.939	41.13
645.128	41.29
645.318	40.97
645.508	41.19
645.697	41.05
645.887	41.09
646.076	41.14
646.266	41.14
646.456	41.16
646.645	41.29
646.835	41
647.024	41.07
647.214	41.29
647.403	41.52
647.593	41.5
647.782	41.8
647.972	41.78
648.161	41.95
648.351	42.15
648.54	42.48
648.73	42.6
648.919	42.97
649.108	43.23
649.298	43.12
649.487	43.39
649.677	43.6
649.866	43.41
650.055	43.72
650.244	43.57
650.434	43.54
650.623	43.38
650.812	43.29
651.002	43.33
651.191	43.17
651.38	43.36
651.569	43.52
651.758	43.58
651.947	43.44
652.137	43.34
652.326	43.37
652.515	43.27
652.704	43.36
652.893	43.33
653.082	43.19
653.271	43.43
653.46	43.28
653.649	42.79
653.838	42.56
654.027	42.71
654.216	42.48
654.405	42.18
654.594	42.14
654.783	41.88
654.972	41.61
655.161	41.65
655.35	41.31
655.539	41.33
655.728	41.41
655.916	41.31
656.105	41.16
656.294	41.38
656.483	41.54
656.672	41.62
656.86	41.7
657.049	41.7
657.238	41.54
657.427	41.48
657.615	41.56
657.804	41.59
657.993	41.57
658.181	41.76
658.37	41.64
658.559	41.63
658.747	41.66
658.936	41.6
659.125	41.9
659.313	41.87
659.502	41.85
659.69	41.58
659.879	41.67
660.067	41.52
660.256	41.41
660.444	41.48
660.633	41.66
660.821	41.66
661.01	41.87
661.198	41.75
661.387	42.06
661.575	42.22
661.763	42.65
661.952	42.87
662.14	43.44
662.328	43.61
662.517	43.55
662.705	43.35
662.893	43.61
663.082	43.69
663.27	43.54
663.458	43.37
663.646	43.48
663.834	43.33
664.023	43.28
664.211	43.24
664.399	43.22
664.587	43.27
664.775	43.27
664.963	43.11
665.152	42.9
665.34	42.99
665.528	43.16
665.716	43.04
665.904	43.25
666.092	43.22
666.28	42.9
666.468	42.88
666.656	42.98
666.844	43.07
667.032	42.84
667.22	42.9
667.408	43.19
667.596	43.15
667.784	42.97
667.971	42.46
668.159	42.3
668.347	42.39
668.535	42.21
668.723	42.06
668.911	42.07
669.098	41.99
669.286	42.12
669.474	41.8
669.662	41.67
669.849	41.77
670.037	42.16
670.225	42.07
670.413	42.17
670.6	42.29
670.788	42.33
670.976	42.21
671.163	42.33
671.351	42.34
671.538	42.29
671.726	42.19
671.913	42.35
672.101	42.22
672.289	42.26
672.476	42.2
672.664	42.28
672.851	42.52
673.039	42.61
673.226	42.63
673.413	42.56
673.601	42.58
673.788	43.04
673.976	42.89
674.163	42.71
674.35	42.87
674.538	42.79
674.725	42.69
674.912	42.46
675.1	42.74
675.287	42.84
675.474	42.85
675.662	42.98
675.849	42.82
676.036	42.75
676.223	43.1
676.411	43.1
676.598	43.08
676.785	43.32
676.972	43.17
677.159	42.75
677.346	42.78
677.533	42.51
677.721	42.84
677.908	42.6
678.095	42.75
678.282	42.49
678.469	42.43
678.656	42.58
678.843	42.38
679.03	42.69
679.217	42.72
679.404	42.48
679.591	42.4
679.778	42.13
679.964	42.05
680.151	41.94
680.338	42.02
680.525	41.96
680.712	41.85
680.899	41.7
681.086	41.48
681.272	41.57
681.459	42.05
681.646	42.3
681.833	42.29
682.02	42.5
682.206	42.56
682.393	42.63
682.58	42.93
682.766	43.18
682.953	43.34
683.14	43.35
683.326	43.55
683.513	43.17
683.7	43.11
683.886	43.32
684.073	43.13
684.259	42.79
684.446	42.65
684.632	42.43
684.819	42.12
685.005	42.2
685.192	42.43
685.378	42.15
685.565	42.49
685.751	42.5
685.938	42.24
686.124	42.79
686.31	43.25
686.497	43.36
686.683	43.69
686.87	43.89
687.056	43.88
687.242	43.97
687.429	44.16
687.615	43.8
687.801	43.95
687.987	44.12
688.174	43.96
688.36	43.84
688.546	43.92
688.732	43.58
688.918	43.43
689.105	43.45
689.291	43.09
689.477	43.1
689.663	43.11
689.849	43
690.035	43.01
690.221	42.59
690.407	42.6
690.593	42.6
690.779	42.64
690.965	42.54
691.151	42.71
691.337	43.23
691.523	43.23
691.709	43.48
691.895	43.82
692.081	43.73
692.267	44.02
692.453	44.23
692.639	44.3
692.825	44.34
693.011	44.73
693.196	44.61
693.382	44.56
693.568	44.47
693.754	44.22
693.94	43.79
694.125	43.93
694.311	43.88
694.497	44.18
694.682	43.86
694.868	43.85
695.054	43.61
695.239	43.27
695.425	42.91
695.611	43.02
695.796	43.34
695.982	43.4
696.168	43.34
696.353	43.46
696.539	42.91
696.724	43.03
696.91	43.43
697.095	43.7
697.281	43.63
697.466	43.77
697.652	43.53
697.837	43.41
698.023	43.1
698.208	43.11
698.393	42.95
698.579	42.99
698.764	42.83
698.949	42.48
699.135	42.1
699.32	42.37
699.505	42.13
699.691	42.3
699.876	42.29
700.061	42.56
700.246	42.22
700.432	42.08
700.617	42.07
700.802	42.29
700.987	42.26
701.172	42.65
701.358	42.69
701.543	42.83
701.728	42.74
701.913	43.18
702.098	43.38
702.283	43.95
702.468	44.35
702.653	44.55
702.838	44.73
703.023	45.32
703.208	45.49
703.393	45.43
703.578	45.34
703.763	45.68
703.948	45.61
704.133	46.01
704.318	46.71
704.503	47.34
704.688	48.18
704.873	48.59
705.057	49
705.242	49.29
705.427	49.88
705.612	50.77
705.797	51.86
705.981	52.32
706.166	53.23
706.351	53.76
706.536	54.07
706.72	54.15
706.905	54.74
707.09	54.96
707.274	55.29
707.459	55.63
707.644	55.73
707.828	55.16
708.013	55.36
708.197	54.81
708.382	54.12
708.567	53.54
708.751	53.26
708.936	53.11
709.12	52.7
709.305	52.41
709.489	52.14
709.673	52.18
709.858	52.01
710.042	51.46
710.227	51.07
710.411	50.79
710.596	51.03
710.78	50.87
710.964	50.57
711.149	50.82
711.333	51.11
711.517	51.08
711.702	50.8
711.886	50.63
712.07	50.77
712.254	50.69
712.438	50.65
712.623	50.17
712.807	50.06
712.991	49.44
713.175	49.23
713.359	48.34
713.544	48.05
713.728	47.75
713.912	47.83
714.096	47.08
714.28	46.79
714.464	46.34
714.648	46.19
714.832	45.82
715.016	45.95
715.2	45.06
715.384	45.11
715.568	44.85
715.752	44.31
715.936	43.79
716.12	43.8
716.304	43.57
716.488	43.52
716.671	43.3
716.855	43.58
717.039	43.2
717.223	43.36
717.407	43.14
717.59	43
717.774	43.67
717.958	43.65
718.142	43.59
718.325	43.51
718.509	43.43
718.693	43.33
718.877	43.09
719.06	43
719.244	43.34
719.428	43.22
719.611	42.84
719.795	42.4
719.978	42.69
720.162	43.19
720.345	43.5
720.529	44.22
720.713	44.62
720.896	45.11
721.08	45.6
721.263	45.56
721.446	45.88
721.63	46.42
721.813	46.5
721.997	46.24
722.18	46.07
722.364	46.17
722.547	45.77
722.73	45.79
722.914	45.48
723.097	45.43
723.28	45.29
723.464	45.29
723.647	45.27
723.83	45.06
724.013	45.45
724.197	45.59
724.38	45.55
724.563	45.1
724.746	44.88
724.929	44.49
725.112	44.47
725.296	44.67
725.479	44.86
725.662	44.99
725.845	45.24
726.028	45.09
726.211	45.26
726.394	45.02
726.577	45.66
726.76	45.54
726.943	45.89
727.126	46.11
727.309	45.36
727.492	45.27
727.675	44.82
727.858	44.78
728.041	44.68
728.224	44.04
728.407	44.07
728.589	43.99
728.772	44.17
728.955	44.12
729.138	43.9
729.321	44.61
729.503	44.65
729.686	44.98
729.869	44.84
730.052	44.71
730.234	44.99
730.417	45
730.6	44.79
730.782	44.78
730.965	45
731.148	44.77
731.33	44.48
731.513	43.85
731.695	43.88
731.878	44.17
732.061	44.01
732.243	44.06
732.426	44.09
732.608	44.22
732.791	44.21
732.973	44.14
733.156	44
733.338	43.98
733.52	45.05
733.703	45.05
733.885	45.22
734.068	45.6
734.25	45.82
734.432	46.78
734.615	46.63
734.797	46.93
734.979	46.36
735.162	46.97
735.344	47.22
735.526	46.77
735.708	46.87
735.891	46.43
736.073	46.34
736.255	46.12
736.437	45.62
736.619	45.75
736.802	45.2
736.984	45.77
737.166	45.54
737.348	45.2
737.53	44.79
737.712	44.72
737.894	44.66
738.076	45.07
738.258	44.88
738.44	44.65
738.622	44.64
738.804	45.12
738.986	45.43
739.168	45.93
739.35	46.56
739.532	47.09
739.714	47.1
739.896	47.42
740.078	47.33
740.259	47.77
740.441	47.82
740.623	47.9
740.805	47.34
740.987	47.04
741.168	46.97
741.35	47.57
741.532	47.34
741.714	47.04
741.895	47.02
742.077	47.3
742.259	47.53
742.44	47.5
742.622	48.03
742.804	48.7
742.985	48.9
743.167	49.01
743.348	48.56
743.53	48.61
743.711	49.09
743.893	49.3
744.075	48.92
744.256	49.28
744.438	49.94
744.619	49.63
744.8	49.76
744.982	49.95
745.163	49.78
745.345	49.59
745.526	50.59
745.707	50.64
745.889	50.74
746.07	50.87
746.252	50.44
746.433	50.21
746.614	50.52
746.795	50.75
746.977	50.45
747.158	50.61
747.339	50.1
747.52	49.09
747.702	49.4
747.883	48.83
748.064	48.88
748.245	48.02
748.426	47.52
748.607	47.3
748.788	47.16
748.97	46.9
749.151	46.31
749.332	46.81
749.513	47.46
749.694	47.73
749.875	48.08
750.056	47.82
750.237	48.18
750.418	49
750.599	48.5
750.78	48.35
750.96	48.37
751.141	48.25
751.322	47.7
751.503	46.88
751.684	46.34
751.865	46.75
752.046	46.96
752.226	46.72
752.407	46.16
752.588	46.98
752.769	46.44
752.949	46.41
753.13	46.54
753.311	46.65
753.492	47.13
753.672	47.17
753.853	47.25
754.034	47.57
754.214	48.2
754.395	48.3
754.575	47.97
754.756	48.57
754.937	49.18
755.117	49.33
755.298	49.82
755.478	49.51
755.659	48.95
755.839	47.92
756.02	47.19
756.2	47.81
756.381	48.68
756.561	49.08
756.741	49.62
756.922	49.3
757.102	49.43
757.283	48.73
757.463	49.45
757.643	49.76
757.823	50.78
758.004	50.07
758.184	49.13
758.364	47.81
758.545	47.98
758.725	46.41
758.905	46.36
759.085	46.36
759.265	45.84
759.446	44.9
759.626	44.76
759.806	44.38
759.986	44.82
760.166	43.84
760.346	44.18
760.526	43.89
760.706	44.6
760.886	44.95
761.066	44.99
761.246	46.07
761.426	45.97
761.606	46.38
761.786	46.05
761.966	45.83
762.146	46.63
762.326	45.96
762.506	45.14
762.686	45.18
762.866	45.38
763.046	44.87
763.225	44.85
763.405	45.19
763.585	44.71
763.765	44.31
763.945	44.55
764.124	44.24
764.304	44.47
764.484	44.97
764.664	45.11
764.843	44.92
765.023	45.22
765.203	44.83
765.382	44.9
765.562	44.75
765.741	45.27
765.921	46.36
766.101	46.91
766.28	46.82
766.46	46.75
766.639	46.73
766.819	46.44
766.998	46.56
767.178	47.22
767.357	47.38
767.537	47.68
767.716	48.51
767.896	47.69
768.075	47.74
768.254	48.63
768.434	48.25
768.613	47.91
768.792	47.93
768.972	47.72
769.151	47.73
769.33	47.63
769.51	47.92
769.689	47.3
769.868	47.09
770.047	47.49
770.226	47.3
770.406	47.97
770.585	48.89
770.764	49
770.943	49.94
771.122	50.3
771.301	50.47
771.48	51.32
771.66	51.91
771.839	52.19
772.018	51.65
772.197	51.53
772.376	51.83
772.555	51.55
772.734	51.99
772.913	51.76
773.092	51.18
773.271	50.71
773.449	50.45
773.628	50.41
773.807	50.38
773.986	50.71
774.165	51.1
774.344	50.54
774.523	50.73
774.701	50.53
774.88	50.45
775.059	50.74
775.238	51.26
775.417	50.7
775.595	49.97
775.774	50.98
775.953	50.9
776.131	50.98
776.31	51.39
776.489	51.4
776.667	51.51
776.846	51.73
777.025	52.37
777.203	51.78
777.382	53.52
777.56	53.76
777.739	52.93
777.917	52.8
778.096	52.37
778.274	52.38
778.453	51.72
778.631	50.82
778.81	50.85
778.988	50.54
779.166	51.55
779.345	50.7
779.523	50.81
779.702	50.3
779.88	50.74
780.058	51.13
780.237	51.46
780.415	51.57
780.593	53.07
780.771	52.42
780.95	51.23
781.128	50.49
781.306	50.16
781.484	49.91
781.662	50.37
781.841	50.15
782.019	49.45
782.197	49.46
782.375	50.23
782.553	49.27
782.731	49.46
782.909	50.98
783.087	51.14
783.265	50.46
783.443	50.93
783.621	50.51
783.799	50.18
783.977	52
784.155	51.94
784.333	51.97
784.511	52.22
784.689	51.9
784.867	51.38
785.045	51.45
785.223	52.05
785.4	53.15
785.578	54.14
785.756	53.63
785.934	52.73
786.112	52.44
786.289	52.07
786.467	51.88
786.645	52.74
786.823	51.91
787	50.79
787.178	51.13
787.356	49.88
787.533	49.58
787.711	49.92
787.889	48.99
788.066	47.84
788.244	48.1
788.421	48.69
788.599	48.27
788.776	48.35
788.954	48.39
789.131	47.7
789.309	47.87
789.486	48
789.664	48.54
789.841	49.03
790.019	50.31
790.196	50.19
790.373	49.43
790.551	48.86
790.728	49.84
790.906	50.58
791.083	51.8
791.26	51.13
791.437	49.8
791.615	49.43
791.792	49.4
791.969	48.81
792.146	48.15
792.324	48.22
792.501	48.38
792.678	47.75
792.855	48.17
793.032	47.05
793.209	46.99
793.387	48.37
793.564	49.36
793.741	49.88
793.918	50.09
794.095	49.84
794.272	50.35
794.449	50.71
794.626	50.6
794.803	50.2
794.98	50.58
795.157	51.95
795.334	52.25
795.511	50.9
795.688	51.19
795.864	50.7
796.041	50.58
796.218	50.63
796.395	51.37
796.572	51.36
796.749	50.74
796.925	49.85
797.102	49.31
797.279	48.23
797.456	48.43
797.632	48.06
797.809	48.49
797.986	48.71
798.162	47.57
798.339	46.81
798.516	48.16
798.692	48
798.869	48.58
799.046	47.3
799.222	48.05
799.399	48.35
799.575	47.96
799.752	48.26
799.928	48.56
800.105	49.49
800.281	49.23
800.458	46.86
800.634	47.31
800.811	47.57
800.987	48.73
801.163	48.14
801.34	48.25
801.516	48.26
801.692	46.8
801.869	46.72
802.045	46.87
802.221	47.57
802.398	48.07
802.574	47.64
802.75	48.19
802.926	47.45
803.103	47.4
803.279	46.21
803.455	45.81
803.631	47.45
803.807	47.48
803.983	47.39
804.16	47.41
804.336	47.68
804.512	48.55
804.688	47.94
804.864	49.44
805.04	49.54
805.216	49.71
805.392	49.45
805.568	48.84
805.744	48.29
805.92	47.72
806.096	48.49
806.272	48.03
806.448	46.44
806.623	45.93
806.799	44.14
806.975	44.82
807.151	45.38
807.327	44.84
807.503	44.76
807.678	46.03
807.854	45.99
808.03	43.89
808.206	43.71
808.381	44.68
808.557	44.11
808.733	44.75
808.908	44.04
809.084	43.41
809.26	44.94
809.435	43.93
809.611	43.79
809.787	44.9
809.962	46.34
810.138	47.31
810.313	48.01
810.489	49.14
810.664	49.93
810.84	51.16
811.015	52.23
811.191	52.49
811.366	54.18
811.542	54.03
811.717	54.63
811.892	55.53
812.068	55.45
812.243	54.94
812.419	54
812.594	52.98
812.769	50.36
812.944	50.61
813.12	48.45
813.295	46.98
813.47	47.08
813.645	43.34
813.821	42.3
813.996	41.42
814.171	40.97
814.346	41.04
814.521	41.92
814.697	43.09
814.872	42.62
815.047	44.49
815.222	44.81
815.397	43.68
815.572	44.51
815.747	43.69
815.922	44.47
816.097	44.4
816.272	44.18
816.447	43.03
816.622	43.7
816.797	44.05
816.972	44.6
817.147	45.52
817.322	46.92
817.496	47.71
817.671	48.59
817.846	48.5
818.021	47.34
818.196	47.47
818.371	47.98
818.545	48.58
818.72	47.75
818.895	47.86
819.069	47.19
819.244	46.18
819.419	46.18
819.594	45.14
819.768	45.24
819.943	46.44
820.117	46.06
820.292	46.55
820.467	45.28
820.641	45.5
820.816	45
820.99	44.6
821.165	44.12
821.339	43.83
821.514	44.18
821.688	43.99
821.863	44.19
822.037	44.01
822.212	43.57
822.386	43.46
822.56	43.07
822.735	42.94
822.909	42.94
823.084	42.89
823.258	42.91
823.432	42.52
823.606	42.36
823.781	42.23
823.955	42.12
824.129	42.14
824.303	42.22
824.478	42.37
824.652	41.91
824.826	41.95
825	42.09
825.174	42.25
825.348	42.72
825.523	42.66
825.697	42.06
825.871	42.7
826.045	42.7
826.219	42.94
826.393	42.94
826.567	43.94
826.741	44.05
826.915	44.02
827.089	43.89
827.263	43.74
827.437	43.59
827.611	43.58
827.784	43.48
827.958	43.91
828.132	44.13
828.306	44.12
828.48	43.66
828.654	43.91
828.827	44.07
829.001	43.69
829.175	44.07
829.349	43.97
829.522	44.92
829.696	44.78
829.87	44.02
830.044	43.21
830.217	44.24
830.391	44.35
830.565	44.08
830.738	45.08
830.912	46.25
831.085	47
831.259	48.05
831.432	48.16
831.606	48.29
831.779	48.19
831.953	47.04
832.126	45.6
832.3	45.23
832.473	44.43
832.647	43.78
832.82	42.48
832.994	41.75
833.167	41.29
833.34	40.94
833.514	40.29
833.687	40.12
833.86	40.69
834.034	40.85
834.207	40.61
834.38	41.48
834.553	40.75
834.727	41.53
834.9	41.26
835.073	41.59
835.246	41.53
835.419	41.89
835.593	43.19
835.766	43.19
835.939	43.85
836.112	44.5
836.285	43.19
836.458	46.68
836.631	46.77
836.804	46.82
836.977	46.83
837.15	46.27
837.323	47.01
837.496	46.52
837.669	47.48
837.842	46.66
838.015	47.13
838.188	47.58
838.361	43.44
838.533	43.68
838.706	44.31
838.879	46.4
839.052	46.81
839.225	46.97
839.398	45.73
839.57	44.77
839.743	45
839.916	44.94
840.088	42.76
840.261	43.86
840.434	43.05
840.607	42.91
840.779	39.7
840.952	39.86
841.124	40.79
841.297	41.87
841.47	41.82
841.642	43.03
841.815	43.75
841.987	47.82
842.16	48.24
842.332	49.24
842.505	49.98
842.677	52.87
842.85	53.25
843.022	53.34
843.194	55.62
843.367	56.39
843.539	55.12
843.712	54.52
843.884	52.57
844.056	51.98
844.229	50.2
844.401	50.42
844.573	51.12
844.745	49.75
844.918	49.57
845.09	47.26
845.262	46.82
845.434	46.32
845.606	48.02
845.779	49.15
845.951	48.27
846.123	50.72
846.295	49.8
846.467	47.49
846.639	48.21
846.811	48.29
846.983	47.88
847.155	51.45
847.327	52.95
847.499	51.43
847.671	53.38
847.843	52.34
848.015	50.65
848.187	51.48
848.359	52.55
848.531	54.13
848.703	54.62
848.875	54.06
849.047	51.55
849.218	52.61
849.39	48.87
849.562	49.86
849.734	51.12
849.905	55.8
850.077	57.72
850.249	60.09
850.421	62.55
850.592	58.59
850.764	56.52
850.936	56.04
851.107	56.87
851.279	59.01
851.451	61.76
851.622	65.7
851.794	60.86
851.965	55.56
852.137	50.65
852.308	51.28
852.48	52.66
852.651	55.15
852.823	56.37
852.994	52.75
853.166	54.41
853.337	51.47
853.509	47.12
853.68	50.27
853.851	53.19
854.023	54.63
854.194	50.27
854.365	52.35
854.537	51.2
854.708	54.15
854.879	55.18
855.05	57.83
855.222	54.41
855.393	55.33
855.564	52.83
855.735	50.03
855.906	51.55
856.078	52.56
856.249	48.38
856.42	53.99
856.591	49.52
856.762	51.23
856.933	45.53
857.104	45.47
857.275	48.84
857.446	49.21
857.617	52.8
857.788	51.78
857.959	54.81
858.13	58.22
858.301	51.29
858.472	50.81
858.643	46.61
858.814	44.98
858.985	46.63
859.155	44.89
859.326	47.62
859.497	49.92
859.668	49.47
859.839	46.18
860.009	43.69
860.18	48.06
860.351	50.06
860.522	53.69
860.692	54.14
860.863	54.5
861.034	51.54
861.204	46.93
861.375	41.87
861.546	47.19
861.716	49.16
861.887	49.56
862.057	47.7
862.228	44.68
862.398	44.61
862.569	49.19
862.739	50.88
862.91	55.81
863.08	59.33
863.251	63.78
863.421	61.42
863.592	58.94
863.762	60.6
863.932	63.88
864.103	66.06
864.273	66.03
864.443	65.36
864.614	64.82
864.784	61.04
864.954	59.14
865.125	53.15
865.295	53.83
865.465	55.43
865.635	51.39
865.805	46.63
865.976	47.04
866.146	43.68
866.316	44.9
866.486	47.5
866.656	47.01
866.826	44.82
866.996	48.59
867.166	46.05
867.336	46.16
867.506	50.3
867.676	51.15
867.846	48.25
868.016	50.68
868.186	48.38
868.356	45.52
868.526	45.29
868.696	49.27
868.866	43.87
869.036	42.06
869.206	40.05
869.376	39.6
869.545	40.73
869.715	47.05
869.885	41.64
870.055	41.14
870.224	39.22
870.394	46.07
870.564	42.76
870.734	45.55
870.903	47.51
871.073	49.85
871.243	45.12
871.412	40.26
871.582	37.91
871.751	41.38
871.921	41.08
872.091	43.41
872.26	41.42
872.43	41.94
872.599	36.16
872.769	32.68
872.938	32.2
873.108	36.26
873.277	37.48
873.446	36.3
873.616	35.59
873.785	37.92
873.955	36.15
874.124	35.82
874.293	31.71
874.463	33.73
874.632	37.36
874.801	39.64
874.971	37.41
875.14	39.96
875.309	40.64
875.478	42.55
875.647	41.9
875.817	42.66
875.986	38.74
876.155	43.83
876.324	45.79
876.493	45.58
876.662	42.79
876.831	43.63
877	43.61
877.17	40.56
877.339	38.78
877.508	35.15
877.677	37.33
877.846	39.34
878.015	38.49
878.184	43.61
878.352	41.44
878.521	38.49
878.69	36.32
878.859	36.47
879.028	40.4
879.197	40.14
879.366	41.11
879.534	38.04
879.703	39.53
879.872	41.89
880.041	40.8
880.21	40.74
880.378	42.03
880.547	42.07
880.716	41.76
880.884	41.19
881.053	40.79
881.222	40.58
881.39	40.64
881.559	39.97
881.727	39.19
881.896	38.68
882.065	38.46
882.233	38.79
882.402	38.97
882.57	38.53
882.739	38.53
882.907	38.35
883.076	37.52
883.244	37.32
883.412	36.9
883.581	36.4
883.749	35.76
883.918	37.03
884.086	36.81
884.254	36.17
884.423	35.97
884.591	35.35
884.759	35.24
884.927	35.47
885.096	35.16
885.264	34.3
885.432	35.69
885.6	36.13
885.769	33.99
885.937	33
886.105	34.67
886.273	34.14
886.441	36.14
886.609	37.84
886.777	40.25
886.945	40.52
887.113	43.44
887.281	41.99
887.449	43.51
887.617	42.19
887.785	40.37
887.953	38.86
888.121	40.34
888.289	36.71
888.457	35.02
888.625	32.72
888.793	34.14
888.961	35.23
889.129	33.51
889.296	29.61
889.464	30.42
889.632	32.21
889.8	30.6
889.967	29.79
890.135	29.78
