Data from 2938821__Reflection_03.txt Node
Date: Thu Mar 12 14:27:35 EDT 2015
User: robert
Spectrometer: USB4E03002
Autoset integration time: false
Trigger mode: 4
Integration Time (sec): 1.000000E-1
Scans to average: 10
Electric dark correction enabled: false
Nonlinearity correction enabled: false
Boxcar width: 5
Stray light correction enabled: false
XAxis mode: Wavelengths
Stop averaging: false
Number of Pixels in Spectrum: 3648
>>>>>Begin Spectral Data<<<<<
177.575	56.2
177.794	97.04
178.014	51.51
178.233	53.83
178.452	52.99
178.672	42.58
178.891	40.24
179.11	30.25
179.33	12.24
179.549	19.08
179.768	2.76
179.987	8.57
180.207	-17.98
180.426	-40.19
180.645	-205.26
180.864	-254.37
181.084	-360.98
181.303	150
181.522	1672.73
181.741	-107.89
181.96	-43.59
182.179	-115.94
182.398	-172
182.618	131.25
182.837	-122.5
183.056	-40.87
183.275	50.69
183.494	53.02
183.713	45
183.932	11.9
184.151	42.9
184.37	46.61
184.589	32.16
184.808	70
185.027	100.84
185.246	119.44
185.465	182.85
185.684	150.24
185.903	136.79
186.122	155.67
186.341	163.55
186.56	122.41
186.779	153.31
186.998	148.03
187.216	102.37
187.435	111.88
187.654	103.01
187.873	79.08
188.092	102.07
188.311	104.73
188.53	106.14
188.748	126.73
188.967	188.57
189.186	79.56
189.405	98.01
189.623	139.25
189.842	102.85
190.061	149.51
190.28	98.58
190.498	108.28
190.717	113.09
190.936	152.05
191.154	194.76
191.373	91.7
191.592	140.3
191.81	121.23
192.029	137.68
192.248	133.7
192.466	128.67
192.685	170.79
192.904	135.01
193.122	156.81
193.341	120.32
193.559	93.5
193.778	169.89
193.996	-17.7
194.215	3.45
194.433	388.24
194.652	11.79
194.87	-116.09
195.089	19.21
195.307	133.03
195.526	158.62
195.744	249.62
195.963	383.17
196.181	305.58
196.399	300.84
196.618	487.16
196.836	958.18
197.055	-465.19
197.273	1545.83
197.491	991.38
197.71	1583.33
197.928	1165.85
198.146	508.2
198.365	110.78
198.583	40.4
198.801	49.58
199.019	103.23
199.238	105.26
199.456	75.17
199.674	51
199.892	98.96
200.111	78.7
200.329	90.1
200.547	124.88
200.765	-7800
200.983	894.74
201.202	-1761.11
201.42	2228.57
201.638	317.92
201.856	1466.67
202.074	-1153.33
202.292	255.88
202.51	757.14
202.728	242.47
202.946	233.33
203.165	140.2
203.383	108.1
203.601	47.06
203.819	-6.76
204.037	-62.39
204.255	-52.04
204.473	5.37
204.691	110.53
204.909	-5.67
205.127	-62
205.345	136.11
205.562	-100
205.78	-19.53
205.998	26.84
206.216	71.38
206.434	89.44
206.652	66.77
206.87	55.94
207.088	36.44
207.306	32.14
207.523	17.17
207.741	4.88
207.959	22.24
208.177	36.79
208.395	23.04
208.612	45.15
208.83	27.54
209.048	59.03
209.266	42.23
209.483	41.75
209.701	53.48
209.919	82.36
210.136	87.07
210.354	86.74
210.572	80.81
210.79	84.06
211.007	69.6
211.225	85.43
211.442	60.33
211.66	57.88
211.878	53.7
212.095	-48.88
212.313	-45.76
212.53	-49.57
212.748	-44.27
212.966	-66.91
213.183	-56.19
213.401	-41.88
213.618	-56.84
213.836	-38.1
214.053	-28.2
214.271	-50.54
214.488	60.51
214.705	64.86
214.923	64.2
215.14	43.04
215.358	44.08
215.575	48.21
215.793	42.94
216.01	65.67
216.227	47.97
216.445	32.58
216.662	51.84
216.879	36.35
217.097	17.11
217.314	1.9
217.531	26.27
217.749	33.33
217.966	7.91
218.183	12.37
218.4	-21.13
218.618	11.4
218.835	1.38
219.052	5.3
219.269	9.2
219.487	17.2
219.704	34.36
219.921	39.42
220.138	36.07
220.355	46.03
220.572	43.86
220.79	47.35
221.007	35.38
221.224	43.69
221.441	48.75
221.658	42.24
221.875	29.82
222.092	20.24
222.309	22.25
222.526	26.52
222.743	26.24
222.96	26.81
223.177	29.02
223.394	29.92
223.611	25.34
223.828	19.61
224.045	29.57
224.262	34.78
224.479	37.14
224.696	27.34
224.913	23.75
225.13	22.82
225.347	21.8
225.564	16.09
225.781	13.09
225.997	11.84
226.214	9.75
226.431	4.39
226.648	5.78
226.865	5.02
227.082	5.83
227.298	4.85
227.515	2.96
227.732	3.77
227.949	4.62
228.165	4.97
228.382	6.38
228.599	5.9
228.816	6.51
229.032	5.94
229.249	4.98
229.466	4.58
229.682	4.44
229.899	5.01
230.116	4.36
230.332	3.77
230.549	4.83
230.765	2.14
230.982	2.51
231.199	2.02
231.415	2.24
231.632	2.72
231.848	3.2
232.065	3.45
232.281	3.07
232.498	3.05
232.714	4.23
232.931	3.54
233.147	4.15
233.364	4.06
233.58	4.73
233.797	4.58
234.013	5.15
234.23	5.64
234.446	3.6
234.662	3.54
234.879	3.96
235.095	4.38
235.312	3.98
235.528	5.34
235.744	5.77
235.961	7.99
236.177	7.17
236.393	7.39
236.61	7.13
236.826	7.58
237.042	8.27
237.258	9.16
237.475	9.45
237.691	9.77
237.907	10.33
238.123	10.29
238.339	7.63
238.556	7.04
238.772	7.17
238.988	7.19
239.204	9.34
239.42	8.51
239.636	8.62
239.853	7.39
240.069	6.55
240.285	5.77
240.501	5.27
240.717	5.3
240.933	5.44
241.149	5.83
241.365	5.78
241.581	5.14
241.797	5.3
242.013	4.67
242.229	4.37
242.445	4.19
242.661	4.08
242.877	3.45
243.093	3.35
243.309	4.09
243.525	2.96
243.741	2.62
243.957	3.68
244.173	3.47
244.388	3.36
244.604	4.58
244.82	4.86
245.036	4.9
245.252	6.25
245.468	6.07
245.683	5.1
245.899	5.61
246.115	5.17
246.331	4.27
246.547	4.32
246.762	4.32
246.978	3.95
247.194	3.83
247.409	3.63
247.625	3.32
247.841	3.53
248.057	3.75
248.272	3.57
248.488	3.86
248.703	3.53
248.919	3.59
249.135	3.45
249.35	3.26
249.566	3.21
249.782	3.6
249.997	3.61
250.213	3.24
250.428	3.08
250.644	3.11
250.859	2.74
251.075	3.3
251.29	3.4
251.506	2.99
251.721	2.78
251.937	3.07
252.152	3.33
252.368	3.75
252.583	3.07
252.798	3.41
253.014	3.03
253.229	3.58
253.445	3.95
253.66	3.65
253.875	4.95
254.091	6.06
254.306	6.06
254.521	5.85
254.737	5.04
254.952	5.51
255.167	5.51
255.383	5.88
255.598	5.26
255.813	4.98
256.028	4.91
256.244	3.97
256.459	3.63
256.674	3.37
256.889	4.05
257.104	4.17
257.32	4.27
257.535	2.95
257.75	3.35
257.965	3.06
258.18	2.83
258.395	2.33
258.61	2.04
258.826	1.77
259.041	1.47
259.256	1.34
259.471	1.5
259.686	1.55
259.901	1.63
260.116	1.61
260.331	1.53
260.546	1.55
260.761	1.73
260.976	1.84
261.191	2.07
261.406	2.57
261.621	2.3
261.836	2.31
262.05	2.36
262.265	2.67
262.48	2.5
262.695	2.82
262.91	3.15
263.125	3.14
263.34	3.13
263.555	2.81
263.769	2.58
263.984	2.85
264.199	2.78
264.414	2.44
264.629	2.4
264.843	2.42
265.058	2.2
265.273	1.96
265.488	2.45
265.702	2.68
265.917	2.48
266.132	2.44
266.346	2.13
266.561	2.1
266.776	2.51
266.99	2.6
267.205	2.13
267.42	2.82
267.634	3.16
267.849	2.94
268.063	3.02
268.278	3.21
268.492	3.36
268.707	3.83
268.922	3.87
269.136	3.83
269.351	3.81
269.565	4.21
269.78	3.55
269.994	3.1
270.209	2.75
270.423	2.18
270.637	2.4
270.852	2.46
271.066	2.4
271.281	1.9
271.495	1.68
271.709	1.73
271.924	1.59
272.138	1.69
272.353	1.74
272.567	2.02
272.781	2.28
272.996	2.09
273.21	1.71
273.424	1.58
273.638	1.92
273.853	1.76
274.067	1.73
274.281	2.49
274.495	2.57
274.71	2.58
274.924	2.5
275.138	1.95
275.352	1.96
275.566	2.22
275.781	2.68
275.995	2.7
276.209	2.89
276.423	2.76
276.637	2.33
276.851	2.15
277.065	2.41
277.279	2.13
277.493	2.67
277.707	2.33
277.921	2.33
278.135	1.64
278.349	1.94
278.563	1.47
278.777	1.26
278.991	0.92
279.205	1.45
279.419	1.25
279.633	1.79
279.847	2.05
280.061	2.53
280.275	2.42
280.489	2.87
280.703	2.85
280.917	3.65
281.131	3.58
281.344	3.62
281.558	3.31
281.772	3.45
281.986	3.1
282.2	2.67
282.414	2.62
282.627	2.78
282.841	2.81
283.055	2.69
283.269	2.36
283.482	2.76
283.696	2.55
283.91	2.44
284.123	2.24
284.337	2.32
284.551	2.46
284.764	2.2
284.978	2.25
285.192	2.29
285.405	2.09
285.619	1.98
285.833	1.91
286.046	1.93
286.26	1.85
286.473	1.64
286.687	1.45
286.9	1.51
287.114	1.63
287.327	1.34
287.541	0.64
287.754	0.81
287.968	0.94
288.181	1.02
288.395	1.17
288.608	1.5
288.822	1.71
289.035	1.97
289.248	2.16
289.462	2.23
289.675	2.18
289.889	2.48
290.102	2.44
290.315	2.4
290.529	1.95
290.742	1.94
290.955	1.76
291.169	1.93
291.382	1.82
291.595	1.71
291.808	1.74
292.022	2.32
292.235	2.54
292.448	2.65
292.661	2.61
292.875	2.99
293.088	3.36
293.301	3.37
293.514	3.46
293.727	3.87
293.94	3.59
294.153	3.86
294.367	3.38
294.58	3.51
294.793	3.46
295.006	3.46
295.219	3.45
295.432	3.37
295.645	3.51
295.858	3.57
296.071	3.26
296.284	3.83
296.497	3.39
296.71	3.32
296.923	3.36
297.136	3.45
297.349	3.78
297.562	3.93
297.775	3.79
297.988	3.65
298.201	3.46
298.414	3.73
298.626	3.22
298.839	3.53
299.052	3.81
299.265	3.5
299.478	3.16
299.691	3.2
299.903	3.11
300.116	3.4
300.329	3.6
300.542	3.75
300.755	3.58
300.967	3.77
301.18	3.62
301.393	3.56
301.605	3.64
301.818	4.23
302.031	4.07
302.243	3.68
302.456	3.49
302.669	3.37
302.881	3.34
303.094	3.67
303.307	3.7
303.519	3.75
303.732	3.81
303.944	4.17
304.157	4.03
304.37	4.13
304.582	4.32
304.795	4.26
305.007	4.28
305.22	4.37
305.432	4.29
305.645	4.56
305.857	4.54
306.069	4.76
306.282	4.49
306.494	4.6
306.707	4.62
306.919	4.95
307.132	5.14
307.344	5.51
307.556	5.36
307.769	5.14
307.981	5.19
308.193	5.33
308.406	5.27
308.618	5.58
308.83	5.42
309.043	5.14
309.255	4.89
309.467	5.08
309.679	4.77
309.892	4.68
310.104	4.75
310.316	4.71
310.528	4.73
310.74	4.7
310.953	4.64
311.165	4.64
311.377	4.8
311.589	5
311.801	5.06
312.013	4.98
312.225	5.25
312.437	5.37
312.649	5.28
312.862	5.29
313.074	5.09
313.286	4.96
313.498	5.28
313.71	5.3
313.922	5.51
314.134	4.88
314.346	4.87
314.558	4.83
314.77	5.01
314.982	4.96
315.193	5.03
315.405	5.18
315.617	5.15
315.829	4.73
316.041	4.56
316.253	4.67
316.465	4.93
316.677	5.61
316.888	5.74
317.1	5.81
317.312	6.06
317.524	6.25
317.736	6.84
317.947	7.42
318.159	7.72
318.371	8.15
318.583	8.08
318.794	8.17
319.006	7.95
319.218	8.05
319.43	7.58
319.641	7.48
319.853	7.33
320.064	6.61
320.276	6.19
320.488	6.19
320.699	5.86
320.911	5.82
321.123	6.33
321.334	6.33
321.546	6.6
321.757	7.01
321.969	7.39
322.18	7.82
322.392	8.32
322.603	8.88
322.815	9.07
323.026	9.59
323.238	9.68
323.449	9.59
323.661	10.14
323.872	9.71
324.083	9.8
324.295	9.87
324.506	10.02
324.718	10.17
324.929	9.76
325.14	9.89
325.352	9.76
325.563	9.96
325.774	10.14
325.986	10.07
326.197	10.64
326.408	11.02
326.62	11.44
326.831	11.56
327.042	12.05
327.253	12.3
327.464	13.05
327.676	13.6
327.887	14.08
328.098	14.3
328.309	14.42
328.52	14.88
328.732	15.6
328.943	15.81
329.154	16.24
329.365	16.51
329.576	17.09
329.787	16.85
329.998	17.54
330.209	17.78
330.42	18.24
330.631	19.18
330.842	19.45
331.053	19.3
331.264	19.39
331.475	20.08
331.686	20.22
331.897	20.76
332.108	21.32
332.319	21.41
332.53	21.48
332.741	21.56
332.952	21.5
333.163	21.61
333.374	21.79
333.585	22.41
333.795	22.39
334.006	22.6
334.217	22.56
334.428	22.6
334.639	22.52
334.849	22.67
335.06	23.26
335.271	23.43
335.482	23.55
335.692	23.88
335.903	23.83
336.114	23.89
336.325	24.29
336.535	24.85
336.746	24.91
336.957	25.04
337.167	25.19
337.378	25.37
337.589	25.39
337.799	25.29
338.01	25.24
338.22	25.32
338.431	25.47
338.642	24.99
338.852	24.95
339.063	25.07
339.273	25.3
339.484	25.31
339.694	25.3
339.905	25.22
340.115	25.35
340.326	25.1
340.536	25.09
340.746	24.58
340.957	24.7
341.167	24.59
341.378	24.91
341.588	24.61
341.799	24.85
342.009	24.8
342.219	25.2
342.43	24.98
342.64	24.95
342.85	24.79
343.061	24.85
343.271	25.17
343.481	25.03
343.691	24.35
343.902	24.68
344.112	24.66
344.322	24.52
344.532	23.95
344.743	24.13
344.953	24.55
345.163	24.76
345.373	24.83
345.583	24.72
345.793	24.87
346.004	25.46
346.214	25.17
346.424	25.1
346.634	25.07
346.844	25.21
347.054	25.31
347.264	24.86
347.474	24.41
347.684	24.2
347.894	24.04
348.104	23.89
348.314	23.52
348.524	23.6
348.734	23.67
348.944	23.6
349.154	23.78
349.364	23.68
349.574	23.72
349.784	24.09
349.994	24.21
350.204	24.11
350.413	24.13
350.623	24.1
350.833	23.93
351.043	23.72
351.253	23.79
351.463	23.92
351.672	23.74
351.882	23.55
352.092	23.34
352.302	23.4
352.511	23.34
352.721	23.45
352.931	23.45
353.141	23.35
353.35	23.09
353.56	23.13
353.77	22.78
353.979	23.04
354.189	23.62
354.399	23.87
354.608	23.76
354.818	23.98
355.027	23.86
355.237	23.98
355.447	24.12
355.656	24.21
355.866	23.85
356.075	23.79
356.285	23.71
356.494	23.26
356.704	23.05
356.913	23.07
357.123	22.77
357.332	22.86
357.542	22.74
357.751	22.61
357.96	22.75
358.17	22.9
358.379	23.01
358.589	23.02
358.798	23.09
359.007	23.06
359.217	23.05
359.426	23.19
359.635	22.83
359.845	22.56
360.054	22.64
360.263	22.6
360.472	22.4
360.682	22.35
360.891	22.18
361.1	22.17
361.309	22.14
361.519	22.1
361.728	22.09
361.937	22.25
362.146	22.36
362.355	22.23
362.564	22.11
362.774	22.14
362.983	21.94
363.192	21.99
363.401	21.91
363.61	21.98
363.819	22.2
364.028	22.29
364.237	22.23
364.446	22.2
364.655	22.13
364.864	22.24
365.073	22.37
365.282	22.46
365.491	22.34
365.7	22.51
365.909	22.28
366.118	22.24
366.327	22.11
366.536	21.89
366.745	21.8
366.954	21.97
367.162	22.01
367.371	22
367.58	22.24
367.789	22.12
367.998	21.87
368.207	21.98
368.415	21.85
368.624	21.93
368.833	22.14
369.042	22.44
369.25	22.45
369.459	22.22
369.668	22.12
369.877	22.24
370.085	22.23
370.294	22.49
370.503	22.19
370.711	22.15
370.92	21.86
371.129	22.15
371.337	21.97
371.546	22.05
371.754	21.95
371.963	21.76
372.171	21.43
372.38	21.45
372.589	21.43
372.797	21.66
373.006	21.33
373.214	21.53
373.423	21.24
373.631	21.32
373.84	21.19
374.048	21.39
374.256	21.68
374.465	21.49
374.673	21.93
374.882	21.86
375.09	21.71
375.298	22.04
375.507	21.95
375.715	21.87
375.923	21.72
376.132	21.54
376.34	21.56
376.548	21.51
376.757	21.81
376.965	21.44
377.173	21.39
377.381	21.41
377.59	21.3
377.798	21.43
378.006	21.32
378.214	21.39
378.423	21.33
378.631	21.25
378.839	21.08
379.047	20.93
379.255	21.05
379.463	21.06
379.671	20.95
379.879	20.88
380.088	20.66
380.296	20.63
380.504	20.55
380.712	20.89
380.92	20.86
381.128	20.96
381.336	20.91
381.544	20.74
381.752	20.62
381.96	20.44
382.168	20.53
382.376	20.81
382.584	21.03
382.791	20.92
382.999	20.96
383.207	20.78
383.415	20.97
383.623	20.8
383.831	20.94
384.039	21.02
384.247	21.22
384.454	21.15
384.662	20.77
384.87	20.54
385.078	20.67
385.285	20.4
385.493	20.46
385.701	20.25
385.909	20.43
386.116	20.45
386.324	20.26
386.532	20.36
386.739	20.51
386.947	20.66
387.155	20.62
387.362	20.61
387.57	20.57
387.778	20.67
387.985	20.79
388.193	20.91
388.4	20.8
388.608	21.13
388.816	21.24
389.023	21.02
389.231	20.96
389.438	21.17
389.646	21.07
389.853	21.19
390.061	21.16
390.268	21.12
390.475	21.05
390.683	20.95
390.89	20.61
391.098	20.45
391.305	20.41
391.512	20.43
391.72	20.39
391.927	20.47
392.135	20.32
392.342	20.32
392.549	20.18
392.756	20.15
392.964	20.29
393.171	20.42
393.378	20.56
393.586	20.71
393.793	20.6
394	20.67
394.207	20.6
394.414	20.76
394.622	20.82
394.829	20.87
395.036	20.67
395.243	20.67
395.45	20.68
395.657	20.63
395.864	20.64
396.072	20.88
396.279	20.68
396.486	20.81
396.693	20.69
396.9	20.68
397.107	20.62
397.314	20.81
397.521	20.99
397.728	21
397.935	20.94
398.142	20.87
398.349	20.88
398.556	21.16
398.763	20.93
398.97	20.94
399.177	20.97
399.383	21.13
399.59	21.11
399.797	20.96
400.004	21.06
400.211	21.05
400.418	20.97
400.625	20.85
400.831	20.61
401.038	20.84
401.245	20.79
401.452	20.62
401.658	20.35
401.865	20.34
402.072	20.36
402.279	20.28
402.485	20.35
402.692	20.43
402.899	20.4
403.105	20.46
403.312	20.53
403.519	20.62
403.725	20.65
403.932	20.88
404.138	21.03
404.345	20.91
404.552	20.86
404.758	20.98
404.965	20.93
405.171	20.96
405.378	20.98
405.584	20.91
405.791	20.89
405.997	20.92
406.204	20.82
406.41	20.72
406.617	20.78
406.823	20.74
407.029	20.58
407.236	20.63
407.442	20.87
407.649	21
407.855	20.9
408.061	20.97
408.268	20.95
408.474	20.94
408.68	20.82
408.887	20.9
409.093	20.94
409.299	20.95
409.505	20.93
409.712	20.87
409.918	20.96
410.124	20.96
410.33	21.14
410.537	21.13
410.743	21.16
410.949	21.19
411.155	21.16
411.361	21.23
411.567	21.32
411.773	21.35
411.98	21.15
412.186	20.87
412.392	20.78
412.598	20.57
412.804	20.53
413.01	20.53
413.216	20.4
413.422	20.33
413.628	20.24
413.834	20.17
414.04	20.31
414.246	20.62
414.452	20.82
414.658	20.86
414.864	20.75
415.07	21
415.275	21.08
415.481	21.32
415.687	21.25
415.893	21.24
416.099	21.17
416.305	21.03
416.511	20.91
416.716	20.87
416.922	20.88
417.128	20.99
417.334	20.84
417.539	20.73
417.745	20.59
417.951	20.64
418.157	20.67
418.362	20.72
418.568	20.8
418.774	20.7
418.979	20.62
419.185	20.58
419.391	20.53
419.596	20.55
419.802	20.64
420.008	20.67
420.213	20.71
420.419	20.71
420.624	20.72
420.83	20.66
421.035	20.7
421.241	20.69
421.446	20.74
421.652	20.7
421.857	20.76
422.063	20.71
422.268	20.75
422.474	20.59
422.679	20.58
422.885	20.57
423.09	20.56
423.295	20.48
423.501	20.45
423.706	20.47
423.911	20.47
424.117	20.28
424.322	20.34
424.527	20.33
424.733	20.42
424.938	20.42
425.143	20.36
425.349	20.4
425.554	20.48
425.759	20.56
425.964	20.6
426.169	20.59
426.375	20.71
426.58	20.64
426.785	20.67
426.99	20.75
427.195	20.71
427.4	20.74
427.605	20.54
427.811	20.48
428.016	20.45
428.221	20.38
428.426	20.51
428.631	20.55
428.836	20.54
429.041	20.39
429.246	20.3
429.451	20.38
429.656	20.36
429.861	20.57
430.066	20.62
430.271	20.53
430.476	20.54
430.681	20.46
430.886	20.38
431.09	20.44
431.295	20.53
431.5	20.48
431.705	20.41
431.91	20.44
432.115	20.45
432.32	20.34
432.524	20.44
432.729	20.52
432.934	20.5
433.139	20.71
433.343	20.82
433.548	20.79
433.753	20.88
433.958	21.01
434.162	21.12
434.367	21.14
434.572	21.31
434.776	21.48
434.981	21.48
435.186	21.65
435.39	21.58
435.595	21.53
435.799	21.53
436.004	21.53
436.209	21.5
436.413	21.43
436.618	21.4
436.822	21.38
437.027	21.17
437.231	21.18
437.436	21.01
437.64	20.94
437.845	20.88
438.049	20.99
438.253	20.93
438.458	20.81
438.662	20.81
438.867	20.89
439.071	20.71
439.275	20.72
439.48	20.63
439.684	20.63
439.888	20.66
440.093	20.58
440.297	20.57
440.501	20.59
440.706	20.62
440.91	20.58
441.114	20.5
441.318	20.59
441.523	20.58
441.727	20.67
441.931	20.72
442.135	20.75
442.339	20.85
442.543	20.73
442.748	20.71
442.952	20.76
443.156	20.9
443.36	20.89
443.564	21
443.768	20.93
443.972	20.88
444.176	20.93
444.38	20.93
444.584	20.93
444.788	21.06
444.992	21.19
445.196	21.11
445.4	21.06
445.604	21.02
445.808	20.97
446.012	21.05
446.216	20.98
446.42	21
446.624	20.97
446.828	20.92
447.032	20.89
447.235	20.81
447.439	20.84
447.643	20.85
447.847	20.89
448.051	20.88
448.254	20.86
448.458	20.88
448.662	20.87
448.866	20.84
449.069	20.82
449.273	20.84
449.477	20.9
449.681	20.94
449.884	20.94
450.088	20.98
450.292	20.95
450.495	20.92
450.699	20.97
450.902	20.91
451.106	20.97
451.31	21.13
451.513	21.14
451.717	21.05
451.92	20.98
452.124	20.92
452.327	20.96
452.531	21.01
452.734	20.97
452.938	20.99
453.141	20.99
453.345	21.03
453.548	21.05
453.752	21.1
453.955	21.21
454.158	21.26
454.362	21.34
454.565	21.32
454.769	21.33
454.972	21.49
455.175	21.57
455.379	21.64
455.582	21.65
455.785	21.54
455.988	21.45
456.192	21.33
456.395	21.27
456.598	21.22
456.801	21.26
457.005	21.21
457.208	21.1
457.411	21.11
457.614	20.99
457.817	21.14
458.021	21.2
458.224	21.29
458.427	21.35
458.63	21.48
458.833	21.52
459.036	21.39
459.239	21.46
459.442	21.55
459.645	21.52
459.848	21.51
460.051	21.38
460.254	21.32
460.457	21.24
460.66	21.24
460.863	21.14
461.066	21.17
461.269	21.24
461.472	21.26
461.675	21.21
461.878	21.14
462.081	21.27
462.284	21.34
462.486	21.29
462.689	21.36
462.892	21.28
463.095	21.28
463.298	21.26
463.5	21.39
463.703	21.38
463.906	21.43
464.109	21.55
464.311	21.57
464.514	21.58
464.717	21.71
464.92	21.73
465.122	21.83
465.325	22.04
465.528	22.1
465.73	21.99
465.933	21.95
466.135	21.9
466.338	21.86
466.541	21.83
466.743	21.77
466.946	21.76
467.148	21.76
467.351	21.77
467.553	21.67
467.756	21.59
467.958	21.64
468.161	21.59
468.363	21.63
468.566	21.74
468.768	21.71
468.971	21.65
469.173	21.56
469.375	21.51
469.578	21.51
469.78	21.45
469.983	21.58
470.185	21.59
470.387	21.71
470.59	21.65
470.792	21.5
470.994	21.53
471.196	21.53
471.399	21.64
471.601	21.73
471.803	21.73
472.005	21.86
472.208	21.75
472.41	21.66
472.612	21.54
472.814	21.53
473.016	21.57
473.218	21.5
473.421	21.61
473.623	21.5
473.825	21.41
474.027	21.59
474.229	21.52
474.431	21.44
474.633	21.51
474.835	21.58
475.037	21.65
475.239	21.67
475.441	21.7
475.643	21.62
475.845	21.71
476.047	21.77
476.249	21.58
476.451	21.56
476.653	21.64
476.855	21.62
477.057	21.57
477.258	21.49
477.46	21.47
477.662	21.54
477.864	21.62
478.066	21.7
478.268	21.71
478.469	21.78
478.671	21.77
478.873	21.78
479.075	21.83
479.276	21.85
479.478	21.9
479.68	21.95
479.882	21.94
480.083	21.94
480.285	21.85
480.487	21.8
480.688	21.79
480.89	21.78
481.091	21.71
481.293	21.61
481.495	21.65
481.696	21.69
481.898	21.61
482.099	21.57
482.301	21.42
482.502	21.36
482.704	21.33
482.905	21.29
483.107	21.24
483.308	21.23
483.51	21.22
483.711	21.16
483.913	21.09
484.114	21.05
484.315	21.04
484.517	21.08
484.718	21.1
484.92	21.09
485.121	21.09
485.322	21.11
485.524	21.1
485.725	21.12
485.926	21.15
486.127	21.2
486.329	21.27
486.53	21.3
486.731	21.29
486.932	21.27
487.134	21.31
487.335	21.32
487.536	21.32
487.737	21.35
487.938	21.37
488.139	21.4
488.341	21.43
488.542	21.41
488.743	21.39
488.944	21.39
489.145	21.45
489.346	21.48
489.547	21.54
489.748	21.55
489.949	21.61
490.15	21.65
490.351	21.66
490.552	21.6
490.753	21.57
490.954	21.54
491.155	21.52
491.356	21.5
491.557	21.45
491.758	21.44
491.959	21.42
492.159	21.36
492.36	21.35
492.561	21.32
492.762	21.38
492.963	21.42
493.164	21.44
493.364	21.56
493.565	21.65
493.766	21.76
493.967	21.76
494.167	21.87
494.368	21.99
494.569	21.99
494.769	22.04
494.97	22.07
495.171	22.12
495.371	22.19
495.572	22.17
495.773	22.06
495.973	22.01
496.174	22.03
496.375	22.02
496.575	21.93
496.776	21.92
496.976	21.9
497.177	21.89
497.377	21.93
497.578	22
497.778	22.02
497.979	22.1
498.179	22.09
498.38	22.09
498.58	22.1
498.78	22.26
498.981	22.29
499.181	22.31
499.382	22.36
499.582	22.4
499.782	22.39
499.983	22.39
500.183	22.5
500.383	22.57
500.584	22.59
500.784	22.58
500.984	22.52
501.184	22.55
501.385	22.59
501.585	22.5
501.785	22.47
501.985	22.43
502.185	22.55
502.386	22.5
502.586	22.53
502.786	22.57
502.986	22.61
503.186	22.58
503.386	22.56
503.586	22.65
503.786	22.75
503.987	22.77
504.187	22.8
504.387	22.71
504.587	22.72
504.787	22.67
504.987	22.7
505.187	22.76
505.387	22.88
505.587	22.95
505.786	22.87
505.986	22.86
506.186	22.89
506.386	22.92
506.586	22.93
506.786	22.87
506.986	22.95
507.186	22.93
507.386	22.94
507.585	22.91
507.785	22.87
507.985	22.9
508.185	22.89
508.384	22.85
508.584	22.92
508.784	22.9
508.984	22.91
509.183	22.89
509.383	22.91
509.583	22.86
509.782	22.9
509.982	22.84
510.182	22.84
510.381	22.81
510.581	22.88
510.781	22.87
510.98	22.93
511.18	22.98
511.379	22.99
511.579	22.9
511.778	22.93
511.978	22.82
512.177	22.94
512.377	22.97
512.576	23.08
512.776	23
512.975	22.97
513.175	22.95
513.374	22.92
513.573	22.95
513.773	23.02
513.972	22.99
514.172	23.01
514.371	23.03
514.57	22.98
514.77	22.96
514.969	22.99
515.168	23.04
515.367	23.02
515.567	23.06
515.766	23
515.965	23.09
516.164	23.16
516.364	23.25
516.563	23.21
516.762	23.23
516.961	23.22
517.16	23.27
517.359	23.21
517.559	23.27
517.758	23.28
517.957	23.22
518.156	23.15
518.355	23.13
518.554	23.05
518.753	23.07
518.952	23.11
519.151	23.04
519.35	23.03
519.549	22.97
519.748	22.96
519.947	22.92
520.146	23.05
520.345	23.09
520.544	23.14
520.743	23.25
520.942	23.19
521.141	23.27
521.339	23.4
521.538	23.43
521.737	23.57
521.936	23.71
522.135	23.76
522.333	23.78
522.532	23.81
522.731	23.83
522.93	23.79
523.129	23.83
523.327	23.77
523.526	23.74
523.725	23.77
523.923	23.74
524.122	23.64
524.321	23.69
524.519	23.63
524.718	23.65
524.917	23.6
525.115	23.53
525.314	23.52
525.512	23.52
525.711	23.49
525.909	23.43
526.108	23.45
526.306	23.32
526.505	23.22
526.703	23.14
526.902	23.1
527.1	23.04
527.299	23.03
527.497	22.97
527.696	22.95
527.894	22.94
528.092	22.9
528.291	22.83
528.489	22.88
528.688	22.89
528.886	22.89
529.084	22.86
529.283	22.89
529.481	22.89
529.679	22.91
529.877	22.91
530.076	22.92
530.274	22.94
530.472	22.98
530.67	22.99
530.869	22.98
531.067	23.05
531.265	23.05
531.463	23.02
531.661	23.02
531.859	23.02
532.057	23.01
532.255	22.98
532.454	22.98
532.652	22.96
532.85	22.97
533.048	22.94
533.246	22.97
533.444	22.98
533.642	23.03
533.84	23.05
534.038	23.15
534.236	23.14
534.434	23.22
534.632	23.26
534.83	23.34
535.027	23.33
535.225	23.41
535.423	23.43
535.621	23.52
535.819	23.5
536.017	23.56
536.215	23.5
536.412	23.65
536.61	23.66
536.808	23.71
537.006	23.81
537.203	23.92
537.401	24
537.599	24.03
537.797	24.11
537.994	24.25
538.192	24.31
538.39	24.46
538.587	24.53
538.785	24.64
538.983	24.7
539.18	24.72
539.378	24.79
539.575	24.82
539.773	24.85
539.97	24.79
540.168	24.76
540.366	24.75
540.563	24.73
540.761	24.71
540.958	24.71
541.155	24.69
541.353	24.63
541.55	24.63
541.748	24.62
541.945	24.6
542.143	24.65
542.34	24.69
542.537	24.69
542.735	24.71
542.932	24.73
543.129	24.81
543.327	24.94
543.524	25.17
543.721	25.35
543.919	25.52
544.116	25.77
544.313	26.04
544.51	26.32
544.708	26.63
544.905	26.86
545.102	27.15
545.299	27.24
545.496	27.4
545.693	27.39
545.891	27.36
546.088	27.37
546.285	27.28
546.482	27.22
546.679	27.04
546.876	26.94
547.073	26.78
547.27	26.59
547.467	26.53
547.664	26.41
547.861	26.33
548.058	26.3
548.255	26.25
548.452	26.26
548.649	26.17
548.846	26.2
549.043	26.14
549.24	26.16
549.437	26.14
549.633	26.12
549.83	26.05
550.027	26.14
550.224	26.01
550.421	25.96
550.618	25.92
550.814	25.86
551.011	25.82
551.208	25.69
551.405	25.62
551.601	25.54
551.798	25.51
551.995	25.42
552.191	25.37
552.388	25.4
552.585	25.37
552.781	25.28
552.978	25.14
553.175	25.12
553.371	25.28
553.568	25.27
553.764	25.32
553.961	25.32
554.157	25.36
554.354	25.35
554.55	25.24
554.747	25.27
554.943	25.37
555.14	25.51
555.336	25.43
555.533	25.32
555.729	25.44
555.926	25.52
556.122	25.55
556.318	25.39
556.515	25.27
556.711	25.33
556.907	25.25
557.104	25.11
557.3	25.15
557.496	25.2
557.693	25.25
557.889	25.21
558.085	25.25
558.281	25.21
558.478	25.26
558.674	25.33
558.87	25.33
559.066	25.32
559.262	25.34
559.459	25.26
559.655	25.35
559.851	25.36
560.047	25.2
560.243	25.23
560.439	25.4
560.635	25.49
560.831	25.51
561.027	25.59
561.223	25.66
561.419	25.76
561.615	25.82
561.811	25.75
562.007	25.69
562.203	25.92
562.399	25.88
562.595	25.79
562.791	25.85
562.987	25.77
563.183	25.62
563.379	25.68
563.575	25.6
563.771	25.56
563.966	25.57
564.162	25.6
564.358	25.55
564.554	25.47
564.75	25.37
564.945	25.33
565.141	25.27
565.337	25.35
565.533	25.21
565.728	25.08
565.924	25.11
566.12	25.11
566.315	25.13
566.511	25.12
566.707	25.1
566.902	25.17
567.098	25.25
567.293	25.31
567.489	25.28
567.684	25.44
567.88	25.61
568.076	25.65
568.271	25.72
568.467	25.64
568.662	25.7
568.858	25.81
569.053	25.81
569.248	25.75
569.444	25.8
569.639	25.77
569.835	25.7
570.03	25.58
570.225	25.59
570.421	25.46
570.616	25.52
570.812	25.49
571.007	25.38
571.202	25.37
571.397	25.34
571.593	25.35
571.788	25.4
571.983	25.48
572.178	25.65
572.374	25.57
572.569	25.7
572.764	25.65
572.959	25.51
573.154	25.59
573.35	25.55
573.545	25.58
573.74	25.56
573.935	25.57
574.13	25.52
574.325	25.43
574.52	25.49
574.715	25.47
574.91	25.59
575.105	25.8
575.3	25.85
575.495	25.9
575.69	26.11
575.885	26.22
576.08	26.27
576.275	26.36
576.47	26.52
576.665	26.65
576.86	26.75
577.055	26.88
577.25	26.89
577.444	26.9
577.639	27.12
577.834	27.21
578.029	27.35
578.224	27.5
578.418	27.62
578.613	27.62
578.808	27.66
579.003	27.76
579.197	27.69
579.392	27.68
579.587	27.74
579.781	27.72
579.976	27.53
580.171	27.45
580.365	27.41
580.56	27.43
580.755	27.52
580.949	27.41
581.144	27.42
581.338	27.5
581.533	27.62
581.727	27.58
581.922	27.59
582.116	27.67
582.311	27.7
582.505	27.76
582.7	27.83
582.894	27.87
583.089	28
583.283	27.93
583.478	27.99
583.672	27.97
583.866	28.12
584.061	28.09
584.255	28.15
584.449	28.22
584.644	28.34
584.838	28.34
585.032	28.32
585.226	28.38
585.421	28.51
585.615	28.61
585.809	28.85
586.003	28.87
586.198	29.01
586.392	28.98
586.586	28.96
586.78	28.9
586.974	28.89
587.168	28.73
587.363	28.81
587.557	28.69
587.751	28.49
587.945	28.24
588.139	28.13
588.333	27.95
588.527	27.96
588.721	27.94
588.915	27.85
589.109	27.69
589.303	27.81
589.497	27.67
589.691	27.67
589.885	27.75
590.079	27.98
590.273	28.05
590.466	28.14
590.66	28.23
590.854	28.2
591.048	28.27
591.242	28.42
591.436	28.52
591.629	28.6
591.823	28.71
592.017	28.78
592.211	28.71
592.404	28.78
592.598	28.78
592.792	28.65
592.986	28.72
593.179	28.79
593.373	28.86
593.567	28.84
593.76	28.8
593.954	28.77
594.147	28.69
594.341	28.54
594.535	28.46
594.728	28.47
594.922	28.44
595.115	28.38
595.309	28.18
595.502	28.08
595.696	27.98
595.889	27.94
596.083	27.81
596.276	27.84
596.47	27.82
596.663	27.78
596.856	27.71
597.05	27.8
597.243	27.92
597.437	28.13
597.63	28.22
597.823	28.33
598.017	28.54
598.21	28.69
598.403	28.9
598.596	29.1
598.79	29.18
598.983	29.31
599.176	29.34
599.369	29.37
599.563	29.43
599.756	29.47
599.949	29.56
600.142	29.45
600.335	29.71
600.528	29.47
600.722	29.31
600.915	29.37
601.108	29.38
601.301	29.35
601.494	29.32
601.687	29.23
601.88	29.25
602.073	29.16
602.266	29.07
602.459	28.81
602.652	28.82
602.845	28.86
603.038	28.87
603.231	28.77
603.424	28.73
603.617	28.64
603.809	28.61
604.002	28.55
604.195	28.62
604.388	28.71
604.581	28.63
604.774	28.57
604.966	28.58
605.159	28.66
605.352	28.81
605.545	28.98
605.737	29.09
605.93	29.22
606.123	29.37
606.316	29.43
606.508	29.55
606.701	29.82
606.894	30
607.086	30.2
607.279	30.3
607.471	30.47
607.664	30.66
607.857	31.01
608.049	31.29
608.242	31.68
608.434	32.19
608.627	32.9
608.819	33.69
609.012	34.7
609.204	35.74
609.397	36.88
609.589	38.09
609.782	39.44
609.974	40.78
610.166	42.06
610.359	43.43
610.551	44.59
610.743	45.58
610.936	46.53
611.128	47.06
611.32	47.48
611.513	47.7
611.705	47.49
611.897	47.08
612.09	46.44
612.282	46.05
612.474	45.25
612.666	44.47
612.858	43.89
613.051	43.03
613.243	42.52
613.435	41.96
613.627	41.28
613.819	40.94
614.011	40.7
614.203	40.42
614.395	39.73
614.588	39.48
614.78	39.06
614.972	38.27
615.164	37.96
615.356	37.5
615.548	36.86
615.74	36.46
615.932	35.98
616.124	35.4
616.315	34.88
616.507	34.43
616.699	33.81
616.891	33.51
617.083	33.4
617.275	33.08
617.467	32.8
617.659	32.8
617.85	32.7
618.042	32.9
618.234	32.9
618.426	32.94
618.618	33.01
618.809	33.07
619.001	33.01
619.193	33.13
619.384	33.04
619.576	33.09
619.768	33.12
619.959	33.34
620.151	33.19
620.343	33.2
620.534	33.32
620.726	33.57
620.917	33.61
621.109	33.8
621.301	33.82
621.492	33.97
621.684	33.96
621.875	33.98
622.067	33.85
622.258	33.74
622.45	33.71
622.641	33.67
622.832	33.28
623.024	33.55
623.215	33.58
623.407	33.47
623.598	33.52
623.789	33.49
623.981	33.39
624.172	33.34
624.363	33.52
624.555	33.63
624.746	33.55
624.937	33.77
625.129	33.48
625.32	33.37
625.511	33.29
625.702	33.24
625.893	33.3
626.085	33.31
626.276	33.4
626.467	33.33
626.658	33.27
626.849	33.3
627.04	33.26
627.231	33.23
627.422	33.31
627.614	33.52
627.805	33.46
627.996	33.68
628.187	33.9
628.378	33.98
628.569	34.04
628.76	34.21
628.951	34.38
629.142	34.66
629.332	34.97
629.523	35.04
629.714	35.27
629.905	35.65
630.096	35.57
630.287	35.52
630.478	35.54
630.669	35.46
630.859	35.48
631.05	35.36
631.241	35.07
631.432	34.9
631.623	34.88
631.813	34.48
632.004	34.21
632.195	33.95
632.385	33.85
632.576	33.67
632.767	33.67
632.957	33.29
633.148	33.13
633.339	33.03
633.529	32.82
633.72	32.79
633.91	32.79
634.101	32.67
634.292	32.75
634.482	32.52
634.673	32.38
634.863	32.43
635.054	32.69
635.244	32.89
635.435	33.22
635.625	33.51
635.815	33.55
636.006	33.76
636.196	34
636.387	33.96
636.577	34.1
636.767	34.22
636.958	34.19
637.148	34.18
637.338	34.16
637.529	34.03
637.719	33.86
637.909	33.81
638.099	33.62
638.29	33.48
638.48	33.61
638.67	33.75
638.86	33.76
639.05	33.72
639.241	33.89
639.431	33.86
639.621	33.88
639.811	34.06
640.001	34.07
640.191	34.16
640.381	34.1
640.571	34.08
640.761	34
640.951	34.29
641.141	34.45
641.331	34.26
641.521	34.24
641.711	34.55
641.901	34.52
642.091	34.61
642.281	34.73
642.471	34.88
642.661	34.97
642.851	35.06
643.041	34.75
643.231	34.8
643.42	35.1
643.61	35.21
643.8	35.04
643.99	34.97
644.18	35.05
644.369	35.11
644.559	35.17
644.749	35.22
644.939	35.35
645.128	35.36
645.318	35.34
645.508	35.1
645.697	35.1
645.887	35.2
646.076	35.41
646.266	35.5
646.456	35.47
646.645	35.43
646.835	35.28
647.024	35.35
647.214	35.48
647.403	35.49
647.593	35.82
647.782	35.95
647.972	35.89
648.161	35.85
648.351	35.71
648.54	36.04
648.73	36.15
648.919	36.46
649.108	36.31
649.298	36.58
649.487	36.53
649.677	36.58
649.866	36.75
650.055	36.9
650.244	36.85
650.434	37.13
650.623	36.82
650.812	37.03
651.002	36.96
651.191	37.09
651.38	37.22
651.569	37.33
651.758	37.06
651.947	37.01
652.137	37
652.326	37.27
652.515	37.12
652.704	37.4
652.893	37.26
653.082	37.4
653.271	37.51
653.46	37.24
653.649	37.51
653.838	37.71
654.027	37.71
654.216	37.55
654.405	37.63
654.594	37.59
654.783	37.5
654.972	37.53
655.161	37.41
655.35	37.54
655.539	37.67
655.728	37.45
655.916	37.47
656.105	37.54
656.294	37.4
656.483	37.17
656.672	37.34
656.86	37.28
657.049	37.28
657.238	37.32
657.427	37.16
657.615	37.19
657.804	37.31
657.993	37.17
658.181	37.02
658.37	36.99
658.559	37.1
658.747	37.06
658.936	36.98
659.125	37.07
659.313	37.03
659.502	37
659.69	36.83
659.879	36.82
660.067	36.97
660.256	37.05
660.444	37.46
660.633	37.43
660.821	37.7
661.01	37.88
661.198	37.88
661.387	38.07
661.575	38.22
661.763	38.59
661.952	38.88
662.14	39.11
662.328	39.51
662.517	39.61
662.705	39.78
662.893	39.72
663.082	39.82
663.27	39.91
663.458	39.9
663.646	40.06
663.834	39.88
664.023	39.64
664.211	39.56
664.399	39.32
664.587	39.33
664.775	39.2
664.963	39.05
665.152	39.17
665.34	39.26
665.528	39.3
665.716	39.31
665.904	39.52
666.092	39.78
666.28	39.83
666.468	39.92
666.656	39.8
666.844	40.1
667.032	40.42
667.22	40.21
667.408	40.31
667.596	40.62
667.784	40.63
667.971	40.85
668.159	40.77
668.347	40.64
668.535	40.81
668.723	40.53
668.911	40.62
669.098	40.62
669.286	40.8
669.474	40.87
669.662	40.58
669.849	40.66
670.037	40.59
670.225	40.58
670.413	40.73
670.6	40.95
670.788	41.22
670.976	41.04
671.163	41.14
671.351	41.04
671.538	41.1
671.726	41.4
671.913	41.48
672.101	41.48
672.289	41.51
672.476	41.39
672.664	41.05
672.851	41.48
673.039	41.66
673.226	41.66
673.413	41.86
673.601	41.77
673.788	41.61
673.976	41.59
674.163	41.6
674.35	41.61
674.538	41.69
674.725	41.94
674.912	42.03
675.1	41.86
675.287	41.85
675.474	41.95
675.662	42.11
675.849	42.01
676.036	42.01
676.223	42.09
676.411	42.28
676.598	42.25
676.785	42.18
676.972	41.98
677.159	42.1
677.346	42.01
677.533	42.09
677.721	42.15
677.908	42.41
678.095	42.26
678.282	42.13
678.469	42.07
678.656	42.44
678.843	42.45
679.03	42.44
679.217	42.38
679.404	42.51
679.591	42.38
679.778	42.29
679.964	42
680.151	42.17
680.338	42.18
680.525	42.28
680.712	41.96
680.899	41.95
681.086	41.85
681.272	42.06
681.459	42.1
681.646	42.24
681.833	42.29
682.02	42.65
682.206	42.71
682.393	43.07
682.58	42.99
682.766	43.05
682.953	43.12
683.14	43.21
683.326	43.37
683.513	43.36
683.7	43.44
683.886	43.66
684.073	43.49
684.259	43.66
684.446	43.51
684.632	43.71
684.819	43.95
685.005	43.99
685.192	44.19
685.378	44.12
685.565	44.18
685.751	44.32
685.938	44.2
686.124	44.46
686.31	44.24
686.497	44.05
686.683	43.89
686.87	43.82
687.056	43.64
687.242	43.62
687.429	43.67
687.615	43.85
687.801	43.75
687.987	43.86
688.174	43.75
688.36	43.85
688.546	44.11
688.732	44.37
688.918	44.6
689.105	44.86
689.291	45.1
689.477	45.13
689.663	45.12
689.849	45
690.035	44.66
690.221	45.01
690.407	45.28
690.593	45.3
690.779	45.06
690.965	44.91
691.151	44.98
691.337	44.92
691.523	45.03
691.709	45.28
691.895	45.55
692.081	46
692.267	45.89
692.453	45.86
692.639	45.94
692.825	45.98
693.011	46.16
693.196	46.17
693.382	45.87
693.568	45.72
693.754	45.33
693.94	45.22
694.125	45.2
694.311	45.32
694.497	45.43
694.682	45.57
694.868	46.03
695.054	45.89
695.239	45.7
695.425	45.93
695.611	45.89
695.796	46.13
695.982	46.14
696.168	46.05
696.353	46.15
696.539	45.94
696.724	45.63
696.91	45.16
697.095	44.99
697.281	44.94
697.466	44.89
697.652	44.83
697.837	44.52
698.023	44.22
698.208	44.03
698.393	43.67
698.579	43.59
698.764	43.69
698.949	43.69
699.135	43.74
699.32	43.87
699.505	43.8
699.691	43.78
699.876	43.89
700.061	44.14
700.246	44.41
700.432	44.55
700.617	44.51
700.802	44.69
700.987	44.76
701.172	44.92
701.358	45.11
701.543	45.38
701.728	45.88
701.913	46.19
702.098	46.35
702.283	46.64
702.468	46.76
702.653	47.28
702.838	47.16
703.023	47.98
703.208	48.52
703.393	48.62
703.578	48.35
703.763	48.17
703.948	48.51
704.133	48.73
704.318	48.53
704.503	49.1
704.688	49.54
704.873	49.79
705.057	49.69
705.242	49.73
705.427	50.17
705.612	50.57
705.797	51.32
705.981	51.21
706.166	51.37
706.351	51.47
706.536	51.63
706.72	51.46
706.905	51.5
707.09	51.33
707.274	51.42
707.459	51.04
707.644	51.3
707.828	50.91
708.013	51.18
708.197	51.14
708.382	51.52
708.567	51.29
708.751	50.66
708.936	50.46
709.12	50.74
709.305	50.72
709.489	50.99
709.673	51.1
709.858	51.28
710.042	51.15
710.227	51.1
710.411	51.01
710.596	51.52
710.78	52.16
710.964	52.61
711.149	52.44
711.333	52.29
711.517	52.26
711.702	52.29
711.886	51.76
712.07	51.85
712.254	52.1
712.438	51.82
712.623	50.94
712.807	50.98
712.991	50.36
713.175	50.38
713.359	50.16
713.544	49.87
713.728	49.47
713.912	49.55
714.096	48.89
714.28	48.4
714.464	48.52
714.648	48.67
714.832	48.04
715.016	48.25
715.2	47.54
715.384	47.5
715.568	47.15
715.752	46.89
715.936	46.51
716.12	46.45
716.304	46.98
716.488	46.2
716.671	45.87
716.855	46.09
717.039	46.15
717.223	46.49
717.407	46.43
717.59	46.63
717.774	46.6
717.958	47.08
718.142	47.21
718.325	46.7
718.509	47.37
718.693	47.96
718.877	47.79
719.06	47.65
719.244	47.66
719.428	48.13
719.611	48.17
719.795	48.26
719.978	48.06
720.162	48.16
720.345	48.17
720.529	48.36
720.713	48.33
720.896	48.45
721.08	48.4
721.263	48.6
721.446	48.34
721.63	48.66
721.813	48.91
721.997	49.48
722.18	49.54
722.364	49.56
722.547	49.51
722.73	49.25
722.914	49.17
723.097	49.4
723.28	48.88
723.464	48.72
723.647	48.37
723.83	48.53
724.013	48.1
724.197	48.34
724.38	48.58
724.563	48.35
724.746	48.4
724.929	48.81
725.112	48.81
725.296	48.79
725.479	48.47
725.662	48.52
725.845	48.61
726.028	48.38
726.211	48.17
726.394	47.96
726.577	47.88
726.76	48.09
726.943	47.9
727.126	47.5
727.309	47.89
727.492	48
727.675	48.11
727.858	47.55
728.041	47.82
728.224	47.91
728.407	47.99
728.589	47.69
728.772	47.71
728.955	47.57
729.138	47.23
729.321	47.31
729.503	47.3
729.686	47.41
729.869	47.82
730.052	47.61
730.234	47.86
730.417	47.57
730.6	47.83
730.782	48.02
730.965	48.22
731.148	48.66
731.33	48.44
731.513	48.31
731.695	48.32
731.878	48.27
732.061	48.35
732.243	47.89
732.426	48.08
732.608	48.46
732.791	47.97
732.973	47.84
733.156	47.85
733.338	47.86
733.52	48.2
733.703	47.9
733.885	48
734.068	48.09
734.25	48.2
734.432	47.94
734.615	47.99
734.797	48.54
734.979	48.74
735.162	48.86
735.344	49.31
735.526	49.02
735.708	49.23
735.891	49.06
736.073	49.1
736.255	49.59
736.437	50.03
736.619	49.87
736.802	49.2
736.984	49.64
737.166	49.69
737.348	49.64
737.53	50.27
737.712	50.18
737.894	50.98
738.076	50.64
738.258	50.7
738.44	50.72
738.622	50.66
738.804	51.12
738.986	50.59
739.168	51.12
739.35	50.93
739.532	50.87
739.714	51.31
739.896	50.73
740.078	51.08
740.259	51.39
740.441	51.44
740.623	51.62
740.805	51.2
740.987	51.39
741.168	51.71
741.35	51.57
741.532	51.69
741.714	51.57
741.895	51.25
742.077	51.5
742.259	51.37
742.44	51.32
742.622	51.23
742.804	51.52
742.985	51.61
743.167	51.4
743.348	52.61
743.53	52.61
743.711	52.27
743.893	52.73
744.075	52.36
744.256	52.12
744.438	52.53
744.619	53.19
744.8	53.51
744.982	54.05
745.163	53.28
745.345	52.96
745.526	53.4
745.707	53.79
745.889	54.06
746.07	55.03
746.252	55.19
746.433	54.8
746.614	54.25
746.795	53.88
746.977	53.31
747.158	53.54
747.339	52.69
747.52	52.14
747.702	52.02
747.883	51.4
748.064	50.49
748.245	49.93
748.426	49.91
748.607	50.11
748.788	50.78
748.97	50.35
749.151	50.78
749.332	51.6
749.513	51.63
749.694	51.75
749.875	52.62
750.056	53.32
750.237	54.07
750.418	54.08
750.599	54.1
750.78	53.26
750.96	53.56
751.141	53.41
751.322	53.04
751.503	53.07
751.684	53.51
751.865	53.19
752.046	52.31
752.226	51.46
752.407	51.66
752.588	51.34
752.769	51.79
752.949	52.31
753.13	52.23
753.311	52.48
753.492	53.11
753.672	53.42
753.853	53.34
754.034	54.73
754.214	55.75
754.395	55.88
754.575	56.28
754.756	56.06
754.937	55.59
755.117	55.44
755.298	55.13
755.478	54.67
755.659	54.32
755.839	54.02
756.02	53.72
756.2	53.6
756.381	53.4
756.561	52.93
756.741	53.22
756.922	53.15
757.102	53.14
757.283	53.46
757.463	53.22
757.643	52.54
757.823	53.44
758.004	52.85
758.184	52.34
758.364	52.18
758.545	52.14
758.725	52.16
758.905	51.79
759.085	51.07
759.265	50.65
759.446	50.29
759.626	50.61
759.806	49.48
759.986	48.72
760.166	48.5
760.346	48.58
760.526	48.51
760.706	48.21
760.886	48.29
761.066	48.33
761.246	47.79
761.426	48.14
761.606	47.96
761.786	48.02
761.966	48.65
762.146	48.04
762.326	47.66
762.506	47.67
762.686	47.65
762.866	47.5
763.046	47.81
763.225	48.17
763.405	48.05
763.585	47.93
763.765	47.8
763.945	47.39
764.124	47.47
764.304	47.43
764.484	47.33
764.664	47.35
764.843	47.56
765.023	47.82
765.203	47.76
765.382	47.95
765.562	48.26
765.741	48.39
765.921	48.88
766.101	49.49
766.28	49.76
766.46	49.95
766.639	50.47
766.819	50.98
766.998	51.05
767.178	51.75
767.357	51.41
767.537	51.61
767.716	51.98
767.896	51.92
768.075	52.2
768.254	52.31
768.434	53.09
768.613	53.09
768.792	53.71
768.972	53.77
769.151	53.57
769.33	54.14
769.51	54.16
769.689	54.16
769.868	54.02
770.047	54.13
770.226	55.06
770.406	55.49
770.585	54.76
770.764	54.1
770.943	54.08
771.122	54.29
771.301	54.86
771.48	54.88
771.66	55.32
771.839	56.42
772.018	56.33
772.197	56.57
772.376	55.8
772.555	56.75
772.734	57.51
772.913	57.77
773.092	57.62
773.271	57.58
773.449	57.34
773.628	57.01
773.807	56.4
773.986	57.03
774.165	56.28
774.344	56.8
774.523	57.07
774.701	56.94
774.88	56.55
775.059	56.79
775.238	56.46
775.417	56.85
775.595	57.12
775.774	57.06
775.953	56.71
776.131	56.64
776.31	56.43
776.489	55.49
776.667	55.46
776.846	56.1
777.025	55.72
777.203	55.67
777.382	56.01
777.56	55.99
777.739	57.06
777.917	56.34
778.096	56.97
778.274	56.45
778.453	56.91
778.631	56.66
778.81	56.37
778.988	56.66
779.166	57.27
779.345	56.99
779.523	57.18
779.702	56.62
779.88	57.76
780.058	56.88
780.237	57.06
780.415	56.67
780.593	56.81
780.771	57.21
780.95	57.39
781.128	56.39
781.306	56.01
781.484	55.34
781.662	54.94
781.841	55.27
782.019	56.08
782.197	56.77
782.375	56.83
782.553	56.21
782.731	55.76
782.909	54.63
783.087	54.6
783.265	55.05
783.443	56.28
783.621	56.46
783.799	55.32
783.977	55.02
784.155	54.77
784.333	55.43
784.511	56.15
784.689	55.86
784.867	56.57
785.045	56.37
785.223	56.12
785.4	55.76
785.578	55.85
785.756	55.25
785.934	55.38
786.112	54.07
786.289	52.72
786.467	52.87
786.645	52.78
786.823	52.62
787	53.64
787.178	53.6
787.356	53.48
787.533	52.72
787.711	53.64
787.889	53.3
788.066	53.68
788.244	54.87
788.421	54.45
788.599	54.75
788.776	55.51
788.954	53.72
789.131	54.09
789.309	54.23
789.486	54.93
789.664	54.02
789.841	53.42
790.019	53.09
790.196	52.28
790.373	52.19
790.551	52.12
790.728	51.23
790.906	52.46
791.083	50.86
791.26	49.8
791.437	49.81
791.615	50.22
791.792	50.92
791.969	51.8
792.146	52.67
792.324	53.03
792.501	52.41
792.678	53.22
792.855	53.62
793.032	53.87
793.209	54.13
793.387	53.99
793.564	53.97
793.741	53.63
793.918	54.28
794.095	53.77
794.272	53.5
794.449	53.25
794.626	53.16
794.803	52.93
794.98	53.81
795.157	54.11
795.334	53.6
795.511	53.68
795.688	53.26
795.864	52.44
796.041	52.85
796.218	51.96
796.395	53.41
796.572	52.46
796.749	51.72
796.925	51.21
797.102	51.28
797.279	50.74
797.456	50.67
797.632	50.82
797.809	51.36
797.986	50.78
798.162	52.22
798.339	50.92
798.516	51.21
798.692	51.82
798.869	51.84
799.046	51.94
799.222	52.24
799.399	52.49
799.575	52.81
799.752	51.83
799.928	51.5
800.105	50.32
800.281	50.22
800.458	50.14
800.634	50.16
800.811	49.81
800.987	48.79
801.163	49.85
801.34	49.31
801.516	48.37
801.692	49.27
801.869	49.45
802.045	48.43
802.221	49.55
802.398	49.55
802.574	49.08
802.75	49.24
802.926	50.16
803.103	49.35
803.279	50.01
803.455	49.84
803.631	48.3
803.807	49.03
803.983	50.88
804.16	50.01
804.336	49.88
804.512	49.27
804.688	50.05
804.864	49.41
805.04	50
805.216	50.92
805.392	52.26
805.568	52.56
805.744	53.08
805.92	52.79
806.096	53
806.272	54.35
806.448	55.72
806.623	56.17
806.799	55.79
806.975	55.02
807.151	54.8
807.327	54.07
807.503	53.68
807.678	53.07
807.854	52.68
808.03	52.37
808.206	50.58
808.381	49.91
808.557	48.69
808.733	48.67
808.908	49.53
809.084	48.82
809.26	48.68
809.435	49.18
809.611	48.21
809.787	47.79
809.962	47.31
810.138	48
810.313	48.66
810.489	49.43
810.664	50.22
810.84	50
811.015	50.3
811.191	50.99
811.366	51.89
811.542	51.99
811.717	52.9
811.892	54.3
812.068	54.03
812.243	53.08
812.419	53.37
812.594	52.99
812.769	51.35
812.944	51.46
813.12	52.61
813.295	52.43
813.47	51.36
813.645	52.16
813.821	51.64
813.996	50.92
814.171	50.14
814.346	47.94
814.521	47.7
814.697	49.35
814.872	47.99
815.047	46.33
815.222	45.39
815.397	46.15
815.572	44.89
815.747	43.61
815.922	42.82
816.097	42.63
816.272	44.37
816.447	43.43
816.622	44.36
816.797	43.45
816.972	42.49
817.147	42.57
817.322	43.03
817.496	41.15
817.671	42.07
817.846	42.99
818.021	44.65
818.196	44.21
818.371	45.64
818.545	44.32
818.72	44.59
818.895	44.34
819.069	43.74
819.244	43.7
819.419	44.8
819.594	44.59
819.768	43.32
819.943	42.39
820.117	41.37
820.292	39.99
820.467	39.28
820.641	38.56
820.816	38.4
820.99	38.14
821.165	37.32
821.339	37.35
821.514	36.73
821.688	36.58
821.863	36.29
822.037	36.08
822.212	36.44
822.386	36.15
822.56	36.16
822.735	36.2
822.909	35.99
823.084	35.99
823.258	35.7
823.432	35.76
823.606	35.87
823.781	36.12
823.955	36.39
824.129	35.83
824.303	35.98
824.478	36
824.652	36.11
824.826	36.57
825	36.74
825.174	37.08
825.348	37.51
825.523	37.78
825.697	37.53
825.871	37.17
826.045	37.95
826.219	37.88
826.393	37.95
826.567	37.69
826.741	37.8
826.915	37.67
827.089	37.41
827.263	36.99
827.437	36.68
827.611	36.47
827.784	36.79
827.958	36.56
828.132	36.43
828.306	36.56
828.48	37.09
828.654	37.5
828.827	37.65
829.001	37.76
829.175	38
829.349	38.7
829.522	39.05
829.696	39.52
829.87	39.39
830.044	40.36
830.217	40.33
830.391	40.04
830.565	39.03
830.738	39.22
830.912	39.49
831.085	39.52
831.259	39.2
831.432	40.23
831.606	40.49
831.779	40.1
831.953	40.6
832.126	40.48
832.3	40.58
832.473	39.2
832.647	38.83
832.82	38.38
832.994	38.64
833.167	38.01
833.34	36.73
833.514	35.65
833.687	35.81
833.86	34.78
834.034	34.72
834.207	34.08
834.38	34.76
834.553	34.65
834.727	34.66
834.9	34.89
835.073	35.22
835.246	35.81
835.419	35.84
835.593	36.05
835.766	36.29
835.939	36.85
836.112	37.3
836.285	37.63
836.458	37.73
836.631	38.52
836.804	38.02
836.977	38.58
837.15	37.93
837.323	38.21
837.496	38.8
837.669	40.02
837.842	40.62
838.015	40.8
838.188	39.95
838.361	40.91
838.533	41.24
838.706	42.08
838.879	41.46
839.052	43.19
839.225	43.93
839.398	42.63
839.57	40.71
839.743	38.13
839.916	37.28
840.088	38.56
840.261	38.04
840.434	36.9
840.607	35.77
840.779	36.98
840.952	35.97
841.124	35.37
841.297	36.72
841.47	38.65
841.642	39.32
841.815	41.53
841.987	41.74
842.16	42.69
842.332	42.67
842.505	43.66
842.677	43.89
842.85	44.93
843.022	46.75
843.194	44.14
843.367	44.39
843.539	46.58
843.712	45.25
843.884	45.69
844.056	48.81
844.229	47.96
844.401	47.77
844.573	45.89
844.745	46.47
844.918	48.17
845.09	51.45
845.262	50.22
845.434	51.1
845.606	51.09
845.779	49.25
845.951	46.49
846.123	49.08
846.295	53.16
846.467	51.5
846.639	54.35
846.811	54.96
846.983	56.56
847.155	56.6
847.327	54.48
847.499	55.18
847.671	58.48
847.843	60.17
848.015	62.73
848.187	59.95
848.359	64.44
848.531	60.82
848.703	59.17
848.875	57.41
849.047	56.04
849.218	52.7
849.39	53.37
849.562	53.27
849.734	51.42
849.905	45.99
850.077	44.01
850.249	41.25
850.421	41.24
850.592	45.06
850.764	41.73
850.936	45.15
851.107	49.6
851.279	48.61
851.451	45.57
851.622	46.23
851.794	48
851.965	47.44
852.137	49.18
852.308	48.81
852.48	46.28
852.651	48.62
852.823	47.1
852.994	44.97
853.166	43.65
853.337	45.94
853.509	40.7
853.68	37.62
853.851	39.32
854.023	36.59
854.194	39.16
854.365	39.94
854.537	40.63
854.708	41.98
854.879	41.21
855.05	43.67
855.222	40.32
855.393	45.34
855.564	46.79
855.735	48.76
855.906	53.14
856.078	52.43
856.249	50.16
856.42	50.09
856.591	50.37
856.762	55.41
856.933	55.16
857.104	55.91
857.275	58.84
857.446	62.36
857.617	63.17
857.788	61.2
857.959	59.43
858.13	55.13
858.301	56.3
858.472	57.56
858.643	53.46
858.814	56.21
858.985	56.92
859.155	55.15
859.326	56.61
859.497	55.92
859.668	58.97
859.839	61.1
860.009	62.95
860.18	65.49
860.351	66.28
860.522	71.58
860.692	67.3
860.863	70.37
861.034	67.22
861.204	63.05
861.375	62.77
861.546	59.37
861.716	58.4
861.887	57.41
862.057	55.1
862.228	53.52
862.398	50.56
862.569	54.24
862.739	52.56
862.91	51.93
863.08	53.23
863.251	50.15
863.421	51.91
863.592	54.4
863.762	59.93
863.932	60.12
864.103	57.95
864.273	56.87
864.443	51.9
864.614	52.28
864.784	53.65
864.954	52.39
865.125	57.98
865.295	58.05
865.465	52.06
865.635	49.8
865.805	48.04
865.976	48.9
866.146	48.09
866.316	48.5
866.486	43.66
866.656	45.93
866.826	45.04
866.996	40.6
867.166	35.49
867.336	38.04
867.506	37.01
867.676	34.46
867.846	30.12
868.016	31.34
868.186	33.86
868.356	36.01
868.526	34.28
868.696	41.93
868.866	45.87
869.036	54.67
869.206	56.81
869.376	57.21
869.545	62.1
869.715	66.09
869.885	65.8
870.055	64.8
870.224	66.46
870.394	65.78
870.564	62.09
870.734	54.77
870.903	49.3
871.073	49.89
871.243	55.45
871.412	48.89
871.582	48.59
871.751	49.32
871.921	49.72
872.091	48.65
872.26	45.4
872.43	46.59
872.599	51.97
872.769	51.24
872.938	48.92
873.108	42.96
873.277	46.13
873.446	48.59
873.616	44.06
873.785	43.74
873.955	44.33
874.124	44.03
874.293	47.44
874.463	45.65
874.632	46.02
874.801	48.44
874.971	47.98
875.14	50.74
875.309	50.89
875.478	51.54
875.647	50.41
875.817	47.82
875.986	48.47
876.155	43.87
876.324	44.93
876.493	42.23
876.662	40.72
876.831	43.77
877	42.04
877.17	38.58
877.339	41.93
877.508	41.46
877.677	42.93
877.846	40.46
878.015	39.33
878.184	39.42
878.352	42.34
878.521	43.27
878.69	42.56
878.859	42.1
879.028	41.62
879.197	39.76
879.366	43.41
879.534	41.22
879.703	40.68
879.872	38.51
880.041	35.35
880.21	33.87
880.378	31.33
880.547	29.99
880.716	29.26
880.884	28.55
881.053	27.68
881.222	26.09
881.39	26
881.559	26.61
881.727	26.37
881.896	27.3
882.065	28.11
882.233	28.26
882.402	28.41
882.57	27.98
882.739	27.92
882.907	28.2
883.076	28.05
883.244	27.84
883.412	27.97
883.581	28.18
883.749	27
883.918	26.05
884.086	26.05
884.254	26.36
884.423	27.27
884.591	27.55
884.759	28.39
884.927	28.87
885.096	29.2
885.264	27.78
885.432	28.31
885.6	30.99
885.769	31.58
885.937	32.03
886.105	31.67
886.273	31.18
886.441	32.89
886.609	32.89
886.777	32.71
886.945	35.21
887.113	37.66
887.281	39.98
887.449	38.88
887.617	43.53
887.785	42.29
887.953	41.31
888.121	44.44
888.289	42.79
888.457	44.1
888.625	46.33
888.793	43.66
888.961	45.65
889.129	44.95
889.296	47.7
889.464	44.29
889.632	47.76
889.8	50
889.967	46.37
890.135	50.62
