Data from 2938792__Reflection_01.txt Node
Date: Fri Mar 13 11:04:48 EDT 2015
User: robert
Spectrometer: USB4E03002
Autoset integration time: false
Trigger mode: 4
Integration Time (sec): 1.000000E-1
Scans to average: 10
Electric dark correction enabled: false
Nonlinearity correction enabled: false
Boxcar width: 5
Stray light correction enabled: false
XAxis mode: Wavelengths
Stop averaging: false
Number of Pixels in Spectrum: 3648
>>>>>Begin Spectral Data<<<<<
177.575	-376.67
177.794	-4685.71
178.014	-673.04
178.233	-486.26
178.452	-292.53
178.672	-189.6
178.891	-201.35
179.11	-215.69
179.33	-209.23
179.549	-263.73
179.768	-293.55
179.987	-490.44
180.207	-311.49
180.426	-526.84
180.645	-999.36
180.864	-4026.83
181.084	1297.01
181.303	2001.12
181.522	1023.73
181.741	2344.59
181.96	1001.7
182.179	452.8
182.398	373.4
182.618	297.77
182.837	319.78
183.056	239.56
183.275	238.87
183.494	278.67
183.713	253.88
183.932	241.27
184.151	232.72
184.37	247.25
184.589	302.55
184.808	378.8
185.027	353.35
185.246	341.61
185.465	1094.02
185.684	557.2
185.903	610.84
186.122	650.28
186.341	2221.57
186.56	990.52
186.779	1509.64
186.998	714.94
187.216	-1640.63
187.435	-385.71
187.654	-471.31
187.873	-665.34
188.092	-1742.03
188.311	10223.08
188.53	-1758.02
188.748	4750
188.967	-673.33
189.186	-784.3
189.405	-377.71
189.623	-1419.61
189.842	3589.36
190.061	1215.38
190.28	1742.39
190.498	-952.94
190.717	-677.98
190.936	-494.44
191.154	-284.54
191.373	-938.93
191.592	-694.77
191.81	-536.67
192.029	-468.4
192.248	-474.3
192.466	-1952.11
192.685	-9464.29
192.904	-453.49
193.122	-2265.45
193.341	616.8
193.559	373.78
193.778	439.95
193.996	358.14
194.215	400.84
194.433	373.35
194.652	316.05
194.87	553.24
195.089	462.7
195.307	237.97
195.526	268.5
195.744	285.3
195.963	245.89
196.181	227.51
196.399	248.56
196.618	214.55
196.836	249.47
197.055	287.16
197.273	306.04
197.491	330.2
197.71	321.98
197.928	445.59
198.146	454.34
198.365	3587.5
198.583	-2022.64
198.801	-828.79
199.019	-939.06
199.238	-2352
199.456	824.16
199.674	479.31
199.892	420.8
200.111	669.53
200.329	615.19
200.547	587.63
200.765	428.71
200.983	387.44
201.202	412.06
201.42	506.45
201.638	524.09
201.856	875
202.074	1059.87
202.292	-2412.9
202.51	9512.5
202.728	5544.83
202.946	-1876.62
203.165	-2021.25
203.383	3088.46
203.601	1160
203.819	2749.09
204.037	576.62
204.255	610.4
204.473	668.2
204.691	403.5
204.909	327.97
205.127	323.95
205.345	350.49
205.562	438.71
205.78	510.53
205.998	487.23
206.216	253.47
206.434	404.56
206.652	261.74
206.87	248.19
207.088	232.78
207.306	385.86
207.523	337.4
207.741	282.66
207.959	268.34
208.177	376.88
208.395	419.47
208.612	665.38
208.83	438.38
209.048	510.73
209.266	734.27
209.483	622.11
209.701	598.04
209.919	849.09
210.136	670.4
210.354	567.79
210.572	435.45
210.79	316.09
211.007	284.52
211.225	352.64
211.442	352.66
211.66	247.56
211.878	277.68
212.095	-795.9
212.313	-2157.45
212.53	-1337.33
212.748	-900.49
212.966	-1498.29
213.183	-1047.59
213.401	-1663.39
213.618	3558.18
213.836	-10911.76
214.053	-5938.71
214.271	6834.62
214.488	156.93
214.705	163.54
214.923	137.31
215.14	151.72
215.358	176.7
215.575	202.61
215.793	198.83
216.01	295.76
216.227	274.91
216.445	286
216.662	334.94
216.879	415.97
217.097	377.29
217.314	326.44
217.531	217.76
217.749	190.35
217.966	163.66
218.183	148.49
218.4	136.86
218.618	137.66
218.835	114.14
219.052	114.77
219.269	109.4
219.487	100.8
219.704	114.54
219.921	109.33
220.138	112.63
220.355	117.29
220.572	109.59
220.79	85.74
221.007	90.69
221.224	94.81
221.441	84.53
221.658	83.65
221.875	84.43
222.092	82.09
222.309	74.27
222.526	68.76
222.743	55.86
222.96	55.84
223.177	67.53
223.394	60.95
223.611	60.76
223.828	59.94
224.045	60.71
224.262	54.02
224.479	48.87
224.696	53.45
224.913	48.87
225.13	48.42
225.347	49.81
225.564	44.09
225.781	43.88
225.997	38.95
226.214	34.44
226.431	28.12
226.648	28.05
226.865	27.34
227.082	25.22
227.298	22.97
227.515	19.68
227.732	16.36
227.949	14.61
228.165	12.68
228.382	12.1
228.599	12.69
228.816	13.3
229.032	12.46
229.249	11.84
229.466	10.65
229.682	10.12
229.899	10.59
230.116	10.37
230.332	11.01
230.549	11.52
230.765	12.5
230.982	11.86
231.199	12.3
231.415	13.95
231.632	14.79
231.848	15.62
232.065	17.45
232.281	18.6
232.498	18.66
232.714	18.19
232.931	18.25
233.147	18.47
233.364	19.64
233.58	18.24
233.797	15.3
234.013	14.2
234.23	15.22
234.446	14.12
234.662	13.79
234.879	13.65
235.095	14.22
235.312	14.74
235.528	15.02
235.744	14.09
235.961	13.41
236.177	13.93
236.393	13.35
236.61	13.89
236.826	13.47
237.042	13.18
237.258	14.26
237.475	15.38
237.691	15.33
237.907	16.22
238.123	17.02
238.339	17.98
238.556	18.74
238.772	18.82
238.988	17.86
239.204	19.14
239.42	19.32
239.636	19.01
239.853	17.16
240.069	15.23
240.285	13.09
240.501	12.17
240.717	12.48
240.933	11.87
241.149	11.91
241.365	10.2
241.581	9.9
241.797	9.4
242.013	8.37
242.229	8.55
242.445	8.49
242.661	8.89
242.877	8.57
243.093	8.47
243.309	8.29
243.525	8.12
243.741	9.04
243.957	8.85
244.173	9.62
244.388	9.97
244.604	10.09
244.82	10.65
245.036	9.7
245.252	9.02
245.468	8.64
245.683	8.64
245.899	8.1
246.115	7.97
246.331	7.47
246.547	6.99
246.762	6.81
246.978	6.71
247.194	6.46
247.409	6.49
247.625	6.78
247.841	6.54
248.057	6.45
248.272	6.49
248.488	6.25
248.703	6.52
248.919	6.36
249.135	6.72
249.35	7.01
249.566	7.34
249.782	7.38
249.997	7.27
250.213	7.05
250.428	7.33
250.644	7.94
250.859	7.57
251.075	7.09
251.29	8.31
251.506	7.73
251.721	7.33
251.937	7.44
252.152	7.95
252.368	8.51
252.583	8.85
252.798	8.57
253.014	8.77
253.229	9.6
253.445	9.73
253.66	8.92
253.875	9.39
254.091	9.9
254.306	9.71
254.521	11.13
254.737	11.76
254.952	11.07
255.167	11.08
255.383	10.21
255.598	9.8
255.813	10.07
256.028	9.87
256.244	9.38
256.459	9.73
256.674	8.87
256.889	6.95
257.104	6.28
257.32	6.72
257.535	6.18
257.75	5.37
257.965	5.74
258.18	5.59
258.395	5.33
258.61	5.14
258.826	4.6
259.041	4.82
259.256	4.9
259.471	4.62
259.686	4.62
259.901	4.41
260.116	4.74
260.331	4.52
260.546	4.73
260.761	4.85
260.976	4.81
261.191	4.4
261.406	4.44
261.621	4.55
261.836	4.57
262.05	4.79
262.265	5.36
262.48	5.52
262.695	5.94
262.91	6.21
263.125	6.28
263.34	6.35
263.555	7.4
263.769	7.77
263.984	7.35
264.199	7.21
264.414	6.68
264.629	6.67
264.843	6.96
265.058	6.24
265.273	5.8
265.488	5.36
265.702	5.34
265.917	5.07
266.132	4.38
266.346	4.72
266.561	4.71
266.776	4.8
266.99	4.79
267.205	4.34
267.42	4.54
267.634	4.02
267.849	4.33
268.063	4.77
268.278	4.77
268.492	4.97
268.707	5.08
268.922	5.22
269.136	6.01
269.351	5.75
269.565	5.55
269.78	5.55
269.994	5.7
270.209	5.36
270.423	5.05
270.637	4.9
270.852	4.83
271.066	4.36
271.281	4.66
271.495	4.07
271.709	4.26
271.924	4.44
272.138	4.59
272.353	4.73
272.567	4.94
272.781	5.23
272.996	5.12
273.21	5.14
273.424	5.25
273.638	4.65
273.853	4.68
274.067	4.87
274.281	5.07
274.495	5
274.71	5.28
274.924	5.56
275.138	5.67
275.352	5.85
275.566	6.21
275.781	6.31
275.995	7.21
276.209	7.28
276.423	7.07
276.637	7.2
276.851	7.67
277.065	7.27
277.279	7.37
277.493	7.12
277.707	6.96
277.921	6.78
278.135	6.69
278.349	6.26
278.563	6.28
278.777	6.37
278.991	6.07
279.205	5.44
279.419	5.57
279.633	5.26
279.847	5.07
280.061	5.6
280.275	5.19
280.489	5.4
280.703	5.79
280.917	5.59
281.131	5.42
281.344	4.98
281.558	5.06
281.772	5.27
281.986	5.16
282.2	5.62
282.414	5.54
282.627	5.73
282.841	5.7
283.055	5.36
283.269	5.47
283.482	5.43
283.696	5.64
283.91	5.6
284.123	5.09
284.337	4.96
284.551	4.66
284.764	4.49
284.978	4.44
285.192	4.45
285.405	4.29
285.619	3.95
285.833	4.23
286.046	4.13
286.26	4.17
286.473	4.56
286.687	4.64
286.9	4.61
287.114	4.73
287.327	4.55
287.541	4.69
287.754	4.95
287.968	5.57
288.181	5.61
288.395	5.78
288.608	5.75
288.822	5.62
289.035	5.44
289.248	5.38
289.462	5.14
289.675	5.53
289.889	5.54
290.102	5.3
290.315	4.89
290.529	4.78
290.742	4.76
290.955	4.85
291.169	5.06
291.382	5.56
291.595	5.61
291.808	5.91
292.022	6.11
292.235	6.14
292.448	6.78
292.661	6.98
292.875	6.91
293.088	7.11
293.301	7.06
293.514	6.75
293.727	6.49
293.94	6.74
294.153	6.71
294.367	6.26
294.58	5.99
294.793	6.05
295.006	5.99
295.219	6.14
295.432	6.15
295.645	6.27
295.858	6.12
296.071	6.06
296.284	5.99
296.497	5.86
296.71	6.06
296.923	6.33
297.136	6.34
297.349	6.37
297.562	6.47
297.775	6.46
297.988	6.61
298.201	6.9
298.414	7.03
298.626	7.03
298.839	7.18
299.052	7.18
299.265	7.24
299.478	7.02
299.691	7.56
299.903	7.53
300.116	7.8
300.329	7.82
300.542	7.9
300.755	7.97
300.967	8.27
301.18	8.39
301.393	8.48
301.605	8.5
301.818	8.57
302.031	8.3
302.243	8.45
302.456	8.36
302.669	8.61
302.881	8.54
303.094	9.01
303.307	9.07
303.519	9.05
303.732	9.27
303.944	9.2
304.157	9.26
304.37	9.29
304.582	9.37
304.795	9.68
305.007	9.41
305.22	9.55
305.432	9.36
305.645	9.31
305.857	9.67
306.069	9.9
306.282	9.8
306.494	10.13
306.707	10.24
306.919	10.53
307.132	10.33
307.344	10.58
307.556	10.88
307.769	11
307.981	11.15
308.193	10.83
308.406	10.7
308.618	10.72
308.83	10.6
309.043	10.48
309.255	9.97
309.467	10.2
309.679	10.04
309.892	9.82
310.104	9.56
310.316	9.41
310.528	9.41
310.74	9.53
310.953	9.45
311.165	9.38
311.377	9.66
311.589	10.18
311.801	9.96
312.013	9.85
312.225	9.78
312.437	9.88
312.649	9.97
312.862	10.12
313.074	10.01
313.286	10.3
313.498	10.77
313.71	10.62
313.922	10.19
314.134	10.19
314.346	10.22
314.558	10.32
314.77	10.59
314.982	10.56
315.193	10.58
315.405	10.64
315.617	10.67
315.829	10.22
316.041	10.53
316.253	10.44
316.465	10.62
316.677	10.74
316.888	10.9
317.1	10.74
317.312	11.04
317.524	11.31
317.736	11.47
317.947	12.18
318.159	12.47
318.371	12.13
318.583	12.46
318.794	12.87
319.006	12.88
319.218	12.81
319.43	12.8
319.641	12.9
319.853	12.42
320.064	12.48
320.276	11.96
320.488	12.28
320.699	12.18
320.911	12.45
321.123	12.11
321.334	12.13
321.546	12.49
321.757	12.78
321.969	12.89
322.18	13.66
322.392	13.31
322.603	13.71
322.815	12.93
323.026	13.29
323.238	13.22
323.449	12.81
323.661	13.05
323.872	12.65
324.083	12.22
324.295	11.72
324.506	11.39
324.718	11.15
324.929	10.76
325.14	11.14
325.352	11.06
325.563	11.11
325.774	11.32
325.986	11.46
326.197	11.78
326.408	12.34
326.62	12.72
326.831	12.96
327.042	13.63
327.253	14.33
327.464	14.41
327.676	14.64
327.887	14.76
328.098	14.99
328.309	14.98
328.52	15.24
328.732	15.12
328.943	15.09
329.154	15.08
329.365	15.23
329.576	14.63
329.787	14.75
329.998	14.94
330.209	14.95
330.42	15.02
330.631	15.27
330.842	15.22
331.053	15.5
331.264	15.43
331.475	15.74
331.686	15.66
331.897	15.75
332.108	15.89
332.319	15.94
332.53	15.71
332.741	15.79
332.952	15.55
333.163	15.6
333.374	15.35
333.585	15.55
333.795	15.63
334.006	15.27
334.217	15.35
334.428	15.23
334.639	14.9
334.849	14.85
335.06	14.87
335.271	14.85
335.482	15.04
335.692	15.05
335.903	14.86
336.114	14.42
336.325	14.68
336.535	14.83
336.746	14.5
336.957	14.7
337.167	15.03
337.378	15.13
337.589	15.03
337.799	14.55
338.01	14.62
338.22	14.77
338.431	14.83
338.642	14.71
338.852	14.47
339.063	14.55
339.273	14.39
339.484	13.98
339.694	13.76
339.905	13.82
340.115	14.21
340.326	14.09
340.536	14
340.746	14.22
340.957	14.34
341.167	14.33
341.378	14.79
341.588	14.88
341.799	15.05
342.009	14.97
342.219	15.03
342.43	14.81
342.64	15.08
342.85	15.16
343.061	15.02
343.271	15.16
343.481	15.01
343.691	14.76
343.902	14.91
344.112	15
344.322	15.08
344.532	15.13
344.743	14.84
344.953	14.58
345.163	14.37
345.373	14.16
345.583	13.83
345.793	14.14
346.004	14.2
346.214	14.02
346.424	13.85
346.634	13.87
346.844	13.84
347.054	14.05
347.264	14.38
347.474	14.35
347.684	14.47
347.894	14.4
348.104	14.49
348.314	14.3
348.524	14.08
348.734	14.33
348.944	14.37
349.154	14.14
349.364	14.27
349.574	13.99
349.784	14.36
349.994	14.46
350.204	14.71
350.413	14.24
350.623	14.3
350.833	14.4
351.043	14.27
351.253	13.96
351.463	13.9
351.672	13.83
351.882	13.66
352.092	13.2
352.302	13.15
352.511	13.11
352.721	13.4
352.931	13.37
353.141	13.49
353.35	13.19
353.56	13.27
353.77	13.55
353.979	13.32
354.189	13.65
354.399	13.9
354.608	13.62
354.818	13.41
355.027	13.08
355.237	13.23
355.447	13.16
355.656	13.25
355.866	13.24
356.075	12.96
356.285	13.04
356.494	12.82
356.704	12.71
356.913	12.8
357.123	12.82
357.332	13.06
357.542	12.86
357.751	12.84
357.96	12.99
358.17	12.83
358.379	12.87
358.589	12.99
358.798	12.89
359.007	12.9
359.217	13.02
359.426	12.93
359.635	12.7
359.845	12.87
360.054	12.55
360.263	12.25
360.472	12.31
360.682	12.1
360.891	12.04
361.1	11.88
361.309	11.81
361.519	11.78
361.728	11.65
361.937	11.68
362.146	11.37
362.355	11.5
362.564	11.75
362.774	11.79
362.983	11.95
363.192	11.96
363.401	11.96
363.61	11.91
363.819	11.9
364.028	12.14
364.237	12.39
364.446	12.43
364.655	12.51
364.864	12.11
365.073	11.95
365.282	11.93
365.491	11.74
365.7	11.88
365.909	11.74
366.118	11.89
366.327	11.72
366.536	11.48
366.745	11.63
366.954	11.5
367.162	11.68
367.371	11.63
367.58	11.7
367.789	11.61
367.998	11.6
368.207	11.7
368.415	11.42
368.624	11.51
368.833	11.48
369.042	11.36
369.25	11.4
369.459	11.54
369.668	11.41
369.877	11.17
370.085	11.19
370.294	11.33
370.503	11.56
370.711	11.5
370.92	11.38
371.129	11.33
371.337	11.22
371.546	11.23
371.754	11.13
371.963	11
372.171	11.1
372.38	11.38
372.589	11.11
372.797	10.77
373.006	10.68
373.214	10.6
373.423	10.44
373.631	10.49
373.84	10.24
374.048	10.14
374.256	10.28
374.465	10.27
374.673	9.77
374.882	9.96
375.09	10.11
375.298	10.06
375.507	10.01
375.715	9.89
375.923	9.86
376.132	10.02
376.34	9.92
376.548	9.95
376.757	9.88
376.965	10.07
377.173	10.06
377.381	9.98
377.59	10.35
377.798	10.47
378.006	10.57
378.214	10.48
378.423	10.42
378.631	10.46
378.839	10.41
379.047	10.52
379.255	10.59
379.463	10.2
379.671	10.01
379.879	9.6
380.088	9.48
380.296	9.37
380.504	9.35
380.712	9
380.92	9.04
381.128	9.15
381.336	8.99
381.544	8.68
381.752	8.76
381.96	8.73
382.168	8.81
382.376	8.81
382.584	9
382.791	9.11
382.999	9.17
383.207	8.97
383.415	8.89
383.623	8.85
383.831	8.71
384.039	8.7
384.247	8.92
384.454	8.94
384.662	8.95
384.87	8.86
385.078	8.66
385.285	8.71
385.493	8.82
385.701	8.59
385.909	8.49
386.116	8.6
386.324	8.5
386.532	8.28
386.739	8.11
386.947	8.25
387.155	8.26
387.362	8.14
387.57	8.12
387.778	8.01
387.985	8.31
388.193	8.34
388.4	8.34
388.608	8.5
388.816	8.58
389.023	8.53
389.231	8.2
389.438	8.06
389.646	8.23
389.853	8.28
390.061	8.19
390.268	8.16
390.475	7.91
390.683	7.93
390.89	7.8
391.098	7.83
391.305	7.95
391.512	7.84
391.72	8.02
391.927	7.86
392.135	7.93
392.342	8.14
392.549	8.02
392.756	8.19
392.964	8.12
393.171	8.29
393.378	8.11
393.586	7.87
393.793	7.92
394	7.67
394.207	7.92
394.414	7.83
394.622	7.69
394.829	7.7
395.036	7.74
395.243	7.79
395.45	7.51
395.657	7.57
395.864	7.61
396.072	7.73
396.279	7.87
396.486	7.57
396.693	7.53
396.9	7.37
397.107	7.29
397.314	7.46
397.521	7.31
397.728	7.36
397.935	7.27
398.142	7.21
398.349	7.21
398.556	7.06
398.763	7.13
398.97	7.1
399.177	7.31
399.383	7.39
399.59	7.23
399.797	7.32
400.004	7.28
400.211	7.48
400.418	7.51
400.625	7.54
400.831	7.61
401.038	7.79
401.245	7.81
401.452	7.74
401.658	7.63
401.865	7.64
402.072	7.72
402.279	7.72
402.485	7.47
402.692	7.39
402.899	7.37
403.105	7.5
403.312	7.38
403.519	7.06
403.725	7.06
403.932	6.94
404.138	6.9
404.345	6.91
404.552	6.91
404.758	7.11
404.965	7.1
405.171	7.03
405.378	6.74
405.584	6.55
405.791	6.84
405.997	6.7
406.204	6.77
406.41	6.61
406.617	6.57
406.823	6.64
407.029	6.54
407.236	6.67
407.442	6.62
407.649	6.88
407.855	7.2
408.061	7.28
408.268	7.48
408.474	7.42
408.68	7.43
408.887	7.25
409.093	7.17
409.299	7.31
409.505	7.19
409.712	7.17
409.918	7.02
410.124	6.7
410.33	6.57
410.537	6.51
410.743	6.61
410.949	6.69
411.155	6.79
411.361	6.78
411.567	6.59
411.773	6.68
411.98	6.6
412.186	6.6
412.392	6.87
412.598	6.79
412.804	6.59
413.01	6.49
413.216	6.41
413.422	6.42
413.628	6.44
413.834	6.52
414.04	6.58
414.246	6.64
414.452	6.53
414.658	6.42
414.864	6.33
415.07	6.52
415.275	6.52
415.481	6.5
415.687	6.44
415.893	6.48
416.099	6.47
416.305	6.36
416.511	6.4
416.716	6.38
416.922	6.28
417.128	6.27
417.334	6.23
417.539	6.27
417.745	6.18
417.951	6.19
418.157	6.09
418.362	5.95
418.568	5.88
418.774	5.82
418.979	5.81
419.185	5.85
419.391	5.84
419.596	5.77
419.802	5.69
420.008	5.78
420.213	6.36
420.419	6.31
420.624	6.34
420.83	6.4
421.035	6.47
421.241	6.52
421.446	6.44
421.652	6.42
421.857	6.39
422.063	6.41
422.268	6.35
422.474	5.72
422.679	5.8
422.885	5.77
423.09	5.72
423.295	5.58
423.501	5.53
423.706	5.55
423.911	5.56
424.117	5.59
424.322	5.51
424.527	5.51
424.733	5.5
424.938	5.44
425.143	5.39
425.349	5.37
425.554	5.37
425.759	5.44
425.964	5.43
426.169	5.45
426.375	5.48
426.58	5.59
426.785	5.6
426.99	5.66
427.195	5.72
427.4	5.73
427.605	5.71
427.811	5.78
428.016	5.78
428.221	5.94
428.426	5.95
428.631	5.96
428.836	5.87
429.041	5.89
429.246	5.88
429.451	5.85
429.656	5.97
429.861	6.08
430.066	5.98
430.271	5.79
430.476	5.66
430.681	5.75
430.886	5.68
431.09	5.74
431.295	5.75
431.5	5.87
431.705	5.87
431.91	5.84
432.115	5.77
432.32	5.97
432.524	6.02
432.729	6.14
432.934	6.07
433.139	6.02
433.343	6.01
433.548	6.01
433.753	6.01
433.958	6.02
434.162	5.97
434.367	6.11
434.572	6.06
434.776	6.09
434.981	5.97
435.186	6.01
435.39	6.12
435.595	6.14
435.799	6.02
436.004	6.06
436.209	6.11
436.413	6.19
436.618	6.05
436.822	5.96
437.027	5.99
437.231	5.99
437.436	5.97
437.64	5.94
437.845	5.93
438.049	6.03
438.253	5.98
438.458	5.89
438.662	5.8
438.867	5.78
439.071	5.79
439.275	5.72
439.48	5.68
439.684	5.66
439.888	5.62
440.093	5.59
440.297	5.56
440.501	5.52
440.706	5.52
440.91	5.55
441.114	5.55
441.318	5.59
441.523	5.64
441.727	5.66
441.931	5.68
442.135	5.76
442.339	5.85
442.543	5.87
442.748	5.77
442.952	5.82
443.156	5.87
443.36	5.9
443.564	5.89
443.768	5.89
443.972	5.87
444.176	5.78
444.38	5.65
444.584	5.53
444.788	5.51
444.992	5.54
445.196	5.47
445.4	5.39
445.604	5.43
445.808	5.46
446.012	5.38
446.216	5.4
446.42	5.47
446.624	5.46
446.828	5.42
447.032	5.39
447.235	5.43
447.439	5.42
447.643	5.43
447.847	5.36
448.051	5.29
448.254	5.29
448.458	5.26
448.662	5.23
448.866	5.24
449.069	5.38
449.273	5.47
449.477	5.49
449.681	5.51
449.884	5.57
450.088	5.72
450.292	5.69
450.495	5.73
450.699	5.77
450.902	5.72
451.106	5.71
451.31	5.67
451.513	5.66
451.717	5.58
451.92	5.53
452.124	5.51
452.327	5.32
452.531	5.33
452.734	5.36
452.938	5.43
453.141	5.52
453.345	5.64
453.548	5.63
453.752	5.57
453.955	5.66
454.158	5.72
454.362	5.71
454.565	5.85
454.769	5.92
454.972	5.83
455.175	5.73
455.379	5.61
455.582	5.59
455.785	5.57
455.988	5.57
456.192	5.5
456.395	5.47
456.598	5.53
456.801	5.47
457.005	5.39
457.208	5.48
457.411	5.48
457.614	5.45
457.817	5.42
458.021	5.38
458.224	5.41
458.427	5.42
458.63	5.48
458.833	5.38
459.036	5.35
459.239	5.37
459.442	5.32
459.645	5.32
459.848	5.31
460.051	5.33
460.254	5.38
460.457	5.38
460.66	5.42
460.863	5.37
461.066	5.43
461.269	5.4
461.472	5.48
461.675	5.54
461.878	5.59
462.081	5.7
462.284	5.67
462.486	5.64
462.689	5.57
462.892	5.55
463.095	5.58
463.298	5.66
463.5	5.75
463.703	5.59
463.906	5.56
464.109	5.58
464.311	5.59
464.514	5.55
464.717	5.58
464.92	5.73
465.122	5.75
465.325	5.83
465.528	5.82
465.73	5.83
465.933	5.96
466.135	5.99
466.338	5.87
466.541	5.74
466.743	5.76
466.946	5.72
467.148	5.75
467.351	5.76
467.553	5.72
467.756	5.66
467.958	5.57
468.161	5.57
468.363	5.58
468.566	5.68
468.768	5.81
468.971	5.9
469.173	5.91
469.375	5.78
469.578	5.73
469.78	5.72
469.983	5.63
470.185	5.76
470.387	5.84
470.59	5.79
470.792	5.81
470.994	5.75
471.196	5.66
471.399	5.64
471.601	5.76
471.803	5.76
472.005	5.73
472.208	5.83
472.41	5.78
472.612	5.69
472.814	5.77
473.016	5.79
473.218	5.86
473.421	5.91
473.623	5.9
473.825	5.91
474.027	5.98
474.229	6.05
474.431	6.03
474.633	6.07
474.835	6.11
475.037	6.11
475.239	6
475.441	6.03
475.643	6.04
475.845	6.04
476.047	5.97
476.249	5.91
476.451	5.89
476.653	5.89
476.855	5.91
477.057	5.8
477.258	5.69
477.46	5.7
477.662	5.64
477.864	5.66
478.066	5.77
478.268	5.76
478.469	5.78
478.671	5.78
478.873	5.8
479.075	5.72
479.276	5.78
479.478	5.85
479.68	5.91
479.882	5.87
480.083	5.77
480.285	5.65
480.487	5.68
480.688	5.58
480.89	5.57
481.091	5.5
481.293	5.46
481.495	5.43
481.696	5.4
481.898	5.35
482.099	5.31
482.301	5.33
482.502	5.34
482.704	5.3
482.905	5.29
483.107	5.23
483.308	5.19
483.51	5.13
483.711	5.16
483.913	5.1
484.114	5.11
484.315	5.11
484.517	5.08
484.718	5.04
484.92	5.04
485.121	5.04
485.322	5.05
485.524	5.06
485.725	5.09
485.926	5.09
486.127	5.12
486.329	5.11
486.53	5.08
486.731	5.09
486.932	5.06
487.134	5.04
487.335	5.04
487.536	5
487.737	5.02
487.938	5.01
488.139	4.99
488.341	5.03
488.542	5.01
488.743	5.02
488.944	5.03
489.145	5.11
489.346	5.13
489.547	5.13
489.748	5.19
489.949	5.23
490.15	5.2
490.351	5.22
490.552	5.19
490.753	5.21
490.954	5.25
491.155	5.24
491.356	5.23
491.557	5.25
491.758	5.29
491.959	5.29
492.159	5.27
492.36	5.28
492.561	5.27
492.762	5.29
492.963	5.33
493.164	5.32
493.364	5.35
493.565	5.36
493.766	5.34
493.967	5.35
494.167	5.41
494.368	5.46
494.569	5.59
494.769	5.64
494.97	5.7
495.171	5.79
495.371	5.84
495.572	5.85
495.773	5.78
495.973	5.82
496.174	5.88
496.375	5.86
496.575	5.83
496.776	5.9
496.976	5.86
497.177	5.83
497.377	5.75
497.578	5.78
497.778	5.84
497.979	5.98
498.179	5.97
498.38	5.95
498.58	5.98
498.78	6.01
498.981	5.95
499.181	6.01
499.382	6.04
499.582	6.14
499.782	6.16
499.983	6.19
500.183	6.24
500.383	6.26
500.584	6.32
500.784	6.26
500.984	6.35
501.184	6.38
501.385	6.38
501.585	6.44
501.785	6.43
501.985	6.51
502.185	6.6
502.386	6.53
502.586	6.6
502.786	6.63
502.986	6.81
503.186	6.8
503.386	6.79
503.586	6.89
503.786	6.86
503.987	6.85
504.187	6.82
504.387	6.78
504.587	6.84
504.787	6.84
504.987	6.85
505.187	6.86
505.387	6.94
505.587	7
505.786	6.99
505.986	7.05
506.186	7.18
506.386	7.2
506.586	7.27
506.786	7.34
506.986	7.45
507.186	7.46
507.386	7.46
507.585	7.44
507.785	7.48
507.985	7.53
508.185	7.57
508.384	7.59
508.584	7.69
508.784	7.65
508.984	7.76
509.183	7.79
509.383	7.78
509.583	7.84
509.782	7.94
509.982	8.05
510.182	8.11
510.381	8.19
510.581	8.21
510.781	8.2
510.98	8.3
511.18	8.21
511.379	8.22
511.579	8.36
511.778	8.41
511.978	8.45
512.177	8.52
512.377	8.48
512.576	8.49
512.776	8.53
512.975	8.7
513.175	8.83
513.374	8.98
513.573	9.08
513.773	9.23
513.972	9.36
514.172	9.45
514.371	9.6
514.57	9.83
514.77	9.97
514.969	10.06
515.168	10.14
515.367	10.14
515.567	10.28
515.766	10.35
515.965	10.31
516.164	10.3
516.364	10.35
516.563	10.23
516.762	10.28
516.961	10.26
517.16	10.37
517.359	10.41
517.559	10.49
517.758	10.52
517.957	10.55
518.156	10.64
518.355	10.7
518.554	10.74
518.753	10.81
518.952	10.88
519.151	10.94
519.35	10.96
519.549	10.96
519.748	11.04
519.947	11.08
520.146	11.21
520.345	11.29
520.544	11.44
520.743	11.6
520.942	11.74
521.141	11.81
521.339	12
521.538	12.13
521.737	12.31
521.936	12.42
522.135	12.51
522.333	12.62
522.532	12.71
522.731	12.77
522.93	12.78
523.129	12.92
523.327	13.07
523.526	13.18
523.725	13.33
523.923	13.37
524.122	13.41
524.321	13.53
524.519	13.55
524.718	13.6
524.917	13.63
525.115	13.74
525.314	13.72
525.512	13.8
525.711	13.8
525.909	13.86
526.108	13.94
526.306	14.01
526.505	14.09
526.703	14.16
526.902	14.23
527.1	14.27
527.299	14.32
527.497	14.39
527.696	14.42
527.894	14.5
528.092	14.54
528.291	14.59
528.489	14.62
528.688	14.67
528.886	14.76
529.084	14.8
529.283	14.9
529.481	14.98
529.679	15.06
529.877	15.13
530.076	15.2
530.274	15.25
530.472	15.31
530.67	15.44
530.869	15.51
531.067	15.55
531.265	15.71
531.463	15.78
531.661	15.81
531.859	15.93
532.057	16.02
532.255	16.09
532.454	16.16
532.652	16.16
532.85	16.16
533.048	16.23
533.246	16.29
533.444	16.33
533.642	16.4
533.84	16.45
534.038	16.47
534.236	16.51
534.434	16.59
534.632	16.68
534.83	16.83
535.027	16.93
535.225	16.95
535.423	17.02
535.621	17.1
535.819	17.13
536.017	17.23
536.215	17.29
536.412	17.33
536.61	17.35
536.808	17.39
537.006	17.46
537.203	17.57
537.401	17.69
537.599	17.76
537.797	17.79
537.994	17.86
538.192	17.93
538.39	18.01
538.587	18.09
538.785	18.19
538.983	18.28
539.18	18.31
539.378	18.35
539.575	18.44
539.773	18.54
539.97	18.55
540.168	18.65
540.366	18.7
540.563	18.72
540.761	18.75
540.958	18.69
541.155	18.68
541.353	18.74
541.55	18.77
541.748	18.73
541.945	18.71
542.143	18.75
542.34	18.78
542.537	18.86
542.735	18.94
542.932	18.98
543.129	19.19
543.327	19.26
543.524	19.36
543.721	19.43
543.919	19.55
544.116	19.69
544.313	19.81
544.51	19.81
544.708	19.87
544.905	19.98
545.102	20.12
545.299	20.09
545.496	20.09
545.693	20.09
545.891	20.14
546.088	20.3
546.285	20.36
546.482	20.34
546.679	20.4
546.876	20.42
547.073	20.32
547.27	20.32
547.467	20.35
547.664	20.42
547.861	20.47
548.058	20.6
548.255	20.54
548.452	20.54
548.649	20.68
548.846	20.75
549.043	20.74
549.24	20.9
549.437	20.96
549.633	21.1
549.83	21.22
550.027	21.32
550.224	21.23
550.421	21.21
550.618	21.19
550.814	21.24
551.011	21.29
551.208	21.42
551.405	21.53
551.601	21.56
551.798	21.53
551.995	21.53
552.191	21.59
552.388	21.72
552.585	21.8
552.781	21.9
552.978	21.9
553.175	21.92
553.371	21.97
553.568	21.93
553.764	21.94
553.961	21.87
554.157	21.85
554.354	21.83
554.55	21.86
554.747	21.98
554.943	22.02
555.14	22.02
555.336	22.06
555.533	22
555.729	22.04
555.926	22.14
556.122	22.43
556.318	22.62
556.515	22.58
556.711	22.57
556.907	22.51
557.104	22.63
557.3	22.76
557.496	22.86
557.693	22.98
557.889	23.02
558.085	23.03
558.281	22.94
558.478	22.97
558.674	23.1
558.87	23.13
559.066	23.16
559.262	23.15
559.459	22.95
559.655	22.99
559.851	22.91
560.047	23.01
560.243	23.06
560.439	23.15
560.635	23.13
560.831	23.02
561.027	23.14
561.223	23.16
561.419	23.14
561.615	23.22
561.811	23.39
562.007	23.49
562.203	23.48
562.399	23.55
562.595	23.48
562.791	23.54
562.987	23.61
563.183	23.57
563.379	23.63
563.575	23.78
563.771	23.98
563.966	23.87
564.162	23.92
564.358	23.88
564.554	23.91
564.75	24.02
564.945	24
565.141	24.09
565.337	24.1
565.533	24.09
565.728	24
565.924	23.99
566.12	23.99
566.315	23.96
566.511	24.01
566.707	23.95
566.902	23.86
567.098	24.01
567.293	23.99
567.489	24.01
567.684	24.08
567.88	24.12
568.076	24.11
568.271	24.25
568.467	24.36
568.662	24.38
568.858	24.47
569.053	24.51
569.248	24.36
569.444	24.44
569.639	24.38
569.835	24.45
570.03	24.47
570.225	24.44
570.421	24.37
570.616	24.31
570.812	24.3
571.007	24.31
571.202	24.43
571.397	24.53
571.593	24.44
571.788	24.58
571.983	24.59
572.178	24.58
572.374	24.64
572.569	24.7
572.764	24.85
572.959	24.94
573.154	24.92
573.35	24.86
573.545	24.86
573.74	25.01
573.935	24.98
574.13	24.93
574.325	24.98
574.52	25.05
574.715	25.16
574.91	25.13
575.105	25.13
575.3	25.17
575.495	25.18
575.69	25.2
575.885	25.22
576.08	25.24
576.275	25.29
576.47	25.35
576.665	25.39
576.86	25.24
577.055	25.22
577.25	25.36
577.444	25.34
577.639	25.56
577.834	25.57
578.029	25.72
578.224	25.86
578.418	25.91
578.613	26.04
578.808	26.11
579.003	26.24
579.197	26.31
579.392	26.22
579.587	26.29
579.781	26.24
579.976	26.43
580.171	26.4
580.365	26.36
580.56	26.48
580.755	26.38
580.949	26.29
581.144	26.39
581.338	26.32
581.533	26.27
581.727	26.34
581.922	26.31
582.116	26.32
582.311	26.29
582.505	26.28
582.7	26.21
582.894	26.25
583.089	26.32
583.283	26.14
583.478	26.25
583.672	26.43
583.866	26.37
584.061	26.5
584.255	26.33
584.449	26.35
584.644	26.34
584.838	26.48
585.032	26.46
585.226	26.58
585.421	26.83
585.615	26.98
585.809	27.01
586.003	27.01
586.198	26.97
586.392	27.24
586.586	27.32
586.78	27.48
586.974	27.41
587.168	27.47
587.363	27.47
587.557	27.32
587.751	27.16
587.945	26.95
588.139	27.09
588.333	27.01
588.527	26.92
588.721	26.95
588.915	26.91
589.109	26.95
589.303	26.92
589.497	26.81
589.691	26.96
589.885	26.98
590.079	27.22
590.273	27.09
590.466	27.22
590.66	27.2
590.854	27.25
591.048	27.16
591.242	27.19
591.436	27.17
591.629	27.3
591.823	27.34
592.017	27.43
592.211	27.52
592.404	27.56
592.598	27.55
592.792	27.59
592.986	27.55
593.179	27.52
593.373	27.48
593.567	27.52
593.76	27.43
593.954	27.32
594.147	27.36
594.341	27.17
594.535	27.25
594.728	27.26
594.922	27.13
595.115	27.03
595.309	27.07
595.502	27.07
595.696	27.07
595.889	27.12
596.083	27.13
596.276	27.04
596.47	27.11
596.663	27.11
596.856	27.1
597.05	27.24
597.243	27.28
597.437	27.46
597.63	27.5
597.823	27.53
598.017	27.49
598.21	27.52
598.403	27.66
598.596	27.7
598.79	27.83
598.983	27.91
599.176	27.95
599.369	28.01
599.563	28.01
599.756	27.95
599.949	27.97
600.142	28.11
600.335	28.28
600.528	28.16
600.722	28.13
600.915	28.07
601.108	28.13
601.301	28.2
601.494	28.28
601.687	28.19
601.88	28.31
602.073	28.42
602.266	28.35
602.459	28.19
602.652	28.15
602.845	28.13
603.038	28.02
603.231	28.08
603.424	27.97
603.617	27.91
603.809	27.93
604.002	27.83
604.195	27.75
604.388	27.88
604.581	27.82
604.774	27.87
604.966	27.88
605.159	27.95
605.352	27.83
605.545	27.89
605.737	28.05
605.93	28.01
606.123	28.2
606.316	28.38
606.508	28.37
606.701	28.56
606.894	28.64
607.086	28.72
607.279	28.91
607.471	29.02
607.664	29.08
607.857	29.07
608.049	29.28
608.242	29.3
608.434	29.31
608.627	29.44
608.819	29.48
609.012	29.8
609.204	30.12
609.397	30.37
609.589	30.61
609.782	31.04
609.974	31.47
610.166	31.72
610.359	32.1
610.551	32.62
610.743	32.92
610.936	33.33
611.128	33.49
611.32	33.53
611.513	33.61
611.705	33.81
611.897	33.7
612.09	33.6
612.282	33.52
612.474	33.37
612.666	33.08
612.858	32.9
613.051	32.73
613.243	32.57
613.435	32.52
613.627	32.4
613.819	32.19
614.011	32.03
614.203	31.78
614.395	31.72
614.588	31.72
614.78	31.72
614.972	31.61
615.164	31.55
615.356	31.46
615.548	31.29
615.74	31.26
615.932	31.06
616.124	31.23
616.315	31.19
616.507	31.05
616.699	30.92
616.891	30.6
617.083	30.73
617.275	30.58
617.467	30.61
617.659	30.54
617.85	30.22
618.042	30.17
618.234	29.95
618.426	29.91
618.618	29.69
618.809	29.63
619.001	29.81
619.193	29.7
619.384	29.74
619.576	29.85
619.768	30.02
619.959	30.16
620.151	30.15
620.343	30.12
620.534	30.2
620.726	30.55
620.917	30.52
621.109	30.7
621.301	30.85
621.492	30.85
621.684	30.68
621.875	30.63
622.067	30.74
622.258	30.94
622.45	30.95
622.641	30.74
622.832	30.96
623.024	31.05
623.215	30.85
623.407	30.73
623.598	30.73
623.789	30.82
623.981	30.75
624.172	30.92
624.363	30.82
624.555	30.83
624.746	30.89
624.937	30.61
625.129	30.57
625.32	30.52
625.511	30.58
625.702	30.52
625.893	30.53
626.085	30.66
626.276	30.43
626.467	30.4
626.658	30.4
626.849	30.33
627.04	30.25
627.231	30.24
627.422	30.39
627.614	30.38
627.805	30.48
627.996	30.28
628.187	30.28
628.378	30.39
628.569	30.61
628.76	30.71
628.951	30.77
629.142	31.02
629.332	31.14
629.523	31.14
629.714	31.15
629.905	31.26
630.096	31.51
630.287	31.57
630.478	31.51
630.669	31.49
630.859	31.46
631.05	31.65
631.241	31.54
631.432	31.35
631.623	31.28
631.813	31.23
632.004	31.17
632.195	30.98
632.385	30.94
632.576	30.91
632.767	30.83
632.957	30.83
633.148	30.69
633.339	30.7
633.529	30.62
633.72	30.64
633.91	30.59
634.101	30.66
634.292	30.66
634.482	30.63
634.673	30.66
634.863	30.68
635.054	30.72
635.244	30.7
635.435	30.66
635.625	30.65
635.815	30.37
636.006	30.5
636.196	30.4
636.387	30.42
636.577	30.39
636.767	30.37
636.958	30.35
637.148	30.17
637.338	30.26
637.529	30.46
637.719	30.66
637.909	30.85
638.099	30.85
638.29	30.93
638.48	31.49
638.67	31.6
638.86	31.54
639.05	31.7
639.241	31.98
639.431	32
639.621	31.98
639.811	31.95
640.001	32.09
640.191	32.07
640.381	32.16
640.571	31.71
640.761	31.59
640.951	31.75
641.141	31.49
641.331	31.32
641.521	31.35
641.711	31.3
641.901	31.29
642.091	31.22
642.281	31.19
642.471	31.04
642.661	31.27
642.851	31.37
643.041	31.64
643.231	31.65
643.42	31.77
643.61	31.68
643.8	31.66
643.99	31.96
644.18	31.89
644.369	31.88
644.559	31.99
644.749	32.13
644.939	31.96
645.128	31.91
645.318	31.99
645.508	31.99
645.697	31.88
645.887	31.87
646.076	31.7
646.266	31.78
646.456	31.86
646.645	31.74
646.835	31.5
647.024	31.81
647.214	31.74
647.403	31.8
647.593	31.5
647.782	31.79
647.972	31.88
648.161	31.89
648.351	31.95
648.54	31.79
648.73	31.86
648.919	31.97
649.108	31.7
649.298	31.75
649.487	31.73
649.677	32.17
649.866	32.02
650.055	32.1
650.244	32.2
650.434	32.36
650.623	32.29
650.812	32.23
651.002	32.09
651.191	32.18
651.38	32.08
651.569	32.31
651.758	31.97
651.947	32.05
652.137	31.94
652.326	31.93
652.515	31.73
652.704	31.83
652.893	31.81
653.082	31.93
653.271	31.9
653.46	32.18
653.649	32.12
653.838	32.09
654.027	32.37
654.216	32.28
654.405	32.22
654.594	32.18
654.783	32.27
654.972	32.22
655.161	32.18
655.35	32.29
655.539	32.17
655.728	32.1
655.916	32.36
656.105	32.14
656.294	32.46
656.483	32.44
656.672	32.65
656.86	32.74
657.049	32.79
657.238	32.66
657.427	32.54
657.615	32.36
657.804	32.16
657.993	31.95
658.181	31.87
658.37	31.56
658.559	31.82
658.747	31.79
658.936	31.75
659.125	31.64
659.313	31.81
659.502	32.21
659.69	32.2
659.879	32.2
660.067	32.43
660.256	32.6
660.444	32.89
660.633	32.66
660.821	32.67
661.01	32.8
661.198	33.11
661.387	33.15
661.575	32.74
661.763	32.83
661.952	32.9
662.14	32.92
662.328	32.81
662.517	32.83
662.705	32.78
662.893	32.95
663.082	32.7
663.27	32.78
663.458	32.85
663.646	33.01
663.834	33.27
664.023	33.43
664.211	33.45
664.399	33.87
664.587	33.68
664.775	33.79
664.963	33.58
665.152	34
665.34	33.73
665.528	33.89
665.716	33.79
665.904	33.65
666.092	33.94
666.28	33.91
666.468	33.62
666.656	33.67
666.844	33.77
667.032	33.99
667.22	33.81
667.408	34.35
667.596	34.21
667.784	34.3
667.971	34.26
668.159	34.17
668.347	34.22
668.535	34.09
668.723	34.08
668.911	33.95
669.098	33.88
669.286	34.05
669.474	33.68
669.662	33.52
669.849	33.64
670.037	33.74
670.225	33.57
670.413	33.63
670.6	33.76
670.788	33.88
670.976	33.94
671.163	34.03
671.351	33.87
671.538	34.08
671.726	34.09
671.913	33.94
672.101	33.77
672.289	34.27
672.476	34.07
672.664	34.1
672.851	34.23
673.039	34.18
673.226	33.92
673.413	33.84
673.601	33.76
673.788	34.12
673.976	34.18
674.163	34.28
674.35	33.88
674.538	34.06
674.725	34.08
674.912	34.11
675.1	34.31
675.287	34.49
675.474	34.56
675.662	34.87
675.849	34.86
676.036	34.9
676.223	34.96
676.411	35.05
676.598	35.22
676.785	35.31
676.972	35.21
677.159	35.12
677.346	34.92
677.533	35.09
677.721	34.8
677.908	34.45
678.095	34.34
678.282	34.37
678.469	33.99
678.656	33.91
678.843	33.87
679.03	33.8
679.217	34.05
679.404	34.28
679.591	34.19
679.778	34.04
679.964	33.91
680.151	34.09
680.338	33.93
680.525	34.27
680.712	34.08
680.899	34.12
681.086	34.18
681.272	34.05
681.459	33.92
681.646	34.03
681.833	34.31
682.02	34.54
682.206	34.62
682.393	34.64
682.58	34.61
682.766	34.72
682.953	34.83
683.14	34.72
683.326	34.84
683.513	35.15
683.7	35.12
683.886	34.96
684.073	34.82
684.259	34.51
684.446	34.79
684.632	34.76
684.819	34.89
685.005	34.78
685.192	34.78
685.378	34.62
685.565	34.38
685.751	34.23
685.938	34.43
686.124	34.36
686.31	34.76
686.497	34.48
686.683	34.31
686.87	34.28
687.056	34.19
687.242	34.31
687.429	34.51
687.615	34.68
687.801	34.49
687.987	34.37
688.174	34.51
688.36	34.22
688.546	34.55
688.732	34.79
688.918	35
689.105	35.33
689.291	35.43
689.477	35.41
689.663	35.5
689.849	35.81
690.035	35.97
690.221	36.18
690.407	36.37
690.593	36.26
690.779	36.42
690.965	36.29
691.151	36.01
691.337	35.97
691.523	36.07
691.709	36
691.895	35.9
692.081	35.9
692.267	36.16
692.453	36.19
692.639	36.29
692.825	36.14
693.011	36.25
693.196	36.17
693.382	36.19
693.568	36.08
693.754	36.28
693.94	36.48
694.125	36.4
694.311	35.99
694.497	35.86
694.682	35.73
694.868	35.79
695.054	35.67
695.239	36.09
695.425	36.29
695.611	36.26
695.796	36.09
695.982	35.94
696.168	35.83
696.353	35.82
696.539	35.82
696.724	35.46
696.91	35.4
697.095	35.37
697.281	35.24
697.466	35.15
697.652	35.04
697.837	34.65
698.023	34.71
698.208	34.76
698.393	34.85
698.579	34.84
698.764	35.15
698.949	35.11
699.135	34.95
699.32	34.96
699.505	34.87
699.691	34.8
699.876	35.13
700.061	35.16
700.246	35.23
700.432	35.38
700.617	35.46
700.802	35.51
700.987	35.39
701.172	35.59
701.358	35.56
701.543	35.61
701.728	35.69
701.913	35.72
702.098	36.15
702.283	36.38
702.468	36.51
702.653	36.59
702.838	36.51
703.023	36.97
703.208	37.16
703.393	37.46
703.578	37.49
703.763	37.82
703.948	38.07
704.133	37.53
704.318	37.45
704.503	37.26
704.688	37.85
704.873	38.16
705.057	38.4
705.242	38.69
705.427	38.84
705.612	39.15
705.797	39.1
705.981	38.89
706.166	39.54
706.351	39.67
706.536	39.48
706.72	38.88
706.905	39.16
707.09	38.82
707.274	38.88
707.459	38.46
707.644	38.52
707.828	38.66
708.013	38.75
708.197	38.77
708.382	38.52
708.567	38.62
708.751	38.58
708.936	37.96
709.12	38.19
709.305	37.88
709.489	37.8
709.673	37.7
709.858	37.82
710.042	38.2
710.227	38.01
710.411	37.94
710.596	38.19
710.78	38.63
710.964	39.16
711.149	39.21
711.333	39.17
711.517	39.44
711.702	39.5
711.886	39.01
712.07	38.57
712.254	38.32
712.438	38.25
712.623	38.27
712.807	37.92
712.991	37.48
713.175	37.3
713.359	37.41
713.544	37.29
713.728	37.5
713.912	37.46
714.096	37.16
714.28	36.8
714.464	37.01
714.648	36.75
714.832	36.75
715.016	36.8
715.2	36.63
715.384	36.41
715.568	36.56
715.752	36.27
715.936	36.52
716.12	36.52
716.304	36.77
716.488	36.88
716.671	37.02
716.855	37.11
717.039	37.19
717.223	37.3
717.407	37.42
717.59	37.24
717.774	37.28
717.958	37.45
718.142	37.71
718.325	37.71
718.509	37.22
718.693	37.14
718.877	37.01
719.06	36.85
719.244	36.74
719.428	36.88
719.611	37.09
719.795	36.87
719.978	36.6
720.162	36.77
720.345	37.12
720.529	37.49
720.713	37.75
720.896	37.61
721.08	37.43
721.263	37.92
721.446	38.26
721.63	37.94
721.813	38.28
721.997	38.71
722.18	38.86
722.364	38.45
722.547	38.5
722.73	38.11
722.914	38.33
723.097	38.47
723.28	38.41
723.464	38.36
723.647	38.58
723.83	38.3
724.013	38.33
724.197	38.39
724.38	38.4
724.563	38.28
724.746	38.93
724.929	38.68
725.112	38.18
725.296	37.86
725.479	37.77
725.662	37.99
725.845	38.2
726.028	37.85
726.211	37.71
726.394	38.06
726.577	38.46
726.76	37.98
726.943	38.04
727.126	38.47
727.309	38.46
727.492	38.29
727.675	38.53
727.858	38.49
728.041	38.39
728.224	38.19
728.407	38.46
728.589	38.01
728.772	37.87
728.955	38.39
729.138	38.47
729.321	38.31
729.503	38.25
729.686	37.82
729.869	37.64
730.052	37.77
730.234	37.67
730.417	37.79
730.6	37.99
730.782	38.36
730.965	38.14
731.148	37.95
731.33	37.85
731.513	37.6
731.695	37.31
731.878	37.31
732.061	37.27
732.243	37.9
732.426	37.55
732.608	37.8
732.791	37.71
732.973	37.46
733.156	38.1
733.338	38.46
733.52	38.62
733.703	38.71
733.885	38.78
734.068	38.82
734.25	38.77
734.432	38.46
734.615	38.47
734.797	38.3
734.979	38.45
735.162	37.95
735.344	37.84
735.526	38.11
735.708	38.45
735.891	38.44
736.073	38.66
736.255	38.74
736.437	39.1
736.619	38.61
736.802	38.99
736.984	38.88
737.166	39.94
737.348	40.25
737.53	39.89
737.712	39.78
737.894	39.82
738.076	39.82
738.258	38.99
738.44	39.39
738.622	39.21
738.804	38.98
738.986	39.05
739.168	38.4
739.35	38.42
739.532	38.61
739.714	38.53
739.896	38.67
740.078	38.38
740.259	38.85
740.441	38.29
740.623	38.69
740.805	38.93
740.987	38.49
741.168	38.38
741.35	38.54
741.532	38.85
741.714	38.96
741.895	38.99
742.077	39.34
742.259	39.51
742.44	39.71
742.622	39.24
742.804	38.82
742.985	39.86
743.167	39.58
743.348	39.31
743.53	39.52
743.711	39.98
743.893	40.06
744.075	39.86
744.256	40.03
744.438	40.28
744.619	41.46
744.8	41.82
744.982	42.13
745.163	42.46
745.345	42.75
745.526	42.98
745.707	42.33
745.889	42.77
746.07	43.07
746.252	43.16
746.433	43.18
746.614	42.43
746.795	42.42
746.977	41.6
747.158	42.17
747.339	42.19
747.52	41.9
747.702	42.29
747.883	42.25
748.064	41.6
748.245	41.01
748.426	40.41
748.607	40.79
748.788	40.72
748.97	40.85
749.151	40.51
749.332	40.2
749.513	40.02
749.694	40.18
749.875	40.01
750.056	40.81
750.237	41.77
750.418	42.07
750.599	41.66
750.78	41.48
750.96	42.27
751.141	42.32
751.322	42.98
751.503	42.83
751.684	42.25
751.865	41.96
752.046	41.7
752.226	41
752.407	40.69
752.588	41.2
752.769	41.7
752.949	41.8
753.13	42.02
753.311	41.03
753.492	41.19
753.672	41.38
753.853	41.45
754.034	41.65
754.214	42.27
754.395	42.69
754.575	42.79
754.756	42.42
754.937	41.57
755.117	40.86
755.298	41.56
755.478	41.79
755.659	42.07
755.839	42.03
756.02	41.7
756.2	40.59
756.381	40.28
756.561	39.63
756.741	39.75
756.922	39.98
757.102	40.05
757.283	39.73
757.463	39.66
757.643	40.06
757.823	39.43
758.004	39.41
758.184	40.31
758.364	40.86
758.545	40.5
758.725	40.25
758.905	40.01
759.085	40.34
759.265	40.64
759.446	40.1
759.626	39.14
759.806	39.75
759.986	39.87
760.166	39.48
760.346	39.09
760.526	39.67
760.706	39.36
760.886	38.97
761.066	38.47
761.246	38.29
761.426	38.53
761.606	38.78
761.786	38.36
761.966	37.99
762.146	37.33
762.326	37.71
762.506	37.18
762.686	37.62
762.866	37.18
763.046	37.14
763.225	36.83
763.405	37.08
763.585	36.82
763.765	37.09
763.945	36.95
764.124	37.14
764.304	36.91
764.484	36.87
764.664	37
764.843	37.36
765.023	37.08
765.203	37.48
765.382	37.09
765.562	37.97
765.741	37.94
765.921	38.58
766.101	38.85
766.28	38.62
766.46	39.38
766.639	39.58
766.819	40.1
766.998	40.87
767.178	40.86
767.357	41.17
767.537	40.98
767.716	41.52
767.896	41.43
768.075	41.34
768.254	41.95
768.434	41.98
768.613	41.82
768.792	41.79
768.972	42.03
769.151	41.71
769.33	41.04
769.51	40.14
769.689	39.57
769.868	39.83
770.047	40.53
770.226	40.57
770.406	40.38
770.585	40.83
770.764	41.22
770.943	41.35
771.122	41.63
771.301	42.38
771.48	43.43
771.66	43.45
771.839	43.44
772.018	43.48
772.197	43.19
772.376	43.68
772.555	43.16
772.734	43.2
772.913	43.12
773.092	42.5
773.271	42.9
773.449	42.55
773.628	43.3
773.807	43.84
773.986	43.95
774.165	44.96
774.344	44.1
774.523	44.47
774.701	44.87
774.88	45.27
775.059	46.29
775.238	45.78
775.417	46.2
775.595	45.83
775.774	45.08
775.953	44.61
776.131	44.27
776.31	44.13
776.489	44.21
776.667	43.92
776.846	43.91
777.025	43.86
777.203	44.02
777.382	43.63
777.56	43.23
777.739	43.23
777.917	43.12
778.096	42.74
778.274	43.46
778.453	43.56
778.631	43.33
778.81	42.63
778.988	41.79
779.166	42.15
779.345	42.65
779.523	43.58
779.702	44.32
779.88	44.82
780.058	45.44
780.237	46.07
780.415	46.38
780.593	46.57
780.771	46.73
780.95	47.2
781.128	47.79
781.306	48.49
781.484	48.13
781.662	47.06
781.841	47.45
782.019	46.5
782.197	45.94
782.375	45.18
782.553	44.66
782.731	45.5
782.909	46.63
783.087	46.42
783.265	45.75
783.443	45.3
783.621	45.78
783.799	45.2
783.977	45.38
784.155	46.23
784.333	45.86
784.511	46.01
784.689	45.66
784.867	45.75
785.045	44.85
785.223	45.33
785.4	45.27
785.578	45.98
785.756	45.6
785.934	45.75
786.112	44.23
786.289	44.96
786.467	44.81
786.645	44.28
786.823	43.16
787	42.63
787.178	41.44
787.356	41.09
787.533	40.02
787.711	39.72
787.889	39.97
788.066	40.66
788.244	40.29
788.421	40.02
788.599	39.22
788.776	39.84
788.954	40.46
789.131	40.23
789.309	40.94
789.486	42.29
789.664	43.63
789.841	42.85
790.019	42.66
790.196	42.89
790.373	43.38
790.551	45.16
790.728	44.4
790.906	44.91
791.083	47.42
791.26	47.09
791.437	46.42
791.615	45.62
791.792	47.04
791.969	47.22
792.146	47.39
792.324	47.03
792.501	45.6
792.678	45.83
792.855	45.93
793.032	43.78
793.209	44.31
793.387	44.16
793.564	44.32
793.741	43.87
793.918	43.51
794.095	42.8
794.272	43.63
794.449	44.17
794.626	44.6
794.803	43.84
794.98	44.57
795.157	44.34
795.334	44.39
795.511	44.21
795.688	43.59
795.864	42.95
796.041	43.66
796.218	43.56
796.395	43.79
796.572	43.51
796.749	43.68
796.925	43.7
797.102	43.45
797.279	43.54
797.456	43.13
797.632	43.6
797.809	45.19
797.986	44.25
798.162	44.97
798.339	43.67
798.516	43.72
798.692	44.3
798.869	44.12
799.046	44.57
799.222	44.2
799.399	44.42
799.575	44.13
799.752	44.16
799.928	45.92
800.105	44.81
800.281	44.95
800.458	45.52
800.634	44.7
800.811	44.03
800.987	44.11
801.163	43.38
801.34	43.93
801.516	43.52
801.692	42.35
801.869	41.18
802.045	41.19
802.221	42.3
802.398	41.92
802.574	41.49
802.75	42.14
802.926	42.77
803.103	43.34
803.279	43.75
803.455	44.56
803.631	44.21
803.807	44.81
803.983	45.59
804.16	46.53
804.336	45.73
804.512	46.23
804.688	46.67
804.864	45.58
805.04	46.7
805.216	45.87
805.392	46.32
805.568	47.06
805.744	45.98
805.92	45.75
806.096	45.45
806.272	45.71
806.448	47
806.623	45.89
806.799	46.71
806.975	45.68
807.151	45.86
807.327	46.28
807.503	47.21
807.678	49.25
807.854	48.29
808.03	48.22
808.206	49.41
808.381	48.7
808.557	49.06
808.733	49.06
808.908	50.36
809.084	50.37
809.26	50.77
809.435	50.9
809.611	49.49
809.787	48.99
809.962	49.61
810.138	49.1
810.313	50.69
810.489	50.54
810.664	50.08
810.84	48.22
811.015	47.53
811.191	46.33
811.366	46.18
811.542	46.22
811.717	46.77
811.892	46.12
812.068	46.01
812.243	44.68
812.419	45.6
812.594	44.63
812.769	46.3
812.944	47.04
813.12	47.07
813.295	45.59
813.47	45.32
813.645	45.35
813.821	45.48
813.996	43.64
814.171	43.63
814.346	42.72
814.521	44.43
814.697	43.25
814.872	43.61
815.047	43.74
815.222	44.71
815.397	43.86
815.572	44.55
815.747	42.68
815.922	43.74
816.097	43.77
816.272	43.81
816.447	44.41
816.622	45.32
816.797	45.38
816.972	45.09
817.147	43.9
817.322	44.39
817.496	42.48
817.671	43.38
817.846	44.58
818.021	43.82
818.196	43.74
818.371	42.69
818.545	42.27
818.72	41.71
818.895	42.28
819.069	41.23
819.244	41.22
819.419	41.54
819.594	41.05
819.768	39.46
819.943	39.23
820.117	38.47
820.292	37.89
820.467	36.88
820.641	36.64
820.816	36.01
820.99	36.1
821.165	35.47
821.339	34.74
821.514	34.19
821.688	34.07
821.863	33.49
822.037	33.18
822.212	32.64
822.386	32.47
822.56	32.19
822.735	32.04
822.909	31.98
823.084	31.84
823.258	31.93
823.432	31.97
823.606	31.77
823.781	31.97
823.955	32.02
824.129	32.29
824.303	32.33
824.478	32.28
824.652	32.23
824.826	32.33
825	32.76
825.174	33.19
825.348	33.65
825.523	34.28
825.697	34.55
825.871	34.75
826.045	34.7
826.219	35.33
826.393	35.43
826.567	35.28
826.741	35.43
826.915	35.2
827.089	34.69
827.263	34.59
827.437	34.47
827.611	34.57
827.784	34.68
827.958	34.51
828.132	34.15
828.306	34.3
828.48	34.62
828.654	34.72
828.827	35.23
829.001	35.74
829.175	36.49
829.349	37.41
829.522	37.39
829.696	38.14
829.87	39.09
830.044	40.12
830.217	40.65
830.391	41.08
830.565	41.29
830.738	40.57
830.912	42.08
831.085	41.55
831.259	41.6
831.432	41.98
831.606	41.79
831.779	41.04
831.953	40.84
832.126	40.86
832.3	40.78
832.473	39.94
832.647	39.46
832.82	38.52
832.994	38
833.167	37.42
833.34	36.97
833.514	36.57
833.687	37.07
833.86	36.14
834.034	36.33
834.207	36.26
834.38	36.7
834.553	36.43
834.727	36.48
834.9	36.67
835.073	36.38
835.246	36.42
835.419	37.13
835.593	37.89
835.766	38.55
835.939	38.94
836.112	39.11
836.285	40.08
836.458	42.46
836.631	43.32
836.804	44.41
836.977	45.6
837.15	47.28
837.323	47.7
837.496	48.19
837.669	49.47
837.842	49.46
838.015	50.16
838.188	50.08
838.361	50.78
838.533	50.4
838.706	49.14
838.879	48.65
839.052	49
839.225	48.37
839.398	47.97
839.57	49.66
839.743	50.86
839.916	51.64
840.088	48.59
840.261	47
840.434	49.3
840.607	51.1
840.779	50.78
840.952	50.59
841.124	50.54
841.297	49.01
841.47	48.85
841.642	48.87
841.815	48.68
841.987	50.97
842.16	52.42
842.332	51.38
842.505	51.28
842.677	50.66
842.85	51.53
843.022	51.46
843.194	54.08
843.367	56.05
843.539	57.66
843.712	59.55
843.884	61.16
844.056	61.06
844.229	59.75
844.401	59.43
844.573	65.1
844.745	65.64
844.918	67.42
845.09	67.09
845.262	65.66
845.434	66.25
845.606	64.67
845.779	65.18
845.951	65.32
846.123	66.76
846.295	68.36
846.467	64.22
846.639	66.11
846.811	68.41
846.983	69.72
847.155	67.73
847.327	66.1
847.499	68.25
847.671	66.53
847.843	65.97
848.015	68.43
848.187	69.55
848.359	69.23
848.531	66.76
848.703	62.38
848.875	62.6
849.047	62.41
849.218	60.4
849.39	58.87
849.562	58.41
849.734	59.13
849.905	56.6
850.077	55.79
850.249	61.11
850.421	64.87
850.592	68.4
850.764	69.46
850.936	69.02
851.107	74.77
851.279	75.75
851.451	80.24
851.622	80.4
851.794	84.02
851.965	84.85
852.137	81.76
852.308	78.79
852.48	80.54
852.651	76.11
852.823	76.71
852.994	73.32
853.166	73.4
853.337	71.56
853.509	72.03
853.68	73.31
853.851	68.23
854.023	72.17
854.194	72.02
854.365	64.16
854.537	68.51
854.708	67.61
854.879	70.94
855.05	73.79
855.222	72.8
855.393	76.61
855.564	75.19
855.735	80.45
855.906	76.71
856.078	77.19
856.249	82.04
856.42	78.79
856.591	81.19
856.762	80.99
856.933	79.09
857.104	79.53
857.275	73.64
857.446	71.2
857.617	69.75
857.788	72.12
857.959	73.25
858.13	74.11
858.301	75.39
858.472	76.87
858.643	71.56
858.814	71.36
858.985	73.38
859.155	79.31
859.326	85.35
859.497	86.02
859.668	84.12
859.839	84.17
860.009	78.45
860.18	77.25
860.351	75.77
860.522	81.97
860.692	80.65
860.863	75.48
861.034	74.27
861.204	69.96
861.375	68.9
861.546	70.6
861.716	71.92
861.887	77.52
862.057	77.2
862.228	77.52
862.398	75.2
862.569	74.84
862.739	84.55
862.91	82.91
863.08	77.45
863.251	77.87
863.421	77.62
863.592	73.99
863.762	73.1
863.932	72.33
864.103	75.46
864.273	73.63
864.443	73.45
864.614	65.87
864.784	64.01
864.954	69.38
865.125	66.39
865.295	64.02
865.465	68.83
865.635	74.04
865.805	74.37
865.976	68.77
866.146	70.21
866.316	70.51
866.486	74.59
866.656	75.62
866.826	76.48
866.996	83.19
867.166	84.89
867.336	81.56
867.506	79.18
867.676	82.08
867.846	84.94
868.016	81.22
868.186	76.11
868.356	67.91
868.526	73.27
868.696	73.92
868.866	72.29
869.036	72.6
869.206	74.18
869.376	69.24
869.545	68.04
869.715	66.34
869.885	70.39
870.055	78.04
870.224	85.6
870.394	81.27
870.564	76.69
870.734	76.94
870.903	77.47
871.073	77.51
871.243	81.57
871.412	84.76
871.582	90.76
871.751	88.65
871.921	85.54
872.091	84.9
872.26	78.87
872.43	84.13
872.599	80.94
872.769	85.43
872.938	84.59
873.108	79.82
873.277	76.52
873.446	72.89
873.616	76.7
873.785	77.86
873.955	77.51
874.124	82.28
874.293	78.13
874.463	79.39
874.632	75.42
874.801	71.93
874.971	78.06
875.14	81.58
875.309	79.57
875.478	80
875.647	77.13
875.817	78
875.986	72.47
876.155	71.02
876.324	69.69
876.493	68.35
876.662	71.28
876.831	71.93
877	69.66
877.17	68.51
877.339	65.17
877.508	63.23
877.677	64.79
877.846	68.47
878.015	69.2
878.184	68.59
878.352	69.93
878.521	70.27
878.69	68.87
878.859	65.89
879.028	67.12
879.197	64.71
879.366	62.79
879.534	56.5
879.703	55.1
879.872	53.88
880.041	51.86
880.21	48.12
880.378	43.69
880.547	40.19
880.716	40.64
880.884	39.4
881.053	37.73
881.222	36.39
881.39	35.8
881.559	34.51
881.727	32.03
881.896	31.63
882.065	32.65
882.233	32.93
882.402	32.87
882.57	32.18
882.739	31.98
882.907	32.22
883.076	32.89
883.244	33.18
883.412	33.07
883.581	34.36
883.749	35.39
883.918	34.33
884.086	34.81
884.254	35.19
884.423	35.94
884.591	36.7
884.759	37.54
884.927	37.97
885.096	39.28
885.264	40.13
885.432	40.64
885.6	40.76
885.769	42.88
885.937	44.6
886.105	47.56
886.273	48.65
886.441	49.53
886.609	51.87
886.777	53.84
886.945	54.41
887.113	61.2
887.281	61.66
887.449	62.57
887.617	62.39
887.785	61.59
887.953	63.25
888.121	64.08
888.289	65.9
888.457	66.29
888.625	69.55
888.793	68.14
888.961	65.52
889.129	75.37
889.296	74.28
889.464	75.47
889.632	78.66
889.8	76.26
889.967	78.53
890.135	80.66
