Data from 2938791__Reflection_01.txt Node
Date: Fri Mar 13 11:13:42 EDT 2015
User: robert
Spectrometer: USB4E03002
Autoset integration time: false
Trigger mode: 4
Integration Time (sec): 1.000000E-1
Scans to average: 10
Electric dark correction enabled: false
Nonlinearity correction enabled: false
Boxcar width: 5
Stray light correction enabled: false
XAxis mode: Wavelengths
Stop averaging: false
Number of Pixels in Spectrum: 3648
>>>>>Begin Spectral Data<<<<<
177.575	-844.17
177.794	-7821.43
178.014	-1100.87
178.233	-796.15
178.452	-518.51
178.672	-374.34
178.891	-369.21
179.11	-347.07
179.33	-310.77
179.549	-368.45
179.768	-424.88
179.987	-636.76
180.207	-418.16
180.426	-651.84
180.645	-1194.23
180.864	-4387.8
181.084	1276.12
181.303	2021.35
181.522	1049.72
181.741	2516.22
181.96	1058.52
182.179	480.29
182.398	432.98
182.618	361.58
182.837	420.9
183.056	308.85
183.275	324.7
183.494	375.56
183.713	343.95
183.932	345.57
184.151	320.34
184.37	355.87
184.589	426.59
184.808	501.93
185.027	503.35
185.246	477.3
185.465	1634.19
185.684	794.07
185.903	957.64
186.122	1074.86
186.341	3705.88
186.56	1669.83
186.779	2240.96
186.998	1170.11
187.216	-2748.44
187.435	-631.66
187.654	-764.54
187.873	-1045.45
188.092	-2605.8
188.311	13930.77
188.53	-2255.56
188.748	6071.88
188.967	-968.72
189.186	-1218.02
189.405	-569.58
189.623	-2020.59
189.842	4712.77
190.061	1709.23
190.28	2547.83
190.498	-1460
190.717	-1125.23
190.936	-820.37
191.154	-489.86
191.373	-1375.84
191.592	-1111.63
191.81	-891.43
192.029	-728.4
192.248	-773.09
192.466	-2945.07
192.685	-14328.57
192.904	-655.81
193.122	-2983.64
193.341	784.8
193.559	449.78
193.778	545.1
193.996	416.86
194.215	482.32
194.433	515.7
194.652	449.03
194.87	812.23
195.089	643.78
195.307	359.89
195.526	406.07
195.744	469.59
195.963	392.49
196.181	347.07
196.399	398.63
196.618	336.48
196.836	360.34
197.055	408.72
197.273	436.07
197.491	507.96
197.71	467.33
197.928	661.76
198.146	654.02
198.365	6237.5
198.583	-3526.42
198.801	-1399.24
199.019	-1446.09
199.238	-3738
199.456	1313.42
199.674	679.66
199.892	532
200.111	799.14
200.329	766.24
200.547	661.84
200.765	454.95
200.983	408.22
201.202	422.27
201.42	499.12
201.638	561.59
201.856	911.22
202.074	1136.94
202.292	-2856.45
202.51	11912.5
202.728	6568.97
202.946	-2362.34
203.165	-2366.25
203.383	3753.85
203.601	1502.96
203.819	3261.82
204.037	616.55
204.255	626.8
204.473	654.38
204.691	367
204.909	317.84
205.127	333.7
205.345	405.85
205.562	540
205.78	670.45
205.998	639.57
206.216	408.66
206.434	633.08
206.652	407.83
206.87	450.84
207.088	416.75
207.306	620.39
207.523	510.88
207.741	403.17
207.959	355.99
208.177	531.69
208.395	556.27
208.612	781.54
208.83	540
209.048	581.7
209.266	714.52
209.483	664.56
209.701	696.86
209.919	1080.61
210.136	839.01
210.354	716.48
210.572	484.92
210.79	381.99
211.007	412.3
211.225	538.46
211.442	591.65
211.66	432.27
211.878	456.59
212.095	-1043.03
212.313	-2722.34
212.53	-1676
212.748	-1153.66
212.966	-1992.31
213.183	-1252.41
213.401	-1933.04
213.618	3812.73
213.836	-11994.12
214.053	-6367.74
214.271	8330.77
214.488	222.91
214.705	219.27
214.923	189.3
215.14	196.36
215.358	240.15
215.575	289.33
215.793	278.76
216.01	422.14
216.227	381.93
216.445	403.23
216.662	399.16
216.879	543.7
217.097	471.5
217.314	415.56
217.531	281.25
217.749	236.23
217.966	192.46
218.183	160.57
218.4	155.91
218.618	164.33
218.835	145.81
219.052	153.16
219.269	128.27
219.487	130.33
219.704	138.09
219.921	146.24
220.138	141.32
220.355	141.15
220.572	142.99
220.79	121.19
221.007	120.41
221.224	132.71
221.441	121.5
221.658	124.09
221.875	120.06
222.092	120.67
222.309	106.5
222.526	106.67
222.743	105.91
222.96	103.41
223.177	104.63
223.394	91.84
223.611	79.45
223.828	79.44
224.045	76.21
224.262	73.13
224.479	65.27
224.696	68.61
224.913	61.01
225.13	56.97
225.347	53.45
225.564	53.61
225.781	52.35
225.997	49.62
226.214	47.11
226.431	40.44
226.648	38.47
226.865	36.56
227.082	32.97
227.298	30.1
227.515	26.47
227.732	24.19
227.949	20.91
228.165	19.26
228.382	18.99
228.599	17.72
228.816	18.07
229.032	17.09
229.249	16.28
229.466	15.43
229.682	15.13
229.899	16.34
230.116	15.49
230.332	15.79
230.549	16.05
230.765	16.93
230.982	16.96
231.199	17.56
231.415	18.23
231.632	20.45
231.848	22.15
232.065	24.59
232.281	23.75
232.498	24.66
232.714	23.99
232.931	24.36
233.147	24.44
233.364	25.64
233.58	25.78
233.797	25.82
234.013	24.67
234.23	23.09
234.446	22.32
234.662	22.23
234.879	22.47
235.095	22.86
235.312	21.96
235.528	20.71
235.744	20.25
235.961	19.75
236.177	20.02
236.393	19.05
236.61	20.77
236.826	19
237.042	19.5
237.258	20.38
237.475	21.53
237.691	23.35
237.907	24.36
238.123	24.96
238.339	24.89
238.556	24.75
238.772	24.6
238.988	24.37
239.204	24.9
239.42	23.18
239.636	21.86
239.853	21.07
240.069	20.53
240.285	19.6
240.501	18.31
240.717	17.52
240.933	16.21
241.149	15.29
241.365	13.79
241.581	13.93
241.797	13.57
242.013	13.06
242.229	12.92
242.445	12.38
242.661	11.87
242.877	11.83
243.093	11.79
243.309	11.7
243.525	11.99
243.741	11.95
243.957	11.51
244.173	12.33
244.388	12.34
244.604	11.84
244.82	12.31
245.036	11.85
245.252	11.45
245.468	11.02
245.683	11.16
245.899	10.66
246.115	10.89
246.331	10.44
246.547	10.34
246.762	10
246.978	9.77
247.194	9.5
247.409	9.67
247.625	9.46
247.841	9.12
248.057	9.01
248.272	9
248.488	8.86
248.703	9.21
248.919	9.19
249.135	9.7
249.35	10.43
249.566	10.99
249.782	11.05
249.997	12
250.213	13.18
250.428	13.67
250.644	14.7
250.859	14.48
251.075	13.68
251.29	13.68
251.506	13.36
251.721	12.77
251.937	11.91
252.152	12.09
252.368	12.39
252.583	11.85
252.798	12.02
253.014	11.97
253.229	12.71
253.445	13.78
253.66	13.34
253.875	13.98
254.091	15.22
254.306	15.29
254.521	16.89
254.737	16.97
254.952	17.33
255.167	17.1
255.383	16.76
255.598	16.31
255.813	15.6
256.028	16.24
256.244	15.3
256.459	14.77
256.674	14.59
256.889	12.25
257.104	12.04
257.32	11.8
257.535	10.97
257.75	10.18
257.965	9.88
258.18	9.8
258.395	9.06
258.61	8.34
258.826	7.64
259.041	7.83
259.256	7.71
259.471	7.14
259.686	7.04
259.901	6.73
260.116	6.82
260.331	6.58
260.546	6.51
260.761	6.58
260.976	6.96
261.191	6.69
261.406	6.58
261.621	6.61
261.836	6.38
262.05	6.8
262.265	7.51
262.48	7.48
262.695	8.22
262.91	8.29
263.125	8.22
263.34	7.96
263.555	9.03
263.769	9.26
263.984	9.63
264.199	10.03
264.414	9.43
264.629	9.4
264.843	9.95
265.058	9.23
265.273	9.29
265.488	9.13
265.702	9.43
265.917	9.47
266.132	9.67
266.346	9.64
266.561	9.79
266.776	9.85
266.99	9.91
267.205	9.9
267.42	10.41
267.634	9.99
267.849	9.77
268.063	9.38
268.278	9.25
268.492	9
268.707	8.94
268.922	8.88
269.136	9.03
269.351	8.76
269.565	8.07
269.78	7.4
269.994	6.91
270.209	7.26
270.423	7
270.637	6.8
270.852	6.53
271.066	6.04
271.281	6.1
271.495	6.11
271.709	6.33
271.924	6.4
272.138	7
272.353	7.27
272.567	7.52
272.781	8.06
272.996	7.99
273.21	8
273.424	8.33
273.638	8.23
273.853	8.01
274.067	7.76
274.281	8.19
274.495	7.88
274.71	8.43
274.924	8.57
275.138	8.67
275.352	8.71
275.566	9.33
275.781	9.56
275.995	10.1
276.209	10.41
276.423	10.66
276.637	10.52
276.851	10.64
277.065	9.98
277.279	9.28
277.493	8.99
277.707	9.22
277.921	8.64
278.135	8.2
278.349	7.66
278.563	7.38
278.777	7.12
278.991	6.99
279.205	7.11
279.419	7.79
279.633	8.18
279.847	7.99
280.061	8.19
280.275	7.93
280.489	8.16
280.703	8.74
280.917	8.84
281.131	9.01
281.344	8.84
281.558	8.45
281.772	8.23
281.986	8.15
282.2	8.35
282.414	8.27
282.627	8.44
282.841	8.61
283.055	8.3
283.269	8.26
283.482	7.88
283.696	7.87
283.91	7.78
284.123	7.16
284.337	6.69
284.551	6.62
284.764	6.56
284.978	6.37
285.192	6.31
285.405	6.22
285.619	5.98
285.833	6.06
286.046	6.17
286.26	6.36
286.473	6.79
286.687	6.89
286.9	7.07
287.114	6.87
287.327	6.93
287.541	7.08
287.754	7.17
287.968	7.76
288.181	7.92
288.395	7.78
288.608	7.5
288.822	7.43
289.035	7.55
289.248	7.18
289.462	7.07
289.675	7.5
289.889	7.65
290.102	7.43
290.315	6.97
290.529	7.15
290.742	7.31
290.955	7.79
291.169	8.14
291.382	8.54
291.595	8.8
291.808	9.4
292.022	9.53
292.235	9.51
292.448	9.87
292.661	10.02
292.875	9.9
293.088	9.79
293.301	9.46
293.514	9.17
293.727	8.74
293.94	8.47
294.153	8.28
294.367	8.11
294.58	7.71
294.793	7.78
295.006	7.67
295.219	7.59
295.432	7.7
295.645	7.74
295.858	7.73
296.071	7.7
296.284	7.9
296.497	7.75
296.71	7.57
296.923	7.96
297.136	7.81
297.349	8
297.562	8.23
297.775	8.21
297.988	8.49
298.201	8.5
298.414	8.71
298.626	8.59
298.839	8.46
299.052	8.53
299.265	8.54
299.478	8.77
299.691	8.82
299.903	8.95
300.116	9.3
300.329	9.17
300.542	9.25
300.755	9.32
300.967	9.55
301.18	10.02
301.393	10.2
301.605	9.98
301.818	9.92
302.031	10.11
302.243	10.02
302.456	10.1
302.669	10.3
302.881	10.38
303.094	10.56
303.307	10.72
303.519	10.72
303.732	10.8
303.944	11.02
304.157	11.38
304.37	11.18
304.582	11.28
304.795	11.25
305.007	11.28
305.22	11.57
305.432	11.61
305.645	11.66
305.857	11.95
306.069	12.16
306.282	12.13
306.494	12.01
306.707	12.24
306.919	12.37
307.132	12.35
307.344	12.28
307.556	12.1
307.769	12.04
307.981	11.92
308.193	11.56
308.406	11.47
308.618	11.41
308.83	11.4
309.043	11.17
309.255	10.66
309.467	10.54
309.679	10.21
309.892	10.3
310.104	10.31
310.316	10.29
310.528	10.31
310.74	10.43
310.953	10.19
311.165	10.22
311.377	10.13
311.589	10.65
311.801	10.54
312.013	10.85
312.225	10.85
312.437	10.81
312.649	10.78
312.862	10.99
313.074	10.8
313.286	11.34
313.498	11.7
313.71	11.98
313.922	11.87
314.134	12.22
314.346	12.02
314.558	12.11
314.77	12.29
314.982	12.7
315.193	12.78
315.405	13.15
315.617	12.86
315.829	12.72
316.041	13.16
316.253	13.04
316.465	13.09
316.677	13.27
316.888	13.25
317.1	13.45
317.312	13.42
317.524	13.37
317.736	13.06
317.947	13.71
318.159	13.57
318.371	13.28
318.583	13.52
318.794	13.79
319.006	13.96
319.218	14.02
319.43	14.13
319.641	14.2
319.853	14.15
320.064	14.67
320.276	14.02
320.488	14.27
320.699	14.21
320.911	14.57
321.123	14.42
321.334	14.22
321.546	14.23
321.757	14.32
321.969	14.44
322.18	14.66
322.392	14.37
322.603	14.6
322.815	14.66
323.026	14.94
323.238	14.36
323.449	13.89
323.661	13.83
323.872	13.93
324.083	13.53
324.295	13.11
324.506	12.96
324.718	12.65
324.929	12.74
325.14	12.47
325.352	12.48
325.563	12.98
325.774	13.18
325.986	13.44
326.197	13.56
326.408	13.78
326.62	14.01
326.831	13.89
327.042	14.4
327.253	14.67
327.464	14.92
327.676	14.71
327.887	14.36
328.098	14.28
328.309	14.06
328.52	13.64
328.732	13.41
328.943	13.71
329.154	14.03
329.365	13.9
329.576	13.83
329.787	14.07
329.998	14.48
330.209	14.6
330.42	14.92
330.631	15.21
330.842	15.64
331.053	16.06
331.264	15.47
331.475	15.4
331.686	15.37
331.897	15.33
332.108	15.26
332.319	15.06
332.53	14.94
332.741	14.94
332.952	14.94
333.163	14.67
333.374	14.4
333.585	14.85
333.795	14.61
334.006	14.6
334.217	14.65
334.428	14.51
334.639	14.6
334.849	14.52
335.06	14.72
335.271	14.82
335.482	15.38
335.692	15.53
335.903	15.56
336.114	15.52
336.325	15.51
336.535	15.35
336.746	14.87
336.957	14.94
337.167	15.22
337.378	15.18
337.589	15.02
337.799	14.5
338.01	14.4
338.22	14.14
338.431	14.33
338.642	14.41
338.852	14.21
339.063	14.69
339.273	14.49
339.484	14.19
339.694	13.99
339.905	14.01
340.115	14.29
340.326	14.45
340.536	14.44
340.746	14.43
340.957	14.23
341.167	14.19
341.378	14.05
341.588	14.06
341.799	14.15
342.009	14.05
342.219	13.89
342.43	13.92
342.64	13.8
342.85	14.03
343.061	13.77
343.271	14.1
343.481	13.92
343.691	13.84
343.902	14.05
344.112	13.93
344.322	13.84
344.532	13.9
344.743	13.47
344.953	13.33
345.163	12.92
345.373	12.77
345.583	12.59
345.793	13.03
346.004	12.96
346.214	12.58
346.424	12.55
346.634	12.67
346.844	12.56
347.054	12.83
347.264	12.9
347.474	13.07
347.684	13.57
347.894	13.5
348.104	13.32
348.314	13.39
348.524	13.37
348.734	13.54
348.944	13.76
349.154	13.99
349.364	13.98
349.574	13.93
349.784	14.04
349.994	14.11
350.204	14.18
350.413	13.98
350.623	13.9
350.833	13.97
351.043	13.79
351.253	13.53
351.463	13.17
351.672	13.11
351.882	12.9
352.092	12.54
352.302	12.23
352.511	12.28
352.721	12.48
352.931	12.62
353.141	12.7
353.35	12.64
353.56	12.53
353.77	12.81
353.979	12.83
354.189	13.21
354.399	13.12
354.608	13.14
354.818	12.96
355.027	12.79
355.237	12.68
355.447	12.73
355.656	12.87
355.866	13
356.075	13.05
356.285	13.08
356.494	12.93
356.704	13.13
356.913	13.01
357.123	12.84
357.332	12.87
357.542	12.74
357.751	12.58
357.96	12.49
358.17	12.2
358.379	11.89
358.589	11.83
358.798	11.56
359.007	11.66
359.217	11.87
359.426	11.53
359.635	11.46
359.845	11.36
360.054	11.32
360.263	11.25
360.472	11.32
360.682	11.21
360.891	11.09
361.1	11.04
361.309	10.84
361.519	10.73
361.728	10.92
361.937	11.03
362.146	11.04
362.355	10.9
362.564	11.13
362.774	11.19
362.983	11.03
363.192	11.23
363.401	11.26
363.61	11.15
363.819	11.17
364.028	11.36
364.237	11.37
364.446	11.44
364.655	11.49
364.864	10.99
365.073	10.9
365.282	11.11
365.491	10.87
365.7	10.8
365.909	10.86
366.118	10.87
366.327	10.88
366.536	10.61
366.745	10.62
366.954	10.75
367.162	11.13
367.371	11.15
367.58	11.36
367.789	11.12
367.998	11.33
368.207	11.22
368.415	11.01
368.624	10.96
368.833	11.25
369.042	11.38
369.25	11.31
369.459	11.23
369.668	11.27
369.877	11
370.085	11.05
370.294	11.02
370.503	11.07
370.711	11.05
370.92	10.76
371.129	10.49
371.337	10.14
371.546	10.21
371.754	10.23
371.963	10.03
372.171	10.09
372.38	10.36
372.589	10.22
372.797	10.37
373.006	10.58
373.214	10.69
373.423	10.69
373.631	10.73
373.84	10.53
374.048	10.31
374.256	10.46
374.465	10.56
374.673	10.34
374.882	10.55
375.09	10.64
375.298	10.51
375.507	10.56
375.715	10.53
375.923	10.59
376.132	10.56
376.34	10.47
376.548	10.29
376.757	10.1
376.965	10.22
377.173	10
377.381	9.66
377.59	9.87
377.798	9.93
378.006	9.91
378.214	9.93
378.423	10.04
378.631	10.25
378.839	10.24
379.047	10.42
379.255	10.28
379.463	10.32
379.671	10.43
379.879	9.83
380.088	9.54
380.296	9.45
380.504	9.36
380.712	9.19
380.92	9.06
381.128	9.18
381.336	8.93
381.544	8.72
381.752	8.73
381.96	8.61
382.168	8.7
382.376	8.73
382.584	8.87
382.791	8.93
382.999	8.75
383.207	8.7
383.415	8.73
383.623	8.77
383.831	8.75
384.039	8.71
384.247	8.81
384.454	9.13
384.662	9.28
384.87	9.06
385.078	9.02
385.285	9.22
385.493	9.09
385.701	8.89
385.909	8.95
386.116	9.18
386.324	8.92
386.532	8.85
386.739	8.66
386.947	8.65
387.155	8.73
387.362	8.64
387.57	8.54
387.778	8.44
387.985	8.66
388.193	8.53
388.4	8.42
388.608	8.73
388.816	8.78
389.023	8.73
389.231	8.62
389.438	8.53
389.646	8.54
389.853	8.65
390.061	8.84
390.268	8.82
390.475	8.78
390.683	8.71
390.89	8.56
391.098	8.51
391.305	8.62
391.512	8.54
391.72	8.61
391.927	8.48
392.135	8.38
392.342	8.36
392.549	8.34
392.756	8.28
392.964	8.34
393.171	8.46
393.378	8.37
393.586	8.27
393.793	8.22
394	8.06
394.207	8.2
394.414	8.16
394.622	8.15
394.829	8.12
395.036	8.28
395.243	8.18
395.45	8.05
395.657	8.09
395.864	8.24
396.072	8.36
396.279	8.6
396.486	8.49
396.693	8.63
396.9	8.61
397.107	8.54
397.314	8.46
397.521	8.44
397.728	8.44
397.935	8.42
398.142	8.24
398.349	8.25
398.556	8.17
398.763	8.3
398.97	8.06
399.177	8
399.383	7.95
399.59	8.11
399.797	8.3
400.004	8.18
400.211	8.39
400.418	8.5
400.625	8.43
400.831	8.38
401.038	8.42
401.245	8.59
401.452	8.69
401.658	8.79
401.865	8.72
402.072	8.71
402.279	8.85
402.485	8.6
402.692	8.39
402.899	8.36
403.105	8.27
403.312	8.19
403.519	8.04
403.725	8.03
403.932	7.89
404.138	7.78
404.345	7.76
404.552	7.65
404.758	7.68
404.965	7.59
405.171	7.62
405.378	7.6
405.584	7.55
405.791	7.63
405.997	7.51
406.204	7.66
406.41	7.68
406.617	7.71
406.823	7.85
407.029	7.94
407.236	8.16
407.442	8.13
407.649	8.29
407.855	8.34
408.061	8.42
408.268	8.55
408.474	8.42
408.68	8.34
408.887	8.26
409.093	8.21
409.299	8.19
409.505	8.08
409.712	8.09
409.918	8.04
410.124	8.04
410.33	7.99
410.537	7.84
410.743	7.98
410.949	8.06
411.155	8.15
411.361	8.09
411.567	8.01
411.773	8.05
411.98	8
412.186	8.02
412.392	8.09
412.598	8.1
412.804	8.22
413.01	8.18
413.216	8.34
413.422	8.16
413.628	8.22
413.834	8.34
414.04	8.41
414.246	8.59
414.452	8.47
414.658	8.29
414.864	8.26
415.07	8.25
415.275	8.04
415.481	7.81
415.687	7.83
415.893	7.79
416.099	7.71
416.305	7.66
416.511	7.5
416.716	7.44
416.922	7.54
417.128	7.44
417.334	7.36
417.539	7.5
417.745	7.49
417.951	7.49
418.157	7.44
418.362	7.39
418.568	7.35
418.774	7.32
418.979	7.36
419.185	7.31
419.391	7.31
419.596	7.28
419.802	7.22
420.008	7.19
420.213	7.2
420.419	7.22
420.624	7.15
420.83	7.2
421.035	7.27
421.241	7.29
421.446	7.28
421.652	7.27
421.857	7.26
422.063	7.23
422.268	7.24
422.474	7.19
422.679	7.25
422.885	7.31
423.09	7.26
423.295	7.14
423.501	7.13
423.706	7.15
423.911	7.21
424.117	7.25
424.322	7.25
424.527	7.27
424.733	7.24
424.938	7.22
425.143	7.18
425.349	7.26
425.554	7.31
425.759	7.36
425.964	7.37
426.169	7.36
426.375	7.41
426.58	7.5
426.785	7.54
426.99	7.67
427.195	7.7
427.4	7.73
427.605	7.61
427.811	7.74
428.016	7.72
428.221	7.87
428.426	7.89
428.631	7.93
428.836	7.92
429.041	7.96
429.246	7.84
429.451	7.84
429.656	7.95
429.861	8.03
430.066	7.96
430.271	7.96
430.476	7.8
430.681	7.9
430.886	7.89
431.09	7.86
431.295	7.86
431.5	8.07
431.705	8.04
431.91	8.16
432.115	8.18
432.32	8.27
432.524	8.27
432.729	8.46
432.934	8.45
433.139	8.4
433.343	8.45
433.548	8.5
433.753	8.42
433.958	8.5
434.162	8.51
434.367	8.57
434.572	8.55
434.776	8.56
434.981	8.45
435.186	8.42
435.39	8.58
435.595	8.62
435.799	8.45
436.004	8.5
436.209	8.51
436.413	8.49
436.618	8.43
436.822	8.43
437.027	8.43
437.231	8.41
437.436	8.49
437.64	8.44
437.845	8.43
438.049	8.63
438.253	8.57
438.458	8.51
438.662	8.42
438.867	8.45
439.071	8.51
439.275	8.57
439.48	8.59
439.684	8.52
439.888	8.47
440.093	8.43
440.297	8.34
440.501	8.4
440.706	8.42
440.91	8.38
441.114	8.38
441.318	8.34
441.523	8.29
441.727	8.2
441.931	8.22
442.135	8.24
442.339	8.18
442.543	8.3
442.748	8.32
442.952	8.32
443.156	8.46
443.36	8.39
443.564	8.31
443.768	8.39
443.972	8.4
444.176	8.42
444.38	8.45
444.584	8.5
444.788	8.39
444.992	8.31
445.196	8.26
445.4	8.12
445.604	8.18
445.808	8.29
446.012	8.19
446.216	8.18
446.42	8.2
446.624	8.12
446.828	8.13
447.032	8.09
447.235	8.09
447.439	8.06
447.643	8.1
447.847	8.06
448.051	8.07
448.254	8.11
448.458	8.16
448.662	8.07
448.866	8.13
449.069	8.19
449.273	8.29
449.477	8.26
449.681	8.32
449.884	8.45
450.088	8.66
450.292	8.6
450.495	8.69
450.699	8.69
450.902	8.65
451.106	8.65
451.31	8.61
451.513	8.71
451.717	8.75
451.92	8.83
452.124	8.83
452.327	8.61
452.531	8.62
452.734	8.55
452.938	8.6
453.141	8.72
453.345	8.75
453.548	8.77
453.752	8.67
453.955	8.73
454.158	8.65
454.362	8.66
454.565	8.74
454.769	8.7
454.972	8.76
455.175	8.75
455.379	8.66
455.582	8.64
455.785	8.55
455.988	8.66
456.192	8.69
456.395	8.62
456.598	8.61
456.801	8.71
457.005	8.7
457.208	8.63
457.411	8.66
457.614	8.7
457.817	8.63
458.021	8.64
458.224	8.57
458.427	8.5
458.63	8.59
458.833	8.49
459.036	8.41
459.239	8.41
459.442	8.38
459.645	8.32
459.848	8.28
460.051	8.34
460.254	8.36
460.457	8.37
460.66	8.42
460.863	8.4
461.066	8.44
461.269	8.4
461.472	8.53
461.675	8.59
461.878	8.68
462.081	8.8
462.284	8.84
462.486	8.87
462.689	8.85
462.892	8.83
463.095	8.9
463.298	8.97
463.5	9.01
463.703	8.84
463.906	8.89
464.109	8.91
464.311	8.88
464.514	8.78
464.717	8.82
464.92	8.87
465.122	8.92
465.325	8.88
465.528	8.8
465.73	8.81
465.933	8.82
466.135	8.81
466.338	8.65
466.541	8.59
466.743	8.62
466.946	8.54
467.148	8.53
467.351	8.48
467.553	8.5
467.756	8.52
467.958	8.52
468.161	8.63
468.363	8.61
468.566	8.7
468.768	8.73
468.971	8.7
469.173	8.75
469.375	8.82
469.578	8.86
469.78	8.83
469.983	8.88
470.185	8.89
470.387	8.9
470.59	8.91
470.792	8.9
470.994	9.03
471.196	9.07
471.399	9.01
471.601	8.99
471.803	8.94
472.005	8.97
472.208	8.96
472.41	8.91
472.612	8.93
472.814	8.98
473.016	9.03
473.218	9.04
473.421	9.08
473.623	9.15
473.825	9.15
474.027	9.15
474.229	9.1
474.431	9.04
474.633	9.13
474.835	9.08
475.037	9.07
475.239	9.01
475.441	8.95
475.643	8.92
475.845	8.86
476.047	8.81
476.249	8.81
476.451	8.81
476.653	8.83
476.855	8.82
477.057	8.77
477.258	8.73
477.46	8.74
477.662	8.75
477.864	8.79
478.066	8.85
478.268	8.87
478.469	8.86
478.671	8.8
478.873	8.82
479.075	8.73
479.276	8.77
479.478	8.82
479.68	8.78
479.882	8.73
480.083	8.66
480.285	8.56
480.487	8.54
480.688	8.49
480.89	8.54
481.091	8.46
481.293	8.45
481.495	8.36
481.696	8.31
481.898	8.24
482.099	8.21
482.301	8.15
482.502	8.17
482.704	8.11
482.905	8.09
483.107	8.05
483.308	8.01
483.51	7.97
483.711	7.96
483.913	7.9
484.114	7.92
484.315	7.88
484.517	7.88
484.718	7.83
484.92	7.83
485.121	7.84
485.322	7.85
485.524	7.87
485.725	7.9
485.926	7.9
486.127	7.93
486.329	7.93
486.53	7.96
486.731	7.96
486.932	8.01
487.134	8.02
487.335	8.03
487.536	7.99
487.737	8
487.938	7.98
488.139	8.03
488.341	8.08
488.542	8.09
488.743	8.1
488.944	8.11
489.145	8.14
489.346	8.16
489.547	8.14
489.748	8.2
489.949	8.22
490.15	8.22
490.351	8.17
490.552	8.14
490.753	8.15
490.954	8.16
491.155	8.18
491.356	8.16
491.557	8.2
491.758	8.2
491.959	8.19
492.159	8.18
492.36	8.24
492.561	8.26
492.762	8.29
492.963	8.33
493.164	8.35
493.364	8.34
493.565	8.36
493.766	8.31
493.967	8.37
494.167	8.47
494.368	8.58
494.569	8.63
494.769	8.71
494.97	8.78
495.171	8.81
495.371	8.83
495.572	8.88
495.773	8.84
495.973	8.93
496.174	8.95
496.375	8.92
496.575	8.86
496.776	8.94
496.976	8.91
497.177	8.84
497.377	8.82
497.578	8.84
497.778	8.87
497.979	8.95
498.179	8.92
498.38	8.91
498.58	8.96
498.78	8.9
498.981	8.85
499.181	8.93
499.382	8.99
499.582	9.04
499.782	9.04
499.983	9.02
500.183	9.07
500.383	9.14
500.584	9.17
500.784	9.17
500.984	9.31
501.184	9.33
501.385	9.32
501.585	9.32
501.785	9.35
501.985	9.5
502.185	9.59
502.386	9.54
502.586	9.52
502.786	9.54
502.986	9.53
503.186	9.53
503.386	9.51
503.586	9.52
503.786	9.54
503.987	9.53
504.187	9.45
504.387	9.48
504.587	9.53
504.787	9.54
504.987	9.63
505.187	9.64
505.387	9.63
505.587	9.67
505.786	9.7
505.986	9.77
506.186	9.79
506.386	9.79
506.586	9.81
506.786	9.77
506.986	9.91
507.186	9.83
507.386	9.88
507.585	9.97
507.785	10.02
507.985	10.1
508.185	10.12
508.384	10.11
508.584	10.18
508.784	10.18
508.984	10.26
509.183	10.22
509.383	10.3
509.583	10.41
509.782	10.44
509.982	10.52
510.182	10.45
510.381	10.54
510.581	10.66
510.781	10.67
510.98	10.79
511.18	10.8
511.379	10.82
511.579	10.88
511.778	10.9
511.978	10.93
512.177	10.97
512.377	11.02
512.576	11.07
512.776	11.1
512.975	11.27
513.175	11.28
513.374	11.34
513.573	11.43
513.773	11.54
513.972	11.56
514.172	11.66
514.371	11.77
514.57	11.84
514.77	11.88
514.969	11.9
515.168	11.9
515.367	11.95
515.567	11.99
515.766	12.09
515.965	12.12
516.164	12.15
516.364	12.17
516.563	12.04
516.762	12.08
516.961	12.06
517.16	12.13
517.359	12.17
517.559	12.28
517.758	12.33
517.957	12.25
518.156	12.26
518.355	12.31
518.554	12.34
518.753	12.46
518.952	12.59
519.151	12.66
519.35	12.68
519.549	12.68
519.748	12.66
519.947	12.77
520.146	12.89
520.345	12.93
520.544	13.03
520.743	13.13
520.942	13.2
521.141	13.15
521.339	13.25
521.538	13.35
521.737	13.48
521.936	13.56
522.135	13.58
522.333	13.67
522.532	13.83
522.731	13.84
522.93	13.89
523.129	13.98
523.327	14.05
523.526	14.16
523.725	14.24
523.923	14.26
524.122	14.32
524.321	14.4
524.519	14.41
524.718	14.37
524.917	14.4
525.115	14.36
525.314	14.32
525.512	14.43
525.711	14.47
525.909	14.5
526.108	14.54
526.306	14.57
526.505	14.58
526.703	14.66
526.902	14.71
527.1	14.74
527.299	14.85
527.497	14.88
527.696	14.89
527.894	14.9
528.092	14.93
528.291	14.95
528.489	14.96
528.688	14.96
528.886	14.96
529.084	14.99
529.283	15.03
529.481	15.06
529.679	15.15
529.877	15.21
530.076	15.26
530.274	15.28
530.472	15.33
530.67	15.44
530.869	15.51
531.067	15.62
531.265	15.72
531.463	15.79
531.661	15.83
531.859	15.88
532.057	15.9
532.255	15.91
532.454	15.98
532.652	16.01
532.85	16.03
533.048	16.07
533.246	16.08
533.444	16.09
533.642	16.14
533.84	16.15
534.038	16.18
534.236	16.23
534.434	16.35
534.632	16.39
534.83	16.5
535.027	16.55
535.225	16.58
535.423	16.66
535.621	16.75
535.819	16.71
536.017	16.82
536.215	16.86
536.412	16.9
536.61	16.89
536.808	16.89
537.006	16.91
537.203	16.96
537.401	17.14
537.599	17.14
537.797	17.17
537.994	17.32
538.192	17.38
538.39	17.46
538.587	17.59
538.785	17.64
538.983	17.77
539.18	17.78
539.378	17.84
539.575	17.77
539.773	17.83
539.97	17.85
540.168	17.94
540.366	17.95
540.563	17.96
540.761	17.96
540.958	17.98
541.155	17.97
541.353	18.01
541.55	17.98
541.748	17.99
541.945	17.99
542.143	18.03
542.34	18
542.537	17.97
542.735	17.99
542.932	17.97
543.129	18.05
543.327	18.06
543.524	18.12
543.721	18.17
543.919	18.26
544.116	18.36
544.313	18.39
544.51	18.46
544.708	18.61
544.905	18.7
545.102	18.84
545.299	18.83
545.496	18.9
545.693	18.95
545.891	19.09
546.088	19.15
546.285	19.19
546.482	19.21
546.679	19.2
546.876	19.2
547.073	19.09
547.27	19.05
547.467	19.04
547.664	19.08
547.861	19.09
548.058	19.1
548.255	19.04
548.452	19.07
548.649	19.17
548.846	19.24
549.043	19.28
549.24	19.53
549.437	19.56
549.633	19.69
549.83	19.75
550.027	19.75
550.224	19.68
550.421	19.68
550.618	19.57
550.814	19.57
551.011	19.54
551.208	19.64
551.405	19.51
551.601	19.61
551.798	19.55
551.995	19.53
552.191	19.68
552.388	19.7
552.585	19.77
552.781	19.82
552.978	19.89
553.175	19.96
553.371	19.98
553.568	19.97
553.764	19.95
553.961	20.02
554.157	20.08
554.354	19.98
554.55	20
554.747	20.06
554.943	20.18
555.14	20.06
555.336	20.06
555.533	20.03
555.729	20.18
555.926	20.18
556.122	20.33
556.318	20.4
556.515	20.36
556.711	20.4
556.907	20.42
557.104	20.42
557.3	20.57
557.496	20.61
557.693	20.51
557.889	20.45
558.085	20.6
558.281	20.43
558.478	20.42
558.674	20.49
558.87	20.59
559.066	20.62
559.262	20.68
559.459	20.62
559.655	20.63
559.851	20.74
560.047	20.81
560.243	20.7
560.439	20.77
560.635	20.76
560.831	20.76
561.027	20.8
561.223	20.81
561.419	20.71
561.615	20.71
561.811	20.69
562.007	20.64
562.203	20.77
562.399	20.83
562.595	20.84
562.791	20.88
562.987	20.88
563.183	20.84
563.379	20.77
563.575	20.85
563.771	20.85
563.966	20.85
564.162	20.9
564.358	20.66
564.554	20.74
564.75	20.79
564.945	20.75
565.141	20.77
565.337	20.71
565.533	20.75
565.728	20.68
565.924	20.81
566.12	20.8
566.315	20.78
566.511	20.89
566.707	20.69
566.902	20.64
567.098	20.72
567.293	20.76
567.489	20.83
567.684	20.82
567.88	20.9
568.076	20.83
568.271	20.86
568.467	20.85
568.662	20.85
568.858	20.98
569.053	21.05
569.248	20.93
569.444	20.95
569.639	20.87
569.835	20.91
570.03	20.89
570.225	20.85
570.421	20.85
570.616	20.89
570.812	20.85
571.007	20.82
571.202	20.71
571.397	20.77
571.593	20.68
571.788	20.84
571.983	20.86
572.178	20.84
572.374	20.88
572.569	20.84
572.764	20.9
572.959	20.95
573.154	21.12
573.35	21.2
573.545	21.26
573.74	21.34
573.935	21.16
574.13	21.09
574.325	21.07
574.52	21.1
574.715	21.22
574.91	21.16
575.105	21.2
575.3	21.08
575.495	21.05
575.69	20.93
575.885	20.88
576.08	20.96
576.275	21.09
576.47	21.16
576.665	21.18
576.86	21.13
577.055	21.16
577.25	21.29
577.444	21.32
577.639	21.53
577.834	21.64
578.029	21.77
578.224	21.87
578.418	21.93
578.613	21.98
578.808	22.04
579.003	22.23
579.197	22.16
579.392	21.88
579.587	21.92
579.781	21.86
579.976	21.96
580.171	21.87
580.365	21.97
580.56	21.94
580.755	21.99
580.949	21.9
581.144	21.78
581.338	21.85
581.533	22
581.727	22.14
581.922	22.02
582.116	22.05
582.311	22.19
582.505	22.09
582.7	22.28
582.894	22.32
583.089	22.39
583.283	22.45
583.478	22.4
583.672	22.52
583.866	22.49
584.061	22.64
584.255	22.54
584.449	22.51
584.644	22.52
584.838	22.52
585.032	22.45
585.226	22.65
585.421	22.8
585.615	22.96
585.809	22.91
586.003	22.91
586.198	22.96
586.392	22.99
586.586	22.97
586.78	23.09
586.974	23
587.168	23.1
587.363	22.85
587.557	22.77
587.751	22.7
587.945	22.51
588.139	22.43
588.333	22.38
588.527	22.43
588.721	22.43
588.915	22.26
589.109	22.25
589.303	22.23
589.497	22.24
589.691	22.17
589.885	22.22
590.079	22.4
590.273	22.44
590.466	22.4
590.66	22.37
590.854	22.39
591.048	22.34
591.242	22.36
591.436	22.27
591.629	22.36
591.823	22.49
592.017	22.6
592.211	22.6
592.404	22.53
592.598	22.55
592.792	22.46
592.986	22.61
593.179	22.72
593.373	22.68
593.567	22.74
593.76	22.54
593.954	22.33
594.147	22.28
594.341	22.32
594.535	22.42
594.728	22.43
594.922	22.49
595.115	22.38
595.309	22.36
595.502	22.37
595.696	22.36
595.889	22.53
596.083	22.47
596.276	22.42
596.47	22.37
596.663	22.37
596.856	22.35
597.05	22.33
597.243	22.25
597.437	22.43
597.63	22.45
597.823	22.46
598.017	22.43
598.21	22.59
598.403	22.69
598.596	22.71
598.79	22.74
598.983	22.88
599.176	23.03
599.369	23.18
599.563	23.02
599.756	23.15
599.949	23.19
600.142	23.3
600.335	23.4
600.528	23.27
600.722	23.37
600.915	23.42
601.108	23.42
601.301	23.35
601.494	23.43
601.687	23.36
601.88	23.23
602.073	23.19
602.266	23.07
602.459	22.98
602.652	22.95
602.845	22.77
603.038	22.7
603.231	22.65
603.424	22.64
603.617	22.44
603.809	22.44
604.002	22.36
604.195	22.44
604.388	22.55
604.581	22.44
604.774	22.39
604.966	22.49
605.159	22.49
605.352	22.33
605.545	22.36
605.737	22.59
605.93	22.6
606.123	22.76
606.316	22.85
606.508	22.93
606.701	23.06
606.894	23.21
607.086	23.33
607.279	23.37
607.471	23.63
607.664	23.62
607.857	23.62
608.049	23.82
608.242	23.85
608.434	23.8
608.627	23.75
608.819	23.91
609.012	24.03
609.204	24.21
609.397	24.52
609.589	24.84
609.782	25.21
609.974	25.53
610.166	25.82
610.359	26.05
610.551	26.44
610.743	26.71
610.936	26.9
611.128	27.21
611.32	27.37
611.513	27.38
611.705	27.24
611.897	27.17
612.09	27.02
612.282	26.89
612.474	26.85
612.666	26.68
612.858	26.61
613.051	26.68
613.243	26.4
613.435	26.17
613.627	26.04
613.819	26
614.011	26.06
614.203	25.99
614.395	25.73
614.588	25.48
614.78	25.43
614.972	25.38
615.164	25.33
615.356	25.43
615.548	25.39
615.74	25.42
615.932	25.21
616.124	25.05
616.315	24.99
616.507	25.07
616.699	25.13
616.891	24.92
617.083	24.87
617.275	24.61
617.467	24.48
617.659	24.44
617.85	24.4
618.042	24.42
618.234	24.39
618.426	24.28
618.618	24.11
618.809	24.06
619.001	24.22
619.193	24.08
619.384	24.33
619.576	24.34
619.768	24.4
619.959	24.4
620.151	24.39
620.343	24.25
620.534	24.34
620.726	24.44
620.917	24.5
621.109	24.49
621.301	24.69
621.492	24.52
621.684	24.59
621.875	24.5
622.067	24.48
622.258	24.65
622.45	24.84
622.641	24.71
622.832	24.92
623.024	25.02
623.215	24.93
623.407	24.77
623.598	24.84
623.789	24.96
623.981	25.06
624.172	25.07
624.363	24.95
624.555	24.83
624.746	24.76
624.937	24.6
625.129	24.47
625.32	24.54
625.511	24.53
625.702	24.54
625.893	24.34
626.085	24.27
626.276	24.14
626.467	24.33
626.658	24.26
626.849	24.26
627.04	24.08
627.231	24
627.422	24.09
627.614	24.07
627.805	23.98
627.996	23.89
628.187	23.96
628.378	23.87
628.569	23.84
628.76	24
628.951	24.19
629.142	24.43
629.332	24.74
629.523	24.65
629.714	24.81
629.905	25.08
630.096	25.29
630.287	25.25
630.478	25.59
630.669	25.64
630.859	25.59
631.05	25.53
631.241	25.44
631.432	25.2
631.623	25.19
631.813	25.2
632.004	24.95
632.195	24.71
632.385	24.69
632.576	24.53
632.767	24.42
632.957	24.33
633.148	24.43
633.339	24.31
633.529	24.29
633.72	24.33
633.91	24.24
634.101	24.36
634.292	24.47
634.482	24.49
634.673	24.61
634.863	24.49
635.054	24.48
635.244	24.3
635.435	24.42
635.625	24.51
635.815	24.36
636.006	24.36
636.196	24.23
636.387	24.29
636.577	24.27
636.767	24.18
636.958	24.19
637.148	24.27
637.338	24.4
637.529	24.54
637.719	24.56
637.909	24.69
638.099	24.56
638.29	24.7
638.48	24.88
638.67	24.99
638.86	25
639.05	25.13
639.241	25.3
639.431	25.27
639.621	25.33
639.811	25.15
640.001	25.21
640.191	25.28
640.381	25.14
640.571	25.14
640.761	25.1
640.951	25.18
641.141	25.02
641.331	25.05
641.521	25.18
641.711	25.13
641.901	25.3
642.091	25.28
642.281	25.42
642.471	25.41
642.661	25.37
642.851	25.34
643.041	25.32
643.231	25.48
643.42	25.31
643.61	25.16
643.8	24.98
643.99	24.92
644.18	25.03
644.369	25.07
644.559	25.17
644.749	25.23
644.939	25.23
645.128	25.29
645.318	25.27
645.508	25.4
645.697	25.52
645.887	25.67
646.076	25.72
646.266	25.61
646.456	25.67
646.645	25.54
646.835	25.37
647.024	25.46
647.214	25.34
647.403	25.4
647.593	25.28
647.782	25.37
647.972	25.25
648.161	25.22
648.351	25.14
648.54	24.99
648.73	25.15
648.919	25.19
649.108	25.08
649.298	25.22
649.487	25.12
649.677	25.22
649.866	25.1
650.055	25.22
650.244	25.49
650.434	25.65
650.623	25.77
650.812	25.81
651.002	25.74
651.191	25.88
651.38	25.9
651.569	26.08
651.758	26.12
651.947	26.31
652.137	26.26
652.326	26.19
652.515	26.06
652.704	26.18
652.893	26.13
653.082	26.06
653.271	25.98
653.46	26.02
653.649	26.01
653.838	25.83
654.027	25.74
654.216	25.77
654.405	25.84
654.594	26.03
654.783	25.79
654.972	25.71
655.161	25.94
655.35	25.83
655.539	25.73
655.728	25.5
655.916	25.72
656.105	25.74
656.294	25.77
656.483	25.46
656.672	25.3
656.86	25.36
657.049	25.26
657.238	25.16
657.427	25.26
657.615	25.32
657.804	25.44
657.993	25.3
658.181	25.15
658.37	25.04
658.559	25.31
658.747	25.41
658.936	25.49
659.125	25.54
659.313	25.58
659.502	25.8
659.69	25.7
659.879	25.68
660.067	25.74
660.256	25.81
660.444	25.86
660.633	25.85
660.821	25.62
661.01	25.62
661.198	25.72
661.387	25.76
661.575	25.56
661.763	25.74
661.952	25.83
662.14	25.89
662.328	25.99
662.517	26.18
662.705	26.22
662.893	26.55
663.082	26.5
663.27	26.65
663.458	26.65
663.646	26.82
663.834	26.9
664.023	26.97
664.211	27.12
664.399	27.39
664.587	27.22
664.775	27.13
664.963	27.18
665.152	27.13
665.34	26.95
665.528	27.25
665.716	27.18
665.904	26.92
666.092	26.99
666.28	26.67
666.468	26.43
666.656	26.72
666.844	26.64
667.032	26.63
667.22	26.82
667.408	27.05
667.596	27.04
667.784	26.94
667.971	26.79
668.159	26.64
668.347	26.9
668.535	26.87
668.723	26.56
668.911	26.53
669.098	26.48
669.286	26.65
669.474	26.42
669.662	26.25
669.849	26.19
670.037	26.46
670.225	26.54
670.413	26.46
670.6	26.53
670.788	26.99
670.976	27.1
671.163	26.81
671.351	26.59
671.538	26.88
671.726	26.89
671.913	26.77
672.101	26.75
672.289	26.69
672.476	26.85
672.664	26.75
672.851	26.64
673.039	26.64
673.226	26.81
673.413	26.73
673.601	26.5
673.788	26.58
673.976	26.98
674.163	26.94
674.35	27.04
674.538	26.98
674.725	27.37
674.912	27.28
675.1	27.22
675.287	27.39
675.474	27.54
675.662	27.82
675.849	27.83
676.036	27.86
676.223	28.14
676.411	28.06
676.598	27.89
676.785	27.61
676.972	27.75
677.159	27.74
677.346	27.77
677.533	27.74
677.721	27.38
677.908	27.17
678.095	26.95
678.282	26.74
678.469	26.54
678.656	26.66
678.843	26.74
679.03	26.58
679.217	26.81
679.404	26.87
679.591	26.71
679.778	26.74
679.964	26.76
680.151	26.83
680.338	26.84
680.525	27.11
680.712	26.93
680.899	26.85
681.086	27.09
681.272	26.99
681.459	26.95
681.646	27.05
681.833	27.28
682.02	27.37
682.206	27.52
682.393	27.55
682.58	27.5
682.766	27.82
682.953	27.7
683.14	27.38
683.326	27.83
683.513	28
683.7	27.95
683.886	27.85
684.073	27.82
684.259	27.58
684.446	27.9
684.632	27.91
684.819	28.02
685.005	28.37
685.192	28.51
685.378	28.04
685.565	27.8
685.751	27.9
685.938	27.85
686.124	27.92
686.31	28.21
686.497	27.81
686.683	27.93
686.87	27.54
687.056	27.15
687.242	27.17
687.429	27
687.615	27.24
687.801	27.33
687.987	27.42
688.174	27.32
688.36	27.27
688.546	27.66
688.732	27.55
688.918	27.64
689.105	28.05
689.291	28.01
689.477	28.32
689.663	28.09
689.849	28.16
690.035	28.47
690.221	28.78
690.407	28.79
690.593	28.7
690.779	29.06
690.965	29.14
691.151	29.03
691.337	29.2
691.523	29.39
691.709	29.51
691.895	29.69
692.081	29.44
692.267	29.46
692.453	29.47
692.639	29.34
692.825	29.42
693.011	29.58
693.196	29.4
693.382	29.27
693.568	29.1
693.754	29.2
693.94	28.92
694.125	28.99
694.311	28.94
694.497	28.81
694.682	28.69
694.868	28.54
695.054	28.57
695.239	28.86
695.425	28.99
695.611	28.96
695.796	28.81
695.982	28.52
696.168	28.46
696.353	28.3
696.539	28.54
696.724	28.65
696.91	28.69
697.095	28.4
697.281	28.41
697.466	28.16
697.652	27.99
697.837	27.85
698.023	28.13
698.208	27.84
698.393	28.05
698.579	27.87
698.764	27.72
698.949	27.6
699.135	27.47
699.32	27.59
699.505	27.42
699.691	27.47
699.876	27.64
700.061	27.74
700.246	27.77
700.432	27.68
700.617	27.78
700.802	28.03
700.987	27.99
701.172	28.43
701.358	28.42
701.543	28.95
701.728	29.34
701.913	29.5
702.098	29.54
702.283	30.13
702.468	30.23
702.653	30.3
702.838	30.48
703.023	30.41
703.208	30.64
703.393	30.46
703.578	30.47
703.763	30.37
703.948	30.23
704.133	30.48
704.318	30.42
704.503	30.22
704.688	30.53
704.873	30.61
705.057	31.26
705.242	31.23
705.427	31.29
705.612	31.62
705.797	32.15
705.981	32.03
706.166	31.95
706.351	32.19
706.536	32.37
706.72	32.1
706.905	32.22
707.09	31.75
707.274	31.8
707.459	32.14
707.644	31.72
707.828	31.24
708.013	31.69
708.197	31.77
708.382	31.76
708.567	32.08
708.751	32.05
708.936	31.8
709.12	31.84
709.305	31.62
709.489	31.13
709.673	31.34
709.858	31.05
710.042	30.9
710.227	30.82
710.411	30.61
710.596	30.29
710.78	30.47
710.964	30.36
711.149	30.3
711.333	30.31
711.517	30.45
711.702	30.62
711.886	30.66
712.07	30.6
712.254	30.55
712.438	30.41
712.623	30.51
712.807	30.37
712.991	30.66
713.175	30.79
713.359	30.83
713.544	30.75
713.728	30.6
713.912	30.96
714.096	30.9
714.28	30.49
714.464	30.67
714.648	30.52
714.832	30.61
715.016	30.59
715.2	30.47
715.384	30.33
715.568	30.55
715.752	30.39
715.936	30.33
716.12	30.35
716.304	30.7
716.488	30.75
716.671	31.09
716.855	31.08
717.039	30.81
717.223	30.75
717.407	30.75
717.59	30.83
717.774	31.12
717.958	31.02
718.142	30.96
718.325	30.99
718.509	30.8
718.693	30.37
718.877	30.29
719.06	30.3
719.244	30.64
719.428	31
719.611	31.05
719.795	30.65
719.978	30.73
720.162	30.63
720.345	30.54
720.529	30.87
720.713	31.03
720.896	30.97
721.08	31.08
721.263	31.37
721.446	31.7
721.63	31.12
721.813	31.62
721.997	31.83
722.18	31.93
722.364	31.98
722.547	31.7
722.73	31.74
722.914	31.71
723.097	31.54
723.28	31.59
723.464	31.54
723.647	32.45
723.83	31.95
724.013	31.43
724.197	31.86
724.38	31.67
724.563	31.79
724.746	31.91
724.929	32
725.112	32.01
725.296	31.3
725.479	31.04
725.662	31.12
725.845	31.06
726.028	31.59
726.211	31.41
726.394	31.8
726.577	32.23
726.76	32.31
726.943	32.43
727.126	32.26
727.309	32.6
727.492	32.83
727.675	32.56
727.858	33.04
728.041	32.74
728.224	32.63
728.407	32.78
728.589	32.38
728.772	32.2
728.955	32.4
729.138	32.66
729.321	32.55
729.503	32.29
729.686	31.87
729.869	31.8
730.052	31.89
730.234	32.05
730.417	32.21
730.6	32.22
730.782	32.41
730.965	32.18
731.148	32.13
731.33	31.77
731.513	31.47
731.695	31.5
731.878	31.24
732.061	31.09
732.243	31.19
732.426	30.87
732.608	31.2
732.791	30.92
732.973	30.85
733.156	31.12
733.338	31.46
733.52	32.09
733.703	32.07
733.885	32.07
734.068	32.24
734.25	32.53
734.432	32.2
734.615	32.02
734.797	32.07
734.979	32.06
735.162	32.24
735.344	32.04
735.526	31.78
735.708	32.4
735.891	32.47
736.073	32.86
736.255	32.99
736.437	33.6
736.619	33.42
736.802	33.67
736.984	33.67
737.166	33.65
737.348	33.98
737.53	33.95
737.712	33.31
737.894	33.56
738.076	33.01
738.258	32.12
738.44	31.71
738.622	32
738.804	32.08
738.986	32.43
739.168	32.33
739.35	32.61
739.532	32.41
739.714	33.02
739.896	32.76
740.078	33.14
740.259	33.64
740.441	33.79
740.623	34.1
740.805	33.97
740.987	33.37
741.168	33.46
741.35	32.95
741.532	32.87
741.714	32.65
741.895	32.96
742.077	32.73
742.259	32.66
742.44	33.21
742.622	32.73
742.804	32.86
742.985	33.51
743.167	33.06
743.348	33.73
743.53	34.21
743.711	34.49
743.893	34.85
744.075	34.91
744.256	35.37
744.438	34.47
744.619	34.91
744.8	34.74
744.982	34.79
745.163	35.24
745.345	34.8
745.526	34.65
745.707	34.4
745.889	34.68
746.07	34.94
746.252	34.53
746.433	35.07
746.614	34.77
746.795	34.56
746.977	34.41
747.158	34.73
747.339	35.17
747.52	35.47
747.702	35.66
747.883	34.77
748.064	34.55
748.245	34.67
748.426	34.7
748.607	35.23
748.788	35.8
748.97	36.08
749.151	35.66
749.332	35.33
749.513	35.25
749.694	34.85
749.875	35.3
750.056	35.97
750.237	36.24
750.418	36.08
750.599	35.31
750.78	35.18
750.96	35.27
751.141	35.56
751.322	36.48
751.503	36.11
751.684	36.06
751.865	36.11
752.046	35.76
752.226	35.06
752.407	35.2
752.588	35.13
752.769	34.74
752.949	34.47
753.13	34.21
753.311	33.28
753.492	33.97
753.672	34.64
753.853	34.53
754.034	34.73
754.214	34.87
754.395	35.06
754.575	35.72
754.756	36.2
754.937	36.88
755.117	37.19
755.298	37.49
755.478	37.15
755.659	36.3
755.839	36.79
756.02	36.33
756.2	36.07
756.381	35.78
756.561	35.15
756.741	35.61
756.922	35.22
757.102	34.99
757.283	34.86
757.463	35.61
757.643	36.68
757.823	35.98
758.004	35.92
758.184	36.53
758.364	37.12
758.545	36.55
758.725	35.62
758.905	34.94
759.085	35.27
759.265	35.14
759.446	34.54
759.626	33.48
759.806	33.74
759.986	34.19
760.166	33.84
760.346	33.1
760.526	33.53
760.706	34.07
760.886	33.93
761.066	33.29
761.246	33.3
761.426	33.16
761.606	33.8
761.786	33.62
761.966	32.85
762.146	31.93
762.326	31.89
762.506	31.7
762.686	31.11
762.866	30.74
763.046	30.51
763.225	30.15
763.405	29.96
763.585	29.93
763.765	29.85
763.945	29.64
764.124	30.04
764.304	30.33
764.484	30.47
764.664	31.13
764.843	31.76
765.023	32.3
765.203	32.91
765.382	32.97
765.562	32.88
765.741	33.29
765.921	34.21
766.101	35.21
766.28	34.81
766.46	34.58
766.639	34.62
766.819	34.59
766.998	34.35
767.178	34.22
767.357	34.87
767.537	35.15
767.716	35.18
767.896	35.12
768.075	34.98
768.254	36.25
768.434	36.92
768.613	37.13
768.792	37.96
768.972	38.6
769.151	38.76
769.33	38.76
769.51	38.34
769.689	38.15
769.868	38.05
770.047	37.78
770.226	37.15
770.406	37.15
770.585	37.51
770.764	37.54
770.943	37.09
771.122	36.89
771.301	37.08
771.48	37.68
771.66	37.98
771.839	37.88
772.018	37.79
772.197	37.88
772.376	38.09
772.555	37.36
772.734	36.8
772.913	37.36
773.092	38.2
773.271	38.19
773.449	38.23
773.628	38.38
773.807	38.42
773.986	39.06
774.165	39.5
774.344	39.52
774.523	39.58
774.701	40.27
774.88	40.59
775.059	40.32
775.238	39.61
775.417	39.26
775.595	39.13
775.774	39.97
775.953	39.19
776.131	39.04
776.31	38.84
776.489	39.3
776.667	38.78
776.846	37.74
777.025	37.83
777.203	38.01
777.382	38.57
777.56	38.51
777.739	37.56
777.917	37.68
778.096	37.61
778.274	37.64
778.453	37.85
778.631	38.31
778.81	38.81
778.988	38.32
779.166	37.77
779.345	37.86
779.523	37.96
779.702	39.14
779.88	39.93
780.058	39.71
780.237	41.12
780.415	41
780.593	40.61
780.771	40.71
780.95	40.64
781.128	42.15
781.306	41.62
781.484	41.61
781.662	40.96
781.841	40.81
782.019	40.15
782.197	38.71
782.375	38.07
782.553	37.69
782.731	38.75
782.909	40.3
783.087	39.75
783.265	39.65
783.443	39.85
783.621	40.2
783.799	40.57
783.977	41.95
784.155	43.2
784.333	43.56
784.511	43.92
784.689	43.39
784.867	41.69
785.045	41.49
785.223	42.16
785.4	41.94
785.578	42.22
785.756	41.64
785.934	41.36
786.112	40.37
786.289	40.34
786.467	40.43
786.645	39.95
786.823	39.65
787	39.49
787.178	39.07
787.356	38.35
787.533	37.57
787.711	37.92
787.889	37.82
788.066	37.97
788.244	37.95
788.421	37.62
788.599	36.79
788.776	38.64
788.954	39.54
789.131	39.95
789.309	41.07
789.486	41.39
789.664	41.94
789.841	41.15
790.019	41.4
790.196	41.84
790.373	41.93
790.551	43.66
790.728	42.37
790.906	41.55
791.083	41.82
791.26	41.66
791.437	42.2
791.615	41.18
791.792	42.36
791.969	42.92
792.146	42.47
792.324	43.55
792.501	42.54
792.678	42.25
792.855	42.73
793.032	42.68
793.209	42.88
793.387	42.38
793.564	41.95
793.741	42.38
793.918	41.66
794.095	41.58
794.272	41.58
794.449	41.36
794.626	41.59
794.803	41.85
794.98	41.91
795.157	41.28
795.334	41.72
795.511	41.97
795.688	40.81
795.864	41.06
796.041	41.24
796.218	41.08
796.395	41.68
796.572	41.75
796.749	41.47
796.925	40.74
797.102	40.98
797.279	40.88
797.456	40.94
797.632	41.72
797.809	41.71
797.986	40.68
798.162	40.32
798.339	39.75
798.516	40.05
798.692	40.33
798.869	41.77
799.046	41.94
799.222	41.3
799.399	41.94
799.575	42.8
799.752	42.53
799.928	44.04
800.105	45
800.281	45.14
800.458	45.6
800.634	44.61
800.811	43.08
800.987	43.68
801.163	43.84
801.34	43.87
801.516	42.45
801.692	41.87
801.869	41.97
802.045	41.93
802.221	42.07
802.398	41.66
802.574	42.04
802.75	42.73
802.926	42.4
803.103	43
803.279	44.04
803.455	43.88
803.631	45.45
803.807	46
803.983	45.17
804.16	45.29
804.336	44.96
804.512	45.58
804.688	46.98
804.864	46.38
805.04	47.56
805.216	46.32
805.392	47.23
805.568	48.17
805.744	47.22
805.92	47.07
806.096	47.19
806.272	47.4
806.448	47.14
806.623	45.76
806.799	45.96
806.975	44.83
807.151	44.55
807.327	45.27
807.503	43.72
807.678	44.36
807.854	44.5
808.03	46.04
808.206	46.14
808.381	46.46
808.557	47.24
808.733	47.88
808.908	48.49
809.084	48.73
809.26	47.13
809.435	48.23
809.611	47.35
809.787	45.57
809.962	45.27
810.138	45.74
810.313	46.16
810.489	45.59
810.664	45.34
810.84	44.46
811.015	44.05
811.191	45.43
811.366	44.54
811.542	44.53
811.717	45.96
811.892	45.04
812.068	45.97
812.243	45.69
812.419	46.4
812.594	46.32
812.769	47.57
812.944	47.59
813.12	47.59
813.295	47.76
813.47	49.35
813.645	48.68
813.821	49.51
813.996	47.18
814.171	47.01
814.346	47.07
814.521	47.59
814.697	46.34
814.872	46.6
815.047	47.12
815.222	46.65
815.397	44.99
815.572	46.67
815.747	45.48
815.922	44.91
816.097	45.44
816.272	43.78
816.447	43.83
816.622	44
816.797	44.42
816.972	42.44
817.147	44.2
817.322	43.29
817.496	41.71
817.671	42.33
817.846	44.1
818.021	42.11
818.196	42.59
818.371	42.29
818.545	41.95
818.72	42.94
818.895	44.11
819.069	41.81
819.244	42.52
819.419	41.4
819.594	39.75
819.768	38.71
819.943	38.5
820.117	37.15
820.292	35.51
820.467	34.59
820.641	33.25
820.816	31.72
820.99	31.38
821.165	30.16
821.339	29.59
821.514	29.29
821.688	28.63
821.863	28.07
822.037	27.53
822.212	27.1
822.386	26.8
822.56	26.3
822.735	26.18
822.909	25.99
823.084	26.08
823.258	26.22
823.432	26.15
823.606	26.15
823.781	26.37
823.955	26.66
824.129	26.99
824.303	27.15
824.478	27.4
824.652	27.99
824.826	28.45
825	28.65
825.174	29.47
825.348	29.96
825.523	30.55
825.697	31.02
825.871	31.56
826.045	31.78
826.219	32.22
826.393	32.56
826.567	32.12
826.741	32.07
826.915	32.08
827.089	31.38
827.263	30.83
827.437	30.82
827.611	30.77
827.784	30.41
827.958	30.47
828.132	30.36
828.306	30.76
828.48	30.75
828.654	31.43
828.827	32.04
829.001	32.53
829.175	33.96
829.349	34.88
829.522	35.57
829.696	36.41
829.87	36.91
830.044	38.23
830.217	38.97
830.391	40.69
830.565	39.56
830.738	39.56
830.912	41.22
831.085	40.8
831.259	41.7
831.432	41.33
831.606	42.3
831.779	41.67
831.953	42.02
832.126	39.9
832.3	38.61
832.473	37.96
832.647	37.82
832.82	36.4
832.994	35.62
833.167	35.27
833.34	34.41
833.514	33.88
833.687	34.32
833.86	32.6
834.034	33.08
834.207	33.15
834.38	33.27
834.553	33.2
834.727	33.25
834.9	33.76
835.073	33.35
835.246	34.41
835.419	35.41
835.593	36.01
835.766	37.31
835.939	38.08
836.112	39.09
836.285	40.84
836.458	42.37
836.631	43.96
836.804	46.16
836.977	46.97
837.15	47.28
837.323	47.62
837.496	48.78
837.669	48.88
837.842	47.99
838.015	46.87
838.188	47.6
838.361	47.74
838.533	47.65
838.706	46.23
838.879	46.3
839.052	47.72
839.225	47.26
839.398	46.26
839.57	46.65
839.743	48.85
839.916	50.88
840.088	49.25
840.261	47.83
840.434	47.5
840.607	48.47
840.779	48.24
840.952	47.2
841.124	48.16
841.297	49.85
841.47	51.01
841.642	49.95
841.815	50.3
841.987	52.14
842.16	54.36
842.332	57.16
842.505	57.3
842.677	58.39
842.85	59.05
843.022	57.26
843.194	57.5
843.367	59.78
843.539	61.84
843.712	62.48
843.884	61.25
844.056	60.3
844.229	57.37
844.401	57.42
844.573	61.58
844.745	64.6
844.918	68.37
845.09	66.05
845.262	65.86
845.434	69.74
845.606	71.41
845.779	75.22
845.951	76.14
846.123	76.34
846.295	76.61
846.467	73.46
846.639	73.62
846.811	71.3
846.983	73.36
847.155	70.97
847.327	69.61
847.499	67.28
847.671	67.03
847.843	65.79
848.015	68.41
848.187	67.78
848.359	68.03
848.531	66.28
848.703	66.81
848.875	68.11
849.047	69.25
849.218	65.73
849.39	67.96
849.562	65.78
849.734	67.15
849.905	66.43
850.077	66.36
850.249	68.25
850.421	70.66
850.592	72.35
850.764	74.28
850.936	75.29
851.107	77.64
851.279	76.8
851.451	77.16
851.622	80.35
851.794	86.31
851.965	87.3
852.137	86.12
852.308	82.72
852.48	82.78
852.651	78.34
852.823	77.41
852.994	78.76
853.166	82.83
853.337	82.07
853.509	77.82
853.68	73.91
853.851	71.14
854.023	72.82
854.194	76.16
854.365	72.79
854.537	75.07
854.708	72.31
854.879	72.35
855.05	71.1
855.222	73.42
855.393	75.76
855.564	74.76
855.735	81.2
855.906	82.48
856.078	80.69
856.249	82.43
856.42	79.94
856.591	84.49
856.762	84.67
856.933	81.21
857.104	82.51
857.275	80.71
857.446	78.93
857.617	76.11
857.788	77.71
857.959	76.81
858.13	82.31
858.301	83.02
858.472	81.73
858.643	79.03
858.814	81.78
858.985	78.7
859.155	83.45
859.326	88.24
859.497	90.42
859.668	85.3
859.839	89.43
860.009	84.75
860.18	83.6
860.351	85.33
860.522	88.69
860.692	87.32
860.863	88.59
861.034	87.68
861.204	88.03
861.375	85.17
861.546	87.08
861.716	84.71
861.887	86.44
862.057	87.51
862.228	85.68
862.398	84.21
862.569	83.74
862.739	86.66
862.91	87.58
863.08	84.16
863.251	84.74
863.421	84.97
863.592	81.57
863.762	80.89
863.932	79.94
864.103	82.93
864.273	86.11
864.443	83
864.614	79.43
864.784	76.4
864.954	76.7
865.125	74.78
865.295	73.84
865.465	77.69
865.635	77.76
865.805	80.31
865.976	77.19
866.146	73.01
866.316	77.86
866.486	79.01
866.656	80.04
866.826	78.8
866.996	84.84
867.166	86.52
867.336	86.65
867.506	86.01
867.676	87.17
867.846	94.83
868.016	99.68
868.186	91.66
868.356	88.76
868.526	87.7
868.696	97.21
868.866	91
869.036	90.01
869.206	87.37
869.376	82.87
869.545	84.18
869.715	80.89
869.885	77.54
870.055	81.74
870.224	79.09
870.394	82.73
870.564	78.36
870.734	83.06
870.903	82.62
871.073	89.53
871.243	92.28
871.412	92.57
871.582	90.99
871.751	90.36
871.921	90.02
872.091	89.84
872.26	82.99
872.43	81.34
872.599	76.24
872.769	75.38
872.938	72.37
873.108	71.99
873.277	67.93
873.446	63.86
873.616	66.56
873.785	67.63
873.955	71.17
874.124	76.73
874.293	76.25
874.463	76.69
874.632	80.07
874.801	79.57
874.971	81.56
875.14	83.61
875.309	83.35
875.478	86.19
875.647	86.45
875.817	88.07
875.986	82.69
876.155	84.85
876.324	80.59
876.493	77.31
876.662	74.05
876.831	75.2
877	73.09
877.17	75.97
877.339	75.61
877.508	72.16
877.677	72.24
877.846	74.88
878.015	73.58
878.184	80.2
878.352	82.96
878.521	84.85
878.69	82.79
878.859	81.22
879.028	80.21
879.197	74.55
879.366	73.38
879.534	66.98
879.703	63.33
879.872	58.14
880.041	53.74
880.21	47.97
880.378	44.81
880.547	42.04
880.716	41.3
880.884	38.73
881.053	37.47
881.222	36.06
881.39	35.04
881.559	34.02
881.727	32.31
881.896	32.3
882.065	32.82
882.233	31.96
882.402	31.66
882.57	31.38
882.739	31.95
882.907	31.78
883.076	31.82
883.244	32.2
883.412	32.52
883.581	33.27
883.749	32.65
883.918	31.83
884.086	32.68
884.254	33.74
884.423	34.05
884.591	33.8
884.759	34.85
884.927	36.2
885.096	36.19
885.264	36.05
885.432	38.18
885.6	40.63
885.769	43.31
885.937	45.61
886.105	46.25
886.273	47.99
886.441	51.85
886.609	54.56
886.777	55.23
886.945	58.54
887.113	61.61
887.281	61.28
887.449	61.96
887.617	65.77
887.785	69.15
887.953	69.56
888.121	68.71
888.289	68.19
888.457	68.61
888.625	72.43
888.793	74.42
888.961	77.09
889.129	84.51
889.296	84.57
889.464	81.9
889.632	80.39
889.8	83.03
889.967	89.87
890.135	94.19
