Data from 2938797__Reflection_03.txt Node
Date: Thu Mar 12 23:13:17 EDT 2015
User: robert
Spectrometer: USB4E03002
Autoset integration time: false
Trigger mode: 4
Integration Time (sec): 1.000000E-1
Scans to average: 10
Electric dark correction enabled: false
Nonlinearity correction enabled: false
Boxcar width: 5
Stray light correction enabled: false
XAxis mode: Wavelengths
Stop averaging: false
Number of Pixels in Spectrum: 3648
>>>>>Begin Spectral Data<<<<<
177.575	-37.74
177.794	-13.6
178.014	32.11
178.233	38.71
178.452	5.52
178.672	-9.36
178.891	-20.18
179.11	83.33
179.33	36.15
179.549	167.14
179.768	35.05
179.987	269.23
180.207	-53.76
180.426	-100.6
180.645	-4.35
180.864	33.61
181.084	47.03
181.303	54.43
181.522	21.77
181.741	53.54
181.96	26.14
182.179	43.34
182.398	52.56
182.618	68.22
182.837	91.96
183.056	47.37
183.275	39.22
183.494	53.88
183.713	69.87
183.932	88.14
184.151	58.3
184.37	180
184.589	-1088.24
184.808	-39.6
185.027	45.76
185.246	118.71
185.465	-113.64
185.684	41.82
185.903	282.61
186.122	-204.29
186.341	25
186.56	59.72
186.779	-11.76
186.998	-13.11
187.216	35.75
187.435	92.29
187.654	105.49
187.873	131.39
188.092	116.14
188.311	144.34
188.53	258.7
188.748	776
188.967	181.19
189.186	4030.77
189.405	-341.59
189.623	4812.5
189.842	1585.71
190.061	-336.13
190.28	-561.46
190.498	-417.65
190.717	-144.64
190.936	-743.75
191.154	314.81
191.373	310.58
191.592	-2157.14
191.81	-548.15
192.029	1641.67
192.248	628
192.466	239.51
192.685	72.97
192.904	293.59
193.122	234.48
193.341	256
193.559	127.86
193.778	150.92
193.996	131.37
194.215	73.22
194.433	46.95
194.652	38.49
194.87	30.74
195.089	7.18
195.307	-14.45
195.526	-9.09
195.744	-50.6
195.963	-3416.67
196.181	143.9
196.399	171.19
196.618	774.07
196.836	127.67
197.055	107.62
197.273	163.24
197.491	121.75
197.71	148.3
197.928	151.77
198.146	86.47
198.365	144.77
198.583	288.57
198.801	336.89
199.019	233.79
199.238	352.59
199.456	-1641.18
199.674	-122
199.892	-220.72
200.111	-462.96
200.329	7733.33
200.547	-135.33
200.765	-325.64
200.983	1905.26
201.202	-1393.33
201.42	237.64
201.638	185.13
201.856	305.7
202.074	136.31
202.292	147.22
202.51	82.22
202.728	166.42
202.946	119.61
203.165	93.73
203.383	75.2
203.601	98.61
203.819	-11.17
204.037	-103.61
204.255	-25.57
204.473	38.71
204.691	22.61
204.909	10.21
205.127	-34.02
205.345	-114.66
205.562	-579.17
205.78	0
205.998	-58.77
206.216	4.26
206.434	27.08
206.652	-11.15
206.87	6.38
207.088	50.25
207.306	89.77
207.523	127.78
207.741	99.63
207.959	93.13
208.177	105.75
208.395	105.92
208.612	127.95
208.83	124.4
209.048	132.9
209.266	127.17
209.483	123.6
209.701	98.75
209.919	61.53
210.136	63.12
210.354	51.42
210.572	54.61
210.79	6.43
211.007	-61.07
211.225	-170.7
211.442	-104.09
211.66	-68.79
211.878	-130.81
212.095	161.6
212.313	174.69
212.53	301.41
212.748	267.88
212.966	-260.92
213.183	-69.11
213.401	13.04
213.618	57.23
213.836	141.67
214.053	46.88
214.271	81.59
214.488	14.15
214.705	14.86
214.923	17.32
215.14	7.14
215.358	-2.53
215.575	-12.16
215.793	-5.01
216.01	-17.78
216.227	-5.03
216.445	13.69
216.662	11.4
216.879	27.34
217.097	33.83
217.314	53.49
217.531	50.14
217.749	42.23
217.966	59.23
218.183	52.45
218.4	37.59
218.618	26.01
218.835	19.32
219.052	25.42
219.269	24.74
219.487	8.06
219.704	8.72
219.921	19.04
220.138	7.25
220.355	-10.65
220.572	-19.02
220.79	-18.64
221.007	-24.6
221.224	-15.96
221.441	-11.14
221.658	-12.23
221.875	-4.17
222.092	-8.99
222.309	-9.83
222.526	0.41
222.743	9.76
222.96	9.38
223.177	15.59
223.394	14.11
223.611	15.48
223.828	3.57
224.045	6.65
224.262	6.14
224.479	5.33
224.696	7.16
224.913	4.98
225.13	-0.65
225.347	-0.55
225.564	-3.09
225.781	-0.54
225.997	0.5
226.214	9.05
226.431	7.31
226.648	8.04
226.865	11.02
227.082	6.71
227.298	7.83
227.515	8.63
227.732	8.42
227.949	8.29
228.165	8.87
228.382	7.89
228.599	6.15
228.816	6.1
229.032	5.95
229.249	5.42
229.466	6.2
229.682	6.51
229.899	6.33
230.116	6.96
230.332	6.92
230.549	7.01
230.765	7.04
230.982	8.26
231.199	8.06
231.415	7.55
231.632	7.1
231.848	6.56
232.065	5.13
232.281	4.85
232.498	3.72
232.714	3.21
232.931	2.73
233.147	3.81
233.364	2.85
233.58	3.17
233.797	5.18
234.013	4.8
234.23	6.17
234.446	5.21
234.662	5.71
234.879	5.28
235.095	6.82
235.312	6.63
235.528	4.98
235.744	5.28
235.961	5.8
236.177	2.65
236.393	3.25
236.61	1.92
236.826	3.46
237.042	3.83
237.258	6.07
237.475	5.81
237.691	5.24
237.907	5.72
238.123	5.33
238.339	6.28
238.556	8.09
238.772	8.05
238.988	8.83
239.204	7.75
239.42	9.19
239.636	7.77
239.853	7.6
240.069	8.31
240.285	8.81
240.501	9.14
240.717	8.17
240.933	8.17
241.149	8.04
241.365	7.86
241.581	7.7
241.797	6.72
242.013	7.35
242.229	6.59
242.445	6.54
242.661	6.76
242.877	6.81
243.093	6.61
243.309	6.44
243.525	6.1
243.741	5.63
243.957	5.7
244.173	6.07
244.388	5.5
244.604	6.19
244.82	5.4
245.036	5.05
245.252	5.06
245.468	6.07
245.683	5.93
245.899	6.38
246.115	6.54
246.331	6.47
246.547	6.47
246.762	6.4
246.978	6.47
247.194	6.57
247.409	6.79
247.625	6.64
247.841	6.27
248.057	6.51
248.272	6.27
248.488	6.3
248.703	6.28
248.919	6.25
249.135	6.3
249.35	6.13
249.566	6.29
249.782	5.89
249.997	5.92
250.213	6.03
250.428	5.47
250.644	4.93
250.859	5.31
251.075	5.81
251.29	6.06
251.506	5.67
251.721	5.87
251.937	5.67
252.152	5.76
252.368	5.66
252.583	5.53
252.798	5.56
253.014	6.29
253.229	6.23
253.445	5.76
253.66	4.77
253.875	4.23
254.091	3.73
254.306	4.54
254.521	3.76
254.737	4.01
254.952	3.72
255.167	3.18
255.383	2.86
255.598	1.62
255.813	1.79
256.028	2.8
256.244	3.51
256.459	4.57
256.674	2.56
256.889	2.93
257.104	2.91
257.32	3.19
257.535	4.26
257.75	4.96
257.965	5.47
258.18	6.06
258.395	5.8
258.61	6.18
258.826	5.51
259.041	5.69
259.256	5.68
259.471	5.43
259.686	5.54
259.901	5.25
260.116	5.17
260.331	5.32
260.546	5.01
260.761	4.94
260.976	4.83
261.191	5.01
261.406	5.36
261.621	5.45
261.836	5.83
262.05	5.41
262.265	5.71
262.48	5.45
262.695	5.12
262.91	5.23
263.125	5.26
263.34	4.56
263.555	4.19
263.769	3.82
263.984	3.83
264.199	3.37
264.414	3.66
264.629	3.69
264.843	3.53
265.058	3.68
265.273	3.86
265.488	3.84
265.702	3.99
265.917	3.75
266.132	3.76
266.346	3.43
266.561	3.39
266.776	3.56
266.99	3.25
267.205	3.26
267.42	3.57
267.634	3.56
267.849	3.97
268.063	3.85
268.278	3.97
268.492	4.07
268.707	4.23
268.922	4.45
269.136	4.45
269.351	4.56
269.565	4.23
269.78	3.84
269.994	3.99
270.209	3.5
270.423	3.59
270.637	3.95
270.852	3.85
271.066	3.83
271.281	4
271.495	4.33
271.709	4.17
271.924	4.62
272.138	4.94
272.353	4.88
272.567	5.23
272.781	5.18
272.996	5.23
273.21	5.37
273.424	5.42
273.638	5.44
273.853	5.27
274.067	5.62
274.281	5.22
274.495	4.96
274.71	5.06
274.924	5.07
275.138	5.05
275.352	4.57
275.566	4.66
275.781	4.9
275.995	4.48
276.209	4.17
276.423	4.02
276.637	4.47
276.851	3.97
277.065	3.74
277.279	3.14
277.493	3.99
277.707	4.04
277.921	3.88
278.135	3.59
278.349	3.53
278.563	3.79
278.777	3.64
278.991	3.51
279.205	3.79
279.419	3.91
279.633	4.37
279.847	3.8
280.061	4.04
280.275	3.78
280.489	3.63
280.703	3.76
280.917	3.49
281.131	3.31
281.344	3.08
281.558	3.52
281.772	3.42
281.986	3.53
282.2	3.53
282.414	3.48
282.627	3.47
282.841	3.97
283.055	3.85
283.269	3.96
283.482	3.78
283.696	4.36
283.91	4.02
284.123	3.93
284.337	3.73
284.551	3.72
284.764	3.84
284.978	4.02
285.192	3.8
285.405	4.25
285.619	4.32
285.833	4.77
286.046	4.65
286.26	4.73
286.473	4.95
286.687	4.86
286.9	4.7
287.114	4.47
287.327	4.43
287.541	4.54
287.754	4.25
287.968	3.98
288.181	3.92
288.395	3.97
288.608	4.3
288.822	3.91
289.035	4.02
289.248	4.41
289.462	4.56
289.675	4.7
289.889	4.67
290.102	4.87
290.315	5.05
290.529	5.15
290.742	5.03
290.955	5.01
291.169	5
291.382	4.95
291.595	5.13
291.808	5.55
292.022	5.1
292.235	4.96
292.448	4.96
292.661	4.86
292.875	4.79
293.088	4.78
293.301	4.6
293.514	4.81
293.727	4.8
293.94	4.76
294.153	4.43
294.367	4.68
294.58	4.9
294.793	5
295.006	5.2
295.219	5.54
295.432	5.89
295.645	5.82
295.858	5.75
296.071	5.82
296.284	5.48
296.497	5.69
296.71	5.54
296.923	5.58
297.136	5.21
297.349	5.02
297.562	4.7
297.775	4.61
297.988	4.62
298.201	4.82
298.414	4.88
298.626	5.29
298.839	4.98
299.052	5.07
299.265	5.04
299.478	5.6
299.691	6.13
299.903	5.92
300.116	5.65
300.329	5.45
300.542	5.13
300.755	4.97
300.967	4.92
301.18	5.21
301.393	5.47
301.605	5.58
301.818	5.1
302.031	5.43
302.243	5.95
302.456	6.11
302.669	6.38
302.881	7.03
303.094	7.14
303.307	6.95
303.519	7.07
303.732	7.15
303.944	7.07
304.157	7.36
304.37	7.06
304.582	7.41
304.795	7.55
305.007	7.3
305.22	6.94
305.432	6.92
305.645	7.22
305.857	6.72
306.069	6.61
306.282	6.27
306.494	6.08
306.707	6.16
306.919	5.6
307.132	5.21
307.344	5.81
307.556	5.74
307.769	5.88
307.981	5.65
308.193	5.87
308.406	6.19
308.618	6.4
308.83	6.75
309.043	6.45
309.255	6.49
309.467	6.79
309.679	6.56
309.892	6.91
310.104	7.1
310.316	7.15
310.528	7.1
310.74	6.62
310.953	6.53
311.165	6.19
311.377	6.23
311.589	6.46
311.801	6.35
312.013	6.65
312.225	6.53
312.437	6.38
312.649	6.25
312.862	6.59
313.074	7.03
313.286	7.23
313.498	7.64
313.71	7.8
313.922	7.41
314.134	7.38
314.346	7.26
314.558	7.56
314.77	7.99
314.982	7.79
315.193	7.64
315.405	7.66
315.617	7.43
315.829	7.06
316.041	7.29
316.253	7.58
316.465	7.76
316.677	7.87
316.888	7.52
317.1	7.26
317.312	7.52
317.524	7.26
317.736	7.09
317.947	7.41
318.159	7.5
318.371	7.33
318.583	7.42
318.794	7.9
319.006	7.6
319.218	7.29
319.43	7.34
319.641	7.38
319.853	7.57
320.064	7.52
320.276	7.51
320.488	7.66
320.699	7.55
320.911	7.29
321.123	6.92
321.334	6.94
321.546	7.24
321.757	6.83
321.969	6.8
322.18	7.39
322.392	7.81
322.603	8.12
322.815	8.01
323.026	8.49
323.238	8.5
323.449	8.38
323.661	8.6
323.872	8.76
324.083	9.03
324.295	9.53
324.506	9.01
324.718	8.77
324.929	8.7
325.14	8.94
325.352	8.75
325.563	9.26
325.774	9.51
325.986	9.37
326.197	9.37
326.408	9.47
326.62	9.41
326.831	9.89
327.042	10.3
327.253	10.39
327.464	10.65
327.676	11.02
327.887	10.8
328.098	10.66
328.309	10.86
328.52	11.06
328.732	11.3
328.943	11.57
329.154	10.91
329.365	10.7
329.576	10.5
329.787	10.48
329.998	10.17
330.209	10.09
330.42	10.49
330.631	10.47
330.842	10.96
331.053	10.66
331.264	10.48
331.475	11.21
331.686	11.66
331.897	11.74
332.108	11.49
332.319	11.7
332.53	11.76
332.741	11.61
332.952	11.59
333.163	10.78
333.374	10.82
333.585	10.66
333.795	10.45
334.006	10.3
334.217	10.31
334.428	10.35
334.639	10.27
334.849	9.97
335.06	10
335.271	10.15
335.482	10.29
335.692	10.6
335.903	10.78
336.114	10.76
336.325	10.66
336.535	10.52
336.746	10.55
336.957	10.56
337.167	11.05
337.378	11.07
337.589	11.09
337.799	11.1
338.01	10.94
338.22	10.72
338.431	10.68
338.642	10.48
338.852	10.56
339.063	10.75
339.273	10.4
339.484	10.56
339.694	10.33
339.905	10.22
340.115	10.42
340.326	10.36
340.536	10.48
340.746	10.79
340.957	10.72
341.167	10.77
341.378	10.61
341.588	10.61
341.799	10.51
342.009	10.58
342.219	10.55
342.43	10.13
342.64	9.83
342.85	9.79
343.061	9.78
343.271	10
343.481	9.88
343.691	9.7
343.902	9.76
344.112	9.33
344.322	9.25
344.532	9.07
344.743	9.31
344.953	9.68
345.163	9.85
345.373	9.76
345.583	9.81
345.793	10.01
346.004	10.11
346.214	10.22
346.424	10.39
346.634	10.54
346.844	10.58
347.054	10.63
347.264	10.69
347.474	10.48
347.684	10.28
347.894	10.51
348.104	10.49
348.314	10.35
348.524	10.29
348.734	10.31
348.944	10.36
349.154	10.38
349.364	10.21
349.574	10.03
349.784	9.94
349.994	9.55
350.204	9.39
350.413	9.2
350.623	9.14
350.833	9.31
351.043	9.3
351.253	9.15
351.463	9.17
351.672	9.29
351.882	9.17
352.092	9.24
352.302	9.46
352.511	9.18
352.721	9.25
352.931	9.19
353.141	9.19
353.35	9.21
353.56	9.4
353.77	9.23
353.979	9.01
354.189	9.11
354.399	9.4
354.608	9.8
354.818	10.17
355.027	10.32
355.237	10.37
355.447	10.09
355.656	10.12
355.866	9.74
356.075	9.93
356.285	10.06
356.494	10.1
356.704	9.79
356.913	9.65
357.123	9.4
357.332	9.27
357.542	9.19
357.751	9.26
357.96	9.32
358.17	9.4
358.379	9.32
358.589	9.26
358.798	9.2
359.007	9.28
359.217	9.42
359.426	9.41
359.635	9.49
359.845	9.6
360.054	9.7
360.263	9.65
360.472	9.71
360.682	9.86
360.891	9.86
361.1	9.79
361.309	9.78
361.519	9.61
361.728	9.63
361.937	9.73
362.146	9.9
362.355	9.79
362.564	9.68
362.774	9.65
362.983	9.55
363.192	9.69
363.401	9.8
363.61	9.79
363.819	9.77
364.028	9.54
364.237	9.46
364.446	9.26
364.655	9.07
364.864	9.06
365.073	9.19
365.282	9.17
365.491	9.19
365.7	9.11
365.909	9.11
366.118	9.27
366.327	9.38
366.536	9.13
366.745	9.15
366.954	9.38
367.162	9.29
367.371	9.02
367.58	8.88
367.789	8.79
367.998	8.93
368.207	8.84
368.415	8.78
368.624	8.99
368.833	9.29
369.042	9.36
369.25	9.21
369.459	9.51
369.668	9.76
369.877	10.02
370.085	9.98
370.294	9.74
370.503	9.74
370.711	9.89
370.92	9.82
371.129	9.63
371.337	9.71
371.546	9.63
371.754	9.51
371.963	9.25
372.171	9.11
372.38	9.18
372.589	9.2
372.797	8.97
373.006	8.56
373.214	8.42
373.423	8.28
373.631	8
373.84	8.24
374.048	8.19
374.256	8.3
374.465	8.41
374.673	8.15
374.882	8.12
375.09	8.31
375.298	8.28
375.507	8.04
375.715	8.13
375.923	8.09
376.132	8.11
376.34	8.05
376.548	7.88
376.757	7.68
376.965	7.66
377.173	7.51
377.381	7.54
377.59	7.55
377.798	7.6
378.006	7.51
378.214	7.54
378.423	7.3
378.631	7.19
378.839	7.18
379.047	7.32
379.255	7.22
379.463	7.23
379.671	6.93
379.879	6.81
380.088	6.82
380.296	6.72
380.504	6.59
380.712	6.73
380.92	6.69
381.128	6.85
381.336	6.61
381.544	6.55
381.752	6.71
381.96	6.92
382.168	6.99
382.376	7.19
382.584	7.21
382.791	7.21
382.999	6.93
383.207	6.86
383.415	6.77
383.623	6.77
383.831	6.82
384.039	6.67
384.247	6.46
384.454	6.46
384.662	6.17
384.87	6.02
385.078	5.8
385.285	5.91
385.493	6.14
385.701	6.02
385.909	6.2
386.116	6
386.324	5.83
386.532	5.84
386.739	5.82
386.947	5.87
387.155	5.89
387.362	6.17
387.57	6.14
387.778	5.93
387.985	5.88
388.193	5.57
388.4	5.49
388.608	5.51
388.816	5.55
389.023	5.52
389.231	5.39
389.438	5.39
389.646	5.29
389.853	5.15
390.061	4.87
390.268	4.85
390.475	5.01
390.683	5.26
390.89	5.36
391.098	5.28
391.305	5.18
391.512	5.12
391.72	5.15
391.927	5.1
392.135	5.1
392.342	5.21
392.549	5.05
392.756	4.89
392.964	4.78
393.171	4.8
393.378	4.71
393.586	4.75
393.793	4.82
394	4.76
394.207	4.82
394.414	4.99
394.622	4.97
394.829	5.16
395.036	5.14
395.243	5.09
395.45	4.96
395.657	5.13
395.864	5.02
396.072	5
396.279	4.94
396.486	4.79
396.693	4.55
396.9	4.68
397.107	4.51
397.314	4.58
397.521	4.69
397.728	4.54
397.935	4.26
398.142	4.31
398.349	4.37
398.556	4.31
398.763	4.31
398.97	4.36
399.177	4.34
399.383	4.36
399.59	4.22
399.797	4.03
400.004	4.04
400.211	4
400.418	3.87
400.625	3.68
400.831	3.86
401.038	3.71
401.245	3.72
401.452	3.62
401.658	3.64
401.865	3.79
402.072	3.98
402.279	3.94
402.485	4.12
402.692	4.07
402.899	4
403.105	3.94
403.312	3.88
403.519	3.9
403.725	3.85
403.932	3.76
404.138	3.73
404.345	3.68
404.552	3.66
404.758	3.68
404.965	3.8
405.171	3.93
405.378	3.79
405.584	3.81
405.791	3.84
405.997	3.83
406.204	3.89
406.41	3.57
406.617	3.4
406.823	3.49
407.029	3.54
407.236	3.3
407.442	3.11
407.649	3.07
407.855	3.13
408.061	3.03
408.268	3.01
408.474	2.93
408.68	3.29
408.887	3.34
409.093	3.33
409.299	3.25
409.505	3.38
409.712	3.56
409.918	3.56
410.124	3.64
410.33	3.67
410.537	3.68
410.743	3.52
410.949	3.46
411.155	3.62
411.361	3.51
411.567	3.4
411.773	3.52
411.98	3.46
412.186	3.46
412.392	3.4
412.598	3.24
412.804	3.29
413.01	3.46
413.216	3.41
413.422	3.23
413.628	3.11
413.834	3.24
414.04	3.21
414.246	3.15
414.452	3.08
414.658	3.03
414.864	3.04
415.07	2.96
415.275	3.06
415.481	3.06
415.687	3.03
415.893	3.22
416.099	3.13
416.305	3.09
416.511	3.21
416.716	3.29
416.922	3.26
417.128	3.27
417.334	3.28
417.539	3.22
417.745	3.24
417.951	3.23
418.157	3.28
418.362	3.12
418.568	3.06
418.774	2.96
418.979	2.89
419.185	2.89
419.391	2.84
419.596	2.86
419.802	2.85
420.008	2.84
420.213	3.48
420.419	3.41
420.624	3.44
420.83	3.41
421.035	3.47
421.241	3.55
421.446	3.53
421.652	3.62
421.857	3.54
422.063	3.55
422.268	3.46
422.474	2.78
422.679	2.76
422.885	2.85
423.09	2.87
423.295	2.74
423.501	2.71
423.706	2.72
423.911	2.61
424.117	2.62
424.322	2.66
424.527	2.69
424.733	2.83
424.938	2.77
425.143	2.78
425.349	2.78
425.554	2.86
425.759	2.86
425.964	2.87
426.169	2.95
426.375	3.02
426.58	2.83
426.785	2.7
426.99	2.64
427.195	2.64
427.4	2.55
427.605	2.63
427.811	2.61
428.016	2.5
428.221	2.46
428.426	2.32
428.631	2.25
428.836	2.49
429.041	2.6
429.246	2.6
429.451	2.83
429.656	2.86
429.861	2.8
430.066	2.87
430.271	3.02
430.476	3.05
430.681	3.08
430.886	3.12
431.09	3
431.295	2.98
431.5	3.06
431.705	2.83
431.91	2.94
432.115	2.83
432.32	2.7
432.524	2.62
432.729	2.63
432.934	2.61
433.139	2.6
433.343	2.65
433.548	2.67
433.753	2.46
433.958	2.55
434.162	2.45
434.367	2.39
434.572	2.48
434.776	2.5
434.981	2.55
435.186	2.62
435.39	2.55
435.595	2.62
435.799	2.73
436.004	2.92
436.209	2.89
436.413	2.83
436.618	3.03
436.822	3.02
437.027	3.04
437.231	2.9
437.436	2.97
437.64	3.04
437.845	2.96
438.049	2.85
438.253	2.83
438.458	2.68
438.662	2.76
438.867	2.72
439.071	2.62
439.275	2.58
439.48	2.67
439.684	2.53
439.888	2.55
440.093	2.38
440.297	2.39
440.501	2.28
440.706	2.37
440.91	2.26
441.114	2.17
441.318	2.18
441.523	2.15
441.727	2.15
441.931	2.29
442.135	2.19
442.339	2.33
442.543	2.4
442.748	2.51
442.952	2.59
443.156	2.58
443.36	2.61
443.564	2.66
443.768	2.67
443.972	2.53
444.176	2.4
444.38	2.42
444.584	2.41
444.788	2.31
444.992	2.27
445.196	2.16
445.4	2.28
445.604	2.31
445.808	2.33
446.012	2.3
446.216	2.27
446.42	2.32
446.624	2.37
446.828	2.36
447.032	2.35
447.235	2.35
447.439	2.42
447.643	2.36
447.847	2.29
448.051	2.29
448.254	2.23
448.458	2.27
448.662	2.27
448.866	2.18
449.069	2.11
449.273	2.07
449.477	2.1
449.681	1.97
449.884	2
450.088	2.05
450.292	2.02
450.495	2.16
450.699	2.2
450.902	2.23
451.106	2.22
451.31	2.28
451.513	2.24
451.717	2.23
451.92	2.38
452.124	2.35
452.327	2.48
452.531	2.35
452.734	2.37
452.938	2.35
453.141	2.25
453.345	2.26
453.548	2.29
453.752	2.47
453.955	2.42
454.158	2.38
454.362	2.4
454.565	2.29
454.769	2.33
454.972	2.22
455.175	2.33
455.379	2.29
455.582	2.32
455.785	2.32
455.988	2.19
456.192	2.22
456.395	2.21
456.598	2.14
456.801	2.22
457.005	2.28
457.208	2.37
457.411	2.24
457.614	2.3
457.817	2.28
458.021	2.3
458.224	2.37
458.427	2.29
458.63	2.29
458.833	2.26
459.036	2.17
459.239	2.27
459.442	2.26
459.645	2.29
459.848	2.27
460.051	2.31
460.254	2.27
460.457	2.27
460.66	2.3
460.863	2.26
461.066	2.36
461.269	2.38
461.472	2.33
461.675	2.26
461.878	2.2
462.081	2.24
462.284	2.19
462.486	2.26
462.689	2.32
462.892	2.34
463.095	2.4
463.298	2.3
463.5	2.34
463.703	2.24
463.906	2.3
464.109	2.37
464.311	2.36
464.514	2.46
464.717	2.34
464.92	2.3
465.122	2.36
465.325	2.34
465.528	2.35
465.73	2.32
465.933	2.4
466.135	2.45
466.338	2.49
466.541	2.4
466.743	2.26
466.946	2.29
467.148	2.19
467.351	2.16
467.553	2.22
467.756	2.31
467.958	2.37
468.161	2.39
468.363	2.34
468.566	2.38
468.768	2.49
468.971	2.49
469.173	2.6
469.375	2.64
469.578	2.51
469.78	2.43
469.983	2.38
470.185	2.26
470.387	2.27
470.59	2.33
470.792	2.29
470.994	2.31
471.196	2.39
471.399	2.32
471.601	2.35
471.803	2.47
472.005	2.5
472.208	2.51
472.41	2.54
472.612	2.4
472.814	2.34
473.016	2.33
473.218	2.26
473.421	2.24
473.623	2.2
473.825	2.19
474.027	2.12
474.229	2.1
474.431	2
474.633	1.98
474.835	2.04
475.037	1.98
475.239	1.94
475.441	1.95
475.643	2.05
475.845	2.14
476.047	2.21
476.249	2.26
476.451	2.32
476.653	2.41
476.855	2.42
477.057	2.36
477.258	2.48
477.46	2.59
477.662	2.62
477.864	2.52
478.066	2.43
478.268	2.45
478.469	2.46
478.671	2.47
478.873	2.45
479.075	2.48
479.276	2.52
479.478	2.48
479.68	2.38
479.882	2.35
480.083	2.45
480.285	2.54
480.487	2.51
480.688	2.53
480.89	2.51
481.091	2.47
481.293	2.39
481.495	2.36
481.696	2.32
481.898	2.29
482.099	2.3
482.301	2.24
482.502	2.21
482.704	2.22
482.905	2.18
483.107	2.18
483.308	2.18
483.51	2.23
483.711	2.24
483.913	2.27
484.114	2.27
484.315	2.26
484.517	2.25
484.718	2.24
484.92	2.23
485.121	2.24
485.322	2.24
485.524	2.25
485.725	2.23
485.926	2.21
486.127	2.17
486.329	2.23
486.53	2.23
486.731	2.27
486.932	2.3
487.134	2.32
487.335	2.32
487.536	2.32
487.737	2.31
487.938	2.31
488.139	2.34
488.341	2.36
488.542	2.33
488.743	2.3
488.944	2.27
489.145	2.25
489.346	2.23
489.547	2.25
489.748	2.24
489.949	2.27
490.15	2.27
490.351	2.27
490.552	2.27
490.753	2.27
490.954	2.31
491.155	2.34
491.356	2.39
491.557	2.38
491.758	2.38
491.959	2.39
492.159	2.38
492.36	2.43
492.561	2.39
492.762	2.41
492.963	2.41
493.164	2.39
493.364	2.39
493.565	2.33
493.766	2.32
493.967	2.34
494.167	2.41
494.368	2.46
494.569	2.44
494.769	2.53
494.97	2.45
495.171	2.51
495.371	2.55
495.572	2.53
495.773	2.54
495.973	2.6
496.174	2.53
496.375	2.48
496.575	2.45
496.776	2.47
496.976	2.42
497.177	2.5
497.377	2.47
497.578	2.49
497.778	2.5
497.979	2.47
498.179	2.48
498.38	2.56
498.58	2.61
498.78	2.63
498.981	2.59
499.181	2.67
499.382	2.66
499.582	2.73
499.782	2.68
499.983	2.72
500.183	2.8
500.383	2.75
500.584	2.7
500.784	2.67
500.984	2.64
501.184	2.63
501.385	2.65
501.585	2.7
501.785	2.67
501.985	2.68
502.185	2.74
502.386	2.74
502.586	2.83
502.786	2.98
502.986	2.98
503.186	2.98
503.386	3.05
503.586	2.99
503.786	2.99
503.987	2.93
504.187	3.04
504.387	3.01
504.587	3.08
504.787	3.09
504.987	3.06
505.187	3.15
505.387	3.17
505.587	3.27
505.786	3.42
505.986	3.48
506.186	3.61
506.386	3.59
506.586	3.63
506.786	3.6
506.986	3.63
507.186	3.7
507.386	3.71
507.585	3.78
507.785	3.84
507.985	3.84
508.185	3.9
508.384	3.92
508.584	4.04
508.784	4.15
508.984	4.17
509.183	4.29
509.383	4.26
509.583	4.33
509.782	4.39
509.982	4.33
510.182	4.41
510.381	4.48
510.581	4.54
510.781	4.51
510.98	4.48
511.18	4.65
511.379	4.63
511.579	4.77
511.778	4.85
511.978	4.87
512.177	4.98
512.377	4.98
512.576	4.99
512.776	5.07
512.975	5.12
513.175	5.26
513.374	5.27
513.573	5.34
513.773	5.32
513.972	5.38
514.172	5.5
514.371	5.61
514.57	5.71
514.77	5.82
514.969	5.94
515.168	6.06
515.367	6.06
515.567	6.16
515.766	6.23
515.965	6.35
516.164	6.45
516.364	6.56
516.563	6.6
516.762	6.71
516.961	6.82
517.16	6.85
517.359	6.96
517.559	7.02
517.758	7.06
517.957	7.12
518.156	7.21
518.355	7.3
518.554	7.4
518.753	7.5
518.952	7.54
519.151	7.59
519.35	7.73
519.549	7.79
519.748	7.95
519.947	8.12
520.146	8.26
520.345	8.32
520.544	8.43
520.743	8.53
520.942	8.61
521.141	8.73
521.339	8.76
521.538	8.8
521.737	8.93
521.936	9.01
522.135	9.12
522.333	9.18
522.532	9.34
522.731	9.4
522.93	9.43
523.129	9.57
523.327	9.72
523.526	9.89
523.725	10.02
523.923	10.15
524.122	10.29
524.321	10.34
524.519	10.52
524.718	10.61
524.917	10.72
525.115	10.81
525.314	10.85
525.512	10.92
525.711	10.93
525.909	11.04
526.108	11.07
526.306	11.1
526.505	11.22
526.703	11.33
526.902	11.45
527.1	11.56
527.299	11.68
527.497	11.8
527.696	11.88
527.894	11.99
528.092	12.04
528.291	12.14
528.489	12.25
528.688	12.3
528.886	12.31
529.084	12.34
529.283	12.37
529.481	12.38
529.679	12.43
529.877	12.45
530.076	12.5
530.274	12.55
530.472	12.65
530.67	12.7
530.869	12.82
531.067	12.97
531.265	13.11
531.463	13.22
531.661	13.42
531.859	13.57
532.057	13.69
532.255	13.84
532.454	13.97
532.652	14
532.85	14.04
533.048	14.08
533.246	14.11
533.444	14.14
533.642	14.21
533.84	14.24
534.038	14.29
534.236	14.41
534.434	14.42
534.632	14.47
534.83	14.55
535.027	14.67
535.225	14.76
535.423	14.82
535.621	14.9
535.819	15.02
536.017	15.13
536.215	15.11
536.412	15.11
536.61	15.28
536.808	15.34
537.006	15.4
537.203	15.41
537.401	15.47
537.599	15.53
537.797	15.62
537.994	15.7
538.192	15.72
538.39	15.88
538.587	16.02
538.785	16.1
538.983	16.26
539.18	16.43
539.378	16.62
539.575	16.81
539.773	16.93
539.97	17.02
540.168	17.1
540.366	17.21
540.563	17.28
540.761	17.35
540.958	17.32
541.155	17.31
541.353	17.34
541.55	17.38
541.748	17.35
541.945	17.37
542.143	17.4
542.34	17.42
542.537	17.44
542.735	17.46
542.932	17.46
543.129	17.58
543.327	17.72
543.524	17.8
543.721	17.92
543.919	18.03
544.116	18.15
544.313	18.26
544.51	18.45
544.708	18.63
544.905	18.81
545.102	18.95
545.299	19.11
545.496	19.17
545.693	19.2
545.891	19.31
546.088	19.38
546.285	19.38
546.482	19.38
546.679	19.4
546.876	19.37
547.073	19.37
547.27	19.4
547.467	19.39
547.664	19.36
547.861	19.33
548.058	19.21
548.255	19.24
548.452	19.32
548.649	19.33
548.846	19.27
549.043	19.23
549.24	19.19
549.437	19.13
549.633	18.96
549.83	19.12
550.027	19.18
550.224	19.25
550.421	19.25
550.618	19.32
550.814	19.45
551.011	19.52
551.208	19.63
551.405	19.64
551.601	19.82
551.798	20.01
551.995	19.95
552.191	20.1
552.388	20.08
552.585	20.07
552.781	20.02
552.978	19.96
553.175	19.93
553.371	19.93
553.568	20
553.764	20.02
553.961	20
554.157	19.99
554.354	19.91
554.55	19.96
554.747	20.09
554.943	20.21
555.14	20.33
555.336	20.44
555.533	20.43
555.729	20.54
555.926	20.49
556.122	20.48
556.318	20.51
556.515	20.63
556.711	20.74
556.907	20.84
557.104	20.87
557.3	20.88
557.496	20.75
557.693	20.9
557.889	20.8
558.085	20.82
558.281	20.96
558.478	20.99
558.674	20.97
558.87	20.93
559.066	20.85
559.262	20.94
559.459	20.98
559.655	21.13
559.851	21.18
560.047	21.31
560.243	21.35
560.439	21.34
560.635	21.52
560.831	21.56
561.027	21.56
561.223	21.53
561.419	21.54
561.615	21.53
561.811	21.66
562.007	21.68
562.203	21.57
562.399	21.8
562.595	21.91
562.791	21.89
562.987	21.87
563.183	21.91
563.379	21.98
563.575	22.02
563.771	22.16
563.966	22.05
564.162	22.04
564.358	22.19
564.554	22.09
564.75	22.14
564.945	22.23
565.141	22.24
565.337	22.36
565.533	22.44
565.728	22.46
565.924	22.35
566.12	22.41
566.315	22.49
566.511	22.45
566.707	22.52
566.902	22.44
567.098	22.36
567.293	22.56
567.489	22.51
567.684	22.51
567.88	22.52
568.076	22.64
568.271	22.76
568.467	22.67
568.662	22.64
568.858	22.63
569.053	22.73
569.248	22.64
569.444	22.49
569.639	22.6
569.835	22.71
570.03	22.64
570.225	22.6
570.421	22.53
570.616	22.67
570.812	22.78
571.007	22.77
571.202	22.82
571.397	22.93
571.593	23.09
571.788	23
571.983	22.96
572.178	23.02
572.374	23.08
572.569	23.1
572.764	22.97
572.959	22.91
573.154	23.04
573.35	23.01
573.545	23.05
573.74	22.92
573.935	23.05
574.13	23.07
574.325	23.07
574.52	23.1
574.715	23.17
574.91	23.36
575.105	23.51
575.3	23.52
575.495	23.53
575.69	23.68
575.885	23.77
576.08	23.86
576.275	24.08
576.47	24.19
576.665	24.23
576.86	24.33
577.055	24.34
577.25	24.42
577.444	24.49
577.639	24.61
577.834	24.6
578.029	24.79
578.224	24.77
578.418	24.77
578.613	24.8
578.808	24.9
579.003	24.84
579.197	24.93
579.392	24.86
579.587	24.83
579.781	24.86
579.976	24.8
580.171	24.68
580.365	24.7
580.56	24.68
580.755	24.63
580.949	24.68
581.144	24.71
581.338	24.71
581.533	24.81
581.727	24.79
581.922	24.9
582.116	25.03
582.311	25.18
582.505	25.05
582.7	24.91
582.894	25.08
583.089	25.13
583.283	25.34
583.478	25.43
583.672	25.49
583.866	25.47
584.061	25.47
584.255	25.45
584.449	25.51
584.644	25.62
584.838	25.71
585.032	25.68
585.226	25.75
585.421	25.57
585.615	25.63
585.809	25.68
586.003	25.78
586.198	25.78
586.392	25.98
586.586	25.92
586.78	26.03
586.974	26.11
587.168	26.17
587.363	26.05
587.557	26.02
587.751	25.9
587.945	25.92
588.139	25.96
588.333	25.91
588.527	25.52
588.721	25.57
588.915	25.56
589.109	25.24
589.303	25.33
589.497	25.22
589.691	25.3
589.885	25.34
590.079	25.18
590.273	25.16
590.466	25.1
590.66	25.25
590.854	25.31
591.048	25.38
591.242	25.67
591.436	25.65
591.629	25.77
591.823	25.86
592.017	25.89
592.211	26.13
592.404	26.03
592.598	26.13
592.792	26.27
592.986	26.16
593.179	26.24
593.373	26.08
593.567	26.2
593.76	26.17
593.954	26.11
594.147	26.12
594.341	26.02
594.535	26.06
594.728	26.03
594.922	25.9
595.115	25.95
595.309	25.77
595.502	25.96
595.696	25.84
595.889	25.97
596.083	25.98
596.276	25.89
596.47	25.86
596.663	25.97
596.856	26
597.05	25.98
597.243	25.94
597.437	26
597.63	26
597.823	26
598.017	25.85
598.21	25.86
598.403	25.91
598.596	25.97
598.79	25.82
598.983	25.84
599.176	26
599.369	26.04
599.563	25.99
599.756	25.91
599.949	25.92
600.142	26.06
600.335	25.98
600.528	25.9
600.722	25.91
600.915	26
601.108	25.96
601.301	25.99
601.494	26.18
601.687	26.2
601.88	26.24
602.073	26.23
602.266	26.18
602.459	26.27
602.652	26.28
602.845	26.26
603.038	26.34
603.231	26.41
603.424	26.47
603.617	26.28
603.809	26.33
604.002	26.3
604.195	26.43
604.388	26.37
604.581	26.37
604.774	26.37
604.966	26.31
605.159	26.32
605.352	26.24
605.545	26.1
605.737	26.19
605.93	26.13
606.123	26.11
606.316	25.96
606.508	26.14
606.701	26.19
606.894	26.44
607.086	26.61
607.279	26.6
607.471	26.83
607.664	26.92
607.857	27.05
608.049	27.4
608.242	27.82
608.434	28.2
608.627	28.5
608.819	28.9
609.012	29.49
609.204	30.12
609.397	30.81
609.589	31.51
609.782	32.36
609.974	33.05
610.166	33.78
610.359	34.46
610.551	35.13
610.743	35.8
610.936	36.29
611.128	36.55
611.32	36.76
611.513	36.72
611.705	36.62
611.897	36.4
612.09	36.26
612.282	35.88
612.474	35.59
612.666	35.04
612.858	34.53
613.051	34.16
613.243	33.58
613.435	33.2
613.627	32.97
613.819	32.69
614.011	32.39
614.203	31.92
614.395	31.51
614.588	31.01
614.78	30.82
614.972	30.71
615.164	30.59
615.356	30.51
615.548	30.21
615.74	29.92
615.932	29.56
616.124	29.32
616.315	29.18
616.507	29.08
616.699	28.91
616.891	28.72
617.083	28.38
617.275	28.07
617.467	27.74
617.659	27.73
617.85	27.66
618.042	27.57
618.234	27.6
618.426	27.67
618.618	27.53
618.809	27.49
619.001	27.6
619.193	27.7
619.384	27.8
619.576	27.97
619.768	27.9
619.959	27.86
620.151	28.06
620.343	28.07
620.534	28.02
620.726	28.08
620.917	28.27
621.109	28.01
621.301	27.97
621.492	28
621.684	27.98
621.875	27.86
622.067	27.96
622.258	27.88
622.45	27.69
622.641	27.78
622.832	27.86
623.024	27.9
623.215	28.22
623.407	28.19
623.598	28.16
623.789	28.42
623.981	28.5
624.172	28.21
624.363	28.27
624.555	28.45
624.746	28.46
624.937	28.45
625.129	28.45
625.32	28.35
625.511	28.21
625.702	28.23
625.893	28.18
626.085	28.25
626.276	28.43
626.467	28.22
626.658	28.2
626.849	28.18
627.04	28.21
627.231	28.09
627.422	28.14
627.614	28.28
627.805	28.21
627.996	28.09
628.187	28.08
628.378	28.23
628.569	28.57
628.76	28.56
628.951	28.66
629.142	28.7
629.332	28.81
629.523	28.73
629.714	28.92
629.905	29.03
630.096	29.09
630.287	29.06
630.478	29.05
630.669	29.09
630.859	29.26
631.05	29.04
631.241	29.12
631.432	29.03
631.623	29.08
631.813	28.91
632.004	28.76
632.195	28.67
632.385	28.76
632.576	28.54
632.767	28.31
632.957	28.19
633.148	27.99
633.339	27.85
633.529	27.64
633.72	27.52
633.91	27.39
634.101	27.31
634.292	27.19
634.482	27.14
634.673	27.06
634.863	26.88
635.054	26.65
635.244	26.86
635.435	26.86
635.625	26.89
635.815	26.75
636.006	26.88
636.196	27.03
636.387	27.14
636.577	26.9
636.767	27.01
636.958	27.24
637.148	27.39
637.338	27.17
637.529	27.3
637.719	27.25
637.909	27.38
638.099	27.21
638.29	26.96
638.48	26.94
638.67	27.19
638.86	27.26
639.05	27.04
639.241	26.93
639.431	27.23
639.621	27.02
639.811	27.26
640.001	27.41
640.191	27.51
640.381	27.87
640.571	27.77
640.761	27.63
640.951	27.52
641.141	27.66
641.331	27.86
641.521	27.73
641.711	27.63
641.901	27.55
642.091	27.34
642.281	27.42
642.471	27.5
642.661	27.4
642.851	27.62
643.041	27.9
643.231	27.7
643.42	27.48
643.61	27.77
643.8	27.79
643.99	27.83
644.18	27.82
644.369	27.7
644.559	27.44
644.749	27.98
644.939	27.76
645.128	27.64
645.318	27.79
645.508	27.88
645.697	27.63
645.887	27.95
646.076	27.9
646.266	28.03
646.456	28
646.645	27.89
646.835	27.76
647.024	27.81
647.214	27.92
647.403	27.62
647.593	27.66
647.782	27.48
647.972	27.25
648.161	27.48
648.351	27.55
648.54	27.67
648.73	27.8
648.919	27.62
649.108	27.63
649.298	27.56
649.487	27.86
649.677	28.04
649.866	28.23
650.055	28.3
650.244	28.28
650.434	28.42
650.623	28.31
650.812	28.34
651.002	28.36
651.191	28.48
651.38	28.58
651.569	28.78
651.758	28.56
651.947	28.6
652.137	28.69
652.326	28.46
652.515	28.22
652.704	28.27
652.893	28.12
653.082	28.08
653.271	28.05
653.46	27.91
653.649	27.61
653.838	27.61
654.027	27.61
654.216	27.5
654.405	27.42
654.594	27.61
654.783	27.4
654.972	27.34
655.161	27.22
655.35	27.19
655.539	27.1
655.728	27.44
655.916	27.7
656.105	27.6
656.294	27.88
656.483	28.2
656.672	28.14
656.86	28.42
657.049	28.72
657.238	28.83
657.427	28.89
657.615	29.03
657.804	28.76
657.993	28.54
658.181	28.74
658.37	28.55
658.559	28.42
658.747	28.24
658.936	28.16
659.125	27.8
659.313	27.71
659.502	27.68
659.69	27.63
659.879	27.72
660.067	27.8
660.256	27.71
660.444	27.78
660.633	27.82
660.821	28.06
661.01	28.08
661.198	28.31
661.387	28.54
661.575	28.56
661.763	28.57
661.952	28.7
662.14	28.62
662.328	28.54
662.517	28.18
662.705	28.1
662.893	27.85
663.082	27.91
663.27	28.03
663.458	27.95
663.646	28.1
663.834	28
664.023	27.87
664.211	27.74
664.399	27.67
664.587	27.94
664.775	27.84
664.963	28.06
665.152	27.96
665.34	27.82
665.528	27.65
665.716	27.3
665.904	27.3
666.092	27.13
666.28	27.55
666.468	27.57
666.656	27.69
666.844	27.73
667.032	27.79
667.22	27.84
667.408	27.77
667.596	27.74
667.784	27.86
667.971	27.81
668.159	27.97
668.347	27.91
668.535	27.85
668.723	27.53
668.911	27.36
669.098	27.21
669.286	27.3
669.474	27.43
669.662	27.78
669.849	27.72
670.037	27.81
670.225	27.51
670.413	27.39
670.6	27.28
670.788	27.47
670.976	27.52
671.163	27.63
671.351	27.34
671.538	27.52
671.726	27.28
671.913	27.04
672.101	27.03
672.289	27.38
672.476	27.5
672.664	27.81
672.851	27.8
673.039	28.26
673.226	28.01
673.413	28.12
673.601	27.7
673.788	27.79
673.976	27.97
674.163	27.96
674.35	27.93
674.538	27.79
674.725	27.67
674.912	27.44
675.1	27.39
675.287	27.81
675.474	27.75
675.662	28.1
675.849	28.08
676.036	28.11
676.223	28.14
676.411	28.18
676.598	28.11
676.785	27.9
676.972	28.14
677.159	27.96
677.346	27.99
677.533	28.15
677.721	28.24
677.908	28.11
678.095	28.38
678.282	28.23
678.469	28.37
678.656	28.44
678.843	28.54
679.03	28.48
679.217	28.41
679.404	28.11
679.591	28.01
679.778	27.79
679.964	27.86
680.151	27.82
680.338	28.15
680.525	27.95
680.712	27.86
680.899	28.09
681.086	28.19
681.272	28.37
681.459	28.41
681.646	28.54
681.833	28.6
682.02	28.96
682.206	28.89
682.393	28.67
682.58	28.5
682.766	28.56
682.953	28.55
683.14	28.52
683.326	28.34
683.513	28.63
683.7	28.42
683.886	28.53
684.073	28.21
684.259	28.31
684.446	28.48
684.632	28.51
684.819	28.53
685.005	28.47
685.192	28.57
685.378	28.8
685.565	28.64
685.751	29.13
685.938	29.03
686.124	29.16
686.31	29.04
686.497	29.09
686.683	29.23
686.87	29.21
687.056	29.3
687.242	29.19
687.429	28.97
687.615	28.95
687.801	28.7
687.987	28.62
688.174	28.56
688.36	28.49
688.546	28.23
688.732	28.36
688.918	28.17
689.105	28
689.291	27.8
689.477	27.8
689.663	27.37
689.849	27.47
690.035	27.33
690.221	27.43
690.407	27.72
690.593	27.91
690.779	27.77
690.965	28.13
691.151	28.16
691.337	28.16
691.523	28.06
691.709	28.68
691.895	28.33
692.081	28.74
692.267	28.39
692.453	28.27
692.639	28.22
692.825	28.1
693.011	27.97
693.196	28.26
693.382	28.26
693.568	28.53
693.754	28.4
693.94	28.6
694.125	28.61
694.311	28.83
694.497	28.47
694.682	28.54
694.868	28.55
695.054	28.15
695.239	27.91
695.425	28.31
695.611	28.33
695.796	28.4
695.982	28.38
696.168	28.15
696.353	28.06
696.539	28.27
696.724	28.37
696.91	28.58
697.095	28.87
697.281	28.95
697.466	29.01
697.652	28.98
697.837	28.74
698.023	28.88
698.208	28.81
698.393	28.83
698.579	28.88
698.764	28.67
698.949	28.69
699.135	28.74
699.32	28.6
699.505	28.18
699.691	28.3
699.876	28.24
700.061	27.82
700.246	27.89
700.432	27.89
700.617	27.85
700.802	28.15
700.987	28.18
701.172	27.92
701.358	28.3
701.543	28.81
701.728	28.45
701.913	28.42
702.098	28.98
702.283	29.08
702.468	29.33
702.653	29.4
702.838	29.01
703.023	28.84
703.208	29.11
703.393	29.06
703.578	28.96
703.763	29.43
703.948	29.86
704.133	29.98
704.318	30.08
704.503	30.16
704.688	29.94
704.873	30.33
705.057	30.72
705.242	30.8
705.427	31.12
705.612	31.08
705.797	31.05
705.981	31.46
706.166	31.31
706.351	31.12
706.536	31.11
706.72	31.36
706.905	31.37
707.09	31.51
707.274	31.55
707.459	31.32
707.644	31.33
707.828	31.41
708.013	31.03
708.197	30.79
708.382	30.95
708.567	30.67
708.751	30.68
708.936	30.82
709.12	30.89
709.305	31.01
709.489	30.77
709.673	30.93
709.858	30.94
710.042	31.1
710.227	31.43
710.411	31.67
710.596	32.09
710.78	32.11
710.964	32.25
711.149	31.87
711.333	31.74
711.517	31.75
711.702	31.62
711.886	31.08
712.07	30.74
712.254	30.82
712.438	30.26
712.623	29.77
712.807	29.31
712.991	29.04
713.175	28.8
713.359	28.71
713.544	28.8
713.728	28.48
713.912	28.88
714.096	28.87
714.28	28.73
714.464	28.77
714.648	28.65
714.832	29.03
715.016	28.86
715.2	28.59
715.384	28.38
715.568	28
715.752	28.1
715.936	27.83
716.12	28
716.304	27.95
716.488	28.01
716.671	27.78
716.855	27.69
717.039	27.71
717.223	28.16
717.407	28.18
717.59	28.4
717.774	28.19
717.958	28.4
718.142	28.56
718.325	28.15
718.509	28.22
718.693	28.84
718.877	28.97
719.06	29.27
719.244	28.81
719.428	28.78
719.611	28.77
719.795	28.89
719.978	28.55
720.162	28.14
720.345	28.39
720.529	28.28
720.713	28.35
720.896	28.34
721.08	27.96
721.263	28.09
721.446	28.37
721.63	28.44
721.813	28.33
721.997	28.65
722.18	28.89
722.364	29.21
722.547	29.62
722.73	29.07
722.914	28.45
723.097	27.97
723.28	28.09
723.464	27.98
723.647	27.41
723.83	27.82
724.013	27.58
724.197	27.62
724.38	27.3
724.563	27.54
724.746	27.53
724.929	27.86
725.112	28.4
725.296	29.15
725.479	29.4
725.662	29.72
725.845	29.45
726.028	29.38
726.211	29.09
726.394	29.02
726.577	28.32
726.76	28.47
726.943	28.58
727.126	28.17
727.309	28
727.492	27.87
727.675	28.38
727.858	28.25
728.041	28.1
728.224	27.91
728.407	27.7
728.589	27.81
728.772	28.25
728.955	28.29
729.138	28.43
729.321	27.72
729.503	27.47
729.686	27.29
729.869	27.4
730.052	27.44
730.234	27.66
730.417	27.87
730.6	27.66
730.782	27.32
730.965	26.98
731.148	27.18
731.33	27.1
731.513	27.01
731.695	26.75
731.878	26.79
732.061	27.09
732.243	26.98
732.426	27.1
732.608	27.27
732.791	27.52
732.973	27.94
733.156	27.54
733.338	27.85
733.52	28.22
733.703	28.12
733.885	28.25
734.068	28.21
734.25	28.67
734.432	28.53
734.615	28.44
734.797	28.23
734.979	28.25
735.162	28.52
735.344	28.33
735.526	28.52
735.708	29.04
735.891	29.41
736.073	29.86
736.255	28.8
736.437	28.62
736.619	28.6
736.802	28.78
736.984	28.56
737.166	28.39
737.348	29.1
737.53	28.74
737.712	28.45
737.894	28.28
738.076	28.09
738.258	28.76
738.44	28.89
738.622	29.29
738.804	28.76
738.986	28.52
739.168	28.71
739.35	28.49
739.532	28.67
739.714	28.28
739.896	28.52
740.078	28.39
740.259	28.5
740.441	28.9
740.623	28.39
740.805	28.95
740.987	29.1
741.168	29.73
741.35	29.24
741.532	29
741.714	29.37
741.895	28.54
742.077	28.45
742.259	28.24
742.44	27.97
742.622	29.27
742.804	28.73
742.985	29.15
743.167	28.44
743.348	28.25
743.53	27.75
743.711	27.48
743.893	27.87
744.075	27.93
744.256	27.99
744.438	28
744.619	27
744.8	27.22
744.982	26.84
745.163	27.16
745.345	27.55
745.526	27.68
745.707	28.21
745.889	28.18
746.07	28.55
746.252	28.82
746.433	29.07
746.614	28.86
746.795	28.9
746.977	29.06
747.158	28.84
747.339	29.75
747.52	30.37
747.702	30.36
747.883	30.46
748.064	29.47
748.245	29.15
748.426	29.06
748.607	29.41
748.788	28.97
748.97	28.99
749.151	28.46
749.332	28.14
749.513	27.87
749.694	27.36
749.875	27.41
750.056	27.67
750.237	28.4
750.418	28.36
750.599	27.94
750.78	28.34
750.96	28.48
751.141	29.32
751.322	28.61
751.503	28.47
751.684	27.91
751.865	27.39
752.046	27.94
752.226	27.31
752.407	27.04
752.588	27.31
752.769	27.05
752.949	26.17
753.13	25.71
753.311	25.61
753.492	26.06
753.672	27.12
753.853	27.38
754.034	26.81
754.214	27.19
754.395	26.92
754.575	27.24
754.756	27.34
754.937	28
755.117	27.85
755.298	28.13
755.478	28.29
755.659	27.6
755.839	27.27
756.02	27.42
756.2	27.29
756.381	27.17
756.561	27.4
756.741	27.09
756.922	26.84
757.102	27.28
757.283	27.64
757.463	27.02
757.643	27.3
757.823	27.66
758.004	27.63
758.184	27.74
758.364	28.06
758.545	27.65
758.725	27.99
758.905	28.12
759.085	27.88
759.265	27.9
759.446	28.1
759.626	28.44
759.806	28.35
759.986	28.4
760.166	28.37
760.346	28.54
760.526	28.23
760.706	28.17
760.886	28.05
761.066	28.14
761.246	27.87
761.426	28.43
761.606	28.27
761.786	28.54
761.966	28.53
762.146	28.33
762.326	28.18
762.506	28.19
762.686	28.49
762.866	28.7
763.046	28.54
763.225	28.47
763.405	28.1
763.585	28.27
763.765	27.92
763.945	27.99
764.124	28.06
764.304	27.87
764.484	28.18
764.664	28.2
764.843	28.33
765.023	28.78
765.203	28.62
765.382	28.59
765.562	28.36
765.741	28.51
765.921	28.7
766.101	28.64
766.28	29.39
766.46	28.61
766.639	28.21
766.819	28.11
766.998	27.55
767.178	28.05
767.357	27.65
767.537	27.6
767.716	27.76
767.896	27.72
768.075	28.07
768.254	27.26
768.434	27.82
768.613	28.23
768.792	28.5
768.972	28.61
769.151	27.51
769.33	28.33
769.51	28.37
769.689	28.35
769.868	27.64
770.047	27.96
770.226	28.48
770.406	28.71
770.585	28.84
770.764	28.35
770.943	28.02
771.122	29.21
771.301	28.87
771.48	28.51
771.66	28.09
771.839	28.34
772.018	26.87
772.197	26.1
772.376	25.95
772.555	26.07
772.734	25.63
772.913	25.01
773.092	24.53
773.271	24
773.449	24.38
773.628	24.67
773.807	24.32
773.986	24.99
774.165	25.66
774.344	25.69
774.523	25.44
774.701	25.7
774.88	26.08
775.059	25.57
775.238	26.3
775.417	26.46
775.595	26.43
775.774	27.03
775.953	26.66
776.131	26.6
776.31	27.07
776.489	26.88
776.667	26.71
776.846	27.63
777.025	28.85
777.203	28.2
777.382	27.77
777.56	27.5
777.739	27.01
777.917	27.2
778.096	27.62
778.274	27.2
778.453	26.38
778.631	26.49
778.81	26.16
778.988	26.16
779.166	26.65
779.345	27.01
779.523	27.57
779.702	28.38
779.88	28.28
780.058	27.04
780.237	27.19
780.415	28.09
780.593	27.59
780.771	28.09
780.95	27.88
781.128	27.26
781.306	27.15
781.484	27
781.662	27.49
781.841	27.9
782.019	28.57
782.197	28.69
782.375	28.55
782.553	29.2
782.731	28.86
782.909	27.98
783.087	29.09
783.265	28.68
783.443	28.5
783.621	27.99
783.799	28.25
783.977	28.39
784.155	28
784.333	28.63
784.511	28.64
784.689	28.24
784.867	28.59
785.045	28.61
785.223	29.41
785.4	29.03
785.578	28.58
785.756	28.65
785.934	29.31
786.112	29.43
786.289	28.92
786.467	29.09
786.645	28.35
786.823	28.1
787	27.76
787.178	27.29
787.356	28.36
787.533	27.44
787.711	25.97
787.889	25.65
788.066	25.66
788.244	25.7
788.421	25.01
788.599	26.14
788.776	26.53
788.954	25.83
789.131	25.68
789.309	25.68
789.486	26.87
789.664	28.23
789.841	27.58
790.019	27.51
790.196	27.59
790.373	28.69
790.551	28.06
790.728	28.19
790.906	27.8
791.083	27.74
791.26	27.48
791.437	27.33
791.615	27.6
791.792	27.18
791.969	26.97
792.146	26
792.324	25.92
792.501	26.57
792.678	27.03
792.855	28.63
793.032	29.05
793.209	29.28
793.387	28.11
793.564	27.33
793.741	29.11
793.918	28.33
794.095	28.52
794.272	28.96
794.449	28.35
794.626	27.5
794.803	27.46
794.98	27.23
795.157	26.57
795.334	28.03
795.511	27.71
795.688	27.2
795.864	28.1
796.041	28.64
796.218	27.98
796.395	28.77
796.572	29.13
796.749	28.97
796.925	29.61
797.102	29.73
797.279	28.89
797.456	29.24
797.632	27.89
797.809	27.55
797.986	27.38
798.162	27.27
798.339	27.16
798.516	26.2
798.692	26.16
798.869	26.4
799.046	26.82
799.222	27.86
799.399	28.67
799.575	30.08
799.752	29.95
799.928	30.44
800.105	30.56
800.281	30.52
800.458	31.13
800.634	31
800.811	30.01
800.987	29.15
801.163	28.48
801.34	27.76
801.516	26.42
801.692	27.66
801.869	27.67
802.045	26.99
802.221	25.7
802.398	25.95
802.574	25.82
802.75	26.71
802.926	26.17
803.103	26.15
803.279	26.3
803.455	26.7
803.631	25.99
803.807	26.1
803.983	26.69
804.16	27.13
804.336	27.8
804.512	26.57
804.688	26.31
804.864	28.29
805.04	28.28
805.216	28.37
805.392	30.35
805.568	30.42
805.744	29.51
805.92	29.76
806.096	30.56
806.272	30.42
806.448	31.31
806.623	30.96
806.799	29.12
806.975	28.11
807.151	27.58
807.327	26.58
807.503	25.82
807.678	24.91
807.854	24.01
808.03	24.23
808.206	24.47
808.381	24.22
808.557	24.3
808.733	24.89
808.908	25.76
809.084	25.89
809.26	25.93
809.435	26.1
809.611	26.91
809.787	26.8
809.962	25.91
810.138	25.38
810.313	25.02
810.489	24.99
810.664	24.9
810.84	25.28
811.015	26.1
811.191	26.02
811.366	27.15
811.542	27.94
811.717	30.17
811.892	31.47
812.068	30.88
812.243	30.34
812.419	30.03
812.594	30.1
812.769	29.59
812.944	28.59
813.12	29.13
813.295	27.67
813.47	26.97
813.645	25.39
813.821	23.16
813.996	23.61
814.171	25.01
814.346	24.55
814.521	25.73
814.697	24.6
814.872	25.81
815.047	24.22
815.222	23.12
815.397	22.66
815.572	23.72
815.747	24.71
815.922	25.82
816.097	25.41
816.272	26.27
816.447	25.26
816.622	26.81
816.797	25.08
816.972	25.42
817.147	26.81
817.322	28.37
817.496	27.03
817.671	27.65
817.846	25.04
818.021	25.63
818.196	26
818.371	24.55
818.545	24.58
818.72	25.17
818.895	25.2
819.069	25.3
819.244	25.01
819.419	24.39
819.594	24.34
819.768	25.66
819.943	24.57
820.117	24.72
820.292	25.74
820.467	25.24
820.641	25.44
820.816	25.91
820.99	25.63
821.165	26.01
821.339	26.29
821.514	26.31
821.688	26.24
821.863	26.46
822.037	26.44
822.212	26.31
822.386	26.49
822.56	26.36
822.735	26.03
822.909	26.18
823.084	26.01
823.258	26.12
823.432	25.96
823.606	25.82
823.781	25.77
823.955	25.68
824.129	25.87
824.303	25.91
824.478	26.47
824.652	26.73
824.826	26.87
825	27.09
825.174	27.31
825.348	27.71
825.523	27.73
825.697	28.37
825.871	28.08
826.045	28.16
826.219	27.74
826.393	26.91
826.567	27.4
826.741	27.24
826.915	27.1
827.089	26.17
827.263	25.79
827.437	26.04
827.611	25.94
827.784	26.09
827.958	25.84
828.132	26.08
828.306	26.4
828.48	25.57
828.654	25.87
828.827	25.52
829.001	26.03
829.175	26.34
829.349	27.1
829.522	26.45
829.696	26.85
829.87	26.88
830.044	26.68
830.217	25.72
830.391	27.09
830.565	26.2
830.738	24.47
830.912	25.33
831.085	24.91
831.259	23.31
831.432	23.82
831.606	23.01
831.779	23.28
831.953	22.79
832.126	24.22
832.3	23.13
832.473	23.5
832.647	25.68
832.82	24.88
832.994	25.35
833.167	25.87
833.34	26.36
833.514	26.39
833.687	26.63
833.86	26.83
834.034	26.37
834.207	27.25
834.38	27.5
834.553	27
834.727	27.46
834.9	27.13
835.073	26.57
835.246	26.08
835.419	26.32
835.593	25.95
835.766	26.02
835.939	26.57
836.112	26.42
836.285	26.59
836.458	27.26
836.631	27.62
836.804	28.53
836.977	28.26
837.15	28.6
837.323	28.61
837.496	27.74
837.669	28.61
837.842	29.56
838.015	28.48
838.188	27.21
838.361	27.13
838.533	27.54
838.706	26.5
838.879	28.38
839.052	30.47
839.225	30.91
839.398	31.91
839.57	30.96
839.743	30.41
839.916	31.79
840.088	32.11
840.261	31.37
840.434	29.92
840.607	30.77
840.779	28.78
840.952	28.21
841.124	28.5
841.297	27.28
841.47	26.85
841.642	25.25
841.815	23.19
841.987	24.55
842.16	27.43
842.332	29.18
842.505	29.31
842.677	33.05
842.85	30.43
843.022	29.47
843.194	30.59
843.367	32.83
843.539	34.9
843.712	35.01
843.884	33.93
844.056	32.69
844.229	30.82
844.401	33.79
844.573	35
844.745	38.16
844.918	39.14
845.09	38.41
845.262	38.69
845.434	36.34
845.606	37.65
845.779	38.56
845.951	34.45
846.123	35.87
846.295	32.5
846.467	27.35
846.639	25.19
846.811	23.26
846.983	27.37
847.155	25.74
847.327	25.72
847.499	24.52
847.671	23.45
847.843	27.06
848.015	27.31
848.187	25.44
848.359	27.54
848.531	28.21
848.703	26.02
848.875	25.09
849.047	23.44
849.218	25.11
849.39	26.37
849.562	26.68
849.734	20.53
849.905	21.65
850.077	20.83
850.249	19.43
850.421	17.6
850.592	22.12
850.764	17.28
850.936	17.33
851.107	18.52
851.279	17.62
851.451	19.27
851.622	22.71
851.794	21.76
851.965	23.12
852.137	24.36
852.308	25.7
852.48	20.16
852.651	22.96
852.823	24.36
852.994	21.09
853.166	22.12
853.337	21.63
853.509	21.78
853.68	20
853.851	21.08
854.023	26.4
854.194	25.88
854.365	29.97
854.537	30.38
854.708	29.74
854.879	30.44
855.05	30.3
855.222	27.42
855.393	26.64
855.564	30.02
855.735	28.94
855.906	24.68
856.078	24.77
856.249	23.23
856.42	25.38
856.591	29.14
856.762	31.48
856.933	30.03
857.104	32.98
857.275	36.71
857.446	30.35
857.617	29.17
857.788	28.47
857.959	31.35
858.13	28.21
858.301	28.29
858.472	24.1
858.643	21.31
858.814	20.91
858.985	19.07
859.155	16.21
859.326	13.96
859.497	19.1
859.668	19.75
859.839	12.66
860.009	15.57
860.18	15.57
860.351	17.05
860.522	20.26
860.692	23.59
860.863	21.28
861.034	20.12
861.204	27.35
861.375	26.75
861.546	27.01
861.716	29.27
861.887	30.28
862.057	29.61
862.228	28.15
862.398	23.72
862.569	19.88
862.739	20.12
862.91	20.61
863.08	21.63
863.251	20.43
863.421	18.27
863.592	22.18
863.762	17
863.932	19.03
864.103	19.4
864.273	19.15
864.443	19.19
864.614	23.22
864.784	21.19
864.954	19.69
865.125	17.26
865.295	17.43
865.465	13.61
865.635	19.86
865.805	20.83
865.976	22.94
866.146	24.66
866.316	24.85
866.486	23
866.656	24.11
866.826	22.94
866.996	18.31
867.166	21.94
867.336	20.58
867.506	15.7
867.676	10.12
867.846	4.62
868.016	7.07
868.186	9.95
868.356	8.03
868.526	10.22
868.696	11.89
868.866	22.78
869.036	19.46
869.206	19.99
869.376	27.19
869.545	27.59
869.715	29.37
869.885	29.72
870.055	31.76
870.224	33.94
870.394	31.56
870.564	30.92
870.734	29.63
870.903	28.19
871.073	33.76
871.243	30.18
871.412	29.52
871.582	29.44
871.751	28.92
871.921	27.94
872.091	23.67
872.26	26.79
872.43	24.49
872.599	20.6
872.769	28.32
872.938	20.5
873.108	21.09
873.277	24.49
873.446	26.53
873.616	31.6
873.785	30.78
873.955	33.19
874.124	27.81
874.293	27.85
874.463	34.52
874.632	27.28
874.801	32.92
874.971	37.18
875.14	35.52
875.309	33.37
875.478	31.62
875.647	29.74
875.817	30.9
875.986	34.52
876.155	38.68
876.324	34.39
876.493	37.41
876.662	37.04
876.831	28.88
877	29.57
877.17	28.5
877.339	21.74
877.508	21.49
877.677	23.39
877.846	26.09
878.015	22.02
878.184	20.86
878.352	16.74
878.521	19.75
878.69	22.69
878.859	20.2
879.028	19.72
879.197	23.66
879.366	22.58
879.534	21.21
879.703	17.46
879.872	19.7
880.041	19.24
880.21	22.73
880.378	20.55
880.547	20.5
880.716	21.87
880.884	24.33
881.053	23.16
881.222	23.28
881.39	22.92
881.559	24.31
881.727	24.94
881.896	24.08
882.065	23.84
882.233	23.78
882.402	24.35
882.57	23.98
882.739	23.53
882.907	24.18
883.076	24.15
883.244	24.97
883.412	24.77
883.581	24.47
883.749	25.59
883.918	24.84
884.086	25.68
884.254	25.27
884.423	26.28
884.591	25.32
884.759	24.33
884.927	24.62
885.096	23.48
885.264	21.91
885.432	19.06
885.6	17.93
885.769	17.89
885.937	16.61
886.105	15.87
886.273	14.12
886.441	16.15
886.609	16.56
886.777	17.07
886.945	14.98
887.113	15.92
887.281	20.01
887.449	20.25
887.617	22.37
887.785	18.68
887.953	15.68
888.121	14.58
888.289	15.97
888.457	16.57
888.625	17.57
888.793	24.19
888.961	26.18
889.129	23.63
889.296	27.53
889.464	26.2
889.632	31.09
889.8	35.92
889.967	38.11
890.135	36.44
