Data from 2938791__Reflection_06.txt Node
Date: Fri Mar 13 11:21:44 EDT 2015
User: robert
Spectrometer: USB4E03002
Autoset integration time: false
Trigger mode: 4
Integration Time (sec): 1.000000E-1
Scans to average: 10
Electric dark correction enabled: false
Nonlinearity correction enabled: false
Boxcar width: 5
Stray light correction enabled: false
XAxis mode: Wavelengths
Stop averaging: false
Number of Pixels in Spectrum: 3648
>>>>>Begin Spectral Data<<<<<
177.575	-725.83
177.794	-8035.71
178.014	-1139.13
178.233	-824.18
178.452	-527.27
178.672	-396.9
178.891	-443.37
179.11	-439.12
179.33	-439.04
179.549	-529.4
179.768	-583.64
179.987	-913.97
180.207	-574.94
180.426	-932.35
180.645	-1725.64
180.864	-6760.98
181.084	2055.97
181.303	2964.04
181.522	1472.88
181.741	3298.65
181.96	1378.41
182.179	664.96
182.398	595.96
182.618	465.35
182.837	523.13
183.056	387.69
183.275	376.38
183.494	421.63
183.713	394.29
183.932	407.62
184.151	392.05
184.37	438.63
184.589	529.69
184.808	637.26
185.027	656.25
185.246	676.12
185.465	2358.97
185.684	1200.85
185.903	1436.95
186.122	1677.09
186.341	5739.22
186.56	2475.86
186.779	3424.1
186.998	1608.05
187.216	-3901.56
187.435	-932.05
187.654	-974.9
187.873	-1329.55
188.092	-3430.43
188.311	17284.62
188.53	-2565.43
188.748	7150
188.967	-1101.54
189.186	-1252.91
189.405	-634.94
189.623	-2226.47
189.842	5540.43
190.061	2005.38
190.28	2920.65
190.498	-1548.24
190.717	-1183.49
190.936	-964.81
191.154	-573.67
191.373	-1715.44
191.592	-1480.81
191.81	-1190
192.029	-974.8
192.248	-864.66
192.466	-3163.38
192.685	-15914.29
192.904	-817.83
193.122	-4100
193.341	990
193.559	586.22
193.778	679.9
193.996	515.5
194.215	550.32
194.433	554.13
194.652	519.4
194.87	1014.75
195.089	776.49
195.307	408.96
195.526	432.37
195.744	487.33
195.963	415.86
196.181	370.9
196.399	416.32
196.618	352.27
196.836	393.63
197.055	459.27
197.273	484.56
197.491	570.2
197.71	536.83
197.928	799.12
198.146	836.01
198.365	7421.88
198.583	-4403.77
198.801	-1760.61
199.019	-1935.16
199.238	-5016
199.456	1653.02
199.674	865.17
199.892	717.87
200.111	1137.34
200.329	1065.82
200.547	924.73
200.765	663.37
200.983	571.46
201.202	594.9
201.42	732.84
201.638	799.39
201.856	1341.84
202.074	1646.5
202.292	-3970.97
202.51	16137.5
202.728	9096.55
202.946	-3228.57
203.165	-3052.5
203.383	5000
203.601	1990.37
203.819	4325.45
204.037	871.58
204.255	943.6
204.473	1074.19
204.691	593.5
204.909	503.52
205.127	486.92
205.345	555.12
205.562	713.87
205.78	897.17
205.998	850.21
206.216	545.54
206.434	814.07
206.652	499.78
206.87	541.2
207.088	485.85
207.306	743.09
207.523	671.35
207.741	535.52
207.959	468.52
208.177	658.7
208.395	706.13
208.612	1037.31
208.83	745.14
209.048	846.69
209.266	1078.23
209.483	975.44
209.701	1012.16
209.919	1507.88
210.136	1173.54
210.354	991.76
210.572	722.75
210.79	535.25
211.007	550.79
211.225	643.99
211.442	683.04
211.66	475.46
211.878	517.93
212.095	-1245.49
212.313	-3287.23
212.53	-2038.67
212.748	-1449.76
212.966	-2530.77
213.183	-1743.98
213.401	-2546.43
213.618	5449.09
213.836	-17429.41
214.053	-9429.03
214.271	11284.62
214.488	280.04
214.705	276.28
214.923	246.95
215.14	269.25
215.358	283.81
215.575	305.21
215.793	297.18
216.01	419.37
216.227	377.02
216.445	411.13
216.662	463.18
216.879	607
217.097	569.08
217.314	503.56
217.531	335.94
217.749	305.24
217.966	260.92
218.183	230.37
218.4	219.62
218.618	230.65
218.835	220.49
219.052	214.68
219.269	183.9
219.487	166.95
219.704	174.34
219.921	175.88
220.138	177.57
220.355	189.49
220.572	182.08
220.79	165.32
221.007	153.21
221.224	149.84
221.441	141.44
221.658	144.29
221.875	139.82
222.092	132.58
222.309	132.82
222.526	126.86
222.743	118.33
222.96	111.37
223.177	111.9
223.394	105.62
223.611	99.43
223.828	97.41
224.045	98.34
224.262	97.74
224.479	90.41
224.696	81.58
224.913	76.91
225.13	73.34
225.347	70.64
225.564	67.77
225.781	66.31
225.997	63.05
226.214	55.07
226.431	48.8
226.648	43.38
226.865	42.09
227.082	38.08
227.298	32.91
227.515	28.82
227.732	26.11
227.949	22.55
228.165	19.73
228.382	18.46
228.599	18.9
228.816	18.88
229.032	18.74
229.249	17.15
229.466	16.38
229.682	16.97
229.899	17.77
230.116	17.45
230.332	18.48
230.549	19.89
230.765	20.64
230.982	20.86
231.199	20.46
231.415	21.62
231.632	23.73
231.848	25.45
232.065	25.95
232.281	25.73
232.498	26.67
232.714	25.35
232.931	24.64
233.147	25.17
233.364	25.23
233.58	25.97
233.797	24.64
234.013	23.8
234.23	23.93
234.446	24.01
234.662	23.93
234.879	24.46
235.095	25.83
235.312	26.87
235.528	27.11
235.744	26.52
235.961	26.65
236.177	27.48
236.393	28.95
236.61	29.75
236.826	29.9
237.042	29.6
237.258	29.91
237.475	30.06
237.691	29.45
237.907	29.28
238.123	30.96
238.339	31.52
238.556	31.4
238.772	30.3
238.988	29.62
239.204	27.95
239.42	26.6
239.636	25.3
239.853	25.16
240.069	23.96
240.285	22.77
240.501	20.49
240.717	19.42
240.933	18.33
241.149	16.47
241.365	15.29
241.581	15.08
241.797	14.7
242.013	13.85
242.229	13.31
242.445	12.98
242.661	12.74
242.877	12.93
243.093	13.31
243.309	13.42
243.525	14.25
243.741	14.18
243.957	14.37
244.173	15.36
244.388	15.53
244.604	15.65
244.82	15.65
245.036	15.28
245.252	14.5
245.468	12.87
245.683	12.58
245.899	11.73
246.115	11.18
246.331	10.88
246.547	10.27
246.762	9.77
246.978	9.25
247.194	9.18
247.409	8.97
247.625	8.79
247.841	8.52
248.057	8.21
248.272	8.35
248.488	8.37
248.703	8.21
248.919	8.28
249.135	8.8
249.35	9.61
249.566	10
249.782	10.3
249.997	10.41
250.213	11.56
250.428	12.35
250.644	12.47
250.859	13.05
251.075	13.31
251.29	13.51
251.506	13.19
251.721	12.61
251.937	12.19
252.152	12.65
252.368	13.22
252.583	12.73
252.798	12.48
253.014	13.1
253.229	13.04
253.445	13.14
253.66	13.27
253.875	14.07
254.091	15
254.306	15.09
254.521	16.15
254.737	17.49
254.952	17.67
255.167	18.26
255.383	17.07
255.598	16.76
255.813	15.96
256.028	15.75
256.244	15.14
256.459	14.96
256.674	14.59
256.889	12.63
257.104	11.68
257.32	11.86
257.535	10.97
257.75	10.98
257.965	11
258.18	11.02
258.395	10.26
258.61	9.62
258.826	8.82
259.041	8.68
259.256	8.46
259.471	8.03
259.686	7.6
259.901	7.37
260.116	7.23
260.331	6.87
260.546	7.05
260.761	7.19
260.976	7.43
261.191	7.31
261.406	7.18
261.621	7.5
261.836	7.56
262.05	8.23
262.265	8.76
262.48	9.05
262.695	9.69
262.91	9.75
263.125	10.2
263.34	10.06
263.555	10.88
263.769	11.3
263.984	11.32
264.199	11.65
264.414	11.66
264.629	11.43
264.843	11.85
265.058	11.89
265.273	11.74
265.488	11.22
265.702	11.29
265.917	11.22
266.132	10.88
266.346	10.56
266.561	10.44
266.776	10.62
266.99	11.07
267.205	10.81
267.42	10.64
267.634	10.06
267.849	9.69
268.063	9.6
268.278	9.22
268.492	9.67
268.707	9.62
268.922	9.19
269.136	9.07
269.351	8.53
269.565	8.25
269.78	7.97
269.994	7.6
270.209	7.77
270.423	7.56
270.637	7.51
270.852	7.23
271.066	7.11
271.281	7.39
271.495	6.93
271.709	6.95
271.924	6.73
272.138	6.8
272.353	7.42
272.567	7.46
272.781	7.68
272.996	7.41
273.21	7.42
273.424	7.26
273.638	7.17
273.853	7.48
274.067	7.27
274.281	7.71
274.495	8.15
274.71	8.45
274.924	9.09
275.138	9.15
275.352	9.32
275.566	9.5
275.781	9.96
275.995	10.38
276.209	10.51
276.423	10.85
276.637	11.06
276.851	11.05
277.065	10.64
277.279	10.01
277.493	9.64
277.707	10.2
277.921	9.86
278.135	10.01
278.349	9.47
278.563	9.38
278.777	9.39
278.991	9.06
279.205	8.98
279.419	9
279.633	8.85
279.847	9.11
280.061	8.97
280.275	8.44
280.489	8.5
280.703	9.12
280.917	8.63
281.131	8.59
281.344	8.47
281.558	8.24
281.772	8.18
281.986	8.21
282.2	8.32
282.414	8.02
282.627	8.52
282.841	8.64
283.055	8.43
283.269	8.65
283.482	8.57
283.696	8.86
283.91	8.99
284.123	8.36
284.337	7.96
284.551	7.66
284.764	7.61
284.978	7.36
285.192	6.95
285.405	7.13
285.619	6.95
285.833	6.94
286.046	6.41
286.26	6.24
286.473	6.72
286.687	6.97
286.9	7.14
287.114	7.18
287.327	7.37
287.541	7.54
287.754	7.21
287.968	7.42
288.181	7.37
288.395	7.77
288.608	8.04
288.822	7.78
289.035	7.54
289.248	7.21
289.462	7.06
289.675	7.06
289.889	6.98
290.102	6.88
290.315	6.63
290.529	6.54
290.742	6.52
290.955	6.42
291.169	6.86
291.382	7.24
291.595	7.5
291.808	7.82
292.022	7.8
292.235	8.15
292.448	8.41
292.661	8.65
292.875	8.94
293.088	8.86
293.301	8.53
293.514	8.2
293.727	7.86
293.94	7.81
294.153	7.82
294.367	7.78
294.58	7.14
294.793	7.22
295.006	7.04
295.219	6.85
295.432	6.83
295.645	7
295.858	7.09
296.071	6.93
296.284	6.79
296.497	6.56
296.71	6.48
296.923	6.73
297.136	6.64
297.349	6.68
297.562	6.51
297.775	6.38
297.988	6.59
298.201	6.49
298.414	6.65
298.626	6.51
298.839	6.37
299.052	6.39
299.265	6.64
299.478	6.59
299.691	7.1
299.903	7.61
300.116	8.04
300.329	7.95
300.542	7.91
300.755	8.04
300.967	8.65
301.18	9.09
301.393	9.23
301.605	9
301.818	9.09
302.031	8.69
302.243	8.19
302.456	7.87
302.669	7.82
302.881	7.86
303.094	8.34
303.307	8.18
303.519	7.9
303.732	8.22
303.944	8.28
304.157	8.25
304.37	8.15
304.582	8.55
304.795	8.73
305.007	8.62
305.22	9.27
305.432	8.84
305.645	9.13
305.857	9.57
306.069	9.31
306.282	8.98
306.494	8.74
306.707	8.98
306.919	9.05
307.132	9.21
307.344	9.08
307.556	8.86
307.769	9.13
307.981	8.78
308.193	8.7
308.406	8.76
308.618	8.87
308.83	9.03
309.043	8.7
309.255	8.42
309.467	8.28
309.679	8.21
309.892	8.16
310.104	7.87
310.316	7.84
310.528	7.63
310.74	7.47
310.953	7.19
311.165	7.15
311.377	7.46
311.589	7.83
311.801	7.82
312.013	7.94
312.225	7.81
312.437	7.91
312.649	8.08
312.862	8.31
313.074	8.46
313.286	9.1
313.498	9.35
313.71	9.57
313.922	9.43
314.134	9.62
314.346	9.93
314.558	10.05
314.77	10.47
314.982	10.57
315.193	11.03
315.405	11.4
315.617	11.25
315.829	11.4
316.041	11.49
316.253	11.3
316.465	11.3
316.677	11.02
316.888	11.04
317.1	10.97
317.312	11.16
317.524	10.9
317.736	10.8
317.947	11.33
318.159	11.72
318.371	11.35
318.583	11.54
318.794	12.06
319.006	12.65
319.218	12.81
319.43	13
319.641	13.03
319.853	12.91
320.064	13.15
320.276	12.6
320.488	12.35
320.699	12.19
320.911	12.68
321.123	12.46
321.334	12.37
321.546	12.58
321.757	12.35
321.969	12.11
322.18	12.65
322.392	12.34
322.603	12.74
322.815	12.53
323.026	13.14
323.238	12.76
323.449	12.17
323.661	12.12
323.872	12
324.083	11.91
324.295	11.84
324.506	11.39
324.718	11.4
324.929	11.4
325.14	11.45
325.352	11.27
325.563	11.65
325.774	12.11
325.986	12
326.197	12.05
326.408	12.13
326.62	12.25
326.831	12.19
327.042	12.57
327.253	12.9
327.464	13.13
327.676	12.65
327.887	12.74
328.098	12.58
328.309	12.95
328.52	12.87
328.732	12.91
328.943	13.06
329.154	13.53
329.365	13.42
329.576	13.22
329.787	13.06
329.998	13.94
330.209	13.99
330.42	14.56
330.631	14.09
330.842	14.16
331.053	14.27
331.264	13.97
331.475	14.05
331.686	14.22
331.897	14.06
332.108	14.5
332.319	14.51
332.53	14.08
332.741	13.61
332.952	13.61
333.163	13.43
333.374	13.45
333.585	13.98
333.795	13.81
334.006	13.46
334.217	13.53
334.428	13.19
334.639	13.04
334.849	13.23
335.06	13.35
335.271	13.53
335.482	14.1
335.692	13.86
335.903	13.58
336.114	13.33
336.325	13.52
336.535	13.45
336.746	13.35
336.957	13.51
337.167	13.34
337.378	13.35
337.589	13.44
337.799	13.13
338.01	13.31
338.22	13.3
338.431	13.45
338.642	13.29
338.852	13.28
339.063	13.4
339.273	13.04
339.484	13.09
339.694	13.01
339.905	13.06
340.115	13.05
340.326	12.95
340.536	12.93
340.746	12.97
340.957	13.06
341.167	12.87
341.378	12.94
341.588	12.9
341.799	13.14
342.009	12.96
342.219	12.89
342.43	12.82
342.64	12.98
342.85	13.03
343.061	12.81
343.271	12.95
343.481	13.19
343.691	13.16
343.902	13.08
344.112	13.02
344.322	13.1
344.532	13.13
344.743	12.95
344.953	12.62
345.163	12.37
345.373	12.07
345.583	12.03
345.793	11.9
346.004	11.6
346.214	11.59
346.424	11.5
346.634	11.63
346.844	11.66
347.054	11.91
347.264	12.24
347.474	12.14
347.684	12.5
347.894	12.35
348.104	12.35
348.314	12.35
348.524	12.56
348.734	12.42
348.944	12.36
349.154	12.21
349.364	12.22
349.574	12.16
349.784	12.48
349.994	12.95
350.204	13.06
350.413	12.85
350.623	12.89
350.833	12.84
351.043	12.78
351.253	12.75
351.463	12.67
351.672	12.58
351.882	12.54
352.092	12.23
352.302	12.1
352.511	12.2
352.721	12.41
352.931	12.49
353.141	12.58
353.35	12.48
353.56	12.26
353.77	12.06
353.979	11.75
354.189	11.79
354.399	11.77
354.608	11.46
354.818	11.11
355.027	11.01
355.237	10.97
355.447	10.92
355.656	10.89
355.866	11.14
356.075	11.49
356.285	11.7
356.494	11.56
356.704	11.7
356.913	11.82
357.123	11.82
357.332	11.88
357.542	11.83
357.751	11.6
357.96	11.85
358.17	11.58
358.379	11.36
358.589	11.28
358.798	11.3
359.007	11.18
359.217	11.09
359.426	10.96
359.635	10.76
359.845	10.89
360.054	10.82
360.263	10.62
360.472	10.61
360.682	10.35
360.891	10.37
361.1	10.13
361.309	9.92
361.519	9.91
361.728	9.85
361.937	9.9
362.146	9.84
362.355	9.82
362.564	9.83
362.774	9.88
362.983	10.06
363.192	10.07
363.401	10.16
363.61	10.32
363.819	10.34
364.028	10.66
364.237	10.84
364.446	10.61
364.655	10.79
364.864	10.51
365.073	10.41
365.282	10.39
365.491	10.28
365.7	10.25
365.909	10.4
366.118	10.42
366.327	10.33
366.536	10.07
366.745	10.33
366.954	10.17
367.162	10.6
367.371	10.73
367.58	10.76
367.789	10.56
367.998	10.62
368.207	10.52
368.415	10.29
368.624	10.33
368.833	10.49
369.042	10.43
369.25	10.59
369.459	10.59
369.668	10.46
369.877	10.36
370.085	10.43
370.294	10.55
370.503	10.59
370.711	10.61
370.92	10.45
371.129	10.5
371.337	10.29
371.546	10.26
371.754	10.03
371.963	9.9
372.171	9.97
372.38	10.31
372.589	10.17
372.797	10.18
373.006	10.36
373.214	10.39
373.423	10.11
373.631	10.21
373.84	10.17
374.048	10.22
374.256	10.46
374.465	10.55
374.673	10.37
374.882	10.54
375.09	10.77
375.298	10.68
375.507	10.54
375.715	10.66
375.923	10.61
376.132	10.45
376.34	10.47
376.548	10.32
376.757	10.25
376.965	10.3
377.173	10.18
377.381	9.84
377.59	9.95
377.798	9.92
378.006	9.87
378.214	9.71
378.423	9.79
378.631	9.64
378.839	9.6
379.047	9.48
379.255	9.22
379.463	9.28
379.671	9.32
379.879	8.89
380.088	8.85
380.296	8.81
380.504	9.13
380.712	8.95
380.92	9.23
381.128	9.49
381.336	9.51
381.544	9.35
381.752	9.28
381.96	9.19
382.168	9.15
382.376	9.2
382.584	9.3
382.791	9.05
382.999	9.08
383.207	8.77
383.415	8.66
383.623	8.7
383.831	8.63
384.039	8.55
384.247	8.63
384.454	8.9
384.662	9.02
384.87	8.92
385.078	8.99
385.285	8.96
385.493	8.95
385.701	8.78
385.909	8.65
386.116	8.71
386.324	8.69
386.532	8.62
386.739	8.46
386.947	8.43
387.155	8.39
387.362	8.35
387.57	8.23
387.778	8.15
387.985	8.35
388.193	8.38
388.4	8.49
388.608	8.62
388.816	8.6
389.023	8.67
389.231	8.53
389.438	8.47
389.646	8.47
389.853	8.84
390.061	8.91
390.268	8.91
390.475	8.74
390.683	8.69
390.89	8.54
391.098	8.52
391.305	8.41
391.512	8.48
391.72	8.53
391.927	8.53
392.135	8.37
392.342	8.39
392.549	8.23
392.756	8.33
392.964	8.28
393.171	8.52
393.378	8.5
393.586	8.49
393.793	8.25
394	8.15
394.207	8.31
394.414	8.36
394.622	8.29
394.829	8.36
395.036	8.41
395.243	8.41
395.45	8.27
395.657	8.36
395.864	8.36
396.072	8.62
396.279	8.82
396.486	8.56
396.693	8.52
396.9	8.57
397.107	8.59
397.314	8.58
397.521	8.6
397.728	8.46
397.935	8.46
398.142	8.48
398.349	8.49
398.556	8.37
398.763	8.32
398.97	8.21
399.177	8.16
399.383	8.14
399.59	8.3
399.797	8.29
400.004	8.29
400.211	8.21
400.418	8.26
400.625	8.2
400.831	8.22
401.038	8.37
401.245	8.41
401.452	8.44
401.658	8.4
401.865	8.37
402.072	8.63
402.279	8.56
402.485	8.37
402.692	8.35
402.899	8.2
403.105	8.13
403.312	8.12
403.519	8.02
403.725	8.08
403.932	7.81
404.138	7.62
404.345	7.41
404.552	7.41
404.758	7.51
404.965	7.21
405.171	7.29
405.378	7.29
405.584	7.27
405.791	7.27
405.997	7.26
406.204	7.56
406.41	7.5
406.617	7.55
406.823	7.69
407.029	7.66
407.236	7.99
407.442	7.99
407.649	8.14
407.855	8.03
408.061	8.25
408.268	8.19
408.474	8.09
408.68	8.16
408.887	8.22
409.093	8.07
409.299	8.13
409.505	8.08
409.712	8.02
409.918	7.77
410.124	7.81
410.33	7.72
410.537	7.52
410.743	7.57
410.949	7.63
411.155	7.56
411.361	7.54
411.567	7.58
411.773	7.43
411.98	7.4
412.186	7.55
412.392	7.69
412.598	7.67
412.804	7.81
413.01	7.72
413.216	7.74
413.422	7.63
413.628	7.61
413.834	7.39
414.04	7.58
414.246	7.68
414.452	7.56
414.658	7.41
414.864	7.3
415.07	7.25
415.275	7.14
415.481	7.08
415.687	7.02
415.893	7.06
416.099	7.14
416.305	6.92
416.511	6.81
416.716	6.7
416.922	6.55
417.128	6.42
417.334	6.31
417.539	6.36
417.745	6.22
417.951	6.26
418.157	6.15
418.362	6.1
418.568	6.05
418.774	5.96
418.979	5.96
419.185	5.94
419.391	5.93
419.596	5.88
419.802	5.72
420.008	5.72
420.213	6.27
420.419	6.26
420.624	6.19
420.83	6.28
421.035	6.29
421.241	6.2
421.446	6.21
421.652	6.12
421.857	6.09
422.063	6.15
422.268	6.06
422.474	5.44
422.679	5.43
422.885	5.47
423.09	5.4
423.295	5.34
423.501	5.39
423.706	5.38
423.911	5.44
424.117	5.48
424.322	5.44
424.527	5.42
424.733	5.47
424.938	5.48
425.143	5.45
425.349	5.49
425.554	5.53
425.759	5.56
425.964	5.59
426.169	5.65
426.375	5.68
426.58	5.74
426.785	5.88
426.99	5.93
427.195	6.07
427.4	5.99
427.605	5.97
427.811	6.03
428.016	6.12
428.221	6.23
428.426	6.26
428.631	6.3
428.836	6.23
429.041	6.15
429.246	6.16
429.451	6
429.656	6.12
429.861	6.14
430.066	6.03
430.271	5.87
430.476	5.76
430.681	5.75
430.886	5.77
431.09	5.95
431.295	5.97
431.5	5.93
431.705	5.94
431.91	6.01
432.115	5.94
432.32	6.08
432.524	6.09
432.729	6.18
432.934	6.16
433.139	6.1
433.343	6.02
433.548	6.02
433.753	6.11
433.958	6.08
434.162	6.09
434.367	6.12
434.572	6.1
434.776	6.11
434.981	6.03
435.186	6.07
435.39	6.21
435.595	6.2
435.799	6.21
436.004	6.13
436.209	6.25
436.413	6.24
436.618	6.25
436.822	6.27
437.027	6.28
437.231	6.26
437.436	6.28
437.64	6.24
437.845	6.24
438.049	6.32
438.253	6.27
438.458	6.17
438.662	6.06
438.867	6.01
439.071	5.96
439.275	5.93
439.48	5.93
439.684	5.81
439.888	5.75
440.093	5.62
440.297	5.51
440.501	5.48
440.706	5.46
440.91	5.45
441.114	5.42
441.318	5.36
441.523	5.43
441.727	5.43
441.931	5.48
442.135	5.52
442.339	5.62
442.543	5.74
442.748	5.79
442.952	5.83
443.156	5.85
443.36	5.88
443.564	6
443.768	5.93
443.972	5.84
444.176	5.84
444.38	5.78
444.584	5.68
444.788	5.53
444.992	5.5
445.196	5.48
445.4	5.4
445.604	5.42
445.808	5.34
446.012	5.26
446.216	5.25
446.42	5.24
446.624	5.21
446.828	5.2
447.032	5.17
447.235	5.18
447.439	5.16
447.643	5.25
447.847	5.24
448.051	5.27
448.254	5.23
448.458	5.28
448.662	5.26
448.866	5.26
449.069	5.41
449.273	5.51
449.477	5.49
449.681	5.55
449.884	5.62
450.088	5.69
450.292	5.66
450.495	5.84
450.699	5.88
450.902	5.86
451.106	5.95
451.31	5.88
451.513	5.92
451.717	5.96
451.92	5.98
452.124	5.99
452.327	5.89
452.531	5.87
452.734	5.8
452.938	5.77
453.141	5.92
453.345	6.02
453.548	6.02
453.752	5.98
453.955	6.04
454.158	5.98
454.362	5.86
454.565	5.99
454.769	6.06
454.972	6.06
455.175	6.05
455.379	6
455.582	5.91
455.785	5.88
455.988	5.86
456.192	5.86
456.395	5.9
456.598	5.98
456.801	5.98
457.005	5.93
457.208	5.98
457.411	5.98
457.614	5.87
457.817	5.8
458.021	5.78
458.224	5.72
458.427	5.47
458.63	5.39
458.833	5.25
459.036	5.15
459.239	5.09
459.442	4.98
459.645	4.99
459.848	5
460.051	5.02
460.254	5.07
460.457	5.13
460.66	5.34
460.863	5.37
461.066	5.49
461.269	5.47
461.472	5.6
461.675	5.78
461.878	5.86
462.081	5.92
462.284	5.91
462.486	5.81
462.689	5.83
462.892	5.83
463.095	5.86
463.298	5.87
463.5	6.07
463.703	5.95
463.906	5.89
464.109	5.79
464.311	5.83
464.514	5.83
464.717	5.98
464.92	5.95
465.122	5.92
465.325	5.88
465.528	5.81
465.73	5.75
465.933	5.82
466.135	5.83
466.338	5.8
466.541	5.7
466.743	5.66
466.946	5.53
467.148	5.58
467.351	5.59
467.553	5.68
467.756	5.72
467.958	5.6
468.161	5.63
468.363	5.61
468.566	5.63
468.768	5.73
468.971	5.74
469.173	5.87
469.375	5.82
469.578	5.88
469.78	5.8
469.983	5.78
470.185	5.88
470.387	5.88
470.59	5.87
470.792	5.94
470.994	6.07
471.196	6.03
471.399	5.96
471.601	5.96
471.803	5.81
472.005	5.83
472.208	5.85
472.41	5.86
472.612	5.91
472.814	5.95
473.016	5.86
473.218	5.78
473.421	5.86
473.623	5.85
473.825	5.92
474.027	6.02
474.229	5.98
474.431	5.96
474.633	5.91
474.835	5.86
475.037	5.89
475.239	5.85
475.441	5.83
475.643	5.84
475.845	5.82
476.047	5.73
476.249	5.6
476.451	5.63
476.653	5.63
476.855	5.62
477.057	5.5
477.258	5.44
477.46	5.45
477.662	5.36
477.864	5.34
478.066	5.38
478.268	5.36
478.469	5.35
478.671	5.3
478.873	5.31
479.075	5.28
479.276	5.3
479.478	5.34
479.68	5.41
479.882	5.48
480.083	5.45
480.285	5.33
480.487	5.36
480.688	5.3
480.89	5.29
481.091	5.22
481.293	5.18
481.495	5.08
481.696	4.98
481.898	4.81
482.099	4.72
482.301	4.62
482.502	4.6
482.704	4.53
482.905	4.54
483.107	4.44
483.308	4.4
483.51	4.36
483.711	4.38
483.913	4.34
484.114	4.36
484.315	4.34
484.517	4.37
484.718	4.34
484.92	4.36
485.121	4.35
485.322	4.42
485.524	4.43
485.725	4.47
485.926	4.48
486.127	4.49
486.329	4.51
486.53	4.49
486.731	4.51
486.932	4.51
487.134	4.5
487.335	4.49
487.536	4.43
487.737	4.44
487.938	4.43
488.139	4.44
488.341	4.48
488.542	4.5
488.743	4.54
488.944	4.53
489.145	4.6
489.346	4.64
489.547	4.67
489.748	4.75
489.949	4.78
490.15	4.78
490.351	4.77
490.552	4.76
490.753	4.73
490.954	4.74
491.155	4.73
491.356	4.69
491.557	4.66
491.758	4.69
491.959	4.68
492.159	4.67
492.36	4.69
492.561	4.76
492.762	4.8
492.963	4.85
493.164	4.89
493.364	4.93
493.565	5.02
493.766	5.03
493.967	5.01
494.167	5.07
494.368	5.16
494.569	5.21
494.769	5.17
494.97	5.22
495.171	5.28
495.371	5.3
495.572	5.28
495.773	5.2
495.973	5.26
496.174	5.34
496.375	5.33
496.575	5.33
496.776	5.43
496.976	5.4
497.177	5.43
497.377	5.32
497.578	5.32
497.778	5.42
497.979	5.52
498.179	5.56
498.38	5.57
498.58	5.66
498.78	5.61
498.981	5.59
499.181	5.58
499.382	5.59
499.582	5.77
499.782	5.81
499.983	5.75
500.183	5.77
500.383	5.75
500.584	5.72
500.784	5.66
500.984	5.76
501.184	5.65
501.385	5.67
501.585	5.62
501.785	5.52
501.985	5.51
502.185	5.59
502.386	5.56
502.586	5.63
502.786	5.68
502.986	5.77
503.186	5.73
503.386	5.73
503.586	5.75
503.786	5.81
503.987	5.84
504.187	5.82
504.387	5.82
504.587	5.84
504.787	5.83
504.987	5.95
505.187	5.94
505.387	5.95
505.587	6.02
505.786	6.04
505.986	5.95
506.186	6
506.386	6.06
506.586	6.03
506.786	6
506.986	5.98
507.186	5.88
507.386	5.79
507.585	5.77
507.785	5.72
507.985	5.76
508.185	5.87
508.384	5.79
508.584	5.74
508.784	5.66
508.984	5.73
509.183	5.74
509.383	5.67
509.583	5.78
509.782	5.85
509.982	5.95
510.182	5.87
510.381	5.83
510.581	5.89
510.781	5.92
510.98	6.01
511.18	5.99
511.379	5.94
511.579	6
511.778	5.96
511.978	5.96
512.177	5.95
512.377	6.02
512.576	5.97
512.776	6
512.975	6.07
513.175	6.19
513.374	6.23
513.573	6.33
513.773	6.43
513.972	6.47
514.172	6.47
514.371	6.58
514.57	6.65
514.77	6.73
514.969	6.73
515.168	6.75
515.367	6.75
515.567	6.75
515.766	6.73
515.965	6.61
516.164	6.51
516.364	6.47
516.563	6.35
516.762	6.31
516.961	6.29
517.16	6.22
517.359	6.17
517.559	6.1
517.758	6.05
517.957	6
518.156	6.06
518.355	6.06
518.554	6.02
518.753	6.09
518.952	6.09
519.151	6.09
519.35	6.14
519.549	6.19
519.748	6.21
519.947	6.25
520.146	6.34
520.345	6.4
520.544	6.55
520.743	6.6
520.942	6.56
521.141	6.57
521.339	6.64
521.538	6.69
521.737	6.69
521.936	6.72
522.135	6.76
522.333	6.8
522.532	6.75
522.731	6.7
522.93	6.77
523.129	6.86
523.327	6.83
523.526	6.85
523.725	6.87
523.923	6.83
524.122	6.84
524.321	6.86
524.519	6.8
524.718	6.74
524.917	6.73
525.115	6.68
525.314	6.64
525.512	6.67
525.711	6.64
525.909	6.63
526.108	6.61
526.306	6.53
526.505	6.49
526.703	6.47
526.902	6.42
527.1	6.34
527.299	6.34
527.497	6.3
527.696	6.28
527.894	6.26
528.092	6.23
528.291	6.22
528.489	6.25
528.688	6.22
528.886	6.25
529.084	6.29
529.283	6.32
529.481	6.35
529.679	6.39
529.877	6.46
530.076	6.53
530.274	6.59
530.472	6.67
530.67	6.74
530.869	6.82
531.067	6.85
531.265	6.92
531.463	6.97
531.661	6.98
531.859	6.98
532.057	6.97
532.255	6.94
532.454	6.96
532.652	6.9
532.85	6.9
533.048	6.91
533.246	6.96
533.444	6.97
533.642	7.02
533.84	7.04
534.038	7.06
534.236	7.09
534.434	7.15
534.632	7.19
534.83	7.35
535.027	7.35
535.225	7.33
535.423	7.33
535.621	7.43
535.819	7.4
536.017	7.49
536.215	7.57
536.412	7.64
536.61	7.62
536.808	7.65
537.006	7.65
537.203	7.72
537.401	7.89
537.599	7.91
537.797	7.92
537.994	8.07
538.192	8.1
538.39	8.16
538.587	8.2
538.785	8.25
538.983	8.27
539.18	8.22
539.378	8.26
539.575	8.2
539.773	8.24
539.97	8.24
540.168	8.24
540.366	8.25
540.563	8.19
540.761	8.13
540.958	8.14
541.155	8.19
541.353	8.24
541.55	8.26
541.748	8.26
541.945	8.28
542.143	8.3
542.34	8.35
542.537	8.38
542.735	8.48
542.932	8.59
543.129	8.75
543.327	8.77
543.524	8.95
543.721	9.04
543.919	9.24
544.116	9.34
544.313	9.49
544.51	9.6
544.708	9.78
544.905	9.97
545.102	10.15
545.299	10.16
545.496	10.3
545.693	10.28
545.891	10.34
546.088	10.41
546.285	10.53
546.482	10.5
546.679	10.59
546.876	10.59
547.073	10.47
547.27	10.42
547.467	10.45
547.664	10.49
547.861	10.55
548.058	10.67
548.255	10.66
548.452	10.65
548.649	10.86
548.846	10.89
549.043	10.93
549.24	11.19
549.437	11.25
549.633	11.42
549.83	11.52
550.027	11.6
550.224	11.57
550.421	11.6
550.618	11.7
550.814	11.71
551.011	11.79
551.208	11.95
551.405	11.93
551.601	12.04
551.798	12.05
551.995	11.98
552.191	12
552.388	12.07
552.585	12.16
552.781	12.23
552.978	12.28
553.175	12.2
553.371	12.21
553.568	12.28
553.764	12.22
553.961	12.26
554.157	12.34
554.354	12.44
554.55	12.51
554.747	12.63
554.943	12.75
555.14	12.79
555.336	12.99
555.533	13.01
555.729	13.15
555.926	13.38
556.122	13.48
556.318	13.61
556.515	13.61
556.711	13.73
556.907	13.72
557.104	13.75
557.3	13.81
557.496	13.9
557.693	13.88
557.889	13.9
558.085	13.97
558.281	14.04
558.478	14.19
558.674	14.19
558.87	14.31
559.066	14.49
559.262	14.64
559.459	14.63
559.655	14.72
559.851	14.87
560.047	14.92
560.243	14.97
560.439	15.06
560.635	15.07
560.831	15.26
561.027	15.3
561.223	15.34
561.419	15.16
561.615	15.26
561.811	15.39
562.007	15.43
562.203	15.54
562.399	15.68
562.595	15.73
562.791	15.99
562.987	16.02
563.183	15.97
563.379	16.05
563.575	16.29
563.771	16.43
563.966	16.36
564.162	16.5
564.358	16.54
564.554	16.58
564.75	16.6
564.945	16.52
565.141	16.64
565.337	16.76
565.533	16.68
565.728	16.58
565.924	16.73
566.12	16.75
566.315	16.64
566.511	16.75
566.707	16.73
566.902	16.72
567.098	16.8
567.293	16.85
567.489	16.9
567.684	17.08
567.88	17.25
568.076	17.23
568.271	17.36
568.467	17.58
568.662	17.47
568.858	17.61
569.053	17.77
569.248	17.69
569.444	17.74
569.639	17.67
569.835	17.7
570.03	17.79
570.225	17.73
570.421	17.8
570.616	17.8
570.812	17.9
571.007	17.9
571.202	17.89
571.397	18.09
571.593	18.07
571.788	18.24
571.983	18.31
572.178	18.29
572.374	18.43
572.569	18.48
572.764	18.58
572.959	18.69
573.154	18.69
573.35	18.76
573.545	18.81
573.74	18.92
573.935	18.91
574.13	18.94
574.325	19.06
574.52	19.11
574.715	19.19
574.91	19.31
575.105	19.31
575.3	19.45
575.495	19.61
575.69	19.63
575.885	19.67
576.08	19.82
576.275	20.03
576.47	20.18
576.665	20.31
576.86	20.33
577.055	20.41
577.25	20.68
577.444	20.87
577.639	21.11
577.834	21.28
578.029	21.5
578.224	21.65
578.418	21.68
578.613	21.86
578.808	22.01
579.003	22.29
579.197	22.47
579.392	22.36
579.587	22.39
579.781	22.29
579.976	22.38
580.171	22.33
580.365	22.44
580.56	22.62
580.755	22.71
580.949	22.66
581.144	22.62
581.338	22.51
581.533	22.73
581.727	22.87
581.922	22.94
582.116	23.18
582.311	23.34
582.505	23.32
582.7	23.32
582.894	23.32
583.089	23.48
583.283	23.5
583.478	23.69
583.672	23.71
583.866	23.68
584.061	23.82
584.255	23.63
584.449	23.71
584.644	23.9
584.838	23.95
585.032	23.93
585.226	24.01
585.421	24.19
585.615	24.26
585.809	24.32
586.003	24.33
586.198	24.42
586.392	24.52
586.586	24.52
586.78	24.55
586.974	24.64
587.168	24.7
587.363	24.57
587.557	24.48
587.751	24.35
587.945	24.3
588.139	24.29
588.333	24.1
588.527	24.03
588.721	23.88
588.915	23.69
589.109	23.62
589.303	23.54
589.497	23.56
589.691	23.67
589.885	23.76
590.079	23.81
590.273	23.81
590.466	24.02
590.66	24.14
590.854	24.47
591.048	24.54
591.242	24.63
591.436	24.66
591.629	24.8
591.823	24.84
592.017	24.93
592.211	25.03
592.404	25.13
592.598	25.17
592.792	25.12
592.986	24.89
593.179	24.89
593.373	24.82
593.567	24.9
593.76	24.82
593.954	24.65
594.147	24.49
594.341	24.33
594.535	24.44
594.728	24.26
594.922	24.25
595.115	24.29
595.309	24.31
595.502	24.2
595.696	24.12
595.889	24.13
596.083	24.07
596.276	24.06
596.47	24.11
596.663	23.93
596.856	23.94
597.05	23.92
597.243	23.99
597.437	24.01
597.63	24.28
597.823	24.3
598.017	24.43
598.21	24.64
598.403	24.78
598.596	24.93
598.79	25.14
598.983	25.27
599.176	25.5
599.369	25.7
599.563	25.88
599.756	25.99
599.949	26.23
600.142	26.24
600.335	26.39
600.528	26.39
600.722	26.45
600.915	26.38
601.108	26.5
601.301	26.46
601.494	26.4
601.687	26.16
601.88	25.99
602.073	25.74
602.266	25.63
602.459	25.42
602.652	25.37
602.845	25.09
603.038	25.09
603.231	24.93
603.424	24.91
603.617	24.77
603.809	24.79
604.002	24.62
604.195	24.65
604.388	24.68
604.581	24.64
604.774	24.62
604.966	24.68
605.159	24.77
605.352	24.79
605.545	24.89
605.737	25.01
605.93	25.14
606.123	25.33
606.316	25.59
606.508	25.7
606.701	25.8
606.894	26.04
607.086	26.3
607.279	26.4
607.471	26.6
607.664	26.47
607.857	26.65
608.049	26.89
608.242	27.16
608.434	27.18
608.627	27.6
608.819	28.11
609.012	28.57
609.204	29.11
609.397	29.64
609.589	30.37
609.782	31.3
609.974	32.09
610.166	32.82
610.359	33.58
610.551	34.5
610.743	35.16
610.936	35.71
611.128	36.31
611.32	36.75
611.513	37.24
611.705	37.19
611.897	37.02
612.09	36.96
612.282	36.83
612.474	36.56
612.666	36.36
612.858	35.98
613.051	35.81
613.243	35.24
613.435	34.75
613.627	34.24
613.819	34.05
614.011	33.87
614.203	33.55
614.395	33.29
614.588	32.87
614.78	32.58
614.972	32.27
615.164	32.12
615.356	31.88
615.548	31.59
615.74	31.22
615.932	30.98
616.124	30.97
616.315	30.7
616.507	30.37
616.699	30.25
616.891	30.01
617.083	29.88
617.275	29.41
617.467	29.3
617.659	29.31
617.85	29.36
618.042	29.16
618.234	28.69
618.426	28.52
618.618	28.39
618.809	28.25
619.001	28.31
619.193	28.35
619.384	28.67
619.576	28.87
619.768	28.82
619.959	28.85
620.151	28.92
620.343	29.22
620.534	29.36
620.726	29.4
620.917	29.62
621.109	29.51
621.301	29.57
621.492	29.38
621.684	29.17
621.875	29.07
622.067	29.14
622.258	29.42
622.45	29.48
622.641	29.18
622.832	29.39
623.024	29.37
623.215	29.32
623.407	29.18
623.598	29.22
623.789	29.2
623.981	29.16
624.172	29.01
624.363	28.83
624.555	28.67
624.746	28.78
624.937	28.67
625.129	28.6
625.32	28.42
625.511	28.42
625.702	28.24
625.893	28.24
626.085	28.35
626.276	28.27
626.467	28.11
626.658	28.05
626.849	27.9
627.04	27.77
627.231	27.78
627.422	27.91
627.614	27.93
627.805	28.01
627.996	28.02
628.187	28.09
628.378	28.09
628.569	28.23
628.76	28.53
628.951	28.85
629.142	29.04
629.332	29.18
629.523	29.24
629.714	29.44
629.905	29.73
630.096	29.87
630.287	29.88
630.478	30.01
630.669	30.09
630.859	30
631.05	29.93
631.241	29.92
631.432	29.92
631.623	29.88
631.813	29.6
632.004	29.21
632.195	28.87
632.385	28.82
632.576	29.04
632.767	28.91
632.957	28.89
633.148	28.71
633.339	28.78
633.529	28.58
633.72	28.46
633.91	28.5
634.101	28.61
634.292	28.81
634.482	28.77
634.673	28.57
634.863	28.53
635.054	28.29
635.244	28.45
635.435	28.34
635.625	28.29
635.815	28.29
636.006	28.4
636.196	28.28
636.387	28.24
636.577	28.23
636.767	28.31
636.958	28.25
637.148	28.14
637.338	28.15
637.529	28.34
637.719	28.5
637.909	28.61
638.099	28.5
638.29	28.75
638.48	29.03
638.67	28.95
638.86	28.78
639.05	29.03
639.241	29.44
639.431	29.37
639.621	29.25
639.811	29.22
640.001	29.28
640.191	29.29
640.381	29.17
640.571	28.95
640.761	28.98
640.951	29.19
641.141	28.86
641.331	28.8
641.521	28.73
641.711	28.72
641.901	28.7
642.091	28.61
642.281	28.64
642.471	28.71
642.661	28.89
642.851	29.03
643.041	29.09
643.231	29.31
643.42	29.38
643.61	29.82
643.8	29.99
643.99	30.19
644.18	30.39
644.369	30.48
644.559	30.64
644.749	30.65
644.939	30.51
645.128	30.38
645.318	30.25
645.508	30.09
645.697	29.76
645.887	29.78
646.076	29.54
646.266	29.29
646.456	29.31
646.645	29.16
646.835	29.16
647.024	29.25
647.214	29.16
647.403	29.22
647.593	29.12
647.782	29.23
647.972	29
648.161	29.1
648.351	29.17
648.54	29.14
648.73	29.24
648.919	29.1
649.108	29.14
649.298	29.28
649.487	29.36
649.677	29.49
649.866	29.41
650.055	29.59
650.244	29.63
650.434	29.72
650.623	29.85
650.812	29.68
651.002	29.81
651.191	29.84
651.38	29.88
651.569	30.2
651.758	30.3
651.947	30.41
652.137	30.31
652.326	30.25
652.515	30.27
652.704	29.81
652.893	29.87
653.082	29.69
653.271	29.64
653.46	29.7
653.649	29.7
653.838	29.54
654.027	29.55
654.216	29.58
654.405	29.65
654.594	29.49
654.783	29.77
654.972	29.73
655.161	29.83
655.35	29.78
655.539	29.79
655.728	29.53
655.916	29.63
656.105	29.41
656.294	29.63
656.483	29.55
656.672	29.87
656.86	29.86
657.049	29.81
657.238	29.63
657.427	29.61
657.615	29.46
657.804	29.35
657.993	29.28
658.181	29.22
658.37	29.03
658.559	29.04
658.747	28.87
658.936	28.85
659.125	28.35
659.313	28.64
659.502	28.82
659.69	28.78
659.879	28.82
660.067	28.89
660.256	28.97
660.444	28.93
660.633	29.05
660.821	29.15
661.01	29.26
661.198	29.96
661.387	29.8
661.575	29.81
661.763	30.09
661.952	30.23
662.14	30.24
662.328	30.46
662.517	30.7
662.705	30.82
662.893	31.12
663.082	31.17
663.27	31.27
663.458	31.37
663.646	31.57
663.834	31.67
664.023	31.69
664.211	31.97
664.399	32.2
664.587	32.18
664.775	32.08
664.963	32.02
665.152	32.2
665.34	32.07
665.528	32.35
665.716	32.22
665.904	31.99
666.092	32.21
666.28	31.99
666.468	31.7
666.656	31.95
666.844	31.96
667.032	31.92
667.22	31.86
667.408	31.99
667.596	31.95
667.784	31.96
667.971	32.13
668.159	31.83
668.347	31.82
668.535	31.93
668.723	31.66
668.911	31.84
669.098	31.76
669.286	31.66
669.474	31.52
669.662	31.46
669.849	31.48
670.037	31.42
670.225	31.54
670.413	31.62
670.6	31.8
670.788	31.89
670.976	31.72
671.163	31.68
671.351	31.74
671.538	32.08
671.726	32.07
671.913	31.89
672.101	31.76
672.289	32.08
672.476	31.96
672.664	31.68
672.851	31.93
673.039	31.96
673.226	32.15
673.413	32.17
673.601	32
673.788	32.31
673.976	32.41
674.163	32.58
674.35	32.63
674.538	32.84
674.725	33.15
674.912	33.04
675.1	32.97
675.287	32.82
675.474	32.74
675.662	32.98
675.849	32.64
676.036	32.76
676.223	32.85
676.411	32.46
676.598	32.5
676.785	32.24
676.972	32.1
677.159	32.18
677.346	32.32
677.533	32.6
677.721	32.46
677.908	32.53
678.095	32.26
678.282	32.1
678.469	31.94
678.656	31.79
678.843	31.82
679.03	31.95
679.217	31.86
679.404	31.87
679.591	31.49
679.778	31.21
679.964	31.18
680.151	31.32
680.338	31.29
680.525	31.49
680.712	31.32
680.899	31.4
681.086	31.29
681.272	31.46
681.459	31.48
681.646	31.72
681.833	32.08
682.02	32.13
682.206	32.3
682.393	32.28
682.58	32.41
682.766	32.71
682.953	32.74
683.14	32.54
683.326	32.82
683.513	32.84
683.7	32.87
683.886	32.8
684.073	32.75
684.259	32.57
684.446	33.21
684.632	33.06
684.819	33.02
685.005	33.2
685.192	33.63
685.378	33.4
685.565	33.26
685.751	33.18
685.938	33.26
686.124	33.43
686.31	33.82
686.497	33.23
686.683	33.32
686.87	33.24
687.056	33.07
687.242	33.01
687.429	32.73
687.615	32.77
687.801	32.79
687.987	32.69
688.174	32.63
688.36	32.25
688.546	32.42
688.732	32.38
688.918	32.44
689.105	32.58
689.291	32.58
689.477	32.9
689.663	33.05
689.849	33.16
690.035	33.07
690.221	33.38
690.407	33.64
690.593	33.84
690.779	34.05
690.965	34.15
691.151	34.15
691.337	34.28
691.523	34.44
691.709	34.41
691.895	34.62
692.081	34.96
692.267	35.14
692.453	35.01
692.639	35.05
692.825	35.06
693.011	35.05
693.196	34.92
693.382	34.82
693.568	34.91
693.754	34.97
693.94	34.83
694.125	34.69
694.311	34.14
694.497	34.12
694.682	33.72
694.868	33.92
695.054	34.09
695.239	34.61
695.425	34.56
695.611	34.32
695.796	34.21
695.982	33.83
696.168	33.62
696.353	33.75
696.539	33.5
696.724	33.39
696.91	33.11
697.095	32.81
697.281	32.47
697.466	32.2
697.652	31.97
697.837	31.59
698.023	31.71
698.208	31.69
698.393	31.45
698.579	31.4
698.764	31.41
698.949	31.15
699.135	30.99
699.32	31
699.505	30.86
699.691	30.95
699.876	31.24
700.061	31.43
700.246	31.31
700.432	31.52
700.617	31.93
700.802	32.13
700.987	32.53
701.172	32.31
701.358	32.39
701.543	32.78
701.728	33.05
701.913	33.34
702.098	33.37
702.283	34.05
702.468	34.32
702.653	34.53
702.838	35.31
703.023	35.53
703.208	36.77
703.393	37.03
703.578	37.52
703.763	37.84
703.948	38.12
704.133	38.42
704.318	38.4
704.503	38.63
704.688	38.88
704.873	39.16
705.057	39.29
705.242	39.54
705.427	39.46
705.612	39.72
705.797	39.86
705.981	39.47
706.166	39.8
706.351	40.14
706.536	40.05
706.72	39.75
706.905	39.42
707.09	39.36
707.274	39.08
707.459	39.37
707.644	39.11
707.828	38.88
708.013	39.23
708.197	39.28
708.382	38.92
708.567	39.06
708.751	39.01
708.936	38.52
709.12	38.57
709.305	38.66
709.489	38.56
709.673	38.85
709.858	38.9
710.042	38.88
710.227	38.86
710.411	39.22
710.596	38.95
710.78	39.15
710.964	39.46
711.149	39.65
711.333	39.47
711.517	39.53
711.702	39.18
711.886	38.83
712.07	38.87
712.254	38.58
712.438	38.13
712.623	38.45
712.807	38.21
712.991	38.04
713.175	37.58
713.359	37.35
713.544	37.16
713.728	37.14
713.912	37.07
714.096	36.57
714.28	36.28
714.464	36.23
714.648	35.75
714.832	35.64
715.016	35.43
715.2	35.43
715.384	35.52
715.568	35.61
715.752	35.44
715.936	35.52
716.12	35.23
716.304	35.21
716.488	35.24
716.671	35.01
716.855	35.01
717.039	34.96
717.223	35.01
717.407	34.76
717.59	34.34
717.774	34.23
717.958	33.99
718.142	34.52
718.325	34.32
718.509	34.18
718.693	34.25
718.877	34.32
719.06	34.26
719.244	34.53
719.428	35.09
719.611	35.84
719.795	35.91
719.978	36.88
720.162	37.22
720.345	37.57
720.529	38.14
720.713	38.77
720.896	38.61
721.08	38.93
721.263	39.17
721.446	39.42
721.63	38.73
721.813	39.14
721.997	39.01
722.18	38.84
722.364	39.11
722.547	38.43
722.73	38.13
722.914	38.33
723.097	38.2
723.28	37.62
723.464	37.16
723.647	37.51
723.83	36.82
724.013	36.15
724.197	36.17
724.38	35.93
724.563	36.42
724.746	36.62
724.929	36.52
725.112	36.61
725.296	36.39
725.479	36.53
725.662	36.54
725.845	36.89
726.028	36.93
726.211	36.97
726.394	36.94
726.577	37.23
726.76	36.74
726.943	36.48
727.126	36.19
727.309	36.22
727.492	36.22
727.675	36.19
727.858	36.22
728.041	35.91
728.224	35.89
728.407	35.92
728.589	35.64
728.772	35.81
728.955	36.2
729.138	36.25
729.321	36.43
729.503	36.24
729.686	35.72
729.869	35.93
730.052	36.49
730.234	36.43
730.417	36.68
730.6	36.29
730.782	36.5
730.965	36.41
731.148	36.59
731.33	36.91
731.513	36.79
731.695	37.26
731.878	37.36
732.061	37.29
732.243	37.14
732.426	37.12
732.608	37.57
732.791	37.39
732.973	37.5
733.156	37.7
733.338	37.37
733.52	37.83
733.703	37.71
733.885	37.86
734.068	37.95
734.25	38.4
734.432	38.23
734.615	38.48
734.797	38.71
734.979	38.59
735.162	38.42
735.344	38.55
735.526	38.37
735.708	38.86
735.891	38.66
736.073	39.11
736.255	38.97
736.437	39.21
736.619	39.4
736.802	39.79
736.984	40.07
737.166	41.11
737.348	41.01
737.53	41.02
737.712	41.03
737.894	40.98
738.076	40.63
738.258	40.35
738.44	40.3
738.622	39.82
738.804	39.74
738.986	40.03
739.168	39.09
739.35	39.53
739.532	40.02
739.714	39.83
739.896	39.73
740.078	39.8
740.259	40.07
740.441	40.58
740.623	40.93
740.805	41.13
740.987	40.94
741.168	41.81
741.35	42.1
741.532	42.07
741.714	42.75
741.895	43.08
742.077	43.24
742.259	43.99
742.44	43.52
742.622	43.33
742.804	43.36
742.985	43.67
743.167	43.16
743.348	43.16
743.53	43.28
743.711	42.97
743.893	42.92
744.075	42.92
744.256	42.58
744.438	42.9
744.619	43.08
744.8	43.34
744.982	43.74
745.163	43.78
745.345	43.52
745.526	43.75
745.707	43.62
745.889	43.79
746.07	43.93
746.252	43.98
746.433	43.99
746.614	44.08
746.795	43.6
746.977	43.21
747.158	43.41
747.339	43.73
747.52	44.12
747.702	43.89
747.883	44.1
748.064	44.43
748.245	44.08
748.426	44.08
748.607	44.64
748.788	44.73
748.97	44.92
749.151	44.85
749.332	44.64
749.513	43.93
749.694	44
749.875	44.54
750.056	44.47
750.237	45.43
750.418	45.8
750.599	45.52
750.78	45.43
750.96	46.03
751.141	46.04
751.322	45.85
751.503	45.89
751.684	46.58
751.865	45.94
752.046	45.73
752.226	44.48
752.407	43.49
752.588	43.31
752.769	43.72
752.949	43.01
753.13	43.26
753.311	43.54
753.492	43.71
753.672	43.87
753.853	43.85
754.034	43.63
754.214	43.98
754.395	44.76
754.575	45.26
754.756	45.31
754.937	45.73
755.117	45.85
755.298	46.24
755.478	45.97
755.659	45.83
755.839	45.98
756.02	46.65
756.2	46.5
756.381	46.24
756.561	46.04
756.741	45.88
756.922	45.42
757.102	45.01
757.283	44.77
757.463	44.92
757.643	44.47
757.823	43.89
758.004	43.02
758.184	43.1
758.364	42.78
758.545	41.42
758.725	40.18
758.905	39.63
759.085	39.89
759.265	39.62
759.446	39.19
759.626	38.63
759.806	38.31
759.986	38.26
760.166	38.14
760.346	37.91
760.526	38.03
760.706	38.73
760.886	39.01
761.066	38.57
761.246	38.21
761.426	37.91
761.606	38.22
761.786	37.99
761.966	37.45
762.146	36.46
762.326	36.29
762.506	36.97
762.686	36.47
762.866	35.79
763.046	35.2
763.225	34.96
763.405	34.83
763.585	34.3
763.765	34.73
763.945	34.74
764.124	35.08
764.304	35.26
764.484	35.32
764.664	35.88
764.843	36.2
765.023	36.62
765.203	37.31
765.382	37.77
765.562	38.51
765.741	38.95
765.921	39.86
766.101	40.85
766.28	41.25
766.46	41.37
766.639	41.52
766.819	42.32
766.998	42.85
767.178	42.84
767.357	43.38
767.537	43.92
767.716	44.25
767.896	44.67
768.075	44.55
768.254	45.29
768.434	46.26
768.613	46.91
768.792	46.95
768.972	47.46
769.151	47.72
769.33	47.66
769.51	47.52
769.689	47.39
769.868	47.3
770.047	48.07
770.226	47.8
770.406	47.26
770.585	47.7
770.764	48.01
770.943	47.51
771.122	47.53
771.301	47.78
771.48	48.22
771.66	48.16
771.839	47.79
772.018	47.11
772.197	47.28
772.376	46.72
772.555	46.19
772.734	45.66
772.913	45.82
773.092	45.75
773.271	46.03
773.449	46.02
773.628	46.41
773.807	47.07
773.986	47.2
774.165	47.24
774.344	48.16
774.523	48.13
774.701	49.58
774.88	50.9
775.059	52.12
775.238	51.28
775.417	50.94
775.595	51.86
775.774	52.31
775.953	52.6
776.131	53.27
776.31	52.68
776.489	53.27
776.667	52.98
776.846	52.87
777.025	51.76
777.203	52.21
777.382	52.3
777.56	51.21
777.739	50.65
777.917	50.48
778.096	50.7
778.274	50.64
778.453	50.35
778.631	50.14
778.81	50.12
778.988	49.69
779.166	49.84
779.345	50.06
779.523	50.23
779.702	51.43
779.88	51.74
780.058	51.57
780.237	52.71
780.415	52.89
780.593	52.33
780.771	51.62
780.95	52.18
781.128	53.15
781.306	54.07
781.484	54.64
781.662	52.75
781.841	52.76
782.019	51.64
782.197	50.52
782.375	49.88
782.553	50.69
782.731	50.96
782.909	51.93
783.087	51.18
783.265	50
783.443	49.6
783.621	51.29
783.799	52.03
783.977	53.26
784.155	54.34
784.333	55.37
784.511	54.37
784.689	53.99
784.867	54.18
785.045	54.26
785.223	54.8
785.4	54.94
785.578	53.44
785.756	53.42
785.934	53.52
786.112	52.91
786.289	52.47
786.467	52.63
786.645	53.07
786.823	51.77
787	50.07
787.178	49.96
787.356	49.09
787.533	48.7
787.711	48.03
787.889	46.92
788.066	46.95
788.244	46.6
788.421	46.03
788.599	44.54
788.776	46.06
788.954	47.42
789.131	47.01
789.309	48.2
789.486	49.49
789.664	49.92
789.841	50.3
790.019	50.34
790.196	50.26
790.373	50.71
790.551	52.34
790.728	51.56
790.906	52.05
791.083	52.72
791.26	51.64
791.437	51.24
791.615	50.85
791.792	51.27
791.969	51.94
792.146	52.03
792.324	52.03
792.501	51.05
792.678	51.1
792.855	50.52
793.032	50.69
793.209	52.22
793.387	52.27
793.564	52.03
793.741	52.43
793.918	51.08
794.095	50.61
794.272	50.9
794.449	51.71
794.626	50.59
794.803	50.63
794.98	50.58
795.157	49.23
795.334	49.58
795.511	50.13
795.688	49.06
795.864	49.14
796.041	49.86
796.218	50.35
796.395	49.87
796.572	50.05
796.749	50.04
796.925	49.61
797.102	49.61
797.279	49.7
797.456	49.29
797.632	48.92
797.809	49.67
797.986	48.95
798.162	50.52
798.339	50.16
798.516	51.41
798.692	51.91
798.869	52.21
799.046	51.98
799.222	52.12
799.399	52.38
799.575	53.27
799.752	53.41
799.928	55.62
800.105	54.3
800.281	55.32
800.458	55.11
800.634	55.08
800.811	54.29
800.987	55.22
801.163	54.83
801.34	55.3
801.516	56.01
801.692	55.83
801.869	53.87
802.045	52.9
802.221	52.77
802.398	52.81
802.574	52.37
802.75	54.2
802.926	54.18
803.103	54.14
803.279	54.47
803.455	53.69
803.631	53.31
803.807	54.86
803.983	56.17
804.16	57.7
804.336	57.43
804.512	58.08
804.688	57.81
804.864	57.26
805.04	58.36
805.216	57.14
805.392	58.25
805.568	58.56
805.744	57.61
805.92	57.14
806.096	55.05
806.272	55.73
806.448	55.53
806.623	54.53
806.799	54.26
806.975	52.63
807.151	53.97
807.327	53.6
807.503	54.99
807.678	56.28
807.854	55.09
808.03	55.17
808.206	54.65
808.381	55.84
808.557	56.18
808.733	56.68
808.908	57.64
809.084	56.41
809.26	56.41
809.435	55.32
809.611	53.63
809.787	53.7
809.962	55.23
810.138	55.99
810.313	56.77
810.489	56.77
810.664	57.27
810.84	56.66
811.015	57.02
811.191	56.66
811.366	56.45
811.542	58.01
811.717	58.9
811.892	58.56
812.068	58.62
812.243	56.61
812.419	57.21
812.594	57
812.769	57.87
812.944	58.64
813.12	58.59
813.295	58.8
813.47	58.24
813.645	56.66
813.821	55.45
813.996	54.36
814.171	55.31
814.346	54.77
814.521	55.25
814.697	55.23
814.872	55.09
815.047	56.1
815.222	55.84
815.397	54.89
815.572	56.58
815.747	57.62
815.922	56.69
816.097	56.62
816.272	56.1
816.447	55.4
816.622	55.47
816.797	55.12
816.972	54.31
817.147	55.52
817.322	55.66
817.496	53.67
817.671	53.2
817.846	54.68
818.021	53.4
818.196	54.25
818.371	54.76
818.545	53.66
818.72	53.74
818.895	53.57
819.069	51.01
819.244	49.86
819.419	49.27
819.594	48.36
819.768	46.65
819.943	45.39
820.117	42.7
820.292	41.14
820.467	39.57
820.641	38.01
820.816	36.1
820.99	35.22
821.165	33.77
821.339	33.04
821.514	32
821.688	31.37
821.863	30.45
822.037	30.25
822.212	29.65
822.386	29.27
822.56	28.75
822.735	28.5
822.909	28.36
823.084	28.56
823.258	28.51
823.432	28.42
823.606	28.36
823.781	28.83
823.955	29.02
824.129	29.3
824.303	29.75
824.478	30.13
824.652	30.84
824.826	31.24
825	31.59
825.174	32.24
825.348	33.06
825.523	33.42
825.697	33.38
825.871	33.36
826.045	33.56
826.219	33.75
826.393	33.96
826.567	33.94
826.741	34
826.915	34.07
827.089	34.12
827.263	33.54
827.437	33.99
827.611	34.3
827.784	34.52
827.958	34.78
828.132	34.8
828.306	35.28
828.48	35.39
828.654	36.12
828.827	36.78
829.001	37.14
829.175	38.71
829.349	39.88
829.522	41.09
829.696	41.72
829.87	43.05
830.044	44.04
830.217	45.15
830.391	46.3
830.565	46.88
830.738	46.94
830.912	48.25
831.085	48.19
831.259	48.22
831.432	48.86
831.606	50.5
831.779	48.58
831.953	49.69
832.126	48.21
832.3	47.11
832.473	45.1
832.647	44.64
832.82	43.94
832.994	43.75
833.167	43.07
833.34	41.75
833.514	40.85
833.687	40.71
833.86	39.59
834.034	39.33
834.207	39.17
834.38	39.44
834.553	39.46
834.727	39.16
834.9	39.2
835.073	39.17
835.246	39.72
835.419	40.49
835.593	41.3
835.766	41.95
835.939	43.13
836.112	44.27
836.285	45.86
836.458	47.51
836.631	49.49
836.804	50.21
836.977	52.17
837.15	53.15
837.323	55.02
837.496	56.81
837.669	58.15
837.842	57.91
838.015	59.25
838.188	60.24
838.361	61.21
838.533	60.79
838.706	61.37
838.879	60.54
839.052	61.69
839.225	59.89
839.398	60.67
839.57	62.01
839.743	65.45
839.916	65.59
840.088	63.82
840.261	62.17
840.434	63.85
840.607	65.18
840.779	64.76
840.952	63.02
841.124	63.57
841.297	62.72
841.47	61.63
841.642	60.85
841.815	60.21
841.987	63.57
842.16	64.92
842.332	64.48
842.505	65.6
842.677	68.56
842.85	72.28
843.022	71.66
843.194	73.92
843.367	77.8
843.539	77.95
843.712	80.36
843.884	80.61
844.056	79.97
844.229	80.99
844.401	81.48
844.573	82.18
844.745	84.52
844.918	88.42
845.09	88.76
845.262	89.91
845.434	92.37
845.606	95.72
845.779	95.22
845.951	98.55
846.123	98.66
846.295	100.19
846.467	101.18
846.639	99.54
846.811	98.56
846.983	101.37
847.155	98.58
847.327	103.47
847.499	101.18
847.671	101.3
847.843	100.26
848.015	102.99
848.187	101.36
848.359	96.56
848.531	97.25
848.703	94.76
848.875	93.15
849.047	92.36
849.218	85.82
849.39	90.03
849.562	92.79
849.734	95.68
849.905	90.98
850.077	93.62
850.249	99
850.421	101.62
850.592	106.03
850.764	106.53
850.936	109.81
851.107	113.96
851.279	111.66
851.451	111.8
851.622	113.84
851.794	120.25
851.965	120.57
852.137	118.13
852.308	113.41
852.48	112.27
852.651	108.11
852.823	108.05
852.994	105.11
853.166	102.92
853.337	103.53
853.509	101.04
853.68	97.46
853.851	90.49
854.023	94.47
854.194	94.11
854.365	94.04
854.537	100.89
854.708	98.59
854.879	102.46
855.05	102.06
855.222	100.57
855.393	100.6
855.564	101.31
855.735	105.67
855.906	105.76
856.078	105.76
856.249	103.92
856.42	99.73
856.591	100.78
856.762	99.37
856.933	100.92
857.104	101.54
857.275	101.67
857.446	103.1
857.617	104.89
857.788	106.42
857.959	108.25
858.13	112.42
858.301	110.88
858.472	113.64
858.643	108.59
858.814	106.76
858.985	105.2
859.155	110.73
859.326	110.9
859.497	109.47
859.668	107.8
859.839	109.58
860.009	112.21
860.18	115.5
860.351	112.06
860.522	119.91
860.692	120.07
860.863	119.13
861.034	113.55
861.204	114.11
861.375	116.07
861.546	115.32
861.716	114.75
861.887	111.66
862.057	110.62
862.228	109.5
862.398	105.96
862.569	106.98
862.739	108.87
862.91	111.22
863.08	107.02
863.251	106.63
863.421	107.98
863.592	104.92
863.762	105.27
863.932	103.94
864.103	109.27
864.273	110.48
864.443	110.16
864.614	111.5
864.784	107.16
864.954	110.13
865.125	105.19
865.295	102.03
865.465	104.36
865.635	105.77
865.805	104.31
865.976	99.63
866.146	97.92
866.316	101.96
866.486	101.52
866.656	103.26
866.826	107.77
866.996	115.7
867.166	115.55
867.336	115.31
867.506	122.37
867.676	128.29
867.846	127.36
868.016	130.01
868.186	119
868.356	114.74
868.526	114.91
868.696	112.58
868.866	104.83
869.036	111.94
869.206	115.86
869.376	104.73
869.545	103.25
869.715	103.79
869.885	102.94
870.055	107.35
870.224	108.83
870.394	112.62
870.564	112.88
870.734	120.47
870.903	114.87
871.073	110.13
871.243	109.22
871.412	108.55
871.582	112.59
871.751	107.13
871.921	103.25
872.091	104.14
872.26	99.3
872.43	96.38
872.599	90.17
872.769	92.99
872.938	93.77
873.108	92.32
873.277	91.41
873.446	88.85
873.616	95.97
873.785	99.4
873.955	102.12
874.124	105.02
874.293	107.45
874.463	108.13
874.632	103.03
874.801	104.67
874.971	109.22
875.14	115.07
875.309	110.91
875.478	111.78
875.647	109.77
875.817	109.63
875.986	103.43
876.155	103.16
876.324	101.79
876.493	103.51
876.662	104.24
876.831	106.42
877	100.48
877.17	102.5
877.339	100.15
877.508	99.42
877.677	94.79
877.846	96.91
878.015	95.27
878.184	97.94
878.352	100
878.521	96.51
878.69	97.76
878.859	98.49
879.028	98.66
879.197	95.45
879.366	93.82
879.534	91.69
879.703	86.32
879.872	79.67
880.041	73.82
880.21	66.86
880.378	61.22
880.547	54.72
880.716	51.12
880.884	48.05
881.053	45
881.222	42.01
881.39	40.16
881.559	38.54
881.727	36.8
881.896	36.63
882.065	35.76
882.233	35.36
882.402	34.98
882.57	34.69
882.739	34.46
882.907	34.66
883.076	35.4
883.244	35.46
883.412	36.26
883.581	37.22
883.749	37.42
883.918	38.01
884.086	39.73
884.254	41.51
884.423	43.29
884.591	44.47
884.759	46.19
884.927	47.84
885.096	48.88
885.264	51.14
885.432	53.2
885.6	55.33
885.769	58.62
885.937	61.01
886.105	61.9
886.273	61.43
886.441	65.67
886.609	68.7
886.777	70.64
886.945	72.94
887.113	76.04
887.281	76.2
887.449	80.96
887.617	86.4
887.785	84.78
887.953	85.56
888.121	89.19
888.289	91.55
888.457	90.26
888.625	93.45
888.793	102.56
888.961	101.03
889.129	107.44
889.296	103.03
889.464	98.47
889.632	102.51
889.8	105.51
889.967	107.85
890.135	107.55
