Data from 2938720__Reflection_03.txt Node
Date: Tue Mar 17 10:57:33 EDT 2015
User: robert
Spectrometer: USB4E03002
Autoset integration time: false
Trigger mode: 4
Integration Time (sec): 1.000000E-1
Scans to average: 10
Electric dark correction enabled: false
Nonlinearity correction enabled: false
Boxcar width: 5
Stray light correction enabled: false
XAxis mode: Wavelengths
Stop averaging: false
Number of Pixels in Spectrum: 3648
>>>>>Begin Spectral Data<<<<<
177.575	-421.74
177.794	-948.94
178.014	-391.43
178.233	-347.2
178.452	-834.55
178.672	-857.63
178.891	-382.69
179.11	-425.35
179.33	-14.45
179.549	-35.37
179.768	-271.43
179.987	-518.75
180.207	-189.41
180.426	415.28
180.645	224.29
180.864	131.23
181.084	107.67
181.303	111.59
181.522	175.98
181.741	201.21
181.96	148.8
182.179	122.95
182.398	161.64
182.618	90.82
182.837	180.26
183.056	287.37
183.275	-820
183.494	-297.27
183.713	-100.48
183.932	-14.33
184.151	-128.81
184.37	-235.88
184.589	-429.81
184.808	-245
185.027	-196.05
185.246	-91.26
185.465	-164.86
185.684	18.38
185.903	-13.03
186.122	-266.02
186.341	-2050
186.56	840
186.779	-437.5
186.998	453.85
187.216	246.49
187.435	159.77
187.654	137.1
187.873	311.11
188.092	194.89
188.311	72.33
188.53	79.38
188.748	127.89
188.967	88.5
189.186	28.25
189.405	10.19
189.623	-310.19
189.842	3140
190.061	-216.98
190.28	39.19
190.498	56
190.717	135.62
190.936	39.57
191.154	41.49
191.373	22.74
191.592	45.88
191.81	89.26
192.029	97.7
192.248	57.72
192.466	27.14
192.685	53.52
192.904	58.17
193.122	73.58
193.341	41.55
193.559	52.23
193.778	50.9
193.996	28.2
194.215	32.88
194.433	43.07
194.652	35.99
194.87	33.13
195.089	-8.24
195.307	43.3
195.526	19.37
195.744	364.38
195.963	-797.44
196.181	-164.88
196.399	-323.4
196.618	-88.22
196.836	-41.98
197.055	-126
197.273	-203.96
197.491	-427.4
197.71	-273.58
197.928	81.21
198.146	-29.91
198.365	-68.68
198.583	-103.87
198.801	-38.8
199.019	-23.93
199.238	-39.2
199.456	-54.46
199.674	-30.34
199.892	-90.31
200.111	-58.8
200.329	-127.24
200.547	-443.48
200.765	-92.86
200.983	-62.23
201.202	-171.62
201.42	-304.35
201.638	-131.1
201.856	-51.32
202.074	-18.39
202.292	29.65
202.51	41.85
202.728	53.88
202.946	76.66
203.165	62.23
203.383	90.63
203.601	98.49
203.819	106.08
204.037	78.72
204.255	69.77
204.473	41.04
204.691	81.82
204.909	38.86
205.127	30.92
205.345	40.67
205.562	55.76
205.78	72.76
205.998	-16.21
206.216	-55.08
206.434	15.27
206.652	24.26
206.87	26.8
207.088	26.77
207.306	5.1
207.523	14.17
207.741	1.91
207.959	1.97
208.177	-11.94
208.395	6.22
208.612	12.94
208.83	-20.62
209.048	-16.17
209.266	-44.03
209.483	15.29
209.701	33.6
209.919	40.63
210.136	23.2
210.354	19.26
210.572	20.09
210.79	41.16
211.007	35.4
211.225	49.63
211.442	22.74
211.66	41.05
211.878	12.5
212.095	-93.13
212.313	-68.06
212.53	-104.8
212.748	-110.22
212.966	-133.21
213.183	-181.64
213.401	-177.9
213.618	-192.32
213.836	-155.78
214.053	-139.8
214.271	-199.39
214.488	-24.01
214.705	-35.67
214.923	-3.43
215.14	-22.54
215.358	4.92
215.575	36.78
215.793	44.52
216.01	24.95
216.227	13.32
216.445	-9.12
216.662	-10.63
216.879	-22.99
217.097	-49.09
217.314	-45.18
217.531	-20.71
217.749	-8.23
217.966	-27.44
218.183	-47.91
218.4	-11.82
218.618	7.56
218.835	5.1
219.052	12.18
219.269	19.91
219.487	18.6
219.704	18.03
219.921	13.5
220.138	7.92
220.355	6.96
220.572	16.86
220.79	5.79
221.007	-8.98
221.224	3.04
221.441	5.96
221.658	-10.63
221.875	-4.85
222.092	-13.02
222.309	5.99
222.526	3.68
222.743	-3.77
222.96	-15.1
223.177	-16.57
223.394	-16.74
223.611	-16.58
223.828	-18.51
224.045	-19.07
224.262	-9.75
224.479	-1.3
224.696	-9.25
224.913	-10.57
225.13	-1.86
225.347	5.45
225.564	8.34
225.781	8.99
225.997	8.27
226.214	8.22
226.431	12.13
226.648	10
226.865	7.42
227.082	6.36
227.298	4.62
227.515	2.28
227.732	2.93
227.949	2.16
228.165	3.48
228.382	3.55
228.599	3.6
228.816	3.47
229.032	2.81
229.249	3.16
229.466	3.02
229.682	3.92
229.899	4.67
230.116	4.2
230.332	4.08
230.549	3.13
230.765	2.75
230.982	3.75
231.199	3.32
231.415	3.85
231.632	3.31
231.848	1.72
232.065	2.35
232.281	1.64
232.498	0.47
232.714	3.47
232.931	3.7
233.147	2.57
233.364	-0.54
233.58	0.61
233.797	-1.15
234.013	-1.06
234.23	1.5
234.446	0.22
234.662	1.06
234.879	0.63
235.095	-0.76
235.312	-1.46
235.528	-2.38
235.744	-1.8
235.961	-1.65
236.177	-0.27
236.393	1.46
236.61	2.19
236.826	3.49
237.042	1.77
237.258	1.65
237.475	1.37
237.691	3.29
237.907	3.01
238.123	4.1
238.339	3.39
238.556	3.86
238.772	3.21
238.988	1.55
239.204	1.51
239.42	3.61
239.636	3.61
239.853	4.34
240.069	3.75
240.285	6.26
240.501	5.26
240.717	5.33
240.933	5.11
241.149	4.77
241.365	4.59
241.581	3.7
241.797	3.14
242.013	3.14
242.229	2.61
242.445	2.75
242.661	2.52
242.877	2.78
243.093	2.96
243.309	2.68
243.525	2.6
243.741	2.57
243.957	2.74
244.173	3.01
244.388	3.61
244.604	3.67
244.82	3.76
245.036	3.22
245.252	3.71
245.468	3.28
245.683	3.58
245.899	3.72
246.115	3.46
246.331	3.22
246.547	3.19
246.762	2.82
246.978	3.03
247.194	2.94
247.409	3.25
247.625	3.1
247.841	3
248.057	3.01
248.272	3.03
248.488	3.5
248.703	3.54
248.919	3.35
249.135	3.32
249.35	3.21
249.566	3.44
249.782	2.95
249.997	2.32
250.213	2.78
250.428	2.88
250.644	2.56
250.859	1.98
251.075	2.52
251.29	3.01
251.506	3.52
251.721	3.82
251.937	3.84
252.152	3.88
252.368	3.44
252.583	2.66
252.798	2.35
253.014	2.63
253.229	3.12
253.445	3.39
253.66	2.79
253.875	2.2
254.091	1.73
254.306	1.52
254.521	1.85
254.737	2.61
254.952	2.75
255.167	2.63
255.383	1.99
255.598	1.3
255.813	1.49
256.028	2.23
256.244	3.14
256.459	3.12
256.674	2.71
256.889	2.59
257.104	2.7
257.32	3.07
257.535	3.19
257.75	3.01
257.965	2.67
258.18	1.82
258.395	1.76
258.61	1.76
258.826	1.67
259.041	2.12
259.256	1.99
259.471	2.01
259.686	2.05
259.901	1.94
260.116	1.95
260.331	2.06
260.546	2.27
260.761	2.34
260.976	2.29
261.191	2.27
261.406	2.15
261.621	1.97
261.836	1.83
262.05	1.77
262.265	1.88
262.48	1.67
262.695	1.55
262.91	1.64
263.125	1.64
263.34	1.84
263.555	2.28
263.769	2.06
263.984	2.79
264.199	2.66
264.414	3.41
264.629	2.79
264.843	3.34
265.058	3.58
265.273	2.8
265.488	2.66
265.702	2.25
265.917	2.46
266.132	2.7
266.346	1.96
266.561	2.71
266.776	2.18
266.99	2.45
267.205	2.24
267.42	2.45
267.634	2.74
267.849	2.74
268.063	2.97
268.278	2.92
268.492	2.61
268.707	3.36
268.922	2.55
269.136	2.92
269.351	2.95
269.565	3.4
269.78	3.21
269.994	3.03
270.209	2.98
270.423	2.96
270.637	2.69
270.852	2.75
271.066	2.01
271.281	2.54
271.495	2
271.709	1.88
271.924	1.72
272.138	1.69
272.353	1.94
272.567	1.46
272.781	1.66
272.996	2.12
273.21	1.92
273.424	2.26
273.638	2.04
273.853	1.99
274.067	2.41
274.281	2.26
274.495	2.32
274.71	2.07
274.924	2.54
275.138	2.36
275.352	1.76
275.566	1.7
275.781	2.36
275.995	2.87
276.209	3.06
276.423	2.89
276.637	3.11
276.851	2.98
277.065	2.82
277.279	2.85
277.493	2.91
277.707	3.03
277.921	3.57
278.135	2.97
278.349	2.45
278.563	2.34
278.777	2.5
278.991	2.17
279.205	2.61
279.419	3
279.633	3.12
279.847	2.85
280.061	2.68
280.275	1.84
280.489	1.96
280.703	2.27
280.917	2.26
281.131	1.92
281.344	2.25
281.558	1.94
281.772	1.63
281.986	1.71
282.2	1.61
282.414	1.43
282.627	1.69
282.841	2.24
283.055	2.19
283.269	2.31
283.482	2.92
283.696	2.64
283.91	2.36
284.123	2.76
284.337	2.39
284.551	2.62
284.764	3.09
284.978	3.3
285.192	2.98
285.405	2.89
285.619	3.03
285.833	2.38
286.046	2.45
286.26	3.02
286.473	2.94
286.687	3.24
286.9	2.96
287.114	2.74
287.327	2.78
287.541	2.55
287.754	2.56
287.968	2.51
288.181	2.85
288.395	3.03
288.608	2.63
288.822	2.32
289.035	2
289.248	2.37
289.462	2.47
289.675	2.23
289.889	2.25
290.102	2.46
290.315	2.49
290.529	2.8
290.742	2.8
290.955	3.1
291.169	3.31
291.382	3.51
291.595	3.61
291.808	3.36
292.022	3.62
292.235	3.75
292.448	3.43
292.661	3.57
292.875	3.31
293.088	3.4
293.301	3.24
293.514	3.05
293.727	2.91
293.94	2.96
294.153	3.32
294.367	3.2
294.58	2.94
294.793	3.31
295.006	3.1
295.219	2.86
295.432	2.48
295.645	2.45
295.858	2.84
296.071	3
296.284	2.84
296.497	2.89
296.71	2.96
296.923	3
297.136	2.62
297.349	2.52
297.562	2.73
297.775	2.94
297.988	2.71
298.201	2.56
298.414	2.52
298.626	2.67
298.839	2.34
299.052	2.59
299.265	2.41
299.478	2.47
299.691	2.42
299.903	2.32
300.116	2.15
300.329	2.4
300.542	2.5
300.755	2.32
300.967	1.88
301.18	1.95
301.393	1.64
301.605	1.64
301.818	1.75
302.031	1.68
302.243	1.61
302.456	1.75
302.669	2.03
302.881	1.7
303.094	2.18
303.307	2.26
303.519	2.84
303.732	2.67
303.944	3.08
304.157	3.1
304.37	3.36
304.582	3.5
304.795	3.4
305.007	3.51
305.22	3.74
305.432	3.4
305.645	3.76
305.857	3.33
306.069	3.5
306.282	3.23
306.494	3.19
306.707	2.94
306.919	3.01
307.132	3.18
307.344	2.77
307.556	2.53
307.769	2.93
307.981	2.6
308.193	2.47
308.406	2.69
308.618	2.74
308.83	2.8
309.043	3.25
309.255	3.22
309.467	2.92
309.679	2.99
309.892	3.32
310.104	3.2
310.316	3.47
310.528	3.65
310.74	3.41
310.953	3.62
311.165	3.87
311.377	4.1
311.589	4.18
311.801	4.58
312.013	4.68
312.225	4.67
312.437	4.6
312.649	4.66
312.862	4.76
313.074	4.98
313.286	4.94
313.498	4.9
313.71	4.54
313.922	4.2
314.134	4.17
314.346	4.24
314.558	4.34
314.77	4.35
314.982	4.32
315.193	4.35
315.405	4.2
315.617	4.76
315.829	4.51
316.041	5.02
316.253	5.15
316.465	5.23
316.677	4.98
316.888	5.27
317.1	5.42
317.312	5.26
317.524	5.45
317.736	5.75
317.947	5.82
318.159	6.48
318.371	5.81
318.583	6.18
318.794	6.03
319.006	6.34
319.218	6.33
319.43	6.51
319.641	6.78
319.853	6.46
320.064	6.71
320.276	6.3
320.488	6.44
320.699	6.81
320.911	6.37
321.123	6.05
321.334	5.71
321.546	5.96
321.757	6.3
321.969	6.58
322.18	6.64
322.392	6.34
322.603	6.29
322.815	6.06
323.026	6.15
323.238	7.12
323.449	7.46
323.661	7.63
323.872	7.2
324.083	6.75
324.295	6.61
324.506	6.65
324.718	6.67
324.929	6.82
325.14	6.55
325.352	6.27
325.563	6.23
325.774	6.18
325.986	6.43
326.197	6.54
326.408	6.63
326.62	6.48
326.831	6.58
327.042	6.62
327.253	6.79
327.464	7.45
327.676	7.97
327.887	7.84
328.098	8.28
328.309	8.44
328.52	8.75
328.732	8.98
328.943	9.21
329.154	9.76
329.365	10.2
329.576	9.78
329.787	9.51
329.998	9.63
330.209	9.58
330.42	9.87
330.631	9.94
330.842	10.2
331.053	10.47
331.264	11.03
331.475	10.66
331.686	10.82
331.897	11.3
332.108	11.48
332.319	11.73
332.53	11.68
332.741	11.55
332.952	11.68
333.163	11.36
333.374	11.61
333.585	11.5
333.795	11.86
334.006	11.6
334.217	11.42
334.428	11.23
334.639	11.14
334.849	11.26
335.06	11.24
335.271	11.42
335.482	11.79
335.692	11.53
335.903	11.54
336.114	11.42
336.325	11.48
336.535	11.95
336.746	12.2
336.957	12.09
337.167	12.38
337.378	12.24
337.589	11.96
337.799	11.75
338.01	11.8
338.22	11.62
338.431	11.41
338.642	11.57
338.852	11.3
339.063	11.25
339.273	11.18
339.484	10.75
339.694	11.07
339.905	10.89
340.115	10.82
340.326	10.4
340.536	10.7
340.746	10.76
340.957	10.94
341.167	11.43
341.378	11.52
341.588	11.61
341.799	11.65
342.009	11.6
342.219	11.8
342.43	11.88
342.64	12.02
342.85	11.61
343.061	12
343.271	11.85
343.481	11.46
343.691	11.31
343.902	11.2
344.112	11.08
344.322	11.04
344.532	10.96
344.743	10.88
344.953	10.92
345.163	11.38
345.373	11.15
345.583	11.15
345.793	10.95
346.004	11.16
346.214	11.19
346.424	11.42
346.634	11.57
346.844	11.62
347.054	11.7
347.264	11.75
347.474	11.26
347.684	11.45
347.894	11.45
348.104	11.58
348.314	11.41
348.524	11.62
348.734	11.64
348.944	11.52
349.154	11.24
349.364	11.52
349.574	11.64
349.784	11.59
349.994	11.35
350.204	10.96
350.413	10.94
350.623	10.59
350.833	10.31
351.043	10.05
351.253	9.88
351.463	10
351.672	9.73
351.882	9.76
352.092	10.05
352.302	10.19
352.511	10.46
352.721	10.57
352.931	10.94
353.141	11.1
353.35	11.34
353.56	11.34
353.77	11.47
353.979	11.38
354.189	10.95
354.399	10.88
354.608	10.87
354.818	10.82
355.027	10.89
355.237	10.9
355.447	10.69
355.656	10.76
355.866	10.6
356.075	10.73
356.285	10.55
356.494	10.73
356.704	10.76
356.913	10.66
357.123	10.73
357.332	10.36
357.542	10.29
357.751	10.34
357.96	10.38
358.17	10.56
358.379	10.6
358.589	10.81
358.798	10.77
359.007	10.55
359.217	10.88
359.426	11
359.635	11.11
359.845	10.98
360.054	11.07
360.263	11.04
360.472	10.9
360.682	10.55
360.891	10.4
361.1	10.58
361.309	10.66
361.519	10.41
361.728	10.11
361.937	10.49
362.146	10.5
362.355	10.54
362.564	10.37
362.774	10.39
362.983	10.5
363.192	10.57
363.401	10.45
363.61	10.72
363.819	10.46
364.028	10.71
364.237	10.71
364.446	10.74
364.655	10.66
364.864	10.79
365.073	10.87
365.282	10.91
365.491	10.94
365.7	10.72
365.909	10.38
366.118	10.85
366.327	10.45
366.536	9.94
366.745	9.98
366.954	9.93
367.162	9.82
367.371	9.94
367.58	9.97
367.789	9.98
367.998	10.13
368.207	10.23
368.415	9.96
368.624	10.21
368.833	10.47
369.042	10.45
369.25	10.45
369.459	10.55
369.668	10.29
369.877	10.11
370.085	9.9
370.294	9.91
370.503	9.77
370.711	9.94
370.92	9.85
371.129	10.1
371.337	10
371.546	9.9
371.754	9.58
371.963	9.65
372.171	9.55
372.38	9.55
372.589	9.54
372.797	9.53
373.006	9.27
373.214	9.44
373.423	8.98
373.631	9.09
373.84	8.89
374.048	9.07
374.256	8.97
374.465	9.29
374.673	9.54
374.882	9.61
375.09	9.38
375.298	9.35
375.507	9.16
375.715	9.2
375.923	9.17
376.132	9.34
376.34	9.19
376.548	9.29
376.757	9.19
376.965	8.96
377.173	8.8
377.381	9.11
377.59	9.19
377.798	9.12
378.006	9.29
378.214	9.19
378.423	9.31
378.631	9.46
378.839	9.44
379.047	9.23
379.255	9.11
379.463	8.98
379.671	8.8
379.879	8.87
380.088	9
380.296	8.87
380.504	8.98
380.712	8.96
380.92	8.68
381.128	8.64
381.336	8.53
381.544	8.81
381.752	8.94
381.96	8.76
382.168	8.63
382.376	8.51
382.584	8.49
382.791	8.16
382.999	7.93
383.207	8.24
383.415	8.37
383.623	8.69
383.831	8.78
384.039	8.69
384.247	8.88
384.454	8.84
384.662	8.8
384.87	8.52
385.078	8.65
385.285	8.62
385.493	8.39
385.701	8.15
385.909	8.03
386.116	7.62
386.324	7.38
386.532	7.29
386.739	7.21
386.947	7.14
387.155	7.09
387.362	7.14
387.57	7.13
387.778	7.11
387.985	7.22
388.193	7.1
388.4	7.28
388.608	7.63
388.816	7.66
389.023	7.76
389.231	7.86
389.438	7.9
389.646	7.7
389.853	7.47
390.061	7.43
390.268	7.34
390.475	7.23
390.683	7.08
390.89	6.95
391.098	6.88
391.305	6.66
391.512	6.38
391.72	6.38
391.927	6.52
392.135	6.55
392.342	6.67
392.549	6.48
392.756	6.69
392.964	6.78
393.171	6.88
393.378	6.8
393.586	6.94
393.793	7.05
394	7.16
394.207	6.95
394.414	7.11
394.622	6.95
394.829	7.09
395.036	6.82
395.243	6.56
395.45	6.43
395.657	6.46
395.864	6.34
396.072	6.51
396.279	6.32
396.486	6.37
396.693	6.44
396.9	6.45
397.107	6.28
397.314	6.44
397.521	6.32
397.728	6.38
397.935	6.28
398.142	6.19
398.349	6.14
398.556	6.11
398.763	6.04
398.97	5.86
399.177	5.86
399.383	6.05
399.59	5.9
399.797	6
400.004	5.97
400.211	6.05
400.418	6.17
400.625	6.14
400.831	6.27
401.038	6.17
401.245	6.19
401.452	6.16
401.658	5.88
401.865	5.85
402.072	6.05
402.279	6.05
402.485	6.07
402.692	6.11
402.899	6.05
403.105	5.91
403.312	6.12
403.519	6.09
403.725	6
403.932	6.36
404.138	6.48
404.345	6.51
404.552	6.43
404.758	6.35
404.965	6.24
405.171	6.11
405.378	6.07
405.584	5.76
405.791	5.65
405.997	5.61
406.204	5.44
406.41	5.51
406.617	5.28
406.823	5.23
407.029	5.15
407.236	5.26
407.442	5.28
407.649	5.23
407.855	5.43
408.061	5.55
408.268	5.64
408.474	5.56
408.68	5.27
408.887	5.38
409.093	5.37
409.299	5.43
409.505	5.29
409.712	5.36
409.918	5.5
410.124	5.63
410.33	5.46
410.537	5.37
410.743	5.45
410.949	5.48
411.155	5.45
411.361	5.57
411.567	5.5
411.773	5.4
411.98	5.29
412.186	5.26
412.392	5.17
412.598	5.26
412.804	5.21
413.01	4.98
413.216	5.15
413.422	5.12
413.628	5.05
413.834	5.18
414.04	5.25
414.246	5.29
414.452	5.25
414.658	5.19
414.864	5.28
415.07	5.32
415.275	5.42
415.481	5.22
415.687	5.2
415.893	5.13
416.099	4.96
416.305	4.97
416.511	4.98
416.716	5.02
416.922	5.08
417.128	5.14
417.334	5.16
417.539	5.1
417.745	5.17
417.951	5.15
418.157	5.25
418.362	5.34
418.568	5.37
418.774	5.39
418.979	5.37
419.185	5.28
419.391	5.22
419.596	5.27
419.802	5.36
420.008	5.31
420.213	5.84
420.419	5.74
420.624	5.63
420.83	5.59
421.035	5.56
421.241	5.61
421.446	5.59
421.652	5.51
421.857	5.38
422.063	5.26
422.268	5.35
422.474	4.94
422.679	4.93
422.885	4.99
423.09	5.01
423.295	5.02
423.501	4.99
423.706	5.02
423.911	5.01
424.117	5.06
424.322	5.12
424.527	5.04
424.733	5.03
424.938	4.99
425.143	5
425.349	5.03
425.554	4.91
425.759	4.91
425.964	4.86
426.169	4.93
426.375	4.96
426.58	4.9
426.785	4.89
426.99	4.77
427.195	4.81
427.4	4.73
427.605	4.65
427.811	4.72
428.016	4.66
428.221	4.71
428.426	4.68
428.631	4.59
428.836	4.62
429.041	4.69
429.246	4.66
429.451	4.74
429.656	4.81
429.861	4.78
430.066	4.84
430.271	4.81
430.476	4.83
430.681	4.8
430.886	4.86
431.09	4.78
431.295	4.71
431.5	4.82
431.705	4.76
431.91	4.73
432.115	4.79
432.32	4.61
432.524	4.46
432.729	4.38
432.934	4.49
433.139	4.52
433.343	4.59
433.548	4.58
433.753	4.55
433.958	4.59
434.162	4.68
434.367	4.7
434.572	4.83
434.776	5.03
434.981	5.06
435.186	4.97
435.39	5.04
435.595	4.99
435.799	4.98
436.004	4.9
436.209	4.76
436.413	4.65
436.618	4.57
436.822	4.53
437.027	4.56
437.231	4.61
437.436	4.57
437.64	4.49
437.845	4.58
438.049	4.6
438.253	4.61
438.458	4.63
438.662	4.7
438.867	4.74
439.071	4.84
439.275	4.71
439.48	4.71
439.684	4.66
439.888	4.7
440.093	4.57
440.297	4.58
440.501	4.64
440.706	4.7
440.91	4.69
441.114	4.61
441.318	4.53
441.523	4.68
441.727	4.64
441.931	4.75
442.135	4.73
442.339	4.87
442.543	4.83
442.748	4.85
442.952	4.83
443.156	4.78
443.36	4.98
443.564	5.01
443.768	4.82
443.972	4.92
444.176	4.92
444.38	4.87
444.584	4.83
444.788	4.9
444.992	4.87
445.196	4.88
445.4	4.86
445.604	4.7
445.808	4.7
446.012	4.78
446.216	4.76
446.42	4.76
446.624	4.77
446.828	4.78
447.032	4.7
447.235	4.73
447.439	4.72
447.643	4.68
447.847	4.73
448.051	4.72
448.254	4.68
448.458	4.64
448.662	4.61
448.866	4.65
449.069	4.62
449.273	4.58
449.477	4.53
449.681	4.51
449.884	4.6
450.088	4.55
450.292	4.51
450.495	4.61
450.699	4.54
450.902	4.49
451.106	4.36
451.31	4.41
451.513	4.52
451.717	4.5
451.92	4.56
452.124	4.53
452.327	4.53
452.531	4.56
452.734	4.44
452.938	4.44
453.141	4.53
453.345	4.63
453.548	4.46
453.752	4.42
453.955	4.43
454.158	4.31
454.362	4.18
454.565	4.19
454.769	4.2
454.972	4.2
455.175	4.15
455.379	3.98
455.582	4.02
455.785	4.15
455.988	4.07
456.192	4.05
456.395	4.18
456.598	4.4
456.801	4.34
457.005	4.26
457.208	4.21
457.411	4.34
457.614	4.36
457.817	4.21
458.021	4.12
458.224	4.24
458.427	4.29
458.63	4.2
458.833	4.07
459.036	4.16
459.239	4.2
459.442	4.29
459.645	4.23
459.848	4.23
460.051	4.27
460.254	4.22
460.457	4.1
460.66	4.08
460.863	4.08
461.066	4.13
461.269	4.03
461.472	3.96
461.675	3.94
461.878	3.99
462.081	3.99
462.284	3.94
462.486	4.05
462.689	4.01
462.892	4.03
463.095	4.06
463.298	4.02
463.5	4.02
463.703	4.24
463.906	4.26
464.109	4.27
464.311	4.21
464.514	4.27
464.717	4.29
464.92	4.45
465.122	4.43
465.325	4.38
465.528	4.44
465.73	4.48
465.933	4.33
466.135	4.29
466.338	4.18
466.541	4.25
466.743	4.2
466.946	4.35
467.148	4.34
467.351	4.29
467.553	4.36
467.756	4.39
467.958	4.41
468.161	4.33
468.363	4.36
468.566	4.51
468.768	4.47
468.971	4.54
469.173	4.39
469.375	4.45
469.578	4.48
469.78	4.48
469.983	4.45
470.185	4.39
470.387	4.49
470.59	4.4
470.792	4.31
470.994	4.35
471.196	4.36
471.399	4.35
471.601	4.28
471.803	4.3
472.005	4.29
472.208	4.2
472.41	4.24
472.612	4.18
472.814	4.24
473.016	4.3
473.218	4.27
473.421	4.23
473.623	4.26
473.825	4.26
474.027	4.24
474.229	4.22
474.431	4.32
474.633	4.31
474.835	4.32
475.037	4.32
475.239	4.24
475.441	4.26
475.643	4.36
475.845	4.39
476.047	4.44
476.249	4.55
476.451	4.54
476.653	4.5
476.855	4.57
477.057	4.64
477.258	4.66
477.46	4.74
477.662	4.87
477.864	4.92
478.066	4.88
478.268	4.87
478.469	4.81
478.671	4.78
478.873	4.79
479.075	4.74
479.276	4.8
479.478	4.78
479.68	4.79
479.882	4.71
480.083	4.7
480.285	4.81
480.487	4.79
480.688	4.82
480.89	4.87
481.091	4.85
481.293	4.9
481.495	4.86
481.696	4.85
481.898	4.83
482.099	4.84
482.301	4.82
482.502	4.81
482.704	4.8
482.905	4.8
483.107	4.83
483.308	4.88
483.51	4.87
483.711	4.86
483.913	4.86
484.114	4.85
484.315	4.85
484.517	4.86
484.718	4.86
484.92	4.88
485.121	4.91
485.322	4.9
485.524	4.88
485.725	4.86
485.926	4.89
486.127	4.9
486.329	4.93
486.53	4.91
486.731	4.91
486.932	4.88
487.134	4.88
487.335	4.85
487.536	4.84
487.737	4.83
487.938	4.85
488.139	4.84
488.341	4.83
488.542	4.81
488.743	4.83
488.944	4.81
489.145	4.82
489.346	4.83
489.547	4.81
489.748	4.78
489.949	4.81
490.15	4.77
490.351	4.81
490.552	4.84
490.753	4.84
490.954	4.87
491.155	4.86
491.356	4.82
491.557	4.82
491.758	4.83
491.959	4.85
492.159	4.83
492.36	4.82
492.561	4.79
492.762	4.74
492.963	4.72
493.164	4.66
493.364	4.66
493.565	4.7
493.766	4.64
493.967	4.69
494.167	4.59
494.368	4.61
494.569	4.69
494.769	4.7
494.97	4.75
495.171	4.67
495.371	4.67
495.572	4.67
495.773	4.65
495.973	4.61
496.174	4.53
496.375	4.67
496.575	4.65
496.776	4.63
496.976	4.57
497.177	4.59
497.377	4.64
497.578	4.66
497.778	4.67
497.979	4.71
498.179	4.77
498.38	4.83
498.58	4.81
498.78	4.88
498.981	4.91
499.181	5.01
499.382	5.04
499.582	5.06
499.782	5.12
499.983	5.09
500.183	5.09
500.383	5.12
500.584	5.1
500.784	5.05
500.984	4.97
501.184	5.04
501.385	5.01
501.585	5.05
501.785	5.08
501.985	5.03
502.185	5.01
502.386	4.99
502.586	5
502.786	4.96
502.986	5.04
503.186	5.05
503.386	5
503.586	5.04
503.786	4.94
503.987	5.04
504.187	5.12
504.387	5.17
504.587	5.19
504.787	5.23
504.987	5.28
505.187	5.28
505.387	5.34
505.587	5.38
505.786	5.37
505.986	5.54
506.186	5.46
506.386	5.47
506.586	5.53
506.786	5.6
506.986	5.65
507.186	5.73
507.386	5.89
507.585	5.87
507.785	5.89
507.985	5.88
508.185	5.84
508.384	5.94
508.584	5.97
508.784	5.97
508.984	6.09
509.183	6.1
509.383	6.11
509.583	6.07
509.782	6.17
509.982	6.28
510.182	6.43
510.381	6.46
510.581	6.41
510.781	6.43
510.98	6.49
511.18	6.46
511.379	6.53
511.579	6.61
511.778	6.59
511.978	6.58
512.177	6.55
512.377	6.52
512.576	6.57
512.776	6.67
512.975	6.8
513.175	6.83
513.374	6.95
513.573	7
513.773	7.04
513.972	7.23
514.172	7.27
514.371	7.37
514.57	7.47
514.77	7.45
514.969	7.49
515.168	7.5
515.367	7.59
515.567	7.56
515.766	7.55
515.965	7.58
516.164	7.56
516.364	7.73
516.563	7.67
516.762	7.75
516.961	7.86
517.16	7.91
517.359	7.93
517.559	7.98
517.758	8.07
517.957	8.19
518.156	8.23
518.355	8.32
518.554	8.36
518.753	8.43
518.952	8.48
519.151	8.56
519.35	8.66
519.549	8.75
519.748	8.86
519.947	8.89
520.146	8.96
520.345	9.11
520.544	9.18
520.743	9.18
520.942	9.31
521.141	9.39
521.339	9.42
521.538	9.49
521.737	9.57
521.936	9.54
522.135	9.63
522.333	9.66
522.532	9.68
522.731	9.74
522.93	9.81
523.129	9.86
523.327	9.89
523.526	10.05
523.725	10.13
523.923	10.26
524.122	10.37
524.321	10.53
524.519	10.6
524.718	10.61
524.917	10.67
525.115	10.76
525.314	10.85
525.512	10.99
525.711	11.08
525.909	11.12
526.108	11.19
526.306	11.25
526.505	11.32
526.703	11.42
526.902	11.51
527.1	11.61
527.299	11.7
527.497	11.77
527.696	11.79
527.894	11.84
528.092	11.89
528.291	11.92
528.489	11.98
528.688	12.02
528.886	12.05
529.084	12.14
529.283	12.18
529.481	12.25
529.679	12.3
529.877	12.42
530.076	12.48
530.274	12.54
530.472	12.62
530.67	12.71
530.869	12.81
531.067	12.92
531.265	12.94
531.463	13.02
531.661	13.07
531.859	13.16
532.057	13.15
532.255	13.21
532.454	13.3
532.652	13.39
532.85	13.48
533.048	13.52
533.246	13.6
533.444	13.64
533.642	13.73
533.84	13.8
534.038	13.84
534.236	13.89
534.434	14
534.632	14.02
534.83	14.08
535.027	14.1
535.225	14.16
535.423	14.19
535.621	14.27
535.819	14.29
536.017	14.27
536.215	14.35
536.412	14.44
536.61	14.49
536.808	14.58
537.006	14.56
537.203	14.58
537.401	14.65
537.599	14.74
537.797	14.83
537.994	14.86
538.192	15.07
538.39	15.11
538.587	15.17
538.785	15.22
538.983	15.33
539.18	15.5
539.378	15.69
539.575	15.78
539.773	15.8
539.97	15.89
540.168	15.96
540.366	15.99
540.563	16.1
540.761	16.16
540.958	16.23
541.155	16.29
541.353	16.38
541.55	16.41
541.748	16.45
541.945	16.52
542.143	16.59
542.34	16.69
542.537	16.75
542.735	16.79
542.932	16.96
543.129	17.02
543.327	17.14
543.524	17.24
543.721	17.39
543.919	17.61
544.116	17.88
544.313	18.05
544.51	18.26
544.708	18.44
544.905	18.62
545.102	18.76
545.299	18.95
545.496	19.03
545.693	19.08
545.891	19.16
546.088	19.16
546.285	19.02
546.482	19.03
546.679	18.93
546.876	18.88
547.073	18.88
547.27	18.77
547.467	18.78
547.664	18.71
547.861	18.65
548.058	18.59
548.255	18.5
548.452	18.53
548.649	18.45
548.846	18.41
549.043	18.35
549.24	18.26
549.437	18.25
549.633	18.07
549.83	18.06
550.027	18.06
550.224	17.97
550.421	18.01
550.618	17.9
550.814	17.98
551.011	18.06
551.208	18.04
551.405	17.91
551.601	17.9
551.798	17.89
551.995	17.93
552.191	17.9
552.388	17.93
552.585	17.9
552.781	17.92
552.978	17.9
553.175	17.92
553.371	17.98
553.568	18.09
553.764	18.05
553.961	18.05
554.157	18.05
554.354	18.03
554.55	18.08
554.747	18.17
554.943	18.18
555.14	18.12
555.336	18.11
555.533	18.07
555.729	18.19
555.926	18.22
556.122	18.37
556.318	18.35
556.515	18.47
556.711	18.48
556.907	18.39
557.104	18.4
557.3	18.48
557.496	18.39
557.693	18.41
557.889	18.31
558.085	18.39
558.281	18.46
558.478	18.59
558.674	18.57
558.87	18.61
559.066	18.67
559.262	18.71
559.459	18.74
559.655	18.79
559.851	18.75
560.047	18.79
560.243	18.76
560.439	18.67
560.635	18.56
560.831	18.43
561.027	18.59
561.223	18.53
561.419	18.59
561.615	18.56
561.811	18.66
562.007	18.85
562.203	18.97
562.399	19.07
562.595	19.15
562.791	19.2
562.987	19.37
563.183	19.27
563.379	19.4
563.575	19.39
563.771	19.47
563.966	19.46
564.162	19.39
564.358	19.37
564.554	19.27
564.75	19.15
564.945	19.15
565.141	19.15
565.337	19.16
565.533	19.2
565.728	19.23
565.924	19.14
566.12	19.18
566.315	19.18
566.511	19.17
566.707	19.25
566.902	19.35
567.098	19.32
567.293	19.35
567.489	19.37
567.684	19.3
567.88	19.33
568.076	19.38
568.271	19.24
568.467	19.2
568.662	19.13
568.858	19.1
569.053	19.09
569.248	19.15
569.444	19.15
569.639	19.07
569.835	19.07
570.03	19.06
570.225	19.12
570.421	19.16
570.616	19.21
570.812	19.48
571.007	19.47
571.202	19.44
571.397	19.39
571.593	19.39
571.788	19.45
571.983	19.56
572.178	19.57
572.374	19.63
572.569	19.72
572.764	19.81
572.959	19.63
573.154	19.6
573.35	19.66
573.545	19.75
573.74	19.82
573.935	19.8
574.13	19.82
574.325	19.86
574.52	19.81
574.715	19.87
574.91	19.82
575.105	19.81
575.3	19.91
575.495	19.91
575.69	19.95
575.885	19.91
576.08	20.04
576.275	20.11
576.47	20.18
576.665	20.26
576.86	20.36
577.055	20.52
577.25	20.62
577.444	20.71
577.639	20.79
577.834	20.95
578.029	21.19
578.224	21.1
578.418	21.05
578.613	21.22
578.808	21.22
579.003	21.24
579.197	21.14
579.392	21.24
579.587	21.31
579.781	21.37
579.976	21.35
580.171	21.33
580.365	21.41
580.56	21.4
580.755	21.19
580.949	21.26
581.144	21.21
581.338	21.32
581.533	21.32
581.727	21.37
581.922	21.46
582.116	21.37
582.311	21.3
582.505	21.34
582.7	21.38
582.894	21.61
583.089	21.67
583.283	21.68
583.478	21.66
583.672	21.82
583.866	21.79
584.061	21.84
584.255	22.01
584.449	22.12
584.644	22.24
584.838	22.25
585.032	22.27
585.226	22.27
585.421	22.45
585.615	22.78
585.809	22.77
586.003	22.7
586.198	22.62
586.392	22.64
586.586	22.54
586.78	22.5
586.974	22.53
587.168	22.56
587.363	22.55
587.557	22.55
587.751	22.26
587.945	22.15
588.139	22.3
588.333	22.33
588.527	22.17
588.721	22.25
588.915	22.25
589.109	22.19
589.303	22.07
589.497	22.06
589.691	21.89
589.885	21.98
590.079	22.04
590.273	21.96
590.466	21.91
590.66	21.97
590.854	21.85
591.048	21.91
591.242	22.05
591.436	22.02
591.629	22.07
591.823	22.24
592.017	22.2
592.211	22.24
592.404	22.11
592.598	22.18
592.792	22.17
592.986	22.26
593.179	22.29
593.373	22.14
593.567	22.18
593.76	22
593.954	21.95
594.147	21.95
594.341	21.76
594.535	21.81
594.728	21.68
594.922	21.6
595.115	21.56
595.309	21.42
595.502	21.41
595.696	21.37
595.889	21.52
596.083	21.5
596.276	21.46
596.47	21.53
596.663	21.54
596.856	21.6
597.05	21.7
597.243	21.75
597.437	21.89
597.63	22.1
597.823	22.16
598.017	22.22
598.21	22.32
598.403	22.44
598.596	22.45
598.79	22.5
598.983	22.63
599.176	22.78
599.369	22.88
599.563	22.78
599.756	22.61
599.949	22.64
600.142	22.51
600.335	22.55
600.528	22.55
600.722	22.59
600.915	22.79
601.108	22.74
601.301	22.46
601.494	22.37
601.687	22.41
601.88	22.49
602.073	22.3
602.266	22.22
602.459	21.99
602.652	21.97
602.845	21.88
603.038	21.79
603.231	21.83
603.424	21.97
603.617	21.93
603.809	21.82
604.002	21.74
604.195	21.85
604.388	21.88
604.581	21.97
604.774	21.89
604.966	21.95
605.159	21.9
605.352	21.97
605.545	21.88
605.737	21.94
605.93	22.08
606.123	22.2
606.316	22.25
606.508	22.37
606.701	22.56
606.894	22.82
607.086	22.85
607.279	23.1
607.471	23.09
607.664	23.34
607.857	23.4
608.049	23.58
608.242	23.91
608.434	24.55
608.627	25.14
608.819	25.72
609.012	26.44
609.204	27.4
609.397	28.3
609.589	29.39
609.782	30.46
609.974	31.75
610.166	32.94
610.359	34.02
610.551	34.81
610.743	35.79
610.936	36.59
611.128	37.02
611.32	37.43
611.513	37.58
611.705	37.56
611.897	37.43
612.09	36.94
612.282	36.57
612.474	35.97
612.666	35.46
612.858	34.66
613.051	33.99
613.243	33.52
613.435	32.86
613.627	32.3
613.819	31.77
614.011	31.09
614.203	30.66
614.395	29.93
614.588	29.47
614.78	29.09
614.972	28.51
615.164	28.07
615.356	27.46
615.548	26.94
615.74	26.64
615.932	26.14
616.124	25.96
616.315	25.64
616.507	25.38
616.699	25.13
616.891	24.84
617.083	24.67
617.275	24.36
617.467	24.21
617.659	24.07
617.85	23.79
618.042	23.92
618.234	23.74
618.426	23.57
618.618	23.44
618.809	23.28
619.001	23.09
619.193	23
619.384	23.23
619.576	23.44
619.768	23.49
619.959	23.5
620.151	23.48
620.343	23.62
620.534	23.7
620.726	23.83
620.917	24.01
621.109	23.89
621.301	23.98
621.492	23.88
621.684	23.92
621.875	24.09
622.067	24.18
622.258	24.14
622.45	24.1
622.641	24.14
622.832	24.21
623.024	24.26
623.215	24.57
623.407	24.6
623.598	24.51
623.789	24.36
623.981	24.32
624.172	24.36
624.363	24.22
624.555	24.3
624.746	24.33
624.937	24.33
625.129	24.21
625.32	24.28
625.511	24.27
625.702	24.19
625.893	24.17
626.085	24.16
626.276	23.97
626.467	24.07
626.658	23.77
626.849	23.74
627.04	23.75
627.231	23.62
627.422	23.52
627.614	23.58
627.805	23.55
627.996	23.6
628.187	23.63
628.378	23.91
628.569	24.08
628.76	24.37
628.951	24.49
629.142	24.56
629.332	24.94
629.523	24.97
629.714	25.05
629.905	25.24
630.096	25.29
630.287	25.43
630.478	25.27
630.669	25.06
630.859	25.05
631.05	25.06
631.241	24.82
631.432	24.57
631.623	24.49
631.813	24.4
632.004	24.22
632.195	24.03
632.385	23.84
632.576	23.82
632.767	23.73
632.957	23.56
633.148	23.27
633.339	23.33
633.529	23.19
633.72	23.03
633.91	23.04
634.101	23.02
634.292	23
634.482	22.8
634.673	22.75
634.863	22.63
635.054	22.46
635.244	22.58
635.435	22.55
635.625	22.57
635.815	22.58
636.006	22.23
636.196	22.27
636.387	22.12
636.577	22.23
636.767	22.22
636.958	22.13
637.148	22.41
637.338	22.23
637.529	22.17
637.719	22.16
637.909	22.2
638.099	22.28
638.29	22.06
638.48	22.08
638.67	21.96
638.86	21.84
639.05	21.98
639.241	21.81
639.431	22.03
639.621	21.89
639.811	22
640.001	21.88
640.191	21.99
640.381	21.94
640.571	22.12
640.761	22.05
640.951	22.22
641.141	22.1
641.331	22
641.521	21.81
641.711	21.94
641.901	21.75
642.091	21.82
642.281	22.01
642.471	21.96
642.661	22
642.851	22.07
643.041	22.07
643.231	22.23
643.42	22.49
643.61	22.62
643.8	22.57
643.99	22.69
644.18	22.61
644.369	22.72
644.559	23.03
644.749	22.7
644.939	22.82
645.128	22.68
645.318	22.57
645.508	22.43
645.697	22.37
645.887	22.57
646.076	22.52
646.266	22.66
646.456	22.44
646.645	22.29
646.835	22.41
647.024	22.48
647.214	22.55
647.403	22.74
647.593	22.8
647.782	22.74
647.972	22.68
648.161	22.7
648.351	22.71
648.54	22.78
648.73	22.8
648.919	22.95
649.108	22.81
649.298	22.67
649.487	22.68
649.677	22.86
649.866	23.11
650.055	23.17
650.244	23.05
650.434	23.31
650.623	23.19
650.812	23.39
651.002	23.42
651.191	23.54
651.38	23.7
651.569	23.53
651.758	23.27
651.947	23.16
652.137	23.06
652.326	23.34
652.515	23.25
652.704	23.16
652.893	23.14
653.082	23.01
653.271	22.94
653.46	22.95
653.649	23.14
653.838	23.43
654.027	23.25
654.216	23.22
654.405	23.32
654.594	23.34
654.783	23.47
654.972	23.22
655.161	23.34
655.35	23.36
655.539	23.11
655.728	22.89
655.916	22.71
656.105	22.9
656.294	22.83
656.483	22.49
656.672	22.33
656.86	22.28
657.049	22.43
657.238	22.21
657.427	22.07
657.615	22.13
657.804	22.44
657.993	22.4
658.181	22.36
658.37	22.33
658.559	22.42
658.747	22.46
658.936	22.68
659.125	22.51
659.313	22.81
659.502	22.83
659.69	22.91
659.879	22.68
660.067	22.76
660.256	22.76
660.444	22.88
660.633	22.98
660.821	22.96
661.01	22.79
661.198	22.85
661.387	22.68
661.575	22.83
661.763	22.96
661.952	23.19
662.14	23.15
662.328	22.88
662.517	22.94
662.705	22.75
662.893	22.5
663.082	22.51
663.27	22.53
663.458	22.56
663.646	22.67
663.834	22.55
664.023	22.4
664.211	22.53
664.399	23.11
664.587	23.09
664.775	23.17
664.963	23.41
665.152	23.23
665.34	23.26
665.528	23.19
665.716	23.04
665.904	23.02
666.092	22.72
666.28	22.58
666.468	22.33
666.656	22.38
666.844	22.44
667.032	22.43
667.22	22.57
667.408	22.59
667.596	22.49
667.784	22.53
667.971	22.67
668.159	22.86
668.347	22.9
668.535	22.96
668.723	22.9
668.911	22.76
669.098	22.95
669.286	22.92
669.474	23.1
669.662	23.19
669.849	23.14
670.037	23.32
670.225	23.41
670.413	23.43
670.6	23.19
670.788	23.46
670.976	23.39
671.163	23.19
671.351	23.03
671.538	23.06
671.726	23.14
671.913	23.24
672.101	23.17
672.289	23.32
672.476	23.18
672.664	23.28
672.851	23.02
673.039	23.38
673.226	23.35
673.413	23.51
673.601	23.27
673.788	23.27
673.976	23.11
674.163	22.85
674.35	22.79
674.538	22.92
674.725	23.3
674.912	23.3
675.1	23.04
675.287	23.36
675.474	23.39
675.662	23.37
675.849	23.14
676.036	23.28
676.223	23.25
676.411	23.45
676.598	23.8
676.785	23.52
676.972	23.62
677.159	23.81
677.346	23.59
677.533	23.7
677.721	23.66
677.908	24.23
678.095	24.19
678.282	24.23
678.469	23.75
678.656	23.6
678.843	23.54
679.03	23.53
679.217	23.42
679.404	23.48
679.591	23.63
679.778	23.67
679.964	23.34
680.151	23.31
680.338	23.36
680.525	23.66
680.712	23.6
680.899	23.64
681.086	23.72
681.272	23.73
681.459	23.62
681.646	23.33
681.833	23.62
682.02	23.76
682.206	24.01
682.393	24.05
682.58	23.98
682.766	23.92
682.953	23.65
683.14	23.62
683.326	23.53
683.513	23.76
683.7	23.83
683.886	23.82
684.073	23.79
684.259	23.73
684.446	23.43
684.632	23.44
684.819	23.35
685.005	23.77
685.192	23.8
685.378	23.88
685.565	23.81
685.751	23.78
685.938	23.5
686.124	23.65
686.31	23.23
686.497	23.7
686.683	23.84
686.87	23.89
687.056	23.63
687.242	23.67
687.429	23.91
687.615	23.76
687.801	23.9
687.987	24.06
688.174	23.78
688.36	24.11
688.546	24
688.732	23.82
688.918	23.76
689.105	24
689.291	23.62
689.477	23.71
689.663	23.92
689.849	23.93
690.035	23.77
690.221	23.88
690.407	23.75
690.593	23.81
690.779	23.88
690.965	24.16
691.151	24.28
691.337	24.62
691.523	24.45
691.709	24.31
691.895	24.26
692.081	24.45
692.267	24.56
692.453	24.8
692.639	24.78
692.825	24.83
693.011	24.64
693.196	24.4
693.382	24.4
693.568	24.42
693.754	24.54
693.94	24.6
694.125	24.41
694.311	24.32
694.497	24.16
694.682	24.12
694.868	24.09
695.054	24.12
695.239	24.08
695.425	24.07
695.611	23.76
695.796	23.45
695.982	23.7
696.168	23.92
696.353	23.68
696.539	23.73
696.724	23.71
696.91	23.66
697.095	23.73
697.281	23.71
697.466	23.56
697.652	23.8
697.837	24.04
698.023	23.72
698.208	23.5
698.393	23.59
698.579	23.57
698.764	23.59
698.949	23.58
699.135	23.48
699.32	23.23
699.505	23.4
699.691	23.06
699.876	22.83
700.061	22.8
700.246	22.71
700.432	22.79
700.617	22.74
700.802	23.04
700.987	23.02
701.172	23.26
701.358	23.46
701.543	23.2
701.728	23.81
701.913	23.85
702.098	24.1
702.283	24.62
702.468	24.61
702.653	24.86
702.838	24.46
703.023	24.62
703.208	24.66
703.393	24.86
703.578	25.7
703.763	25.33
703.948	25.69
704.133	25.89
704.318	26.13
704.503	26.54
704.688	26.67
704.873	27.03
705.057	27.75
705.242	28.05
705.427	28.82
705.612	28.43
705.797	29.09
705.981	29.4
706.166	29.66
706.351	29.66
706.536	29.78
706.72	30.12
706.905	30.34
707.09	29.79
707.274	29.91
707.459	29.84
707.644	30.02
707.828	30.18
708.013	30.01
708.197	29.44
708.382	29.55
708.567	29.6
708.751	29.33
708.936	29.39
709.12	29.72
709.305	29.52
709.489	29.24
709.673	29.07
709.858	28.76
710.042	28.8
710.227	29.17
710.411	28.96
710.596	28.88
710.78	28.76
710.964	28.2
711.149	28.21
711.333	28.21
711.517	28.11
711.702	28.14
711.886	27.82
712.07	27.51
712.254	27.46
712.438	27.17
712.623	26.92
712.807	26.7
712.991	26.76
713.175	26.43
713.359	26.17
713.544	25.76
713.728	25.91
713.912	25.83
714.096	25.95
714.28	25.86
714.464	25.84
714.648	25.52
714.832	25.45
715.016	24.9
715.2	24.67
715.384	24.38
715.568	24.48
715.752	24.08
715.936	24.08
716.12	24.06
716.304	23.87
716.488	23.58
716.671	23.81
716.855	23.8
717.039	24.24
717.223	24.01
717.407	23.88
717.59	23.73
717.774	23.32
717.958	23.44
718.142	22.96
718.325	22.65
718.509	22.81
718.693	22.37
718.877	22.56
719.06	22.06
719.244	22.42
719.428	22.26
719.611	22.54
719.795	23.16
719.978	23.04
720.162	23.08
720.345	23.42
720.529	23.58
720.713	24.02
720.896	23.98
721.08	24.37
721.263	24.38
721.446	24.7
721.63	24.57
721.813	24.54
721.997	24.35
722.18	25.02
722.364	24.66
722.547	24.58
722.73	24.75
722.914	24.89
723.097	24.99
723.28	24.89
723.464	24.86
723.647	24.75
723.83	24.24
724.013	24.21
724.197	23.93
724.38	24.09
724.563	24.19
724.746	24.03
724.929	23.56
725.112	23.46
725.296	23.21
725.479	23.33
725.662	23.45
725.845	23.52
726.028	23.7
726.211	23.22
726.394	23.18
726.577	23.09
726.76	22.92
726.943	23.09
727.126	23.44
727.309	23.42
727.492	23.21
727.675	23.13
727.858	23.68
728.041	23.3
728.224	23.68
728.407	24.16
728.589	24.11
728.772	23.83
728.955	23.6
729.138	23.27
729.321	23.17
729.503	23.27
729.686	23.41
729.869	22.95
730.052	23.34
730.234	23.02
730.417	22.75
730.6	22.53
730.782	22.81
730.965	22.94
731.148	22.69
731.33	22.45
731.513	23.05
731.695	22.95
731.878	23.35
732.061	23.47
732.243	23.86
732.426	23.79
732.608	24.31
732.791	24.05
732.973	24.13
733.156	24.3
733.338	25
733.52	24.49
733.703	24.86
733.885	24.41
734.068	24.46
734.25	24.72
734.432	24.95
734.615	24.8
734.797	25.38
734.979	25.49
735.162	25.99
735.344	25.73
735.526	25.76
735.708	25.59
735.891	26.18
736.073	26.1
736.255	25.51
736.437	25.55
736.619	24.9
736.802	24.67
736.984	25.16
737.166	25.09
737.348	25.59
737.53	25.9
737.712	26.1
737.894	25.45
738.076	25.12
738.258	25.43
738.44	24.66
738.622	25.22
738.804	25.09
738.986	24.76
739.168	24.05
739.35	24.09
739.532	23.34
739.714	23.04
739.896	23.87
740.078	24.23
740.259	24.25
740.441	25.37
740.623	25.74
740.805	26.27
740.987	26.67
741.168	27.24
741.35	26.99
741.532	27.91
741.714	28.03
741.895	27.78
742.077	27.5
742.259	27.53
742.44	27.1
742.622	26.88
742.804	26.62
742.985	26.09
743.167	25.88
743.348	25.63
743.53	25.66
743.711	25.66
743.893	26.18
744.075	26.53
744.256	27.1
744.438	27.2
744.619	27.32
744.8	26.6
744.982	26.63
745.163	26.96
745.345	26.84
745.526	26.74
745.707	26.62
745.889	25.71
746.07	25.97
746.252	25.35
746.433	25.08
746.614	25.24
746.795	25.82
746.977	25.66
747.158	25.27
747.339	25.73
747.52	25.35
747.702	25.53
747.883	26.1
748.064	25.49
748.245	25.41
748.426	25.89
748.607	25.93
748.788	26.11
748.97	26.52
749.151	26.68
749.332	26.83
749.513	27.47
749.694	27.89
749.875	27.73
750.056	28.33
750.237	28.38
750.418	27.8
750.599	27.32
750.78	27.32
750.96	27.22
751.141	26.83
751.322	26.59
751.503	26.21
751.684	25.84
751.865	25.83
752.046	25.28
752.226	25.53
752.407	25.65
752.588	25.99
752.769	25.91
752.949	26.23
753.13	27.44
753.311	26.84
753.492	27.59
753.672	28.33
753.853	28.41
754.034	28.41
754.214	28.08
754.395	28.32
754.575	28.5
754.756	28.79
754.937	28.86
755.117	28.36
755.298	28.85
755.478	27.96
755.659	27.82
755.839	27.79
756.02	28.17
756.2	28.07
756.381	27.94
756.561	27.37
756.741	26.87
756.922	26.58
757.102	26.3
757.283	26.03
757.463	25.93
757.643	25.66
757.823	25.11
758.004	25.02
758.184	25.36
758.364	25.22
758.545	25.14
758.725	25
758.905	24.2
759.085	23.64
759.265	23.48
759.446	22.96
759.626	22.79
759.806	22.84
759.986	21.94
760.166	21.24
760.346	20.83
760.526	20.69
760.706	20.71
760.886	21.2
761.066	21.99
761.246	22.04
761.426	22.18
761.606	21.68
761.786	21.38
761.966	22.17
762.146	22.02
762.326	22.53
762.506	22.28
762.686	21.89
762.866	21.43
763.046	20.84
763.225	20.69
763.405	20.87
763.585	20.61
763.765	20.77
763.945	20.65
764.124	21.31
764.304	21.63
764.484	22
764.664	22.27
764.843	22.64
765.023	22.77
765.203	23.18
765.382	23.12
765.562	24.05
765.741	24.22
765.921	24.24
766.101	23.54
766.28	23.1
766.46	23.16
766.639	23.36
766.819	23.51
766.998	23.84
767.178	23.55
767.357	23.76
767.537	23.22
767.716	23.7
767.896	23.86
768.075	24.44
768.254	24.34
768.434	24.42
768.613	24.82
768.792	24.7
768.972	25.57
769.151	25.95
769.33	25.62
769.51	25.85
769.689	26.04
769.868	26.56
770.047	26.62
770.226	26.52
770.406	26.64
770.585	26.9
770.764	26.82
770.943	25.64
771.122	25.3
771.301	26.24
771.48	25.79
771.66	25.41
771.839	24.98
772.018	25.14
772.197	25.66
772.376	25.9
772.555	25.71
772.734	26.25
772.913	27.22
773.092	27.55
773.271	26.94
773.449	26.86
773.628	27.51
773.807	27.27
773.986	26.52
774.165	26.33
774.344	26.41
774.523	26.15
774.701	25.7
774.88	25.21
775.059	25.43
775.238	26.92
775.417	28.09
775.595	27.52
775.774	29
775.953	29.94
776.131	30.13
776.31	30.16
776.489	29.69
776.667	30.11
776.846	30.82
777.025	30.78
777.203	29.69
777.382	29.17
777.56	28.96
777.739	28.28
777.917	28.25
778.096	29.09
778.274	28.63
778.453	29.44
778.631	29.74
778.81	28.27
778.988	28.93
779.166	29.58
779.345	29.84
779.523	29.94
779.702	29.23
779.88	29.84
780.058	28.72
780.237	28.56
780.415	28.45
780.593	28.27
780.771	29.27
780.95	28.88
781.128	28.11
781.306	28.25
781.484	27.72
781.662	28.24
781.841	27.51
782.019	27.31
782.197	27.66
782.375	27.54
782.553	26.96
782.731	26.56
782.909	26.83
783.087	27.54
783.265	26.95
783.443	27.56
783.621	27.55
783.799	27.99
783.977	27.5
784.155	27.79
784.333	27.26
784.511	28.03
784.689	28.91
784.867	28.4
785.045	28.17
785.223	28.26
785.4	28.09
785.578	27.75
785.756	27.84
785.934	29.36
786.112	29.67
786.289	29.79
786.467	29.65
786.645	29.14
786.823	29.11
787	28.89
787.178	29.2
787.356	30.15
787.533	29.82
787.711	28.96
787.889	28.71
788.066	28.76
788.244	27.78
788.421	27.11
788.599	26.45
788.776	25.73
788.954	25.6
789.131	25.71
789.309	24.87
789.486	25.11
789.664	24.9
789.841	23.29
790.019	23.41
790.196	24.55
790.373	25.08
790.551	24.6
790.728	25.23
790.906	25.75
791.083	25.65
791.26	25.01
791.437	24.65
791.615	25.28
791.792	26.71
791.969	25.36
792.146	24.71
792.324	25.21
792.501	26.29
792.678	26.07
792.855	25.6
793.032	24.75
793.209	24.97
793.387	26
793.564	25.71
793.741	26.19
793.918	25.66
794.095	26.1
794.272	25.05
794.449	25.67
794.626	26.29
794.803	25.64
794.98	25.11
795.157	25.28
795.334	24.56
795.511	24.55
795.688	24.34
795.864	25.22
796.041	26.04
796.218	25.84
796.395	25.69
796.572	25.73
796.749	26.63
796.925	27.3
797.102	27.34
797.279	27.43
797.456	27.92
797.632	28.44
797.809	27.96
797.986	27.86
798.162	27.93
798.339	27.11
798.516	26.25
798.692	26.4
798.869	26.85
799.046	26.96
799.222	27.01
799.399	26.6
799.575	26.31
799.752	25.82
799.928	25.79
800.105	26.27
800.281	27.31
800.458	27.88
800.634	27.28
800.811	26.57
800.987	27.05
801.163	26.2
801.34	25.94
801.516	25.65
801.692	27.16
801.869	26.51
802.045	26.78
802.221	24.95
802.398	24.56
802.574	23.98
802.75	24.27
802.926	22.73
803.103	23.19
803.279	23.61
803.455	22.58
803.631	23.14
803.807	23.97
803.983	23.2
804.16	23.58
804.336	24.51
804.512	25.44
804.688	25.6
804.864	27.39
805.04	27.22
805.216	28.25
805.392	28.96
805.568	27.68
805.744	26.79
805.92	25.82
806.096	25.72
806.272	24.45
806.448	25.49
806.623	23.67
806.799	22.59
806.975	23.12
807.151	21.12
807.327	20.28
807.503	18.81
807.678	19.51
807.854	22.07
808.03	23.99
808.206	25.87
808.381	24.54
808.557	27.09
808.733	27.89
808.908	28.78
809.084	29.09
809.26	30.29
809.435	31.7
809.611	30.87
809.787	28.7
809.962	28.33
810.138	26.57
810.313	27.12
810.489	26.55
810.664	26.25
810.84	26.08
811.015	27.37
811.191	27.48
811.366	25.93
811.542	27.58
811.717	28.05
811.892	28.04
812.068	28.77
812.243	26.6
812.419	26.72
812.594	25.5
812.769	24.82
812.944	23.43
813.12	22.44
813.295	22.08
813.47	19.27
813.645	20.1
813.821	18.35
813.996	18.29
814.171	21.04
814.346	20.88
814.521	21.19
814.697	21.23
814.872	20.61
815.047	20.2
815.222	20.82
815.397	22.33
815.572	22.88
815.747	23.19
815.922	21.52
816.097	20.15
816.272	18.61
816.447	19.06
816.622	19.56
816.797	19.32
816.972	18.74
817.147	19.88
817.322	20.87
817.496	20.8
817.671	22.13
817.846	22.2
818.021	21.58
818.196	22.75
818.371	23.64
818.545	22.89
818.72	23.74
818.895	23.8
819.069	22.75
819.244	21.07
819.419	20.31
819.594	20.94
819.768	22.07
819.943	22.62
820.117	22.27
820.292	20.37
820.467	20.63
820.641	19.95
820.816	21.01
820.99	21.06
821.165	21.28
821.339	21.06
821.514	20.65
821.688	20.21
821.863	20.16
822.037	19.64
822.212	20
822.386	19.53
822.56	19.59
822.735	19.4
822.909	19.43
823.084	19.32
823.258	19.16
823.432	18.84
823.606	18.77
823.781	18.81
823.955	19.31
824.129	19.34
824.303	19.72
824.478	19.87
824.652	19.51
824.826	19.56
825	19.34
825.174	19.73
825.348	20.16
825.523	20.39
825.697	19.82
825.871	19.62
826.045	19.22
826.219	19.32
826.393	19.37
826.567	20.03
826.741	19.73
826.915	20.21
827.089	19.75
827.263	19.65
827.437	19.53
827.611	19.56
827.784	20.03
827.958	20.16
828.132	20.22
828.306	20.24
828.48	20.27
828.654	20.74
828.827	20.69
829.001	20.59
829.175	20.46
829.349	20.61
829.522	21.31
829.696	20.74
829.87	21.66
830.044	21.41
830.217	21.73
830.391	21.49
830.565	21.92
830.738	21.15
830.912	21.85
831.085	21.38
831.259	21.49
831.432	20.12
831.606	21.03
831.779	20.28
831.953	20.76
832.126	20.73
832.3	20.36
832.473	18.99
832.647	19.35
832.82	19.93
832.994	20.47
833.167	20.06
833.34	20.71
833.514	19.68
833.687	19.16
833.86	18.74
834.034	18.53
834.207	17.76
834.38	18.41
834.553	18.5
834.727	18.46
834.9	18.21
835.073	18.68
835.246	18.75
835.419	19.24
835.593	19.58
835.766	19.82
835.939	19.85
836.112	19.84
836.285	19.02
836.458	18.74
836.631	18.72
836.804	19.28
836.977	20.5
837.15	20.21
837.323	18.7
837.496	19.8
837.669	18.76
837.842	21.13
838.015	22.6
838.188	24.61
838.361	25.68
838.533	25.31
838.706	25.64
838.879	23.46
839.052	24.57
839.225	27.19
839.398	25.96
839.57	27.29
839.743	25.2
839.916	26.21
840.088	24.71
840.261	24.32
840.434	25.37
840.607	25.39
840.779	24.79
840.952	23.64
841.124	23.02
841.297	23.12
841.47	22.86
841.642	24.17
841.815	23.15
841.987	25.63
842.16	26.1
842.332	24.06
842.505	22.93
842.677	23.43
842.85	24.97
843.022	23.66
843.194	26.31
843.367	26.4
843.539	25.11
843.712	27.58
843.884	26.48
844.056	29.13
844.229	30.34
844.401	32.19
844.573	35.17
844.745	36.63
844.918	38.63
845.09	34.3
845.262	31.91
845.434	32
845.606	32.54
845.779	29.32
845.951	26.99
846.123	27.56
846.295	29.38
846.467	28.39
846.639	29.48
846.811	28.98
846.983	31.18
847.155	33.38
847.327	31.19
847.499	28.93
847.671	32.43
847.843	32.24
848.015	31.72
848.187	30.99
848.359	34.18
848.531	28.97
848.703	29.06
848.875	26.61
849.047	27.37
849.218	28.99
849.39	27.89
849.562	23.92
849.734	20.5
849.905	18.21
850.077	14.64
850.249	10.12
850.421	11.07
850.592	12.14
850.764	15.23
850.936	16.99
851.107	17.92
851.279	18.74
851.451	20.82
851.622	22.3
851.794	24.61
851.965	27.45
852.137	25.58
852.308	24.84
852.48	20.98
852.651	19.13
852.823	14.92
852.994	11.56
853.166	15.67
853.337	14.06
853.509	16.13
853.68	14.92
853.851	16.69
854.023	18.4
854.194	24.34
854.365	25.4
854.537	26.79
854.708	28.24
854.879	33.91
855.05	30.55
855.222	32.02
855.393	30.41
855.564	29.41
855.735	28.82
855.906	29.78
856.078	26.29
856.249	32.63
856.42	33.72
856.591	33.56
856.762	28.91
856.933	31.35
857.104	29.93
857.275	33.46
857.446	37.68
857.617	36.52
857.788	39.39
857.959	39.46
858.13	34.52
858.301	31.6
858.472	31.72
858.643	29.38
858.814	32.64
858.985	34.92
859.155	35.16
859.326	38.97
859.497	34.49
859.668	32.66
859.839	30.87
860.009	30.61
860.18	30.95
860.351	28.22
860.522	29.89
860.692	27.65
860.863	29.65
861.034	27.34
861.204	24.15
861.375	28.62
861.546	28.64
861.716	31.17
861.887	33.09
862.057	34.6
862.228	39.31
862.398	40.58
862.569	36.04
862.739	31.72
862.91	29.94
863.08	26.53
863.251	28.53
863.421	25.92
863.592	21.84
863.762	24.47
863.932	22.26
864.103	23.95
864.273	24.47
864.443	27.9
864.614	31.73
864.784	33.08
864.954	36.37
865.125	33.62
865.295	30.63
865.465	35.23
865.635	32
865.805	35.17
865.976	27.19
866.146	26.89
866.316	25.82
866.486	22.26
866.656	21.23
866.826	18.35
866.996	19.79
867.166	19.89
867.336	17.56
867.506	16.42
867.676	16.06
867.846	20.47
868.016	24.16
868.186	21.7
868.356	21.25
868.526	27.77
868.696	29.85
868.866	23.12
869.036	26.95
869.206	28.94
869.376	32.24
869.545	28.53
869.715	26.58
869.885	22.3
870.055	21.26
870.224	19.2
870.394	14.05
870.564	10.46
870.734	16.33
870.903	11.74
871.073	7.51
871.243	4.83
871.412	7.83
871.582	9.22
871.751	8
871.921	18.86
872.091	19.08
872.26	15.94
872.43	18.12
872.599	19.16
872.769	23.24
872.938	20.82
873.108	21.86
873.277	20.84
873.446	22.5
873.616	26.87
873.785	22.16
873.955	22.92
874.124	23.25
874.293	25.74
874.463	22.66
874.632	18.6
874.801	22.32
874.971	20.24
875.14	15.49
875.309	14.91
875.478	12.34
875.647	12.72
875.817	14.2
875.986	13.06
876.155	12.92
876.324	11.03
876.493	16.84
876.662	19.79
876.831	19.42
877	20.48
877.17	22.5
877.339	24.43
877.508	25.56
877.677	27.62
877.846	31.49
878.015	29.94
878.184	33.44
878.352	29.15
878.521	26.32
878.69	26.33
878.859	27.6
879.028	24.7
879.197	23.07
879.366	22.16
879.534	16.94
879.703	16.94
879.872	16.43
880.041	16.21
880.21	17.15
880.378	16.34
880.547	15.99
880.716	16.13
880.884	16.92
881.053	16.6
881.222	15.59
881.39	16.88
881.559	17.57
881.727	18.07
881.896	17.56
882.065	17.88
882.233	18.09
882.402	18.93
882.57	18.69
882.739	18.46
882.907	19.04
883.076	19.47
883.244	19.46
883.412	18.6
883.581	18.89
883.749	19.54
883.918	19.18
884.086	20.03
884.254	19.57
884.423	20.96
884.591	21.88
884.759	20.8
884.927	21.85
885.096	22.27
885.264	23.24
885.432	22.75
885.6	21.73
885.769	22.32
885.937	18.21
886.105	18.75
886.273	18.16
886.441	16.48
886.609	17.7
886.777	14.17
886.945	15.34
887.113	18.27
887.281	15.72
887.449	15.85
887.617	13.18
887.785	18.81
887.953	17.92
888.121	14.71
888.289	16.43
888.457	15.78
888.625	18.99
888.793	19.31
888.961	14.58
889.129	21.67
889.296	25.99
889.464	29.82
889.632	30.05
889.8	31.34
889.967	34.97
890.135	32.14
