Data from 2938782__Reflection_01.txt Node
Date: Fri Mar 13 12:35:34 EDT 2015
User: robert
Spectrometer: USB4E03002
Autoset integration time: false
Trigger mode: 4
Integration Time (sec): 1.000000E-1
Scans to average: 10
Electric dark correction enabled: false
Nonlinearity correction enabled: false
Boxcar width: 5
Stray light correction enabled: false
XAxis mode: Wavelengths
Stop averaging: false
Number of Pixels in Spectrum: 3648
>>>>>Begin Spectral Data<<<<<
177.575	120.83
177.794	115.72
178.014	120.59
178.233	116.53
178.452	120.06
178.672	108.97
178.891	101.69
179.11	95.68
179.33	93.25
179.549	96.03
179.768	94.68
179.987	93.73
180.207	94.09
180.426	86.29
180.645	90.48
180.864	86.23
181.084	85.83
181.303	90.72
181.522	94.2
181.741	93.17
181.96	89.39
182.179	89.15
182.398	82.96
182.618	80.04
182.837	81.31
183.056	76.14
183.275	72.58
183.494	75.37
183.713	72.39
183.932	73.68
184.151	74.25
184.37	76.74
184.589	80.81
184.808	80.88
185.027	79.03
185.246	78.94
185.465	82.62
185.684	91.34
185.903	92.15
186.122	92.35
186.341	84.91
186.56	82.15
186.779	79.94
186.998	78.4
187.216	74.68
187.435	77.32
187.654	73.5
187.873	70.88
188.092	66.7
188.311	65.7
188.53	63
188.748	69.67
188.967	73.53
189.186	75.71
189.405	78.78
189.623	85.93
189.842	87.53
190.061	95.66
190.28	96.67
190.498	96.69
190.717	96.75
190.936	100.8
191.154	97.22
191.373	89.85
191.592	89.34
191.81	88.7
192.029	87.41
192.248	87.03
192.466	85.65
192.685	82.54
192.904	80.42
193.122	79.59
193.341	80.76
193.559	82.8
193.778	82.17
193.996	83.54
194.215	76.02
194.433	75.13
194.652	73.38
194.87	66.77
195.089	69.15
195.307	72.58
195.526	75.15
195.744	72.73
195.963	72.21
196.181	75.04
196.399	73.04
196.618	78.29
196.836	79.28
197.055	78.28
197.273	84.11
197.491	83.85
197.71	83.16
197.928	87.13
198.146	81.13
198.365	78.79
198.583	82.05
198.801	79.95
199.019	76.56
199.238	76.33
199.456	79.19
199.674	76.57
199.892	74.8
200.111	75.3
200.329	71.58
200.547	76.46
200.765	79.78
200.983	78.84
201.202	81.88
201.42	86.43
201.638	84.94
201.856	81.49
202.074	84.89
202.292	82.98
202.51	87.98
202.728	84.82
202.946	85.67
203.165	83.73
203.383	84.68
203.601	84.92
203.819	86.01
204.037	85.59
204.255	91.14
204.473	89.31
204.691	92.19
204.909	86.61
205.127	86.77
205.345	83.56
205.562	80.28
205.78	76.99
205.998	69.16
206.216	68.01
206.434	70.19
206.652	69.44
206.87	71.34
207.088	70.93
207.306	71.22
207.523	73.68
207.741	77.07
207.959	81.46
208.177	83.81
208.395	92.1
208.612	92.27
208.83	89.42
209.048	89.53
209.266	89.66
209.483	92.17
209.701	95.3
209.919	92.52
210.136	94.8
210.354	89.53
210.572	90.29
210.79	89.03
211.007	85.04
211.225	89.47
211.442	87.54
211.66	86.59
211.878	88.74
212.095	68.47
212.313	68.85
212.53	65.1
212.748	66.53
212.966	63.88
213.183	62.24
213.401	64.84
213.618	61.74
213.836	62
214.053	59.72
214.271	56.14
214.488	70.88
214.705	73.52
214.923	75.31
215.14	73.76
215.358	73.16
215.575	72.18
215.793	73.81
216.01	73.42
216.227	70.47
216.445	70.93
216.662	70.75
216.879	71.66
217.097	68.94
217.314	64.68
217.531	64.41
217.749	63.61
217.966	68.58
218.183	69.09
218.4	68.49
218.618	70.84
218.835	66.76
219.052	65.53
219.269	68.31
219.487	69.79
219.704	72.6
219.921	71.42
220.138	70.45
220.355	64.46
220.572	59.06
220.79	58.08
221.007	57.29
221.224	57.47
221.441	56.38
221.658	55.48
221.875	52.42
222.092	50.66
222.309	52.28
222.526	51.53
222.743	51.76
222.96	53.1
223.177	53.56
223.394	50.01
223.611	51.77
223.828	53.48
224.045	50.53
224.262	48.88
224.479	47.9
224.696	47.19
224.913	47.3
225.13	46.16
225.347	45.44
225.564	44.66
225.781	45.94
225.997	42.26
226.214	38.22
226.431	36.21
226.648	35.45
226.865	33.69
227.082	30.68
227.298	27.31
227.515	24.49
227.732	22.41
227.949	20.9
228.165	18.44
228.382	18.49
228.599	19
228.816	18.03
229.032	17.39
229.249	16.39
229.466	16.32
229.682	16.75
229.899	17.5
230.116	17.27
230.332	17.89
230.549	19.09
230.765	19.52
230.982	19.66
231.199	20.58
231.415	21.52
231.632	22.74
231.848	23.36
232.065	24.22
232.281	24.31
232.498	23.62
232.714	23.67
232.931	24.75
233.147	24.99
233.364	23.48
233.58	23.8
233.797	23.06
234.013	23.39
234.23	23.22
234.446	23.22
234.662	22.68
234.879	23.88
235.095	22.42
235.312	21.19
235.528	21.19
235.744	21.47
235.961	21.07
236.177	22.02
236.393	21.47
236.61	21.51
236.826	20.81
237.042	22.13
237.258	23.09
237.475	24.06
237.691	24.06
237.907	24.12
238.123	24.5
238.339	25.02
238.556	25.19
238.772	26.18
238.988	26.28
239.204	25.98
239.42	24.14
239.636	22.87
239.853	21.81
240.069	21.06
240.285	21
240.501	19.7
240.717	18.83
240.933	17.61
241.149	16.22
241.365	14.87
241.581	14.16
241.797	14.2
242.013	13.99
242.229	13.68
242.445	13.36
242.661	13.18
242.877	13.62
243.093	13.57
243.309	13.3
243.525	13.67
243.741	13.91
243.957	13.89
244.173	14.74
244.388	14.61
244.604	15.33
244.82	15.8
245.036	15.15
245.252	14.29
245.468	13.77
245.683	13.94
245.899	13
246.115	12.94
246.331	12.67
246.547	11.94
246.762	11.37
246.978	10.64
247.194	10.37
247.409	10.14
247.625	10.29
247.841	10.25
248.057	10.06
248.272	9.91
248.488	9.73
248.703	9.84
248.919	9.67
249.135	10.15
249.35	11.16
249.566	12.06
249.782	12.44
249.997	12.04
250.213	12.02
250.428	12.19
250.644	13.5
250.859	13.28
251.075	13.16
251.29	13.67
251.506	13.44
251.721	13.05
251.937	12.17
252.152	12.57
252.368	12.82
252.583	12.93
252.798	12.96
253.014	12.6
253.229	13.08
253.445	13.64
253.66	13.61
253.875	14.15
254.091	15.04
254.306	15.45
254.521	16.52
254.737	17.52
254.952	17.3
255.167	17.33
255.383	17.54
255.598	17.55
255.813	17.16
256.028	16.24
256.244	16.45
256.459	15.8
256.674	15.47
256.889	13.68
257.104	13.72
257.32	13.95
257.535	13.32
257.75	12.59
257.965	11.98
258.18	11.58
258.395	11.46
258.61	10.67
258.826	9.62
259.041	9.51
259.256	9.31
259.471	8.69
259.686	8.42
259.901	8.31
260.116	8.25
260.331	8.09
260.546	8.05
260.761	8.02
260.976	8.01
261.191	8.15
261.406	8.05
261.621	8.28
261.836	8.26
262.05	8.6
262.265	8.93
262.48	9.38
262.695	10.02
262.91	10.68
263.125	10.83
263.34	11.12
263.555	11.72
263.769	12.25
263.984	12.14
264.199	12.75
264.414	12.34
264.629	12.26
264.843	12.31
265.058	12.21
265.273	11.28
265.488	10.77
265.702	10.14
265.917	10.33
266.132	10.26
266.346	10.14
266.561	9.86
266.776	9.92
266.99	10
267.205	9.6
267.42	9.35
267.634	9.06
267.849	9.62
268.063	10.05
268.278	9.53
268.492	9.36
268.707	9.42
268.922	9.22
269.136	9.41
269.351	8.95
269.565	8.97
269.78	8.92
269.994	9.18
270.209	8.89
270.423	8.31
270.637	8.4
270.852	8.23
271.066	7.88
271.281	8
271.495	7.91
271.709	8.1
271.924	7.84
272.138	7.89
272.353	8.02
272.567	8.2
272.781	8.68
272.996	8.47
273.21	8.63
273.424	8.8
273.638	8.66
273.853	8.66
274.067	8.55
274.281	8.74
274.495	8.93
274.71	9.4
274.924	9.48
275.138	9.34
275.352	9.5
275.566	9.48
275.781	9.51
275.995	10.13
276.209	10.21
276.423	10.02
276.637	10.48
276.851	10.64
277.065	10.06
277.279	9.84
277.493	9.7
277.707	9.83
277.921	9.33
278.135	9.22
278.349	8.71
278.563	8.63
278.777	9.04
278.991	8.95
279.205	8.93
279.419	8.97
279.633	8.8
279.847	8.95
280.061	8.95
280.275	9.04
280.489	9.25
280.703	9.36
280.917	9.11
281.131	8.79
281.344	8.64
281.558	8.37
281.772	8.66
281.986	8.89
282.2	9.01
282.414	8.86
282.627	8.93
282.841	9.02
283.055	9.09
283.269	9.13
283.482	9.05
283.696	8.84
283.91	8.67
284.123	7.84
284.337	7.64
284.551	7.36
284.764	7.54
284.978	7.03
285.192	6.79
285.405	6.7
285.619	6.51
285.833	6.53
286.046	6.42
286.26	6.55
286.473	7.02
286.687	6.96
286.9	6.9
287.114	6.97
287.327	7.66
287.541	7.91
287.754	7.84
287.968	8.22
288.181	8.48
288.395	8.68
288.608	8.48
288.822	8.46
289.035	8.31
289.248	8.33
289.462	8.18
289.675	7.89
289.889	7.68
290.102	7.35
290.315	7.02
290.529	6.99
290.742	6.94
290.955	7.07
291.169	7.05
291.382	7.3
291.595	7.19
291.808	7.13
292.022	7.4
292.235	7.41
292.448	7.84
292.661	7.95
292.875	8
293.088	7.99
293.301	7.98
293.514	8.01
293.727	8.06
293.94	8.33
294.153	8.25
294.367	8.01
294.58	7.73
294.793	7.56
295.006	7.41
295.219	7.01
295.432	7.06
295.645	6.86
295.858	6.48
296.071	6.11
296.284	5.97
296.497	5.87
296.71	5.74
296.923	5.96
297.136	5.97
297.349	6.05
297.562	6.1
297.775	5.82
297.988	5.98
298.201	6.31
298.414	6.4
298.626	6.31
298.839	6.35
299.052	6.47
299.265	6.75
299.478	6.95
299.691	7.34
299.903	7.67
300.116	8.08
300.329	7.97
300.542	7.87
300.755	8.07
300.967	8.48
301.18	8.66
301.393	8.51
301.605	8.23
301.818	8.05
302.031	7.81
302.243	7.76
302.456	7.55
302.669	8.1
302.881	7.94
303.094	7.9
303.307	7.85
303.519	7.86
303.732	8.39
303.944	8.19
304.157	8.13
304.37	7.95
304.582	8.01
304.795	8.17
305.007	7.72
305.22	8.18
305.432	8.2
305.645	8.21
305.857	8.33
306.069	8.21
306.282	8.12
306.494	8.42
306.707	8.69
306.919	8.59
307.132	8.68
307.344	8.77
307.556	8.56
307.769	8.97
307.981	8.69
308.193	8.58
308.406	8.46
308.618	8.69
308.83	8.69
309.043	8.64
309.255	8.53
309.467	8.37
309.679	8.17
309.892	8.32
310.104	8.12
310.316	8.05
310.528	8.03
310.74	8.08
310.953	7.76
311.165	7.71
311.377	7.8
311.589	8.21
311.801	8.28
312.013	8.25
312.225	8.13
312.437	7.82
312.649	8.16
312.862	8.28
313.074	8.36
313.286	8.75
313.498	8.82
313.71	8.91
313.922	8.93
314.134	9.05
314.346	9.51
314.558	9.42
314.77	10.24
314.982	10.42
315.193	10.46
315.405	10.77
315.617	10.84
315.829	11.29
316.041	11.49
316.253	11.27
316.465	11.5
316.677	11.46
316.888	11.69
317.1	11.39
317.312	11.46
317.524	11.62
317.736	11.28
317.947	11.9
318.159	11.57
318.371	11.37
318.583	11.89
318.794	12.27
319.006	12.46
319.218	12.7
319.43	13
319.641	13.18
319.853	13.15
320.064	13.35
320.276	13.18
320.488	13.62
320.699	13.75
320.911	13.57
321.123	13.48
321.334	13.24
321.546	13.13
321.757	13.04
321.969	12.73
322.18	12.59
322.392	12.42
322.603	12.24
322.815	12.05
323.026	12.14
323.238	12.07
323.449	11.76
323.661	12.26
323.872	12.5
324.083	12.11
324.295	12.25
324.506	12.45
324.718	12.7
324.929	12.97
325.14	13.01
325.352	12.82
325.563	13.12
325.774	13.25
325.986	13.16
326.197	13.28
326.408	13.83
326.62	13.94
326.831	14.12
327.042	14.19
327.253	14.65
327.464	14.92
327.676	15.16
327.887	15.13
328.098	15.5
328.309	15.82
328.52	15.81
328.732	15.94
328.943	16.39
329.154	16.85
329.365	17.21
329.576	17.05
329.787	17.12
329.998	17.74
330.209	17.82
330.42	18.26
330.631	18.15
330.842	18.39
331.053	18.56
331.264	18.21
331.475	18.07
331.686	18.21
331.897	18.4
332.108	18.54
332.319	18.49
332.53	18.74
332.741	18.43
332.952	18.4
333.163	18.44
333.374	18.39
333.585	18.57
333.795	18.69
334.006	18.7
334.217	18.48
334.428	18.43
334.639	18.53
334.849	18.66
335.06	18.64
335.271	18.8
335.482	18.99
335.692	18.95
335.903	19.06
336.114	18.55
336.325	18.5
336.535	18.71
336.746	18.48
336.957	18.23
337.167	17.91
337.378	18.08
337.589	18.32
337.799	17.96
338.01	18.05
338.22	17.89
338.431	18.45
338.642	18.06
338.852	17.74
339.063	17.94
339.273	18.18
339.484	18.19
339.694	18.06
339.905	17.85
340.115	18.19
340.326	18.32
340.536	18.46
340.746	18.26
340.957	18.56
341.167	18.81
341.378	18.93
341.588	18.68
341.799	18.52
342.009	18.33
342.219	18.13
342.43	18.03
342.64	17.93
342.85	17.91
343.061	18.08
343.271	18.33
343.481	18.26
343.691	18
343.902	18.3
344.112	18.59
344.322	18.54
344.532	18.67
344.743	18.34
344.953	18.02
345.163	17.81
345.373	17.39
345.583	17.13
345.793	17.16
346.004	17.06
346.214	16.81
346.424	16.66
346.634	16.76
346.844	16.9
347.054	17.1
347.264	17.24
347.474	17.41
347.684	17.7
347.894	17.53
348.104	17.27
348.314	17.1
348.524	17.1
348.734	17.22
348.944	17.28
349.154	17
349.364	16.92
349.574	16.8
349.784	16.83
349.994	16.76
350.204	16.77
350.413	16.72
350.623	17.04
350.833	17.06
351.043	16.98
351.253	16.87
351.463	16.76
351.672	16.92
351.882	17.29
352.092	17.19
352.302	17.04
352.511	17.06
352.721	17.15
352.931	17.3
353.141	17.22
353.35	16.92
353.56	16.77
353.77	16.97
353.979	16.76
354.189	16.5
354.399	16.38
354.608	16.42
354.818	16.43
355.027	16.46
355.237	16.32
355.447	16.5
355.656	16.43
355.866	16.48
356.075	16.43
356.285	16.58
356.494	16.46
356.704	16.59
356.913	16.78
357.123	16.64
357.332	16.53
357.542	16.31
357.751	16.11
357.96	16.37
358.17	16.19
358.379	16.01
358.589	15.83
358.798	15.82
359.007	15.87
359.217	15.7
359.426	15.43
359.635	15.34
359.845	15.68
360.054	15.43
360.263	15.18
360.472	15.28
360.682	15.25
360.891	15.11
361.1	15
361.309	14.85
361.519	14.9
361.728	15.08
361.937	15.04
362.146	14.81
362.355	14.9
362.564	15.07
362.774	15.13
362.983	15.06
363.192	15.21
363.401	15.33
363.61	15.38
363.819	15.33
364.028	15.56
364.237	15.85
364.446	15.86
364.655	15.94
364.864	15.75
365.073	15.62
365.282	15.77
365.491	15.67
365.7	15.57
365.909	15.56
366.118	15.58
366.327	15.31
366.536	15.15
366.745	15.19
366.954	15.02
367.162	15.09
367.371	15.05
367.58	15.12
367.789	15
367.998	15.1
368.207	14.83
368.415	14.76
368.624	14.96
368.833	15
369.042	14.95
369.25	15.11
369.459	15.15
369.668	15.07
369.877	14.98
370.085	14.86
370.294	14.91
370.503	15.26
370.711	14.92
370.92	14.83
371.129	14.71
371.337	14.62
371.546	14.69
371.754	14.59
371.963	14.66
372.171	14.64
372.38	14.97
372.589	14.86
372.797	14.6
373.006	15.01
373.214	14.94
373.423	14.86
373.631	14.74
373.84	14.58
374.048	14.61
374.256	14.56
374.465	14.5
374.673	14.35
374.882	14.43
375.09	14.64
375.298	14.28
375.507	14.22
375.715	14.22
375.923	14.41
376.132	14.37
376.34	14.32
376.548	14.19
376.757	14.22
376.965	14.4
377.173	14.16
377.381	13.83
377.59	14.07
377.798	14.11
378.006	13.91
378.214	13.81
378.423	13.84
378.631	13.76
378.839	13.76
379.047	13.65
379.255	13.41
379.463	13.5
379.671	13.48
379.879	13.27
380.088	12.98
380.296	13.09
380.504	12.95
380.712	12.79
380.92	12.89
381.128	13.07
381.336	13.28
381.544	13.19
381.752	13.16
381.96	13.1
382.168	12.91
382.376	13.13
382.584	13.24
382.791	13.07
382.999	13.01
383.207	12.75
383.415	12.64
383.623	12.42
383.831	12.43
384.039	12.32
384.247	12.49
384.454	12.61
384.662	12.5
384.87	12.23
385.078	12.47
385.285	12.38
385.493	12.5
385.701	12.4
385.909	12.31
386.116	12.38
386.324	12.18
386.532	12.17
386.739	12.07
386.947	11.95
387.155	12.26
387.362	12.13
387.57	12.27
387.778	12.15
387.985	12.1
388.193	12.11
388.4	12.15
388.608	12.43
388.816	12.34
389.023	12.45
389.231	12.4
389.438	12.15
389.646	12.17
389.853	12.07
390.061	11.97
390.268	12.01
390.475	11.83
390.683	11.75
390.89	11.48
391.098	11.47
391.305	11.45
391.512	11.36
391.72	11.4
391.927	11.23
392.135	11.36
392.342	11.48
392.549	11.41
392.756	11.5
392.964	11.33
393.171	11.57
393.378	11.37
393.586	11.2
393.793	11.2
394	11.15
394.207	11.36
394.414	11.28
394.622	11.2
394.829	11.2
395.036	11.2
395.243	11.37
395.45	11.39
395.657	11.48
395.864	11.57
396.072	11.53
396.279	11.56
396.486	11.43
396.693	11.29
396.9	11.37
397.107	11.41
397.314	11.47
397.521	11.25
397.728	11.06
397.935	11.1
398.142	11.02
398.349	11.26
398.556	11.09
398.763	10.97
398.97	10.96
399.177	10.85
399.383	10.73
399.59	10.71
399.797	10.75
400.004	10.8
400.211	10.75
400.418	10.83
400.625	10.81
400.831	10.83
401.038	10.98
401.245	10.87
401.452	10.98
401.658	11.16
401.865	11.19
402.072	11.31
402.279	11.31
402.485	11.12
402.692	11.12
402.899	11.12
403.105	11.21
403.312	10.95
403.519	10.78
403.725	10.72
403.932	10.42
404.138	10.36
404.345	10.3
404.552	10.15
404.758	10.25
404.965	10.04
405.171	9.96
405.378	9.91
405.584	10.01
405.791	10.32
405.997	10.21
406.204	10.49
406.41	10.42
406.617	10.48
406.823	10.62
407.029	10.55
407.236	10.75
407.442	10.68
407.649	10.79
407.855	10.83
408.061	10.87
408.268	10.89
408.474	10.7
408.68	10.64
408.887	10.4
409.093	10.36
409.299	10.4
409.505	10.46
409.712	10.42
409.918	10.27
410.124	10.3
410.33	10.12
410.537	10.07
410.743	10.04
410.949	10.02
411.155	10.12
411.361	10.07
411.567	10.12
411.773	9.92
411.98	9.97
412.186	9.92
412.392	9.81
412.598	9.88
412.804	9.87
413.01	9.93
413.216	10.11
413.422	10.1
413.628	10.02
413.834	10
414.04	9.94
414.246	9.88
414.452	9.83
414.658	9.88
414.864	9.68
415.07	9.88
415.275	9.8
415.481	9.72
415.687	9.65
415.893	9.56
416.099	9.5
416.305	9.5
416.511	9.59
416.716	9.48
416.922	9.32
417.128	9.29
417.334	9.04
417.539	9.09
417.745	8.92
417.951	8.8
418.157	8.87
418.362	8.81
418.568	8.77
418.774	8.67
418.979	8.76
419.185	8.73
419.391	8.71
419.596	8.67
419.802	8.54
420.008	8.54
420.213	9.17
420.419	9.1
420.624	9.08
420.83	9.12
421.035	9.12
421.241	9.03
421.446	8.97
421.652	8.96
421.857	8.97
422.063	8.96
422.268	8.95
422.474	8.36
422.679	8.38
422.885	8.34
423.09	8.23
423.295	8.22
423.501	8.21
423.706	8.29
423.911	8.32
424.117	8.34
424.322	8.36
424.527	8.35
424.733	8.29
424.938	8.27
425.143	8.24
425.349	8.26
425.554	8.2
425.759	8.32
425.964	8.31
426.169	8.32
426.375	8.31
426.58	8.36
426.785	8.42
426.99	8.58
427.195	8.68
427.4	8.77
427.605	8.85
427.811	8.96
428.016	8.86
428.221	8.98
428.426	9.01
428.631	9.02
428.836	9.01
429.041	9.05
429.246	8.98
429.451	8.88
429.656	8.91
429.861	8.87
430.066	8.82
430.271	8.72
430.476	8.54
430.681	8.54
430.886	8.6
431.09	8.65
431.295	8.57
431.5	8.69
431.705	8.68
431.91	8.63
432.115	8.7
432.32	8.82
432.524	8.83
432.729	9.09
432.934	9.09
433.139	9.01
433.343	8.9
433.548	8.91
433.753	8.87
433.958	8.9
434.162	8.97
434.367	9.01
434.572	8.97
434.776	8.99
434.981	8.76
435.186	8.7
435.39	8.8
435.595	8.84
435.799	8.83
436.004	8.82
436.209	8.89
436.413	8.85
436.618	8.69
436.822	8.58
437.027	8.58
437.231	8.64
437.436	8.78
437.64	8.7
437.845	8.67
438.049	8.77
438.253	8.67
438.458	8.56
438.662	8.51
438.867	8.68
439.071	8.77
439.275	8.74
439.48	8.71
439.684	8.59
439.888	8.6
440.093	8.57
440.297	8.46
440.501	8.49
440.706	8.56
440.91	8.59
441.114	8.49
441.318	8.43
441.523	8.46
441.727	8.46
441.931	8.5
442.135	8.59
442.339	8.64
442.543	8.71
442.748	8.7
442.952	8.71
443.156	8.7
443.36	8.65
443.564	8.7
443.768	8.68
443.972	8.61
444.176	8.65
444.38	8.59
444.584	8.53
444.788	8.49
444.992	8.49
445.196	8.46
445.4	8.39
445.604	8.49
445.808	8.53
446.012	8.48
446.216	8.56
446.42	8.5
446.624	8.42
446.828	8.39
447.032	8.34
447.235	8.34
447.439	8.36
447.643	8.43
447.847	8.37
448.051	8.34
448.254	8.35
448.458	8.41
448.662	8.36
448.866	8.39
449.069	8.58
449.273	8.66
449.477	8.65
449.681	8.64
449.884	8.67
450.088	8.77
450.292	8.75
450.495	8.9
450.699	8.73
450.902	8.72
451.106	8.75
451.31	8.74
451.513	8.78
451.717	8.81
451.92	8.79
452.124	8.75
452.327	8.66
452.531	8.66
452.734	8.59
452.938	8.79
453.141	8.95
453.345	9.03
453.548	8.95
453.752	8.92
453.955	8.98
454.158	9.01
454.362	8.97
454.565	9.03
454.769	9.04
454.972	8.98
455.175	8.93
455.379	8.89
455.582	8.83
455.785	8.8
455.988	8.78
456.192	8.74
456.395	8.77
456.598	8.92
456.801	8.92
457.005	8.82
457.208	8.96
457.411	8.86
457.614	8.81
457.817	8.73
458.021	8.63
458.224	8.61
458.427	8.5
458.63	8.48
458.833	8.33
459.036	8.26
459.239	8.22
459.442	8.08
459.645	8.04
459.848	8.02
460.051	8.07
460.254	8.1
460.457	8.08
460.66	8.12
460.863	8.13
461.066	8.14
461.269	8.11
461.472	8.31
461.675	8.34
461.878	8.43
462.081	8.46
462.284	8.4
462.486	8.41
462.689	8.39
462.892	8.49
463.095	8.4
463.298	8.55
463.5	8.73
463.703	8.53
463.906	8.62
464.109	8.57
464.311	8.56
464.514	8.62
464.717	8.8
464.92	8.9
465.122	8.93
465.325	9.05
465.528	9
465.73	8.96
465.933	9.06
466.135	9.12
466.338	9.02
466.541	8.95
466.743	8.98
466.946	8.84
467.148	8.88
467.351	8.84
467.553	8.85
467.756	8.81
467.958	8.74
468.161	8.82
468.363	8.8
468.566	8.87
468.768	8.93
468.971	8.93
469.173	9.01
469.375	8.99
469.578	8.96
469.78	8.87
469.983	8.95
470.185	9.03
470.387	8.99
470.59	8.93
470.792	9.01
470.994	9.01
471.196	9.04
471.399	9
471.601	9.03
471.803	8.99
472.005	9.08
472.208	9.07
472.41	8.99
472.612	8.97
472.814	9.11
473.016	9.13
473.218	9.23
473.421	9.12
473.623	9.19
473.825	9.2
474.027	9.21
474.229	9.18
474.431	9.21
474.633	9.27
474.835	9.23
475.037	9.13
475.239	9.04
475.441	9.04
475.643	9.1
475.845	8.99
476.047	8.95
476.249	8.97
476.451	9.03
476.653	8.9
476.855	8.89
477.057	8.85
477.258	8.82
477.46	8.86
477.662	8.81
477.864	8.79
478.066	8.9
478.268	8.82
478.469	8.79
478.671	8.64
478.873	8.76
479.075	8.72
479.276	8.76
479.478	8.8
479.68	8.7
479.882	8.69
480.083	8.67
480.285	8.54
480.487	8.56
480.688	8.48
480.89	8.57
481.091	8.5
481.293	8.43
481.495	8.33
481.696	8.23
481.898	8.2
482.099	8.08
482.301	8.03
482.502	8.02
482.704	7.98
482.905	7.97
483.107	7.88
483.308	7.83
483.51	7.79
483.711	7.8
483.913	7.79
484.114	7.77
484.315	7.78
484.517	7.78
484.718	7.76
484.92	7.76
485.121	7.73
485.322	7.75
485.524	7.73
485.725	7.77
485.926	7.78
486.127	7.77
486.329	7.8
486.53	7.79
486.731	7.77
486.932	7.77
487.134	7.77
487.335	7.8
487.536	7.79
487.737	7.82
487.938	7.83
488.139	7.86
488.341	7.91
488.542	7.93
488.743	7.97
488.944	7.98
489.145	8.03
489.346	8.05
489.547	8.08
489.748	8.12
489.949	8.18
490.15	8.13
490.351	8.11
490.552	8.08
490.753	8.09
490.954	8.11
491.155	8.15
491.356	8.15
491.557	8.16
491.758	8.19
491.959	8.2
492.159	8.19
492.36	8.26
492.561	8.28
492.762	8.31
492.963	8.36
493.164	8.4
493.364	8.42
493.565	8.44
493.766	8.49
493.967	8.49
494.167	8.54
494.368	8.59
494.569	8.62
494.769	8.64
494.97	8.7
495.171	8.69
495.371	8.75
495.572	8.78
495.773	8.81
495.973	8.83
496.174	8.85
496.375	8.87
496.575	8.9
496.776	9
496.976	9
497.177	9
497.377	9.01
497.578	9.01
497.778	9.03
497.979	9.14
498.179	9.21
498.38	9.19
498.58	9.26
498.78	9.3
498.981	9.28
499.181	9.35
499.382	9.43
499.582	9.49
499.782	9.52
499.983	9.51
500.183	9.55
500.383	9.59
500.584	9.69
500.784	9.68
500.984	9.7
501.184	9.69
501.385	9.77
501.585	9.79
501.785	9.77
501.985	9.87
502.185	10.01
502.386	9.97
502.586	9.98
502.786	9.97
502.986	10.03
503.186	10.08
503.386	10.11
503.586	10.08
503.786	10.1
503.987	10.15
504.187	10.05
504.387	10.06
504.587	10.1
504.787	10.1
504.987	10.25
505.187	10.28
505.387	10.3
505.587	10.4
505.786	10.45
505.986	10.48
506.186	10.6
506.386	10.73
506.586	10.82
506.786	10.84
506.986	10.92
507.186	10.87
507.386	10.9
507.585	11.02
507.785	10.98
507.985	10.98
508.185	10.99
508.384	11.02
508.584	11.02
508.784	10.93
508.984	11.13
509.183	11.17
509.383	11.19
509.583	11.31
509.782	11.25
509.982	11.3
510.182	11.39
510.381	11.51
510.581	11.51
510.781	11.59
510.98	11.63
511.18	11.53
511.379	11.54
511.579	11.71
511.778	11.65
511.978	11.68
512.177	11.8
512.377	11.87
512.576	11.85
512.776	11.94
512.975	11.99
513.175	12.11
513.374	12.2
513.573	12.34
513.773	12.4
513.972	12.54
514.172	12.77
514.371	12.9
514.57	12.93
514.77	13.08
514.969	13.08
515.168	13.22
515.367	13.3
515.567	13.38
515.766	13.39
515.965	13.44
516.164	13.48
516.364	13.45
516.563	13.42
516.762	13.5
516.961	13.46
517.16	13.55
517.359	13.52
517.559	13.62
517.758	13.63
517.957	13.67
518.156	13.69
518.355	13.72
518.554	13.72
518.753	13.77
518.952	13.82
519.151	13.89
519.35	13.91
519.549	13.99
519.748	13.99
519.947	14.14
520.146	14.21
520.345	14.21
520.544	14.35
520.743	14.44
520.942	14.51
521.141	14.56
521.339	14.69
521.538	14.82
521.737	14.88
521.936	15.01
522.135	15.03
522.333	15.18
522.532	15.43
522.731	15.51
522.93	15.66
523.129	15.81
523.327	15.93
523.526	16.07
523.725	16.11
523.923	16.16
524.122	16.23
524.321	16.3
524.519	16.34
524.718	16.26
524.917	16.3
525.115	16.35
525.314	16.32
525.512	16.4
525.711	16.38
525.909	16.46
526.108	16.54
526.306	16.54
526.505	16.65
526.703	16.67
526.902	16.75
527.1	16.76
527.299	16.76
527.497	16.87
527.696	16.91
527.894	16.95
528.092	16.96
528.291	17
528.489	17.04
528.688	17.01
528.886	17.04
529.084	17.08
529.283	17.1
529.481	17.16
529.679	17.18
529.877	17.23
530.076	17.3
530.274	17.39
530.472	17.47
530.67	17.56
530.869	17.72
531.067	17.84
531.265	17.98
531.463	18.1
531.661	18.21
531.859	18.28
532.057	18.36
532.255	18.38
532.454	18.48
532.652	18.49
532.85	18.55
533.048	18.61
533.246	18.64
533.444	18.67
533.642	18.72
533.84	18.79
534.038	18.89
534.236	18.93
534.434	19.07
534.632	19.09
534.83	19.2
535.027	19.25
535.225	19.25
535.423	19.34
535.621	19.4
535.819	19.46
536.017	19.54
536.215	19.53
536.412	19.65
536.61	19.69
536.808	19.77
537.006	19.86
537.203	19.95
537.401	20.08
537.599	20.16
537.797	20.27
537.994	20.44
538.192	20.48
538.39	20.57
538.587	20.64
538.785	20.73
538.983	20.86
539.18	20.94
539.378	21.09
539.575	21.13
539.773	21.26
539.97	21.29
540.168	21.32
540.366	21.39
540.563	21.46
540.761	21.48
540.958	21.51
541.155	21.52
541.353	21.55
541.55	21.51
541.748	21.56
541.945	21.55
542.143	21.58
542.34	21.64
542.537	21.67
542.735	21.72
542.932	21.73
543.129	21.87
543.327	21.95
543.524	22.1
543.721	22.3
543.919	22.46
544.116	22.6
544.313	22.81
544.51	22.97
544.708	23.21
544.905	23.38
545.102	23.65
545.299	23.73
545.496	23.85
545.693	23.95
545.891	24.03
546.088	24.08
546.285	24.12
546.482	24.05
546.679	24.05
546.876	24.02
547.073	23.98
547.27	23.86
547.467	23.79
547.664	23.76
547.861	23.74
548.058	23.72
548.255	23.7
548.452	23.76
548.649	23.82
548.846	23.83
549.043	23.9
549.24	23.97
549.437	24.08
549.633	24.25
549.83	24.33
550.027	24.3
550.224	24.3
550.421	24.24
550.618	24.16
550.814	24.26
551.011	24.28
551.208	24.32
551.405	24.29
551.601	24.24
551.798	24.16
551.995	24.01
552.191	24.01
552.388	24.03
552.585	24.13
552.781	24.14
552.978	24.08
553.175	24.06
553.371	24.08
553.568	24.11
553.764	24.17
553.961	24.27
554.157	24.37
554.354	24.52
554.55	24.61
554.747	24.61
554.943	24.72
555.14	24.84
555.336	24.82
555.533	24.73
555.729	24.77
555.926	24.83
556.122	24.93
556.318	25.12
556.515	25.03
556.711	24.91
556.907	24.99
557.104	25.1
557.3	25.17
557.496	25.25
557.693	25.4
557.889	25.61
558.085	25.67
558.281	25.64
558.478	25.64
558.674	25.72
558.87	25.94
559.066	25.98
559.262	26.08
559.459	25.98
559.655	26.15
559.851	26.14
560.047	25.98
560.243	25.9
560.439	25.94
560.635	26.06
560.831	26.04
561.027	26.03
561.223	25.93
561.419	25.8
561.615	25.91
561.811	25.83
562.007	25.83
562.203	26.03
562.399	26.16
562.595	26.14
562.791	26.11
562.987	26.23
563.183	26.22
563.379	26.39
563.575	26.47
563.771	26.6
563.966	26.57
564.162	26.62
564.358	26.47
564.554	26.56
564.75	26.58
564.945	26.51
565.141	26.54
565.337	26.54
565.533	26.57
565.728	26.63
565.924	26.61
566.12	26.78
566.315	26.76
566.511	26.9
566.707	26.92
566.902	26.88
567.098	27.09
567.293	27.09
567.489	27.13
567.684	27.16
567.88	27.04
568.076	27.02
568.271	26.94
568.467	26.98
568.662	26.96
568.858	26.91
569.053	27.02
569.248	26.96
569.444	27.04
569.639	27.07
569.835	27.02
570.03	27.13
570.225	27.15
570.421	27.23
570.616	27.22
570.812	27.26
571.007	27.28
571.202	27.33
571.397	27.36
571.593	27.27
571.788	27.34
571.983	27.44
572.178	27.47
572.374	27.57
572.569	27.66
572.764	27.76
572.959	27.79
573.154	27.9
573.35	28.03
573.545	28.01
573.74	28.11
573.935	28.16
574.13	28.15
574.325	28.21
574.52	28.18
574.715	28.21
574.91	28.3
575.105	28.36
575.3	28.35
575.495	28.42
575.69	28.5
575.885	28.57
576.08	28.7
576.275	28.87
576.47	28.95
576.665	29.13
576.86	29.17
577.055	29.09
577.25	29.22
577.444	29.33
577.639	29.36
577.834	29.47
578.029	29.65
578.224	29.61
578.418	29.58
578.613	29.72
578.808	29.72
579.003	29.81
579.197	29.97
579.392	29.96
579.587	30.04
579.781	30
579.976	29.94
580.171	29.83
580.365	30.03
580.56	30.05
580.755	30
580.949	30
581.144	30.09
581.338	30.11
581.533	30.19
581.727	30.33
581.922	30.44
582.116	30.68
582.311	30.88
582.505	30.76
582.7	30.9
582.894	31
583.089	31.19
583.283	31.15
583.478	31.17
583.672	31.24
583.866	31.19
584.061	31.19
584.255	31.04
584.449	31.14
584.644	31.16
584.838	31.18
585.032	31.37
585.226	31.35
585.421	31.51
585.615	31.75
585.809	31.7
586.003	31.66
586.198	31.82
586.392	31.78
586.586	31.69
586.78	31.82
586.974	31.97
587.168	31.73
587.363	31.73
587.557	31.6
587.751	31.42
587.945	31.41
588.139	31.28
588.333	31.1
588.527	31.31
588.721	31.2
588.915	31.1
589.109	30.97
589.303	30.92
589.497	30.82
589.691	30.71
589.885	30.76
590.079	30.86
590.273	30.9
590.466	30.98
590.66	31.09
590.854	31.29
591.048	31.36
591.242	31.32
591.436	31.51
591.629	31.67
591.823	31.94
592.017	32.07
592.211	31.86
592.404	31.99
592.598	32.02
592.792	31.87
592.986	31.91
593.179	31.77
593.373	31.86
593.567	31.86
593.76	31.71
593.954	31.47
594.147	31.36
594.341	31.59
594.535	31.5
594.728	31.46
594.922	31.4
595.115	31.23
595.309	31.2
595.502	31.12
595.696	31.03
595.889	30.98
596.083	31.09
596.276	31.02
596.47	30.99
596.663	30.96
596.856	30.95
597.05	31
597.243	31.06
597.437	31.28
597.63	31.29
597.823	31.35
598.017	31.43
598.21	31.5
598.403	31.74
598.596	31.82
598.79	32.11
598.983	32.28
599.176	32.42
599.369	32.54
599.563	32.46
599.756	32.64
599.949	32.76
600.142	32.86
600.335	32.96
600.528	32.88
600.722	32.83
600.915	32.64
601.108	32.43
601.301	32.32
601.494	32.16
601.687	32.1
601.88	32.01
602.073	31.93
602.266	31.73
602.459	31.54
602.652	31.43
602.845	31.35
603.038	31.36
603.231	31.5
603.424	31.5
603.617	31.52
603.809	31.58
604.002	31.54
604.195	31.41
604.388	31.52
604.581	31.64
604.774	31.71
604.966	31.68
605.159	31.74
605.352	31.64
605.545	31.82
605.737	31.89
605.93	31.9
606.123	32.09
606.316	32.27
606.508	32.37
606.701	32.5
606.894	32.65
607.086	32.88
607.279	33.03
607.471	33.15
607.664	32.98
607.857	33.28
608.049	33.61
608.242	33.82
608.434	34.27
608.627	34.76
608.819	35.26
609.012	35.87
609.204	36.6
609.397	37.49
609.589	38.41
609.782	39.58
609.974	40.58
610.166	41.57
610.359	42.45
610.551	43.31
610.743	44.15
610.936	44.92
611.128	45.51
611.32	45.84
611.513	45.9
611.705	46.05
611.897	45.88
612.09	45.56
612.282	45.11
612.474	44.68
612.666	44.35
612.858	43.84
613.051	43.18
613.243	42.59
613.435	42.21
613.627	41.69
613.819	41.13
614.011	40.81
614.203	40.41
614.395	40.09
614.588	39.84
614.78	39.38
614.972	39.02
615.164	38.82
615.356	38.58
615.548	38.29
615.74	38.05
615.932	37.85
616.124	37.65
616.315	37.5
616.507	37.32
616.699	37.12
616.891	36.87
617.083	36.69
617.275	36.46
617.467	36.28
617.659	36.06
617.85	35.93
618.042	35.55
618.234	35.22
618.426	35.02
618.618	34.96
618.809	35.03
619.001	34.92
619.193	34.96
619.384	34.94
619.576	34.99
619.768	35.14
619.959	35.09
620.151	35.32
620.343	35.24
620.534	35.12
620.726	35.05
620.917	34.94
621.109	35.05
621.301	34.96
621.492	34.94
621.684	34.89
621.875	34.63
622.067	34.93
622.258	35.01
622.45	35.3
622.641	35.33
622.832	35.42
623.024	35.37
623.215	35.35
623.407	35.31
623.598	35.3
623.789	35.36
623.981	35.49
624.172	35.34
624.363	35.28
624.555	35
624.746	34.97
624.937	34.93
625.129	34.92
625.32	34.63
625.511	34.6
625.702	34.47
625.893	34.46
626.085	34.4
626.276	34.34
626.467	34.31
626.658	34.51
626.849	34.54
627.04	34.46
627.231	34.42
627.422	34.76
627.614	34.79
627.805	34.93
627.996	34.85
628.187	34.84
628.378	34.78
628.569	35
628.76	35.03
628.951	35.17
629.142	35.35
629.332	35.48
629.523	35.54
629.714	35.8
629.905	35.88
630.096	36.04
630.287	36.36
630.478	36.52
630.669	36.46
630.859	36.49
631.05	36.45
631.241	36.29
631.432	36.06
631.623	35.72
631.813	35.32
632.004	35.02
632.195	34.86
632.385	34.56
632.576	34.49
632.767	34.29
632.957	34.03
633.148	33.8
633.339	33.74
633.529	33.78
633.72	33.9
633.91	33.84
634.101	33.9
634.292	33.88
634.482	33.83
634.673	33.74
634.863	33.75
635.054	33.75
635.244	33.78
635.435	33.73
635.625	33.68
635.815	33.52
636.006	33.74
636.196	33.61
636.387	33.39
636.577	33.24
636.767	33.26
636.958	33.29
637.148	33.38
637.338	33.5
637.529	33.68
637.719	33.84
637.909	33.91
638.099	33.69
638.29	33.82
638.48	34.27
638.67	34.39
638.86	34.36
639.05	34.49
639.241	34.52
639.431	34.52
639.621	34.43
639.811	34.25
640.001	34.39
640.191	34.46
640.381	34.55
640.571	34.54
640.761	34.66
640.951	34.65
641.141	34.5
641.331	34.5
641.521	34.4
641.711	34.43
641.901	34.66
642.091	34.71
642.281	34.6
642.471	34.55
642.661	34.51
642.851	34.53
643.041	34.81
643.231	34.85
643.42	34.85
643.61	34.86
643.8	34.76
643.99	34.43
644.18	34.35
644.369	34.6
644.559	34.79
644.749	34.69
644.939	34.66
645.128	34.4
645.318	34.32
645.508	34.32
645.697	34.29
645.887	34.38
646.076	34.57
646.266	34.58
646.456	34.78
646.645	34.59
646.835	34.54
647.024	34.51
647.214	34.63
647.403	34.66
647.593	34.53
647.782	34.67
647.972	34.79
648.161	35.02
648.351	35.11
648.54	34.95
648.73	34.83
648.919	34.8
649.108	34.86
649.298	34.95
649.487	35.09
649.677	35.35
649.866	35.45
650.055	35.37
650.244	35.32
650.434	35.23
650.623	35.15
650.812	35.34
651.002	35.42
651.191	35.43
651.38	35.44
651.569	35.4
651.758	35.19
651.947	35.18
652.137	35.18
652.326	35.23
652.515	35.07
652.704	34.98
652.893	34.98
653.082	34.95
653.271	34.85
653.46	34.61
653.649	34.85
653.838	34.92
654.027	34.78
654.216	34.86
654.405	34.56
654.594	34.68
654.783	34.83
654.972	34.69
655.161	34.67
655.35	34.81
655.539	34.96
655.728	34.77
655.916	34.85
656.105	34.73
656.294	34.79
656.483	34.94
656.672	35.03
656.86	34.9
657.049	34.96
657.238	35.05
657.427	35.04
657.615	35.16
657.804	35.11
657.993	34.94
658.181	34.88
658.37	34.61
658.559	34.66
658.747	34.63
658.936	34.77
659.125	34.85
659.313	34.81
659.502	34.73
659.69	34.49
659.879	34.44
660.067	34.55
660.256	34.73
660.444	34.94
660.633	34.97
660.821	34.92
661.01	34.95
661.198	34.89
661.387	34.88
661.575	34.9
661.763	35.07
661.952	35.13
662.14	35.17
662.328	35.24
662.517	35.14
662.705	35.14
662.893	35.32
663.082	35.32
663.27	35.17
663.458	35.26
663.646	35.35
663.834	35.31
664.023	35.22
664.211	35.36
664.399	35.58
664.587	35.64
664.775	35.65
664.963	35.61
665.152	35.59
665.34	35.64
665.528	35.88
665.716	35.98
665.904	36.03
666.092	36.2
666.28	36
666.468	35.62
666.656	35.73
666.844	35.77
667.032	35.83
667.22	35.91
667.408	36.1
667.596	35.96
667.784	35.84
667.971	35.96
668.159	35.87
668.347	35.73
668.535	35.91
668.723	35.95
668.911	35.88
669.098	35.92
669.286	36.05
669.474	35.8
669.662	35.84
669.849	36.01
670.037	35.89
670.225	36.1
670.413	36.33
670.6	36.35
670.788	36.18
670.976	36.17
671.163	35.89
671.351	35.65
671.538	35.87
671.726	35.63
671.913	35.44
672.101	35.36
672.289	35.21
672.476	35.09
672.664	35.12
672.851	35.15
673.039	35.06
673.226	35.23
673.413	35.2
673.601	35.14
673.788	35.21
673.976	35.45
674.163	35.68
674.35	35.58
674.538	35.6
674.725	35.72
674.912	36.01
675.1	36.27
675.287	36.07
675.474	36.36
675.662	36.5
675.849	36.56
676.036	36.39
676.223	36.37
676.411	36.46
676.598	36.56
676.785	36.2
676.972	36.05
677.159	35.9
677.346	35.99
677.533	35.73
677.721	35.51
677.908	35.45
678.095	35.39
678.282	35.21
678.469	35.15
678.656	34.89
678.843	34.94
679.03	34.89
679.217	34.9
679.404	34.84
679.591	34.83
679.778	34.93
679.964	35.06
680.151	35.08
680.338	35.27
680.525	35.34
680.712	35.57
680.899	35.76
681.086	35.84
681.272	35.95
681.459	36.11
681.646	36.37
681.833	36.51
682.02	36.53
682.206	36.46
682.393	35.97
682.58	35.88
682.766	35.76
682.953	35.58
683.14	35.26
683.326	35.49
683.513	35.78
683.7	35.51
683.886	35.37
684.073	35.31
684.259	35.37
684.446	35.69
684.632	35.79
684.819	35.78
685.005	36
685.192	36.28
685.378	36.12
685.565	35.8
685.751	35.86
685.938	35.85
686.124	35.98
686.31	36.14
686.497	36.07
686.683	36.06
686.87	35.99
687.056	35.9
687.242	35.86
687.429	35.67
687.615	35.79
687.801	35.86
687.987	36.06
688.174	35.86
688.36	36.01
688.546	36.34
688.732	36.34
688.918	36.56
689.105	36.64
689.291	36.79
689.477	36.94
689.663	36.99
689.849	36.91
690.035	37.15
690.221	37.38
690.407	37.01
690.593	36.92
690.779	36.94
690.965	36.88
691.151	36.86
691.337	36.53
691.523	36.66
691.709	36.72
691.895	36.79
692.081	36.57
692.267	36.57
692.453	36.99
692.639	36.84
692.825	36.93
693.011	36.91
693.196	36.85
693.382	37
693.568	36.75
693.754	36.91
693.94	36.89
694.125	36.8
694.311	36.54
694.497	36.3
694.682	36.33
694.868	36.16
695.054	36.36
695.239	36.54
695.425	36.8
695.611	37.01
695.796	36.67
695.982	36.63
696.168	36.48
696.353	36.58
696.539	36.42
696.724	36.28
696.91	36.17
697.095	35.9
697.281	35.73
697.466	35.45
697.652	35.14
697.837	34.8
698.023	34.71
698.208	34.71
698.393	34.66
698.579	34.75
698.764	34.71
698.949	34.64
699.135	34.64
699.32	34.46
699.505	34.34
699.691	34.52
699.876	34.67
700.061	34.88
700.246	35.01
700.432	35.12
700.617	35.08
700.802	35.34
700.987	35.62
701.172	35.32
701.358	35.71
701.543	36.12
701.728	36.11
701.913	36.48
702.098	36.47
702.283	36.31
702.468	36.38
702.653	36.83
702.838	36.97
703.023	36.99
703.208	37.74
703.393	37.88
703.578	37.89
703.763	38.46
703.948	38.6
704.133	38.8
704.318	38.91
704.503	39.02
704.688	39.06
704.873	39.24
705.057	39.69
705.242	39.65
705.427	39.85
705.612	40.12
705.797	39.97
705.981	40.11
706.166	40.26
706.351	40.6
706.536	40.71
706.72	40.71
706.905	40.88
707.09	40.73
707.274	41.23
707.459	41.33
707.644	41.46
707.828	41.51
708.013	41.47
708.197	41.34
708.382	41.37
708.567	41.65
708.751	41.48
708.936	41.16
709.12	41.1
709.305	40.6
709.489	40.03
709.673	39.75
709.858	39.61
710.042	39.7
710.227	40.03
710.411	39.83
710.596	39.51
710.78	39.72
710.964	39.69
711.149	39.64
711.333	39.66
711.517	40.1
711.702	40.04
711.886	39.92
712.07	39.62
712.254	39.36
712.438	39.66
712.623	39.71
712.807	39.22
712.991	39.33
713.175	38.93
713.359	38.88
713.544	38.62
713.728	38.68
713.912	38.35
714.096	38.29
714.28	37.76
714.464	37.41
714.648	37.02
714.832	36.87
715.016	36.57
715.2	36.7
715.384	36.64
715.568	36.58
715.752	36.54
715.936	36.84
716.12	36.94
716.304	37.14
716.488	37.18
716.671	37.31
716.855	37.61
717.039	37.56
717.223	37.64
717.407	37.73
717.59	37.53
717.774	37.24
717.958	37.08
718.142	37.02
718.325	36.71
718.509	36.68
718.693	36.32
718.877	36.05
719.06	36.23
719.244	36.42
719.428	36.56
719.611	36.47
719.795	36.8
719.978	36.93
720.162	36.97
720.345	37.27
720.529	37.7
720.713	38.26
720.896	38.1
721.08	38.44
721.263	38.66
721.446	38.51
721.63	39.05
721.813	38.73
721.997	38.83
722.18	38.93
722.364	39.18
722.547	38.5
722.73	38.19
722.914	38.72
723.097	38.49
723.28	38.15
723.464	38.18
723.647	37.9
723.83	37.85
724.013	37.59
724.197	37.33
724.38	36.91
724.563	36.77
724.746	36.93
724.929	36.64
725.112	36.44
725.296	36.32
725.479	36.63
725.662	36.97
725.845	37.23
726.028	37.54
726.211	37.5
726.394	37.64
726.577	38.24
726.76	38.47
726.943	38.03
727.126	37.64
727.309	37.33
727.492	36.77
727.675	36.72
727.858	36.54
728.041	36.17
728.224	36.26
728.407	36.56
728.589	36.39
728.772	35.93
728.955	36.56
729.138	36.69
729.321	36.67
729.503	36.95
729.686	36.28
729.869	36.24
730.052	36.16
730.234	36.14
730.417	36.25
730.6	35.77
730.782	36.1
730.965	35.88
731.148	36.05
731.33	36.52
731.513	36.69
731.695	36.91
731.878	37.09
732.061	37.52
732.243	37.49
732.426	37.28
732.608	37.57
732.791	37.31
732.973	37.19
733.156	37.05
733.338	36.68
733.52	36.71
733.703	36.62
733.885	36.5
734.068	36.17
734.25	36.48
734.432	36.72
734.615	37.29
734.797	37.39
734.979	37.43
735.162	38.02
735.344	37.69
735.526	37.83
735.708	38.36
735.891	38.62
736.073	38.89
736.255	38.84
736.437	38.37
736.619	37.79
736.802	38.1
736.984	38.13
737.166	38.32
737.348	39.34
737.53	38.89
737.712	38.87
737.894	38.82
738.076	38.77
738.258	38.65
738.44	38.99
738.622	39.46
738.804	39.42
738.986	39.76
739.168	39.84
739.35	39.86
739.532	40.39
739.714	40.42
739.896	40.24
740.078	40.44
740.259	40.01
740.441	40.25
740.623	40.12
740.805	40.06
740.987	39.95
741.168	39.77
741.35	39.4
741.532	39.17
741.714	39.24
741.895	39.65
742.077	39.63
742.259	40.74
742.44	40.45
742.622	40.06
742.804	40
742.985	40.37
743.167	39.78
743.348	39.9
743.53	40.04
743.711	39.9
743.893	40.29
744.075	40.28
744.256	39.73
744.438	39.86
744.619	40.25
744.8	40.51
744.982	40.28
745.163	41.18
745.345	41.28
745.526	41.02
745.707	40.93
745.889	40.98
746.07	40.68
746.252	40.73
746.433	40.63
746.614	40.29
746.795	39.94
746.977	40.22
747.158	39.73
747.339	40.11
747.52	40.48
747.702	40.76
747.883	39.85
748.064	40.15
748.245	40.19
748.426	40.25
748.607	40.76
748.788	40.89
748.97	40.58
749.151	40.75
749.332	40.57
749.513	40.48
749.694	40.83
749.875	40.93
750.056	41.09
750.237	40.8
750.418	41.08
750.599	40.77
750.78	40.98
750.96	41.31
751.141	41.65
751.322	41.7
751.503	40.98
751.684	40.74
751.865	41.21
752.046	41.12
752.226	41.31
752.407	40.89
752.588	41.22
752.769	41.22
752.949	40.55
753.13	40.28
753.311	40.57
753.492	41.35
753.672	41.24
753.853	41.01
754.034	41.49
754.214	41.38
754.395	41.56
754.575	41.5
754.756	41.45
754.937	41.74
755.117	41.74
755.298	41.14
755.478	41.36
755.659	41.4
755.839	41.9
756.02	41.6
756.2	41.92
756.381	41.57
756.561	41.22
756.741	41.06
756.922	41.14
757.102	41.05
757.283	41.18
757.463	40.54
757.643	40.62
757.823	39.89
758.004	39.63
758.184	39.52
758.364	39.72
758.545	39.68
758.725	39.61
758.905	39.05
759.085	38.83
759.265	38.43
759.446	38.43
759.626	38.32
759.806	38.61
759.986	38.29
760.166	38.05
760.346	37.77
760.526	37.31
760.706	37.46
760.886	37.48
761.066	37.39
761.246	37.3
761.426	36.89
761.606	36.81
761.786	36.6
761.966	36.04
762.146	35.43
762.326	35.51
762.506	35.34
762.686	34.96
762.866	35.13
763.046	34.81
763.225	34.84
763.405	34.95
763.585	34.77
763.765	35.05
763.945	35.3
764.124	35.26
764.304	35.06
764.484	35.21
764.664	35.68
764.843	35.84
765.023	36.04
765.203	36.14
765.382	36.41
765.562	36.53
765.741	36.26
765.921	36.69
766.101	37.63
766.28	38.21
766.46	38.45
766.639	38.32
766.819	38.39
766.998	38.77
767.178	39.04
767.357	39.34
767.537	39.39
767.716	39.57
767.896	39.56
768.075	39
768.254	38.25
768.434	38.08
768.613	38.21
768.792	38.61
768.972	39.21
769.151	39.45
769.33	38.66
769.51	38.56
769.689	38.51
769.868	39.17
770.047	39.68
770.226	39.95
770.406	40.02
770.585	40.24
770.764	39.93
770.943	38.8
771.122	38.54
771.301	39.28
771.48	39.62
771.66	39.58
771.839	39.1
772.018	39.44
772.197	39.97
772.376	40.7
772.555	41.15
772.734	41.14
772.913	41.85
773.092	41.49
773.271	41.25
773.449	41.43
773.628	42.41
773.807	42.71
773.986	41.92
774.165	42
774.344	41.72
774.523	41.31
774.701	41.17
774.88	41.33
775.059	42.39
775.238	42.04
775.417	41.92
775.595	41.74
775.774	41.56
775.953	41.74
776.131	41.96
776.31	42.83
776.489	43.33
776.667	44.27
776.846	44.03
777.025	43.47
777.203	44.17
777.382	44.17
777.56	43.39
777.739	42.73
777.917	42.74
778.096	42.93
778.274	42.51
778.453	41.77
778.631	41.26
778.81	41.13
778.988	40.67
779.166	40.44
779.345	40.64
779.523	40.98
779.702	41.81
779.88	42.17
780.058	41.95
780.237	41.78
780.415	41.86
780.593	41.63
780.771	42.55
780.95	43.04
781.128	43.22
781.306	43.03
781.484	43.04
781.662	42.72
781.841	43.33
782.019	43.66
782.197	43.96
782.375	44.27
782.553	44.33
782.731	44.37
782.909	45.13
783.087	45.14
783.265	44.87
783.443	44.27
783.621	44.58
783.799	43.79
783.977	43
784.155	42.67
784.333	42.29
784.511	42.32
784.689	41.74
784.867	41.23
785.045	41.25
785.223	40.69
785.4	41.46
785.578	41.5
785.756	42.02
785.934	41.97
786.112	42.03
786.289	41.93
786.467	41.59
786.645	41.04
786.823	40.54
787	40.42
787.178	41.11
787.356	41.08
787.533	40.89
787.711	40.64
787.889	41.15
788.066	40.33
788.244	39.55
788.421	39.85
788.599	39.98
788.776	40.56
788.954	40.52
789.131	39.98
789.309	39.74
789.486	39.26
789.664	39.74
789.841	38.91
790.019	40.11
790.196	40.86
790.373	40.21
790.551	41.25
790.728	40.37
790.906	39.94
791.083	40.74
791.26	41.03
791.437	41.77
791.615	41.67
791.792	41.95
791.969	41.91
792.146	42.22
792.324	42.78
792.501	42.6
792.678	43.05
792.855	43.54
793.032	43
793.209	43.59
793.387	43.46
793.564	43.27
793.741	43.82
793.918	42.76
794.095	42.5
794.272	42.87
794.449	41.82
794.626	42.29
794.803	42.19
794.98	43.01
795.157	42.05
795.334	42.34
795.511	42.11
795.688	41.97
795.864	42.08
796.041	42.93
796.218	42.8
796.395	43.43
796.572	43
796.749	42.94
796.925	42.37
797.102	42.69
797.279	42.14
797.456	42.07
797.632	41.61
797.809	42.92
797.986	41.93
798.162	42.38
798.339	41.37
798.516	41.29
798.692	41.77
798.869	41.67
799.046	41.25
799.222	41.49
799.399	41
799.575	41.83
799.752	40.96
799.928	41.24
800.105	40.97
800.281	42.05
800.458	41.92
800.634	41.98
800.811	42.21
800.987	43.29
801.163	42.59
801.34	43.81
801.516	42.75
801.692	43.2
801.869	43.92
802.045	44.36
802.221	44.3
802.398	45.06
802.574	44.75
802.75	45.35
802.926	45.32
803.103	46.31
803.279	45.23
803.455	45.82
803.631	45.52
803.807	45.3
803.983	45.17
804.16	45.59
804.336	44.89
804.512	45.18
804.688	44.35
804.864	43.42
805.04	42.82
805.216	42.5
805.392	42.57
805.568	43.5
805.744	43.32
805.92	43.41
806.096	43.16
806.272	44.05
806.448	43.81
806.623	44.57
806.799	44.77
806.975	44.89
807.151	45.8
807.327	46.52
807.503	45.89
807.678	46.32
807.854	46.63
808.03	46.67
808.206	46.73
808.381	46.6
808.557	46.34
808.733	45.95
808.908	45.84
809.084	45.18
809.26	44.37
809.435	44.8
809.611	45.12
809.787	44.23
809.962	45.1
810.138	44.81
810.313	45.09
810.489	44.61
810.664	44.99
810.84	44.69
811.015	45.48
811.191	46.04
811.366	45.96
811.542	45.8
811.717	45.41
811.892	44.43
812.068	43.92
812.243	43.27
812.419	44.07
812.594	43.98
812.769	44.85
812.944	44.58
813.12	43.81
813.295	43.1
813.47	42.2
813.645	41.4
813.821	41.11
813.996	40.41
814.171	41.4
814.346	41.8
814.521	41.81
814.697	42.55
814.872	43.04
815.047	43.55
815.222	42.91
815.397	42.9
815.572	44.56
815.747	44.48
815.922	45.63
816.097	46.61
816.272	45.16
816.447	45.96
816.622	44.24
816.797	43.5
816.972	43.84
817.147	44.59
817.322	44.64
817.496	44.34
817.671	45.36
817.846	45.36
818.021	43.55
818.196	43.07
818.371	42.57
818.545	43.28
818.72	42.97
818.895	43.42
819.069	42.77
819.244	42.2
819.419	41.16
819.594	38.95
819.768	37.89
819.943	37.96
820.117	38.03
820.292	36.87
820.467	35.32
820.641	35.29
820.816	34
820.99	33.28
821.165	32.57
821.339	32.12
821.514	32.13
821.688	31.95
821.863	31.24
822.037	30.97
822.212	30.66
822.386	30.72
822.56	30.37
822.735	30.28
822.909	30.2
823.084	30.13
823.258	30.19
823.432	29.88
823.606	29.81
823.781	29.98
823.955	29.87
824.129	30.12
824.303	30.07
824.478	29.88
824.652	29.88
824.826	30.18
825	30.83
825.174	31.11
825.348	31.88
825.523	32.29
825.697	32.61
825.871	33.09
826.045	33.16
826.219	33.77
826.393	34.36
826.567	34.6
826.741	34.72
826.915	34.53
827.089	34.43
827.263	34.11
827.437	33.99
827.611	34.12
827.784	33.9
827.958	33.93
828.132	33.66
828.306	33.38
828.48	33.29
828.654	33.26
828.827	33.74
829.001	33.68
829.175	34.31
829.349	35.36
829.522	35.71
829.696	36.33
829.87	37.38
830.044	38.84
830.217	39.67
830.391	40.75
830.565	40.23
830.738	39.95
830.912	40.31
831.085	41.04
831.259	39.87
831.432	39.81
831.606	39.83
831.779	39.41
831.953	38.52
832.126	37.8
832.3	36.74
832.473	37.4
832.647	36.75
832.82	37.82
832.994	37.11
833.167	37.03
833.34	36.43
833.514	36.04
833.687	35.6
833.86	35.04
834.034	35.32
834.207	35.46
834.38	35.71
834.553	36.13
834.727	35.58
834.9	35.52
835.073	35.43
835.246	35.87
835.419	36.67
835.593	37.25
835.766	37.88
835.939	38.14
836.112	39.05
836.285	39.65
836.458	40.18
836.631	40.96
836.804	42.28
836.977	43.35
837.15	44.33
837.323	44.81
837.496	45.71
837.669	47.26
837.842	48.43
838.015	49.07
838.188	49.37
838.361	49.25
838.533	48.28
838.706	47.78
838.879	47.65
839.052	47.6
839.225	46.46
839.398	46.29
839.57	44.84
839.743	44.76
839.916	44.37
840.088	45.03
840.261	45.68
840.434	46.57
840.607	46.15
840.779	45.85
840.952	46.01
841.124	47.87
841.297	47.47
841.47	47.43
841.642	46.96
841.815	47.24
841.987	46.48
842.16	45.62
842.332	45.42
842.505	46.91
842.677	47.24
842.85	47.93
843.022	45.75
843.194	46.32
843.367	47.94
843.539	48.42
843.712	47.54
843.884	47.64
844.056	48.83
844.229	51.49
844.401	51.31
844.573	52.7
844.745	53.17
844.918	55.92
845.09	56.08
845.262	55.06
845.434	57.15
845.606	60.1
845.779	61.15
845.951	61.11
846.123	57.64
846.295	57.09
846.467	56.07
846.639	54.31
846.811	52.45
846.983	52.6
847.155	53.49
847.327	52.31
847.499	50.72
847.671	50.68
847.843	50.73
848.015	54.05
848.187	53.61
848.359	54.55
848.531	55.47
848.703	54.58
848.875	55.5
849.047	54.57
849.218	57.2
849.39	56.87
849.562	53.88
849.734	53.13
849.905	52.02
850.077	52.27
850.249	54.18
850.421	53.81
850.592	56.97
850.764	56.75
850.936	56.52
851.107	54.48
851.279	55.96
851.451	58.81
851.622	59.16
851.794	58.51
851.965	60.78
852.137	58.82
852.308	61.7
852.48	59.25
852.651	59.07
852.823	59.9
852.994	60.19
853.166	59.98
853.337	59.23
853.509	59.13
853.68	60.02
853.851	57.34
854.023	56.06
854.194	52.47
854.365	52.06
854.537	52.17
854.708	50.9
854.879	50.58
855.05	51.39
855.222	51.34
855.393	52.35
855.564	53.73
855.735	55.73
855.906	57.2
856.078	57.29
856.249	59.23
856.42	58.19
856.591	60.29
856.762	60.16
856.933	57.73
857.104	58.4
857.275	57.66
857.446	55.09
857.617	53.64
857.788	53.73
857.959	54.9
858.13	51.83
858.301	53.13
858.472	51.64
858.643	49.39
858.814	50.36
858.985	49.18
859.155	50.97
859.326	51.36
859.497	51.98
859.668	52.35
859.839	51.09
860.009	53.23
860.18	53.06
860.351	54.57
860.522	57.61
860.692	56.78
860.863	55.61
861.034	54.21
861.204	55.02
861.375	56.19
861.546	56.3
861.716	59.15
861.887	58.37
862.057	57.52
862.228	57.16
862.398	56.4
862.569	56.2
862.739	57.99
862.91	59.89
863.08	60.48
863.251	58.96
863.421	57.77
863.592	56.46
863.762	55.95
863.932	55.49
864.103	55.66
864.273	55.24
864.443	55.28
864.614	54.95
864.784	53.3
864.954	53.41
865.125	54.61
865.295	56.82
865.465	57.44
865.635	56.78
865.805	60.74
865.976	61.44
866.146	61.24
866.316	61.19
866.486	62.82
866.656	63.32
866.826	62.8
866.996	61.76
867.166	58.67
867.336	60.07
867.506	62.84
867.676	60.77
867.846	59
868.016	59.91
868.186	60.38
868.356	59.84
868.526	58.35
868.696	56.84
868.866	57.51
869.036	58.69
869.206	55.43
869.376	54.84
869.545	53.23
869.715	54.3
869.885	53.28
870.055	52.06
870.224	49.67
870.394	51.98
870.564	53.66
870.734	54.14
870.903	53.24
871.073	53.74
871.243	53.29
871.412	54.33
871.582	54.74
871.751	56.04
871.921	57.49
872.091	59.99
872.26	59.56
872.43	58.39
872.599	56.6
872.769	59.84
872.938	59.26
873.108	59.92
873.277	61.17
873.446	59.27
873.616	60.04
873.785	62.16
873.955	61.88
874.124	62.17
874.293	62.66
874.463	63.03
874.632	62.46
874.801	63.14
874.971	61.46
875.14	60.4
875.309	62.3
875.478	60.2
875.647	59.68
875.817	60.47
875.986	62.24
876.155	64.13
876.324	64.91
876.493	64.1
876.662	65.18
876.831	66.24
877	66.87
877.17	64.89
877.339	66.66
877.508	65.75
877.677	63.81
877.846	61.95
878.015	59.17
878.184	57.22
878.352	56.48
878.521	56.34
878.69	56.03
878.859	53.65
879.028	51.83
879.197	49.51
879.366	47.89
879.534	45.62
879.703	43.5
879.872	44.03
880.041	44.11
880.21	42.29
880.378	41.71
880.547	39.94
880.716	39.23
880.884	38.92
881.053	38.24
881.222	37.54
881.39	37.24
881.559	36.68
881.727	35.5
881.896	35.01
882.065	35.16
882.233	34.37
882.402	34.25
882.57	34.33
882.739	34.43
882.907	34.36
883.076	34.06
883.244	34.42
883.412	33.73
883.581	34.6
883.749	35.2
883.918	34.51
884.086	35.13
884.254	36.19
884.423	35.72
884.591	35.65
884.759	36.03
884.927	36.91
885.096	36.74
885.264	38.82
885.432	39.23
885.6	38.45
885.769	40.71
885.937	40.83
886.105	40.23
886.273	42.47
886.441	45.28
886.609	45.38
886.777	46.72
886.945	48.34
887.113	49.21
887.281	48.53
887.449	51.43
887.617	50.15
887.785	52.48
887.953	54.93
888.121	55.74
888.289	52.85
888.457	53.44
888.625	52.81
888.793	53.29
888.961	55.24
889.129	58.78
889.296	56.79
889.464	58.73
889.632	56.86
889.8	55.46
889.967	55.56
890.135	59.62
