Data from 2938817__Reflection_01.txt Node
Date: Thu Mar 12 15:08:11 EDT 2015
User: robert
Spectrometer: USB4E03002
Autoset integration time: false
Trigger mode: 4
Integration Time (sec): 1.000000E-1
Scans to average: 10
Electric dark correction enabled: false
Nonlinearity correction enabled: false
Boxcar width: 5
Stray light correction enabled: false
XAxis mode: Wavelengths
Stop averaging: false
Number of Pixels in Spectrum: 3648
>>>>>Begin Spectral Data<<<<<
177.575	-430.95
177.794	-544.62
178.014	-300.81
178.233	-1754.84
178.452	1007.69
178.672	-2612.9
178.891	-437.7
179.11	-432.64
179.33	-508.43
179.549	-547.97
179.768	-3718.18
179.987	-2692.86
180.207	-364.24
180.426	1243.75
180.645	-651.55
180.864	-373.73
181.084	982.81
181.303	373.71
181.522	1968.75
181.741	0
181.96	18475
182.179	-3151.85
182.398	-1936
182.618	1033.68
182.837	-1163.51
183.056	-1442.37
183.275	-1511.48
183.494	-3096.97
183.713	1754.1
183.932	735.86
184.151	681.88
184.37	301.31
184.589	261.11
184.808	200.21
185.027	163.37
185.246	183.36
185.465	170.7
185.684	175.35
185.903	176.39
186.122	231.18
186.341	273.9
186.56	289.52
186.779	294.27
186.998	388.73
187.216	386.54
187.435	627.75
187.654	492.49
187.873	720.71
188.092	640.93
188.311	429.04
188.53	342.59
188.748	278.28
188.967	279.04
189.186	581.33
189.405	331.95
189.623	353.94
189.842	364.13
190.061	324.4
190.28	332.11
190.498	343.52
190.717	669.88
190.936	895.83
191.154	592.74
191.373	513.5
191.592	794.02
191.81	-28900
192.029	-452.21
192.248	-282.16
192.466	-213.04
192.685	-269.96
192.904	-199.26
193.122	-182.08
193.341	-170.49
193.559	-158.1
193.778	-138.12
193.996	-1136.92
194.215	1963.16
194.433	316.67
194.652	190.86
194.87	175.56
195.089	200.21
195.307	237.82
195.526	194.93
195.744	182.82
195.963	176.04
196.181	159.93
196.399	154.01
196.618	160
196.836	232.71
197.055	434.05
197.273	366.98
197.491	300.69
197.71	203.66
197.928	182.9
198.146	190.02
198.365	305.34
198.583	367.98
198.801	376.04
199.019	475.89
199.238	301.8
199.456	198.69
199.674	220.53
199.892	214.74
200.111	264.41
200.329	228.53
200.547	161.09
200.765	128.3
200.983	107.44
201.202	112.56
201.42	90.3
201.638	114.2
201.856	143.76
202.074	117.51
202.292	128.03
202.51	206.59
202.728	226.98
202.946	417.7
203.165	273.41
203.383	256.8
203.601	261.09
203.819	378.14
204.037	307.25
204.255	192.66
204.473	237.22
204.691	878.79
204.909	213.11
205.127	219.79
205.345	130.68
205.562	102.95
205.78	117.83
205.998	109.83
206.216	80.22
206.434	76.07
206.652	76.93
206.87	74.97
207.088	78.81
207.306	70.21
207.523	72.54
207.741	80.69
207.959	123.95
208.177	136.27
208.395	143.4
208.612	160.87
208.83	195.93
209.048	256.68
209.266	263.97
209.483	182.41
209.701	199.65
209.919	222.28
210.136	271.12
210.354	220.16
210.572	199.41
210.79	181.57
211.007	185.24
211.225	165.78
211.442	131.76
211.66	111.64
211.878	102.14
212.095	20.15
212.313	15.84
212.53	14.67
212.748	5.81
212.966	-2.44
213.183	5.48
213.401	-0.52
213.618	4.91
213.836	-3.44
214.053	10.03
214.271	13.82
214.488	119.87
214.705	120.19
214.923	110.5
215.14	117.86
215.358	115.52
215.575	141.98
215.793	129.91
216.01	103.42
216.227	98.59
216.445	95.89
216.662	88.49
216.879	78.09
217.097	85.7
217.314	79.5
217.531	71.93
217.749	72.12
217.966	53.04
218.183	71.78
218.4	80.94
218.618	89.21
218.835	86.1
219.052	74.54
219.269	75.5
219.487	63.74
219.704	68.96
219.921	71.1
220.138	66.36
220.355	70.86
220.572	58.06
220.79	60.68
221.007	47.92
221.224	53.42
221.441	62.98
221.658	58.97
221.875	55.11
222.092	52.07
222.309	48.2
222.526	52.28
222.743	43.03
222.96	45.07
223.177	40.51
223.394	42.34
223.611	38.65
223.828	34.65
224.045	31.95
224.262	36.76
224.479	30.89
224.696	31.43
224.913	33.97
225.13	30.3
225.347	24.68
225.564	24.42
225.781	24.96
225.997	22.45
226.214	18.37
226.431	19.82
226.648	17.84
226.865	19.06
227.082	16.64
227.298	12.04
227.515	11.78
227.732	11.07
227.949	10.2
228.165	9.08
228.382	8.9
228.599	9.59
228.816	8.21
229.032	6.84
229.249	6.03
229.466	6.2
229.682	7.1
229.899	8.41
230.116	8.55
230.332	8.31
230.549	9.67
230.765	9.88
230.982	9.53
231.199	10.31
231.415	11.59
231.632	12.69
231.848	13.66
232.065	13.1
232.281	12.72
232.498	12.27
232.714	13.72
232.931	12.85
233.147	13.12
233.364	12.38
233.58	12.39
233.797	12.87
234.013	11.43
234.23	10.08
234.446	9.78
234.662	7.93
234.879	8.27
235.095	5.2
235.312	4.15
235.528	4.42
235.744	4.4
235.961	4.66
236.177	5.22
236.393	5.96
236.61	5.63
236.826	5.34
237.042	6.31
237.258	7.04
237.475	9.61
237.691	9.78
237.907	8.99
238.123	10.59
238.339	11.89
238.556	10.84
238.772	10.31
238.988	11.43
239.204	11.68
239.42	12.73
239.636	13
239.853	12.37
240.069	11.99
240.285	11.93
240.501	10.43
240.717	9.46
240.933	9.23
241.149	8.93
241.365	8.52
241.581	8.95
241.797	8.79
242.013	7.73
242.229	7.58
242.445	7.08
242.661	6.83
242.877	6.59
243.093	6
243.309	6.25
243.525	6.67
243.741	7.01
243.957	6.01
244.173	5.34
244.388	5.84
244.604	6.23
244.82	6.78
245.036	6.74
245.252	6.83
245.468	6.97
245.683	6.31
245.899	6.01
246.115	5.72
246.331	5.71
246.547	5.61
246.762	6
246.978	5.77
247.194	5.63
247.409	5.33
247.625	5.21
247.841	4.95
248.057	5.06
248.272	4.8
248.488	4.51
248.703	4.56
248.919	4.98
249.135	4.51
249.35	4.19
249.566	4.18
249.782	4.92
249.997	5.26
250.213	6.08
250.428	5.99
250.644	5.69
250.859	5.95
251.075	6.66
251.29	5.51
251.506	5.62
251.721	5.88
251.937	6.73
252.152	6.32
252.368	6.15
252.583	6.37
252.798	6.67
253.014	7.6
253.229	7.63
253.445	7.62
253.66	8.64
253.875	8.5
254.091	8.4
254.306	8.61
254.521	8.84
254.737	10.17
254.952	9.13
255.167	8.88
255.383	7.69
255.598	6.94
255.813	6.45
256.028	6.07
256.244	7.27
256.459	7.46
256.674	6.25
256.889	6.13
257.104	5.37
257.32	5.73
257.535	5.49
257.75	5.83
257.965	6.22
258.18	6.39
258.395	5.8
258.61	5.03
258.826	5.07
259.041	4.73
259.256	4.61
259.471	4.51
259.686	4.69
259.901	4.43
260.116	4.28
260.331	3.98
260.546	3.65
260.761	3.86
260.976	3.98
261.191	3.92
261.406	4.08
261.621	3.77
261.836	3.65
262.05	3.25
262.265	3.59
262.48	3.73
262.695	3.96
262.91	4.04
263.125	3.85
263.34	3.45
263.555	3.28
263.769	3.32
263.984	3.7
264.199	4.09
264.414	4.25
264.629	4.38
264.843	3.77
265.058	4.37
265.273	4.68
265.488	5.4
265.702	5.52
265.917	5.34
266.132	5.4
266.346	5.6
266.561	5.38
266.776	5.25
266.99	5.16
267.205	5.85
267.42	5.84
267.634	6.03
267.849	5.41
268.063	5.34
268.278	5.02
268.492	5.03
268.707	5.13
268.922	4.8
269.136	4.44
269.351	4.71
269.565	3.94
269.78	3.37
269.994	2.49
270.209	2.65
270.423	2.64
270.637	3.09
270.852	3.11
271.066	2.83
271.281	2.9
271.495	3.01
271.709	2.58
271.924	2.9
272.138	3.17
272.353	3.49
272.567	3.54
272.781	3.96
272.996	4.28
273.21	3.98
273.424	4.04
273.638	4.21
273.853	4.61
274.067	4.99
274.281	5.28
274.495	5.43
274.71	4.95
274.924	4.69
275.138	4.41
275.352	4.28
275.566	4.51
275.781	4.93
275.995	4.78
276.209	4.75
276.423	4.56
276.637	4.34
276.851	3.96
277.065	4.41
277.279	4.96
277.493	5.05
277.707	5
277.921	4.84
278.135	4.39
278.349	4.49
278.563	4.78
278.777	5.02
278.991	5.1
279.205	5.39
279.419	5.43
279.633	5.03
279.847	4.8
280.061	4.54
280.275	4.71
280.489	4.27
280.703	4.6
280.917	4.19
281.131	3.86
281.344	4.03
281.558	3.87
281.772	3.86
281.986	4.01
282.2	4.09
282.414	3.96
282.627	3.99
282.841	4.25
283.055	4.07
283.269	4.36
283.482	4.4
283.696	3.79
283.91	3.57
284.123	3.67
284.337	3.8
284.551	3.68
284.764	3.5
284.978	3.52
285.192	3.69
285.405	3.33
285.619	3.22
285.833	3.36
286.046	3.57
286.26	3.78
286.473	3.71
286.687	3.54
286.9	3.78
287.114	4.18
287.327	4.2
287.541	4.11
287.754	4.58
287.968	4.74
288.181	4.39
288.395	4.2
288.608	4.18
288.822	4.28
289.035	4.1
289.248	3.84
289.462	3.51
289.675	3.47
289.889	3.79
290.102	3.72
290.315	3.61
290.529	3.72
290.742	3.68
290.955	3.51
291.169	3.46
291.382	3.74
291.595	3.75
291.808	4
292.022	4.05
292.235	3.5
292.448	3.75
292.661	3.66
292.875	4.28
293.088	4.41
293.301	4.75
293.514	4.7
293.727	4.3
293.94	4.42
294.153	4.73
294.367	4.86
294.58	5.14
294.793	4.78
295.006	4.91
295.219	4.64
295.432	4.96
295.645	4.85
295.858	4.67
296.071	4.83
296.284	4.99
296.497	4.83
296.71	4.82
296.923	4.6
297.136	4.74
297.349	4.79
297.562	4.89
297.775	4.96
297.988	5.12
298.201	5.55
298.414	5.66
298.626	5.77
298.839	5.77
299.052	5.82
299.265	6.39
299.478	6.62
299.691	6.46
299.903	6.22
300.116	6.18
300.329	6.43
300.542	6.68
300.755	6.81
300.967	6.73
301.18	6.58
301.393	6.61
301.605	6.28
301.818	6.39
302.031	6.74
302.243	7.05
302.456	7.64
302.669	7.51
302.881	7.51
303.094	7.87
303.307	7.98
303.519	8.38
303.732	8.54
303.944	8.86
304.157	8.57
304.37	8.25
304.582	8.43
304.795	8.1
305.007	8.24
305.22	8.17
305.432	7.66
305.645	7.64
305.857	7.81
306.069	7.9
306.282	7.96
306.494	8.01
306.707	8.54
306.919	8.72
307.132	8.74
307.344	8.69
307.556	8.75
307.769	9.18
307.981	9.11
308.193	8.88
308.406	9.01
308.618	8.88
308.83	9.28
309.043	9.32
309.255	9.07
309.467	9.1
309.679	9.07
309.892	9.07
310.104	8.65
310.316	8.81
310.528	8.65
310.74	8.54
310.953	8.62
311.165	8.45
311.377	8.37
311.589	8.25
311.801	8.19
312.013	8.2
312.225	8.01
312.437	8.3
312.649	8.27
312.862	8.69
313.074	8.78
313.286	8.86
313.498	9.04
313.71	8.96
313.922	9.3
314.134	9.66
314.346	9.83
314.558	10.07
314.77	10.48
314.982	10.64
315.193	10.43
315.405	10.24
315.617	9.95
315.829	9.81
316.041	9.64
316.253	9.41
316.465	9.13
316.677	9.15
316.888	8.9
317.1	8.79
317.312	8.73
317.524	9.09
317.736	9.3
317.947	9.77
318.159	9.51
318.371	10.2
318.583	10.41
318.794	10.74
319.006	11.24
319.218	11.49
319.43	11.58
319.641	11.75
319.853	11.53
320.064	11.65
320.276	12.03
320.488	12.75
320.699	12.47
320.911	12.77
321.123	12.74
321.334	12.62
321.546	13.13
321.757	13.11
321.969	12.84
322.18	13.31
322.392	13.5
322.603	13.19
322.815	13.29
323.026	13.5
323.238	13.25
323.449	13.54
323.661	13.05
323.872	12.78
324.083	12.85
324.295	13.23
324.506	13.06
324.718	13.23
324.929	13.27
325.14	13.46
325.352	13.45
325.563	13.67
325.774	13.74
325.986	14.15
326.197	14.73
326.408	15.15
326.62	15.12
326.831	15.73
327.042	15.79
327.253	16.14
327.464	16.2
327.676	16.47
327.887	17.07
328.098	17.36
328.309	17.74
328.52	17.92
328.732	17.94
328.943	18.76
329.154	18.86
329.365	19.46
329.576	19.83
329.787	20.19
329.998	20.58
330.209	20.66
330.42	20.73
330.631	20.87
330.842	21.27
331.053	21.6
331.264	21.73
331.475	22.18
331.686	22.36
331.897	22.56
332.108	22.87
332.319	23.13
332.53	23.12
332.741	23.37
332.952	23.99
333.163	23.66
333.374	23.95
333.585	23.99
333.795	23.91
334.006	23.88
334.217	24.25
334.428	24.42
334.639	24.75
334.849	25.17
335.06	25.45
335.271	25.88
335.482	26.38
335.692	26.8
335.903	27.04
336.114	26.99
336.325	27.18
336.535	27.35
336.746	27.39
336.957	27.41
337.167	27.63
337.378	27.73
337.589	27.05
337.799	27.12
338.01	27
338.22	27.02
338.431	27.34
338.642	27.89
338.852	27.73
339.063	27.52
339.273	27.35
339.484	27.16
339.694	27.28
339.905	27.52
340.115	27.29
340.326	27.06
340.536	27.05
340.746	26.87
340.957	26.43
341.167	26.62
341.378	26.87
341.588	27.2
341.799	27.14
342.009	27.15
342.219	27.29
342.43	27.72
342.64	27.76
342.85	27.51
343.061	27.33
343.271	27.31
343.481	26.91
343.691	26.78
343.902	26.6
344.112	27.02
344.322	26.78
344.532	26.66
344.743	26.14
344.953	26.27
345.163	26.51
345.373	26.77
345.583	26.69
345.793	26.82
346.004	26.86
346.214	27.03
346.424	26.7
346.634	26.69
346.844	26.63
347.054	26.73
347.264	26.56
347.474	26.44
347.684	26.39
347.894	26.39
348.104	26.33
348.314	26.14
348.524	25.83
348.734	26.02
348.944	26.05
349.154	25.82
349.364	26.06
349.574	26.13
349.784	26.39
349.994	26.41
350.204	26.4
350.413	26.48
350.623	26.54
350.833	26.53
351.043	26.14
351.253	26.11
351.463	26.38
351.672	26.2
351.882	26
352.092	25.56
352.302	25.38
352.511	25.43
352.721	25.52
352.931	25.54
353.141	25.61
353.35	25.61
353.56	25.65
353.77	25.2
353.979	24.99
354.189	25.13
354.399	25.15
354.608	25.2
354.818	24.92
355.027	24.71
355.237	24.79
355.447	24.6
355.656	24.65
355.866	24.44
356.075	24.59
356.285	24.79
356.494	24.67
356.704	24.46
356.913	24.44
357.123	24.4
357.332	24.22
357.542	24.01
357.751	24.21
357.96	24.3
358.17	24.29
358.379	24.43
358.589	24.6
358.798	24.77
359.007	24.88
359.217	24.73
359.426	24.82
359.635	25.09
359.845	25.09
360.054	25.06
360.263	25.11
360.472	25.29
360.682	25.1
360.891	24.68
361.1	24.49
361.309	24.29
361.519	24.22
361.728	24.12
361.937	23.99
362.146	23.91
362.355	23.86
362.564	23.79
362.774	23.6
362.983	23.47
363.192	23.47
363.401	23.42
363.61	23.67
363.819	23.86
364.028	24.1
364.237	24.15
364.446	24.25
364.655	23.99
364.864	23.57
365.073	23.76
365.282	24.13
365.491	24.17
365.7	24.32
365.909	24.4
366.118	24.52
366.327	24.39
366.536	24.1
366.745	24.18
366.954	24.38
367.162	24.53
367.371	24.44
367.58	24.33
367.789	24.39
367.998	24.05
368.207	24.07
368.415	23.62
368.624	23.49
368.833	23.77
369.042	23.53
369.25	23.46
369.459	23.63
369.668	23.61
369.877	23.62
370.085	23.69
370.294	23.86
370.503	23.59
370.711	23.62
370.92	23.65
371.129	23.57
371.337	23.37
371.546	23.26
371.754	23.42
371.963	23.3
372.171	22.98
372.38	22.66
372.589	22.37
372.797	22.5
373.006	22.62
373.214	22.42
373.423	22.5
373.631	22.92
373.84	23.16
374.048	22.96
374.256	22.9
374.465	22.94
374.673	23.17
374.882	23.48
375.09	23.59
375.298	23.53
375.507	23.76
375.715	23.53
375.923	23.21
376.132	22.97
376.34	22.83
376.548	22.96
376.757	23.22
376.965	23.29
377.173	23.29
377.381	23.34
377.59	23.33
377.798	23.17
378.006	23.14
378.214	23.29
378.423	23.36
378.631	23.43
378.839	23.31
379.047	22.97
379.255	22.76
379.463	22.78
379.671	22.6
379.879	22.54
380.088	22.62
380.296	22.56
380.504	22.46
380.712	22.45
380.92	22.5
381.128	22.44
381.336	22.6
381.544	22.83
381.752	22.79
381.96	22.64
382.168	22.63
382.376	22.41
382.584	22.56
382.791	22.49
382.999	22.28
383.207	22.21
383.415	22.47
383.623	22.41
383.831	22.26
384.039	22.28
384.247	22.4
384.454	22.38
384.662	22.64
384.87	22.71
385.078	22.63
385.285	22.85
385.493	22.56
385.701	22.45
385.909	22.66
386.116	22.78
386.324	22.44
386.532	22.34
386.739	22.62
386.947	22.56
387.155	22.47
387.362	22.75
387.57	22.56
387.778	22.77
387.985	22.62
388.193	22.54
388.4	22.42
388.608	22.7
388.816	22.92
389.023	22.86
389.231	22.77
389.438	22.9
389.646	22.84
389.853	22.93
390.061	22.9
390.268	22.96
390.475	22.81
390.683	22.74
390.89	22.59
391.098	22.51
391.305	22.52
391.512	22.66
391.72	22.53
391.927	22.32
392.135	22.16
392.342	22.23
392.549	22.27
392.756	22.26
392.964	22.16
393.171	22.29
393.378	22.11
393.586	21.94
393.793	21.83
394	21.68
394.207	21.91
394.414	21.93
394.622	21.9
394.829	21.8
395.036	21.88
395.243	22.11
395.45	22.11
395.657	22.13
395.864	22.25
396.072	22.16
396.279	22.22
396.486	22.11
396.693	22.27
396.9	22.23
397.107	22.14
397.314	22.17
397.521	22.13
397.728	21.96
397.935	22.2
398.142	22.23
398.349	22.39
398.556	22.37
398.763	22.41
398.97	22.38
399.177	22.24
399.383	22.23
399.59	22.16
399.797	22.08
400.004	22.01
400.211	21.89
400.418	21.82
400.625	21.81
400.831	21.83
401.038	21.81
401.245	21.75
401.452	21.93
401.658	22
401.865	21.88
402.072	21.99
402.279	22.18
402.485	22.26
402.692	22.27
402.899	22.31
403.105	22.46
403.312	22.46
403.519	22.51
403.725	22.57
403.932	22.66
404.138	22.71
404.345	22.54
404.552	22.4
404.758	22.37
404.965	22.29
405.171	22.22
405.378	22.15
405.584	22.16
405.791	22.07
405.997	21.98
406.204	21.86
406.41	21.83
406.617	21.88
406.823	21.97
407.029	21.72
407.236	21.67
407.442	21.56
407.649	21.5
407.855	21.43
408.061	21.52
408.268	21.49
408.474	21.55
408.68	21.71
408.887	21.72
409.093	21.73
409.299	21.79
409.505	21.87
409.712	21.85
409.918	21.94
410.124	21.95
410.33	21.78
410.537	21.83
410.743	21.79
410.949	21.8
411.155	21.77
411.361	21.82
411.567	21.87
411.773	21.84
411.98	22.04
412.186	22.08
412.392	22.1
412.598	22.26
412.804	22.21
413.01	22.22
413.216	22.16
413.422	22.2
413.628	22.04
413.834	22.11
414.04	22.13
414.246	21.96
414.452	21.78
414.658	21.68
414.864	21.77
415.07	21.61
415.275	21.64
415.481	21.65
415.687	21.61
415.893	21.75
416.099	21.74
416.305	21.73
416.511	21.83
416.716	21.92
416.922	21.98
417.128	21.84
417.334	21.89
417.539	21.85
417.745	21.84
417.951	21.87
418.157	21.74
418.362	21.66
418.568	21.6
418.774	21.51
418.979	21.58
419.185	21.62
419.391	21.69
419.596	21.71
419.802	21.64
420.008	21.6
420.213	21.31
420.419	21.34
420.624	21.38
420.83	21.42
421.035	21.38
421.241	21.18
421.446	21.14
421.652	21.06
421.857	21
422.063	21.12
422.268	21.15
422.474	21.35
422.679	21.3
422.885	21.33
423.09	21.35
423.295	21.46
423.501	21.58
423.706	21.56
423.911	21.63
424.117	21.72
424.322	21.67
424.527	21.63
424.733	21.66
424.938	21.7
425.143	21.65
425.349	21.67
425.554	21.55
425.759	21.56
425.964	21.57
426.169	21.45
426.375	21.43
426.58	21.31
426.785	21.34
426.99	21.32
427.195	21.39
427.4	21.44
427.605	21.42
427.811	21.52
428.016	21.45
428.221	21.51
428.426	21.53
428.631	21.58
428.836	21.61
429.041	21.58
429.246	21.58
429.451	21.64
429.656	21.52
429.861	21.43
430.066	21.54
430.271	21.56
430.476	21.4
430.681	21.46
430.886	21.44
431.09	21.59
431.295	21.6
431.5	21.66
431.705	21.65
431.91	21.66
432.115	21.72
432.32	21.62
432.524	21.74
432.729	21.86
432.934	21.96
433.139	21.93
433.343	21.87
433.548	21.94
433.753	21.98
433.958	21.97
434.162	21.92
434.367	21.85
434.572	21.95
434.776	21.78
434.981	21.73
435.186	21.68
435.39	21.73
435.595	21.92
435.799	21.92
436.004	21.93
436.209	21.92
436.413	22.16
436.618	22.27
436.822	22.3
437.027	22.33
437.231	22.37
437.436	22.4
437.64	22.43
437.845	22.34
438.049	22.46
438.253	22.39
438.458	22.34
438.662	22.3
438.867	22.28
439.071	22.16
439.275	22.18
439.48	22.15
439.684	22.19
439.888	22.26
440.093	22.28
440.297	22.19
440.501	22.27
440.706	22.21
440.91	22.19
441.114	22.14
441.318	22.21
441.523	22.24
441.727	22.34
441.931	22.26
442.135	22.15
442.339	22.04
442.543	22.05
442.748	21.96
442.952	22.09
443.156	22.09
443.36	22.16
443.564	22.14
443.768	22.14
443.972	22.16
444.176	22.18
444.38	22.14
444.584	22.3
444.788	22.32
444.992	22.52
445.196	22.48
445.4	22.5
445.604	22.46
445.808	22.4
446.012	22.37
446.216	22.33
446.42	22.37
446.624	22.39
446.828	22.3
447.032	22.19
447.235	22
447.439	21.91
447.643	21.85
447.847	21.92
448.051	22.02
448.254	22.04
448.458	21.97
448.662	21.93
448.866	21.95
449.069	21.95
449.273	22.04
449.477	22.17
449.681	22.17
449.884	22.23
450.088	22.17
450.292	22.07
450.495	22.19
450.699	22.23
450.902	22.21
451.106	22.24
451.31	22.29
451.513	22.34
451.717	22.22
451.92	22.19
452.124	22.35
452.327	22.33
452.531	22.35
452.734	22.27
452.938	22.16
453.141	22.21
453.345	22.26
453.548	22.27
453.752	22.16
453.955	22.29
454.158	22.37
454.362	22.26
454.565	22.26
454.769	22.35
454.972	22.3
455.175	22.54
455.379	22.52
455.582	22.49
455.785	22.35
455.988	22.39
456.192	22.29
456.395	22.27
456.598	22.27
456.801	22.33
457.005	22.35
457.208	22.4
457.411	22.33
457.614	22.45
457.817	22.53
458.021	22.61
458.224	22.69
458.427	22.71
458.63	22.84
458.833	22.81
459.036	22.82
459.239	22.71
459.442	22.69
459.645	22.61
459.848	22.55
460.051	22.49
460.254	22.47
460.457	22.38
460.66	22.36
460.863	22.34
461.066	22.35
461.269	22.29
461.472	22.31
461.675	22.26
461.878	22.26
462.081	22.21
462.284	22.17
462.486	22.21
462.689	22.19
462.892	22.24
463.095	22.16
463.298	22.2
463.5	22.11
463.703	22.19
463.906	22.28
464.109	22.29
464.311	22.4
464.514	22.31
464.717	22.38
464.92	22.39
465.122	22.41
465.325	22.46
465.528	22.34
465.73	22.5
465.933	22.44
466.135	22.49
466.338	22.67
466.541	22.54
466.743	22.63
466.946	22.57
467.148	22.5
467.351	22.47
467.553	22.4
467.756	22.46
467.958	22.36
468.161	22.33
468.363	22.29
468.566	22.12
468.768	22.34
468.971	22.28
469.173	22.33
469.375	22.35
469.578	22.29
469.78	22.29
469.983	22.27
470.185	22.35
470.387	22.4
470.59	22.31
470.792	22.48
470.994	22.33
471.196	22.31
471.399	22.31
471.601	22.42
471.803	22.56
472.005	22.66
472.208	22.65
472.41	22.71
472.612	22.81
472.814	22.86
473.016	22.83
473.218	22.84
473.421	22.91
473.623	22.85
473.825	22.73
474.027	22.54
474.229	22.57
474.431	22.73
474.633	22.7
474.835	22.6
475.037	22.69
475.239	22.64
475.441	22.68
475.643	22.62
475.845	22.67
476.047	22.74
476.249	22.8
476.451	22.7
476.653	22.59
476.855	22.49
477.057	22.46
477.258	22.38
477.46	22.32
477.662	22.32
477.864	22.33
478.066	22.22
478.268	22.16
478.469	22.19
478.671	22.24
478.873	22.23
479.075	22.25
479.276	22.29
479.478	22.32
479.68	22.45
479.882	22.4
480.083	22.42
480.285	22.53
480.487	22.61
480.688	22.55
480.89	22.51
481.091	22.51
481.293	22.56
481.495	22.59
481.696	22.63
481.898	22.61
482.099	22.67
482.301	22.68
482.502	22.64
482.704	22.61
482.905	22.61
483.107	22.59
483.308	22.56
483.51	22.54
483.711	22.46
483.913	22.39
484.114	22.3
484.315	22.19
484.517	22.14
484.718	22.11
484.92	22.06
485.121	22.02
485.322	21.98
485.524	21.97
485.725	21.91
485.926	21.94
486.127	22
486.329	22.02
486.53	22.11
486.731	22.17
486.932	22.19
487.134	22.25
487.335	22.26
487.536	22.27
487.737	22.24
487.938	22.24
488.139	22.24
488.341	22.19
488.542	22.23
488.743	22.21
488.944	22.15
489.145	22.13
489.346	22.1
489.547	22.1
489.748	22.11
489.949	22.2
490.15	22.25
490.351	22.28
490.552	22.32
490.753	22.37
490.954	22.36
491.155	22.44
491.356	22.47
491.557	22.45
491.758	22.51
491.959	22.47
492.159	22.43
492.36	22.43
492.561	22.35
492.762	22.35
492.963	22.29
493.164	22.29
493.364	22.22
493.565	22.19
493.766	22.16
493.967	22.15
494.167	22.26
494.368	22.31
494.569	22.35
494.769	22.47
494.97	22.54
495.171	22.58
495.371	22.72
495.572	22.74
495.773	22.78
495.973	22.84
496.174	22.87
496.375	22.85
496.575	22.82
496.776	22.8
496.976	22.78
497.177	22.7
497.377	22.63
497.578	22.57
497.778	22.55
497.979	22.59
498.179	22.63
498.38	22.54
498.58	22.62
498.78	22.64
498.981	22.66
499.181	22.69
499.382	22.77
499.582	22.84
499.782	22.83
499.983	22.89
500.183	22.86
500.383	22.81
500.584	22.85
500.784	22.85
500.984	22.85
501.184	22.82
501.385	22.97
501.585	22.95
501.785	23.02
501.985	23.08
502.185	22.99
502.386	23
502.586	23.1
502.786	23.16
502.986	23.09
503.186	23.19
503.386	23.17
503.586	23.08
503.786	23.1
503.987	23.12
504.187	23.05
504.387	23.09
504.587	23.13
504.787	23.06
504.987	23
505.187	23.04
505.387	22.99
505.587	23.11
505.786	23.12
505.986	23.11
506.186	23.08
506.386	23.23
506.586	23.33
506.786	23.3
506.986	23.35
507.186	23.42
507.386	23.48
507.585	23.46
507.785	23.45
507.985	23.45
508.185	23.49
508.384	23.53
508.584	23.55
508.784	23.55
508.984	23.5
509.183	23.61
509.383	23.62
509.583	23.59
509.782	23.63
509.982	23.67
510.182	23.66
510.381	23.61
510.581	23.61
510.781	23.55
510.98	23.58
511.18	23.66
511.379	23.56
511.579	23.58
511.778	23.6
511.978	23.63
512.177	23.63
512.377	23.68
512.576	23.67
512.776	23.6
512.975	23.63
513.175	23.65
513.374	23.73
513.573	23.86
513.773	23.79
513.972	23.83
514.172	23.76
514.371	23.7
514.57	23.73
514.77	23.72
514.969	23.77
515.168	23.86
515.367	23.8
515.567	23.8
515.766	23.73
515.965	23.87
516.164	23.86
516.364	24
516.563	24.06
516.762	24.15
516.961	24.29
517.16	24.26
517.359	24.18
517.559	24.22
517.758	24.27
517.957	24.27
518.156	24.27
518.355	24.25
518.554	24.22
518.753	24.16
518.952	24.19
519.151	24.11
519.35	24.15
519.549	24.15
519.748	24.17
519.947	24.12
520.146	24.14
520.345	24.02
520.544	24
520.743	23.96
520.942	24.15
521.141	24.07
521.339	24.18
521.538	24.22
521.737	24.29
521.936	24.22
522.135	24.23
522.333	24.17
522.532	24.36
522.731	24.47
522.93	24.64
523.129	24.63
523.327	24.71
523.526	24.61
523.725	24.71
523.923	24.66
524.122	24.8
524.321	24.91
524.519	25.02
524.718	24.93
524.917	24.93
525.115	24.88
525.314	24.84
525.512	24.77
525.711	24.84
525.909	24.84
526.108	24.96
526.306	24.96
526.505	24.91
526.703	24.9
526.902	24.97
527.1	24.99
527.299	25.02
527.497	25.07
527.696	25.09
527.894	25.08
528.092	25.06
528.291	25
528.489	24.95
528.688	24.94
528.886	24.89
529.084	24.85
529.283	24.79
529.481	24.71
529.679	24.68
529.877	24.64
530.076	24.63
530.274	24.61
530.472	24.59
530.67	24.68
530.869	24.73
531.067	24.81
531.265	24.9
531.463	25.03
531.661	25.12
531.859	25.2
532.057	25.25
532.255	25.2
532.454	25.2
532.652	25.25
532.85	25.28
533.048	25.28
533.246	25.29
533.444	25.25
533.642	25.27
533.84	25.22
534.038	25.19
534.236	25.21
534.434	25.29
534.632	25.33
534.83	25.41
535.027	25.36
535.225	25.42
535.423	25.41
535.621	25.46
535.819	25.49
536.017	25.54
536.215	25.52
536.412	25.51
536.61	25.58
536.808	25.61
537.006	25.52
537.203	25.55
537.401	25.46
537.599	25.45
537.797	25.42
537.994	25.31
538.192	25.37
538.39	25.42
538.587	25.56
538.785	25.58
538.983	25.65
539.18	25.72
539.378	25.86
539.575	25.92
539.773	25.98
539.97	26.06
540.168	26.15
540.366	26.12
540.563	26.13
540.761	26.08
540.958	26.06
541.155	26.02
541.353	26.02
541.55	25.93
541.748	25.9
541.945	25.88
542.143	25.81
542.34	25.76
542.537	25.75
542.735	25.75
542.932	25.74
543.129	25.75
543.327	25.77
543.524	25.74
543.721	25.79
543.919	25.84
544.116	25.87
544.313	25.91
544.51	25.98
544.708	26.02
544.905	26.01
545.102	26.06
545.299	26.06
545.496	26.16
545.693	26.22
545.891	26.27
546.088	26.27
546.285	26.28
546.482	26.26
546.679	26.17
546.876	26.22
547.073	26.21
547.27	26.17
547.467	26.15
547.664	26.07
547.861	25.99
548.058	25.92
548.255	25.96
548.452	25.94
548.649	26.03
548.846	26.08
549.043	26.08
549.24	26.04
549.437	26.1
549.633	26.06
549.83	26.01
550.027	26.06
550.224	26.05
550.421	25.99
550.618	25.96
550.814	25.94
551.011	26.07
551.208	26.07
551.405	26.18
551.601	26.15
551.798	26.26
551.995	26.27
552.191	26.24
552.388	26.34
552.585	26.35
552.781	26.48
552.978	26.54
553.175	26.48
553.371	26.51
553.568	26.41
553.764	26.38
553.961	26.42
554.157	26.38
554.354	26.51
554.55	26.4
554.747	26.36
554.943	26.32
555.14	26.19
555.336	26.18
555.533	26.13
555.729	26.21
555.926	26.18
556.122	26.12
556.318	26.21
556.515	26.16
556.711	26.23
556.907	26.28
557.104	26.27
557.3	26.33
557.496	26.41
557.693	26.45
557.889	26.53
558.085	26.55
558.281	26.4
558.478	26.42
558.674	26.34
558.87	26.37
559.066	26.43
559.262	26.38
559.459	26.41
559.655	26.39
559.851	26.32
560.047	26.22
560.243	26.38
560.439	26.43
560.635	26.4
560.831	26.41
561.027	26.43
561.223	26.38
561.419	26.42
561.615	26.49
561.811	26.48
562.007	26.52
562.203	26.55
562.399	26.44
562.595	26.53
562.791	26.51
562.987	26.63
563.183	26.61
563.379	26.7
563.575	26.73
563.771	26.63
563.966	26.46
564.162	26.45
564.358	26.54
564.554	26.48
564.75	26.44
564.945	26.59
565.141	26.65
565.337	26.72
565.533	26.64
565.728	26.6
565.924	26.67
566.12	26.8
566.315	26.89
566.511	26.87
566.707	26.89
566.902	26.96
567.098	26.8
567.293	26.73
567.489	26.73
567.684	26.71
567.88	26.81
568.076	26.76
568.271	26.76
568.467	26.77
568.662	26.69
568.858	26.89
569.053	26.88
569.248	26.94
569.444	26.94
569.639	26.89
569.835	26.97
570.03	26.94
570.225	27.03
570.421	27.12
570.616	27.19
570.812	27.31
571.007	27.12
571.202	27.12
571.397	27.22
571.593	27.32
571.788	27.37
571.983	27.36
572.178	27.27
572.374	27.25
572.569	27.23
572.764	27.19
572.959	27.09
573.154	27.22
573.35	27.23
573.545	27.26
573.74	27.09
573.935	27.05
574.13	27.19
574.325	27.3
574.52	27.32
574.715	27.25
574.91	27.18
575.105	27.18
575.3	27.15
575.495	27.25
575.69	27.23
575.885	27.37
576.08	27.49
576.275	27.45
576.47	27.39
576.665	27.46
576.86	27.71
577.055	27.84
577.25	27.95
577.444	27.86
577.639	27.79
577.834	27.84
578.029	27.75
578.224	27.69
578.418	27.63
578.613	27.71
578.808	27.78
579.003	27.61
579.197	27.63
579.392	27.69
579.587	27.85
579.781	27.96
579.976	27.97
580.171	28.05
580.365	28.15
580.56	28.28
580.755	28.38
580.949	28.31
581.144	28.3
581.338	28.21
581.533	28.16
581.727	28.26
581.922	28.29
582.116	28.22
582.311	28.26
582.505	28.34
582.7	28.42
582.894	28.49
583.089	28.6
583.283	28.62
583.478	28.7
583.672	28.82
583.866	28.74
584.061	28.73
584.255	28.86
584.449	28.88
584.644	28.72
584.838	28.63
585.032	28.66
585.226	28.66
585.421	28.78
585.615	28.7
585.809	28.68
586.003	28.72
586.198	28.79
586.392	28.73
586.586	28.79
586.78	28.89
586.974	28.76
587.168	28.67
587.363	28.63
587.557	28.52
587.751	28.64
587.945	28.58
588.139	28.66
588.333	28.46
588.527	28.61
588.721	28.6
588.915	28.64
589.109	28.74
589.303	28.7
589.497	28.69
589.691	28.62
589.885	28.53
590.079	28.66
590.273	28.62
590.466	28.86
590.66	28.73
590.854	28.78
591.048	28.71
591.242	28.68
591.436	28.74
591.629	29.05
591.823	29.29
592.017	29.44
592.211	29.41
592.404	29.36
592.598	29.22
592.792	29.19
592.986	29.19
593.179	29.41
593.373	29.42
593.567	29.45
593.76	29.18
593.954	29.18
594.147	29.3
594.341	29.32
594.535	29.45
594.728	29.54
594.922	29.58
595.115	29.66
595.309	29.4
595.502	29.42
595.696	29.43
595.889	29.53
596.083	29.53
596.276	29.41
596.47	29.45
596.663	29.5
596.856	29.44
597.05	29.49
597.243	29.3
597.437	29.31
597.63	29.32
597.823	29.35
598.017	29.23
598.21	29.17
598.403	29.13
598.596	29.08
598.79	28.99
598.983	29.19
599.176	29.1
599.369	29.25
599.563	29.48
599.756	29.54
599.949	29.53
600.142	29.62
600.335	29.72
600.528	29.87
600.722	30.1
600.915	30.28
601.108	30.18
601.301	30.35
601.494	30.4
601.687	30.37
601.88	30.53
602.073	30.51
602.266	30.51
602.459	30.45
602.652	30.47
602.845	30.31
603.038	30.18
603.231	30.14
603.424	30.18
603.617	30.2
603.809	30.19
604.002	30.17
604.195	30.25
604.388	30.19
604.581	30.26
604.774	30.29
604.966	30.29
605.159	30.28
605.352	30.33
605.545	30.27
605.737	30.28
605.93	30.32
606.123	30.29
606.316	30.21
606.508	30.23
606.701	30.29
606.894	30.28
607.086	30.45
607.279	30.56
607.471	30.85
607.664	31.05
607.857	31.15
608.049	31.32
608.242	31.51
608.434	31.82
608.627	32.16
608.819	32.38
609.012	32.8
609.204	33.19
609.397	33.69
609.589	33.84
609.782	34.07
609.974	34.4
610.166	34.84
610.359	35.26
610.551	35.57
610.743	35.82
610.936	36.04
611.128	36.05
611.32	36.01
611.513	35.97
611.705	36.03
611.897	36.12
612.09	35.98
612.282	35.74
612.474	35.42
612.666	35.23
612.858	35.09
613.051	35.01
613.243	34.81
613.435	34.91
613.627	34.77
613.819	34.73
614.011	34.71
614.203	34.63
614.395	34.49
614.588	34.44
614.78	34.32
614.972	34.13
615.164	33.91
615.356	33.76
615.548	33.4
615.74	33.24
615.932	33.04
616.124	33
616.315	33.04
616.507	33.22
616.699	33.03
616.891	32.94
617.083	33.04
617.275	33.05
617.467	33.07
617.659	33.08
617.85	33.08
618.042	33.08
618.234	32.86
618.426	32.76
618.618	32.53
618.809	32.54
619.001	32.66
619.193	32.58
619.384	32.49
619.576	32.44
619.768	32.56
619.959	32.45
620.151	32.56
620.343	32.66
620.534	32.8
620.726	32.93
620.917	33.08
621.109	33.02
621.301	33.14
621.492	33.13
621.684	33.29
621.875	33.26
622.067	33.36
622.258	33.23
622.45	33.15
622.641	33.12
622.832	33.09
623.024	33.08
623.215	33.07
623.407	33.04
623.598	33.36
623.789	33.24
623.981	33.37
624.172	33.46
624.363	33.75
624.555	33.66
624.746	33.76
624.937	33.63
625.129	33.83
625.32	33.72
625.511	33.68
625.702	33.6
625.893	33.8
626.085	33.63
626.276	33.68
626.467	33.45
626.658	33.67
626.849	33.55
627.04	33.62
627.231	33.4
627.422	33.66
627.614	33.75
627.805	33.82
627.996	34.02
628.187	34.21
628.378	34.24
628.569	34.57
628.76	34.69
628.951	34.56
629.142	34.72
629.332	35
629.523	34.97
629.714	34.98
629.905	35
630.096	34.72
630.287	34.77
630.478	34.69
630.669	34.59
630.859	34.49
631.05	34.76
631.241	34.76
631.432	34.73
631.623	34.72
631.813	34.72
632.004	34.72
632.195	34.85
632.385	34.68
632.576	34.71
632.767	34.49
632.957	34.52
633.148	34.65
633.339	34.62
633.529	34.49
633.72	34.33
633.91	34.3
634.101	34.25
634.292	34.13
634.482	34.12
634.673	34.3
634.863	34.37
635.054	34.27
635.244	34.21
635.435	34.25
635.625	34.3
635.815	34.56
636.006	34.61
636.196	34.76
636.387	35.1
636.577	35.32
636.767	35.08
636.958	35.13
637.148	35.23
637.338	35.23
637.529	35.32
637.719	35.49
637.909	35.3
638.099	35.18
638.29	35.11
638.48	34.83
638.67	34.71
638.86	35.09
639.05	34.97
639.241	34.95
639.431	34.9
639.621	34.92
639.811	34.77
640.001	34.92
640.191	35.24
640.381	35.42
640.571	35.34
640.761	35.58
640.951	35.41
641.141	35.68
641.331	35.75
641.521	36.16
641.711	35.94
641.901	35.9
642.091	36
642.281	35.67
642.471	35.61
642.661	35.92
642.851	35.94
643.041	36.03
643.231	36.08
643.42	36.07
643.61	35.8
643.8	35.89
643.99	36.06
644.18	36.06
644.369	36.47
644.559	36.69
644.749	36.54
644.939	36.57
645.128	36.49
645.318	36.44
645.508	36.48
645.697	36.48
645.887	36.45
646.076	36.53
646.266	36.65
646.456	36.56
646.645	36.31
646.835	36.42
647.024	36.26
647.214	36.25
647.403	36.17
647.593	36.01
647.782	36.34
647.972	36.54
648.161	36.79
648.351	36.77
648.54	36.98
648.73	37.05
648.919	37.17
649.108	36.97
649.298	36.99
649.487	37.01
649.677	37.41
649.866	37.46
650.055	37.68
650.244	37.6
650.434	37.48
650.623	37.16
650.812	37.16
651.002	37.06
651.191	37.35
651.38	37.36
651.569	37.67
651.758	37.57
651.947	37.29
652.137	37.12
652.326	37.09
652.515	37.47
652.704	37.58
652.893	37.82
653.082	37.8
653.271	37.94
653.46	38.1
653.649	38.15
653.838	38.22
654.027	38.65
654.216	38.7
654.405	38.73
654.594	38.42
654.783	38.61
654.972	38.74
655.161	39.02
655.35	38.79
655.539	38.72
655.728	38.56
655.916	38.71
656.105	38.48
656.294	38.34
656.483	38.23
656.672	38.31
656.86	38.52
657.049	38.37
657.238	38.4
657.427	38.52
657.615	38.79
657.804	38.9
657.993	38.81
658.181	38.91
658.37	39.04
658.559	39.15
658.747	39.29
658.936	39.15
659.125	39.23
659.313	39.04
659.502	39.01
659.69	39.11
659.879	38.98
660.067	39.01
660.256	38.97
660.444	39.09
660.633	39.08
660.821	39.03
661.01	39.07
661.198	38.76
661.387	39.19
661.575	39.5
661.763	39.3
661.952	39.53
662.14	39.61
662.328	39.68
662.517	39.78
662.705	39.97
662.893	40.16
663.082	40.28
663.27	40.64
663.458	40.48
663.646	40.45
663.834	40.58
664.023	40.68
664.211	40.45
664.399	40.36
664.587	40.26
664.775	40.09
664.963	40.13
665.152	39.98
665.34	40.13
665.528	39.95
665.716	39.98
665.904	39.88
666.092	40.1
666.28	40.26
666.468	40.4
666.656	40.64
666.844	40.96
667.032	40.76
667.22	41.05
667.408	40.93
667.596	41.2
667.784	41.11
667.971	41.31
668.159	41.21
668.347	41.12
668.535	41.17
668.723	40.94
668.911	40.98
669.098	41.01
669.286	40.91
669.474	41.03
669.662	40.68
669.849	40.81
670.037	40.7
670.225	40.58
670.413	40.97
670.6	40.91
670.788	41.04
670.976	40.79
671.163	40.78
671.351	40.92
671.538	40.95
671.726	41.66
671.913	41.7
672.101	42.05
672.289	42.16
672.476	42.35
672.664	42.4
672.851	42.63
673.039	42.79
673.226	42.96
673.413	42.79
673.601	42.67
673.788	42.3
673.976	42.24
674.163	41.96
674.35	41.91
674.538	41.64
674.725	41.7
674.912	41.71
675.1	41.71
675.287	41.95
675.474	41.97
675.662	42.01
675.849	41.89
676.036	42.42
676.223	42.61
676.411	42.71
676.598	42.83
676.785	42.86
676.972	42.67
677.159	42.82
677.346	42.83
677.533	42.93
677.721	43.06
677.908	43.2
678.095	42.92
678.282	42.89
678.469	42.99
678.656	42.86
678.843	42.85
679.03	42.93
679.217	43.08
679.404	42.95
679.591	42.92
679.778	42.65
679.964	42.67
680.151	42.52
680.338	42.48
680.525	42.55
680.712	42.66
680.899	42.78
681.086	42.75
681.272	42.33
681.459	42.23
681.646	42.2
681.833	42.41
682.02	42.77
682.206	42.88
682.393	42.74
682.58	42.69
682.766	42.7
682.953	42.54
683.14	42.62
683.326	43.2
683.513	43.34
683.7	43.35
683.886	43.3
684.073	43.09
684.259	43.2
684.446	43.7
684.632	43.86
684.819	44.1
685.005	44.32
685.192	44.39
685.378	44.19
685.565	44.15
685.751	44.23
685.938	44.45
686.124	44.56
686.31	44.71
686.497	44.57
686.683	44.32
686.87	44.01
687.056	43.77
687.242	43.97
687.429	44.07
687.615	44.15
687.801	44.34
687.987	44.22
688.174	44.15
688.36	43.93
688.546	44.02
688.732	44.41
688.918	44.68
689.105	44.84
689.291	44.36
689.477	44.15
689.663	44.3
689.849	44.07
690.035	44.61
690.221	44.57
690.407	44.59
690.593	44.61
690.779	44.4
690.965	44.23
691.151	44.21
691.337	44.83
691.523	44.93
691.709	45.05
691.895	45.33
692.081	45.05
692.267	44.96
692.453	45.16
692.639	45.16
692.825	45.05
693.011	45.16
693.196	45.33
693.382	45
693.568	44.76
693.754	44.78
693.94	44.75
694.125	44.58
694.311	44.84
694.497	44.56
694.682	44.45
694.868	44.42
695.054	44.45
695.239	44.47
695.425	44.61
695.611	44.92
695.796	45.22
695.982	45.43
696.168	45.09
696.353	45.24
696.539	45.45
696.724	45.43
696.91	45.52
697.095	45.57
697.281	45.72
697.466	45.78
697.652	45.71
697.837	45.33
698.023	45.29
698.208	45.64
698.393	45.28
698.579	45.23
698.764	45.21
698.949	45.32
699.135	45.34
699.32	45.17
699.505	44.9
699.691	44.98
699.876	45.02
700.061	44.75
700.246	44.9
700.432	45.19
700.617	45.3
700.802	45.59
700.987	45.69
701.172	45.24
701.358	45.38
701.543	45.68
701.728	45.74
701.913	45.79
702.098	46.56
702.283	46.2
702.468	46.56
702.653	46.61
702.838	46.37
703.023	46.36
703.208	46.72
703.393	46.66
703.578	46.94
703.763	47.05
703.948	47.11
704.133	46.49
704.318	47.08
704.503	46.8
704.688	46.9
704.873	46.79
705.057	46.99
705.242	47.4
705.427	48
705.612	47.94
705.797	48.19
705.981	48.51
706.166	49.02
706.351	48.85
706.536	49.28
706.72	49.56
706.905	49.88
707.09	49.78
707.274	49.81
707.459	49.53
707.644	50.03
707.828	50.04
708.013	49.91
708.197	49.51
708.382	49.38
708.567	49.34
708.751	49.42
708.936	49.43
709.12	49.8
709.305	49.82
709.489	50.04
709.673	49.54
709.858	49.57
710.042	49.53
710.227	49.66
710.411	49.58
710.596	49.53
710.78	49.5
710.964	49.27
711.149	48.89
711.333	48.84
711.517	48.2
711.702	47.92
711.886	47.7
712.07	48.03
712.254	48.06
712.438	48.01
712.623	48.13
712.807	47.78
712.991	47.94
713.175	47.75
713.359	47.69
713.544	47.91
713.728	48.18
713.912	48.31
714.096	47.96
714.28	47.92
714.464	48.05
714.648	47.5
714.832	47.75
715.016	47.5
715.2	47.47
715.384	47.53
715.568	47.58
715.752	47.57
715.936	47.96
716.12	48.12
716.304	47.8
716.488	47.47
716.671	47.76
716.855	47.41
717.039	47.29
717.223	47.4
717.407	47.32
717.59	47.46
717.774	47.47
717.958	46.99
718.142	47.04
718.325	47.28
718.509	47.65
718.693	47.95
718.877	48.03
719.06	48.58
719.244	48.55
719.428	48.51
719.611	48.37
719.795	48.69
719.978	48.62
720.162	48.68
720.345	49.03
720.529	49.58
720.713	48.92
720.896	48.88
721.08	48.56
721.263	48.41
721.446	48.54
721.63	48.32
721.813	47.68
721.997	47.45
722.18	47.3
722.364	46.92
722.547	46.36
722.73	46.93
722.914	47.47
723.097	47.49
723.28	47.9
723.464	48.21
723.647	48.73
723.83	49.47
724.013	49.57
724.197	49.51
724.38	49.81
724.563	49.89
724.746	49.54
724.929	49.53
725.112	50.09
725.296	49.63
725.479	49.87
725.662	49.86
725.845	49.45
726.028	49.98
726.211	50.09
726.394	50.19
726.577	49.93
726.76	50.16
726.943	49.85
727.126	50.02
727.309	50.69
727.492	50.67
727.675	50.37
727.858	50.51
728.041	50.3
728.224	50.48
728.407	50.56
728.589	51
728.772	51.04
728.955	50.82
729.138	50.33
729.321	49.9
729.503	49.08
729.686	49.58
729.869	49.58
730.052	49.62
730.234	49.31
730.417	48.66
730.6	48.46
730.782	48.68
730.965	49.16
731.148	49.28
731.33	49.67
731.513	50.22
731.695	49.55
731.878	49.01
732.061	48.98
732.243	49.42
732.426	49.92
732.608	50
732.791	49.6
732.973	49.71
733.156	49.72
733.338	49.46
733.52	49.29
733.703	49.3
733.885	49.64
734.068	49.47
734.25	49.17
734.432	48.92
734.615	49.1
734.797	49.32
734.979	48.9
735.162	49.04
735.344	48.73
735.526	48.68
735.708	48.94
735.891	49.62
736.073	49.71
736.255	49.78
736.437	49.68
736.619	49.94
736.802	49.94
736.984	50.21
737.166	50.51
737.348	51.29
737.53	51.9
737.712	52.04
737.894	51.48
738.076	51.4
738.258	51.4
738.44	51.96
738.622	51.71
738.804	51.96
738.986	52.12
739.168	52.19
739.35	51.88
739.532	51.34
739.714	51.66
739.896	51.89
740.078	52.03
740.259	51.72
740.441	52.01
740.623	52.02
740.805	51.8
740.987	52.02
741.168	51.15
741.35	51.12
741.532	51.14
741.714	51.03
741.895	51.13
742.077	51.28
742.259	51.76
742.44	51.56
742.622	51.33
742.804	51.69
742.985	51.39
743.167	52.26
743.348	52.82
743.53	52.76
743.711	52.84
743.893	53.04
744.075	52.93
744.256	53
744.438	52.62
744.619	52.82
744.8	52.32
744.982	51.71
745.163	51.46
745.345	51.16
745.526	51.4
745.707	50.86
745.889	50.77
746.07	50.85
746.252	50.74
746.433	50.55
746.614	50.86
746.795	51.34
746.977	52.31
747.158	52.06
747.339	51.92
747.52	51.77
747.702	52.14
747.883	51.84
748.064	51.84
748.245	51.9
748.426	51.6
748.607	51.35
748.788	51.24
748.97	50.8
749.151	50.86
749.332	50.71
749.513	51.08
749.694	51.54
749.875	51.51
750.056	51.83
750.237	51.65
750.418	52.4
750.599	52.55
750.78	52.21
750.96	52.49
751.141	52.43
751.322	52.56
751.503	51.99
751.684	51.62
751.865	51.07
752.046	51.1
752.226	51.8
752.407	51.69
752.588	51.8
752.769	52.66
752.949	52.55
753.13	53.14
753.311	52.87
753.492	53.04
753.672	52.97
753.853	53.41
754.034	52.74
754.214	51.94
754.395	51.9
754.575	51.14
754.756	50.77
754.937	50.71
755.117	49.97
755.298	49.99
755.478	50.38
755.659	50.28
755.839	50.87
756.02	51.45
756.2	51.47
756.381	51.76
756.561	52.87
756.741	52.38
756.922	52.63
757.102	53.08
757.283	53.51
757.463	53.27
757.643	53.53
757.823	52.77
758.004	52.82
758.184	53.03
758.364	52.93
758.545	52.66
758.725	52.16
758.905	51.5
759.085	51.56
759.265	50.8
759.446	50.55
759.626	50.5
759.806	50.37
759.986	49.97
760.166	50.1
760.346	50.23
760.526	49.81
760.706	50.5
760.886	50.07
761.066	50.43
761.246	51.26
761.426	51.84
761.606	51.27
761.786	51.45
761.966	51.31
762.146	51.32
762.326	51.43
762.506	51.1
762.686	50.96
762.866	51.63
763.046	50.88
763.225	50.46
763.405	49.89
763.585	49.97
763.765	49.81
763.945	49.55
764.124	49.43
764.304	49.19
764.484	49.33
764.664	49.31
764.843	49.17
765.023	49.11
765.203	49.57
765.382	49.83
765.562	50.57
765.741	50.7
765.921	51.12
766.101	50.94
766.28	50.83
766.46	50.93
766.639	51.38
766.819	51.89
766.998	52.72
767.178	52.65
767.357	53.42
767.537	53.08
767.716	54.01
767.896	53.55
768.075	53.54
768.254	54.14
768.434	55
768.613	54.27
768.792	53.76
768.972	53.36
769.151	52.95
769.33	52.17
769.51	52.73
769.689	52.13
769.868	52.57
770.047	52.79
770.226	52.32
770.406	50.98
770.585	51.81
770.764	51.65
770.943	51.54
771.122	51.4
771.301	51.68
771.48	50.54
771.66	51.03
771.839	50.89
772.018	51.1
772.197	51.75
772.376	52.29
772.555	52.6
772.734	53.02
772.913	52.26
773.092	52.54
773.271	53.59
773.449	53.6
773.628	53.82
773.807	54.56
773.986	54.36
774.165	54.59
774.344	54.89
774.523	54.48
774.701	54.24
774.88	55.71
775.059	55.74
775.238	54.71
775.417	55.22
775.595	54.9
775.774	54.51
775.953	54.79
776.131	54.07
776.31	53.85
776.489	54.01
776.667	54.41
776.846	54.63
777.025	54.75
777.203	55.28
777.382	56.2
777.56	55.93
777.739	57.05
777.917	56.53
778.096	56.37
778.274	56.98
778.453	56.74
778.631	56.55
778.81	56.1
778.988	57.06
779.166	56.55
779.345	54.79
779.523	55.01
779.702	54.01
779.88	55
780.058	55.01
780.237	54.24
780.415	54.69
780.593	53.89
780.771	52.88
780.95	52.15
781.128	51.33
781.306	52.13
781.484	52.19
781.662	52.38
781.841	52.38
782.019	52.83
782.197	52.68
782.375	51.86
782.553	52.89
782.731	53.8
782.909	53.53
783.087	54.94
783.265	54.7
783.443	54.51
783.621	55.14
783.799	54.69
783.977	53.76
784.155	54.49
784.333	54.93
784.511	55.15
784.689	55.2
784.867	56.55
785.045	56.05
785.223	56.54
785.4	57.5
785.578	57.35
785.756	58.84
785.934	59.89
786.112	59.43
786.289	58.63
786.467	58.06
786.645	57.66
786.823	55.53
787	55.83
787.178	55.45
787.356	54.94
787.533	53.77
787.711	51.76
787.889	51.37
788.066	51.05
788.244	50.8
788.421	50.71
788.599	51.5
788.776	51.79
788.954	50.91
789.131	51.55
789.309	51.27
789.486	52.04
789.664	52.39
789.841	51.86
790.019	51.22
790.196	51.31
790.373	52.19
790.551	51.52
790.728	51.45
790.906	51.96
791.083	52.67
791.26	52.39
791.437	52.35
791.615	52.97
791.792	53.91
791.969	55.6
792.146	55.2
792.324	54.61
792.501	55.4
792.678	55.99
792.855	56.1
793.032	54.67
793.209	54.48
793.387	54.21
793.564	53.17
793.741	52.53
793.918	51.66
794.095	52.1
794.272	52.15
794.449	51.09
794.626	51.38
794.803	52.11
794.98	52.26
795.157	52.25
795.334	50.81
795.511	51.82
795.688	52.92
795.864	53.42
796.041	54.43
796.218	55.15
796.395	56.73
796.572	56.64
796.749	55.38
796.925	54.69
797.102	55.03
797.279	56.39
797.456	56.37
797.632	54.83
797.809	53.95
797.986	54.59
798.162	53.92
798.339	51.68
798.516	51.83
798.692	52.54
798.869	52.61
799.046	52.28
799.222	52.97
799.399	53.19
799.575	53.23
799.752	53.81
799.928	53.43
800.105	53.62
800.281	54.24
800.458	55
800.634	54.94
800.811	53.84
800.987	54.87
801.163	54.49
801.34	54.06
801.516	54.98
801.692	54.06
801.869	53.2
802.045	52.39
802.221	52.39
802.398	51.34
802.574	50.52
802.75	52.53
802.926	51.43
803.103	51.47
803.279	51.36
803.455	51.04
803.631	52.28
803.807	52.78
803.983	54
804.16	53.66
804.336	53.1
804.512	54.35
804.688	54.66
804.864	54.93
805.04	54.44
805.216	54.08
805.392	53.79
805.568	54.34
805.744	53.4
805.92	51.79
806.096	51.92
806.272	52.82
806.448	52.28
806.623	49.92
806.799	50.63
806.975	50.15
807.151	51.07
807.327	50.86
807.503	49.25
807.678	51.03
807.854	50.63
808.03	50.83
808.206	52.17
808.381	52.71
808.557	54.93
808.733	53.45
808.908	53.78
809.084	54.26
809.26	54.69
809.435	54.43
809.611	53.7
809.787	54.15
809.962	54.9
810.138	53.05
810.313	52.97
810.489	51.25
810.664	51.99
810.84	53.41
811.015	51.73
811.191	52.11
811.366	53.44
811.542	52.28
811.717	52.86
811.892	51.58
812.068	52.11
812.243	51.7
812.419	52.47
812.594	51.9
812.769	50.11
812.944	50.5
813.12	50.1
813.295	49.96
813.47	48.81
813.645	49.19
813.821	50
813.996	50.05
814.171	51.22
814.346	50.11
814.521	50.79
814.697	51.53
814.872	51.01
815.047	51.14
815.222	51.19
815.397	53.11
815.572	52.76
815.747	52.07
815.922	51.27
816.097	49.51
816.272	51.01
816.447	51.14
816.622	51.64
816.797	50.92
816.972	50.82
817.147	50.96
817.322	50.58
817.496	49.65
817.671	51.19
817.846	51.07
818.021	50.54
818.196	50.14
818.371	49.61
818.545	48.76
818.72	49.25
818.895	48.97
819.069	47.68
819.244	47.05
819.419	47.42
819.594	46.4
819.768	45.68
819.943	46.16
820.117	46.25
820.292	45.58
820.467	43.95
820.641	43.38
820.816	42.77
820.99	42.39
821.165	42.28
821.339	41.69
821.514	41.62
821.688	41.22
821.863	40.91
822.037	40.39
822.212	40.35
822.386	40.27
822.56	40.1
822.735	39.83
822.909	39.87
823.084	39.6
823.258	39.55
823.432	39.02
823.606	39.05
823.781	38.95
823.955	38.9
824.129	38.62
824.303	38.83
824.478	39.14
824.652	39.44
824.826	38.89
825	39.02
825.174	39.19
825.348	39.73
825.523	39.73
825.697	40.19
825.871	40.57
826.045	40.55
826.219	39.93
826.393	39.49
826.567	39.82
826.741	40.02
826.915	40
827.089	40.04
827.263	40.04
827.437	40.14
827.611	39.63
827.784	39.83
827.958	40.09
828.132	40.91
828.306	41.24
828.48	40.8
828.654	41.15
828.827	41.44
829.001	40.83
829.175	41.58
829.349	42.35
829.522	42.41
829.696	41.95
829.87	42.74
830.044	43.15
830.217	43.63
830.391	44.52
830.565	45.1
830.738	45.72
830.912	46.74
831.085	46.51
831.259	44.65
831.432	45.46
831.606	45.53
831.779	44.13
831.953	44.26
832.126	44.34
832.3	43.99
832.473	44.29
832.647	43.77
832.82	43.74
832.994	42.54
833.167	43.29
833.34	43.65
833.514	43.44
833.687	44.05
833.86	43.54
834.034	42.8
834.207	42.57
834.38	42.15
834.553	41.87
834.727	41.61
834.9	41.44
835.073	40.83
835.246	40.66
835.419	40.07
835.593	39.36
835.766	39.35
835.939	39.63
836.112	39.37
836.285	39.27
836.458	39.25
836.631	39.82
836.804	40.73
836.977	39.98
837.15	39.28
837.323	39.67
837.496	39.23
837.669	40.06
837.842	40.88
838.015	42.76
838.188	43.82
838.361	44.41
838.533	44.31
838.706	46.24
838.879	49.06
839.052	49.79
839.225	50.31
839.398	53.23
839.57	53.21
839.743	51.01
839.916	49.47
840.088	48.03
840.261	49.41
840.434	50.3
840.607	47.54
840.779	46.52
840.952	45.45
841.124	46.8
841.297	45.17
841.47	45.31
841.642	47.62
841.815	48.92
841.987	50.37
842.16	49.8
842.332	48.46
842.505	49.88
842.677	51.97
842.85	54.69
843.022	56.62
843.194	57.72
843.367	56.66
843.539	55.98
843.712	56.11
843.884	58.38
844.056	57.79
844.229	60.2
844.401	62.11
844.573	61.48
844.745	58.72
844.918	56.31
845.09	55.21
845.262	54.06
845.434	54.65
845.606	51.62
845.779	49.78
845.951	51.9
846.123	50.83
846.295	52.2
846.467	53.65
846.639	53.56
846.811	52.7
846.983	56.86
847.155	58.83
847.327	59.35
847.499	62.8
847.671	60.76
847.843	57.57
848.015	59.1
848.187	55.54
848.359	54.34
848.531	57.89
848.703	61.97
848.875	57.83
849.047	56.1
849.218	54.4
849.39	55.35
849.562	54.75
849.734	59.45
849.905	58.19
850.077	61.02
850.249	59.79
850.421	61.61
850.592	55.86
850.764	54.57
850.936	57.19
851.107	57.72
851.279	56.03
851.451	55.95
851.622	51.5
851.794	51.94
851.965	51.92
852.137	54.15
852.308	49.64
852.48	52.64
852.651	58.14
852.823	53.62
852.994	53.39
853.166	49.54
853.337	55.07
853.509	53.88
853.68	53.84
853.851	52.32
854.023	54.7
854.194	54.96
854.365	54.48
854.537	51.95
854.708	54.1
854.879	54.13
855.05	58.27
855.222	55.34
855.393	57.81
855.564	57.32
855.735	56.91
855.906	51.94
856.078	49.88
856.249	45.02
856.42	44.39
856.591	46.1
856.762	44.37
856.933	43.47
857.104	42.26
857.275	41.09
857.446	40.92
857.617	43.97
857.788	46.9
857.959	48.39
858.13	52.2
858.301	52.24
858.472	52.75
858.643	57.71
858.814	58.34
858.985	57.71
859.155	61.54
859.326	60.22
859.497	59.09
859.668	62.01
859.839	61.21
860.009	60.92
860.18	62.04
860.351	63.44
860.522	56.51
860.692	54.28
860.863	55.85
861.034	58.8
861.204	61.68
861.375	59.91
861.546	55.07
861.716	56.57
861.887	60.49
862.057	64.65
862.228	62.78
862.398	60.51
862.569	58.45
862.739	56.97
862.91	52
863.08	48.39
863.251	48.22
863.421	52.08
863.592	54.68
863.762	48.38
863.932	44.44
864.103	46.71
864.273	51.77
864.443	59.7
864.614	58.37
864.784	55.23
864.954	60.56
865.125	59.57
865.295	56.48
865.465	53.4
865.635	54.13
865.805	54.09
865.976	51.16
866.146	51.12
866.316	44.09
866.486	47.44
866.656	49.61
866.826	50.38
866.996	52.28
867.166	51.39
867.336	53.06
867.506	55.57
867.676	56.66
867.846	57.95
868.016	61.42
868.186	63.07
868.356	64.41
868.526	64.75
868.696	60.19
868.866	58.63
869.036	59.95
869.206	58.37
869.376	61.97
869.545	54.91
869.715	55.3
869.885	49.01
870.055	43.96
870.224	42.5
870.394	42.17
870.564	44.26
870.734	45.95
870.903	45.5
871.073	44.1
871.243	43.04
871.412	46.83
871.582	45.48
871.751	48.14
871.921	52.51
872.091	50.93
872.26	48.97
872.43	46.28
872.599	44.86
872.769	46.51
872.938	49.9
873.108	47.76
873.277	47.75
873.446	49.71
873.616	47.62
873.785	45.61
873.955	46.83
874.124	50.18
874.293	50.05
874.463	51.75
874.632	52
874.801	50.47
874.971	50.38
875.14	52.68
875.309	51.27
875.478	54.33
875.647	56.84
875.817	57.07
875.986	58.47
876.155	59.28
876.324	61.01
876.493	58.72
876.662	59.31
876.831	58.38
877	57.08
877.17	56.06
877.339	54.35
877.508	54.97
877.677	55.33
877.846	53.76
878.015	53.96
878.184	54.07
878.352	54.04
878.521	53.54
878.69	55.4
878.859	54.49
879.028	55.95
879.197	53.47
879.366	49.1
879.534	47.53
879.703	46.6
879.872	46.07
880.041	42.67
880.21	40.98
880.378	40.85
880.547	38.78
880.716	37.68
880.884	36.99
881.053	36.34
881.222	34.9
881.39	34.14
881.559	33.57
881.727	33.72
881.896	33.98
882.065	33.46
882.233	32.53
882.402	32.8
882.57	32.53
882.739	31.99
882.907	32.08
883.076	33.03
883.244	32.94
883.412	32.47
883.581	32.18
883.749	31.89
883.918	32.3
884.086	32.98
884.254	33.46
884.423	34.51
884.591	35.62
884.759	35.88
884.927	37.22
885.096	38.32
885.264	39.82
885.432	40.49
885.6	41.6
885.769	43.72
885.937	43.64
886.105	42.09
886.273	41.45
886.441	41.6
886.609	41.09
886.777	38.49
886.945	37.55
887.113	40.67
887.281	40.86
887.449	42.24
887.617	40.87
887.785	41.35
887.953	44.73
888.121	42.87
888.289	40.16
888.457	45.43
888.625	47.57
888.793	52.11
888.961	51.48
889.129	52.86
889.296	50.15
889.464	51.22
889.632	51.71
889.8	50.53
889.967	54.96
890.135	59.25
