Data from 2938715__Reflection_01.txt Node
Date: Tue Mar 17 19:01:18 EDT 2015
User: robert
Spectrometer: USB4E03002
Autoset integration time: false
Trigger mode: 4
Integration Time (sec): 1.000000E-1
Scans to average: 10
Electric dark correction enabled: false
Nonlinearity correction enabled: false
Boxcar width: 5
Stray light correction enabled: false
XAxis mode: Wavelengths
Stop averaging: false
Number of Pixels in Spectrum: 3648
>>>>>Begin Spectral Data<<<<<
177.575	5.21
177.794	19.06
178.014	14.46
178.233	-35.24
178.452	-10.46
178.672	8.81
178.891	-28.4
179.11	16.39
179.33	-90
179.549	123.76
179.768	179.69
179.987	63.81
180.207	52.67
180.426	41.25
180.645	37.05
180.864	66.8
181.084	104.65
181.303	71.51
181.522	64.53
181.741	19.14
181.96	-11.76
182.179	-1.38
182.398	-5.41
182.618	0
182.837	-19.25
183.056	-42.8
183.275	-50.47
183.494	-368.47
183.713	-156.52
183.932	-212.65
184.151	-150.96
184.37	-264.22
184.589	-681.82
184.808	742.37
185.027	-242.73
185.246	-176.15
185.465	-58.41
185.684	-11.82
185.903	47.25
186.122	46.89
186.341	78.35
186.56	197
186.779	110.32
186.998	104.68
187.216	142.23
187.435	242.57
187.654	250.81
187.873	178.42
188.092	468.27
188.311	-632.14
188.53	-439.58
188.748	-958.7
188.967	222.17
189.186	246.51
189.405	481.52
189.623	331.3
189.842	294.31
190.061	174.19
190.28	227.03
190.498	136.11
190.717	103.38
190.936	112.35
191.154	195.68
191.373	588
191.592	812.82
191.81	-965.85
192.029	-298.86
192.248	952.94
192.466	-419.44
192.685	2005
192.904	-1063.33
193.122	-108.3
193.341	-374.55
193.559	-192.09
193.778	-154.49
193.996	-116.73
194.215	-10.33
194.433	-13.69
194.652	11.27
194.87	9.89
195.089	8.45
195.307	15.27
195.526	-10.17
195.744	9.44
195.963	5.94
196.181	-18.02
196.399	-17.19
196.618	-53.9
196.836	-88.14
197.055	-3262.5
197.273	-384.29
197.491	-2233.33
197.71	82.43
197.928	11800
198.146	-18
198.365	270.27
198.583	914.29
198.801	-74.24
199.019	-191.11
199.238	-715.63
199.456	-79.33
199.674	-57.78
199.892	-193.12
200.111	-75.69
200.329	-335.92
200.547	-539.47
200.765	-202.42
200.983	-1532.5
201.202	1731.25
201.42	-2805.56
201.638	-416.8
201.856	1895.83
202.074	-228.32
202.292	-39.92
202.51	-130.36
202.728	7.88
202.946	16.21
203.165	49.86
203.383	23.73
203.601	30.02
203.819	12.94
204.037	51.87
204.255	51.14
204.473	54.66
204.691	71.21
204.909	52.12
205.127	45.21
205.345	-0.55
205.562	-19.87
205.78	-5.94
205.998	-1.02
206.216	5.07
206.434	-24.49
206.652	-38.59
206.87	-152.38
207.088	-45.28
207.306	-39.16
207.523	-1793.75
207.741	-342.62
207.959	-132.43
208.177	48.28
208.395	59.07
208.612	92
208.83	144.44
209.048	252.94
209.266	-454.84
209.483	692.86
209.701	-291.89
209.919	-47.05
210.136	-64.1
210.354	-116.79
210.572	-175.15
210.79	-187.46
211.007	-313.22
211.225	-129.93
211.442	-91.68
211.66	-43.97
211.878	-54.12
212.095	-22.31
212.313	-20.49
212.53	-24.29
212.748	-2.12
212.966	7.43
213.183	-0.19
213.401	5.38
213.618	-3.24
213.836	6.97
214.053	-59.21
214.271	-103.17
214.488	-62.12
214.705	-41.72
214.923	-60
215.14	-84.98
215.358	-143.07
215.575	-109.35
215.793	-812.9
216.01	-271.05
216.227	-122.33
216.445	-45.19
216.662	-4.87
216.879	-67.72
217.097	-70.19
217.314	-41.23
217.531	-15.69
217.749	-19.08
217.966	-25.61
218.183	-0.36
218.4	6.3
218.618	-8.3
218.835	-5.79
219.052	-6.6
219.269	10.13
219.487	-2.64
219.704	-2.73
219.921	-3.84
220.138	-7.55
220.355	-19.93
220.572	-21.9
220.79	-26.8
221.007	-14.45
221.224	-16.32
221.441	-6.57
221.658	-14.14
221.875	3.01
222.092	4.64
222.309	6.11
222.526	7.78
222.743	10.33
222.96	8.52
223.177	4.12
223.394	1.17
223.611	8
223.828	4.62
224.045	5.36
224.262	-4.48
224.479	-4.5
224.696	-3.6
224.913	-0.23
225.13	3.03
225.347	-2.29
225.564	2.87
225.781	0.24
225.997	-3.22
226.214	-1.54
226.431	1.08
226.648	1.2
226.865	1.08
227.082	-1.04
227.298	0.35
227.515	0.99
227.732	2.7
227.949	2.86
228.165	2.97
228.382	1.94
228.599	1.29
228.816	1.78
229.032	1.96
229.249	2.77
229.466	3.29
229.682	2.48
229.899	2.31
230.116	1.85
230.332	1.59
230.549	1.72
230.765	3.47
230.982	3.73
231.199	3.84
231.415	4.87
231.632	3.4
231.848	3.31
232.065	3.47
232.281	3.21
232.498	2.18
232.714	1.75
232.931	2.54
233.147	0.56
233.364	1.27
233.58	0.19
233.797	0.21
234.013	0.87
234.23	-0.22
234.446	-0.2
234.662	-1.17
234.879	-0.05
235.095	0.81
235.312	0.39
235.528	-0.22
235.744	0.81
235.961	0.93
236.177	-1.83
236.393	-1.44
236.61	-0.55
236.826	-0.05
237.042	0.08
237.258	1.42
237.475	0.7
237.691	0.24
237.907	1.22
238.123	-1.13
238.339	-1.97
238.556	1.07
238.772	0.4
238.988	1.05
239.204	0.84
239.42	1.37
239.636	0.54
239.853	0.34
240.069	1.81
240.285	1.85
240.501	2.16
240.717	2.35
240.933	2.88
241.149	3.58
241.365	2.83
241.581	2.79
241.797	2.77
242.013	2.92
242.229	3.13
242.445	2.79
242.661	2.43
242.877	2.71
243.093	3.1
243.309	2.71
243.525	2.32
243.741	3.06
243.957	3.24
244.173	2.97
244.388	3.24
244.604	4.01
244.82	4.2
245.036	4.12
245.252	4.56
245.468	4.1
245.683	3.78
245.899	3.84
246.115	3.51
246.331	3.58
246.547	4.04
246.762	3.61
246.978	3.28
247.194	3.1
247.409	3.29
247.625	2.95
247.841	3.06
248.057	3.03
248.272	3.05
248.488	3.11
248.703	2.94
248.919	2.62
249.135	3.25
249.35	3.47
249.566	4.03
249.782	4.03
249.997	4.27
250.213	4.13
250.428	4.27
250.644	3.84
250.859	4
251.075	3.99
251.29	3.83
251.506	3.86
251.721	3.18
251.937	2.93
252.152	2.83
252.368	2.44
252.583	2.52
252.798	1.7
253.014	1.36
253.229	0.92
253.445	0.05
253.66	0.16
253.875	-1.28
254.091	-1.33
254.306	-1.97
254.521	-1.98
254.737	-1.95
254.952	-2.17
255.167	-1.29
255.383	-0.12
255.598	0.2
255.813	0.96
256.028	0.38
256.244	0.95
256.459	1.33
256.674	-0.06
256.889	0.06
257.104	0.09
257.32	0.64
257.535	0.3
257.75	0.47
257.965	0.54
258.18	1.32
258.395	1.85
258.61	1.99
258.826	1.87
259.041	2.35
259.256	2.51
259.471	2.65
259.686	2.55
259.901	2.84
260.116	2.76
260.331	2.95
260.546	2.61
260.761	2.54
260.976	2.66
261.191	2.66
261.406	3.08
261.621	3.31
261.836	3.33
262.05	3.2
262.265	3.42
262.48	3.76
262.695	3.45
262.91	3.4
263.125	3.16
263.34	2.97
263.555	3.07
263.769	2.63
263.984	1.75
264.199	1.53
264.414	1.15
264.629	1.31
264.843	0.75
265.058	0.97
265.273	1.66
265.488	1.8
265.702	1.49
265.917	1.5
266.132	1.18
266.346	1.1
266.561	1.3
266.776	1.83
266.99	1.42
267.205	1.55
267.42	1.36
267.634	1.13
267.849	1.59
268.063	1.81
268.278	1.59
268.492	1.76
268.707	1.72
268.922	1.67
269.136	1.35
269.351	1.62
269.565	1.74
269.78	1.75
269.994	1.62
270.209	1.08
270.423	0.97
270.637	1.48
270.852	1.21
271.066	1.67
271.281	1.88
271.495	2.01
271.709	1.86
271.924	1.51
272.138	1.52
272.353	1.68
272.567	1.82
272.781	1.78
272.996	1.68
273.21	2.29
273.424	2.16
273.638	1.73
273.853	1.56
274.067	1.62
274.281	1.84
274.495	1.93
274.71	1.58
274.924	1.62
275.138	1.29
275.352	1.18
275.566	0.77
275.781	0.78
275.995	1.13
276.209	1.32
276.423	1.02
276.637	0.97
276.851	0.6
277.065	0.84
277.279	0.89
277.493	1.29
277.707	1.64
277.921	1.08
278.135	1.06
278.349	1.16
278.563	0.68
278.777	0.82
278.991	0.9
279.205	1.22
279.419	1.12
279.633	0.71
279.847	0.86
280.061	0.54
280.275	1.02
280.489	1.33
280.703	0.81
280.917	1.21
281.131	1.15
281.344	1.37
281.558	1.19
281.772	1.36
281.986	1.67
282.2	1.61
282.414	1.94
282.627	1.82
282.841	1.72
283.055	1.79
283.269	1.76
283.482	2.22
283.696	2.04
283.91	2.31
284.123	2.22
284.337	2.3
284.551	2.15
284.764	1.86
284.978	1.87
285.192	1.79
285.405	1.81
285.619	1.81
285.833	1.63
286.046	1.48
286.26	1.4
286.473	1.51
286.687	1.2
286.9	1.37
287.114	1.46
287.327	1.47
287.541	1.36
287.754	1.81
287.968	1.57
288.181	1.64
288.395	2.09
288.608	2.36
288.822	2.35
289.035	2.89
289.248	2.8
289.462	2.77
289.675	2.84
289.889	3.15
290.102	2.9
290.315	3.32
290.529	3.12
290.742	2.87
290.955	2.86
291.169	2.69
291.382	2.53
291.595	2.67
291.808	2.84
292.022	2.93
292.235	2.96
292.448	3.07
292.661	3.04
292.875	3.1
293.088	3.3
293.301	3.41
293.514	3.85
293.727	3.68
293.94	3.65
294.153	3.14
294.367	2.94
294.58	2.99
294.793	3.14
295.006	3.01
295.219	3.14
295.432	2.96
295.645	2.94
295.858	3.06
296.071	3.25
296.284	3.6
296.497	4.04
296.71	4.03
296.923	3.83
297.136	3.9
297.349	4.09
297.562	4.17
297.775	4.37
297.988	4.31
298.201	4.36
298.414	4.48
298.626	4.31
298.839	4.28
299.052	4.89
299.265	5.17
299.478	5.42
299.691	5.6
299.903	5.72
300.116	5.73
300.329	6.12
300.542	6.05
300.755	6.19
300.967	6.29
301.18	6.27
301.393	5.96
301.605	5.92
301.818	5.65
302.031	5.65
302.243	5.89
302.456	6.13
302.669	5.87
302.881	6.17
303.094	5.93
303.307	5.95
303.519	6.24
303.732	6.43
303.944	6.57
304.157	6.92
304.37	7.09
304.582	7.01
304.795	7.1
305.007	7.33
305.22	7.1
305.432	7.24
305.645	7.33
305.857	7.48
306.069	7.81
306.282	7.91
306.494	7.68
306.707	7.51
306.919	7.86
307.132	7.87
307.344	7.78
307.556	8.11
307.769	8.52
307.981	8.58
308.193	8.14
308.406	7.84
308.618	7.69
308.83	7.94
309.043	7.88
309.255	7.71
309.467	7.46
309.679	7.54
309.892	7.5
310.104	7.18
310.316	7.28
310.528	7.54
310.74	7.58
310.953	7.7
311.165	7.57
311.377	7.57
311.589	7.49
311.801	7.51
312.013	7.73
312.225	7.53
312.437	7.74
312.649	7.89
312.862	7.83
313.074	7.66
313.286	7.54
313.498	7.64
313.71	7.77
313.922	7.57
314.134	7.49
314.346	7.11
314.558	7.34
314.77	7.06
314.982	6.65
315.193	6.59
315.405	6.69
315.617	6.76
315.829	6.44
316.041	6.29
316.253	6.41
316.465	6.84
316.677	6.87
316.888	6.67
317.1	6.89
317.312	6.9
317.524	7.12
317.736	7.24
317.947	7.26
318.159	7.57
318.371	7.69
318.583	7.57
318.794	7.34
319.006	7.42
319.218	7.31
319.43	7.05
319.641	7.41
319.853	7.17
320.064	7.62
320.276	7.67
320.488	7.54
320.699	7.58
320.911	7.88
321.123	8.41
321.334	8.71
321.546	8.78
321.757	9.44
321.969	9.22
322.18	8.97
322.392	8.43
322.603	8.39
322.815	8.38
323.026	8.28
323.238	8.18
323.449	7.95
323.661	7.57
323.872	7.79
324.083	6.77
324.295	7
324.506	7.2
324.718	7.33
324.929	7.55
325.14	7.47
325.352	7.75
325.563	7.87
325.774	7.92
325.986	8.13
326.197	8.27
326.408	8.82
326.62	8.92
326.831	9.08
327.042	8.97
327.253	9.08
327.464	9.31
327.676	9.35
327.887	9.48
328.098	9.3
328.309	9.24
328.52	9.05
328.732	9.32
328.943	9.08
329.154	8.99
329.365	9.07
329.576	9
329.787	9.08
329.998	9.2
330.209	8.65
330.42	9.17
330.631	9.36
330.842	9.68
331.053	9.7
331.264	9.56
331.475	10.14
331.686	10.34
331.897	9.79
332.108	10.04
332.319	10.05
332.53	10.34
332.741	9.91
332.952	9.7
333.163	9.47
333.374	9.4
333.585	9.49
333.795	9.09
334.006	9.12
334.217	9.41
334.428	8.66
334.639	8.59
334.849	8.56
335.06	8.48
335.271	8.55
335.482	8.78
335.692	8.45
335.903	8.42
336.114	8.48
336.325	8.36
336.535	8.48
336.746	8.81
336.957	8.45
337.167	8.52
337.378	8.71
337.589	8.64
337.799	8.59
338.01	8.79
338.22	8.63
338.431	8.62
338.642	8.59
338.852	8.69
339.063	8.82
339.273	9.08
339.484	9.54
339.694	9.71
339.905	9.97
340.115	9.55
340.326	9.57
340.536	10.15
340.746	10.1
340.957	10.44
341.167	10.15
341.378	10.03
341.588	9.99
341.799	9.8
342.009	9.75
342.219	9.43
342.43	9.73
342.64	9.91
342.85	9.54
343.061	9.49
343.271	8.88
343.481	9.21
343.691	9.23
343.902	9.43
344.112	9.2
344.322	9.21
344.532	9.47
344.743	9.32
344.953	9.14
345.163	9.33
345.373	9.43
345.583	9.36
345.793	9.48
346.004	9.75
346.214	9.53
346.424	9.37
346.634	9.09
346.844	8.88
347.054	9.06
347.264	9.48
347.474	9.41
347.684	9.5
347.894	10.03
348.104	9.66
348.314	9.4
348.524	9.29
348.734	9.39
348.944	9.33
349.154	9.74
349.364	9.58
349.574	9
349.784	9.04
349.994	8.99
350.204	9.04
350.413	9.11
350.623	9.06
350.833	9.05
351.043	8.94
351.253	9.16
351.463	8.91
351.672	9.05
351.882	9.3
352.092	9.47
352.302	9.38
352.511	9.2
352.721	9.23
352.931	9.18
353.141	9.55
353.35	9.59
353.56	9.51
353.77	9.65
353.979	9.64
354.189	9.66
354.399	9.33
354.608	9.5
354.818	9.36
355.027	9.23
355.237	9.4
355.447	9.3
355.656	9.26
355.866	9.12
356.075	8.9
356.285	8.96
356.494	9.01
356.704	9.02
356.913	8.82
357.123	8.97
357.332	8.97
357.542	8.94
357.751	8.67
357.96	8.72
358.17	8.9
358.379	8.87
358.589	9.02
358.798	9.06
359.007	9.1
359.217	9.02
359.426	8.96
359.635	8.99
359.845	9.06
360.054	9.23
360.263	9.27
360.472	9.16
360.682	9.33
360.891	9.28
361.1	9.06
361.309	9.04
361.519	9.18
361.728	9.09
361.937	9.09
362.146	8.98
362.355	8.93
362.564	8.94
362.774	8.92
362.983	8.74
363.192	8.66
363.401	8.67
363.61	8.65
363.819	8.65
364.028	8.71
364.237	8.7
364.446	8.69
364.655	8.56
364.864	8.43
365.073	8.57
365.282	8.6
365.491	8.3
365.7	8.41
365.909	8.46
366.118	8.31
366.327	8.11
366.536	8.03
366.745	8.06
366.954	7.96
367.162	7.86
367.371	7.73
367.58	7.69
367.789	7.91
367.998	7.74
368.207	7.76
368.415	7.7
368.624	7.69
368.833	7.65
369.042	7.53
369.25	7.9
369.459	7.93
369.668	7.68
369.877	7.54
370.085	7.19
370.294	7.12
370.503	6.97
370.711	7.05
370.92	7.28
371.129	7.34
371.337	7.23
371.546	7
371.754	7.16
371.963	7.43
372.171	7.48
372.38	7.73
372.589	7.59
372.797	7.4
373.006	7.27
373.214	7.24
373.423	7.3
373.631	7.3
373.84	6.99
374.048	6.89
374.256	6.77
374.465	6.77
374.673	6.44
374.882	6.47
375.09	6.49
375.298	6.54
375.507	6.38
375.715	6.14
375.923	6.17
376.132	6.44
376.34	6.32
376.548	6.31
376.757	6.45
376.965	6.44
377.173	6.46
377.381	6.37
377.59	6.26
377.798	6.06
378.006	6.18
378.214	5.91
378.423	5.99
378.631	6.18
378.839	6.28
379.047	6.11
379.255	6.17
379.463	6.17
379.671	6
379.879	5.85
380.088	6.1
380.296	6.09
380.504	6.25
380.712	5.99
380.92	5.86
381.128	5.69
381.336	5.46
381.544	5.45
381.752	5.5
381.96	5.54
382.168	5.72
382.376	5.58
382.584	5.22
382.791	5.14
382.999	5.15
383.207	4.84
383.415	4.79
383.623	4.85
383.831	4.7
384.039	4.47
384.247	4.6
384.454	4.61
384.662	4.72
384.87	4.74
385.078	4.85
385.285	4.78
385.493	5.07
385.701	4.88
385.909	4.82
386.116	4.92
386.324	5.26
386.532	5.15
386.739	5.07
386.947	5.17
387.155	5.3
387.362	5.07
387.57	4.99
387.778	4.8
387.985	5.05
388.193	5.06
388.4	5.02
388.608	4.78
388.816	4.86
389.023	4.73
389.231	4.43
389.438	4.42
389.646	4.58
389.853	4.52
390.061	4.63
390.268	4.47
390.475	4.62
390.683	4.64
390.89	4.74
391.098	4.73
391.305	4.91
391.512	4.94
391.72	4.92
391.927	4.79
392.135	5.01
392.342	5
392.549	5.05
392.756	4.78
392.964	4.69
393.171	4.43
393.378	4.32
393.586	4.32
393.793	4.41
394	4.29
394.207	4.41
394.414	4.4
394.622	4.38
394.829	4.31
395.036	4.46
395.243	4.45
395.45	4.66
395.657	4.91
395.864	4.81
396.072	4.82
396.279	4.89
396.486	4.77
396.693	4.69
396.9	4.57
397.107	4.67
397.314	4.62
397.521	4.8
397.728	4.78
397.935	4.65
398.142	4.61
398.349	4.41
398.556	4.63
398.763	4.66
398.97	4.59
399.177	4.74
399.383	4.54
399.59	4.53
399.797	4.3
400.004	4.39
400.211	4.29
400.418	4.27
400.625	4.46
400.831	4.21
401.038	4.35
401.245	4.44
401.452	4.45
401.658	4.47
401.865	4.42
402.072	4.6
402.279	4.49
402.485	4.52
402.692	4.47
402.899	4.26
403.105	4.44
403.312	4.26
403.519	4.11
403.725	3.9
403.932	4.01
404.138	4.1
404.345	3.98
404.552	3.89
404.758	3.94
404.965	4
405.171	4.05
405.378	4.05
405.584	4.22
405.791	4.27
405.997	4.33
406.204	4.27
406.41	4.18
406.617	4.28
406.823	4.28
407.029	4.05
407.236	4.11
407.442	4.22
407.649	4.06
407.855	3.93
408.061	4.02
408.268	4.06
408.474	4.23
408.68	4.34
408.887	4.33
409.093	4.41
409.299	4.63
409.505	4.47
409.712	4.36
409.918	4.33
410.124	4.44
410.33	4.39
410.537	4.4
410.743	4.19
410.949	4.19
411.155	4.11
411.361	4.11
411.567	4.02
411.773	4.04
411.98	4.09
412.186	3.94
412.392	3.83
412.598	3.85
412.804	3.78
413.01	3.94
413.216	3.94
413.422	4.08
413.628	4.12
413.834	4.2
414.04	4.32
414.246	4.33
414.452	4.48
414.658	4.56
414.864	4.51
415.07	4.46
415.275	4.4
415.481	4.19
415.687	4.13
415.893	4.09
416.099	4.09
416.305	4.04
416.511	3.98
416.716	4.02
416.922	4.03
417.128	4.06
417.334	4.15
417.539	4.11
417.745	4.24
417.951	4.17
418.157	4.2
418.362	4.12
418.568	4.04
418.774	4.16
418.979	4.12
419.185	4.09
419.391	4.17
419.596	4.15
419.802	4.23
420.008	4.19
420.213	4.19
420.419	4.18
420.624	4.21
420.83	4.29
421.035	4.24
421.241	4.31
421.446	4.32
421.652	4.2
421.857	4.14
422.063	4.1
422.268	4.12
422.474	4.16
422.679	4.13
422.885	4.13
423.09	4.14
423.295	4.14
423.501	4.07
423.706	4.07
423.911	4.17
424.117	4.25
424.322	4.28
424.527	4.3
424.733	4.31
424.938	4.3
425.143	4.33
425.349	4.29
425.554	4.33
425.759	4.33
425.964	4.26
426.169	4.17
426.375	4.1
426.58	4.04
426.785	4.04
426.99	3.97
427.195	4.02
427.4	4
427.605	3.99
427.811	4
428.016	4.03
428.221	4.05
428.426	4.12
428.631	4.13
428.836	4.17
429.041	4.1
429.246	4.22
429.451	4.2
429.656	4.17
429.861	4.22
430.066	3.98
430.271	3.92
430.476	3.96
430.681	3.97
430.886	4
431.09	4.07
431.295	4.22
431.5	4.16
431.705	4.1
431.91	4.05
432.115	4.01
432.32	4.11
432.524	4.1
432.729	4.05
432.934	3.98
433.139	3.94
433.343	3.9
433.548	3.86
433.753	3.81
433.958	3.85
434.162	3.79
434.367	3.82
434.572	3.85
434.776	3.93
434.981	3.99
435.186	4.09
435.39	4.12
435.595	4.03
435.799	3.97
436.004	4.07
436.209	4.09
436.413	4.17
436.618	4.19
436.822	4.18
437.027	4.08
437.231	4.04
437.436	3.95
437.64	3.87
437.845	3.98
438.049	3.89
438.253	3.84
438.458	3.78
438.662	3.81
438.867	3.81
439.071	3.79
439.275	3.87
439.48	3.94
439.684	3.99
439.888	4.07
440.093	4.08
440.297	4.12
440.501	4.14
440.706	4.2
440.91	4.22
441.114	4.15
441.318	4.17
441.523	4.13
441.727	4.11
441.931	4.04
442.135	4.06
442.339	4
442.543	4.06
442.748	4.01
442.952	3.97
443.156	3.92
443.36	3.92
443.564	3.98
443.768	3.98
443.972	3.99
444.176	4.04
444.38	4.03
444.584	3.98
444.788	4.04
444.992	4.06
445.196	4.01
445.4	4.07
445.604	4.09
445.808	4.04
446.012	4.1
446.216	4.09
446.42	4.05
446.624	4.04
446.828	4.09
447.032	4
447.235	4.04
447.439	4.07
447.643	4.07
447.847	4.06
448.051	4.08
448.254	4.03
448.458	4.01
448.662	4.03
448.866	4.01
449.069	3.99
449.273	3.96
449.477	3.95
449.681	4
449.884	4.07
450.088	4.17
450.292	4.06
450.495	4
450.699	3.91
450.902	3.92
451.106	3.94
451.31	3.89
451.513	3.91
451.717	3.85
451.92	3.72
452.124	3.65
452.327	3.65
452.531	3.76
452.734	3.82
452.938	4
453.141	3.99
453.345	3.96
453.548	4.05
453.752	4.11
453.955	4.24
454.158	4.34
454.362	4.21
454.565	4.05
454.769	3.89
454.972	3.92
455.175	3.81
455.379	3.82
455.582	3.89
455.785	3.92
455.988	3.85
456.192	3.83
456.395	3.9
456.598	4.01
456.801	4.19
457.005	4.34
457.208	4.33
457.411	4.36
457.614	4.38
457.817	4.32
458.021	4.32
458.224	4.39
458.427	4.18
458.63	4.16
458.833	4.12
459.036	4.04
459.239	4
459.442	3.99
459.645	3.96
459.848	3.89
460.051	3.84
460.254	3.83
460.457	3.77
460.66	3.8
460.863	3.75
461.066	3.76
461.269	3.8
461.472	3.82
461.675	3.82
461.878	3.92
462.081	3.99
462.284	4.06
462.486	4.01
462.689	4.06
462.892	4.21
463.095	4.21
463.298	4.21
463.5	4.02
463.703	4.11
463.906	4.11
464.109	4.02
464.311	4.06
464.514	3.98
464.717	4.07
464.92	4.05
465.122	4.02
465.325	4.02
465.528	4.13
465.73	4.32
465.933	4.22
466.135	4.15
466.338	4.16
466.541	4.13
466.743	4.17
466.946	4.08
467.148	4.11
467.351	4.05
467.553	4.2
467.756	4.2
467.958	4.12
468.161	4.15
468.363	4.22
468.566	4.19
468.768	4.16
468.971	4.15
469.173	4.27
469.375	4.24
469.578	4.28
469.78	4.03
469.983	3.95
470.185	3.95
470.387	3.98
470.59	3.94
470.792	3.96
470.994	4.02
471.196	4.06
471.399	3.93
471.601	3.96
471.803	3.95
472.005	4.07
472.208	4.03
472.41	4.15
472.612	4.1
472.814	4.13
473.016	4.09
473.218	4.01
473.421	4.04
473.623	4.1
473.825	4.09
474.027	4.12
474.229	4.05
474.431	4.07
474.633	4.01
474.835	4.05
475.037	4.08
475.239	4.16
475.441	4.23
475.643	4.19
475.845	4.18
476.047	4.16
476.249	4.12
476.451	4.24
476.653	4.31
476.855	4.3
477.057	4.23
477.258	4.13
477.46	4.1
477.662	4.15
477.864	4.12
478.066	4.11
478.268	4.03
478.469	4.11
478.671	4
478.873	3.95
479.075	3.94
479.276	3.89
479.478	4
479.68	4.04
479.882	3.95
480.083	3.95
480.285	3.99
480.487	4.09
480.688	4.06
480.89	4.06
481.091	4.07
481.293	4.13
481.495	4.2
481.696	4.08
481.898	4.04
482.099	4.05
482.301	4.09
482.502	4.13
482.704	4.11
482.905	4.08
483.107	4.08
483.308	4.06
483.51	4.06
483.711	4.07
483.913	4.12
484.114	4.13
484.315	4.13
484.517	4.1
484.718	4.05
484.92	4.05
485.121	4.06
485.322	4.06
485.524	4.07
485.725	4.09
485.926	4.04
486.127	4.01
486.329	4
486.53	4
486.731	4.01
486.932	4.04
487.134	4.01
487.335	4.05
487.536	4.04
487.737	4.03
487.938	3.97
488.139	3.97
488.341	4
488.542	4
488.743	3.99
488.944	4
489.145	3.96
489.346	3.97
489.547	3.91
489.748	3.93
489.949	3.91
490.15	3.96
490.351	3.95
490.552	3.94
490.753	3.98
490.954	4
491.155	4
491.356	4
491.557	4
491.758	4.01
491.959	4
492.159	4
492.36	3.96
492.561	3.97
492.762	3.95
492.963	3.88
493.164	3.87
493.364	3.88
493.565	3.93
493.766	3.98
493.967	4.04
494.167	4.05
494.368	4.11
494.569	4.14
494.769	4.17
494.97	4.22
495.171	4.27
495.371	4.27
495.572	4.2
495.773	4.15
495.973	4.07
496.174	4
496.375	4.07
496.575	4.08
496.776	4.14
496.976	4.12
497.177	4.18
497.377	4.23
497.578	4.27
497.778	4.35
497.979	4.42
498.179	4.43
498.38	4.46
498.58	4.45
498.78	4.46
498.981	4.45
499.181	4.58
499.382	4.59
499.582	4.5
499.782	4.54
499.983	4.55
500.183	4.55
500.383	4.57
500.584	4.6
500.784	4.63
500.984	4.65
501.184	4.6
501.385	4.54
501.585	4.45
501.785	4.57
501.985	4.55
502.185	4.52
502.386	4.52
502.586	4.64
502.786	4.67
502.986	4.68
503.186	4.6
503.386	4.69
503.586	4.74
503.786	4.85
503.987	4.82
504.187	4.83
504.387	4.84
504.587	4.91
504.787	4.93
504.987	4.97
505.187	5.01
505.387	5.05
505.587	5.02
505.786	5.05
505.986	5.11
506.186	5.23
506.386	5.34
506.586	5.43
506.786	5.42
506.986	5.32
507.186	5.28
507.386	5.35
507.585	5.47
507.785	5.52
507.985	5.52
508.185	5.44
508.384	5.41
508.584	5.41
508.784	5.36
508.984	5.39
509.183	5.52
509.383	5.62
509.583	5.63
509.782	5.6
509.982	5.63
510.182	5.65
510.381	5.7
510.581	5.74
510.781	5.77
510.98	5.9
511.18	5.94
511.379	5.96
511.579	6
511.778	5.98
511.978	6.01
512.177	6.06
512.377	6.16
512.576	6.26
512.776	6.32
512.975	6.4
513.175	6.45
513.374	6.49
513.573	6.51
513.773	6.54
513.972	6.67
514.172	6.77
514.371	6.8
514.57	6.82
514.77	6.98
514.969	7.05
515.168	7.04
515.367	7.12
515.567	7.21
515.766	7.33
515.965	7.44
516.164	7.55
516.364	7.65
516.563	7.85
516.762	7.94
516.961	7.91
517.16	7.98
517.359	8.09
517.559	8.1
517.758	8.25
517.957	8.32
518.156	8.35
518.355	8.4
518.554	8.42
518.753	8.42
518.952	8.47
519.151	8.6
519.35	8.63
519.549	8.66
519.748	8.77
519.947	8.8
520.146	8.84
520.345	8.94
520.544	9.06
520.743	9.24
520.942	9.39
521.141	9.48
521.339	9.53
521.538	9.74
521.737	9.87
521.936	9.97
522.135	10.06
522.333	10.19
522.532	10.28
522.731	10.43
522.93	10.5
523.129	10.51
523.327	10.64
523.526	10.79
523.725	10.83
523.923	11
524.122	11.09
524.321	11.22
524.519	11.36
524.718	11.43
524.917	11.41
525.115	11.51
525.314	11.64
525.512	11.76
525.711	11.81
525.909	11.92
526.108	11.96
526.306	12.11
526.505	12.23
526.703	12.34
526.902	12.53
527.1	12.68
527.299	12.79
527.497	12.9
527.696	12.99
527.894	13.1
528.092	13.17
528.291	13.27
528.489	13.35
528.688	13.4
528.886	13.47
529.084	13.5
529.283	13.55
529.481	13.62
529.679	13.71
529.877	13.74
530.076	13.83
530.274	13.93
530.472	14.05
530.67	14.16
530.869	14.3
531.067	14.46
531.265	14.63
531.463	14.75
531.661	14.91
531.859	15.03
532.057	15.23
532.255	15.34
532.454	15.48
532.652	15.59
532.85	15.66
533.048	15.7
533.246	15.76
533.444	15.79
533.642	15.9
533.84	15.96
534.038	16.02
534.236	16.04
534.434	16.13
534.632	16.22
534.83	16.34
535.027	16.45
535.225	16.61
535.423	16.71
535.621	16.85
535.819	16.98
536.017	17.09
536.215	17.24
536.412	17.41
536.61	17.45
536.808	17.53
537.006	17.59
537.203	17.69
537.401	17.77
537.599	17.86
537.797	18
537.994	18.05
538.192	18.15
538.39	18.21
538.587	18.29
538.785	18.48
538.983	18.57
539.18	18.66
539.378	18.76
539.575	18.93
539.773	19.08
539.97	19.21
540.168	19.33
540.366	19.46
540.563	19.56
540.761	19.64
540.958	19.69
541.155	19.77
541.353	19.87
541.55	19.87
541.748	19.93
541.945	19.98
542.143	20.02
542.34	20.05
542.537	20.08
542.735	20.11
542.932	20.16
543.129	20.22
543.327	20.28
543.524	20.27
543.721	20.38
543.919	20.42
544.116	20.52
544.313	20.58
544.51	20.67
544.708	20.77
544.905	20.85
545.102	20.95
545.299	21.01
545.496	21.08
545.693	21.23
545.891	21.32
546.088	21.41
546.285	21.42
546.482	21.47
546.679	21.45
546.876	21.5
547.073	21.53
547.27	21.63
547.467	21.67
547.664	21.64
547.861	21.68
548.058	21.72
548.255	21.73
548.452	21.75
548.649	21.75
548.846	21.81
549.043	21.79
549.24	21.85
549.437	21.78
549.633	21.79
549.83	21.95
550.027	21.92
550.224	21.95
550.421	21.95
550.618	22.03
550.814	22.13
551.011	22.23
551.208	22.3
551.405	22.37
551.601	22.47
551.798	22.55
551.995	22.52
552.191	22.5
552.388	22.6
552.585	22.71
552.781	22.75
552.978	22.72
553.175	22.75
553.371	22.78
553.568	22.85
553.764	22.84
553.961	22.84
554.157	22.87
554.354	23
554.55	23.04
554.747	23.11
554.943	23.05
555.14	23.06
555.336	23.16
555.533	23.16
555.729	23.1
555.926	23.14
556.122	23.25
556.318	23.27
556.515	23.22
556.711	23.22
556.907	23.1
557.104	23.24
557.3	23.37
557.496	23.4
557.693	23.52
557.889	23.6
558.085	23.52
558.281	23.48
558.478	23.49
558.674	23.6
558.87	23.6
559.066	23.8
559.262	23.72
559.459	23.64
559.655	23.61
559.851	23.52
560.047	23.45
560.243	23.63
560.439	23.63
560.635	23.66
560.831	23.6
561.027	23.68
561.223	23.53
561.419	23.64
561.615	23.67
561.811	23.75
562.007	23.7
562.203	23.8
562.399	23.74
562.595	23.8
562.791	23.9
562.987	23.91
563.183	23.88
563.379	24.07
563.575	24.04
563.771	24.18
563.966	24.16
564.162	24.3
564.358	24.33
564.554	24.3
564.75	24.28
564.945	24.39
565.141	24.46
565.337	24.47
565.533	24.37
565.728	24.38
565.924	24.28
566.12	24.28
566.315	24.3
566.511	24.35
566.707	24.52
566.902	24.55
567.098	24.52
567.293	24.55
567.489	24.61
567.684	24.61
567.88	24.65
568.076	24.72
568.271	24.67
568.467	24.69
568.662	24.66
568.858	24.6
569.053	24.57
569.248	24.54
569.444	24.58
569.639	24.65
569.835	24.7
570.03	24.68
570.225	24.72
570.421	24.84
570.616	24.85
570.812	24.87
571.007	24.85
571.202	24.93
571.397	24.98
571.593	24.87
571.788	24.95
571.983	25.05
572.178	25.1
572.374	25.2
572.569	25.2
572.764	25.2
572.959	25.16
573.154	25.22
573.35	25.25
573.545	25.2
573.74	25.23
573.935	25.16
574.13	25.09
574.325	25.14
574.52	25.09
574.715	25.13
574.91	25.2
575.105	25.25
575.3	25.29
575.495	25.33
575.69	25.43
575.885	25.64
576.08	25.65
576.275	25.73
576.47	25.73
576.665	25.7
576.86	25.72
577.055	25.8
577.25	25.79
577.444	25.83
577.639	25.83
577.834	25.78
578.029	25.77
578.224	25.84
578.418	25.8
578.613	25.8
578.808	25.98
579.003	25.98
579.197	25.83
579.392	25.86
579.587	25.78
579.781	25.66
579.976	25.7
580.171	25.49
580.365	25.52
580.56	25.54
580.755	25.53
580.949	25.46
581.144	25.51
581.338	25.63
581.533	25.65
581.727	25.78
581.922	25.87
582.116	25.89
582.311	26.2
582.505	26.19
582.7	26.31
582.894	26.3
583.089	26.34
583.283	26.32
583.478	26.27
583.672	26.42
583.866	26.25
584.061	26.31
584.255	26.39
584.449	26.22
584.644	26.14
584.838	26
585.032	26.11
585.226	26.07
585.421	26.13
585.615	26.18
585.809	26.19
586.003	26.39
586.198	26.37
586.392	26.41
586.586	26.56
586.78	26.67
586.974	26.73
587.168	26.85
587.363	26.79
587.557	26.8
587.751	26.9
587.945	26.92
588.139	26.82
588.333	26.94
588.527	26.89
588.721	26.8
588.915	26.78
589.109	26.85
589.303	26.72
589.497	26.91
589.691	26.84
589.885	26.82
590.079	26.74
590.273	26.79
590.466	26.79
590.66	26.77
590.854	26.92
591.048	26.93
591.242	26.84
591.436	26.99
591.629	27.02
591.823	27.06
592.017	27.14
592.211	27.3
592.404	27.22
592.598	27.25
592.792	27.4
592.986	27.33
593.179	27.33
593.373	27.48
593.567	27.33
593.76	27.21
593.954	27.17
594.147	27.13
594.341	27.07
594.535	27.3
594.728	27.34
594.922	27.3
595.115	27.3
595.309	27.35
595.502	27.35
595.696	27.52
595.889	27.59
596.083	27.86
596.276	27.97
596.47	27.94
596.663	27.9
596.856	27.88
597.05	27.87
597.243	27.91
597.437	27.9
597.63	27.94
597.823	27.89
598.017	27.8
598.21	27.59
598.403	27.39
598.596	27.47
598.79	27.4
598.983	27.33
599.176	27.34
599.369	27.27
599.563	27.15
599.756	27.14
599.949	27.09
600.142	27.2
600.335	27.23
600.528	27.44
600.722	27.4
600.915	27.51
601.108	27.53
601.301	27.54
601.494	27.65
601.687	27.81
601.88	27.81
602.073	27.87
602.266	27.92
602.459	27.99
602.652	28.06
602.845	28.07
603.038	28.11
603.231	28.11
603.424	28.15
603.617	28.19
603.809	28.2
604.002	28.14
604.195	28.25
604.388	28.17
604.581	28.18
604.774	28.07
604.966	28.08
605.159	28.16
605.352	28.3
605.545	28.29
605.737	28.22
605.93	28.27
606.123	28.27
606.316	28.1
606.508	28.19
606.701	28.18
606.894	28.28
607.086	28.2
607.279	28.17
607.471	28.13
607.664	28.34
607.857	28.48
608.049	28.52
608.242	28.76
608.434	28.99
608.627	29.23
608.819	29.49
609.012	29.59
609.204	30.14
609.397	30.33
609.589	30.74
609.782	31
609.974	31.27
610.166	31.59
610.359	31.85
610.551	32.13
610.743	32.27
610.936	32.41
611.128	32.68
611.32	32.59
611.513	32.56
611.705	32.33
611.897	32.2
612.09	32.16
612.282	32.09
612.474	32.13
612.666	31.93
612.858	31.86
613.051	31.83
613.243	31.56
613.435	31.38
613.627	31.53
613.819	31.59
614.011	31.51
614.203	31.37
614.395	31.2
614.588	30.84
614.78	30.59
614.972	30.44
615.164	30.25
615.356	30.21
615.548	30.13
615.74	29.87
615.932	29.86
616.124	29.63
616.315	29.6
616.507	29.56
616.699	29.47
616.891	29.63
617.083	29.45
617.275	29.28
617.467	29.04
617.659	29.06
617.85	28.94
618.042	28.91
618.234	28.93
618.426	28.78
618.618	28.73
618.809	28.78
619.001	28.58
619.193	28.56
619.384	28.55
619.576	28.72
619.768	28.68
619.959	28.62
620.151	28.38
620.343	28.48
620.534	28.56
620.726	28.59
620.917	28.54
621.109	28.59
621.301	28.68
621.492	28.63
621.684	28.83
621.875	28.71
622.067	28.75
622.258	28.87
622.45	28.93
622.641	28.91
622.832	28.93
623.024	29.04
623.215	29.35
623.407	29.44
623.598	29.74
623.789	29.64
623.981	29.7
624.172	29.85
624.363	29.87
624.555	29.72
624.746	29.82
624.937	29.76
625.129	29.83
625.32	29.78
625.511	29.82
625.702	29.72
625.893	29.69
626.085	29.73
626.276	29.68
626.467	29.77
626.658	29.77
626.849	29.75
627.04	29.86
627.231	29.75
627.422	29.71
627.614	29.45
627.805	29.47
627.996	29.45
628.187	29.55
628.378	29.63
628.569	29.6
628.76	29.78
628.951	29.75
629.142	29.54
629.332	29.71
629.523	29.7
629.714	30.07
629.905	30.08
630.096	30.21
630.287	30.19
630.478	30.17
630.669	30.12
630.859	29.84
631.05	29.86
631.241	30.06
631.432	29.91
631.623	30.02
631.813	29.77
632.004	29.8
632.195	29.64
632.385	29.65
632.576	29.43
632.767	29.45
632.957	29.47
633.148	29.38
633.339	29.33
633.529	29.38
633.72	29.19
633.91	29.31
634.101	29.23
634.292	29.22
634.482	29.17
634.673	29.3
634.863	29.15
635.054	29.34
635.244	29.3
635.435	29.15
635.625	29.08
635.815	29.07
636.006	28.89
636.196	28.87
636.387	28.93
636.577	28.89
636.767	28.84
636.958	28.9
637.148	28.85
637.338	28.71
637.529	28.86
637.719	28.98
637.909	28.94
638.099	29.01
638.29	28.91
638.48	28.94
638.67	28.86
638.86	28.92
639.05	29
639.241	29.03
639.431	29.24
639.621	29.16
639.811	29.04
640.001	29.1
640.191	29.38
640.381	29.59
640.571	29.42
640.761	29.36
640.951	29.29
641.141	29.3
641.331	29.25
641.521	29.03
641.711	29.15
641.901	29.16
642.091	29.14
642.281	28.95
642.471	28.77
642.661	28.94
642.851	29.22
643.041	29.27
643.231	29.06
643.42	28.98
643.61	29.31
643.8	29.22
643.99	29.34
644.18	29.44
644.369	29.32
644.559	29.68
644.749	29.61
644.939	29.56
645.128	29.55
645.318	29.61
645.508	29.64
645.697	29.45
645.887	29.56
646.076	29.4
646.266	29.42
646.456	29.54
646.645	29.4
646.835	29.5
647.024	29.49
647.214	29.5
647.403	29.57
647.593	29.69
647.782	29.89
647.972	29.7
648.161	29.83
648.351	29.83
648.54	30
648.73	29.88
648.919	29.79
649.108	29.89
649.298	29.92
649.487	29.93
649.677	30.05
649.866	29.93
650.055	30.14
650.244	30.05
650.434	29.98
650.623	29.74
650.812	29.81
651.002	29.87
651.191	29.85
651.38	29.79
651.569	29.84
651.758	29.7
651.947	29.8
652.137	29.97
652.326	30.14
652.515	30.14
652.704	30.07
652.893	30.04
653.082	30.14
653.271	30.01
653.46	29.93
653.649	29.92
653.838	30.02
654.027	29.91
654.216	29.54
654.405	29.6
654.594	29.58
654.783	29.78
654.972	29.77
655.161	29.79
655.35	29.76
655.539	29.9
655.728	29.9
655.916	29.71
656.105	29.86
656.294	30.2
656.483	30.01
656.672	30.14
656.86	30.07
657.049	29.96
657.238	29.92
657.427	29.76
657.615	29.81
657.804	29.88
657.993	30.03
658.181	30.1
658.37	29.91
658.559	29.83
658.747	29.87
658.936	29.72
659.125	29.92
659.313	29.73
659.502	29.8
659.69	29.73
659.879	29.6
660.067	29.53
660.256	29.35
660.444	29.42
660.633	29.51
660.821	29.47
661.01	29.59
661.198	29.4
661.387	29.66
661.575	29.76
661.763	29.75
661.952	29.86
662.14	29.71
662.328	29.77
662.517	29.65
662.705	29.78
662.893	29.52
663.082	29.47
663.27	29.66
663.458	29.56
663.646	29.71
663.834	29.64
664.023	29.58
664.211	29.69
664.399	29.8
664.587	30
664.775	29.93
664.963	30.14
665.152	30.29
665.34	30.26
665.528	30.25
665.716	30.28
665.904	30.66
666.092	30.66
666.28	30.59
666.468	30.56
666.656	30.46
666.844	30.4
667.032	30.5
667.22	30.55
667.408	30.36
667.596	30.21
667.784	30.08
667.971	29.83
668.159	30
668.347	30.24
668.535	30.33
668.723	30.26
668.911	30.26
669.098	30.19
669.286	30.16
669.474	30.24
669.662	30.22
669.849	30.13
670.037	30.34
670.225	30.07
670.413	29.61
670.6	29.49
670.788	29.76
670.976	29.91
671.163	29.77
671.351	29.61
671.538	29.91
671.726	30.23
671.913	30.37
672.101	30.11
672.289	30.23
672.476	30.48
672.664	30.61
672.851	30.16
673.039	30.18
673.226	30.22
673.413	30.45
673.601	29.94
673.788	30.01
673.976	29.87
674.163	29.92
674.35	29.98
674.538	30.26
674.725	30.14
674.912	30.34
675.1	30.21
675.287	30.1
675.474	30.01
675.662	30.37
675.849	30.11
676.036	30.22
676.223	30.26
676.411	30.4
676.598	30.35
676.785	30.49
676.972	30.58
677.159	30.59
677.346	30.42
677.533	30.63
677.721	30.34
677.908	30.39
678.095	30.26
678.282	30.45
678.469	30.42
678.656	30.3
678.843	30.13
679.03	30.32
679.217	30.16
679.404	30.33
679.591	30.1
679.778	30.28
679.964	30.25
680.151	30.38
680.338	30.09
680.525	30.03
680.712	30
680.899	30.13
681.086	30.02
681.272	30.13
681.459	30.33
681.646	30.28
681.833	30.28
682.02	30.33
682.206	30.19
682.393	30.39
682.58	30.58
682.766	30.71
682.953	30.79
683.14	30.8
683.326	30.65
683.513	30.84
683.7	31.08
683.886	30.91
684.073	31.02
684.259	31.03
684.446	31.28
684.632	30.68
684.819	30.91
685.005	30.87
685.192	30.8
685.378	31.07
685.565	30.95
685.751	30.84
685.938	30.88
686.124	30.87
686.31	31.1
686.497	30.82
686.683	31.05
686.87	30.81
687.056	30.65
687.242	30.68
687.429	30.48
687.615	30.53
687.801	30.71
687.987	30.84
688.174	30.63
688.36	30.75
688.546	30.9
688.732	31.14
688.918	31.08
689.105	30.96
689.291	30.95
689.477	31.24
689.663	30.98
689.849	30.74
690.035	30.9
690.221	31.13
690.407	31.11
690.593	30.81
690.779	30.66
690.965	31
691.151	30.97
691.337	31.02
691.523	30.81
691.709	30.89
691.895	30.83
692.081	30.54
692.267	30.54
692.453	30.32
692.639	30.57
692.825	30.43
693.011	30.06
693.196	30.31
693.382	30.13
693.568	30.37
693.754	30.42
693.94	30.31
694.125	30.56
694.311	30.25
694.497	30.2
694.682	30.27
694.868	30.56
695.054	30.67
695.239	30.65
695.425	30.74
695.611	30.79
695.796	30.72
695.982	31
696.168	30.99
696.353	31.14
696.539	31.06
696.724	30.84
696.91	30.88
697.095	30.71
697.281	30.68
697.466	30.55
697.652	30.4
697.837	30.47
698.023	30.54
698.208	30.4
698.393	30.31
698.579	30.53
698.764	30.71
698.949	30.61
699.135	30.54
699.32	30.6
699.505	30.86
699.691	30.93
699.876	30.82
700.061	30.93
700.246	31.17
700.432	31.22
700.617	31.12
700.802	31.02
700.987	31.17
701.172	31.05
701.358	30.76
701.543	30.59
701.728	30.13
701.913	30.12
702.098	29.88
702.283	29.91
702.468	29.97
702.653	29.77
702.838	29.64
703.023	29.8
703.208	30.35
703.393	30.79
703.578	30.96
703.763	31.37
703.948	31.31
704.133	31.5
704.318	31.1
704.503	31.25
704.688	31.66
704.873	31.65
705.057	31.57
705.242	31.61
705.427	31.7
705.612	31.47
705.797	31.76
705.981	31.82
706.166	31.78
706.351	32.13
706.536	32.42
706.72	32.1
706.905	32.42
707.09	32.52
707.274	32.4
707.459	32.38
707.644	32.45
707.828	32.41
708.013	32.59
708.197	32.52
708.382	32.63
708.567	32.34
708.751	32.48
708.936	32.4
709.12	32.24
709.305	32.2
709.489	31.78
709.673	31.91
709.858	31.61
710.042	31.81
710.227	31.53
710.411	31.53
710.596	31.74
710.78	31.98
710.964	31.88
711.149	32.34
711.333	32.58
711.517	32.9
711.702	32.81
711.886	32.94
712.07	32.62
712.254	33
712.438	32.76
712.623	32.39
712.807	32.32
712.991	32.45
713.175	31.81
713.359	31.76
713.544	31.45
713.728	31.29
713.912	31.2
714.096	31.28
714.28	31.06
714.464	31.01
714.648	31.1
714.832	30.99
715.016	31.09
715.2	31.18
715.384	30.87
715.568	31.08
715.752	31.22
715.936	31.22
716.12	31.49
716.304	31.24
716.488	31.39
716.671	31.3
716.855	31.07
717.039	30.91
717.223	30.93
717.407	30.96
717.59	31.19
717.774	31.16
717.958	31.53
718.142	31.24
718.325	31.61
718.509	31.57
718.693	31.55
718.877	31.48
719.06	31.41
719.244	31.15
719.428	31.22
719.611	30.8
719.795	30.66
719.978	30.22
720.162	30.64
720.345	30.61
720.529	30.69
720.713	30.48
720.896	30.39
721.08	30.05
721.263	30.28
721.446	30.52
721.63	30.87
721.813	30.98
721.997	30.92
722.18	30.53
722.364	30.58
722.547	30.74
722.73	31
722.914	31.56
723.097	31.71
723.28	31.4
723.464	31.01
723.647	30.51
723.83	30.6
724.013	30.6
724.197	30.35
724.38	30.06
724.563	29.99
724.746	29.96
724.929	29.56
725.112	29.24
725.296	29.64
725.479	29.83
725.662	29.94
725.845	29.58
726.028	29.19
726.211	29.43
726.394	29.75
726.577	29.53
726.76	29.95
726.943	30.14
727.126	30.71
727.309	30.56
727.492	30.3
727.675	30.59
727.858	30.76
728.041	30.89
728.224	31.05
728.407	30.7
728.589	31.03
728.772	30.67
728.955	30.98
729.138	30.93
729.321	30.92
729.503	31.07
729.686	30.87
729.869	31.01
730.052	31.29
730.234	30.94
730.417	31.49
730.6	31.02
730.782	30.96
730.965	30.11
731.148	30.23
731.33	30
731.513	30.09
731.695	29.96
731.878	30.05
732.061	30.24
732.243	30.41
732.426	30.19
732.608	30.33
732.791	30.62
732.973	31.43
733.156	30.93
733.338	31.12
733.52	31.33
733.703	31.45
733.885	30.99
734.068	30.97
734.25	30.77
734.432	30.15
734.615	30.25
734.797	30.04
734.979	29.79
735.162	29.87
735.344	29.8
735.526	29.83
735.708	29.81
735.891	30.45
736.073	30.12
736.255	30.77
736.437	31.72
736.619	31.73
736.802	31.29
736.984	31.38
737.166	31.68
737.348	31.96
737.53	31.65
737.712	31.55
737.894	31.06
738.076	31.12
738.258	30.52
738.44	29.49
738.622	29.16
738.804	29.42
738.986	29.18
739.168	28.99
739.35	28.9
739.532	28.74
739.714	28.62
739.896	28.51
740.078	28.83
740.259	29.09
740.441	29.73
740.623	30.33
740.805	30.52
740.987	30.54
741.168	30.54
741.35	30.43
741.532	30.57
741.714	30.8
741.895	31.02
742.077	30.39
742.259	30.55
742.44	31.04
742.622	30.73
742.804	30.92
742.985	30.95
743.167	31.4
743.348	31.41
743.53	31.59
743.711	31.8
743.893	31.95
744.075	32.23
744.256	32.57
744.438	32.03
744.619	31.61
744.8	31.62
744.982	31.77
745.163	31.21
745.345	31.68
745.526	31.52
745.707	31.15
745.889	31.21
746.07	30.98
746.252	30.35
746.433	30.88
746.614	31.45
746.795	30.96
746.977	30.99
747.158	31.43
747.339	31.03
747.52	31.01
747.702	31.25
747.883	31.15
748.064	31.21
748.245	30.71
748.426	29.95
748.607	29.61
748.788	29.95
748.97	29.85
749.151	29.63
749.332	29.56
749.513	29.87
749.694	29.61
749.875	29.64
750.056	29.39
750.237	29.67
750.418	30.02
750.599	29.65
750.78	29.41
750.96	29.11
751.141	29.09
751.322	29.56
751.503	29.4
751.684	30.04
751.865	29.64
752.046	30.41
752.226	30.66
752.407	30.78
752.588	31.03
752.769	31.72
752.949	31.92
753.13	32.18
753.311	32.02
753.492	32.21
753.672	31.49
753.853	31.8
754.034	31.99
754.214	31.53
754.395	31.15
754.575	31.49
754.756	31.36
754.937	31.19
755.117	31.28
755.298	30.61
755.478	30.54
755.659	30.22
755.839	30.17
756.02	29.23
756.2	29.57
756.381	30.14
756.561	29.99
756.741	29.34
756.922	29.07
757.102	29.24
757.283	29.4
757.463	29.14
757.643	29.6
757.823	30.32
758.004	31.17
758.184	31.5
758.364	31.4
758.545	31.6
758.725	31.58
758.905	31.93
759.085	31.47
759.265	31.91
759.446	32.13
759.626	31.59
759.806	31.26
759.986	31.33
760.166	30.88
760.346	30.04
760.526	29.91
760.706	30.25
760.886	30.03
761.066	30.12
761.246	29.97
761.426	29.48
761.606	30.21
761.786	29.99
761.966	30.05
762.146	30.75
762.326	31.6
762.506	31.41
762.686	31.42
762.866	31.68
763.046	31.49
763.225	31.48
763.405	31.83
763.585	31.49
763.765	31.86
763.945	31.78
764.124	31.37
764.304	30.95
764.484	31
764.664	31.22
764.843	31.22
765.023	31.38
765.203	31.38
765.382	31.19
765.562	31.32
765.741	30.9
765.921	30.99
766.101	31.12
766.28	30.74
766.46	30.71
766.639	30.2
766.819	30.29
766.998	30.35
767.178	30.12
767.357	30.1
767.537	30.6
767.716	30.91
767.896	30.81
768.075	30.62
768.254	31.57
768.434	31.83
768.613	31.44
768.792	31.08
768.972	30.89
769.151	31.19
769.33	30.95
769.51	30.14
769.689	29.85
769.868	29.43
770.047	29.27
770.226	28.87
770.406	29.4
770.585	30.29
770.764	30.71
770.943	30.49
771.122	30.04
771.301	30.89
771.48	31.65
771.66	32.05
771.839	31.71
772.018	31.75
772.197	31.86
772.376	31.45
772.555	31.77
772.734	31.43
772.913	31.69
773.092	32.25
773.271	31.49
773.449	30.33
773.628	30.21
773.807	31.17
773.986	31.63
774.165	30.5
774.344	30.24
774.523	28.95
774.701	28.88
774.88	28.7
775.059	28.26
775.238	28.11
775.417	29.51
775.595	28.94
775.774	28.04
775.953	27.14
776.131	28.69
776.31	28.26
776.489	29.01
776.667	28.55
776.846	28.91
777.025	29.45
777.203	29.17
777.382	29.83
777.56	29.81
777.739	29.86
777.917	30.78
778.096	30.46
778.274	30.81
778.453	30.33
778.631	30.7
778.81	30.51
778.988	30.29
779.166	31.24
779.345	30.32
779.523	30.46
779.702	30.82
779.88	29.98
780.058	29.6
780.237	29.95
780.415	30.48
780.593	31.19
780.771	31.61
780.95	31.99
781.128	31.74
781.306	31.98
781.484	31.89
781.662	32.21
781.841	31.68
782.019	32.14
782.197	32.52
782.375	31.95
782.553	30.66
782.731	30.58
782.909	29.54
783.087	29.5
783.265	29.07
783.443	29.4
783.621	29.1
783.799	30.52
783.977	30.1
784.155	29.71
784.333	30.52
784.511	31.62
784.689	31.84
784.867	32.07
785.045	31.88
785.223	31.23
785.4	31.65
785.578	31.07
785.756	30.77
785.934	31.18
786.112	30.62
786.289	28.74
786.467	28.25
786.645	26.63
786.823	26.47
787	27.24
787.178	28.3
787.356	27.02
787.533	27.21
787.711	26.62
787.889	26.23
788.066	26.49
788.244	27.76
788.421	28.29
788.599	28.94
788.776	29.19
788.954	28.68
789.131	28.21
789.309	28.47
789.486	28.87
789.664	29.12
789.841	29.16
790.019	28.31
790.196	28.32
790.373	27.4
790.551	27.77
790.728	28.16
790.906	28.11
791.083	29.33
791.26	29.65
791.437	29.54
791.615	30.07
791.792	30.49
791.969	30.74
792.146	30.56
792.324	31.72
792.501	31.77
792.678	32.2
792.855	31.88
793.032	30.69
793.209	29.74
793.387	30.01
793.564	29.85
793.741	29.45
793.918	30.22
794.095	30.49
794.272	30.09
794.449	29.68
794.626	29.32
794.803	30.45
794.98	30.78
795.157	31.79
795.334	30.98
795.511	30.79
795.688	30
795.864	30.64
796.041	29.89
796.218	29.9
796.395	29.23
796.572	28.66
796.749	28.7
796.925	28
797.102	26.81
797.279	28.17
797.456	28.08
797.632	29.15
797.809	28.51
797.986	28.62
798.162	28.15
798.339	29.68
798.516	29.95
798.692	28.9
798.869	29.09
799.046	30.1
799.222	29.27
799.399	29.4
799.575	29.06
799.752	28.64
799.928	29.64
800.105	29.6
800.281	28.76
800.458	28.81
800.634	30.08
800.811	30.22
800.987	29.97
801.163	29.5
801.34	30.02
801.516	30.49
801.692	30.51
801.869	30.24
802.045	30.45
802.221	30.93
802.398	30.84
802.574	29.11
802.75	28.79
802.926	28.93
803.103	29.08
803.279	27.87
803.455	27.17
803.631	27.45
803.807	27.73
803.983	27.62
804.16	26.58
804.336	26.89
804.512	28
804.688	28.83
804.864	29.19
805.04	28.87
805.216	28.96
805.392	28.63
805.568	28.8
805.744	27.5
805.92	27.66
806.096	28.05
806.272	27.37
806.448	27.16
806.623	26.28
806.799	25.16
806.975	26.36
807.151	26.49
807.327	26.71
807.503	26.03
807.678	25.78
807.854	25.41
808.03	25.96
808.206	27.24
808.381	25.9
808.557	24.74
808.733	25.46
808.908	24.89
809.084	25.24
809.26	24.93
809.435	24.22
809.611	25.63
809.787	26.37
809.962	25.57
810.138	24.55
810.313	25.39
810.489	26.54
810.664	26.66
810.84	27.55
811.015	28.61
811.191	29.42
811.366	30.66
811.542	30.18
811.717	29.54
811.892	29.48
812.068	30.1
812.243	30.24
812.419	31.25
812.594	31.4
812.769	29.65
812.944	28.82
813.12	28.54
813.295	28.11
813.47	27.43
813.645	27.39
813.821	27.95
813.996	26.45
814.171	26.9
814.346	26.21
814.521	26.72
814.697	29.11
814.872	27.16
815.047	27.16
815.222	27.07
815.397	25.83
815.572	26.55
815.747	25.78
815.922	26.91
816.097	28.42
816.272	29.41
816.447	28.58
816.622	27.72
816.797	29.34
816.972	28.46
817.147	30.04
817.322	31.72
817.496	30.92
817.671	32.05
817.846	31.91
818.021	30.46
818.196	29.26
818.371	28.4
818.545	27.27
818.72	26.88
818.895	28.69
819.069	27.53
819.244	27.16
819.419	28.26
819.594	27.95
819.768	26.99
819.943	26.86
820.117	27.05
820.292	27.63
820.467	28.25
820.641	28.52
820.816	28.2
820.99	28.53
821.165	28.95
821.339	28.66
821.514	28.91
821.688	29.19
821.863	29.26
822.037	29.54
822.212	29.55
822.386	29.82
822.56	29.77
822.735	29.89
822.909	29.75
823.084	29.66
823.258	29.68
823.432	29.37
823.606	29.27
823.781	29.27
823.955	28.88
824.129	28.97
824.303	28.5
824.478	28.3
824.652	27.7
824.826	28.22
825	27.89
825.174	27.69
825.348	28.08
825.523	28.38
825.697	28.73
825.871	29.02
826.045	29.45
826.219	29.31
826.393	29.55
826.567	29.56
826.741	28.93
826.915	29.12
827.089	29.55
827.263	29.39
827.437	29.3
827.611	28.55
827.784	28.6
827.958	27.94
828.132	27.97
828.306	27.97
828.48	28.02
828.654	27.84
828.827	27.38
829.001	26.75
829.175	26.61
829.349	26.38
829.522	27
829.696	26.73
829.87	26.28
830.044	26.34
830.217	25.92
830.391	26.26
830.565	27.56
830.738	27.42
830.912	27.07
831.085	27.41
831.259	27.47
831.432	26.46
831.606	26.83
831.779	26.54
831.953	27.41
832.126	27.7
832.3	27.64
832.473	25.88
832.647	26.22
832.82	26.81
832.994	26.62
833.167	26.46
833.34	27.08
833.514	26.85
833.687	27.12
833.86	26.87
834.034	27.51
834.207	27.99
834.38	28.54
834.553	29.08
834.727	29.24
834.9	29.59
835.073	29.08
835.246	28.8
835.419	28.81
835.593	28.69
835.766	28.37
835.939	27.73
836.112	27.54
836.285	26.81
836.458	27.13
836.631	27.36
836.804	26.51
836.977	28.08
837.15	28.41
837.323	28.96
837.496	29.6
837.669	29.56
837.842	28.3
838.015	27.52
838.188	26.76
838.361	26.84
838.533	25.36
838.706	25.07
838.879	24.42
839.052	24.77
839.225	24.02
839.398	24.87
839.57	25.27
839.743	26.62
839.916	27.02
840.088	28.64
840.261	28.35
840.434	30.19
840.607	30.44
840.779	30.41
840.952	29.61
841.124	29.78
841.297	30.79
841.47	29.66
841.642	28.81
841.815	29.34
841.987	29.78
842.16	28.44
842.332	27.22
842.505	27.63
842.677	27.2
842.85	25.13
843.022	26.17
843.194	24.69
843.367	25.8
843.539	27.37
843.712	27.22
843.884	27.19
844.056	28.81
844.229	27.42
844.401	27.36
844.573	29.25
844.745	30.22
844.918	27.4
845.09	24.57
845.262	24.42
845.434	22.95
845.606	23.16
845.779	19.83
845.951	19.73
846.123	18.36
846.295	16.45
846.467	13.81
846.639	16.17
846.811	14.9
846.983	17.53
847.155	18.21
847.327	18.42
847.499	16.82
847.671	18.57
847.843	18.44
848.015	21.25
848.187	19.55
848.359	20.32
848.531	18.84
848.703	20.46
848.875	19.75
849.047	20.28
849.218	19.96
849.39	15
849.562	14.67
849.734	13.86
849.905	13.08
850.077	17.6
850.249	14.35
850.421	16.09
850.592	14.26
850.764	17.73
850.936	12.58
851.107	11.44
851.279	18.6
851.451	18.19
851.622	17.8
851.794	19.8
851.965	19.82
852.137	20.86
852.308	22.11
852.48	26.44
852.651	26.47
852.823	29.19
852.994	26.24
853.166	23.89
853.337	26.67
853.509	25.85
853.68	23.96
853.851	21.66
854.023	26.55
854.194	29.12
854.365	27.31
854.537	27.01
854.708	29.33
854.879	33.86
855.05	36.13
855.222	34.32
855.393	33.88
855.564	34.9
855.735	37.13
855.906	34.43
856.078	29.9
856.249	28.93
856.42	26.23
856.591	23.59
856.762	23.2
856.933	22.2
857.104	23.29
857.275	21.39
857.446	20.49
857.617	20.31
857.788	18.21
857.959	19.61
858.13	22.42
858.301	24.99
858.472	25.61
858.643	26.72
858.814	24.62
858.985	25.79
859.155	27.21
859.326	28.51
859.497	27.58
859.668	27.5
859.839	25.57
860.009	23.01
860.18	21.58
860.351	19
860.522	17.75
860.692	19.78
860.863	14.92
861.034	21
861.204	19.73
861.375	19.86
861.546	20.91
861.716	19.5
861.887	21.43
862.057	19.82
862.228	18.58
862.398	18.9
862.569	21.67
862.739	21.49
862.91	14.95
863.08	13.1
863.251	12.53
863.421	11.4
863.592	9.83
863.762	10.02
863.932	15.54
864.103	20.9
864.273	20.17
864.443	20.35
864.614	19.87
864.784	20.24
864.954	18.67
865.125	22.26
865.295	21.17
865.465	25.57
865.635	24.3
865.805	18.56
865.976	16.96
866.146	18.29
866.316	15.28
866.486	19.7
866.656	20.34
866.826	23.86
866.996	19.69
867.166	23.14
867.336	21.39
867.506	23.14
867.676	22.8
867.846	20.07
868.016	20.65
868.186	22.47
868.356	15.98
868.526	15.19
868.696	17.55
868.866	18.72
869.036	15.87
869.206	20.04
869.376	19.08
869.545	21.36
869.715	26.22
869.885	23.91
870.055	21.68
870.224	26.64
870.394	30.72
870.564	33.05
870.734	30.62
870.903	30.91
871.073	26.4
871.243	28.82
871.412	29.31
871.582	26.7
871.751	24.2
871.921	25.24
872.091	22.13
872.26	21.85
872.43	16.11
872.599	22.16
872.769	20.36
872.938	21.8
873.108	20.84
873.277	19.88
873.446	20.08
873.616	21.82
873.785	19.25
873.955	19.53
874.124	18.26
874.293	18.45
874.463	14.78
874.632	15.65
874.801	17.37
874.971	21.15
875.14	18.62
875.309	18.62
875.478	20.71
875.647	20.83
875.817	19.62
875.986	17.65
876.155	22.11
876.324	21.59
876.493	22.29
876.662	20.16
876.831	14.05
877	16.81
877.17	16.49
877.339	14.85
877.508	15.17
877.677	18.05
877.846	20.52
878.015	17.09
878.184	19.25
878.352	19.56
878.521	19.78
878.69	19.78
878.859	20.81
879.028	22.08
879.197	24.09
879.366	25.7
879.534	25.25
879.703	24.74
879.872	26.68
880.041	25.37
880.21	25.48
880.378	26.35
880.547	27.71
880.716	28.07
880.884	27.38
881.053	27.34
881.222	26.71
881.39	27.15
881.559	26.66
881.727	26.52
881.896	26.79
882.065	27.78
882.233	27.65
882.402	27.79
882.57	27.61
882.739	27.24
882.907	26.83
883.076	27.19
883.244	26.67
883.412	26.57
883.581	26.05
883.749	25.52
883.918	24.77
884.086	25.15
884.254	24.78
884.423	24.71
884.591	24.95
884.759	23.8
884.927	23.06
885.096	23.68
885.264	23.52
885.432	23.13
885.6	23.14
885.769	21.96
885.937	20.89
886.105	21.44
886.273	20.2
886.441	20.49
886.609	24.82
886.777	24.89
886.945	22.21
887.113	22.2
887.281	24.57
887.449	26.96
887.617	26.31
887.785	24.97
887.953	20.1
888.121	19.29
888.289	20.3
888.457	16.46
888.625	14.79
888.793	14.51
888.961	13.78
889.129	9.82
889.296	6.98
889.464	6.46
889.632	6.61
889.8	8.5
889.967	9
890.135	3.36
