Data from 2938844__Reflection_03.txt Node
Date: Wed Mar 11 14:28:33 EDT 2015
User: robert
Spectrometer: USB4E03002
Autoset integration time: false
Trigger mode: 4
Integration Time (sec): 1.000000E-1
Scans to average: 10
Electric dark correction enabled: false
Nonlinearity correction enabled: false
Boxcar width: 5
Stray light correction enabled: false
XAxis mode: Wavelengths
Stop averaging: false
Number of Pixels in Spectrum: 3648
>>>>>Begin Spectral Data<<<<<
177.575	78.05
177.794	115.51
178.014	193.41
178.233	198.73
178.452	205
178.672	162.65
178.891	125.5
179.11	127.72
179.33	129.39
179.549	88.33
179.768	59.94
179.987	52.31
180.207	67.98
180.426	71.15
180.645	99.74
180.864	86.52
181.084	59.87
181.303	49.72
181.522	21.63
181.741	43.43
181.96	50.49
182.179	44.55
182.398	75.5
182.618	64.67
182.837	37.84
183.056	30.85
183.275	-35.19
183.494	-22.49
183.713	8.85
183.932	-18.18
184.151	-18.33
184.37	-2.4
184.589	19.78
184.808	-12.14
185.027	-20.69
185.246	20.93
185.465	-22.35
185.684	42.56
185.903	7.61
186.122	-4.49
186.341	41.56
186.56	21.45
186.779	30.16
186.998	-49.3
187.216	10
187.435	1.42
187.654	14.73
187.873	20.19
188.092	10.91
188.311	25.55
188.53	9.84
188.748	-23.31
188.967	5.96
189.186	-12.18
189.405	16.79
189.623	14.5
189.842	-27.31
190.061	-360.98
190.28	-470.21
190.498	891.78
190.717	-1750
190.936	-517.07
191.154	6820
191.373	-241.3
191.592	-130.48
191.81	-200.98
192.029	623.91
192.248	-26.28
192.466	172.02
192.685	130.97
192.904	128.49
193.122	99.12
193.341	116.95
193.559	116.29
193.778	127.95
193.996	153.5
194.215	107.58
194.433	97.57
194.652	69.67
194.87	47.27
195.089	47.07
195.307	50.93
195.526	49.35
195.744	30.82
195.963	8.53
196.181	-15.79
196.399	-26.28
196.618	-61.26
196.836	-119.05
197.055	-20.47
197.273	-38.92
197.491	-87.08
197.71	-148
197.928	-94.43
198.146	-97.84
198.365	-87.77
198.583	-91.08
198.801	-56.54
199.019	-52.44
199.238	-9.49
199.456	-26.82
199.674	3.54
199.892	15.48
200.111	16.47
200.329	25.86
200.547	53.91
200.765	36.15
200.983	26.07
201.202	29.62
201.42	36.66
201.638	21.21
201.856	18.52
202.074	-14.03
202.292	-22.02
202.51	-28.57
202.728	-47.15
202.946	-53.58
203.165	-29.98
203.383	-18.79
203.601	-17.73
203.819	-21.66
204.037	-17.78
204.255	-15.15
204.473	0.68
204.691	2.92
204.909	4.97
205.127	-0.62
205.345	-3.33
205.562	-6.47
205.78	-20.46
205.998	-46.09
206.216	-32.78
206.434	-26.91
206.652	-23.09
206.87	-22.52
207.088	-31.2
207.306	-39.33
207.523	-25.25
207.741	-36.85
207.959	-42.3
208.177	-41.98
208.395	-16.15
208.612	-29.94
208.83	-44.42
209.048	-54.72
209.266	-79.43
209.483	-53.16
209.701	-59.35
209.919	-62.06
210.136	-77.4
210.354	-72.95
210.572	-13.91
210.79	-8.99
211.007	-1.82
211.225	-7.17
211.442	-4.01
211.66	6.62
211.878	22.12
212.095	27.73
212.313	10.74
212.53	20.03
212.748	38.19
212.966	23.64
213.183	12.38
213.401	18.72
213.618	20.87
213.836	16.34
214.053	2.63
214.271	-7.14
214.488	-14.52
214.705	4.22
214.923	8.56
215.14	-0.89
215.358	10.84
215.575	11.55
215.793	8.54
216.01	15.43
216.227	20.31
216.445	15.59
216.662	21.15
216.879	26.57
217.097	20.3
217.314	13.54
217.531	13.31
217.749	0.96
217.966	-1.29
218.183	0.47
218.4	3.56
218.618	4.45
218.835	14.9
219.052	14.2
219.269	16.39
219.487	15.38
219.704	13
219.921	10.08
220.138	5.72
220.355	1.57
220.572	2.58
220.79	-4.86
221.007	-12.39
221.224	-21.94
221.441	-21.72
221.658	-18.04
221.875	-13.27
222.092	-7.77
222.309	-6.86
222.526	-10.36
222.743	-0.23
222.96	4.67
223.177	1.79
223.394	4.72
223.611	8.18
223.828	4.43
224.045	0.52
224.262	-1.11
224.479	-2.06
224.696	-4.31
224.913	1.19
225.13	1.56
225.347	-3.41
225.564	1.19
225.781	-0.87
225.997	1.42
226.214	1.02
226.431	2.98
226.648	5.68
226.865	7.64
227.082	8.74
227.298	7.59
227.515	6.38
227.732	7.13
227.949	6.04
228.165	6.62
228.382	6.17
228.599	6.61
228.816	6.52
229.032	5.11
229.249	4.54
229.466	4.49
229.682	4.51
229.899	4.66
230.116	3.76
230.332	4.17
230.549	4.38
230.765	4.06
230.982	4.4
231.199	3.35
231.415	3.76
231.632	3.69
231.848	2.58
232.065	2.08
232.281	1.89
232.498	3.12
232.714	2.52
232.931	1.18
233.147	2.62
233.364	3.7
233.58	6.25
233.797	6.54
234.013	6.15
234.23	6.32
234.446	6.77
234.662	7.07
234.879	6.34
235.095	7.28
235.312	8.42
235.528	6.51
235.744	5.73
235.961	5.44
236.177	6.24
236.393	7.38
236.61	7.65
236.826	7.62
237.042	7.36
237.258	7.32
237.475	6.8
237.691	6.91
237.907	7.25
238.123	7.01
238.339	6.26
238.556	5.75
238.772	6.61
238.988	7.73
239.204	8.03
239.42	7.62
239.636	7.25
239.853	6.56
240.069	5.81
240.285	5.63
240.501	5.21
240.717	5.04
240.933	4.94
241.149	4.94
241.365	4.78
241.581	4.77
241.797	4.86
242.013	5.43
242.229	5.87
242.445	6.08
242.661	6.28
242.877	6.26
243.093	6.35
243.309	6.34
243.525	5.84
243.741	5.15
243.957	5.01
244.173	4.73
244.388	4.59
244.604	3.64
244.82	4.06
245.036	4.4
245.252	4.69
245.468	4.45
245.683	4.52
245.899	4.53
246.115	4.84
246.331	5.03
246.547	5.19
246.762	5.37
246.978	5.55
247.194	5.12
247.409	5.14
247.625	5.2
247.841	5.21
248.057	5.38
248.272	5.45
248.488	5.41
248.703	5.52
248.919	5.61
249.135	5.1
249.35	5.28
249.566	5.69
249.782	5.67
249.997	5.7
250.213	6.31
250.428	6.4
250.644	6.56
250.859	7.2
251.075	6.31
251.29	6.1
251.506	6.17
251.721	6.08
251.937	5.35
252.152	5.9
252.368	5.73
252.583	5.37
252.798	5.24
253.014	4.31
253.229	4.42
253.445	5.49
253.66	6.12
253.875	6.36
254.091	6.64
254.306	7.15
254.521	6.37
254.737	6.29
254.952	6.79
255.167	6.53
255.383	7.57
255.598	6.56
255.813	6.07
256.028	5.23
256.244	5.49
256.459	5.32
256.674	5.1
256.889	5.11
257.104	5.74
257.32	5.31
257.535	5.41
257.75	5.72
257.965	6.08
258.18	5.76
258.395	5.44
258.61	4.98
258.826	4.64
259.041	4.68
259.256	4.56
259.471	4.4
259.686	4.41
259.901	4.32
260.116	4.03
260.331	3.92
260.546	3.92
260.761	4.19
260.976	4.17
261.191	4.37
261.406	4.42
261.621	4.28
261.836	4.05
262.05	3.78
262.265	3.78
262.48	3.89
262.695	3.43
262.91	3.39
263.125	2.83
263.34	2.92
263.555	2.64
263.769	3.11
263.984	3.25
264.199	3.5
264.414	4.09
264.629	4.15
264.843	4.18
265.058	4.97
265.273	4.66
265.488	4.62
265.702	4.2
265.917	4.23
266.132	3.1
266.346	3.47
266.561	3.61
266.776	3.2
266.99	3.25
267.205	3.21
267.42	2.82
267.634	2.84
267.849	2.72
268.063	2.79
268.278	3.04
268.492	3.54
268.707	3.18
268.922	2.68
269.136	2.93
269.351	2.68
269.565	3.16
269.78	3.24
269.994	3.29
270.209	3.94
270.423	4.39
270.637	3.75
270.852	3.61
271.066	3.96
271.281	4.1
271.495	3.95
271.709	4.35
271.924	4.11
272.138	4.12
272.353	4.22
272.567	3.93
272.781	3.71
272.996	4.13
273.21	4.57
273.424	4.19
273.638	4.35
273.853	4.41
274.067	3.83
274.281	3.39
274.495	3.43
274.71	3.6
274.924	3.41
275.138	3.34
275.352	3.39
275.566	3.06
275.781	3.23
275.995	3.1
276.209	3.18
276.423	3.49
276.637	3.58
276.851	3.79
277.065	3.64
277.279	3.82
277.493	4.01
277.707	3.78
277.921	3.56
278.135	3.73
278.349	3.62
278.563	3.34
278.777	3.18
278.991	3.53
279.205	3.39
279.419	3.33
279.633	3.04
279.847	2.83
280.061	3.27
280.275	3.34
280.489	3.35
280.703	3.42
280.917	3.5
281.131	3.35
281.344	3.31
281.558	3.42
281.772	2.98
281.986	3.29
282.2	3.31
282.414	2.98
282.627	3.42
282.841	2.94
283.055	2.95
283.269	2.8
283.482	3.13
283.696	3.11
283.91	3.02
284.123	3.3
284.337	3.32
284.551	3.51
284.764	3.45
284.978	2.91
285.192	3.27
285.405	3.34
285.619	3.2
285.833	3.21
286.046	3.16
286.26	3.19
286.473	3.27
286.687	3.13
286.9	3.22
287.114	3.27
287.327	3.46
287.541	3.62
287.754	3.49
287.968	3.78
288.181	3.65
288.395	3.59
288.608	3.59
288.822	3.54
289.035	3.3
289.248	3.38
289.462	3.54
289.675	3.45
289.889	2.86
290.102	2.88
290.315	3.14
290.529	3.25
290.742	3.38
290.955	3.22
291.169	2.99
291.382	3.03
291.595	2.75
291.808	2.76
292.022	2.8
292.235	3.01
292.448	2.96
292.661	2.88
292.875	2.9
293.088	2.8
293.301	3.07
293.514	3.45
293.727	3.95
293.94	4.14
294.153	3.88
294.367	4.16
294.58	4.51
294.793	4.71
295.006	4.55
295.219	4.59
295.432	4.89
295.645	4.85
295.858	4.5
296.071	4.37
296.284	4.22
296.497	4.32
296.71	4.39
296.923	4.2
297.136	4.12
297.349	4.12
297.562	4.09
297.775	3.93
297.988	3.88
298.201	4.1
298.414	3.96
298.626	3.96
298.839	3.9
299.052	3.76
299.265	3.72
299.478	3.53
299.691	3.43
299.903	3.09
300.116	2.92
300.329	2.94
300.542	3.16
300.755	3.09
300.967	3.04
301.18	2.88
301.393	2.85
301.605	2.92
301.818	3.03
302.031	3.25
302.243	3.46
302.456	3.82
302.669	3.65
302.881	3.88
303.094	4.21
303.307	4.37
303.519	4.51
303.732	4.38
303.944	4.28
304.157	4.28
304.37	4.02
304.582	3.96
304.795	4.04
305.007	4.29
305.22	3.9
305.432	3.76
305.645	3.61
305.857	3.45
306.069	3.24
306.282	3.4
306.494	3.59
306.707	3.86
306.919	3.94
307.132	3.79
307.344	3.67
307.556	3.58
307.769	3.43
307.981	3.69
308.193	3.92
308.406	3.96
308.618	4.27
308.83	4.41
309.043	4.6
309.255	4.57
309.467	4.33
309.679	4.41
309.892	4.64
310.104	4.63
310.316	4.38
310.528	4.41
310.74	4.68
310.953	4.61
311.165	4.52
311.377	4.38
311.589	4.52
311.801	4.81
312.013	4.72
312.225	4.61
312.437	4.79
312.649	4.88
312.862	4.61
313.074	4.58
313.286	4.47
313.498	4.56
313.71	4.65
313.922	4.51
314.134	4.45
314.346	4.46
314.558	4.31
314.77	4.19
314.982	4.64
315.193	4.82
315.405	4.89
315.617	5.13
315.829	4.78
316.041	5.05
316.253	5.2
316.465	5.2
316.677	5.29
316.888	5.52
317.1	5.77
317.312	5.62
317.524	6.23
317.736	5.9
317.947	5.52
318.159	5.85
318.371	5.3
318.583	5.25
318.794	5.47
319.006	5.78
319.218	6.03
319.43	5.95
319.641	5.99
319.853	5.65
320.064	6.13
320.276	6.51
320.488	6.67
320.699	6.92
320.911	7.33
321.123	7.13
321.334	6.81
321.546	6.44
321.757	6.35
321.969	6.49
322.18	6.75
322.392	6.98
322.603	7.01
322.815	7.05
323.026	7.28
323.238	7.05
323.449	7.14
323.661	7.11
323.872	7.34
324.083	7.33
324.295	7.16
324.506	6.98
324.718	6.17
324.929	5.92
325.14	5.89
325.352	5.69
325.563	5.47
325.774	5.62
325.986	5.86
326.197	6.16
326.408	6.33
326.62	6.44
326.831	6.72
327.042	7.23
327.253	7.33
327.464	7.33
327.676	7.49
327.887	7.82
328.098	7.63
328.309	7.68
328.52	7.56
328.732	7.61
328.943	7.84
329.154	7.27
329.365	7.44
329.576	7.61
329.787	7.62
329.998	7.53
330.209	7.79
330.42	7.94
330.631	7.88
330.842	7.83
331.053	7.83
331.264	7.94
331.475	8.74
331.686	8.87
331.897	8.96
332.108	8.97
332.319	9.13
332.53	9.22
332.741	9.38
332.952	9.86
333.163	9.72
333.374	9.76
333.585	9.68
333.795	9.32
334.006	9.34
334.217	9.19
334.428	9.43
334.639	9.53
334.849	9.48
335.06	9.61
335.271	9.19
335.482	9.36
335.692	9.66
335.903	9.71
336.114	9.79
336.325	9.86
336.535	9.92
336.746	9.96
336.957	9.68
337.167	9.46
337.378	9
337.589	8.88
337.799	8.98
338.01	8.48
338.22	8.19
338.431	8.17
338.642	7.96
338.852	8.02
339.063	8.04
339.273	7.96
339.484	7.98
339.694	8.58
339.905	8.44
340.115	8.26
340.326	8.42
340.536	8.43
340.746	8.09
340.957	7.67
341.167	7.69
341.378	7.51
341.588	7.27
341.799	7.08
342.009	6.78
342.219	6.75
342.43	6.86
342.64	6.86
342.85	6.98
343.061	7.38
343.271	8.14
343.481	8.3
343.691	8.45
343.902	8.9
344.112	9.28
344.322	9.32
344.532	9.31
344.743	9.31
344.953	9.34
345.163	9.04
345.373	8.87
345.583	8.53
345.793	8.56
346.004	8.27
346.214	8.22
346.424	7.95
346.634	7.49
346.844	7.8
347.054	7.69
347.264	7.65
347.474	7.84
347.684	7.72
347.894	7.84
348.104	7.85
348.314	7.79
348.524	7.73
348.734	7.73
348.944	8.24
349.154	8.22
349.364	8.24
349.574	8.42
349.784	8.4
349.994	8.47
350.204	8.56
350.413	8.3
350.623	8.58
350.833	8.5
351.043	8.7
351.253	8.87
351.463	9.03
351.672	9
351.882	8.92
352.092	9.03
352.302	9.17
352.511	8.89
352.721	8.75
352.931	8.79
353.141	8.95
353.35	8.91
353.56	8.8
353.77	8.61
353.979	8.71
354.189	8.69
354.399	8.86
354.608	9
354.818	8.87
355.027	9.12
355.237	8.9
355.447	8.67
355.656	8.41
355.866	8.23
356.075	8.15
356.285	7.93
356.494	7.82
356.704	7.58
356.913	7.48
357.123	7.6
357.332	7.49
357.542	7.57
357.751	7.66
357.96	7.61
358.17	7.75
358.379	7.79
358.589	7.76
358.798	8.01
359.007	8.31
359.217	8.22
359.426	8.31
359.635	8.34
359.845	8.16
360.054	8.19
360.263	8.31
360.472	8.07
360.682	8.08
360.891	8.07
361.1	7.99
361.309	7.84
361.519	7.76
361.728	7.72
361.937	7.77
362.146	7.82
362.355	7.72
362.564	7.87
362.774	7.9
362.983	8.08
363.192	8.21
363.401	8.17
363.61	8.16
363.819	8.39
364.028	8.26
364.237	8.18
364.446	8.19
364.655	8.3
364.864	8.13
365.073	8.3
365.282	8.19
365.491	8.16
365.7	7.95
365.909	7.76
366.118	7.44
366.327	7.5
366.536	7.59
366.745	7.55
366.954	7.6
367.162	7.54
367.371	7.46
367.58	7.34
367.789	7.3
367.998	7.57
368.207	7.68
368.415	7.94
368.624	8.18
368.833	8.01
369.042	8.11
369.25	8.1
369.459	8.5
369.668	8.3
369.877	8.28
370.085	8.42
370.294	8.25
370.503	8.17
370.711	8.13
370.92	7.94
371.129	7.89
371.337	7.92
371.546	7.94
371.754	7.91
371.963	7.95
372.171	7.94
372.38	7.88
372.589	7.91
372.797	8.02
373.006	7.97
373.214	8.07
373.423	8.02
373.631	8.1
373.84	8.03
374.048	7.9
374.256	8.05
374.465	8.05
374.673	7.96
374.882	8.1
375.09	8.06
375.298	7.87
375.507	7.76
375.715	7.99
375.923	7.83
376.132	7.77
376.34	7.62
376.548	7.55
376.757	7.5
376.965	7.55
377.173	7.31
377.381	7.15
377.59	7.15
377.798	7.11
378.006	6.84
378.214	6.86
378.423	6.75
378.631	6.62
378.839	6.58
379.047	6.8
379.255	6.76
379.463	6.96
379.671	7.07
379.879	7.08
380.088	6.94
380.296	7.07
380.504	7
380.712	7.19
380.92	7.3
381.128	7.03
381.336	6.48
381.544	6.54
381.752	6.43
381.96	6.64
382.168	6.7
382.376	6.86
382.584	6.81
382.791	6.89
382.999	6.92
383.207	6.89
383.415	7.16
383.623	7.44
383.831	7.15
384.039	7.03
384.247	6.8
384.454	6.84
384.662	6.59
384.87	6.59
385.078	6.47
385.285	6.33
385.493	6.4
385.701	6.28
385.909	6.15
386.116	6.26
386.324	6.15
386.532	6.09
386.739	6.19
386.947	6.4
387.155	6.34
387.362	6.39
387.57	6.28
387.778	5.99
387.985	5.99
388.193	6.08
388.4	6.11
388.608	6.16
388.816	6.01
389.023	5.92
389.231	5.94
389.438	5.87
389.646	5.77
389.853	5.87
390.061	6.03
390.268	5.99
390.475	5.91
390.683	5.71
390.89	5.71
391.098	5.81
391.305	5.75
391.512	5.6
391.72	5.71
391.927	5.84
392.135	5.82
392.342	5.69
392.549	5.62
392.756	5.68
392.964	5.67
393.171	5.67
393.378	5.6
393.586	5.57
393.793	5.47
394	5.46
394.207	5.29
394.414	5.23
394.622	5.47
394.829	5.55
395.036	5.46
395.243	5.67
395.45	5.73
395.657	5.75
395.864	5.96
396.072	6.21
396.279	6.13
396.486	6.09
396.693	6.26
396.9	6.02
397.107	5.97
397.314	5.98
397.521	6.01
397.728	5.8
397.935	5.96
398.142	5.87
398.349	5.71
398.556	5.66
398.763	5.88
398.97	5.55
399.177	5.54
399.383	5.47
399.59	5.6
399.797	5.54
400.004	5.75
400.211	5.59
400.418	5.54
400.625	5.62
400.831	5.81
401.038	5.6
401.245	5.78
401.452	5.62
401.658	5.72
401.865	5.77
402.072	5.61
402.279	5.69
402.485	5.59
402.692	5.52
402.899	5.4
403.105	5.23
403.312	5.32
403.519	5.23
403.725	5.34
403.932	5.34
404.138	5.02
404.345	5.08
404.552	5
404.758	5.04
404.965	5.04
405.171	5.03
405.378	5.1
405.584	5.28
405.791	5.19
405.997	5.2
406.204	5.35
406.41	5.49
406.617	5.44
406.823	5.33
407.029	5.38
407.236	5.47
407.442	5.54
407.649	5.56
407.855	5.38
408.061	5.52
408.268	5.65
408.474	5.54
408.68	5.62
408.887	5.65
409.093	5.62
409.299	5.63
409.505	5.48
409.712	5.36
409.918	5.19
410.124	5.06
410.33	5.13
410.537	4.98
410.743	4.86
410.949	4.87
411.155	4.87
411.361	4.96
411.567	4.83
411.773	4.79
411.98	4.81
412.186	4.78
412.392	4.82
412.598	4.68
412.804	4.81
413.01	4.8
413.216	4.78
413.422	4.73
413.628	4.59
413.834	4.65
414.04	4.68
414.246	4.95
414.452	4.99
414.658	5.05
414.864	4.97
415.07	4.93
415.275	4.97
415.481	4.77
415.687	4.7
415.893	4.8
416.099	4.74
416.305	4.68
416.511	4.61
416.716	4.65
416.922	4.51
417.128	4.65
417.334	4.65
417.539	4.58
417.745	4.67
417.951	4.58
418.157	4.61
418.362	4.53
418.568	4.57
418.774	4.48
418.979	4.45
419.185	4.52
419.391	4.48
419.596	4.45
419.802	4.49
420.008	4.53
420.213	4.54
420.419	4.46
420.624	4.57
420.83	4.63
421.035	4.64
421.241	4.67
421.446	4.66
421.652	4.66
421.857	4.64
422.063	4.68
422.268	4.64
422.474	4.73
422.679	4.79
422.885	4.78
423.09	4.79
423.295	4.74
423.501	4.68
423.706	4.63
423.911	4.62
424.117	4.63
424.322	4.62
424.527	4.6
424.733	4.56
424.938	4.54
425.143	4.51
425.349	4.42
425.554	4.4
425.759	4.36
425.964	4.38
426.169	4.31
426.375	4.34
426.58	4.27
426.785	4.3
426.99	4.26
427.195	4.25
427.4	4.33
427.605	4.35
427.811	4.47
428.016	4.59
428.221	4.62
428.426	4.59
428.631	4.59
428.836	4.59
429.041	4.54
429.246	4.57
429.451	4.58
429.656	4.49
429.861	4.48
430.066	4.37
430.271	4.38
430.476	4.4
430.681	4.51
430.886	4.41
431.09	4.46
431.295	4.4
431.5	4.41
431.705	4.43
431.91	4.5
432.115	4.48
432.32	4.44
432.524	4.5
432.729	4.6
432.934	4.6
433.139	4.67
433.343	4.71
433.548	4.71
433.753	4.75
433.958	4.73
434.162	4.67
434.367	4.72
434.572	4.87
434.776	4.75
434.981	4.67
435.186	4.62
435.39	4.6
435.595	4.63
435.799	4.67
436.004	4.68
436.209	4.66
436.413	4.7
436.618	4.71
436.822	4.63
437.027	4.67
437.231	4.61
437.436	4.6
437.64	4.63
437.845	4.55
438.049	4.62
438.253	4.57
438.458	4.59
438.662	4.62
438.867	4.61
439.071	4.53
439.275	4.52
439.48	4.61
439.684	4.68
439.888	4.61
440.093	4.65
440.297	4.56
440.501	4.63
440.706	4.62
440.91	4.62
441.114	4.59
441.318	4.73
441.523	4.74
441.727	4.71
441.931	4.64
442.135	4.63
442.339	4.61
442.543	4.71
442.748	4.72
442.952	4.78
443.156	4.82
443.36	4.86
443.564	4.76
443.768	4.75
443.972	4.79
444.176	4.8
444.38	4.78
444.584	4.7
444.788	4.6
444.992	4.52
445.196	4.51
445.4	4.46
445.604	4.5
445.808	4.58
446.012	4.59
446.216	4.55
446.42	4.55
446.624	4.61
446.828	4.63
447.032	4.67
447.235	4.7
447.439	4.71
447.643	4.68
447.847	4.67
448.051	4.65
448.254	4.67
448.458	4.62
448.662	4.7
448.866	4.68
449.069	4.76
449.273	4.83
449.477	4.85
449.681	4.8
449.884	4.83
450.088	4.71
450.292	4.65
450.495	4.67
450.699	4.71
450.902	4.6
451.106	4.6
451.31	4.52
451.513	4.5
451.717	4.57
451.92	4.56
452.124	4.43
452.327	4.43
452.531	4.41
452.734	4.26
452.938	4.3
453.141	4.41
453.345	4.33
453.548	4.27
453.752	4.23
453.955	4.14
454.158	4.04
454.362	4.21
454.565	4.22
454.769	4.27
454.972	4.32
455.175	4.32
455.379	4.27
455.582	4.4
455.785	4.52
455.988	4.44
456.192	4.38
456.395	4.4
456.598	4.47
456.801	4.53
457.005	4.51
457.208	4.56
457.411	4.5
457.614	4.53
457.817	4.43
458.021	4.39
458.224	4.44
458.427	4.49
458.63	4.52
458.833	4.38
459.036	4.4
459.239	4.47
459.442	4.49
459.645	4.52
459.848	4.4
460.051	4.43
460.254	4.5
460.457	4.51
460.66	4.56
460.863	4.56
461.066	4.67
461.269	4.75
461.472	4.69
461.675	4.68
461.878	4.69
462.081	4.8
462.284	4.79
462.486	4.75
462.689	4.84
462.892	4.7
463.095	4.74
463.298	4.59
463.5	4.42
463.703	4.48
463.906	4.43
464.109	4.43
464.311	4.43
464.514	4.47
464.717	4.4
464.92	4.28
465.122	4.37
465.325	4.4
465.528	4.48
465.73	4.51
465.933	4.49
466.135	4.58
466.338	4.57
466.541	4.68
466.743	4.7
466.946	4.73
467.148	4.75
467.351	4.75
467.553	4.71
467.756	4.72
467.958	4.74
468.161	4.7
468.363	4.68
468.566	4.72
468.768	4.68
468.971	4.63
469.173	4.63
469.375	4.65
469.578	4.65
469.78	4.63
469.983	4.69
470.185	4.72
470.387	4.68
470.59	4.77
470.792	4.77
470.994	4.77
471.196	4.69
471.399	4.75
471.601	4.81
471.803	4.82
472.005	4.8
472.208	4.78
472.41	4.72
472.612	4.73
472.814	4.61
473.016	4.65
473.218	4.59
473.421	4.68
473.623	4.63
473.825	4.53
474.027	4.48
474.229	4.51
474.431	4.5
474.633	4.53
474.835	4.68
475.037	4.71
475.239	4.67
475.441	4.74
475.643	4.7
475.845	4.72
476.047	4.75
476.249	4.85
476.451	4.88
476.653	4.82
476.855	4.79
477.057	4.73
477.258	4.72
477.46	4.64
477.662	4.59
477.864	4.62
478.066	4.6
478.268	4.57
478.469	4.53
478.671	4.53
478.873	4.57
479.075	4.68
479.276	4.66
479.478	4.62
479.68	4.7
479.882	4.68
480.083	4.69
480.285	4.73
480.487	4.76
480.688	4.73
480.89	4.72
481.091	4.75
481.293	4.74
481.495	4.74
481.696	4.83
481.898	4.8
482.099	4.85
482.301	4.82
482.502	4.81
482.704	4.8
482.905	4.8
483.107	4.78
483.308	4.74
483.51	4.67
483.711	4.67
483.913	4.65
484.114	4.64
484.315	4.62
484.517	4.62
484.718	4.59
484.92	4.56
485.121	4.56
485.322	4.55
485.524	4.55
485.725	4.59
485.926	4.55
486.127	4.5
486.329	4.53
486.53	4.55
486.731	4.55
486.932	4.56
487.134	4.58
487.335	4.59
487.536	4.6
487.737	4.6
487.938	4.64
488.139	4.68
488.341	4.7
488.542	4.66
488.743	4.63
488.944	4.66
489.145	4.64
489.346	4.65
489.547	4.63
489.748	4.63
489.949	4.66
490.15	4.67
490.351	4.65
490.552	4.71
490.753	4.74
490.954	4.72
491.155	4.69
491.356	4.67
491.557	4.69
491.758	4.73
491.959	4.69
492.159	4.7
492.36	4.67
492.561	4.63
492.762	4.62
492.963	4.62
493.164	4.63
493.364	4.64
493.565	4.71
493.766	4.69
493.967	4.59
494.167	4.71
494.368	4.72
494.569	4.73
494.769	4.78
494.97	4.77
495.171	4.76
495.371	4.84
495.572	4.88
495.773	4.93
495.973	4.98
496.174	5.01
496.375	5.03
496.575	5.07
496.776	5.09
496.976	5.1
497.177	5.14
497.377	5.21
497.578	5.12
497.778	5.12
497.979	5.1
498.179	5.15
498.38	5.23
498.58	5.22
498.78	5.22
498.981	5.22
499.181	5.31
499.382	5.32
499.582	5.33
499.782	5.46
499.983	5.52
500.183	5.55
500.383	5.48
500.584	5.41
500.784	5.34
500.984	5.35
501.184	5.38
501.385	5.32
501.585	5.32
501.785	5.26
501.985	5.37
502.185	5.33
502.386	5.34
502.586	5.47
502.786	5.51
502.986	5.7
503.186	5.71
503.386	5.7
503.586	5.77
503.786	5.83
503.987	5.89
504.187	5.78
504.387	5.82
504.587	5.74
504.787	5.75
504.987	5.79
505.187	5.71
505.387	5.72
505.587	5.78
505.786	5.7
505.986	5.71
506.186	5.74
506.386	5.79
506.586	5.91
506.786	6
506.986	5.96
507.186	5.98
507.386	6.09
507.585	6.16
507.785	6.19
507.985	6.25
508.185	6.16
508.384	6.18
508.584	6.26
508.784	6.23
508.984	6.25
509.183	6.31
509.383	6.34
509.583	6.3
509.782	6.31
509.982	6.32
510.182	6.44
510.381	6.54
510.581	6.57
510.781	6.52
510.98	6.55
511.18	6.66
511.379	6.67
511.579	6.71
511.778	6.72
511.978	6.72
512.177	6.79
512.377	6.81
512.576	6.92
512.776	6.97
512.975	7.05
513.175	7.05
513.374	7.02
513.573	7.12
513.773	7.15
513.972	7.28
514.172	7.29
514.371	7.28
514.57	7.24
514.77	7.13
514.969	7.25
515.168	7.26
515.367	7.36
515.567	7.43
515.766	7.53
515.965	7.64
516.164	7.58
516.364	7.67
516.563	7.72
516.762	7.78
516.961	7.96
517.16	7.98
517.359	8.11
517.559	8.13
517.758	8.1
517.957	8.07
518.156	8.1
518.355	8.21
518.554	8.28
518.753	8.34
518.952	8.38
519.151	8.33
519.35	8.37
519.549	8.34
519.748	8.36
519.947	8.45
520.146	8.56
520.345	8.58
520.544	8.62
520.743	8.64
520.942	8.71
521.141	8.83
521.339	8.98
521.538	8.96
521.737	9.05
521.936	9.13
522.135	9.2
522.333	9.19
522.532	9.25
522.731	9.28
522.93	9.33
523.129	9.32
523.327	9.29
523.526	9.32
523.725	9.4
523.923	9.45
524.122	9.49
524.321	9.56
524.519	9.65
524.718	9.66
524.917	9.73
525.115	9.83
525.314	9.89
525.512	9.96
525.711	10.05
525.909	10.09
526.108	10.15
526.306	10.23
526.505	10.24
526.703	10.3
526.902	10.4
527.1	10.46
527.299	10.45
527.497	10.49
527.696	10.51
527.894	10.53
528.092	10.56
528.291	10.55
528.489	10.53
528.688	10.57
528.886	10.56
529.084	10.56
529.283	10.54
529.481	10.54
529.679	10.56
529.877	10.54
530.076	10.52
530.274	10.53
530.472	10.58
530.67	10.63
530.869	10.69
531.067	10.79
531.265	10.86
531.463	10.97
531.661	11.1
531.859	11.22
532.057	11.38
532.255	11.49
532.454	11.61
532.652	11.71
532.85	11.77
533.048	11.8
533.246	11.8
533.444	11.88
533.642	11.9
533.84	11.95
534.038	11.96
534.236	12
534.434	12.03
534.632	12.05
534.83	12.13
535.027	12.19
535.225	12.28
535.423	12.36
535.621	12.37
535.819	12.47
536.017	12.55
536.215	12.59
536.412	12.64
536.61	12.74
536.808	12.77
537.006	12.77
537.203	12.77
537.401	12.81
537.599	12.88
537.797	12.96
537.994	13
538.192	13.03
538.39	13.13
538.587	13.18
538.785	13.24
538.983	13.4
539.18	13.55
539.378	13.78
539.575	13.95
539.773	14.13
539.97	14.27
540.168	14.32
540.366	14.48
540.563	14.58
540.761	14.68
540.958	14.75
541.155	14.82
541.353	14.86
541.55	14.85
541.748	14.91
541.945	14.93
542.143	14.94
542.34	15.06
542.537	15.07
542.735	15.1
542.932	15.19
543.129	15.28
543.327	15.39
543.524	15.51
543.721	15.71
543.919	15.84
544.116	16.02
544.313	16.27
544.51	16.43
544.708	16.59
544.905	16.85
545.102	17.1
545.299	17.3
545.496	17.42
545.693	17.57
545.891	17.67
546.088	17.68
546.285	17.73
546.482	17.73
546.679	17.68
546.876	17.71
547.073	17.61
547.27	17.51
547.467	17.45
547.664	17.47
547.861	17.44
548.058	17.47
548.255	17.57
548.452	17.63
548.649	17.68
548.846	17.84
549.043	17.87
549.24	18.05
549.437	18.1
549.633	18.2
549.83	18.23
550.027	18.37
550.224	18.34
550.421	18.39
550.618	18.4
550.814	18.39
551.011	18.5
551.208	18.67
551.405	18.73
551.601	18.84
551.798	18.92
551.995	18.97
552.191	19.08
552.388	19.19
552.585	19.2
552.781	19.25
552.978	19.38
553.175	19.36
553.371	19.37
553.568	19.38
553.764	19.3
553.961	19.38
554.157	19.39
554.354	19.35
554.55	19.37
554.747	19.35
554.943	19.52
555.14	19.62
555.336	19.81
555.533	19.85
555.729	19.95
555.926	20.14
556.122	20.14
556.318	20.2
556.515	20.29
556.711	20.38
556.907	20.54
557.104	20.5
557.3	20.5
557.496	20.48
557.693	20.52
557.889	20.56
558.085	20.7
558.281	20.95
558.478	21.1
558.674	21.13
558.87	21.27
559.066	21.37
559.262	21.45
559.459	21.43
559.655	21.52
559.851	21.73
560.047	21.9
560.243	21.96
560.439	21.92
560.635	22.01
560.831	22.13
561.027	22.14
561.223	22.22
561.419	22.27
561.615	22.41
561.811	22.55
562.007	22.49
562.203	22.53
562.399	22.51
562.595	22.58
562.791	22.59
562.987	22.68
563.183	22.73
563.379	22.73
563.575	22.83
563.771	22.8
563.966	22.73
564.162	22.84
564.358	22.96
564.554	23.03
564.75	23.12
564.945	23.21
565.141	23.26
565.337	23.41
565.533	23.5
565.728	23.53
565.924	23.7
566.12	23.88
566.315	23.93
566.511	24
566.707	24.1
566.902	24.22
567.098	24.28
567.293	24.36
567.489	24.26
567.684	24.4
567.88	24.55
568.076	24.63
568.271	24.69
568.467	24.75
568.662	24.75
568.858	24.88
569.053	24.84
569.248	24.89
569.444	24.98
569.639	25.2
569.835	25.17
570.03	25.21
570.225	25.26
570.421	25.27
570.616	25.27
570.812	25.36
571.007	25.38
571.202	25.42
571.397	25.54
571.593	25.6
571.788	25.58
571.983	25.66
572.178	25.75
572.374	25.81
572.569	25.91
572.764	25.96
572.959	25.96
573.154	25.97
573.35	26.01
573.545	26.01
573.74	25.99
573.935	26.06
574.13	26.13
574.325	26.06
574.52	26.15
574.715	26.2
574.91	26.37
575.105	26.47
575.3	26.57
575.495	26.76
575.69	26.88
575.885	26.94
576.08	27.03
576.275	27.12
576.47	27.27
576.665	27.42
576.86	27.55
577.055	27.62
577.25	27.71
577.444	27.82
577.639	27.91
577.834	28
578.029	28.18
578.224	28.3
578.418	28.53
578.613	28.66
578.808	28.65
579.003	28.68
579.197	28.81
579.392	28.85
579.587	28.95
579.781	28.93
579.976	28.92
580.171	28.98
580.365	29.05
580.56	28.94
580.755	29.01
580.949	28.96
581.144	29.02
581.338	29.05
581.533	29.16
581.727	29.17
581.922	29.19
582.116	29.27
582.311	29.37
582.505	29.41
582.7	29.59
582.894	29.5
583.089	29.64
583.283	29.64
583.478	29.46
583.672	29.56
583.866	29.58
584.061	29.66
584.255	29.7
584.449	29.73
584.644	29.77
584.838	29.72
585.032	30.05
585.226	30.08
585.421	30.18
585.615	30.49
585.809	30.5
586.003	30.6
586.198	30.85
586.392	31.03
586.586	31.02
586.78	31
586.974	31.08
587.168	30.97
587.363	30.96
587.557	30.97
587.751	30.84
587.945	30.63
588.139	30.47
588.333	30.21
588.527	29.95
588.721	29.89
588.915	29.86
589.109	29.7
589.303	29.52
589.497	29.57
589.691	29.41
589.885	29.49
590.079	29.68
590.273	29.77
590.466	29.79
590.66	30.01
590.854	30.04
591.048	30.15
591.242	30.23
591.436	30.44
591.629	30.39
591.823	30.69
592.017	30.77
592.211	30.77
592.404	30.83
592.598	30.89
592.792	30.8
592.986	30.82
593.179	30.76
593.373	30.82
593.567	30.66
593.76	30.59
593.954	30.45
594.147	30.28
594.341	30.2
594.535	30.14
594.728	30.15
594.922	30.12
595.115	30.01
595.309	30.03
595.502	30.02
595.696	30
595.889	30.11
596.083	30.08
596.276	30.18
596.47	30.2
596.663	30.13
596.856	30.04
597.05	30.09
597.243	30.16
597.437	30.13
597.63	30.11
597.823	30.14
598.017	30.08
598.21	30.23
598.403	30.26
598.596	30.3
598.79	30.46
598.983	30.58
599.176	30.66
599.369	30.73
599.563	30.88
599.756	30.82
599.949	30.94
600.142	31.06
600.335	30.96
600.528	30.95
600.722	31.04
600.915	31.02
601.108	30.93
601.301	30.87
601.494	30.72
601.687	30.64
601.88	30.74
602.073	30.64
602.266	30.53
602.459	30.52
602.652	30.41
602.845	30.36
603.038	30.25
603.231	30.29
603.424	30.39
603.617	30.43
603.809	30.39
604.002	30.22
604.195	30.35
604.388	30.48
604.581	30.38
604.774	30.48
604.966	30.42
605.159	30.61
605.352	30.69
605.545	30.56
605.737	30.7
605.93	30.8
606.123	31.03
606.316	31.01
606.508	30.96
606.701	31.21
606.894	31.33
607.086	31.58
607.279	31.68
607.471	31.66
607.664	31.97
607.857	32.16
608.049	32.55
608.242	32.91
608.434	33.46
608.627	34.2
608.819	34.91
609.012	35.71
609.204	36.62
609.397	37.64
609.589	38.88
609.782	39.99
609.974	41.27
610.166	42.31
610.359	43.54
610.551	44.57
610.743	45.41
610.936	46.2
611.128	46.78
611.32	47.17
611.513	47.4
611.705	47.59
611.897	47.48
612.09	46.94
612.282	46.68
612.474	46.06
612.666	45.45
612.858	44.95
613.051	44.11
613.243	43.63
613.435	43.11
613.627	42.51
613.819	41.81
614.011	41.32
614.203	40.98
614.395	40.44
614.588	39.88
614.78	39.41
614.972	38.73
615.164	38.35
615.356	37.55
615.548	37.19
615.74	36.62
615.932	36.18
616.124	35.79
616.315	35.35
616.507	34.88
616.699	34.6
616.891	34.4
617.083	34.38
617.275	34.16
617.467	34.08
617.659	33.71
617.85	33.72
618.042	33.48
618.234	33.32
618.426	33.26
618.618	33.24
618.809	33.24
619.001	32.99
619.193	32.81
619.384	32.79
619.576	32.9
619.768	32.88
619.959	32.69
620.151	32.8
620.343	32.84
620.534	32.84
620.726	32.82
620.917	32.94
621.109	33.02
621.301	33.11
621.492	33.28
621.684	33.25
621.875	33.26
622.067	33.28
622.258	33.16
622.45	33.19
622.641	33.21
622.832	33.21
623.024	32.94
623.215	33.16
623.407	33.09
623.598	33.2
623.789	33.14
623.981	33.27
624.172	33.54
624.363	33.8
624.555	33.96
624.746	34.03
624.937	34
625.129	34.05
625.32	33.9
625.511	33.96
625.702	33.77
625.893	33.84
626.085	33.71
626.276	33.48
626.467	33.31
626.658	33.24
626.849	33.12
627.04	33.11
627.231	33.27
627.422	33.25
627.614	33.31
627.805	33.35
627.996	33.38
628.187	33.47
628.378	33.64
628.569	33.83
628.76	33.88
628.951	34.03
629.142	34.28
629.332	34.32
629.523	34.44
629.714	34.58
629.905	34.69
630.096	34.96
630.287	35.05
630.478	35.07
630.669	35.1
630.859	35.02
631.05	35.29
631.241	35.06
631.432	35.01
631.623	34.94
631.813	34.75
632.004	34.54
632.195	34.13
632.385	33.97
632.576	33.82
632.767	33.7
632.957	33.44
633.148	33.12
633.339	33.19
633.529	33.11
633.72	32.96
633.91	32.82
634.101	32.89
634.292	32.83
634.482	32.66
634.673	32.71
634.863	32.6
635.054	32.68
635.244	32.57
635.435	32.33
635.625	32.4
635.815	32.29
636.006	32.12
636.196	32.08
636.387	32.1
636.577	32.34
636.767	32.08
636.958	32.05
637.148	32.08
637.338	32.13
637.529	32.3
637.719	32.2
637.909	32.34
638.099	32.48
638.29	32.54
638.48	32.49
638.67	32.31
638.86	32.45
639.05	32.49
639.241	32.42
639.431	32.2
639.621	32.12
639.811	31.99
640.001	32.02
640.191	32.16
640.381	31.95
640.571	32.14
640.761	32.28
640.951	32.39
641.141	32.23
641.331	32.19
641.521	32.39
641.711	32.45
641.901	32.46
642.091	32.41
642.281	32.53
642.471	32.62
642.661	32.5
642.851	32.43
643.041	32.35
643.231	32.5
643.42	32.57
643.61	32.51
643.8	32.32
643.99	32.43
644.18	32.63
644.369	32.35
644.559	32.32
644.749	32.35
644.939	32.2
645.128	32.04
645.318	32.23
645.508	32.35
645.697	32.45
645.887	32.52
646.076	32.51
646.266	32.32
646.456	32.47
646.645	32.45
646.835	32.38
647.024	32.66
647.214	32.81
647.403	32.62
647.593	32.61
647.782	32.78
647.972	32.92
648.161	33.13
648.351	33.15
648.54	33.4
648.73	33.57
648.919	33.66
649.108	33.8
649.298	33.8
649.487	33.99
649.677	33.93
649.866	34
650.055	33.94
650.244	33.88
650.434	33.95
650.623	33.79
650.812	33.78
651.002	33.81
651.191	33.61
651.38	33.62
651.569	33.42
651.758	33.44
651.947	33.19
652.137	33.28
652.326	33.36
652.515	33.32
652.704	33.18
652.893	33.1
653.082	32.98
653.271	32.95
653.46	33.05
653.649	33.07
653.838	33.11
654.027	33.21
654.216	33.26
654.405	33
654.594	33.06
654.783	32.84
654.972	32.82
655.161	32.77
655.35	32.84
655.539	32.78
655.728	32.78
655.916	32.95
656.105	32.78
656.294	32.66
656.483	32.66
656.672	32.52
656.86	32.8
657.049	32.96
657.238	33.09
657.427	33.07
657.615	33.02
657.804	33.09
657.993	32.8
658.181	32.85
658.37	32.75
658.559	32.85
658.747	32.82
658.936	32.68
659.125	32.28
659.313	32.28
659.502	32.12
659.69	32.22
659.879	32.18
660.067	32.36
660.256	32.33
660.444	32.43
660.633	32.29
660.821	32.45
661.01	32.64
661.198	33.06
661.387	33.19
661.575	33.41
661.763	33.59
661.952	33.67
662.14	33.64
662.328	33.84
662.517	33.93
662.705	34.14
662.893	34.11
663.082	34.02
663.27	33.94
663.458	33.89
663.646	34.01
663.834	33.66
664.023	33.55
664.211	33.43
664.399	33.39
664.587	33.33
664.775	33.2
664.963	33.21
665.152	33.1
665.34	33.1
665.528	32.95
665.716	32.88
665.904	33.03
666.092	33.1
666.28	33.29
666.468	33.17
666.656	33.07
666.844	32.99
667.032	32.85
667.22	33.11
667.408	33.15
667.596	33.26
667.784	33.09
667.971	33.18
668.159	33.33
668.347	33.4
668.535	33.5
668.723	33.5
668.911	33.66
669.098	34.01
669.286	33.91
669.474	33.77
669.662	33.77
669.849	33.73
670.037	33.62
670.225	33.42
670.413	33.02
670.6	32.84
670.788	32.88
670.976	32.89
671.163	33.01
671.351	33.15
671.538	33.23
671.726	33.28
671.913	33.59
672.101	33.77
672.289	34.02
672.476	34.35
672.664	34.64
672.851	34.85
673.039	34.8
673.226	34.37
673.413	34.48
673.601	34.61
673.788	34.64
673.976	34.39
674.163	34.33
674.35	34.41
674.538	34.29
674.725	34.27
674.912	34.05
675.1	34.14
675.287	34.51
675.474	34.4
675.662	34.45
675.849	34.49
676.036	34.51
676.223	34.61
676.411	34.48
676.598	34.5
676.785	34.3
676.972	34.34
677.159	34.27
677.346	34.03
677.533	33.83
677.721	33.69
677.908	33.8
678.095	33.8
678.282	33.65
678.469	33.7
678.656	33.7
678.843	33.86
679.03	33.79
679.217	33.85
679.404	34.08
679.591	34.03
679.778	33.9
679.964	33.68
680.151	33.52
680.338	33.62
680.525	33.44
680.712	33.51
680.899	33.57
681.086	33.86
681.272	33.75
681.459	33.76
681.646	33.92
681.833	34.2
682.02	34.44
682.206	34.48
682.393	34.35
682.58	34.59
682.766	34.71
682.953	34.74
683.14	34.49
683.326	34.7
683.513	34.63
683.7	34.74
683.886	34.84
684.073	34.81
684.259	35.03
684.446	34.98
684.632	34.81
684.819	34.85
685.005	34.85
685.192	34.95
685.378	34.89
685.565	35
685.751	34.78
685.938	34.54
686.124	34.52
686.31	34.8
686.497	35.07
686.683	35.33
686.87	35.08
687.056	34.99
687.242	35.22
687.429	35.24
687.615	35.13
687.801	35.18
687.987	35.31
688.174	35.31
688.36	35.03
688.546	34.88
688.732	34.92
688.918	34.98
689.105	34.9
689.291	34.58
689.477	34.48
689.663	34.55
689.849	34.72
690.035	34.65
690.221	34.94
690.407	35.12
690.593	35.08
690.779	34.71
690.965	34.95
691.151	34.64
691.337	34.82
691.523	35.03
691.709	35.04
691.895	34.89
692.081	34.72
692.267	34.39
692.453	34.42
692.639	34.54
692.825	34.84
693.011	34.97
693.196	35.7
693.382	35.91
693.568	35.77
693.754	35.66
693.94	35.75
694.125	36.13
694.311	36.07
694.497	36.1
694.682	35.82
694.868	35.76
695.054	35.54
695.239	35.46
695.425	35.39
695.611	35.2
695.796	35.19
695.982	35.1
696.168	34.99
696.353	34.83
696.539	34.45
696.724	34.64
696.91	34.64
697.095	34.47
697.281	34.3
697.466	34.12
697.652	34.22
697.837	34.04
698.023	33.92
698.208	33.94
698.393	33.98
698.579	33.94
698.764	33.75
698.949	33.48
699.135	33.63
699.32	33.58
699.505	33.64
699.691	33.87
699.876	33.88
700.061	34.15
700.246	34.14
700.432	34.12
700.617	34.26
700.802	34.56
700.987	34.92
701.172	35.06
701.358	35.14
701.543	35.15
701.728	34.97
701.913	35.35
702.098	35.41
702.283	35.34
702.468	35.59
702.653	36.01
702.838	36.33
703.023	36.52
703.208	36.56
703.393	36.75
703.578	36.97
703.763	37.17
703.948	37.38
704.133	37.54
704.318	38.28
704.503	38.72
704.688	38.34
704.873	38.33
705.057	38.13
705.242	38.06
705.427	38.52
705.612	38.8
705.797	39.2
705.981	39.49
706.166	39.75
706.351	39.62
706.536	40
706.72	40.77
706.905	41.2
707.09	41.53
707.274	41.97
707.459	41.34
707.644	41.52
707.828	41.39
708.013	41.27
708.197	41.02
708.382	41
708.567	40.53
708.751	40.31
708.936	40.01
709.12	39.98
709.305	39.83
709.489	40.54
709.673	40.05
709.858	39.82
710.042	39.64
710.227	39.56
710.411	39.38
710.596	39.76
710.78	39.8
710.964	39.94
711.149	40.04
711.333	40.17
711.517	39.8
711.702	40.01
711.886	40.34
712.07	40.5
712.254	40.54
712.438	40.5
712.623	40.03
712.807	39.75
712.991	39.32
713.175	38.93
713.359	38.64
713.544	38.3
713.728	38.25
713.912	37.88
714.096	37.09
714.28	36.62
714.464	36.56
714.648	36.32
714.832	36.26
715.016	36.36
715.2	36.46
715.384	36.3
715.568	36.12
715.752	35.86
715.936	35.7
716.12	36.29
716.304	36.56
716.488	36.22
716.671	36.05
716.855	35.91
717.039	35.92
717.223	35.74
717.407	35.64
717.59	35.78
717.774	35.41
717.958	35.31
718.142	34.87
718.325	34.62
718.509	35.09
718.693	35.26
718.877	35.24
719.06	35.37
719.244	35.39
719.428	35.36
719.611	35.58
719.795	36
719.978	36.04
720.162	36.29
720.345	36.58
720.529	36.33
720.713	36.68
720.896	36.65
721.08	36.18
721.263	36.7
721.446	37.05
721.63	36.84
721.813	36.78
721.997	36.81
722.18	36.43
722.364	36.59
722.547	36.45
722.73	36.37
722.914	36.52
723.097	36.99
723.28	36.4
723.464	35.93
723.647	36.01
723.83	36.29
724.013	36.33
724.197	36.25
724.38	36.17
724.563	36.02
724.746	35.95
724.929	36.14
725.112	35.74
725.296	35.93
725.479	35.93
725.662	35.67
725.845	35.8
726.028	35.69
726.211	35.78
726.394	35.23
726.577	35.04
726.76	34.68
726.943	34.47
727.126	34.51
727.309	34.45
727.492	34.54
727.675	34.44
727.858	33.97
728.041	33.97
728.224	33.91
728.407	34.29
728.589	34.68
728.772	34.83
728.955	34.8
729.138	34.44
729.321	34.32
729.503	34.17
729.686	34.48
729.869	34.7
730.052	34.82
730.234	35.02
730.417	34.83
730.6	34.73
730.782	34.78
730.965	34.85
731.148	35.22
731.33	35.1
731.513	35.08
731.695	35.23
731.878	35.51
732.061	35.7
732.243	35.53
732.426	35.74
732.608	35.85
732.791	35.98
732.973	36.3
733.156	36.41
733.338	36.66
733.52	36.77
733.703	36.87
733.885	36.88
734.068	36.59
734.25	36.53
734.432	36.54
734.615	36.33
734.797	35.93
734.979	35.73
735.162	35.49
735.344	35.49
735.526	35.71
735.708	35.58
735.891	35.06
736.073	35
736.255	35.68
736.437	35.51
736.619	36.1
736.802	36.68
736.984	37
737.166	37.21
737.348	37.44
737.53	37.56
737.712	37.8
737.894	37.64
738.076	38.09
738.258	38.2
738.44	38.65
738.622	38.67
738.804	39.11
738.986	38.67
739.168	38.68
739.35	38.22
739.532	38.07
739.714	37.5
739.896	37.53
740.078	37.99
740.259	37.58
740.441	36.96
740.623	36.94
740.805	36.63
740.987	37.14
741.168	37.34
741.35	37.99
741.532	38.46
741.714	38.52
741.895	39.31
742.077	38.69
742.259	38.77
742.44	39.48
742.622	39.3
742.804	39.18
742.985	39.17
743.167	39.2
743.348	38.71
743.53	38.74
743.711	39.18
743.893	38.91
744.075	39.25
744.256	39.56
744.438	39.62
744.619	39.81
744.8	39.8
744.982	39.5
745.163	39.51
745.345	39.86
745.526	39.53
745.707	39.55
745.889	39.15
746.07	39.19
746.252	39.34
746.433	39.08
746.614	38.84
746.795	38.82
746.977	38.78
747.158	38.82
747.339	38.64
747.52	39.24
747.702	39.49
747.883	39.98
748.064	39.43
748.245	39.32
748.426	39.47
748.607	39.67
748.788	39.83
748.97	39.91
749.151	39.73
749.332	40.22
749.513	39.75
749.694	39.19
749.875	38.99
750.056	39.24
750.237	39.44
750.418	39.07
750.599	38.44
750.78	38.78
750.96	38.49
751.141	39.28
751.322	39.08
751.503	39.15
751.684	39.4
751.865	39.66
752.046	39.53
752.226	39.23
752.407	38.89
752.588	40.39
752.769	39.72
752.949	39.8
753.13	39.19
753.311	38.81
753.492	38.52
753.672	38.5
753.853	37.95
754.034	38.6
754.214	38.78
754.395	39.56
754.575	38.38
754.756	38.35
754.937	38.74
755.117	38.28
755.298	38.32
755.478	38.48
755.659	38.7
755.839	38.81
756.02	38.58
756.2	38.5
756.381	38.34
756.561	38.55
756.741	38.66
756.922	38.18
757.102	38.49
757.283	39.27
757.463	38.88
757.643	38.88
757.823	39.09
758.004	38.52
758.184	37.92
758.364	37.14
758.545	36.79
758.725	36.63
758.905	37.04
759.085	36.3
759.265	35.46
759.446	35.29
759.626	34.94
759.806	34.9
759.986	35.17
760.166	34.69
760.346	34.73
760.526	35.32
760.706	35.33
760.886	34.43
761.066	35.19
761.246	35.48
761.426	35.6
761.606	35.6
761.786	35.25
761.966	35
762.146	35.49
762.326	35.56
762.506	35.11
762.686	35.1
762.866	35.28
763.046	35.33
763.225	34.71
763.405	34.73
763.585	34.89
763.765	34.56
763.945	34.53
764.124	34.04
764.304	34.19
764.484	34.44
764.664	34.47
764.843	34.76
765.023	34.36
765.203	34.85
765.382	34.8
765.562	34.58
765.741	35.2
765.921	35.45
766.101	36.05
766.28	36.56
766.46	36.95
766.639	37.23
766.819	37.55
766.998	37.78
767.178	38.2
767.357	38.52
767.537	38.94
767.716	39.53
767.896	39.54
768.075	40.31
768.254	40.67
768.434	40.21
768.613	39.9
768.792	39.92
768.972	40.02
769.151	39.86
769.33	40.27
769.51	40.95
769.689	40.97
769.868	41.71
770.047	41.01
770.226	40.67
770.406	41.08
770.585	41.63
770.764	41.99
770.943	42.87
771.122	43.39
771.301	43.22
771.48	42.26
771.66	41.69
771.839	41.56
772.018	42.08
772.197	41.94
772.376	42.08
772.555	41.67
772.734	40.9
772.913	39.97
773.092	39.68
773.271	40.16
773.449	40.91
773.628	40.91
773.807	40.15
773.986	39.8
774.165	39.97
774.344	39.69
774.523	40.02
774.701	40.76
774.88	41.24
775.059	41.24
775.238	41.31
775.417	40.82
775.595	41.01
775.774	41.35
775.953	41.42
776.131	41.62
776.31	41.23
776.489	40.08
776.667	39.98
776.846	40.89
777.025	40.93
777.203	40.29
777.382	40.34
777.56	40.64
777.739	40.47
777.917	40.69
778.096	40.27
778.274	40.16
778.453	41.04
778.631	40.82
778.81	39.58
778.988	38.92
779.166	39.26
779.345	40.19
779.523	40.32
779.702	39.97
779.88	38.93
780.058	39.52
780.237	39.85
780.415	39.96
780.593	39.24
780.771	40.09
780.95	39.69
781.128	39.56
781.306	38.82
781.484	39.27
781.662	40.1
781.841	40.92
782.019	41.02
782.197	40.87
782.375	40.55
782.553	41.25
782.731	40.84
782.909	41.31
783.087	41.83
783.265	41.67
783.443	39.93
783.621	40.01
783.799	40.45
783.977	39.82
784.155	40.37
784.333	40.7
784.511	40.83
784.689	41.07
784.867	41.59
785.045	40.4
785.223	41.07
785.4	42.44
785.578	42.2
785.756	42.54
785.934	43.12
786.112	43.34
786.289	43.38
786.467	42.82
786.645	42.11
786.823	42.15
787	43.08
787.178	43.32
787.356	43.12
787.533	42.74
787.711	41.81
787.889	40.14
788.066	38.94
788.244	39.28
788.421	40.28
788.599	39.79
788.776	39.5
788.954	39.06
789.131	38.14
789.309	38
789.486	38.75
789.664	39.4
789.841	40.17
790.019	40.77
790.196	41.3
790.373	40.17
790.551	40.44
790.728	40.27
790.906	39.97
791.083	40.65
791.26	40.67
791.437	39.92
791.615	39.42
791.792	39.9
791.969	40.16
792.146	38.32
792.324	38.48
792.501	39.57
792.678	40.28
792.855	41.15
793.032	40.29
793.209	41.19
793.387	40.66
793.564	40.79
793.741	40.71
793.918	40.28
794.095	41.52
794.272	42.17
794.449	41.02
794.626	40.46
794.803	40.17
794.98	40.04
795.157	38.2
795.334	39.01
795.511	38.43
795.688	37.47
795.864	37.2
796.041	37.05
796.218	37.18
796.395	37.61
796.572	38.06
796.749	37.62
796.925	38.27
797.102	38.84
797.279	38.65
797.456	38.74
797.632	40.14
797.809	40.4
797.986	39.93
798.162	39.13
798.339	38.76
798.516	38.98
798.692	39.56
798.869	38.57
799.046	39.01
799.222	38.91
799.399	38.72
799.575	38.61
799.752	39.33
799.928	40.09
800.105	40.65
800.281	41.8
800.458	41.03
800.634	40.54
800.811	40.9
800.987	41.14
801.163	40.82
801.34	41.32
801.516	40.39
801.692	40.16
801.869	39.62
802.045	39.58
802.221	39.5
802.398	39.24
802.574	38.64
802.75	39.97
802.926	39.01
803.103	39.5
803.279	39.54
803.455	39.67
803.631	39.97
803.807	40.21
803.983	40.16
804.16	39.25
804.336	38.92
804.512	39.28
804.688	37.32
804.864	37.37
805.04	37.62
805.216	37.75
805.392	37.16
805.568	37.74
805.744	37.39
805.92	37.19
806.096	36.87
806.272	37.91
806.448	39.52
806.623	40.86
806.799	40.83
806.975	40.31
807.151	40.2
807.327	40.99
807.503	39.76
807.678	40.8
807.854	40.93
808.03	41.98
808.206	41.15
808.381	39.02
808.557	37.77
808.733	38.78
808.908	39.01
809.084	38.5
809.26	38.02
809.435	38.65
809.611	37.46
809.787	36.5
809.962	35.57
810.138	36.3
810.313	37.69
810.489	37.8
810.664	35.94
810.84	35.62
811.015	36.18
811.191	36.69
811.366	36.41
811.542	36.33
811.717	35.7
811.892	35.9
812.068	34.92
812.243	34.84
812.419	34.39
812.594	35.73
812.769	35.54
812.944	35.39
813.12	35.89
813.295	35.76
813.47	34.97
813.645	36.13
813.821	35.75
813.996	37.09
814.171	37.96
814.346	38.86
814.521	38.67
814.697	38.71
814.872	38.15
815.047	36.87
815.222	35.82
815.397	36.86
815.572	36.49
815.747	37.21
815.922	37.42
816.097	35.62
816.272	34.97
816.447	35.93
816.622	35.76
816.797	35.93
816.972	36.71
817.147	37.44
817.322	37.58
817.496	37.45
817.671	36.62
817.846	35.53
818.021	35.09
818.196	35.72
818.371	34.66
818.545	34.41
818.72	34.41
818.895	33.76
819.069	33.77
819.244	34.03
819.419	34.54
819.594	34.09
819.768	34.47
819.943	35.59
820.117	34.96
820.292	35.52
820.467	35.13
820.641	34.25
820.816	33.5
820.99	33
821.165	32.84
821.339	32.32
821.514	32.14
821.688	31.39
821.863	31.27
822.037	30.86
822.212	30.46
822.386	30.5
822.56	30.62
822.735	30.7
822.909	30.64
823.084	30.38
823.258	30.56
823.432	30.55
823.606	30.65
823.781	30.37
823.955	30.66
824.129	30.58
824.303	30.74
824.478	30.9
824.652	31.02
824.826	31.15
825	31.25
825.174	31.07
825.348	31.23
825.523	31.58
825.697	31.58
825.871	31.56
826.045	31.39
826.219	31.02
826.393	30.92
826.567	30.72
826.741	30.71
826.915	30.88
827.089	31.05
827.263	30.94
827.437	30.8
827.611	30.87
827.784	30.94
827.958	31.1
828.132	31.51
828.306	31.67
828.48	31.95
828.654	31.9
828.827	31.97
829.001	31.65
829.175	32.02
829.349	32.89
829.522	33.38
829.696	33.44
829.87	33.33
830.044	32.3
830.217	31.59
830.391	31.69
830.565	31.67
830.738	31.43
830.912	32.28
831.085	31.4
831.259	31.1
831.432	30.74
831.606	31.03
831.779	32.7
831.953	33.98
832.126	33.84
832.3	34.12
832.473	34.66
832.647	34.66
832.82	34.3
832.994	34.77
833.167	34.19
833.34	34.24
833.514	34.4
833.687	34.04
833.86	33.49
834.034	33.65
834.207	33.56
834.38	33.26
834.553	33.14
834.727	33.25
834.9	32.55
835.073	32.91
835.246	32.24
835.419	32.29
835.593	32.06
835.766	32.14
835.939	32.57
836.112	32.26
836.285	32.28
836.458	32.51
836.631	32.16
836.804	33.08
836.977	31.96
837.15	33.02
837.323	32.12
837.496	32.38
837.669	32.18
837.842	31.07
838.015	31.96
838.188	32.33
838.361	32.16
838.533	31.78
838.706	32.4
838.879	32.87
839.052	33.44
839.225	32.65
839.398	31.64
839.57	33.72
839.743	35.75
839.916	35.53
840.088	35.82
840.261	37.81
840.434	38.18
840.607	38.31
840.779	38.81
840.952	38.69
841.124	39.48
841.297	39.9
841.47	39.97
841.642	38.78
841.815	39.73
841.987	38.38
842.16	37.3
842.332	36.18
842.505	36.72
842.677	36.97
842.85	35.24
843.022	38.04
843.194	39.83
843.367	35.88
843.539	36.71
843.712	34.79
843.884	35.02
844.056	34.21
844.229	33.43
844.401	32.17
844.573	31.66
844.745	34.11
844.918	32.69
845.09	33.94
845.262	38.18
845.434	38.16
845.606	37.67
845.779	38.77
845.951	36.51
846.123	41.34
846.295	41.07
846.467	40.42
846.639	40.42
846.811	39.25
846.983	40.62
847.155	40.59
847.327	37.59
847.499	39.87
847.671	41.37
847.843	42.81
848.015	43.37
848.187	45.7
848.359	45.44
848.531	46.29
848.703	45.5
848.875	42.97
849.047	42.84
849.218	43.56
849.39	46.31
849.562	47.18
849.734	50.28
849.905	51.47
850.077	48.84
850.249	47.49
850.421	45.97
850.592	46.94
850.764	48.26
850.936	48.17
851.107	49.43
851.279	46.49
851.451	44.77
851.622	43.96
851.794	39.43
851.965	40.88
852.137	40.95
852.308	42.95
852.48	43.27
852.651	38.76
852.823	36.77
852.994	36.7
853.166	37.48
853.337	36.94
853.509	37.06
853.68	38.74
853.851	37.21
854.023	37.87
854.194	35.8
854.365	36.78
854.537	35.52
854.708	37.4
854.879	38.72
855.05	34.69
855.222	32.54
855.393	30.59
855.564	27.42
855.735	29.81
855.906	30.77
856.078	34.4
856.249	29.81
856.42	35.39
856.591	36.27
856.762	36.6
856.933	40.98
857.104	42.39
857.275	45.18
857.446	50.32
857.617	47.29
857.788	49.99
857.959	49.23
858.13	55.89
858.301	52.18
858.472	54.03
858.643	51.85
858.814	50.39
858.985	47.69
859.155	47.36
859.326	46.8
859.497	45.77
859.668	43.99
859.839	45.43
860.009	40.56
860.18	41.5
860.351	40.9
860.522	40.12
860.692	36.27
860.863	40.13
861.034	34.62
861.204	32.01
861.375	34.17
861.546	34.53
861.716	30.93
861.887	33.35
862.057	32.98
862.228	30.13
862.398	32.98
862.569	34.93
862.739	32.32
862.91	34.89
863.08	33.32
863.251	31.51
863.421	31.99
863.592	34.96
863.762	35.47
863.932	37.49
864.103	38.61
864.273	37.41
864.443	39.93
864.614	40.84
864.784	39.29
864.954	43.27
865.125	44.34
865.295	43.12
865.465	39.75
865.635	40.48
865.805	39.96
865.976	39.76
866.146	38.63
866.316	38.22
866.486	37.88
866.656	37.95
866.826	33.25
866.996	30.58
867.166	32.5
867.336	33.97
867.506	32.18
867.676	31.67
867.846	28.47
868.016	26.45
868.186	26.02
868.356	28.72
868.526	29.94
868.696	30.39
868.866	31.62
869.036	30.04
869.206	30.65
869.376	33.57
869.545	32.91
869.715	35.34
869.885	34.67
870.055	34.94
870.224	34.79
870.394	36.42
870.564	36.98
870.734	36.21
870.903	38.54
871.073	35.45
871.243	35.05
871.412	36.8
871.582	36.13
871.751	41.03
871.921	38.66
872.091	38.14
872.26	37.95
872.43	41.95
872.599	43.62
872.769	40.58
872.938	39.69
873.108	39.17
873.277	36.53
873.446	35.11
873.616	32.67
873.785	33.88
873.955	31.28
874.124	29.37
874.293	24.56
874.463	27.08
874.632	29.88
874.801	32.82
874.971	32.27
875.14	30.35
875.309	34.06
875.478	31.59
875.647	30.31
875.817	34.21
875.986	33.42
876.155	35.74
876.324	33.57
876.493	31.47
876.662	33.49
876.831	32.05
877	33.97
877.17	31.39
877.339	36.11
877.508	38.13
877.677	35.94
877.846	38.27
878.015	41.59
878.184	38.68
878.352	40.1
878.521	38.15
878.69	38.97
878.859	40.15
879.028	40.46
879.197	38.1
879.366	38.06
879.534	36.51
879.703	34.63
879.872	31.09
880.041	31.24
880.21	30.04
880.378	30.41
880.547	30.43
880.716	30.21
880.884	29.61
881.053	29.47
881.222	28.24
881.39	28.83
881.559	29.52
881.727	29.29
881.896	29.22
882.065	29.22
882.233	28.92
882.402	28.25
882.57	27.73
882.739	27.61
882.907	27.21
883.076	27.68
883.244	27.34
883.412	26.86
883.581	26.62
883.749	26.67
883.918	26.16
884.086	25.08
884.254	24.94
884.423	24.64
884.591	25.05
884.759	25.3
884.927	25.42
885.096	25.89
885.264	25.19
885.432	25.4
885.6	25.12
885.769	25.47
885.937	27.5
886.105	29.98
886.273	30.99
886.441	31.77
886.609	32.2
886.777	31.11
886.945	30.23
887.113	30.92
887.281	31.59
887.449	31.96
887.617	32.52
887.785	31.66
887.953	27.9
888.121	30.61
888.289	28.56
888.457	30.49
888.625	31.06
888.793	32.77
888.961	33.52
889.129	30.4
889.296	33.09
889.464	33.93
889.632	35.75
889.8	39.13
889.967	34.96
890.135	36.4
