Data from 2938752__Reflection_01.txt Node
Date: Sat Mar 14 14:29:28 EDT 2015
User: robert
Spectrometer: USB4E03002
Autoset integration time: false
Trigger mode: 4
Integration Time (sec): 1.000000E-1
Scans to average: 10
Electric dark correction enabled: false
Nonlinearity correction enabled: false
Boxcar width: 5
Stray light correction enabled: false
XAxis mode: Wavelengths
Stop averaging: false
Number of Pixels in Spectrum: 3648
>>>>>Begin Spectral Data<<<<<
177.575	227.12
177.794	319.13
178.014	319.06
178.233	377.34
178.452	463.75
178.672	544.68
178.891	972.5
179.11	1189.34
179.33	2047.06
179.549	644.19
179.768	783.84
179.987	609.82
180.207	995.6
180.426	6753.85
180.645	3551.02
180.864	3631.11
181.084	1073.81
181.303	791.3
181.522	2310.26
181.741	2980.95
181.96	-1207.09
182.179	-1093.13
182.398	-793.24
182.618	-1005.49
182.837	2684.13
183.056	959.16
183.275	1743.4
183.494	4252.5
183.713	1385.25
183.932	897.04
184.151	904.52
184.37	467.42
184.589	379.75
184.808	375.62
185.027	281.08
185.246	310.92
185.465	507.99
185.684	388.74
185.903	729.72
186.122	4532.5
186.341	-4655.56
186.56	-1357.02
186.779	-1008.97
186.998	-1229.92
187.216	-10275
187.435	-1743.3
187.654	-11337.5
187.873	2466.67
188.092	-834.42
188.311	1651.3
188.53	845.05
188.748	1199.37
188.967	1342.25
189.186	1940.78
189.405	1156.8
189.623	1592.74
189.842	1152.63
190.061	8226.09
190.28	-10964.71
190.498	922.17
190.717	2161.8
190.936	-61900
191.154	723.51
191.373	521.47
191.592	492.33
191.81	476.61
192.029	377.57
192.248	324.77
192.466	330.26
192.685	236.09
192.904	169.23
193.122	171.67
193.341	174.12
193.559	200.84
193.778	222.98
193.996	227.72
194.215	270.8
194.433	322.62
194.652	371.76
194.87	343.16
195.089	422.36
195.307	368.73
195.526	352.85
195.744	385.61
195.963	372.48
196.181	319.76
196.399	376.73
196.618	354.79
196.836	322.48
197.055	333.81
197.273	402.15
197.491	573.1
197.71	1349.35
197.928	892.37
198.146	575.95
198.365	626.92
198.583	987.37
198.801	1244.2
199.019	982.72
199.238	6665.22
199.456	1641.05
199.674	1994.37
199.892	651.85
200.111	1335.34
200.329	-1200
200.547	-2485.48
200.765	-707.83
200.983	-1726.88
201.202	-1466.98
201.42	-1511.11
201.638	-20987.5
201.856	6635.71
202.074	1024.04
202.292	1288.43
202.51	1639.78
202.728	1150.38
202.946	634.93
203.165	573
203.383	560.15
203.601	424.42
203.819	381.51
204.037	391.89
204.255	392.68
204.473	406.83
204.691	464.01
204.909	535.47
205.127	514.81
205.345	802.48
205.562	534.46
205.78	433.88
205.998	865.34
206.216	1245.38
206.434	1845.05
206.652	2410.96
206.87	10600
207.088	1592.16
207.306	594.56
207.523	392.07
207.741	460.1
207.959	444.25
208.177	742.19
208.395	652.31
208.612	537.21
208.83	632.17
209.048	586.55
209.266	510.17
209.483	425.52
209.701	341.56
209.919	435.82
210.136	302.68
210.354	288.63
210.572	237.95
210.79	219.8
211.007	232.43
211.225	215.8
211.442	273.16
211.66	268.11
211.878	241
212.095	348.31
212.313	348.48
212.53	549.63
212.748	689.37
212.966	1085.88
213.183	1106.94
213.401	2133.68
213.618	629.14
213.836	431.89
214.053	450
214.271	538.21
214.488	462.5
214.705	358.21
214.923	235.76
215.14	203.16
215.358	203.71
215.575	192.95
215.793	161.57
216.01	169.07
216.227	162.69
216.445	157.71
216.662	150.53
216.879	133.46
217.097	118.04
217.314	138.4
217.531	144.92
217.749	135.52
217.966	166.73
218.183	176.28
218.4	179.03
218.618	166.32
218.835	158.23
219.052	165.5
219.269	180.72
219.487	179.17
219.704	167.53
219.921	164.05
220.138	158.57
220.355	136.96
220.572	126.88
220.79	120.68
221.007	137.55
221.224	140.82
221.441	135.99
221.658	131.61
221.875	128.45
222.092	139.66
222.309	135.47
222.526	122.77
222.743	117.25
222.96	114.85
223.177	111.28
223.394	100.86
223.611	89.72
223.828	84.87
224.045	78.14
224.262	82.45
224.479	71.88
224.696	69.89
224.913	70.9
225.13	67.63
225.347	64.24
225.564	67.76
225.781	63.64
225.997	59.63
226.214	57.83
226.431	52.81
226.648	44.3
226.865	40.36
227.082	37.21
227.298	30.6
227.515	26.97
227.732	23.51
227.949	21.74
228.165	19.41
228.382	18.62
228.599	16.06
228.816	15.06
229.032	13.76
229.249	12.93
229.466	12.18
229.682	12
229.899	12.07
230.116	12.92
230.332	12.08
230.549	12.76
230.765	11.54
230.982	12.08
231.199	14.61
231.415	16.22
231.632	17.98
231.848	18.49
232.065	21.46
232.281	22.11
232.498	22.49
232.714	23.63
232.931	22.28
233.147	23.6
233.364	24.02
233.58	20.56
233.797	20.96
234.013	19.76
234.23	19.61
234.446	20.24
234.662	19.28
234.879	19.27
235.095	19.51
235.312	20.35
235.528	21.9
235.744	22.39
235.961	22.92
236.177	23.25
236.393	24.14
236.61	23.72
236.826	22.46
237.042	21.05
237.258	21.5
237.475	22.5
237.691	22.69
237.907	20.45
238.123	21.19
238.339	18.33
238.556	16.19
238.772	14.67
238.988	15.01
239.204	14.26
239.42	15.77
239.636	13.1
239.853	12.27
240.069	12.21
240.285	12.21
240.501	11.1
240.717	11.2
240.933	11.31
241.149	10.45
241.365	9.57
241.581	8.93
241.797	8.78
242.013	8.73
242.229	7.64
242.445	7.46
242.661	7.41
242.877	7.11
243.093	7.26
243.309	7.65
243.525	8.49
243.741	9.67
243.957	10.17
244.173	9.8
244.388	10.73
244.604	11.8
244.82	11.6
245.036	11.82
245.252	11.66
245.468	11.83
245.683	11.35
245.899	10.79
246.115	9.38
246.331	9.22
246.547	9.1
246.762	8.91
246.978	8.47
247.194	8.69
247.409	8.36
247.625	8.53
247.841	8.51
248.057	8.28
248.272	8.15
248.488	8.84
248.703	8.48
248.919	8.79
249.135	8.31
249.35	8.47
249.566	8.11
249.782	8.89
249.997	8.48
250.213	9.64
250.428	11.29
250.644	11.3
250.859	10.6
251.075	11.15
251.29	10.57
251.506	11.66
251.721	11.69
251.937	11.67
252.152	10.96
252.368	11.06
252.583	10.51
252.798	10.07
253.014	9.35
253.229	9.86
253.445	10.11
253.66	11.01
253.875	10.93
254.091	10.86
254.306	11.43
254.521	12.43
254.737	13.11
254.952	13.24
255.167	12.95
255.383	13.53
255.598	12.8
255.813	12.66
256.028	12.91
256.244	13.11
256.459	14.1
256.674	13.97
256.889	13.01
257.104	11.71
257.32	11.81
257.535	11.91
257.75	11.63
257.965	11.25
258.18	10.94
258.395	10.33
258.61	9.94
258.826	9.3
259.041	8.6
259.256	8.46
259.471	8.62
259.686	8.4
259.901	7.98
260.116	8.21
260.331	8.29
260.546	7.94
260.761	7.91
260.976	7.51
261.191	7.24
261.406	7.42
261.621	7.62
261.836	7.65
262.05	7.39
262.265	7.31
262.48	6.78
262.695	6.43
262.91	7.39
263.125	7.26
263.34	8.15
263.555	8.12
263.769	8.02
263.984	7.68
264.199	8.03
264.414	8.06
264.629	8.44
264.843	9.62
265.058	10.33
265.273	9.55
265.488	10.01
265.702	9.97
265.917	10.37
266.132	10.59
266.346	10.41
266.561	10.27
266.776	10.11
266.99	9.92
267.205	9.6
267.42	9.36
267.634	9.38
267.849	8.87
268.063	8.97
268.278	8.88
268.492	8.8
268.707	8.91
268.922	9.02
269.136	9.01
269.351	9.36
269.565	9.06
269.78	9.04
269.994	9.26
270.209	8.87
270.423	8.26
270.637	8.15
270.852	8.08
271.066	8.03
271.281	7.67
271.495	7.85
271.709	7.7
271.924	7.38
272.138	6.94
272.353	6.87
272.567	6.93
272.781	7
272.996	7.1
273.21	7.5
273.424	7.4
273.638	7.85
273.853	7.72
274.067	7.91
274.281	8.21
274.495	8
274.71	8.08
274.924	8.03
275.138	8.14
275.352	8.17
275.566	7.59
275.781	7.93
275.995	7.47
276.209	7.47
276.423	7.51
276.637	7.54
276.851	8.15
277.065	8.1
277.279	8.3
277.493	8.4
277.707	8.7
277.921	8.69
278.135	7.98
278.349	7.96
278.563	8.29
278.777	7.77
278.991	7.31
279.205	7.34
279.419	6.97
279.633	6.99
279.847	7.03
280.061	6.67
280.275	6.71
280.489	6.9
280.703	6.77
280.917	6.26
281.131	5.95
281.344	6.44
281.558	6.42
281.772	6.68
281.986	6.58
282.2	6.49
282.414	6.15
282.627	6.08
282.841	6.28
283.055	6.65
283.269	6.71
283.482	7.33
283.696	7.03
283.91	6.75
284.123	6.38
284.337	6.51
284.551	6.52
284.764	6.72
284.978	6.56
285.192	6.52
285.405	6.24
285.619	5.95
285.833	5.75
286.046	5.66
286.26	5.71
286.473	6.05
286.687	6.08
286.9	6.06
287.114	5.88
287.327	6.02
287.541	5.96
287.754	5.85
287.968	6.03
288.181	6.01
288.395	6.05
288.608	5.63
288.822	5.06
289.035	4.97
289.248	4.73
289.462	4.95
289.675	4.51
289.889	4.77
290.102	4.73
290.315	5.16
290.529	5.08
290.742	5.26
290.955	6
291.169	6.54
291.382	6.84
291.595	7.11
291.808	7.17
292.022	8.1
292.235	8.17
292.448	8.8
292.661	9.06
292.875	9.17
293.088	9.1
293.301	8.93
293.514	8.72
293.727	8.81
293.94	8.87
294.153	8.86
294.367	8.96
294.58	8.38
294.793	8
295.006	7.5
295.219	7.29
295.432	7.36
295.645	7.14
295.858	7.05
296.071	6.53
296.284	6.66
296.497	6.58
296.71	6.1
296.923	6.44
297.136	6.31
297.349	6.43
297.562	6.53
297.775	6.61
297.988	6.71
298.201	6.83
298.414	6.85
298.626	6.57
298.839	6.72
299.052	6.69
299.265	6.72
299.478	7.23
299.691	7.38
299.903	7.42
300.116	7.13
300.329	7.47
300.542	7.6
300.755	7.99
300.967	8.15
301.18	8.02
301.393	8.39
301.605	8.39
301.818	8.15
302.031	8.15
302.243	8.57
302.456	8.98
302.669	8.89
302.881	9.17
303.094	9.04
303.307	8.98
303.519	8.9
303.732	8.96
303.944	8.98
304.157	9.25
304.37	8.72
304.582	8.41
304.795	8.41
305.007	8.71
305.22	8.67
305.432	8.79
305.645	9.28
305.857	9.62
306.069	9.98
306.282	9.86
306.494	9.67
306.707	10.27
306.919	10.35
307.132	10.34
307.344	10.23
307.556	9.81
307.769	9.87
307.981	9.45
308.193	9.34
308.406	8.94
308.618	9.43
308.83	9.31
309.043	9.25
309.255	9.1
309.467	9.17
309.679	8.8
309.892	9.02
310.104	8.75
310.316	8.85
310.528	8.86
310.74	8.96
310.953	8.61
311.165	8.67
311.377	8.72
311.589	8.78
311.801	8.72
312.013	8.88
312.225	8.89
312.437	9.51
312.649	9.75
312.862	9.68
313.074	9.59
313.286	10.17
313.498	10.44
313.71	10.73
313.922	11.24
314.134	11.52
314.346	12.01
314.558	12.24
314.77	12.38
314.982	12.36
315.193	12.6
315.405	13.14
315.617	12.83
315.829	12.77
316.041	12.42
316.253	12.45
316.465	12.93
316.677	12.62
316.888	12.33
317.1	11.75
317.312	11.84
317.524	12.18
317.736	12.58
317.947	12.78
318.159	13.17
318.371	13.7
318.583	13.2
318.794	12.88
319.006	12.99
319.218	13.28
319.43	13.91
319.641	13.81
319.853	13.91
320.064	14.1
320.276	14.37
320.488	14.31
320.699	15.17
320.911	15.15
321.123	15.47
321.334	15.8
321.546	16.53
321.757	17.08
321.969	17.27
322.18	17.38
322.392	17.08
322.603	16.49
322.815	16.58
323.026	15.94
323.238	16.83
323.449	16.91
323.661	17.12
323.872	16.85
324.083	16.28
324.295	16.76
324.506	16.91
324.718	16.93
324.929	17.32
325.14	17.14
325.352	17.57
325.563	17.7
325.774	17.6
325.986	17.8
326.197	18.11
326.408	18.46
326.62	18.93
326.831	19.66
327.042	19.82
327.253	20.64
327.464	21.78
327.676	21.91
327.887	22.36
328.098	23.33
328.309	24.03
328.52	24.72
328.732	25.32
328.943	25.23
329.154	25.82
329.365	27.07
329.576	27.62
329.787	27.82
329.998	28.52
330.209	29.03
330.42	29.65
330.631	29.93
330.842	30.27
331.053	30.82
331.264	31.78
331.475	32.01
331.686	31.71
331.897	31.77
332.108	32.05
332.319	31.94
332.53	32.36
332.741	32.22
332.952	32.66
333.163	32.63
333.374	33.23
333.585	33.3
333.795	33.79
334.006	34.07
334.217	34.37
334.428	34.94
334.639	36.19
334.849	36.47
335.06	36.7
335.271	36.5
335.482	37.05
335.692	37.39
335.903	37.9
336.114	37.81
336.325	38.12
336.535	38.27
336.746	38.54
336.957	38.16
337.167	38.23
337.378	38.7
337.589	39.15
337.799	39.45
338.01	39.25
338.22	39.15
338.431	39.53
338.642	40.18
338.852	40.13
339.063	40.03
339.273	40.41
339.484	41.33
339.694	41.31
339.905	41.2
340.115	40.96
340.326	41.22
340.536	41.08
340.746	40.8
340.957	40.13
341.167	40.68
341.378	40.57
341.588	40.58
341.799	40.1
342.009	39.81
342.219	40.02
342.43	40.11
342.64	39.92
342.85	40.05
343.061	40.1
343.271	40.65
343.481	40.64
343.691	40.52
343.902	40.47
344.112	40.16
344.322	40.39
344.532	40.39
344.743	40.19
344.953	40.25
345.163	40.38
345.373	40.12
345.583	39.81
345.793	39.71
346.004	39.82
346.214	39.68
346.424	39.92
346.634	39.88
346.844	39.87
347.054	40.12
347.264	40.46
347.474	40.54
347.684	40.6
347.894	40.81
348.104	40.67
348.314	40.63
348.524	40.74
348.734	40.6
348.944	40.63
349.154	40.68
349.364	40.6
349.574	40.14
349.784	40.04
349.994	40.09
350.204	39.94
350.413	39.82
350.623	40.17
350.833	40.1
351.043	40.06
351.253	39.79
351.463	39.64
351.672	39.58
351.882	39.49
352.092	39.26
352.302	39.31
352.511	39.15
352.721	39.17
352.931	38.88
353.141	38.6
353.35	38.67
353.56	38.92
353.77	39.01
353.979	39.26
354.189	39.37
354.399	39.4
354.608	39.34
354.818	39.25
355.027	39.61
355.237	39.55
355.447	39.64
355.656	39.27
355.866	38.91
356.075	38.6
356.285	38.37
356.494	38.14
356.704	38.04
356.913	37.87
357.123	37.85
357.332	37.55
357.542	37.61
357.751	37.51
357.96	37.71
358.17	37.89
358.379	37.94
358.589	37.78
358.798	38.16
359.007	38.14
359.217	38.49
359.426	38.46
359.635	38.42
359.845	38.5
360.054	38.33
360.263	38.11
360.472	37.92
360.682	37.86
360.891	37.79
361.1	37.62
361.309	37.59
361.519	37.19
361.728	37.13
361.937	37.18
362.146	37.13
362.355	37.32
362.564	37.35
362.774	37.25
362.983	37.22
363.192	37.29
363.401	37.05
363.61	36.94
363.819	37.27
364.028	37.46
364.237	37.23
364.446	37.17
364.655	36.91
364.864	36.94
365.073	37.15
365.282	37.11
365.491	36.86
365.7	37.28
365.909	37.48
366.118	37.27
366.327	37.02
366.536	37.09
366.745	36.95
366.954	37.3
367.162	37.13
367.371	37.42
367.58	37.64
367.789	37.8
367.998	37.66
368.207	37.75
368.415	37.68
368.624	37.86
368.833	38.05
369.042	38.08
369.25	37.92
369.459	38.06
369.668	37.7
369.877	37.65
370.085	37.88
370.294	37.77
370.503	37.5
370.711	37.28
370.92	37.3
371.129	37.42
371.337	37.4
371.546	37.22
371.754	37.07
371.963	36.98
372.171	36.82
372.38	36.98
372.589	36.76
372.797	36.81
373.006	37.16
373.214	37.01
373.423	36.75
373.631	36.82
373.84	36.84
374.048	36.48
374.256	36.56
374.465	36.82
374.673	36.54
374.882	36.72
375.09	36.75
375.298	36.81
375.507	36.87
375.715	36.69
375.923	36.53
376.132	36.6
376.34	36.96
376.548	37.1
376.757	36.94
376.965	36.86
377.173	36.68
377.381	36.82
377.59	36.65
377.798	36.58
378.006	36.67
378.214	36.62
378.423	36.4
378.631	36.66
378.839	36.53
379.047	36.41
379.255	36.5
379.463	36.87
379.671	36.88
379.879	36.85
380.088	36.94
380.296	36.91
380.504	36.9
380.712	37.18
380.92	37.12
381.128	37.04
381.336	37.17
381.544	37.12
381.752	36.96
381.96	36.73
382.168	37.01
382.376	37.24
382.584	37.06
382.791	37.32
382.999	37.37
383.207	37.27
383.415	37.41
383.623	37.26
383.831	37.45
384.039	37.4
384.247	37.38
384.454	37.2
384.662	36.8
384.87	37.08
385.078	36.99
385.285	36.75
385.493	37
385.701	36.93
385.909	36.91
386.116	36.58
386.324	36.54
386.532	36.7
386.739	36.67
386.947	36.84
387.155	36.82
387.362	36.78
387.57	36.81
387.778	36.58
387.985	36.47
388.193	36.73
388.4	36.81
388.608	37.04
388.816	37.03
389.023	37.25
389.231	37.16
389.438	36.96
389.646	36.96
389.853	36.94
390.061	36.84
390.268	36.91
390.475	36.75
390.683	36.99
390.89	36.68
391.098	36.6
391.305	36.57
391.512	36.51
391.72	36.73
391.927	36.74
392.135	36.8
392.342	36.91
392.549	37.12
392.756	37.31
392.964	37.31
393.171	37.53
393.378	37.69
393.586	37.61
393.793	37.84
394	37.95
394.207	37.95
394.414	38.23
394.622	38.24
394.829	38.22
395.036	38.06
395.243	37.96
395.45	37.87
395.657	37.67
395.864	37.35
396.072	37.11
396.279	37.07
396.486	37.23
396.693	37.05
396.9	36.85
397.107	36.72
397.314	36.73
397.521	36.85
397.728	36.88
397.935	36.91
398.142	37.26
398.349	37.36
398.556	37.18
398.763	37.07
398.97	37.13
399.177	37.34
399.383	37.49
399.59	37.5
399.797	37.29
400.004	37.45
400.211	37.54
400.418	37.47
400.625	37.59
400.831	37.66
401.038	37.68
401.245	37.8
401.452	37.75
401.658	37.59
401.865	37.57
402.072	37.59
402.279	37.5
402.485	37.52
402.692	37.48
402.899	37.38
403.105	37.49
403.312	37.65
403.519	37.51
403.725	37.7
403.932	37.85
404.138	37.95
404.345	37.94
404.552	38
404.758	38.06
404.965	38.04
405.171	38.06
405.378	37.99
405.584	37.79
405.791	37.76
405.997	37.6
406.204	37.52
406.41	37.4
406.617	37.47
406.823	37.35
407.029	37.24
407.236	37.26
407.442	37.21
407.649	37.42
407.855	37.36
408.061	37.38
408.268	37.51
408.474	37.57
408.68	37.82
408.887	37.65
409.093	37.81
409.299	37.92
409.505	38.03
409.712	38.21
409.918	38.01
410.124	38.22
410.33	38.33
410.537	38.21
410.743	38
410.949	37.77
411.155	37.95
411.361	37.87
411.567	37.72
411.773	37.8
411.98	37.74
412.186	37.89
412.392	37.61
412.598	37.49
412.804	37.63
413.01	37.86
413.216	38.06
413.422	38.21
413.628	38.14
413.834	38.38
414.04	38.25
414.246	38.1
414.452	37.97
414.658	38.04
414.864	38.03
415.07	37.93
415.275	37.84
415.481	37.7
415.687	37.65
415.893	37.77
416.099	37.52
416.305	37.53
416.511	37.57
416.716	37.6
416.922	37.65
417.128	37.6
417.334	37.67
417.539	37.69
417.745	37.72
417.951	37.56
418.157	37.38
418.362	37.42
418.568	37.38
418.774	37.44
418.979	37.34
419.185	37.33
419.391	37.38
419.596	37.32
419.802	37.27
420.008	37.3
420.213	36.76
420.419	36.84
420.624	36.87
420.83	36.87
421.035	36.85
421.241	36.94
421.446	36.97
421.652	36.99
421.857	36.99
422.063	36.98
422.268	36.92
422.474	37.54
422.679	37.57
422.885	37.57
423.09	37.61
423.295	37.64
423.501	37.67
423.706	37.63
423.911	37.61
424.117	37.6
424.322	37.63
424.527	37.65
424.733	37.64
424.938	37.61
425.143	37.65
425.349	37.62
425.554	37.63
425.759	37.59
425.964	37.78
426.169	37.87
426.375	37.85
426.58	37.84
426.785	37.83
426.99	37.97
427.195	38.05
427.4	38.06
427.605	38.19
427.811	38.26
428.016	38.35
428.221	38.22
428.426	38.18
428.631	38.38
428.836	38.57
429.041	38.73
429.246	38.6
429.451	38.69
429.656	38.81
429.861	38.88
430.066	38.85
430.271	38.9
430.476	39
430.681	39.09
430.886	39.06
431.09	39.08
431.295	39.09
431.5	39.08
431.705	39.12
431.91	39.11
432.115	38.99
432.32	39.09
432.524	38.99
432.729	38.91
432.934	38.86
433.139	38.99
433.343	39.01
433.548	39.1
433.753	39.2
433.958	39.28
434.162	39.33
434.367	39.46
434.572	39.49
434.776	39.61
434.981	39.73
435.186	39.77
435.39	39.79
435.595	39.78
435.799	39.75
436.004	39.84
436.209	39.78
436.413	39.79
436.618	39.75
436.822	39.77
437.027	39.86
437.231	39.84
437.436	39.93
437.64	39.81
437.845	39.9
438.049	39.86
438.253	39.85
438.458	39.77
438.662	39.85
438.867	39.93
439.071	39.95
439.275	39.9
439.48	40
439.684	39.99
439.888	40.03
440.093	39.88
440.297	39.91
440.501	39.88
440.706	40.02
440.91	39.96
441.114	39.95
441.318	39.87
441.523	39.91
441.727	39.88
441.931	39.93
442.135	39.92
442.339	39.98
442.543	39.97
442.748	39.98
442.952	39.89
443.156	39.9
443.36	39.94
443.564	40.07
443.768	40.13
443.972	40.18
444.176	40.12
444.38	40.15
444.584	40.35
444.788	40.46
444.992	40.39
445.196	40.41
445.4	40.54
445.604	40.51
445.808	40.57
446.012	40.53
446.216	40.45
446.42	40.55
446.624	40.62
446.828	40.49
447.032	40.49
447.235	40.62
447.439	40.69
447.643	40.48
447.847	40.51
448.051	40.47
448.254	40.48
448.458	40.54
448.662	40.48
448.866	40.36
449.069	40.44
449.273	40.37
449.477	40.43
449.681	40.41
449.884	40.63
450.088	40.7
450.292	40.7
450.495	40.77
450.699	40.82
450.902	40.82
451.106	41.01
451.31	41.06
451.513	41.07
451.717	40.9
451.92	40.95
452.124	40.91
452.327	40.86
452.531	40.96
452.734	40.87
452.938	40.82
453.141	40.82
453.345	40.86
453.548	41
453.752	41
453.955	41.24
454.158	41.13
454.362	41.07
454.565	41.21
454.769	40.97
454.972	41.06
455.175	41.17
455.379	41.14
455.582	41.08
455.785	40.91
455.988	40.92
456.192	40.58
456.395	40.66
456.598	40.72
456.801	40.71
457.005	40.89
457.208	40.76
457.411	40.66
457.614	40.79
457.817	40.82
458.021	40.89
458.224	40.94
458.427	41.03
458.63	41.1
458.833	40.96
459.036	40.91
459.239	40.78
459.442	40.85
459.645	40.87
459.848	40.81
460.051	40.81
460.254	40.8
460.457	40.81
460.66	40.81
460.863	40.73
461.066	40.8
461.269	40.64
461.472	40.81
461.675	40.79
461.878	40.8
462.081	40.82
462.284	40.9
462.486	40.83
462.689	40.93
462.892	40.97
463.095	41.06
463.298	41.17
463.5	41.33
463.703	41.26
463.906	41.22
464.109	41.21
464.311	41.29
464.514	41.24
464.717	41.4
464.92	41.27
465.122	41.27
465.325	41.32
465.528	41.29
465.73	41.25
465.933	41.08
466.135	41.23
466.338	41.18
466.541	41.23
466.743	41.17
466.946	41.15
467.148	41.17
467.351	41.15
467.553	41.04
467.756	40.99
467.958	40.99
468.161	41.14
468.363	40.98
468.566	40.99
468.768	40.81
468.971	40.84
469.173	40.84
469.375	40.75
469.578	40.83
469.78	40.97
469.983	41.13
470.185	41.25
470.387	41.31
470.59	41.42
470.792	41.54
470.994	41.68
471.196	41.7
471.399	41.69
471.601	41.82
471.803	41.68
472.005	41.47
472.208	41.43
472.41	41.39
472.612	41.26
472.814	41.28
473.016	41.36
473.218	41.3
473.421	41.22
473.623	41.11
473.825	41.21
474.027	41.26
474.229	41.43
474.431	41.36
474.633	41.46
474.835	41.52
475.037	41.61
475.239	41.58
475.441	41.64
475.643	41.71
475.845	41.79
476.047	41.69
476.249	41.81
476.451	41.66
476.653	41.7
476.855	41.62
477.057	41.6
477.258	41.37
477.46	41.3
477.662	41.28
477.864	41.3
478.066	41.28
478.268	41.21
478.469	41.13
478.671	41.15
478.873	41.19
479.075	41.23
479.276	41.2
479.478	41.33
479.68	41.32
479.882	41.33
480.083	41.22
480.285	41.19
480.487	41.19
480.688	41.19
480.89	41.21
481.091	41.11
481.293	41
481.495	41.04
481.696	40.98
481.898	40.91
482.099	40.8
482.301	40.77
482.502	40.78
482.704	40.78
482.905	40.66
483.107	40.67
483.308	40.67
483.51	40.69
483.711	40.67
483.913	40.66
484.114	40.66
484.315	40.7
484.517	40.71
484.718	40.68
484.92	40.65
485.121	40.72
485.322	40.67
485.524	40.66
485.725	40.69
485.926	40.68
486.127	40.67
486.329	40.71
486.53	40.65
486.731	40.65
486.932	40.66
487.134	40.68
487.335	40.68
487.536	40.7
487.737	40.7
487.938	40.71
488.139	40.69
488.341	40.73
488.542	40.74
488.743	40.79
488.944	40.81
489.145	40.86
489.346	40.93
489.547	40.95
489.748	41.03
489.949	41.04
490.15	40.99
490.351	41.03
490.552	41.07
490.753	41.04
490.954	41.07
491.155	41.06
491.356	41.02
491.557	40.99
491.758	41.05
491.959	41.03
492.159	41.07
492.36	41.12
492.561	41.17
492.762	41.1
492.963	41.13
493.164	41.12
493.364	41.13
493.565	41.27
493.766	41.31
493.967	41.3
494.167	41.44
494.368	41.41
494.569	41.49
494.769	41.49
494.97	41.62
495.171	41.63
495.371	41.65
495.572	41.7
495.773	41.6
495.973	41.59
496.174	41.55
496.375	41.42
496.575	41.45
496.776	41.41
496.976	41.45
497.177	41.47
497.377	41.53
497.578	41.6
497.778	41.55
497.979	41.51
498.179	41.49
498.38	41.61
498.58	41.67
498.78	41.72
498.981	41.76
499.181	41.78
499.382	41.75
499.582	41.78
499.782	41.82
499.983	41.93
500.183	41.94
500.383	42.07
500.584	41.94
500.784	41.86
500.984	41.86
501.184	41.9
501.385	42
501.585	42.05
501.785	42.11
501.985	42.06
502.185	42.06
502.386	42.23
502.586	42.21
502.786	42.41
502.986	42.57
503.186	42.61
503.386	42.53
503.586	42.42
503.786	42.38
503.987	42.34
504.187	42.28
504.387	42.31
504.587	42.28
504.787	42.29
504.987	42.13
505.187	42.13
505.387	42.22
505.587	42.3
505.786	42.41
505.986	42.69
506.186	42.67
506.386	42.72
506.586	42.76
506.786	42.79
506.986	42.92
507.186	42.92
507.386	42.88
507.585	42.88
507.785	42.84
507.985	42.81
508.185	42.67
508.384	42.74
508.584	42.78
508.784	42.73
508.984	42.73
509.183	42.66
509.383	42.79
509.583	42.84
509.782	42.77
509.982	42.81
510.182	42.82
510.381	42.78
510.581	42.89
510.781	42.99
510.98	43.05
511.18	43.09
511.379	42.95
511.579	42.91
511.778	42.93
511.978	43
512.177	43.05
512.377	43.05
512.576	43.13
512.776	43.04
512.975	42.95
513.175	43.04
513.374	43.01
513.573	43.24
513.773	43.21
513.972	43.26
514.172	43.28
514.371	43.35
514.57	43.37
514.77	43.42
514.969	43.5
515.168	43.49
515.367	43.49
515.567	43.52
515.766	43.57
515.965	43.67
516.164	43.6
516.364	43.59
516.563	43.51
516.762	43.55
516.961	43.52
517.16	43.41
517.359	43.46
517.559	43.4
517.758	43.41
517.957	43.4
518.156	43.38
518.355	43.38
518.554	43.28
518.753	43.37
518.952	43.35
519.151	43.31
519.35	43.37
519.549	43.38
519.748	43.38
519.947	43.47
520.146	43.44
520.345	43.41
520.544	43.4
520.743	43.59
520.942	43.53
521.141	43.59
521.339	43.66
521.538	43.67
521.737	43.64
521.936	43.7
522.135	43.63
522.333	43.58
522.532	43.63
522.731	43.66
522.93	43.62
523.129	43.72
523.327	43.68
523.526	43.66
523.725	43.67
523.923	43.67
524.122	43.66
524.321	43.56
524.519	43.63
524.718	43.71
524.917	43.67
525.115	43.63
525.314	43.48
525.512	43.49
525.711	43.42
525.909	43.3
526.108	43.29
526.306	43.34
526.505	43.39
526.703	43.33
526.902	43.27
527.1	43.25
527.299	43.25
527.497	43.25
527.696	43.24
527.894	43.21
528.092	43.25
528.291	43.26
528.489	43.18
528.688	43.21
528.886	43.26
529.084	43.29
529.283	43.36
529.481	43.31
529.679	43.36
529.877	43.36
530.076	43.44
530.274	43.48
530.472	43.52
530.67	43.58
530.869	43.59
531.067	43.53
531.265	43.55
531.463	43.51
531.661	43.59
531.859	43.52
532.057	43.6
532.255	43.6
532.454	43.59
532.652	43.55
532.85	43.55
533.048	43.49
533.246	43.53
533.444	43.52
533.642	43.52
533.84	43.53
534.038	43.54
534.236	43.48
534.434	43.5
534.632	43.54
534.83	43.59
535.027	43.56
535.225	43.63
535.423	43.64
535.621	43.59
535.819	43.67
536.017	43.69
536.215	43.8
536.412	43.74
536.61	43.76
536.808	43.75
537.006	43.75
537.203	43.83
537.401	43.88
537.599	43.8
537.797	43.79
537.994	43.65
538.192	43.68
538.39	43.62
538.587	43.67
538.785	43.73
538.983	43.79
539.18	43.91
539.378	43.94
539.575	43.92
539.773	43.95
539.97	44.01
540.168	44.07
540.366	44.05
540.563	44.02
540.761	44.04
540.958	43.9
541.155	43.83
541.353	43.8
541.55	43.81
541.748	43.82
541.945	43.8
542.143	43.8
542.34	43.82
542.537	43.85
542.735	43.92
542.932	43.94
543.129	44.1
543.327	44.21
543.524	44.16
543.721	44.21
543.919	44.25
544.116	44.39
544.313	44.5
544.51	44.54
544.708	44.65
544.905	44.72
545.102	44.83
545.299	44.82
545.496	44.79
545.693	44.91
545.891	44.9
546.088	44.84
546.285	44.82
546.482	44.78
546.679	44.75
546.876	44.63
547.073	44.57
547.27	44.48
547.467	44.48
547.664	44.52
547.861	44.54
548.058	44.47
548.255	44.49
548.452	44.45
548.649	44.46
548.846	44.48
549.043	44.45
549.24	44.37
549.437	44.34
549.633	44.36
549.83	44.4
550.027	44.28
550.224	44.48
550.421	44.55
550.618	44.54
550.814	44.49
551.011	44.49
551.208	44.56
551.405	44.57
551.601	44.63
551.798	44.53
551.995	44.58
552.191	44.68
552.388	44.6
552.585	44.61
552.781	44.61
552.978	44.73
553.175	44.9
553.371	44.92
553.568	44.93
553.764	44.95
553.961	45.07
554.157	44.93
554.354	44.91
554.55	44.87
554.747	44.83
554.943	44.95
555.14	44.84
555.336	44.7
555.533	44.73
555.729	44.89
555.926	44.89
556.122	44.79
556.318	44.85
556.515	44.74
556.711	44.74
556.907	44.6
557.104	44.53
557.3	44.66
557.496	44.54
557.693	44.45
557.889	44.52
558.085	44.48
558.281	44.46
558.478	44.4
558.674	44.39
558.87	44.41
559.066	44.49
559.262	44.45
559.459	44.44
559.655	44.56
559.851	44.59
560.047	44.51
560.243	44.6
560.439	44.59
560.635	44.59
560.831	44.62
561.027	44.68
561.223	44.72
561.419	44.82
561.615	44.77
561.811	44.87
562.007	44.93
562.203	44.86
562.399	44.87
562.595	45.01
562.791	45.07
562.987	45.23
563.183	45.15
563.379	45.16
563.575	45.07
563.771	45.11
563.966	44.95
564.162	44.97
564.358	44.97
564.554	44.95
564.75	44.83
564.945	44.73
565.141	44.56
565.337	44.59
565.533	44.63
565.728	44.62
565.924	44.63
566.12	44.71
566.315	44.7
566.511	44.72
566.707	44.75
566.902	44.81
567.098	44.94
567.293	45.02
567.489	45.02
567.684	45.04
567.88	44.99
568.076	44.98
568.271	44.94
568.467	44.88
568.662	44.89
568.858	44.75
569.053	44.67
569.248	44.6
569.444	44.57
569.639	44.57
569.835	44.55
570.03	44.68
570.225	44.57
570.421	44.57
570.616	44.6
570.812	44.61
571.007	44.66
571.202	44.73
571.397	44.77
571.593	44.72
571.788	44.88
571.983	44.85
572.178	44.85
572.374	45.03
572.569	45.04
572.764	45.05
572.959	45.02
573.154	44.96
573.35	44.97
573.545	45.05
573.74	45.19
573.935	44.96
574.13	44.97
574.325	44.95
574.52	44.78
574.715	44.88
574.91	44.79
575.105	44.85
575.3	44.91
575.495	45.01
575.69	44.98
575.885	44.83
576.08	45.01
576.275	45.06
576.47	45.07
576.665	45.15
576.86	45.26
577.055	45.41
577.25	45.41
577.444	45.58
577.639	45.56
577.834	45.58
578.029	45.8
578.224	45.71
578.418	45.7
578.613	45.75
578.808	45.91
579.003	45.8
579.197	45.82
579.392	45.71
579.587	45.69
579.781	45.7
579.976	45.83
580.171	45.85
580.365	46.03
580.56	45.97
580.755	46.01
580.949	45.99
581.144	45.95
581.338	45.95
581.533	46.04
581.727	46.1
581.922	46.15
582.116	46.07
582.311	46.01
582.505	45.97
582.7	46.05
582.894	46
583.089	46.08
583.283	46.23
583.478	46.37
583.672	46.63
583.866	46.62
584.061	46.79
584.255	46.73
584.449	46.72
584.644	46.62
584.838	46.67
585.032	46.87
585.226	46.85
585.421	46.96
585.615	46.92
585.809	46.77
586.003	46.76
586.198	46.61
586.392	46.52
586.586	46.65
586.78	46.7
586.974	46.89
587.168	46.65
587.363	46.74
587.557	46.56
587.751	46.61
587.945	46.59
588.139	46.78
588.333	46.86
588.527	47.02
588.721	47.09
588.915	47.19
589.109	47.08
589.303	47.26
589.497	47.04
589.691	47.02
589.885	46.97
590.079	46.94
590.273	46.7
590.466	46.63
590.66	46.5
590.854	46.53
591.048	46.57
591.242	46.53
591.436	46.55
591.629	46.8
591.823	46.91
592.017	46.83
592.211	46.93
592.404	47.02
592.598	47.03
592.792	47.16
592.986	47.22
593.179	47.03
593.373	47.13
593.567	47.08
593.76	47.08
593.954	47.04
594.147	47.22
594.341	47.2
594.535	47.13
594.728	47.15
594.922	47.11
595.115	47.02
595.309	47.22
595.502	47.11
595.696	47.15
595.889	47.14
596.083	47.15
596.276	47
596.47	46.93
596.663	46.98
596.856	46.95
597.05	46.95
597.243	46.99
597.437	46.99
597.63	47.01
597.823	47.08
598.017	47.01
598.21	47.06
598.403	47.18
598.596	47.28
598.79	47.22
598.983	47.25
599.176	47.39
599.369	47.33
599.563	47.09
599.756	47.09
599.949	47.18
600.142	47.22
600.335	47.23
600.528	47.25
600.722	47.22
600.915	47.33
601.108	47.33
601.301	47.24
601.494	47.23
601.687	47.35
601.88	47.4
602.073	47.22
602.266	47.37
602.459	47.23
602.652	47.23
602.845	47.43
603.038	47.4
603.231	47.36
603.424	47.31
603.617	47.43
603.809	47.46
604.002	47.44
604.195	47.48
604.388	47.41
604.581	47.48
604.774	47.34
604.966	47.27
605.159	47.35
605.352	47.36
605.545	47.44
605.737	47.35
605.93	47.41
606.123	47.53
606.316	47.73
606.508	47.68
606.701	47.78
606.894	48.03
607.086	48.14
607.279	48.27
607.471	48.51
607.664	48.51
607.857	48.76
608.049	49.16
608.242	49.37
608.434	49.36
608.627	49.85
608.819	50.26
609.012	50.62
609.204	51.14
609.397	51.52
609.589	52
609.782	52.66
609.974	53.04
610.166	53.35
610.359	53.97
610.551	54.54
610.743	54.79
610.936	55.11
611.128	55.5
611.32	55.55
611.513	55.48
611.705	55.55
611.897	55.46
612.09	55.35
612.282	55.24
612.474	54.91
612.666	54.72
612.858	54.66
613.051	54.47
613.243	54.19
613.435	53.93
613.627	54.04
613.819	53.68
614.011	53.88
614.203	53.72
614.395	53.44
614.588	53.29
614.78	52.86
614.972	52.4
615.164	52
615.356	51.76
615.548	51.63
615.74	51.32
615.932	51.05
616.124	50.63
616.315	50.53
616.507	50.29
616.699	49.99
616.891	49.91
617.083	50.18
617.275	50.02
617.467	49.75
617.659	49.68
617.85	49.61
618.042	49.86
618.234	49.84
618.426	49.78
618.618	49.84
618.809	49.96
619.001	50.07
619.193	49.88
619.384	49.83
619.576	49.92
619.768	49.87
619.959	49.82
620.151	49.72
620.343	49.47
620.534	49.71
620.726	49.72
620.917	49.48
621.109	49.35
621.301	49.31
621.492	49.45
621.684	49.51
621.875	49.63
622.067	49.68
622.258	49.59
622.45	49.62
622.641	49.46
622.832	49.49
623.024	49.91
623.215	49.95
623.407	49.7
623.598	49.81
623.789	49.82
623.981	49.66
624.172	49.66
624.363	49.61
624.555	49.53
624.746	49.41
624.937	49.5
625.129	49.45
625.32	49.51
625.511	50.01
625.702	49.99
625.893	49.92
626.085	49.93
626.276	49.98
626.467	50.08
626.658	50.29
626.849	50.63
627.04	50.58
627.231	50.48
627.422	50.46
627.614	50.06
627.805	50.08
627.996	50.14
628.187	50.31
628.378	50.35
628.569	50.37
628.76	50.22
628.951	49.92
629.142	49.89
629.332	49.95
629.523	50.09
629.714	50.33
629.905	50.33
630.096	50.39
630.287	50.21
630.478	50.31
630.669	50.28
630.859	50.52
631.05	50.66
631.241	50.82
631.432	50.85
631.623	50.72
631.813	50.61
632.004	50.71
632.195	50.62
632.385	50.46
632.576	50.37
632.767	50.42
632.957	50.17
633.148	50.22
633.339	49.98
633.529	49.74
633.72	49.63
633.91	49.66
634.101	49.44
634.292	49.41
634.482	49.69
634.673	49.59
634.863	49.7
635.054	49.71
635.244	49.5
635.435	49.62
635.625	49.57
635.815	49.61
636.006	49.72
636.196	49.98
636.387	50.12
636.577	50.21
636.767	50.16
636.958	50.07
637.148	50.19
637.338	50.04
637.529	50.16
637.719	50.3
637.909	50.3
638.099	50.28
638.29	49.92
638.48	49.81
638.67	49.57
638.86	49.64
639.05	49.52
639.241	49.58
639.431	49.94
639.621	49.82
639.811	49.74
640.001	49.69
640.191	49.56
640.381	49.8
640.571	49.91
640.761	49.95
640.951	49.92
641.141	49.99
641.331	49.86
641.521	49.65
641.711	49.64
641.901	49.64
642.091	49.77
642.281	49.83
642.471	49.78
642.661	49.91
642.851	49.99
643.041	49.92
643.231	49.88
643.42	49.9
643.61	50.2
643.8	50.24
643.99	50.68
644.18	50.69
644.369	50.64
644.559	50.63
644.749	50.46
644.939	50.23
645.128	50.37
645.318	50.47
645.508	50.69
645.697	50.59
645.887	50.63
646.076	50.3
646.266	50.34
646.456	50.45
646.645	50.63
646.835	50.5
647.024	50.65
647.214	50.68
647.403	50.74
647.593	50.73
647.782	50.64
647.972	50.59
648.161	50.79
648.351	50.85
648.54	50.78
648.73	50.58
648.919	50.58
649.108	50.72
649.298	50.9
649.487	51
649.677	50.83
649.866	50.95
650.055	50.94
650.244	50.91
650.434	51.1
650.623	51.19
650.812	51.12
651.002	51.22
651.191	51.24
651.38	51.18
651.569	51.33
651.758	51.26
651.947	50.9
652.137	50.9
652.326	50.98
652.515	50.73
652.704	50.84
652.893	50.92
653.082	50.78
653.271	50.58
653.46	50.58
653.649	50.41
653.838	50.52
654.027	50.76
654.216	50.87
654.405	50.78
654.594	50.75
654.783	50.7
654.972	50.65
655.161	50.8
655.35	50.95
655.539	50.73
655.728	50.56
655.916	50.54
656.105	50.76
656.294	51.08
656.483	51.07
656.672	51.23
656.86	51.18
657.049	51.2
657.238	51.21
657.427	51.19
657.615	51.22
657.804	51.43
657.993	51.46
658.181	51.38
658.37	51.08
658.559	51.14
658.747	51.09
658.936	51.14
659.125	51.17
659.313	51.03
659.502	51.13
659.69	51.16
659.879	50.93
660.067	50.95
660.256	50.94
660.444	51.14
660.633	50.93
660.821	50.94
661.01	50.66
661.198	50.8
661.387	51.18
661.575	51.07
661.763	51.14
661.952	51.43
662.14	51.54
662.328	51.65
662.517	51.59
662.705	51.63
662.893	51.53
663.082	51.97
663.27	51.88
663.458	51.62
663.646	51.84
663.834	51.97
664.023	51.86
664.211	52
664.399	52.03
664.587	52
664.775	52.37
664.963	52.64
665.152	52.52
665.34	52.54
665.528	52.86
665.716	52.87
665.904	52.95
666.092	52.9
666.28	52.93
666.468	52.85
666.656	52.58
666.844	52.92
667.032	52.7
667.22	52.8
667.408	52.74
667.596	52.54
667.784	52.34
667.971	52.06
668.159	52.15
668.347	51.9
668.535	51.85
668.723	52.17
668.911	51.9
669.098	52.18
669.286	52.1
669.474	52.29
669.662	52.39
669.849	52.45
670.037	52.74
670.225	52.77
670.413	52.8
670.6	52.62
670.788	52.68
670.976	52.68
671.163	52.56
671.351	52.39
671.538	52.48
671.726	52.73
671.913	52.91
672.101	52.84
672.289	52.86
672.476	53.02
672.664	53.34
672.851	53.13
673.039	52.98
673.226	52.98
673.413	53.39
673.601	53.02
673.788	52.89
673.976	52.79
674.163	52.89
674.35	52.82
674.538	52.92
674.725	52.78
674.912	53.04
675.1	53.12
675.287	52.99
675.474	53.05
675.662	53.68
675.849	53.67
676.036	53.62
676.223	53.3
676.411	53.54
676.598	53.37
676.785	53.34
676.972	53.41
677.159	53.28
677.346	53.25
677.533	53.18
677.721	52.68
677.908	52.5
678.095	52.55
678.282	52.76
678.469	52.51
678.656	52.53
678.843	52.99
679.03	52.88
679.217	52.86
679.404	52.91
679.591	52.93
679.778	53.29
679.964	53.51
680.151	53.62
680.338	53.78
680.525	53.94
680.712	53.98
680.899	53.77
681.086	53.84
681.272	54.22
681.459	54.59
681.646	54.52
681.833	54.34
682.02	54.3
682.206	54.3
682.393	54.31
682.58	54.33
682.766	54.47
682.953	54.56
683.14	54.8
683.326	54.72
683.513	54.54
683.7	54.43
683.886	54.3
684.073	54.15
684.259	54.19
684.446	54.19
684.632	54.31
684.819	54.23
685.005	54.31
685.192	54.33
685.378	54.31
685.565	54.43
685.751	54.7
685.938	55.11
686.124	55.32
686.31	55.64
686.497	55.79
686.683	56.26
686.87	56.19
687.056	56.17
687.242	55.68
687.429	55.52
687.615	55.61
687.801	55.43
687.987	55.45
688.174	55.67
688.36	55.35
688.546	55.23
688.732	54.86
688.918	55.02
689.105	55.11
689.291	55.58
689.477	55.88
689.663	55.83
689.849	56.13
690.035	55.92
690.221	56.07
690.407	56.43
690.593	56.39
690.779	56.5
690.965	56.82
691.151	56.72
691.337	56.52
691.523	56.68
691.709	56.84
691.895	56.84
692.081	57.15
692.267	56.78
692.453	56.62
692.639	57.02
692.825	57.1
693.011	56.85
693.196	56.96
693.382	57.3
693.568	57.01
693.754	57.06
693.94	56.93
694.125	56.61
694.311	56.83
694.497	56.81
694.682	56.75
694.868	56.59
695.054	56.7
695.239	56.85
695.425	56.47
695.611	56.34
695.796	56.18
695.982	56.31
696.168	56.44
696.353	56.1
696.539	55.85
696.724	55.71
696.91	55.49
697.095	55.18
697.281	54.84
697.466	55.06
697.652	55.29
697.837	55.16
698.023	54.9
698.208	54.77
698.393	54.88
698.579	55.04
698.764	55
698.949	55.05
699.135	55.21
699.32	55.47
699.505	55.36
699.691	55.41
699.876	55.7
700.061	55.97
700.246	56.31
700.432	56.66
700.617	56.85
700.802	57.04
700.987	57.58
701.172	57.67
701.358	57.84
701.543	57.91
701.728	57.84
701.913	57.75
702.098	57.86
702.283	58.02
702.468	57.74
702.653	57.77
702.838	57.84
703.023	57.76
703.208	58.16
703.393	58.12
703.578	58.67
703.763	58.45
703.948	58.65
704.133	58.91
704.318	58.98
704.503	59.22
704.688	59.67
704.873	60.01
705.057	60.01
705.242	60.27
705.427	60.35
705.612	60.01
705.797	60.78
705.981	60.66
706.166	60.83
706.351	61.06
706.536	61.49
706.72	61.53
706.905	61.78
707.09	61.9
707.274	61.69
707.459	61.76
707.644	61.86
707.828	62.16
708.013	62.72
708.197	62.93
708.382	62.61
708.567	62.32
708.751	61.51
708.936	61.5
709.12	61.66
709.305	61.52
709.489	61.6
709.673	61.76
709.858	61.03
710.042	61.04
710.227	60.67
710.411	61
710.596	61
710.78	61.58
710.964	61.36
711.149	61.06
711.333	60.96
711.517	60.96
711.702	61.01
711.886	61.63
712.07	61.16
712.254	60.92
712.438	60.81
712.623	60.75
712.807	60.27
712.991	60
713.175	60.09
713.359	60.13
713.544	59.94
713.728	59.48
713.912	58.74
714.096	58.44
714.28	58.46
714.464	58.2
714.648	58.13
714.832	58.11
715.016	57.97
715.2	57.86
715.384	58
715.568	57.8
715.752	58.04
715.936	58.72
716.12	59.15
716.304	59.31
716.488	59.44
716.671	59.47
716.855	59.92
717.039	59.86
717.223	59.81
717.407	59.82
717.59	60.23
717.774	60.31
717.958	59.81
718.142	60.06
718.325	60.09
718.509	59.91
718.693	60.13
718.877	59.96
719.06	60.4
719.244	60.66
719.428	60.83
719.611	60.93
719.795	61.15
719.978	60.99
720.162	60.93
720.345	61.07
720.529	60.99
720.713	61.21
720.896	61.08
721.08	61.33
721.263	61.22
721.446	61.49
721.63	61.36
721.813	61.23
721.997	61.48
722.18	60.65
722.364	60.54
722.547	61
722.73	60.72
722.914	61.22
723.097	61.22
723.28	61.44
723.464	61.19
723.647	61.36
723.83	61.6
724.013	62.34
724.197	62.81
724.38	62.59
724.563	62.38
724.746	62.68
724.929	62.62
725.112	62.16
725.296	62.15
725.479	62.48
725.662	62.19
725.845	61.83
726.028	61.28
726.211	61.4
726.394	61.26
726.577	61.17
726.76	60.79
726.943	60.75
727.126	60.98
727.309	60.55
727.492	60.06
727.675	60.45
727.858	60.55
728.041	60.73
728.224	60.79
728.407	61.48
728.589	61.51
728.772	62
728.955	61.9
729.138	62.12
729.321	62.81
729.503	62.81
729.686	62.74
729.869	62.85
730.052	62.66
730.234	62.52
730.417	62.37
730.6	62.41
730.782	62.3
730.965	62.51
731.148	62.42
731.33	62.58
731.513	62.47
731.695	62.68
731.878	62.36
732.061	62.62
732.243	63.03
732.426	63.3
732.608	63.39
732.791	63.01
732.973	63
733.156	62.89
733.338	62.53
733.52	62.81
733.703	62.92
733.885	63.48
734.068	62.96
734.25	62.79
734.432	62.57
734.615	63.1
734.797	63.08
734.979	63
735.162	63.2
735.344	63.31
735.526	63.62
735.708	63.63
735.891	63.71
736.073	63.95
736.255	63.92
736.437	64.11
736.619	63.5
736.802	64.17
736.984	64.4
737.166	64.29
737.348	64.14
737.53	64.23
737.712	63.32
737.894	62.61
738.076	62.29
738.258	62.69
738.44	61.88
738.622	62.12
738.804	62.19
738.986	62.35
739.168	62.49
739.35	62.64
739.532	61.97
739.714	63.09
739.896	63.86
740.078	65
740.259	64.63
740.441	65.46
740.623	65.28
740.805	64.36
740.987	64.3
741.168	64.4
741.35	65.01
741.532	65.52
741.714	64.87
741.895	64.66
742.077	64
742.259	64.26
742.44	64.12
742.622	64.68
742.804	65.23
742.985	65.04
743.167	65.07
743.348	64.24
743.53	64.65
743.711	64.89
743.893	65.1
744.075	64.85
744.256	65.1
744.438	65.09
744.619	64.55
744.8	64.58
744.982	64.99
745.163	65.39
745.345	66.12
745.526	65.29
745.707	65.01
745.889	65.04
746.07	65.28
746.252	66.35
746.433	66.81
746.614	67.58
746.795	67.42
746.977	67.49
747.158	66.59
747.339	66.22
747.52	66.64
747.702	67.17
747.883	67.08
748.064	67.53
748.245	66.84
748.426	66.49
748.607	66.04
748.788	67.14
748.97	67.03
749.151	67.17
749.332	67.64
749.513	67.91
749.694	67.89
749.875	67.95
750.056	68.32
750.237	67.28
750.418	67.6
750.599	67.54
750.78	67.36
750.96	66.51
751.141	66.38
751.322	65.39
751.503	64.54
751.684	64.46
751.865	64.14
752.046	64.34
752.226	65.62
752.407	66.46
752.588	67.51
752.769	67.19
752.949	67.84
753.13	68.48
753.311	69.78
753.492	70.56
753.672	71.15
753.853	71.31
754.034	70.63
754.214	69.88
754.395	69.19
754.575	67.96
754.756	68.06
754.937	68.14
755.117	68.16
755.298	67.7
755.478	67.29
755.659	67.2
755.839	67.1
756.02	67.47
756.2	67.46
756.381	68.2
756.561	68.26
756.741	67.92
756.922	67.88
757.102	67.15
757.283	66.3
757.463	66.48
757.643	65.88
757.823	65.57
758.004	65.24
758.184	65.12
758.364	64.32
758.545	64.16
758.725	64.24
758.905	64.13
759.085	64.43
759.265	65.07
759.446	65.28
759.626	65.64
759.806	66.29
759.986	66.68
760.166	66.57
760.346	67.07
760.526	67.43
760.706	67.75
760.886	67.52
761.066	67.61
761.246	67.79
761.426	67.71
761.606	66.45
761.786	66.17
761.966	65.23
762.146	64.66
762.326	64.33
762.506	64.51
762.686	63.69
762.866	63.29
763.046	63.19
763.225	62.51
763.405	62.04
763.585	62.42
763.765	62.24
763.945	62.6
764.124	62.96
764.304	62.78
764.484	62.48
764.664	63
764.843	63.43
765.023	63.75
765.203	64.12
765.382	64.8
765.562	65.13
765.741	65.53
765.921	65.9
766.101	65.81
766.28	65.97
766.46	66.66
766.639	66.36
766.819	66.69
766.998	66.36
767.178	66.57
767.357	66.07
767.537	66.39
767.716	66.8
767.896	66.58
768.075	66.88
768.254	67.47
768.434	67.4
768.613	68.23
768.792	67.43
768.972	68.18
769.151	67.97
769.33	68.53
769.51	68.33
769.689	67.17
769.868	67.18
770.047	68.27
770.226	68.25
770.406	68.37
770.585	67.52
770.764	69.64
770.943	69.28
771.122	69.26
771.301	69.81
771.48	70.14
771.66	71.07
771.839	71.01
772.018	70.35
772.197	69.22
772.376	69.65
772.555	70.05
772.734	69.34
772.913	69.54
773.092	70.16
773.271	69.48
773.449	69.52
773.628	70.35
773.807	71.18
773.986	71.06
774.165	72.59
774.344	71.66
774.523	71.8
774.701	71.06
774.88	71.92
775.059	71.84
775.238	72.05
775.417	71.78
775.595	71.87
775.774	71.96
775.953	72.18
776.131	71.98
776.31	72.82
776.489	72.83
776.667	73.49
776.846	72.88
777.025	71.73
777.203	71.17
777.382	72.13
777.56	71.15
777.739	70.24
777.917	69.69
778.096	70.27
778.274	70.04
778.453	71.39
778.631	71.57
778.81	71.41
778.988	72.8
779.166	74.25
779.345	73.51
779.523	73.6
779.702	73.81
779.88	74.71
780.058	72.74
780.237	73.71
780.415	73.28
780.593	73.86
780.771	74.1
780.95	74.51
781.128	74.16
781.306	74.01
781.484	74.65
781.662	75.76
781.841	75.94
782.019	75.9
782.197	74.4
782.375	73.55
782.553	73.04
782.731	73
782.909	72.79
783.087	73.63
783.265	74.12
783.443	73.45
783.621	72.14
783.799	71.58
783.977	74.42
784.155	73.9
784.333	74.29
784.511	74.49
784.689	74.31
784.867	73.28
785.045	72.07
785.223	71.56
785.4	71.82
785.578	72
785.756	72.29
785.934	71.16
786.112	72.17
786.289	72.13
786.467	71.62
786.645	72.3
786.823	73.36
787	74.01
787.178	73.45
787.356	72.7
787.533	72.98
787.711	74.29
787.889	73.04
788.066	72.8
788.244	72.24
788.421	71.8
788.599	70.5
788.776	69.63
788.954	69.17
789.131	69.71
789.309	70.45
789.486	69.93
789.664	68.97
789.841	69.09
790.019	69.14
790.196	69.61
790.373	70.67
790.551	72.16
790.728	72.6
790.906	72.69
791.083	73.27
791.26	74.35
791.437	75.52
791.615	76.03
791.792	77.31
791.969	76.66
792.146	76.97
792.324	75.85
792.501	74.41
792.678	75.54
792.855	75.07
793.032	75.21
793.209	73.1
793.387	73.46
793.564	72.26
793.741	71.59
793.918	72.41
794.095	72.31
794.272	73.09
794.449	73.85
794.626	72.87
794.803	72.9
794.98	73.14
795.157	75.27
795.334	74.63
795.511	75.19
795.688	74.2
795.864	74.54
796.041	74.41
796.218	74.53
796.395	74.28
796.572	75.3
796.749	75.53
796.925	74.83
797.102	73.89
797.279	74.77
797.456	74.45
797.632	76.29
797.809	77.24
797.986	76.2
798.162	75.31
798.339	74.6
798.516	73.43
798.692	72.52
798.869	72.54
799.046	72.03
799.222	70.87
799.399	70.28
799.575	70.28
799.752	69.4
799.928	71.62
800.105	71.87
800.281	72.61
800.458	73.18
800.634	74.53
800.811	74.49
800.987	74.73
801.163	75.17
801.34	75.32
801.516	74.68
801.692	75.02
801.869	73.47
802.045	73.88
802.221	75.84
802.398	75.6
802.574	74.87
802.75	75.19
802.926	74.88
803.103	75.63
803.279	76.06
803.455	76.49
803.631	76.57
803.807	77.66
803.983	78.99
804.16	77.83
804.336	78.02
804.512	79.02
804.688	77.6
804.864	77.96
805.04	77.09
805.216	77.25
805.392	76.33
805.568	74.58
805.744	74.04
805.92	72.78
806.096	72.35
806.272	72.38
806.448	71.85
806.623	74.37
806.799	75.07
806.975	74.33
807.151	75.77
807.327	75.7
807.503	76.91
807.678	78.71
807.854	79.37
808.03	79.36
808.206	78.42
808.381	77.82
808.557	77.24
808.733	75.71
808.908	77.74
809.084	77.98
809.26	77.57
809.435	78.86
809.611	76.33
809.787	76.26
809.962	74.89
810.138	77.03
810.313	77.5
810.489	75.89
810.664	76.58
810.84	74.16
811.015	73.31
811.191	75.58
811.366	75.37
811.542	77.03
811.717	76.78
811.892	78.92
812.068	77.64
812.243	77.61
812.419	78.56
812.594	78.09
812.769	80.05
812.944	79.58
813.12	78.19
813.295	77.8
813.47	77.92
813.645	78.74
813.821	76.79
813.996	77.09
814.171	76.82
814.346	76.77
814.521	79.86
814.697	78.07
814.872	77.73
815.047	77.22
815.222	75.73
815.397	74.71
815.572	73.34
815.747	73.12
815.922	73.65
816.097	74.24
816.272	74.87
816.447	74.33
816.622	73.96
816.797	73.19
816.972	72.66
817.147	73.68
817.322	73.71
817.496	74.42
817.671	75.98
817.846	75.35
818.021	74.32
818.196	73.22
818.371	71.99
818.545	73.11
818.72	74.72
818.895	74.43
819.069	73.35
819.244	73.46
819.419	71.96
819.594	72.14
819.768	71.07
819.943	69.99
820.117	70.14
820.292	69.8
820.467	68.22
820.641	66.34
820.816	65.86
820.99	65.06
821.165	64.2
821.339	63.22
821.514	62.56
821.688	62.17
821.863	62.04
822.037	61.56
822.212	61.08
822.386	60.77
822.56	60.66
822.735	60.71
822.909	60.63
823.084	60.4
823.258	60.72
823.432	60.34
823.606	60.46
823.781	60.52
823.955	60.46
824.129	60.49
824.303	60.9
824.478	61.05
824.652	61.19
824.826	61.34
825	61.82
825.174	61.97
825.348	62.81
825.523	62.96
825.697	63.11
825.871	63.39
826.045	64.15
826.219	64.05
826.393	63.56
826.567	62.92
826.741	62.75
826.915	62.8
827.089	62.32
827.263	62.01
827.437	62.28
827.611	61.99
827.784	61.96
827.958	62.01
828.132	61.65
828.306	62.12
828.48	62.46
828.654	62.83
828.827	62.57
829.001	63.73
829.175	63.74
829.349	63.48
829.522	64.35
829.696	65.79
829.87	65.01
830.044	66.37
830.217	67.76
830.391	67.43
830.565	67.56
830.738	69.78
830.912	68.78
831.085	70.84
831.259	70.92
831.432	70.75
831.606	69.39
831.779	69.84
831.953	69.99
832.126	69.56
832.3	70.28
832.473	69.92
832.647	67.91
832.82	67.81
832.994	66.54
833.167	65.95
833.34	66.36
833.514	65.81
833.687	65.43
833.86	64.78
834.034	64.6
834.207	64.64
834.38	64.94
834.553	65
834.727	65.16
834.9	65.85
835.073	66.43
835.246	65.37
835.419	65.62
835.593	66.1
835.766	67.63
835.939	68.47
836.112	68.28
836.285	67.91
836.458	68.6
836.631	69.19
836.804	69.52
836.977	69.42
837.15	71.1
837.323	72.66
837.496	74.67
837.669	73.53
837.842	72.91
838.015	75.52
838.188	75.73
838.361	77.39
838.533	78.4
838.706	76.61
838.879	78.5
839.052	80.12
839.225	80.45
839.398	79.44
839.57	80.09
839.743	81.65
839.916	81.93
840.088	82.36
840.261	82.22
840.434	81.24
840.607	82.29
840.779	79.2
840.952	77.85
841.124	77.81
841.297	77.96
841.47	77.54
841.642	77.45
841.815	76.02
841.987	77.19
842.16	77.65
842.332	79.11
842.505	80.88
842.677	84
842.85	83.39
843.022	84.93
843.194	87.7
843.367	89.06
843.539	87.15
843.712	90.28
843.884	88.87
844.056	90.26
844.229	89.09
844.401	91.38
844.573	91.77
844.745	94.74
844.918	91
845.09	85.88
845.262	86.83
845.434	88.16
845.606	87.84
845.779	87.85
845.951	87.21
846.123	87.22
846.295	82.83
846.467	89.35
846.639	88.29
846.811	97.27
846.983	100.26
847.155	100.08
847.327	101.11
847.499	102.65
847.671	110.86
847.843	111.06
848.015	110.71
848.187	114.29
848.359	104.22
848.531	108.66
848.703	104.77
848.875	108.53
849.047	107.83
849.218	108.12
849.39	112.07
849.562	113.23
849.734	109.91
849.905	117.53
850.077	115.52
850.249	119.28
850.421	115.78
850.592	116.59
850.764	110.47
850.936	111.95
851.107	109.4
851.279	103.95
851.451	97.85
851.622	99.86
851.794	98.1
851.965	100.54
852.137	101.74
852.308	99.95
852.48	98.41
852.651	103.88
852.823	99.79
852.994	99.5
853.166	99.97
853.337	106.6
853.509	105.95
853.68	104.99
853.851	100.15
854.023	102.27
854.194	103
854.365	100.64
854.537	97.05
854.708	99.41
854.879	103.93
855.05	107.93
855.222	100.41
855.393	99.86
855.564	97.06
855.735	99.02
855.906	96.63
856.078	98.28
856.249	98.63
856.42	100.84
856.591	99.03
856.762	93.13
856.933	91.34
857.104	94.45
857.275	97.25
857.446	93.95
857.617	95.76
857.788	97.14
857.959	97.06
858.13	100.39
858.301	105.34
858.472	106.91
858.643	112.6
858.814	110.43
858.985	109.3
859.155	109.99
859.326	114.14
859.497	111.01
859.668	105.24
859.839	101.78
860.009	100.37
860.18	94.72
860.351	94.14
860.522	98.19
860.692	100.5
860.863	99.54
861.034	95.86
861.204	97.93
861.375	100.37
861.546	103.89
861.716	110.89
861.887	109.4
862.057	101.15
862.228	103.26
862.398	103.46
862.569	99.51
862.739	98.94
862.91	98.04
863.08	94.84
863.251	98.01
863.421	97.1
863.592	90.9
863.762	92.03
863.932	98.3
864.103	96.45
864.273	94.62
864.443	92.6
864.614	90.61
864.784	92.17
864.954	98.9
865.125	100.65
865.295	99.05
865.465	106.14
865.635	104.33
865.805	106.51
865.976	104.28
866.146	108.32
866.316	116.89
866.486	119.26
866.656	115.39
866.826	111.34
866.996	106.06
867.166	105.44
867.336	109.18
867.506	113.93
867.676	113.93
867.846	119.63
868.016	113.81
868.186	108.28
868.356	112.37
868.526	116.35
868.696	113.54
868.866	111.71
869.036	113.22
869.206	103.01
869.376	102.78
869.545	103.44
869.715	103.28
869.885	103.86
870.055	103.52
870.224	108.14
870.394	104.54
870.564	106.87
870.734	107.52
870.903	108.66
871.073	112.77
871.243	113.15
871.412	113.22
871.582	112.48
871.751	120.93
871.921	131.37
872.091	114.01
872.26	113.98
872.43	114.55
872.599	117.28
872.769	113.92
872.938	113.67
873.108	112.76
873.277	110.58
873.446	108.24
873.616	101.18
873.785	94.45
873.955	99.13
874.124	102.28
874.293	97.18
874.463	95.93
874.632	98.04
874.801	97.35
874.971	96.12
875.14	95.18
875.309	94.07
875.478	93.36
875.647	99.16
875.817	100.03
875.986	101.03
876.155	102.11
876.324	104.34
876.493	106.83
876.662	104.08
876.831	104.27
877	104.59
877.17	107.04
877.339	111.23
877.508	106.12
877.677	104.01
877.846	102
878.015	106.65
878.184	104.42
878.352	104.63
878.521	109.55
878.69	106.99
878.859	105.9
879.028	102.11
879.197	96.83
879.366	89.13
879.534	87.61
879.703	86.76
879.872	82.18
880.041	77.86
880.21	72.65
880.378	70.56
880.547	66.7
880.716	65.19
880.884	64.93
881.053	63.75
881.222	62.58
881.39	60.87
881.559	58.67
881.727	57.87
881.896	57.09
882.065	56.73
882.233	56.38
882.402	57.16
882.57	56.27
882.739	55.1
882.907	54.97
883.076	55.56
883.244	55.9
883.412	56.11
883.581	56.48
883.749	57.15
883.918	57.33
884.086	56.58
884.254	56.31
884.423	57.75
884.591	59.02
884.759	61.02
884.927	61.07
885.096	62.7
885.264	65.24
885.432	66.2
885.6	67.45
885.769	69.69
885.937	71.21
886.105	74.44
886.273	77.58
886.441	79.33
886.609	79.16
886.777	80.4
886.945	82.12
887.113	83.86
887.281	84.8
887.449	87.19
887.617	87.69
887.785	94.15
887.953	93.01
888.121	95.02
888.289	93.26
888.457	96.1
888.625	101.01
888.793	98.13
888.961	89.4
889.129	95.52
889.296	100.63
889.464	103.8
889.632	100.82
889.8	101.29
889.967	97.77
890.135	103.57
