Data from 2938803__Reflection_01.txt Node
Date: Thu Mar 12 22:31:29 EDT 2015
User: robert
Spectrometer: USB4E03002
Autoset integration time: false
Trigger mode: 4
Integration Time (sec): 1.000000E-1
Scans to average: 10
Electric dark correction enabled: false
Nonlinearity correction enabled: false
Boxcar width: 5
Stray light correction enabled: false
XAxis mode: Wavelengths
Stop averaging: false
Number of Pixels in Spectrum: 3648
>>>>>Begin Spectral Data<<<<<
177.575	46.38
177.794	89.27
178.014	72.73
178.233	80.2
178.452	38.61
178.672	43.95
178.891	-13.79
179.11	-8.65
179.33	-91.3
179.549	-37.38
179.768	-14.92
179.987	-4.05
180.207	-75.57
180.426	-30.52
180.645	-10.88
180.864	-20.54
181.084	7.14
181.303	10.13
181.522	-44.57
181.741	37.29
181.96	53.21
182.179	-18.93
182.398	-3.15
182.618	48.88
182.837	55.56
183.056	262.86
183.275	215
183.494	-20
183.713	-388.24
183.932	-76.27
184.151	32.48
184.37	-321.05
184.589	-20.45
184.808	40.74
185.027	1750
185.246	229.33
185.465	146.21
185.684	322.54
185.903	102.08
186.122	90.94
186.341	77.2
186.56	123.55
186.779	152.51
186.998	154.49
187.216	132.64
187.435	122.78
187.654	123.92
187.873	164.52
188.092	250.2
188.311	341.32
188.53	4614.29
188.748	-1823.53
188.967	452.08
189.186	309.42
189.405	641.18
189.623	440
189.842	253.12
190.061	206.25
190.28	140.52
190.498	119.46
190.717	215.93
190.936	247.19
191.154	165.26
191.373	192.09
191.592	156.97
191.81	168.2
192.029	201.17
192.248	177.44
192.466	20
192.685	62.37
192.904	27.78
193.122	-200
193.341	-356.52
193.559	-179.63
193.778	-72.03
193.996	-797.62
194.215	-85.31
194.433	-10.56
194.652	278.72
194.87	-31.25
195.089	53.4
195.307	85.43
195.526	123.68
195.744	-4.08
195.963	22
196.181	-31.01
196.399	-926.32
196.618	-312.77
196.836	-105.56
197.055	96.49
197.273	23.08
197.491	82.2
197.71	-737.5
197.928	-29.71
198.146	19.77
198.365	-51.65
198.583	-44.87
198.801	80
199.019	128.99
199.238	-76.67
199.456	-16.18
199.674	258.33
199.892	-165.12
200.111	98.98
200.329	-85.07
200.547	-300
200.765	281.4
200.983	77.19
201.202	104.85
201.42	79.9
201.638	102.01
201.856	37.46
202.074	127.71
202.292	93.36
202.51	86.75
202.728	104.62
202.946	118.35
203.165	91.6
203.383	106.37
203.601	60.93
203.819	117.24
204.037	690.91
204.255	155.16
204.473	119.62
204.691	-2740
204.909	170.44
205.127	155.36
205.345	130.65
205.562	173.21
205.78	137.36
205.998	162.65
206.216	174.58
206.434	187.91
206.652	191.9
206.87	165.21
207.088	134.51
207.306	113.13
207.523	138.79
207.741	120.51
207.959	82.71
208.177	100
208.395	59.17
208.612	59.76
208.83	26.04
209.048	-1.2
209.266	25.98
209.483	57.61
209.701	67.01
209.919	79.18
210.136	85.89
210.354	93.5
210.572	103.68
210.79	115.25
211.007	97.3
211.225	76.45
211.442	81.94
211.66	82.45
211.878	62.28
212.095	84.26
212.313	70.98
212.53	30.94
212.748	28.55
212.966	8.29
213.183	-1.41
213.401	0.15
213.618	-3.98
213.836	14.64
214.053	31.46
214.271	59.85
214.488	30.31
214.705	40.4
214.923	62.08
215.14	40.86
215.358	46.57
215.575	40.49
215.793	33.47
216.01	57.53
216.227	24.56
216.445	1.93
216.662	-9.84
216.879	6.21
217.097	-20.64
217.314	-12.65
217.531	14.32
217.749	4.75
217.966	22
218.183	24.24
218.4	32.11
218.618	44.79
218.835	45.44
219.052	32.25
219.269	29.98
219.487	48.1
219.704	61.25
219.921	58.09
220.138	56.48
220.355	48.92
220.572	52.36
220.79	48.54
221.007	39.09
221.224	33.57
221.441	37.55
221.658	35.99
221.875	23.64
222.092	13.76
222.309	13.3
222.526	19.56
222.743	20.53
222.96	18.44
223.177	10.25
223.394	17.97
223.611	28.34
223.828	30.84
224.045	33.19
224.262	40.97
224.479	40.87
224.696	41.76
224.913	35.51
225.13	31.75
225.347	32.34
225.564	35.23
225.781	32.56
225.997	26.25
226.214	21.35
226.431	16.1
226.648	10.47
226.865	10.87
227.082	9.69
227.298	9.68
227.515	8.22
227.732	7.81
227.949	7.1
228.165	6.81
228.382	5.35
228.599	6.44
228.816	6.85
229.032	6.94
229.249	6.33
229.466	5.79
229.682	5.13
229.899	5.71
230.116	4.96
230.332	5.66
230.549	5.64
230.765	6.84
230.982	7.63
231.199	7.09
231.415	7.36
231.632	7.99
231.848	7.75
232.065	8.1
232.281	8.5
232.498	9.24
232.714	8.43
232.931	7.07
233.147	6.64
233.364	4.27
233.58	4.77
233.797	3.47
234.013	3.85
234.23	3.6
234.446	4.3
234.662	4.17
234.879	4.21
235.095	4.42
235.312	5.27
235.528	7.02
235.744	7.73
235.961	7.89
236.177	7.84
236.393	6.79
236.61	7.7
236.826	6.62
237.042	5.29
237.258	4.3
237.475	3.53
237.691	3.64
237.907	1.64
238.123	-0.08
238.339	-1.37
238.556	0.24
238.772	0.96
238.988	0.77
239.204	3.16
239.42	4.01
239.636	5.44
239.853	7.2
240.069	6.29
240.285	6.5
240.501	7.08
240.717	8.12
240.933	8.09
241.149	7.8
241.365	7.62
241.581	7.41
241.797	7.64
242.013	7.58
242.229	7.21
242.445	7.75
242.661	7.98
242.877	7.98
243.093	7.44
243.309	7.61
243.525	7.29
243.741	7.55
243.957	7.35
244.173	6.56
244.388	6.71
244.604	6.61
244.82	6.03
245.036	5.24
245.252	5.61
245.468	5.77
245.683	5.83
245.899	6.86
246.115	6.82
246.331	7
246.547	7.21
246.762	6.87
246.978	6.72
247.194	6.83
247.409	7.08
247.625	7.06
247.841	7.14
248.057	7.09
248.272	6.67
248.488	6.66
248.703	6.58
248.919	6.25
249.135	6.59
249.35	6.63
249.566	6.31
249.782	6.09
249.997	6.4
250.213	6.83
250.428	7.07
250.644	6.95
250.859	6.66
251.075	6.36
251.29	6.47
251.506	5.9
251.721	5.44
251.937	5.06
252.152	5.42
252.368	4.54
252.583	4.08
252.798	3.77
253.014	3.89
253.229	3.77
253.445	4.23
253.66	4.33
253.875	4.03
254.091	4.66
254.306	5.9
254.521	4.9
254.737	4.86
254.952	5.06
255.167	4.97
255.383	4.37
255.598	3.92
255.813	3.13
256.028	3.1
256.244	3.78
256.459	3.32
256.674	3.32
256.889	3.58
257.104	4.09
257.32	4.57
257.535	4.37
257.75	4.53
257.965	5.62
258.18	5.76
258.395	5.81
258.61	5.55
258.826	5.41
259.041	5.08
259.256	4.96
259.471	4.82
259.686	4.83
259.901	5.06
260.116	5.1
260.331	4.73
260.546	4.71
260.761	4.76
260.976	4.7
261.191	4.77
261.406	4.67
261.621	4.66
261.836	4.68
262.05	4.13
262.265	3.89
262.48	3.78
262.695	3.84
262.91	3.97
263.125	4.06
263.34	4.49
263.555	4.7
263.769	4.64
263.984	4.49
264.199	4.55
264.414	5.56
264.629	5.41
264.843	5.75
265.058	5.58
265.273	5.09
265.488	5.18
265.702	4.62
265.917	4.51
266.132	4.84
266.346	5.12
266.561	5.19
266.776	5.19
266.99	4.88
267.205	4.59
267.42	4.49
267.634	4.7
267.849	4.43
268.063	4.42
268.278	4.35
268.492	4.53
268.707	4.35
268.922	4.89
269.136	4.1
269.351	4.31
269.565	3.93
269.78	4.25
269.994	3.91
270.209	3.74
270.423	3.77
270.637	3.62
270.852	3.1
271.066	3.4
271.281	3.02
271.495	3.38
271.709	3.78
271.924	4.17
272.138	4.06
272.353	4.26
272.567	4.27
272.781	4.4
272.996	4.46
273.21	4.99
273.424	5.1
273.638	5.41
273.853	5.26
274.067	4.86
274.281	5.17
274.495	5.14
274.71	4.78
274.924	5.01
275.138	4.61
275.352	4.39
275.566	4.25
275.781	4.36
275.995	4.2
276.209	4.41
276.423	4.6
276.637	4.37
276.851	4.36
277.065	4.93
277.279	4.9
277.493	5.42
277.707	5.65
277.921	5.86
278.135	5.86
278.349	5.53
278.563	5.51
278.777	5.71
278.991	5.14
279.205	5.17
279.419	5
279.633	4.88
279.847	4.98
280.061	5.18
280.275	4.9
280.489	4.7
280.703	4.73
280.917	4.86
281.131	4.74
281.344	4.92
281.558	4.64
281.772	4.47
281.986	4.26
282.2	3.84
282.414	3.67
282.627	3.68
282.841	3.76
283.055	3.96
283.269	3.97
283.482	4.03
283.696	4.08
283.91	4.36
284.123	4.7
284.337	5.35
284.551	5.46
284.764	5.65
284.978	5.61
285.192	5.34
285.405	5.42
285.619	5.18
285.833	5.21
286.046	5.2
286.26	5.2
286.473	5.12
286.687	4.9
286.9	5.15
287.114	4.99
287.327	5.37
287.541	5.49
287.754	5.45
287.968	5.66
288.181	5.78
288.395	5.75
288.608	5.88
288.822	5.97
289.035	5.86
289.248	5.75
289.462	5.87
289.675	5.32
289.889	5.22
290.102	4.9
290.315	4.94
290.529	5.11
290.742	5.29
290.955	5.29
291.169	5.15
291.382	5.31
291.595	5.47
291.808	5.52
292.022	5.57
292.235	5.93
292.448	6.32
292.661	6.05
292.875	5.93
293.088	6.28
293.301	6.46
293.514	6.35
293.727	6.26
293.94	6.24
294.153	6.12
294.367	6.46
294.58	6.26
294.793	6.41
295.006	6.98
295.219	6.91
295.432	6.74
295.645	6.72
295.858	6.89
296.071	7.18
296.284	7.15
296.497	7.21
296.71	7.33
296.923	7.61
297.136	7.44
297.349	7.14
297.562	7.22
297.775	7.43
297.988	7.31
298.201	7.43
298.414	7.29
298.626	7.31
298.839	7.51
299.052	7.41
299.265	7.16
299.478	7.37
299.691	7.51
299.903	7.55
300.116	7.46
300.329	7.83
300.542	7.95
300.755	8.25
300.967	8.46
301.18	8.68
301.393	9.08
301.605	9.25
301.818	9.42
302.031	9.68
302.243	9.84
302.456	10.03
302.669	10.08
302.881	10.11
303.094	10.09
303.307	10.02
303.519	9.58
303.732	9.33
303.944	9.29
304.157	9.46
304.37	9.18
304.582	9.1
304.795	9.23
305.007	9.46
305.22	9.46
305.432	9.22
305.645	9.16
305.857	9.5
306.069	9.74
306.282	9.91
306.494	9.55
306.707	9.86
306.919	9.73
307.132	9.49
307.344	9.28
307.556	9.06
307.769	9.34
307.981	9.51
308.193	9.43
308.406	9.13
308.618	8.86
308.83	8.91
309.043	8.89
309.255	9.18
309.467	9.24
309.679	9.18
309.892	9.34
310.104	9.1
310.316	9.15
310.528	9.33
310.74	9.46
310.953	9.66
311.165	9.91
311.377	10.18
311.589	9.96
311.801	10.11
312.013	10.03
312.225	10.02
312.437	10.51
312.649	10.49
312.862	10.31
313.074	10.21
313.286	10.69
313.498	10.45
313.71	10.22
313.922	10.42
314.134	10.21
314.346	10.5
314.558	10.88
314.77	10.55
314.982	10.42
315.193	10.42
315.405	10.67
315.617	10.53
315.829	10.3
316.041	10.38
316.253	10.1
316.465	10.39
316.677	10.51
316.888	10.48
317.1	10.55
317.312	10.96
317.524	10.99
317.736	11.01
317.947	10.73
318.159	11.01
318.371	11.02
318.583	11.41
318.794	11.11
319.006	11.23
319.218	11.06
319.43	10.91
319.641	10.81
319.853	11.03
320.064	10.7
320.276	10.64
320.488	10.93
320.699	10.84
320.911	10.56
321.123	10.6
321.334	10.35
321.546	10.42
321.757	10.44
321.969	10.46
322.18	9.97
322.392	10.66
322.603	11.28
322.815	11.06
323.026	10.84
323.238	10.73
323.449	10.59
323.661	10.53
323.872	10.43
324.083	10.83
324.295	10.7
324.506	11.23
324.718	11.08
324.929	11.19
325.14	11.38
325.352	11.67
325.563	12.08
325.774	12.58
325.986	12.86
326.197	12.81
326.408	12.86
326.62	13.04
326.831	13.19
327.042	13.04
327.253	12.79
327.464	13.14
327.676	13.35
327.887	13.11
328.098	13.06
328.309	12.91
328.52	13.05
328.732	12.89
328.943	12.96
329.154	12.85
329.365	13.62
329.576	14.28
329.787	13.7
329.998	13.78
330.209	14.27
330.42	14.1
330.631	14.25
330.842	14.38
331.053	14.65
331.264	14.7
331.475	14.74
331.686	14.73
331.897	14.34
332.108	14.86
332.319	15.23
332.53	15.19
332.741	15.29
332.952	15.53
333.163	15.79
333.374	15.9
333.585	15.77
333.795	16.12
334.006	15.89
334.217	16.01
334.428	16.21
334.639	15.6
334.849	15.77
335.06	15.73
335.271	15.72
335.482	15.4
335.692	15.21
335.903	15.43
336.114	15.11
336.325	15.17
336.535	15.2
336.746	14.92
336.957	15.1
337.167	14.8
337.378	14.82
337.589	14.98
337.799	15.36
338.01	15.41
338.22	15.23
338.431	15.27
338.642	14.98
338.852	14.79
339.063	14.7
339.273	14.61
339.484	14.87
339.694	14.93
339.905	14.47
340.115	13.97
340.326	13.86
340.536	14.03
340.746	13.85
340.957	14.31
341.167	14.63
341.378	14.66
341.588	14.78
341.799	14.6
342.009	14.51
342.219	14.63
342.43	14.72
342.64	14.72
342.85	14.63
343.061	15.05
343.271	14.95
343.481	14.44
343.691	14.63
343.902	14.71
344.112	14.88
344.322	15.19
344.532	15.11
344.743	15.47
344.953	15.38
345.163	15.25
345.373	15.29
345.583	14.83
345.793	14.71
346.004	14.31
346.214	14.36
346.424	14.13
346.634	13.99
346.844	14.13
347.054	13.86
347.264	13.79
347.474	13.67
347.684	13.29
347.894	13.66
348.104	13.93
348.314	14.38
348.524	14.36
348.734	14.57
348.944	14.43
349.154	14.33
349.364	14.34
349.574	14.09
349.784	14.18
349.994	14.4
350.204	14.36
350.413	14.55
350.623	14.14
350.833	13.95
351.043	14.08
351.253	14.43
351.463	14.72
351.672	14.44
351.882	14.53
352.092	14.57
352.302	14.25
352.511	13.94
352.721	13.94
352.931	14.1
353.141	14.07
353.35	13.82
353.56	13.6
353.77	13.53
353.979	13.81
354.189	14.26
354.399	14.44
354.608	14.77
354.818	15.19
355.027	14.86
355.237	14.84
355.447	14.88
355.656	14.89
355.866	14.82
356.075	14.69
356.285	14.59
356.494	14.41
356.704	14.29
356.913	14.09
357.123	13.96
357.332	14.07
357.542	13.89
357.751	13.92
357.96	13.68
358.17	13.46
358.379	13.25
358.589	13.06
358.798	13.1
359.007	13.17
359.217	13.15
359.426	12.93
359.635	12.8
359.845	12.87
360.054	12.77
360.263	13.01
360.472	13.22
360.682	13.41
360.891	13.62
361.1	13.53
361.309	13.52
361.519	13.57
361.728	13.73
361.937	13.99
362.146	13.93
362.355	13.93
362.564	13.97
362.774	13.97
362.983	13.7
363.192	13.79
363.401	13.58
363.61	13.45
363.819	13.4
364.028	13.08
364.237	12.68
364.446	12.74
364.655	12.83
364.864	12.72
365.073	12.6
365.282	12.64
365.491	12.27
365.7	12.37
365.909	12.39
366.118	12.44
366.327	12.66
366.536	12.6
366.745	12.76
366.954	12.63
367.162	12.62
367.371	12.56
367.58	12.67
367.789	12.86
367.998	13.07
368.207	12.96
368.415	12.93
368.624	12.98
368.833	13.18
369.042	12.82
369.25	12.57
369.459	12.59
369.668	12.76
369.877	12.74
370.085	12.8
370.294	12.55
370.503	12.43
370.711	12.25
370.92	12.07
371.129	12.23
371.337	12.4
371.546	12.47
371.754	12.3
371.963	11.99
372.171	11.91
372.38	11.72
372.589	11.68
372.797	11.75
373.006	11.92
373.214	11.95
373.423	11.6
373.631	11.68
373.84	11.65
374.048	11.41
374.256	11.54
374.465	11.42
374.673	11.21
374.882	11.31
375.09	11.13
375.298	10.98
375.507	11.14
375.715	11.22
375.923	10.93
376.132	10.93
376.34	11.01
376.548	10.7
376.757	10.75
376.965	10.99
377.173	11
377.381	10.89
377.59	10.63
377.798	10.25
378.006	10.16
378.214	10.14
378.423	9.99
378.631	9.84
378.839	9.83
379.047	9.66
379.255	9.52
379.463	9.42
379.671	9.7
379.879	9.65
380.088	9.84
380.296	9.57
380.504	9.67
380.712	9.76
380.92	9.62
381.128	9.76
381.336	9.77
381.544	9.46
381.752	9.3
381.96	8.99
382.168	8.95
382.376	8.83
382.584	8.91
382.791	8.81
382.999	8.49
383.207	8.6
383.415	8.49
383.623	8.64
383.831	8.47
384.039	8.71
384.247	8.93
384.454	8.93
384.662	8.8
384.87	8.91
385.078	8.8
385.285	9.11
385.493	9.27
385.701	9.17
385.909	8.83
386.116	9.04
386.324	8.88
386.532	8.65
386.739	8.64
386.947	8.41
387.155	8.33
387.362	8.38
387.57	8.19
387.778	7.97
387.985	7.98
388.193	8.15
388.4	8.22
388.608	8.17
388.816	8.17
389.023	8.22
389.231	8.3
389.438	8.15
389.646	8.01
389.853	8.08
390.061	8.04
390.268	8.02
390.475	7.89
390.683	7.86
390.89	7.63
391.098	7.63
391.305	7.65
391.512	7.67
391.72	7.7
391.927	7.59
392.135	7.64
392.342	7.58
392.549	7.49
392.756	7.39
392.964	7.41
393.171	7.72
393.378	7.53
393.586	7.46
393.793	7.37
394	7.27
394.207	7.36
394.414	7.21
394.622	7.22
394.829	7.34
395.036	7.41
395.243	7.37
395.45	7.07
395.657	7.18
395.864	6.99
396.072	7.1
396.279	7.11
396.486	7.1
396.693	7.06
396.9	6.96
397.107	6.88
397.314	6.75
397.521	6.67
397.728	6.51
397.935	6.62
398.142	6.83
398.349	6.76
398.556	6.74
398.763	6.66
398.97	6.48
399.177	6.41
399.383	6.41
399.59	6.51
399.797	6.57
400.004	6.53
400.211	6.47
400.418	6.28
400.625	6.27
400.831	6.14
401.038	6.21
401.245	6.1
401.452	6.39
401.658	6.38
401.865	6.38
402.072	6.27
402.279	6.31
402.485	6.36
402.692	6.34
402.899	6.43
403.105	6.52
403.312	6.41
403.519	6.61
403.725	6.34
403.932	6.26
404.138	6.15
404.345	6.14
404.552	6.22
404.758	6.03
404.965	6.08
405.171	5.86
405.378	5.75
405.584	5.74
405.791	5.59
405.997	5.69
406.204	5.69
406.41	5.77
406.617	5.79
406.823	5.76
407.029	5.85
407.236	5.91
407.442	5.92
407.649	6.01
407.855	5.83
408.061	6.02
408.268	5.84
408.474	5.99
408.68	5.98
408.887	5.74
409.093	5.84
409.299	5.78
409.505	5.64
409.712	5.73
409.918	5.69
410.124	5.88
410.33	5.78
410.537	5.78
410.743	5.65
410.949	5.54
411.155	5.65
411.361	5.43
411.567	5.51
411.773	5.49
411.98	5.45
412.186	5.56
412.392	5.52
412.598	5.42
412.804	5.59
413.01	5.47
413.216	5.59
413.422	5.69
413.628	5.9
413.834	5.9
414.04	6.01
414.246	5.88
414.452	5.95
414.658	6
414.864	6.04
415.07	6.13
415.275	6.08
415.481	5.96
415.687	5.78
415.893	5.76
416.099	5.74
416.305	5.79
416.511	5.89
416.716	5.71
416.922	5.63
417.128	5.66
417.334	5.58
417.539	5.64
417.745	5.61
417.951	5.69
418.157	5.68
418.362	5.66
418.568	5.56
418.774	5.49
418.979	5.51
419.185	5.57
419.391	5.56
419.596	5.47
419.802	5.45
420.008	5.52
420.213	4.83
420.419	4.77
420.624	4.77
420.83	4.81
421.035	4.9
421.241	4.87
421.446	4.8
421.652	4.76
421.857	4.8
422.063	4.83
422.268	4.8
422.474	5.42
422.679	5.47
422.885	5.4
423.09	5.35
423.295	5.27
423.501	5.39
423.706	5.37
423.911	5.42
424.117	5.38
424.322	5.38
424.527	5.22
424.733	5.14
424.938	5.08
425.143	5.14
425.349	5.14
425.554	5.13
425.759	5.06
425.964	5.06
426.169	5.05
426.375	5.02
426.58	4.93
426.785	5.05
426.99	5.11
427.195	5.09
427.4	5.05
427.605	5.09
427.811	5.14
428.016	5.1
428.221	5.18
428.426	5.15
428.631	5.26
428.836	5.34
429.041	5.52
429.246	5.44
429.451	5.48
429.656	5.43
429.861	5.3
430.066	5.31
430.271	5.23
430.476	5.11
430.681	5.11
430.886	5.06
431.09	5.11
431.295	4.9
431.5	4.94
431.705	4.97
431.91	4.92
432.115	4.93
432.32	4.94
432.524	4.99
432.729	5.05
432.934	5.01
433.139	4.99
433.343	4.82
433.548	4.85
433.753	4.9
433.958	4.94
434.162	4.99
434.367	5.02
434.572	5.04
434.776	5.03
434.981	5.01
435.186	5.12
435.39	5.2
435.595	5.3
435.799	5.33
436.004	5.34
436.209	5.25
436.413	5.26
436.618	5.29
436.822	5.23
437.027	5.16
437.231	5.07
437.436	5.01
437.64	4.99
437.845	5.02
438.049	5.11
438.253	5.11
438.458	5.17
438.662	5.17
438.867	5.2
439.071	5.19
439.275	5.19
439.48	5.24
439.684	5.2
439.888	5.26
440.093	5.19
440.297	5.13
440.501	5.16
440.706	5.14
440.91	5.09
441.114	4.97
441.318	4.97
441.523	5.02
441.727	5.04
441.931	5.04
442.135	4.92
442.339	4.99
442.543	4.87
442.748	4.84
442.952	4.84
443.156	4.91
443.36	5.02
443.564	5.1
443.768	5.12
443.972	5.1
444.176	5.18
444.38	5.16
444.584	5.12
444.788	5.18
444.992	5.16
445.196	5.19
445.4	5.19
445.604	5.21
445.808	5.12
446.012	5.05
446.216	5.04
446.42	4.99
446.624	4.97
446.828	5
447.032	4.97
447.235	4.94
447.439	4.87
447.643	4.8
447.847	4.74
448.051	4.72
448.254	4.75
448.458	4.67
448.662	4.59
448.866	4.63
449.069	4.59
449.273	4.65
449.477	4.64
449.681	4.62
449.884	4.77
450.088	4.83
450.292	4.9
450.495	4.89
450.699	5.03
450.902	5.1
451.106	5.09
451.31	5.08
451.513	5.04
451.717	5.05
451.92	5.16
452.124	5.01
452.327	4.94
452.531	4.96
452.734	4.9
452.938	4.88
453.141	4.85
453.345	4.81
453.548	4.81
453.752	4.86
453.955	4.96
454.158	4.87
454.362	4.83
454.565	4.84
454.769	4.91
454.972	5.02
455.175	5.03
455.379	5.05
455.582	5.2
455.785	5.11
455.988	5.05
456.192	4.95
456.395	5.1
456.598	5.23
456.801	5.21
457.005	5.1
457.208	5.1
457.411	5.17
457.614	5.02
457.817	4.89
458.021	4.94
458.224	4.97
458.427	4.91
458.63	4.86
458.833	4.74
459.036	4.8
459.239	4.77
459.442	4.8
459.645	4.67
459.848	4.78
460.051	4.86
460.254	4.87
460.457	4.9
460.66	4.9
460.863	4.9
461.066	4.93
461.269	4.85
461.472	4.88
461.675	4.86
461.878	4.9
462.081	4.87
462.284	4.81
462.486	4.79
462.689	4.85
462.892	4.9
463.095	4.84
463.298	4.92
463.5	4.95
463.703	4.96
463.906	4.94
464.109	5.04
464.311	5.19
464.514	5.19
464.717	5.26
464.92	5.17
465.122	5.14
465.325	5.18
465.528	5.11
465.73	5.24
465.933	5.26
466.135	5.16
466.338	5.09
466.541	4.99
466.743	4.96
466.946	4.96
467.148	4.95
467.351	5.01
467.553	4.98
467.756	4.91
467.958	4.82
468.161	4.69
468.363	4.77
468.566	4.78
468.768	4.7
468.971	4.66
469.173	4.62
469.375	4.68
469.578	4.72
469.78	4.72
469.983	4.8
470.185	4.76
470.387	4.84
470.59	4.95
470.792	5.13
470.994	5.21
471.196	5.24
471.399	5.28
471.601	5.21
471.803	5.08
472.005	5.13
472.208	5.22
472.41	5.26
472.612	5.3
472.814	5.22
473.016	5.04
473.218	5.07
473.421	5.09
473.623	5.11
473.825	5.14
474.027	5.13
474.229	5.15
474.431	5.04
474.633	5.09
474.835	5.12
475.037	5.05
475.239	5.1
475.441	5.03
475.643	5.04
475.845	5.03
476.047	5.04
476.249	5.16
476.451	5.06
476.653	5.11
476.855	5.2
477.057	5.1
477.258	5.12
477.46	5.09
477.662	5.15
477.864	5.22
478.066	5.22
478.268	5.19
478.469	5.19
478.671	5.25
478.873	5.24
479.075	5.09
479.276	5.15
479.478	5.2
479.68	5.27
479.882	5.17
480.083	5.1
480.285	5.02
480.487	5.06
480.688	5.03
480.89	5.01
481.091	5.04
481.293	5.08
481.495	4.98
481.696	4.99
481.898	4.96
482.099	4.97
482.301	4.94
482.502	4.96
482.704	4.93
482.905	4.88
483.107	4.84
483.308	4.83
483.51	4.82
483.711	4.84
483.913	4.83
484.114	4.81
484.315	4.8
484.517	4.81
484.718	4.79
484.92	4.79
485.121	4.81
485.322	4.84
485.524	4.82
485.725	4.84
485.926	4.83
486.127	4.81
486.329	4.82
486.53	4.86
486.731	4.87
486.932	4.86
487.134	4.84
487.335	4.83
487.536	4.84
487.737	4.84
487.938	4.8
488.139	4.8
488.341	4.83
488.542	4.83
488.743	4.82
488.944	4.81
489.145	4.82
489.346	4.82
489.547	4.83
489.748	4.81
489.949	4.82
490.15	4.9
490.351	4.94
490.552	4.92
490.753	4.9
490.954	4.91
491.155	4.91
491.356	4.98
491.557	5
491.758	5.02
491.959	5.06
492.159	5.07
492.36	5.03
492.561	5.04
492.762	5.06
492.963	5.1
493.164	5.09
493.364	5.14
493.565	5.16
493.766	5.18
493.967	5.17
494.167	5.18
494.368	5.2
494.569	5.25
494.769	5.26
494.97	5.29
495.171	5.28
495.371	5.27
495.572	5.17
495.773	5.17
495.973	5.13
496.174	5.2
496.375	5.24
496.575	5.27
496.776	5.31
496.976	5.3
497.177	5.34
497.377	5.34
497.578	5.37
497.778	5.42
497.979	5.36
498.179	5.43
498.38	5.44
498.58	5.42
498.78	5.47
498.981	5.45
499.181	5.46
499.382	5.39
499.582	5.51
499.782	5.56
499.983	5.62
500.183	5.71
500.383	5.79
500.584	5.82
500.784	5.86
500.984	5.85
501.184	5.9
501.385	5.93
501.585	6.05
501.785	5.98
501.985	6.03
502.185	6.02
502.386	6.05
502.586	6.02
502.786	6.09
502.986	6.12
503.186	6.27
503.386	6.29
503.586	6.35
503.786	6.4
503.987	6.49
504.187	6.57
504.387	6.67
504.587	6.77
504.787	6.79
504.987	6.85
505.187	6.93
505.387	6.83
505.587	6.86
505.786	6.94
505.986	7
506.186	7.07
506.386	7.07
506.586	7.11
506.786	7.09
506.986	7.24
507.186	7.28
507.386	7.27
507.585	7.4
507.785	7.53
507.985	7.59
508.185	7.6
508.384	7.69
508.584	7.79
508.784	7.77
508.984	7.82
509.183	7.82
509.383	7.86
509.583	7.91
509.782	7.95
509.982	7.93
510.182	8.02
510.381	8.11
510.581	8.17
510.781	8.27
510.98	8.43
511.18	8.53
511.379	8.69
511.579	8.73
511.778	8.87
511.978	8.94
512.177	9.06
512.377	9.13
512.576	9.18
512.776	9.26
512.975	9.28
513.175	9.32
513.374	9.34
513.573	9.27
513.773	9.47
513.972	9.6
514.172	9.8
514.371	9.96
514.57	10.02
514.77	10.1
514.969	10.17
515.168	10.36
515.367	10.53
515.567	10.75
515.766	10.95
515.965	11
516.164	10.99
516.364	11.01
516.563	11.07
516.762	11.11
516.961	11.27
517.16	11.45
517.359	11.53
517.559	11.67
517.758	11.8
517.957	11.94
518.156	12.07
518.355	12.21
518.554	12.33
518.753	12.39
518.952	12.57
519.151	12.62
519.35	12.59
519.549	12.64
519.748	12.67
519.947	12.74
520.146	12.82
520.345	12.84
520.544	12.94
520.743	13.05
520.942	13.16
521.141	13.28
521.339	13.5
521.538	13.7
521.737	13.84
521.936	13.89
522.135	13.92
522.333	14.11
522.532	14.25
522.731	14.42
522.93	14.45
523.129	14.58
523.327	14.64
523.526	14.7
523.725	14.88
523.923	14.99
524.122	15.18
524.321	15.38
524.519	15.44
524.718	15.55
524.917	15.6
525.115	15.78
525.314	15.89
525.512	16.08
525.711	16.2
525.909	16.26
526.108	16.44
526.306	16.58
526.505	16.63
526.703	16.71
526.902	16.88
527.1	17.01
527.299	17.1
527.497	17.18
527.696	17.24
527.894	17.33
528.092	17.4
528.291	17.45
528.489	17.48
528.688	17.57
528.886	17.66
529.084	17.71
529.283	17.76
529.481	17.82
529.679	17.84
529.877	17.94
530.076	18
530.274	18.06
530.472	18.1
530.67	18.2
530.869	18.24
531.067	18.3
531.265	18.34
531.463	18.46
531.661	18.56
531.859	18.73
532.057	18.84
532.255	18.94
532.454	19.06
532.652	19.16
532.85	19.25
533.048	19.35
533.246	19.45
533.444	19.52
533.642	19.53
533.84	19.61
534.038	19.65
534.236	19.63
534.434	19.69
534.632	19.76
534.83	19.86
535.027	19.91
535.225	19.99
535.423	20
535.621	20.13
535.819	20.2
536.017	20.26
536.215	20.34
536.412	20.41
536.61	20.44
536.808	20.5
537.006	20.47
537.203	20.53
537.401	20.6
537.599	20.71
537.797	20.7
537.994	20.81
538.192	20.9
538.39	21.02
538.587	21.11
538.785	21.22
538.983	21.32
539.18	21.46
539.378	21.5
539.575	21.67
539.773	21.78
539.97	21.9
540.168	22.02
540.366	22.15
540.563	22.2
540.761	22.22
540.958	22.31
541.155	22.32
541.353	22.36
541.55	22.46
541.748	22.41
541.945	22.46
542.143	22.43
542.34	22.4
542.537	22.35
542.735	22.34
542.932	22.38
543.129	22.33
543.327	22.37
543.524	22.44
543.721	22.44
543.919	22.55
544.116	22.53
544.313	22.57
544.51	22.68
544.708	22.79
544.905	22.88
545.102	23.02
545.299	23.15
545.496	23.21
545.693	23.22
545.891	23.25
546.088	23.19
546.285	23.19
546.482	23.25
546.679	23.27
546.876	23.25
547.073	23.24
547.27	23.18
547.467	23.18
547.664	23.16
547.861	23.22
548.058	23.22
548.255	23.35
548.452	23.31
548.649	23.43
548.846	23.37
549.043	23.46
549.24	23.57
549.437	23.64
549.633	23.59
549.83	23.56
550.027	23.48
550.224	23.53
550.421	23.51
550.618	23.65
550.814	23.6
551.011	23.66
551.208	23.65
551.405	23.58
551.601	23.57
551.798	23.6
551.995	23.65
552.191	23.73
552.388	23.7
552.585	23.74
552.781	23.78
552.978	23.82
553.175	23.87
553.371	23.95
553.568	24.04
553.764	24.05
553.961	24.13
554.157	24.22
554.354	24.18
554.55	24.27
554.747	24.27
554.943	24.38
555.14	24.38
555.336	24.44
555.533	24.41
555.729	24.43
555.926	24.53
556.122	24.55
556.318	24.53
556.515	24.56
556.711	24.55
556.907	24.65
557.104	24.69
557.3	24.78
557.496	24.72
557.693	24.63
557.889	24.47
558.085	24.49
558.281	24.49
558.478	24.5
558.674	24.56
558.87	24.61
559.066	24.54
559.262	24.44
559.459	24.34
559.655	24.34
559.851	24.48
560.047	24.6
560.243	24.54
560.439	24.41
560.635	24.41
560.831	24.44
561.027	24.43
561.223	24.43
561.419	24.39
561.615	24.51
561.811	24.59
562.007	24.57
562.203	24.58
562.399	24.61
562.595	24.7
562.791	24.7
562.987	24.73
563.183	24.86
563.379	24.9
563.575	25.05
563.771	25.04
563.966	25.01
564.162	25.03
564.358	25.06
564.554	25.1
564.75	25.1
564.945	25.19
565.141	25.14
565.337	25.1
565.533	25.2
565.728	25.15
565.924	25.15
566.12	25.23
566.315	25.21
566.511	25.17
566.707	25.17
566.902	25.23
567.098	25.23
567.293	25.17
567.489	25.21
567.684	25.16
567.88	25.28
568.076	25.31
568.271	25.32
568.467	25.35
568.662	25.48
568.858	25.53
569.053	25.6
569.248	25.59
569.444	25.79
569.639	25.84
569.835	25.84
570.03	25.7
570.225	25.67
570.421	25.75
570.616	25.84
570.812	25.86
571.007	25.86
571.202	25.87
571.397	25.94
571.593	25.97
571.788	26.01
571.983	26
572.178	26.11
572.374	26.22
572.569	26.19
572.764	26.1
572.959	26.13
573.154	26.13
573.35	26.17
573.545	26.21
573.74	26.17
573.935	26.04
574.13	26.15
574.325	26.12
574.52	26.1
574.715	26.03
574.91	26.12
575.105	26.17
575.3	26.17
575.495	26.08
575.69	26.07
575.885	26.17
576.08	26.22
576.275	26.17
576.47	26.28
576.665	26.36
576.86	26.47
577.055	26.41
577.25	26.32
577.444	26.38
577.639	26.47
577.834	26.57
578.029	26.62
578.224	26.72
578.418	26.69
578.613	26.66
578.808	26.53
579.003	26.43
579.197	26.46
579.392	26.61
579.587	26.71
579.781	26.77
579.976	26.64
580.171	26.56
580.365	26.48
580.56	26.52
580.755	26.56
580.949	26.68
581.144	26.83
581.338	26.9
581.533	26.86
581.727	26.69
581.922	26.57
582.116	26.68
582.311	26.63
582.505	26.72
582.7	26.86
582.894	26.88
583.089	26.96
583.283	26.84
583.478	26.86
583.672	26.85
583.866	27.04
584.061	27.05
584.255	27.11
584.449	27.16
584.644	27.31
584.838	27.29
585.032	27.19
585.226	27.01
585.421	27.18
585.615	26.99
585.809	26.93
586.003	26.89
586.198	27.03
586.392	27
586.586	27.03
586.78	26.91
586.974	26.91
587.168	27.02
587.363	27.13
587.557	27.16
587.751	27.16
587.945	27.27
588.139	27.45
588.333	27.44
588.527	27.37
588.721	27.4
588.915	27.33
589.109	27.29
589.303	27.17
589.497	27.22
589.691	27.19
589.885	27.38
590.079	27.27
590.273	27.08
590.466	27.05
590.66	27.01
590.854	27.03
591.048	27.11
591.242	27.04
591.436	27.06
591.629	27.06
591.823	27.18
592.017	27.28
592.211	27.37
592.404	27.39
592.598	27.36
592.792	27.5
592.986	27.5
593.179	27.45
593.373	27.51
593.567	27.58
593.76	27.59
593.954	27.46
594.147	27.48
594.341	27.48
594.535	27.45
594.728	27.57
594.922	27.5
595.115	27.51
595.309	27.59
595.502	27.72
595.696	27.67
595.889	27.62
596.083	27.63
596.276	27.55
596.47	27.53
596.663	27.58
596.856	27.49
597.05	27.5
597.243	27.44
597.437	27.41
597.63	27.26
597.823	27.4
598.017	27.49
598.21	27.58
598.403	27.67
598.596	27.74
598.79	27.7
598.983	27.75
599.176	27.76
599.369	27.78
599.563	27.85
599.756	28.06
599.949	28.02
600.142	28.02
600.335	27.91
600.528	27.86
600.722	27.96
600.915	28.02
601.108	28.06
601.301	28.19
601.494	28.17
601.687	28.24
601.88	28.2
602.073	28.22
602.266	28.15
602.459	28.19
602.652	28.15
602.845	27.97
603.038	28.07
603.231	28.1
603.424	27.94
603.617	28.02
603.809	28.07
604.002	28.12
604.195	27.95
604.388	27.98
604.581	28.02
604.774	28.04
604.966	28.13
605.159	28.08
605.352	28.04
605.545	28.09
605.737	28.15
605.93	28.04
606.123	27.98
606.316	28.08
606.508	28.05
606.701	27.98
606.894	28.01
607.086	28.02
607.279	28
607.471	28.06
607.664	28.19
607.857	28.11
608.049	28.09
608.242	28.22
608.434	28.46
608.627	28.58
608.819	28.78
609.012	28.95
609.204	29.11
609.397	29.35
609.589	29.69
609.782	29.91
609.974	30.24
610.166	30.54
610.359	30.79
610.551	31.01
610.743	31.28
610.936	31.41
611.128	31.57
611.32	31.61
611.513	31.68
611.705	31.59
611.897	31.55
612.09	31.47
612.282	31.51
612.474	31.34
612.666	31.16
612.858	30.99
613.051	30.97
613.243	30.88
613.435	30.98
613.627	30.84
613.819	30.65
614.011	30.56
614.203	30.43
614.395	30.2
614.588	30.18
614.78	30.02
614.972	29.9
615.164	29.77
615.356	29.57
615.548	29.3
615.74	29.42
615.932	29.57
616.124	29.52
616.315	29.54
616.507	29.47
616.699	29.25
616.891	29.34
617.083	29.54
617.275	29.37
617.467	29.4
617.659	29.36
617.85	29.21
618.042	29.07
618.234	29.01
618.426	28.97
618.618	28.93
618.809	28.97
619.001	28.89
619.193	28.58
619.384	28.71
619.576	28.88
619.768	28.8
619.959	28.81
620.151	28.71
620.343	28.59
620.534	28.35
620.726	28.41
620.917	28.56
621.109	28.54
621.301	28.87
621.492	28.77
621.684	28.5
621.875	28.62
622.067	28.62
622.258	28.78
622.45	28.94
622.641	29.15
622.832	29.24
623.024	29.26
623.215	29.28
623.407	29.09
623.598	29.18
623.789	29.38
623.981	29.32
624.172	29.38
624.363	29.38
624.555	29.55
624.746	29.49
624.937	29.47
625.129	29.39
625.32	29.48
625.511	29.37
625.702	29.43
625.893	29.51
626.085	29.61
626.276	29.59
626.467	29.57
626.658	29.31
626.849	29.42
627.04	29.46
627.231	29.48
627.422	29.4
627.614	29.48
627.805	29.54
627.996	29.51
628.187	29.49
628.378	29.56
628.569	29.58
628.76	29.83
628.951	29.7
629.142	29.61
629.332	29.69
629.523	29.71
629.714	29.91
629.905	29.73
630.096	29.48
630.287	29.51
630.478	29.45
630.669	29.54
630.859	29.33
631.05	29.5
631.241	29.7
631.432	29.6
631.623	29.64
631.813	29.61
632.004	29.62
632.195	29.9
632.385	29.94
632.576	29.88
632.767	29.77
632.957	29.89
633.148	29.81
633.339	29.77
633.529	29.77
633.72	29.71
633.91	29.63
634.101	29.74
634.292	29.56
634.482	29.45
634.673	29.53
634.863	29.55
635.054	29.53
635.244	29.54
635.435	29.28
635.625	29.26
635.815	29.28
636.006	29.09
636.196	29.05
636.387	29.21
636.577	29.2
636.767	29.14
636.958	29.08
637.148	28.97
637.338	28.95
637.529	29.13
637.719	29.07
637.909	29.11
638.099	29.14
638.29	29.15
638.48	29.19
638.67	29.25
638.86	29.28
639.05	29.23
639.241	29.23
639.431	29.13
639.621	29.07
639.811	29.29
640.001	29.05
640.191	29.04
640.381	29.17
640.571	29.06
640.761	28.85
640.951	28.82
641.141	28.86
641.331	28.97
641.521	29.11
641.711	29.18
641.901	29.01
642.091	29.13
642.281	29.36
642.471	29.27
642.661	29.09
642.851	29.52
643.041	29.51
643.231	29.65
643.42	29.69
643.61	29.68
643.8	29.47
643.99	29.47
644.18	29.51
644.369	29.58
644.559	29.65
644.749	29.73
644.939	29.74
645.128	29.77
645.318	29.74
645.508	29.75
645.697	29.64
645.887	29.67
646.076	29.74
646.266	29.78
646.456	29.9
646.645	29.76
646.835	29.73
647.024	29.69
647.214	29.64
647.403	29.64
647.593	29.66
647.782	29.77
647.972	30.02
648.161	29.92
648.351	29.98
648.54	29.7
648.73	29.7
648.919	29.85
649.108	29.69
649.298	29.83
649.487	29.78
649.677	29.62
649.866	29.44
650.055	29.46
650.244	29.39
650.434	29.35
650.623	29.23
650.812	29.15
651.002	29.07
651.191	29.02
651.38	29.19
651.569	29.41
651.758	29.5
651.947	29.84
652.137	29.58
652.326	29.6
652.515	29.53
652.704	29.62
652.893	29.83
653.082	29.98
653.271	29.94
653.46	29.69
653.649	29.53
653.838	29.61
654.027	29.63
654.216	29.67
654.405	29.72
654.594	29.78
654.783	29.79
654.972	29.61
655.161	29.61
655.35	29.74
655.539	29.62
655.728	29.59
655.916	29.68
656.105	29.63
656.294	29.93
656.483	29.86
656.672	29.85
656.86	30.03
657.049	29.99
657.238	29.97
657.427	30.04
657.615	30.25
657.804	30.15
657.993	29.98
658.181	29.62
658.37	29.57
658.559	29.8
658.747	29.74
658.936	29.76
659.125	30.1
659.313	30.02
659.502	30.19
659.69	30.05
659.879	30.16
660.067	30.28
660.256	30.5
660.444	30.4
660.633	30.49
660.821	30.53
661.01	30.35
661.198	29.91
661.387	29.95
661.575	29.72
661.763	29.68
661.952	29.72
662.14	29.63
662.328	29.78
662.517	29.74
662.705	29.72
662.893	29.85
663.082	30.12
663.27	30.2
663.458	30.24
663.646	30.29
663.834	30.4
664.023	30.33
664.211	30.41
664.399	30.38
664.587	30.66
664.775	30.52
664.963	30.64
665.152	30.54
665.34	30.9
665.528	30.86
665.716	30.84
665.904	30.96
666.092	30.91
666.28	31.02
666.468	30.93
666.656	30.87
666.844	30.75
667.032	30.58
667.22	30.46
667.408	30.42
667.596	30.51
667.784	30.21
667.971	29.99
668.159	30.04
668.347	30.02
668.535	30.02
668.723	29.63
668.911	29.76
669.098	29.65
669.286	29.43
669.474	29.39
669.662	29.47
669.849	29.7
670.037	29.94
670.225	30
670.413	30.01
670.6	30.19
670.788	30.37
670.976	30.21
671.163	30.34
671.351	30.54
671.538	30.54
671.726	30.47
671.913	30.41
672.101	30.44
672.289	30.3
672.476	30.32
672.664	30.33
672.851	30.47
673.039	30.55
673.226	30.23
673.413	30.47
673.601	30.23
673.788	30.3
673.976	30.59
674.163	30.39
674.35	30.52
674.538	30.44
674.725	30.41
674.912	30.49
675.1	30.58
675.287	31.06
675.474	31.07
675.662	31.41
675.849	31.14
676.036	31.23
676.223	31.26
676.411	31.17
676.598	31.21
676.785	31.13
676.972	30.96
677.159	31.02
677.346	30.84
677.533	30.78
677.721	30.85
677.908	30.98
678.095	30.86
678.282	31.13
678.469	31.21
678.656	31.12
678.843	31.13
679.03	31.06
679.217	30.83
679.404	31.19
679.591	31.17
679.778	30.87
679.964	30.84
680.151	30.69
680.338	30.52
680.525	30.54
680.712	30.53
680.899	30.33
681.086	30.49
681.272	30.48
681.459	30.26
681.646	30.36
681.833	30.43
682.02	30.43
682.206	30.44
682.393	30.34
682.58	30.38
682.766	30.35
682.953	30.5
683.14	30.38
683.326	30.54
683.513	30.5
683.7	30.37
683.886	30.29
684.073	30.38
684.259	30.27
684.446	30.59
684.632	30.3
684.819	30.42
685.005	30.29
685.192	30.21
685.378	30.31
685.565	30.34
685.751	30.21
685.938	30.3
686.124	30.2
686.31	30.24
686.497	30.11
686.683	30.41
686.87	30.39
687.056	30.73
687.242	30.81
687.429	30.74
687.615	30.6
687.801	30.58
687.987	30.45
688.174	30.47
688.36	30.71
688.546	30.57
688.732	30.46
688.918	30.36
689.105	30.21
689.291	30.13
689.477	30.24
689.663	30.26
689.849	30.33
690.035	30.53
690.221	30.5
690.407	30.66
690.593	30.89
690.779	31.06
690.965	31.14
691.151	30.89
691.337	31.42
691.523	31.63
691.709	31.73
691.895	31.56
692.081	31.35
692.267	31.42
692.453	31.09
692.639	30.92
692.825	30.31
693.011	30.33
693.196	30.55
693.382	30.09
693.568	29.74
693.754	29.85
693.94	29.91
694.125	30.05
694.311	30.24
694.497	30.29
694.682	29.99
694.868	30.42
695.054	30.65
695.239	30.45
695.425	30.61
695.611	30.4
695.796	30.41
695.982	30.42
696.168	30.61
696.353	30.61
696.539	30.69
696.724	30.88
696.91	31.03
697.095	30.63
697.281	30.66
697.466	30.62
697.652	30.76
697.837	30.76
698.023	30.88
698.208	30.82
698.393	30.7
698.579	30.81
698.764	30.81
698.949	30.6
699.135	30.67
699.32	30.68
699.505	30.58
699.691	30.55
699.876	30.6
700.061	30.54
700.246	30.51
700.432	30.48
700.617	30.32
700.802	30.44
700.987	30.6
701.172	30.67
701.358	30.85
701.543	30.73
701.728	30.95
701.913	30.5
702.098	30.61
702.283	30.45
702.468	30.65
702.653	30.59
702.838	30.48
703.023	30.55
703.208	30.53
703.393	30.52
703.578	30.89
703.763	30.77
703.948	31.35
704.133	31.66
704.318	32.09
704.503	32.03
704.688	31.91
704.873	31.94
705.057	31.89
705.242	32.01
705.427	31.98
705.612	31.85
705.797	31.83
705.981	31.83
706.166	31.16
706.351	30.94
706.536	31.04
706.72	31.05
706.905	30.99
707.09	31.1
707.274	31.22
707.459	31.18
707.644	31.37
707.828	31.7
708.013	31.74
708.197	32.3
708.382	32.61
708.567	32.58
708.751	32.61
708.936	32.82
709.12	33.08
709.305	33.18
709.489	33.54
709.673	33.77
709.858	33.19
710.042	32.99
710.227	32.99
710.411	32.88
710.596	32.67
710.78	32.89
710.964	32.76
711.149	32.64
711.333	32.44
711.517	32.11
711.702	31.66
711.886	31.83
712.07	31.91
712.254	31.85
712.438	31.58
712.623	31.18
712.807	31.07
712.991	30.85
713.175	30.55
713.359	30.62
713.544	30.74
713.728	30.63
713.912	30.58
714.096	30.32
714.28	30.07
714.464	29.94
714.648	30.36
714.832	29.99
715.016	30.36
715.2	30.29
715.384	29.73
715.568	29.73
715.752	29.98
715.936	30.07
716.12	30.28
716.304	30.37
716.488	30.61
716.671	30.48
716.855	30.95
717.039	31.01
717.223	31.11
717.407	31.53
717.59	31.66
717.774	31.64
717.958	31.92
718.142	31.36
718.325	31.34
718.509	31.33
718.693	31.49
718.877	31.3
719.06	30.89
719.244	30.7
719.428	31.05
719.611	30.38
719.795	30.37
719.978	30.38
720.162	31.29
720.345	31.2
720.529	30.9
720.713	30.89
720.896	31.13
721.08	31.38
721.263	31.03
721.446	30.65
721.63	30.85
721.813	30.99
721.997	30.52
722.18	30.21
722.364	30.25
722.547	30.78
722.73	30.67
722.914	30.57
723.097	30.46
723.28	30.81
723.464	31.17
723.647	31.22
723.83	30.93
724.013	31.09
724.197	31.26
724.38	31.28
724.563	30.84
724.746	30.54
724.929	30.49
725.112	30.38
725.296	30.14
725.479	29.95
725.662	30.07
725.845	30.31
726.028	30.48
726.211	29.59
726.394	29.61
726.577	29.48
726.76	30.34
726.943	30.43
727.126	30.51
727.309	30.94
727.492	30.81
727.675	31.05
727.858	30.65
728.041	30.37
728.224	31.15
728.407	31.32
728.589	31.82
728.772	31.29
728.955	31.11
729.138	31.29
729.321	31.09
729.503	31.25
729.686	31.12
729.869	30.84
730.052	30.8
730.234	31.11
730.417	30.54
730.6	30.08
730.782	29.94
730.965	30.07
731.148	29.88
731.33	30.09
731.513	30.2
731.695	30.15
731.878	30.94
732.061	30.79
732.243	30.7
732.426	31.29
732.608	31.47
732.791	31.85
732.973	31.85
733.156	31.83
733.338	31.71
733.52	31.51
733.703	31.48
733.885	31.53
734.068	31.54
734.25	30.94
734.432	30.8
734.615	31.09
734.797	30.47
734.979	30.8
735.162	30.48
735.344	30.26
735.526	30.7
735.708	30.98
735.891	30.83
736.073	30.96
736.255	31.17
736.437	30.63
736.619	30.71
736.802	31.31
736.984	30.84
737.166	31.31
737.348	31.41
737.53	31.17
737.712	30.71
737.894	30.79
738.076	30.87
738.258	30.98
738.44	31.21
738.622	30.85
738.804	30.77
738.986	30.69
739.168	30.76
739.35	30.27
739.532	29.98
739.714	30.26
739.896	29.92
740.078	29.81
740.259	29.83
740.441	30.22
740.623	30.11
740.805	29.7
740.987	29.33
741.168	29.34
741.35	30.42
741.532	30.96
741.714	30.95
741.895	30.71
742.077	30.75
742.259	30.34
742.44	30.25
742.622	29.82
742.804	30.04
742.985	30.75
743.167	30.37
743.348	30.09
743.53	29.48
743.711	29.33
743.893	29.71
744.075	30.24
744.256	30.43
744.438	30.24
744.619	31.22
744.8	31.27
744.982	30.71
745.163	30.83
745.345	30.54
745.526	30.31
745.707	30
745.889	30.02
746.07	29.95
746.252	30.18
746.433	29.78
746.614	29.13
746.795	28.85
746.977	29.2
747.158	29.34
747.339	29.79
747.52	29.82
747.702	30.73
747.883	30.14
748.064	29.98
748.245	29.48
748.426	30.15
748.607	30.15
748.788	30.62
748.97	31.13
749.151	31.23
749.332	30.89
749.513	31.2
749.694	31.09
749.875	31.88
750.056	31.74
750.237	32.18
750.418	32.22
750.599	32.69
750.78	32.51
750.96	32.82
751.141	32.91
751.322	32.79
751.503	32.68
751.684	32.3
751.865	31.79
752.046	32.42
752.226	31.72
752.407	31.14
752.588	30.5
752.769	31.4
752.949	30.17
753.13	29.47
753.311	30.25
753.492	29.9
753.672	30.07
753.853	30.69
754.034	30.2
754.214	30.61
754.395	30.67
754.575	30.73
754.756	30.58
754.937	31.24
755.117	31.8
755.298	31.28
755.478	32.01
755.659	31.95
755.839	31.77
756.02	31.93
756.2	32.22
756.381	32.54
756.561	32.37
756.741	31.67
756.922	31.9
757.102	31.86
757.283	31.74
757.463	31.27
757.643	31.62
757.823	31.02
758.004	31.06
758.184	31.68
758.364	31.65
758.545	31.96
758.725	31.93
758.905	31.53
759.085	31.56
759.265	31.41
759.446	31.06
759.626	30.78
759.806	31.34
759.986	31.41
760.166	30.18
760.346	30.1
760.526	30.19
760.706	30.23
760.886	29.9
761.066	29.88
761.246	30.57
761.426	30.64
761.606	30.35
761.786	30.26
761.966	30.3
762.146	30.32
762.326	30.84
762.506	30.88
762.686	31.16
762.866	31.43
763.046	31.56
763.225	31.23
763.405	31.51
763.585	31.7
763.765	31.66
763.945	31.27
764.124	31.41
764.304	31.16
764.484	31.31
764.664	31.14
764.843	30.96
765.023	31.05
765.203	31.23
765.382	31.09
765.562	30.89
765.741	30.77
765.921	30.91
766.101	31.21
766.28	31.49
766.46	31.3
766.639	31.62
766.819	31.58
766.998	31.35
767.178	31.4
767.357	31.64
767.537	31.83
767.716	32.02
767.896	31.34
768.075	31.09
768.254	30.65
768.434	30.4
768.613	29.79
768.792	30.39
768.972	30.84
769.151	30.37
769.33	30.24
769.51	29.91
769.689	29.3
769.868	29.89
770.047	29.19
770.226	29.68
770.406	29.86
770.585	30.12
770.764	30.6
770.943	30.02
771.122	30.32
771.301	30.56
771.48	30.94
771.66	31.74
771.839	32
772.018	32.99
772.197	32.4
772.376	32.42
772.555	32.7
772.734	31.91
772.913	31.62
773.092	31.08
773.271	31.41
773.449	31.51
773.628	30.51
773.807	30.38
773.986	29.69
774.165	29.46
774.344	29.52
774.523	29.53
774.701	29.29
774.88	29.53
775.059	30.54
775.238	28.96
775.417	28.56
775.595	29.16
775.774	29.47
775.953	29.86
776.131	30.15
776.31	30.3
776.489	30.15
776.667	30.09
776.846	30.11
777.025	29.29
777.203	30.17
777.382	30.46
777.56	31.23
777.739	31.16
777.917	31.45
778.096	30.9
778.274	30.86
778.453	31.24
778.631	31.71
778.81	30.49
778.988	29.99
779.166	30.82
779.345	30.5
779.523	29.53
779.702	29.83
779.88	29.69
780.058	30.09
780.237	30.55
780.415	28.97
780.593	28.96
780.771	31.13
780.95	32.14
781.128	31.9
781.306	31.82
781.484	32.21
781.662	32.66
781.841	33.78
782.019	34.14
782.197	33.62
782.375	34.26
782.553	34.22
782.731	33.14
782.909	32.77
783.087	33.44
783.265	34.44
783.443	35.03
783.621	33.88
783.799	33.16
783.977	32.9
784.155	32.33
784.333	32.29
784.511	32.61
784.689	32.8
784.867	33.03
785.045	31.74
785.223	31.35
785.4	30.2
785.578	30.72
785.756	30.47
785.934	31.2
786.112	30.7
786.289	31.27
786.467	30.91
786.645	31.2
786.823	30.96
787	31.48
787.178	31.28
787.356	31.8
787.533	32.04
787.711	32.81
787.889	32.26
788.066	32.78
788.244	32.5
788.421	32.91
788.599	32.66
788.776	32.75
788.954	31.47
789.131	31.62
789.309	31.2
789.486	30.97
789.664	29.93
789.841	30.12
790.019	29.5
790.196	29.07
790.373	28.27
790.551	27.93
790.728	27.95
790.906	29.95
791.083	29.12
791.26	30.18
791.437	30.49
791.615	31.15
791.792	30.83
791.969	31.23
792.146	30.97
792.324	30.05
792.501	30.53
792.678	31.41
792.855	29.66
793.032	30.03
793.209	29.81
793.387	28.82
793.564	28.74
793.741	29.29
793.918	29.83
794.095	30.13
794.272	31.61
794.449	31.47
794.626	30.15
794.803	30.14
794.98	30.36
795.157	29.55
795.334	28.77
795.511	28.53
795.688	28.24
795.864	27.57
796.041	28.48
796.218	27.25
796.395	26.7
796.572	26.7
796.749	27.75
796.925	27.7
797.102	29.63
797.279	31.21
797.456	30.17
797.632	29.41
797.809	30.07
797.986	30.85
798.162	31.57
798.339	31.87
798.516	32.82
798.692	32.38
798.869	32.43
799.046	30.93
799.222	30.43
799.399	30.69
799.575	31.55
799.752	31.37
799.928	29.73
800.105	29.77
800.281	29.68
800.458	28.18
800.634	27.51
800.811	26.95
800.987	26.98
801.163	26.99
801.34	27.48
801.516	27.7
801.692	28.2
801.869	28
802.045	28.67
802.221	29.2
802.398	28.97
802.574	29.49
802.75	30.67
802.926	30.29
803.103	31.07
803.279	30.51
803.455	30.3
803.631	30.09
803.807	30.46
803.983	30.16
804.16	28.67
804.336	30.49
804.512	31.88
804.688	31.05
804.864	30.66
805.04	29.59
805.216	30.89
805.392	31.02
805.568	31.2
805.744	32.33
805.92	31.39
806.096	33.32
806.272	32.33
806.448	31.93
806.623	32.05
806.799	33.57
806.975	34.61
807.151	34.9
807.327	35.66
807.503	35.4
807.678	34.87
807.854	35.45
808.03	36.05
808.206	36.9
808.381	35.53
808.557	36.69
808.733	36.53
808.908	35.64
809.084	34.42
809.26	34.07
809.435	33.64
809.611	34.04
809.787	34.5
809.962	34.48
810.138	34.2
810.313	33.78
810.489	32.18
810.664	31.51
810.84	31.47
811.015	31.56
811.191	30.42
811.366	31.86
811.542	31.97
811.717	31.56
811.892	28.59
812.068	28.38
812.243	29.51
812.419	28.97
812.594	29.84
812.769	28.68
812.944	29.5
813.12	27.76
813.295	27.19
813.47	25.98
813.645	24.14
813.821	24.96
813.996	24.99
814.171	27.11
814.346	27.26
814.521	25.52
814.697	26.82
814.872	25.48
815.047	27.92
815.222	27.27
815.397	27.48
815.572	28.74
815.747	29.51
815.922	28.74
816.097	26.25
816.272	28.13
816.447	29.44
816.622	28.79
816.797	29.54
816.972	28.18
817.147	29.19
817.322	27.3
817.496	27.36
817.671	27.62
817.846	27.19
818.021	29.05
818.196	27.81
818.371	27.74
818.545	28.38
818.72	28.86
818.895	28.69
819.069	27.65
819.244	29.41
819.419	29.25
819.594	29.13
819.768	29.88
819.943	28.77
820.117	28.67
820.292	27.8
820.467	26.91
820.641	26.82
820.816	27.12
820.99	27.99
821.165	27.55
821.339	27.72
821.514	27.66
821.688	27.36
821.863	27.29
822.037	27.24
822.212	27.43
822.386	27.78
822.56	27.7
822.735	27.73
822.909	27.43
823.084	27.54
823.258	27.43
823.432	27.2
823.606	27.28
823.781	27.25
823.955	27.12
824.129	26.93
824.303	26.76
824.478	26.67
824.652	26.81
824.826	26.55
825	26.64
825.174	26.87
825.348	27.19
825.523	27.52
825.697	27.38
825.871	27.79
826.045	28.15
826.219	28.16
826.393	28.19
826.567	28.24
826.741	28.07
826.915	27.76
827.089	27.67
827.263	27.69
827.437	27.63
827.611	28.06
827.784	28.21
827.958	28.37
828.132	28.05
828.306	28.04
828.48	27.96
828.654	28.32
828.827	28.93
829.001	29.33
829.175	29.6
829.349	29.25
829.522	28.75
829.696	29
829.87	29.01
830.044	29.66
830.217	30.39
830.391	30.82
830.565	31.66
830.738	30.93
830.912	29.14
831.085	31.03
831.259	31.69
831.432	31.83
831.606	31.08
831.779	29.21
831.953	29.96
832.126	29.99
832.3	29.39
832.473	29.32
832.647	29.72
832.82	30.35
832.994	28.14
833.167	28.31
833.34	28.9
833.514	29.06
833.687	30.18
833.86	29.72
834.034	28.89
834.207	28.73
834.38	28.06
834.553	27.38
834.727	27.84
834.9	27.76
835.073	27.99
835.246	27.41
835.419	27.08
835.593	26.8
835.766	26.89
835.939	27.78
836.112	27.42
836.285	27.5
836.458	27.7
836.631	25.89
836.804	27.04
836.977	25.71
837.15	26.92
837.323	27.06
837.496	26.96
837.669	27.22
837.842	26.72
838.015	25.7
838.188	25.73
838.361	26.78
838.533	28.08
838.706	26.25
838.879	27.13
839.052	26.46
839.225	27.2
839.398	29.31
839.57	29.49
839.743	28.7
839.916	31.37
840.088	32.45
840.261	32.94
840.434	35.76
840.607	38.92
840.779	37.12
840.952	35.38
841.124	34.98
841.297	32.62
841.47	31.49
841.642	32.76
841.815	32.52
841.987	31.32
842.16	31.01
842.332	29.24
842.505	28.3
842.677	29.82
842.85	28.6
843.022	28.14
843.194	29.74
843.367	30.28
843.539	29.33
843.712	27.12
843.884	27.46
844.056	28.02
844.229	28.13
844.401	23.39
844.573	23.39
844.745	25.89
844.918	27.08
845.09	28.85
845.262	28.28
845.434	27.74
845.606	28.89
845.779	29.78
845.951	28.51
846.123	26.23
846.295	27.65
846.467	27.27
846.639	27.64
846.811	25.95
846.983	24.03
847.155	23.65
847.327	24.12
847.499	23.2
847.671	26.36
847.843	27.63
848.015	26.76
848.187	29.34
848.359	28.75
848.531	31.93
848.703	33.1
848.875	32.03
849.047	31.41
849.218	31.77
849.39	35.77
849.562	31.23
849.734	30.08
849.905	32.51
850.077	33.4
850.249	37.08
850.421	34.31
850.592	32.76
850.764	34.69
850.936	35.07
851.107	34.37
851.279	35.41
851.451	37.24
851.622	37.89
851.794	39.5
851.965	35.97
852.137	34.79
852.308	34.88
852.48	37.87
852.651	34.8
852.823	34.97
852.994	33.68
853.166	33.13
853.337	29.95
853.509	31.77
853.68	31.69
853.851	31.98
854.023	30.8
854.194	32.98
854.365	30.66
854.537	33.68
854.708	34.4
854.879	36.2
855.05	31.55
855.222	35.19
855.393	34.03
855.564	35.07
855.735	32.97
855.906	35.93
856.078	32.13
856.249	30.48
856.42	33.55
856.591	37.31
856.762	38.5
856.933	39.81
857.104	38.62
857.275	37.15
857.446	37.85
857.617	41.23
857.788	42.02
857.959	46.19
858.13	48.42
858.301	44.62
858.472	41.63
858.643	43.05
858.814	41.94
858.985	44.12
859.155	46.94
859.326	46.38
859.497	50.24
859.668	49.14
859.839	45.79
860.009	47.15
860.18	45.54
860.351	47.64
860.522	45.77
860.692	50.05
860.863	49.54
861.034	44.97
861.204	47.27
861.375	40.49
861.546	41.37
861.716	40.71
861.887	34.64
862.057	33.29
862.228	30.61
862.398	32.52
862.569	33.17
862.739	31.69
862.91	31.3
863.08	26.57
863.251	27.02
863.421	24.21
863.592	22.03
863.762	26.16
863.932	24.04
864.103	25.3
864.273	17.96
864.443	16.07
864.614	15.54
864.784	15.11
864.954	13.41
865.125	10.39
865.295	14.07
865.465	16.67
865.635	15.36
865.805	15.14
865.976	16.55
866.146	20.44
866.316	17.5
866.486	15.97
866.656	15.81
866.826	21.88
866.996	29.39
867.166	29.74
867.336	29.06
867.506	27.52
867.676	34.6
867.846	34.38
868.016	39.89
868.186	36.21
868.356	38.37
868.526	41.3
868.696	37.01
868.866	31.19
869.036	32.26
869.206	33.99
869.376	36.3
869.545	28.58
869.715	29.84
869.885	24.96
870.055	25.63
870.224	25.92
870.394	25.82
870.564	28.11
870.734	31.9
870.903	28.25
871.073	29.22
871.243	29.08
871.412	28.91
871.582	26.13
871.751	26.15
871.921	29.39
872.091	31.49
872.26	30.68
872.43	27.67
872.599	25.02
872.769	26.72
872.938	25.1
873.108	27.12
873.277	34.49
873.446	38.64
873.616	38.45
873.785	43.32
873.955	42.57
874.124	42.84
874.293	41.78
874.463	43.28
874.632	44.58
874.801	44.64
874.971	44.6
875.14	44
875.309	39.52
875.478	33.6
875.647	31.63
875.817	31.45
875.986	34.3
876.155	37.72
876.324	32.71
876.493	29.2
876.662	31.33
876.831	33.78
877	30.65
877.17	31.92
877.339	33.02
877.508	26.48
877.677	26.81
877.846	25.63
878.015	23.49
878.184	25.98
878.352	26.46
878.521	26.5
878.69	25.46
878.859	23.87
879.028	26.3
879.197	27.51
879.366	33.89
879.534	32.52
879.703	32.33
879.872	31.21
880.041	33.47
880.21	33.35
880.378	32.58
880.547	30.88
880.716	29.14
880.884	27.8
881.053	28.94
881.222	29.27
881.39	28.32
881.559	27.31
881.727	27.29
881.896	26.36
882.065	26.56
882.233	26.06
882.402	26.17
882.57	26.3
882.739	25.93
882.907	25.24
883.076	24.37
883.244	25.01
883.412	25.77
883.581	26.44
883.749	26
883.918	26.05
884.086	25.95
884.254	25.8
884.423	27.72
884.591	28.35
884.759	28.18
884.927	27.38
885.096	27.88
885.264	27.56
885.432	25.95
885.6	24.81
885.769	24.52
885.937	26.21
886.105	27.82
886.273	28.11
886.441	28.21
886.609	30.84
886.777	33.1
886.945	32.53
887.113	31.64
887.281	34.35
887.449	39.28
887.617	35.05
887.785	36.02
887.953	32.09
888.121	30.63
888.289	30.18
888.457	27.77
888.625	25.54
888.793	29.72
888.961	35.84
889.129	34.89
889.296	31.18
889.464	34.62
889.632	32.83
889.8	38.53
889.967	34.75
890.135	37.42
