Data from 2938851__Reflection_01.txt Node
Date: Wed Mar 11 12:55:30 EDT 2015
User: robert
Spectrometer: USB4E03002
Autoset integration time: false
Trigger mode: 4
Integration Time (sec): 1.000000E-1
Scans to average: 10
Electric dark correction enabled: false
Nonlinearity correction enabled: false
Boxcar width: 5
Stray light correction enabled: false
XAxis mode: Wavelengths
Stop averaging: false
Number of Pixels in Spectrum: 3648
>>>>>Begin Spectral Data<<<<<
177.575	2255.56
177.794	-1272.92
178.014	-349.32
178.233	-975
178.452	-548.91
178.672	-232.32
178.891	-140.05
179.11	-87.58
179.33	-148.88
179.549	-157.81
179.768	-237.98
179.987	-252.05
180.207	-226.38
180.426	-295.96
180.645	-233.05
180.864	-134.18
181.084	-317.55
181.303	-1923.81
181.522	-726.55
181.741	-444.38
181.96	-619.15
182.179	-1543.1
182.398	-869.41
182.618	960.44
182.837	1467.69
183.056	2076.6
183.275	403.21
183.494	386.59
183.713	629.09
183.932	335.9
184.151	308.5
184.37	279.93
184.589	587.42
184.808	791.97
185.027	-1969.05
185.246	-838.89
185.465	-248.71
185.684	-110.43
185.903	-157.8
186.122	-92.16
186.341	-95.82
186.56	-83.33
186.779	-94.06
186.998	-50.06
187.216	-16.91
187.435	-33.2
187.654	-40.65
187.873	-63.71
188.092	-85.39
188.311	-53.69
188.53	-37.32
188.748	-31.92
188.967	-23.47
189.186	-14.73
189.405	-23.61
189.623	-30.98
189.842	-29.06
190.061	-21.3
190.28	-9.32
190.498	-9.17
190.717	-27.77
190.936	-50.06
191.154	-32.03
191.373	-33.75
191.592	-43.95
191.81	-66.75
192.029	-72.07
192.248	-107.96
192.466	-138.91
192.685	-164.67
192.904	-179.86
193.122	-111.46
193.341	-297.2
193.559	-374
193.778	-682.72
193.996	-335.07
194.215	-236.59
194.433	-194.5
194.652	-147.09
194.87	-173.97
195.089	-169.43
195.307	-151.43
195.526	-235.19
195.744	-84.99
195.963	-54.77
196.181	-60.11
196.399	-68.16
196.618	-52.82
196.836	-33.15
197.055	-22.55
197.273	2.65
197.491	-16.56
197.71	-55.18
197.928	-8
198.146	-29.34
198.365	-45.5
198.583	-45.8
198.801	-44.33
199.019	-48.27
199.238	-75.56
199.456	-103.68
199.674	-137.61
199.892	-56.5
200.111	-33.65
200.329	-68.58
200.547	-78.91
200.765	-78.92
200.983	-97
201.202	-104.12
201.42	-87.36
201.638	-59.78
201.856	-67.79
202.074	-83.15
202.292	-102.05
202.51	-141.42
202.728	-183.74
202.946	-127.72
203.165	-153.92
203.383	-130.45
203.601	-159.03
203.819	-205.57
204.037	-264.39
204.255	-145.92
204.473	-161.1
204.691	-161.49
204.909	-149.39
205.127	-163.85
205.345	-226.56
205.562	-170.12
205.78	-175.69
205.998	-232.11
206.216	-245.12
206.434	-116.35
206.652	-90.77
206.87	-62.01
207.088	-42.72
207.306	-38.59
207.523	-19.81
207.741	-23.37
207.959	-29.61
208.177	-26.51
208.395	-34.36
208.612	-17.65
208.83	-20.61
209.048	-51.29
209.266	-33.01
209.483	-66.88
209.701	-64.04
209.919	-38.07
210.136	-34.58
210.354	-32.53
210.572	-33.04
210.79	-42.72
211.007	-84.92
211.225	-95.15
211.442	-74.18
211.66	-139.85
211.878	-106.64
212.095	-79.95
212.313	-100.29
212.53	-75.52
212.748	-40.89
212.966	-47.36
213.183	-32.08
213.401	-3.96
213.618	0.68
213.836	10.12
214.053	11.45
214.271	4.8
214.488	-6.64
214.705	-10.19
214.923	-24.13
215.14	-44.88
215.358	-36.2
215.575	-25.27
215.793	-41.77
216.01	-57.39
216.227	-52.45
216.445	-33.14
216.662	-26.93
216.879	-28.33
217.097	-19.39
217.314	-8.43
217.531	-7.62
217.749	-11.45
217.966	-14.96
218.183	-1.77
218.4	-4.63
218.618	-16.03
218.835	-18.72
219.052	-22.49
219.269	-8.64
219.487	-21.03
219.704	-21.02
219.921	-15.19
220.138	-15.54
220.355	-23.28
220.572	-24.81
220.79	-16.52
221.007	-15.56
221.224	-22.39
221.441	-25.94
221.658	-24.66
221.875	-22.56
222.092	-21.26
222.309	-17.26
222.526	-14.07
222.743	-11.82
222.96	-18.93
223.177	-23.05
223.394	-21.88
223.611	-23.95
223.828	-14.62
224.045	-12.47
224.262	-3.27
224.479	-0.62
224.696	-1.73
224.913	-1.35
225.13	-0.15
225.347	-0.9
225.564	-0.42
225.781	-0.34
225.997	2.55
226.214	2.88
226.431	1.88
226.648	-0.64
226.865	-3.37
227.082	-2.99
227.298	-2.25
227.515	-1.52
227.732	-0.58
227.949	0.16
228.165	0.26
228.382	-0.13
228.599	0.21
228.816	1.01
229.032	1.39
229.249	1.95
229.466	2.12
229.682	1.88
229.899	1.81
230.116	2.39
230.332	2.42
230.549	2.43
230.765	2.67
230.982	1.76
231.199	1.24
231.415	0.74
231.632	0.62
231.848	-1.44
232.065	-1.18
232.281	-1.53
232.498	-2.51
232.714	-3.55
232.931	-3.36
233.147	-3.7
233.364	-3.02
233.58	-4.25
233.797	-3.39
234.013	-3.38
234.23	-1.81
234.446	-0.52
234.662	-0.41
234.879	-1.9
235.095	-1.28
235.312	0.05
235.528	-0.44
235.744	-0.39
235.961	0.5
236.177	-0.12
236.393	-0.08
236.61	-0.09
236.826	0.14
237.042	0.25
237.258	1.27
237.475	0.49
237.691	-1.4
237.907	0.42
238.123	-0.67
238.339	-1.04
238.556	-0.46
238.772	-0.62
238.988	0.08
239.204	-0.94
239.42	-0.46
239.636	0.7
239.853	1.53
240.069	1.44
240.285	1.53
240.501	2.8
240.717	2.49
240.933	2.24
241.149	2.59
241.365	1.87
241.581	1.79
241.797	1.48
242.013	1.5
242.229	2.01
242.445	2.65
242.661	2.29
242.877	1.86
243.093	2.09
243.309	2.02
243.525	1.98
243.741	2.33
243.957	2.16
244.173	2.14
244.388	1.93
244.604	1.11
244.82	-0.13
245.036	0.07
245.252	0.2
245.468	0.88
245.683	1.75
245.899	1.99
246.115	2.44
246.331	2.39
246.547	2.53
246.762	2.48
246.978	2.53
247.194	2.98
247.409	3.2
247.625	3.36
247.841	2.92
248.057	2.89
248.272	2.85
248.488	2.43
248.703	2.76
248.919	2.67
249.135	2.86
249.35	2.92
249.566	2.7
249.782	2.42
249.997	1.99
250.213	2.37
250.428	1.79
250.644	1.13
250.859	1.45
251.075	1.33
251.29	1.62
251.506	1.54
251.721	1.88
251.937	2.44
252.152	2.66
252.368	3.4
252.583	3.07
252.798	2.96
253.014	3.56
253.229	3.64
253.445	3.25
253.66	2.78
253.875	3.2
254.091	2.22
254.306	2.12
254.521	1.09
254.737	0.67
254.952	1.28
255.167	1.51
255.383	0.54
255.598	0.26
255.813	1.33
256.028	2.27
256.244	1.69
256.459	2.05
256.674	1.51
256.889	1.61
257.104	0.9
257.32	0.76
257.535	0.15
257.75	0.86
257.965	1.29
258.18	0.58
258.395	0.95
258.61	1.07
258.826	1.06
259.041	1.2
259.256	1.5
259.471	1.69
259.686	1.81
259.901	2.16
260.116	2.2
260.331	1.99
260.546	2.28
260.761	2.01
260.976	1.88
261.191	1.96
261.406	1.79
261.621	1.7
261.836	1.67
262.05	1.18
262.265	0.69
262.48	0.21
262.695	-0.16
262.91	-0.51
263.125	-0.7
263.34	-0.34
263.555	-0.6
263.769	-0.81
263.984	-1.03
264.199	-1.4
264.414	-0.9
264.629	-0.72
264.843	-0.8
265.058	-0.41
265.273	-0.42
265.488	-0.25
265.702	-0.74
265.917	0.16
266.132	-0.21
266.346	0.41
266.561	1
266.776	1.36
266.99	1.61
267.205	1.53
267.42	1.77
267.634	1.8
267.849	1.8
268.063	1.78
268.278	1.5
268.492	2.45
268.707	1.91
268.922	1.33
269.136	1.14
269.351	0.94
269.565	1.13
269.78	1.02
269.994	0.96
270.209	1.13
270.423	1.36
270.637	1.46
270.852	1.21
271.066	1.46
271.281	1.48
271.495	1.33
271.709	1.04
271.924	1.2
272.138	1.01
272.353	0.95
272.567	0.91
272.781	1.1
272.996	0.95
273.21	0.84
273.424	0.8
273.638	0.77
273.853	0.93
274.067	1.62
274.281	1.99
274.495	2.38
274.71	2.49
274.924	2.5
275.138	2.59
275.352	2.66
275.566	3.12
275.781	3.07
275.995	2.95
276.209	2.51
276.423	2.24
276.637	1.52
276.851	1.12
277.065	1.13
277.279	0.84
277.493	0.93
277.707	0.93
277.921	0.45
278.135	0.4
278.349	0.67
278.563	0.8
278.777	1.08
278.991	1.21
279.205	1.5
279.419	1.72
279.633	1.99
279.847	1.72
280.061	1.68
280.275	2
280.489	1.88
280.703	2.07
280.917	2.45
281.131	2.16
281.344	2.18
281.558	2.26
281.772	2.26
281.986	2.18
282.2	2.08
282.414	2.19
282.627	2.03
282.841	2.34
283.055	2.39
283.269	2.24
283.482	2.09
283.696	2.23
283.91	2.16
284.123	1.83
284.337	1.63
284.551	1.68
284.764	1.56
284.978	1.71
285.192	1.62
285.405	1.42
285.619	1.3
285.833	1.55
286.046	1.69
286.26	1.79
286.473	1.99
286.687	2.02
286.9	2.12
287.114	2.17
287.327	2.1
287.541	2.01
287.754	2
287.968	2.12
288.181	2.19
288.395	1.68
288.608	1.1
288.822	0.93
289.035	1.11
289.248	0.95
289.462	1.02
289.675	1.31
289.889	1.49
290.102	1.54
290.315	1.52
290.529	1.22
290.742	1.64
290.955	2
291.169	2.1
291.382	2.38
291.595	2.4
291.808	2.36
292.022	2.1
292.235	1.65
292.448	1.49
292.661	1.48
292.875	1.47
293.088	1.68
293.301	1.62
293.514	1.61
293.727	1.38
293.94	1.41
294.153	1.31
294.367	1.36
294.58	1.95
294.793	2.23
295.006	1.96
295.219	2.09
295.432	1.79
295.645	1.79
295.858	1.79
296.071	1.57
296.284	1.81
296.497	1.75
296.71	1.91
296.923	1.7
297.136	1.59
297.349	1.75
297.562	1.81
297.775	1.92
297.988	1.9
298.201	1.87
298.414	1.97
298.626	1.64
298.839	1.6
299.052	1.48
299.265	1.34
299.478	1.59
299.691	1.54
299.903	1.41
300.116	0.98
300.329	1.2
300.542	1.54
300.755	1.66
300.967	2.08
301.18	2.5
301.393	2.34
301.605	2.99
301.818	2.81
302.031	3.03
302.243	2.89
302.456	3.28
302.669	3.19
302.881	3.05
303.094	3
303.307	2.7
303.519	2.5
303.732	2.44
303.944	1.94
304.157	2.11
304.37	2.15
304.582	2.22
304.795	2.24
305.007	1.93
305.22	1.99
305.432	1.89
305.645	2.13
305.857	2.05
306.069	2.05
306.282	1.88
306.494	1.92
306.707	1.47
306.919	1.98
307.132	1.81
307.344	2.25
307.556	2
307.769	2.09
307.981	1.96
308.193	2.12
308.406	2.1
308.618	2.3
308.83	2.31
309.043	2.54
309.255	2.14
309.467	2.11
309.679	1.85
309.892	2.1
310.104	2.4
310.316	2.56
310.528	2.47
310.74	2.78
310.953	2.76
311.165	2.52
311.377	2.75
311.589	2.92
311.801	3.1
312.013	3.37
312.225	3.35
312.437	3.26
312.649	3.33
312.862	3.55
313.074	3.58
313.286	3.68
313.498	4.15
313.71	4.25
313.922	4.19
314.134	4.16
314.346	3.98
314.558	3.78
314.77	3.57
314.982	3.56
315.193	3.33
315.405	3.03
315.617	2.97
315.829	2.54
316.041	2.4
316.253	2.21
316.465	2.05
316.677	2.35
316.888	2.95
317.1	3.13
317.312	2.74
317.524	2.95
317.736	2.52
317.947	2.76
318.159	2.82
318.371	2.48
318.583	2.88
318.794	3.36
319.006	3.33
319.218	2.98
319.43	3.25
319.641	3.47
319.853	3.09
320.064	3.6
320.276	3.53
320.488	3.7
320.699	3.85
320.911	4.12
321.123	4
321.334	4.07
321.546	4.22
321.757	3.96
321.969	4.2
322.18	4.57
322.392	4.81
322.603	4.67
322.815	4.95
323.026	5.15
323.238	4.53
323.449	4.5
323.661	4.62
323.872	4.63
324.083	4.86
324.295	4.87
324.506	4.81
324.718	4.46
324.929	4.71
325.14	4.65
325.352	4.55
325.563	5.07
325.774	4.78
325.986	4.41
326.197	4.26
326.408	4.19
326.62	4
326.831	4.41
327.042	4.71
327.253	4.64
327.464	4.63
327.676	4.62
327.887	4.34
328.098	4.87
328.309	5.16
328.52	5.35
328.732	5.02
328.943	5.46
329.154	5.57
329.365	5.83
329.576	6.03
329.787	5.56
329.998	5.68
330.209	6.09
330.42	6.1
330.631	6.11
330.842	5.92
331.053	6.03
331.264	5.68
331.475	5.65
331.686	5.32
331.897	5.19
332.108	5.29
332.319	5.16
332.53	5.04
332.741	4.72
332.952	4.43
333.163	4.62
333.374	4.99
333.585	5.26
333.795	5.49
334.006	5.61
334.217	5.54
334.428	5.85
334.639	6.3
334.849	6.1
335.06	6.31
335.271	6.39
335.482	6.6
335.692	6.53
335.903	6.1
336.114	5.79
336.325	5.6
336.535	5.78
336.746	5.88
336.957	5.45
337.167	5.65
337.378	5.51
337.589	6.06
337.799	5.72
338.01	5.73
338.22	5.65
338.431	5.49
338.642	5.26
338.852	5.22
339.063	5.23
339.273	5.27
339.484	5.24
339.694	5.23
339.905	5.01
340.115	5.03
340.326	4.86
340.536	5.35
340.746	5.56
340.957	6.05
341.167	6.04
341.378	5.92
341.588	6.05
341.799	6.14
342.009	6.42
342.219	6.24
342.43	6.53
342.64	6.55
342.85	6.22
343.061	5.92
343.271	5.88
343.481	5.81
343.691	5.7
343.902	5.93
344.112	5.76
344.322	5.61
344.532	5.81
344.743	5.68
344.953	5.83
345.163	5.93
345.373	5.99
345.583	6.07
345.793	6.06
346.004	6.35
346.214	5.95
346.424	5.84
346.634	5.86
346.844	5.82
347.054	5.61
347.264	5.68
347.474	5.72
347.684	5.82
347.894	5.56
348.104	5.67
348.314	5.46
348.524	5.49
348.734	5.69
348.944	5.72
349.154	5.73
349.364	5.72
349.574	5.77
349.784	5.83
349.994	5.73
350.204	5.89
350.413	5.71
350.623	5.81
350.833	5.9
351.043	5.75
351.253	5.5
351.463	5.19
351.672	5.27
351.882	5.13
352.092	5.13
352.302	4.93
352.511	4.93
352.721	4.77
352.931	4.58
353.141	4.45
353.35	4.42
353.56	4.57
353.77	4.83
353.979	5.05
354.189	4.98
354.399	4.52
354.608	4.97
354.818	4.91
355.027	5.39
355.237	5.26
355.447	5.42
355.656	5.69
355.866	5.33
356.075	5.35
356.285	5.35
356.494	5.54
356.704	5.97
356.913	5.85
357.123	5.72
357.332	5.57
357.542	5.83
357.751	5.79
357.96	5.68
358.17	6.11
358.379	5.98
358.589	5.57
358.798	5.35
359.007	5.17
359.217	5.03
359.426	5.37
359.635	5.48
359.845	5.36
360.054	5.44
360.263	5.47
360.472	5.41
360.682	5.41
360.891	5.61
361.1	5.76
361.309	5.81
361.519	5.99
361.728	5.96
361.937	5.86
362.146	5.97
362.355	6.04
362.564	5.96
362.774	5.98
362.983	6.08
363.192	6.1
363.401	6.02
363.61	6.07
363.819	5.9
364.028	5.7
364.237	5.59
364.446	5.56
364.655	5.48
364.864	5.49
365.073	5.35
365.282	5.19
365.491	5.15
365.7	5.08
365.909	5.17
366.118	5.13
366.327	5.33
366.536	5.51
366.745	5.29
366.954	5.28
367.162	5.6
367.371	5.46
367.58	5.59
367.789	5.75
367.998	5.7
368.207	5.52
368.415	5.26
368.624	5.08
368.833	4.89
369.042	5.14
369.25	5.05
369.459	4.69
369.668	4.84
369.877	4.83
370.085	4.67
370.294	4.89
370.503	4.85
370.711	5
370.92	5.07
371.129	5.09
371.337	4.87
371.546	4.96
371.754	5.1
371.963	5.13
372.171	5.01
372.38	4.95
372.589	4.78
372.797	4.85
373.006	4.87
373.214	5.05
373.423	5.19
373.631	5.45
373.84	5.36
374.048	5.32
374.256	5.43
374.465	5.4
374.673	5.5
374.882	5.5
375.09	5.45
375.298	5.44
375.507	5.17
375.715	4.94
375.923	4.74
376.132	4.82
376.34	4.84
376.548	4.69
376.757	4.69
376.965	4.73
377.173	4.76
377.381	4.92
377.59	4.95
377.798	5.04
378.006	5.06
378.214	5.11
378.423	5.15
378.631	5.04
378.839	5.08
379.047	5.22
379.255	5.12
379.463	5.27
379.671	5.05
379.879	5.3
380.088	5.34
380.296	5.27
380.504	5.25
380.712	5.21
380.92	5.22
381.128	5.14
381.336	5.29
381.544	5.37
381.752	5.13
381.96	5.29
382.168	5.15
382.376	4.82
382.584	5.01
382.791	4.99
382.999	4.76
383.207	4.83
383.415	4.86
383.623	4.51
383.831	4.54
384.039	4.68
384.247	4.58
384.454	4.7
384.662	4.88
384.87	4.77
385.078	4.88
385.285	5.15
385.493	5.01
385.701	5.01
385.909	5.29
386.116	5.23
386.324	5.29
386.532	5.42
386.739	5.26
386.947	5.19
387.155	5.18
387.362	5.16
387.57	5.01
387.778	4.96
387.985	4.93
388.193	5.06
388.4	4.88
388.608	4.62
388.816	4.47
389.023	4.34
389.231	4.35
389.438	4.51
389.646	4.44
389.853	4.39
390.061	4.5
390.268	4.4
390.475	4.23
390.683	4.37
390.89	4.44
391.098	4.47
391.305	4.56
391.512	4.61
391.72	4.48
391.927	4.48
392.135	4.64
392.342	4.65
392.549	4.79
392.756	4.63
392.964	4.62
393.171	4.75
393.378	4.72
393.586	4.66
393.793	4.59
394	4.61
394.207	4.67
394.414	4.59
394.622	4.47
394.829	4.4
395.036	4.41
395.243	4.44
395.45	4.4
395.657	4.4
395.864	4.38
396.072	4.42
396.279	4.38
396.486	4.16
396.693	4.13
396.9	4.07
397.107	4.04
397.314	4.13
397.521	3.98
397.728	3.73
397.935	3.71
398.142	3.79
398.349	3.79
398.556	3.66
398.763	3.76
398.97	3.65
399.177	3.87
399.383	3.98
399.59	4.01
399.797	4.09
400.004	4.19
400.211	4.4
400.418	4.41
400.625	4.68
400.831	4.85
401.038	4.81
401.245	4.88
401.452	4.56
401.658	4.51
401.865	4.31
402.072	4.34
402.279	4.28
402.485	4.07
402.692	4.09
402.899	3.78
403.105	3.82
403.312	3.93
403.519	4.01
403.725	4.13
403.932	4.07
404.138	4.08
404.345	4.13
404.552	4.21
404.758	4.14
404.965	4.29
405.171	4.45
405.378	4.45
405.584	4.4
405.791	4.34
405.997	4.41
406.204	4.39
406.41	4.41
406.617	4.23
406.823	4.16
407.029	4.25
407.236	3.99
407.442	3.84
407.649	3.74
407.855	3.7
408.061	3.69
408.268	3.74
408.474	3.8
408.68	3.94
408.887	3.92
409.093	4
409.299	3.94
409.505	3.85
409.712	3.83
409.918	3.96
410.124	4.06
410.33	4.03
410.537	3.93
410.743	4.03
410.949	4.08
411.155	4.18
411.361	4.2
411.567	4.34
411.773	4.48
411.98	4.55
412.186	4.42
412.392	4.37
412.598	4.64
412.804	4.62
413.01	4.55
413.216	4.54
413.422	4.43
413.628	4.3
413.834	4.04
414.04	4.03
414.246	4
414.452	4.07
414.658	3.99
414.864	3.83
415.07	3.85
415.275	3.92
415.481	3.99
415.687	4.14
415.893	4.28
416.099	4.35
416.305	4.3
416.511	4.25
416.716	4.27
416.922	4.25
417.128	4.15
417.334	4.27
417.539	4.28
417.745	4.18
417.951	4.22
418.157	4.15
418.362	4.22
418.568	4.22
418.774	4.3
418.979	4.29
419.185	4.36
419.391	4.41
419.596	4.4
419.802	4.44
420.008	4.45
420.213	3.77
420.419	3.82
420.624	3.82
420.83	3.86
421.035	3.86
421.241	3.88
421.446	3.87
421.652	3.88
421.857	3.83
422.063	3.78
422.268	3.7
422.474	4.32
422.679	4.39
422.885	4.39
423.09	4.43
423.295	4.46
423.501	4.36
423.706	4.34
423.911	4.3
424.117	4.34
424.322	4.36
424.527	4.49
424.733	4.53
424.938	4.43
425.143	4.4
425.349	4.31
425.554	4.29
425.759	4.38
425.964	4.37
426.169	4.42
426.375	4.28
426.58	4.21
426.785	4.17
426.99	4.17
427.195	4.11
427.4	4.07
427.605	4.07
427.811	4.01
428.016	4.06
428.221	4.1
428.426	4.09
428.631	4.31
428.836	4.31
429.041	4.22
429.246	4.11
429.451	4.23
429.656	4.33
429.861	4.33
430.066	4.27
430.271	4.19
430.476	4.17
430.681	4.08
430.886	4.01
431.09	3.92
431.295	3.93
431.5	3.95
431.705	3.9
431.91	3.89
432.115	4.03
432.32	4.15
432.524	4.23
432.729	4.27
432.934	4.22
433.139	4.25
433.343	4.4
433.548	4.41
433.753	4.41
433.958	4.44
434.162	4.41
434.367	4.31
434.572	4.29
434.776	4.29
434.981	4.24
435.186	4.37
435.39	4.38
435.595	4.33
435.799	4.31
436.004	4.22
436.209	4.22
436.413	4.25
436.618	4.22
436.822	4.25
437.027	4.22
437.231	4.27
437.436	4.24
437.64	4.19
437.845	4.14
438.049	4.14
438.253	4.23
438.458	4.24
438.662	4.21
438.867	4.29
439.071	4.28
439.275	4.3
439.48	4.32
439.684	4.34
439.888	4.35
440.093	4.41
440.297	4.45
440.501	4.44
440.706	4.41
440.91	4.41
441.114	4.36
441.318	4.28
441.523	4.26
441.727	4.24
441.931	4.17
442.135	4.16
442.339	4.06
442.543	4.02
442.748	3.98
442.952	3.94
443.156	3.88
443.36	3.86
443.564	3.9
443.768	3.92
443.972	3.9
444.176	3.94
444.38	3.89
444.584	3.96
444.788	3.93
444.992	3.97
445.196	4.03
445.4	4.08
445.604	4.19
445.808	4.22
446.012	4.19
446.216	4.26
446.42	4.22
446.624	4.24
446.828	4.23
447.032	4.22
447.235	4.19
447.439	4.21
447.643	4.21
447.847	4.18
448.051	4.16
448.254	4.1
448.458	4.03
448.662	4.05
448.866	4.04
449.069	4.1
449.273	4.09
449.477	4.12
449.681	4.08
449.884	4.06
450.088	3.95
450.292	3.99
450.495	4.12
450.699	4.13
450.902	4.22
451.106	4.27
451.31	4.17
451.513	4.23
451.717	4.27
451.92	4.24
452.124	4.32
452.327	4.29
452.531	4.29
452.734	4.12
452.938	4.1
453.141	4.06
453.345	4.06
453.548	4.12
453.752	4.11
453.955	3.96
454.158	4.02
454.362	3.97
454.565	4.04
454.769	4.01
454.972	4.1
455.175	4.1
455.379	3.99
455.582	3.99
455.785	3.92
455.988	3.91
456.192	4.1
456.395	4.04
456.598	3.98
456.801	3.99
457.005	4.02
457.208	4.06
457.411	4.05
457.614	4.24
457.817	4.26
458.021	4.31
458.224	4.37
458.427	4.31
458.63	4.27
458.833	4.31
459.036	4.3
459.239	4.21
459.442	4.17
459.645	4.14
459.848	4.1
460.051	4.06
460.254	4.05
460.457	3.96
460.66	3.87
460.863	3.92
461.066	3.93
461.269	3.92
461.472	4
461.675	3.98
461.878	4.01
462.081	3.93
462.284	3.96
462.486	4.02
462.689	4.16
462.892	4.2
463.095	4.2
463.298	4.19
463.5	4.19
463.703	4.18
463.906	4.16
464.109	4.23
464.311	4.21
464.514	4.19
464.717	4.12
464.92	4.03
465.122	4.09
465.325	4.12
465.528	4.01
465.73	4.14
465.933	4.05
466.135	4.04
466.338	4.01
466.541	4.09
466.743	3.99
466.946	3.96
467.148	3.96
467.351	3.99
467.553	3.98
467.756	4.13
467.958	4.1
468.161	4.06
468.363	4.07
468.566	4.05
468.768	4.03
468.971	4.12
469.173	4.18
469.375	4.23
469.578	4.21
469.78	4.21
469.983	4.2
470.185	4.12
470.387	4.15
470.59	4.2
470.792	4.19
470.994	4.19
471.196	4.16
471.399	4.16
471.601	4.19
471.803	4.11
472.005	4.06
472.208	4.02
472.41	4.02
472.612	4.06
472.814	4.1
473.016	4.23
473.218	4.19
473.421	4.25
473.623	4.29
473.825	4.26
474.027	4.34
474.229	4.36
474.431	4.34
474.633	4.42
474.835	4.46
475.037	4.35
475.239	4.36
475.441	4.4
475.643	4.32
475.845	4.28
476.047	4.31
476.249	4.27
476.451	4.33
476.653	4.46
476.855	4.42
477.057	4.42
477.258	4.42
477.46	4.34
477.662	4.37
477.864	4.35
478.066	4.39
478.268	4.38
478.469	4.39
478.671	4.34
478.873	4.31
479.075	4.28
479.276	4.27
479.478	4.29
479.68	4.22
479.882	4.24
480.083	4.23
480.285	4.18
480.487	4.15
480.688	4.17
480.89	4.19
481.091	4.15
481.293	4.18
481.495	4.2
481.696	4.29
481.898	4.35
482.099	4.32
482.301	4.36
482.502	4.37
482.704	4.39
482.905	4.41
483.107	4.41
483.308	4.43
483.51	4.4
483.711	4.39
483.913	4.36
484.114	4.37
484.315	4.39
484.517	4.37
484.718	4.36
484.92	4.34
485.121	4.32
485.322	4.27
485.524	4.25
485.725	4.29
485.926	4.3
486.127	4.31
486.329	4.28
486.53	4.25
486.731	4.29
486.932	4.29
487.134	4.29
487.335	4.28
487.536	4.33
487.737	4.31
487.938	4.28
488.139	4.25
488.341	4.24
488.542	4.25
488.743	4.27
488.944	4.24
489.145	4.26
489.346	4.31
489.547	4.32
489.748	4.35
489.949	4.4
490.15	4.46
490.351	4.45
490.552	4.48
490.753	4.5
490.954	4.49
491.155	4.56
491.356	4.54
491.557	4.51
491.758	4.57
491.959	4.52
492.159	4.49
492.36	4.47
492.561	4.48
492.762	4.46
492.963	4.42
493.164	4.49
493.364	4.44
493.565	4.48
493.766	4.51
493.967	4.44
494.167	4.46
494.368	4.5
494.569	4.48
494.769	4.53
494.97	4.55
495.171	4.59
495.371	4.55
495.572	4.55
495.773	4.5
495.973	4.5
496.174	4.49
496.375	4.55
496.575	4.55
496.776	4.58
496.976	4.6
497.177	4.57
497.377	4.56
497.578	4.54
497.778	4.49
497.979	4.51
498.179	4.55
498.38	4.62
498.58	4.61
498.78	4.6
498.981	4.53
499.181	4.44
499.382	4.46
499.582	4.44
499.782	4.45
499.983	4.56
500.183	4.58
500.383	4.57
500.584	4.56
500.784	4.54
500.984	4.61
501.184	4.72
501.385	4.86
501.585	4.92
501.785	4.96
501.985	4.98
502.185	4.96
502.386	4.98
502.586	4.99
502.786	5
502.986	4.97
503.186	4.88
503.386	4.94
503.586	4.93
503.786	4.97
503.987	5.03
504.187	5.01
504.387	5.07
504.587	5.04
504.787	5.05
504.987	5.14
505.187	5.22
505.387	5.29
505.587	5.24
505.786	5.3
505.986	5.33
506.186	5.34
506.386	5.34
506.586	5.26
506.786	5.31
506.986	5.28
507.186	5.26
507.386	5.32
507.585	5.37
507.785	5.45
507.985	5.51
508.185	5.48
508.384	5.51
508.584	5.52
508.784	5.58
508.984	5.67
509.183	5.74
509.383	5.61
509.583	5.59
509.782	5.64
509.982	5.64
510.182	5.57
510.381	5.65
510.581	5.67
510.781	5.74
510.98	5.85
511.18	5.84
511.379	5.85
511.579	6.01
511.778	6.08
511.978	6.05
512.177	6.13
512.377	6.25
512.576	6.22
512.776	6.24
512.975	6.27
513.175	6.2
513.374	6.22
513.573	6.25
513.773	6.24
513.972	6.29
514.172	6.26
514.371	6.22
514.57	6.24
514.77	6.26
514.969	6.24
515.168	6.25
515.367	6.26
515.567	6.32
515.766	6.33
515.965	6.31
516.164	6.31
516.364	6.39
516.563	6.49
516.762	6.56
516.961	6.6
517.16	6.69
517.359	6.76
517.559	6.87
517.758	6.84
517.957	6.87
518.156	6.96
518.355	7.02
518.554	7.07
518.753	7.03
518.952	7
519.151	7.03
519.35	7.05
519.549	7.04
519.748	6.98
519.947	7.08
520.146	7.19
520.345	7.26
520.544	7.19
520.743	7.23
520.942	7.34
521.141	7.4
521.339	7.45
521.538	7.44
521.737	7.56
521.936	7.65
522.135	7.58
522.333	7.51
522.532	7.42
522.731	7.51
522.93	7.54
523.129	7.51
523.327	7.55
523.526	7.61
523.725	7.6
523.923	7.52
524.122	7.6
524.321	7.7
524.519	7.76
524.718	7.91
524.917	7.93
525.115	7.94
525.314	7.96
525.512	7.99
525.711	7.95
525.909	8.01
526.108	8.12
526.306	8.09
526.505	8.13
526.703	8.23
526.902	8.26
527.1	8.32
527.299	8.37
527.497	8.46
527.696	8.46
527.894	8.53
528.092	8.6
528.291	8.6
528.489	8.65
528.688	8.65
528.886	8.66
529.084	8.66
529.283	8.67
529.481	8.7
529.679	8.71
529.877	8.73
530.076	8.74
530.274	8.72
530.472	8.77
530.67	8.82
530.869	8.87
531.067	8.89
531.265	8.95
531.463	8.98
531.661	9.04
531.859	9.12
532.057	9.2
532.255	9.28
532.454	9.4
532.652	9.41
532.85	9.43
533.048	9.43
533.246	9.46
533.444	9.49
533.642	9.53
533.84	9.52
534.038	9.5
534.236	9.52
534.434	9.53
534.632	9.53
534.83	9.6
535.027	9.65
535.225	9.74
535.423	9.83
535.621	9.87
535.819	9.9
536.017	9.93
536.215	10.02
536.412	10.09
536.61	10.08
536.808	10.1
537.006	10.11
537.203	10.13
537.401	10.08
537.599	10.06
537.797	10.11
537.994	10.19
538.192	10.25
538.39	10.26
538.587	10.3
538.785	10.39
538.983	10.49
539.18	10.59
539.378	10.67
539.575	10.79
539.773	10.91
539.97	10.95
540.168	10.97
540.366	11.04
540.563	11.05
540.761	11.1
540.958	11.17
541.155	11.16
541.353	11.18
541.55	11.22
541.748	11.26
541.945	11.29
542.143	11.32
542.34	11.37
542.537	11.41
542.735	11.46
542.932	11.51
543.129	11.53
543.327	11.61
543.524	11.7
543.721	11.78
543.919	11.82
544.116	11.84
544.313	11.91
544.51	12.02
544.708	12.12
544.905	12.24
545.102	12.3
545.299	12.41
545.496	12.48
545.693	12.46
545.891	12.45
546.088	12.51
546.285	12.59
546.482	12.65
546.679	12.71
546.876	12.69
547.073	12.74
547.27	12.74
547.467	12.73
547.664	12.76
547.861	12.85
548.058	12.91
548.255	12.94
548.452	12.95
548.649	13.05
548.846	12.97
549.043	12.97
549.24	13
549.437	13.04
549.633	13.18
549.83	13.24
550.027	13.27
550.224	13.32
550.421	13.35
550.618	13.32
550.814	13.31
551.011	13.33
551.208	13.45
551.405	13.46
551.601	13.46
551.798	13.4
551.995	13.39
552.191	13.47
552.388	13.47
552.585	13.51
552.781	13.58
552.978	13.61
553.175	13.74
553.371	13.78
553.568	13.88
553.764	14.03
553.961	14.08
554.157	14.18
554.354	14.32
554.55	14.41
554.747	14.56
554.943	14.82
555.14	14.84
555.336	14.8
555.533	14.94
555.729	14.92
555.926	14.81
556.122	14.84
556.318	14.85
556.515	14.76
556.711	14.82
556.907	14.86
557.104	14.69
557.3	14.76
557.496	14.86
557.693	14.84
557.889	15.03
558.085	15.19
558.281	15.33
558.478	15.42
558.674	15.59
558.87	15.7
559.066	15.79
559.262	15.86
559.459	16.05
559.655	16.21
559.851	16.25
560.047	16.15
560.243	16.19
560.439	16.18
560.635	16.14
560.831	16.12
561.027	16.17
561.223	16.28
561.419	16.37
561.615	16.34
561.811	16.34
562.007	16.34
562.203	16.41
562.399	16.45
562.595	16.58
562.791	16.73
562.987	16.75
563.183	16.72
563.379	16.73
563.575	16.74
563.771	16.67
563.966	16.8
564.162	16.92
564.358	16.95
564.554	17.16
564.75	17.16
564.945	17.13
565.141	17.19
565.337	17.21
565.533	17.21
565.728	17.29
565.924	17.39
566.12	17.38
566.315	17.42
566.511	17.5
566.707	17.39
566.902	17.39
567.098	17.59
567.293	17.53
567.489	17.63
567.684	17.68
567.88	17.73
568.076	17.87
568.271	17.97
568.467	17.99
568.662	18.1
568.858	18.25
569.053	18.31
569.248	18.28
569.444	18.5
569.639	18.6
569.835	18.61
570.03	18.69
570.225	18.66
570.421	18.67
570.616	18.68
570.812	18.63
571.007	18.68
571.202	18.81
571.397	18.86
571.593	18.82
571.788	18.79
571.983	18.88
572.178	18.88
572.374	18.97
572.569	19.07
572.764	19.09
572.959	19.14
573.154	19.15
573.35	19.19
573.545	19.15
573.74	19.16
573.935	19.23
574.13	19.19
574.325	19.3
574.52	19.36
574.715	19.28
574.91	19.34
575.105	19.45
575.3	19.5
575.495	19.49
575.69	19.54
575.885	19.61
576.08	19.53
576.275	19.66
576.47	19.63
576.665	19.59
576.86	19.68
577.055	19.73
577.25	19.7
577.444	19.71
577.639	19.82
577.834	19.95
578.029	19.94
578.224	20.15
578.418	20.14
578.613	20.29
578.808	20.31
579.003	20.42
579.197	20.45
579.392	20.56
579.587	20.57
579.781	20.58
579.976	20.54
580.171	20.77
580.365	20.71
580.56	20.69
580.755	20.75
580.949	20.88
581.144	20.85
581.338	20.96
581.533	21
581.727	21.04
581.922	21.01
582.116	21.03
582.311	20.94
582.505	21.02
582.7	21.12
582.894	21.06
583.089	21.01
583.283	21.03
583.478	21.02
583.672	21.01
583.866	20.98
584.061	20.96
584.255	20.99
584.449	20.96
584.644	21.18
584.838	21.28
585.032	21.31
585.226	21.32
585.421	21.43
585.615	21.49
585.809	21.6
586.003	21.84
586.198	21.89
586.392	21.99
586.586	22.21
586.78	22.14
586.974	22.14
587.168	22.1
587.363	22.01
587.557	21.92
587.751	21.82
587.945	21.81
588.139	21.81
588.333	21.88
588.527	21.73
588.721	21.58
588.915	21.74
589.109	21.75
589.303	21.83
589.497	21.98
589.691	21.99
589.885	22.13
590.079	22.1
590.273	22.04
590.466	22.04
590.66	22.25
590.854	22.37
591.048	22.17
591.242	22.04
591.436	22.02
591.629	22
591.823	22.03
592.017	22.09
592.211	22.15
592.404	22.1
592.598	22.08
592.792	22.05
592.986	21.91
593.179	21.96
593.373	22.03
593.567	22.04
593.76	22.08
593.954	22.12
594.147	22.11
594.341	22.11
594.535	22.15
594.728	22.28
594.922	22.25
595.115	22.3
595.309	22.27
595.502	22.32
595.696	22.28
595.889	22.26
596.083	22.26
596.276	22.19
596.47	22.15
596.663	22.21
596.856	22.13
597.05	22.18
597.243	22.18
597.437	22.35
597.63	22.38
597.823	22.47
598.017	22.54
598.21	22.66
598.403	22.83
598.596	22.87
598.79	22.9
598.983	22.95
599.176	23
599.369	23.07
599.563	22.94
599.756	23.02
599.949	23.05
600.142	22.94
600.335	22.82
600.528	22.64
600.722	22.74
600.915	22.73
601.108	22.69
601.301	22.7
601.494	22.65
601.687	22.65
601.88	22.63
602.073	22.45
602.266	22.51
602.459	22.48
602.652	22.52
602.845	22.6
603.038	22.64
603.231	22.72
603.424	22.7
603.617	22.68
603.809	22.73
604.002	22.8
604.195	22.87
604.388	22.85
604.581	22.9
604.774	22.92
604.966	22.85
605.159	22.88
605.352	22.91
605.545	23.02
605.737	23.18
605.93	23.18
606.123	23.15
606.316	23.28
606.508	23.34
606.701	23.44
606.894	23.66
607.086	23.65
607.279	23.77
607.471	23.79
607.664	23.73
607.857	23.73
608.049	23.88
608.242	24.05
608.434	24.27
608.627	24.41
608.819	24.51
609.012	24.63
609.204	24.96
609.397	25.19
609.589	25.63
609.782	26.03
609.974	26.47
610.166	26.67
610.359	26.92
610.551	27.19
610.743	27.56
610.936	27.8
611.128	27.97
611.32	28.1
611.513	28.15
611.705	28.18
611.897	28.08
612.09	28.13
612.282	27.95
612.474	27.83
612.666	27.67
612.858	27.4
613.051	27.24
613.243	27.12
613.435	26.86
613.627	26.75
613.819	26.54
614.011	26.43
614.203	26.01
614.395	26.09
614.588	26.02
614.78	25.91
614.972	25.8
615.164	25.8
615.356	25.74
615.548	25.74
615.74	25.53
615.932	25.49
616.124	25.21
616.315	25.3
616.507	25.32
616.699	25.19
616.891	24.86
617.083	24.85
617.275	24.69
617.467	24.47
617.659	24.48
617.85	24.47
618.042	24.2
618.234	24.3
618.426	24.33
618.618	24.15
618.809	24.08
619.001	24.25
619.193	24.29
619.384	24.32
619.576	24.34
619.768	24.28
619.959	24.43
620.151	24.65
620.343	24.75
620.534	24.66
620.726	24.81
620.917	24.89
621.109	24.95
621.301	25.05
621.492	25.15
621.684	25.22
621.875	25.37
622.067	25.25
622.258	25.06
622.45	25.2
622.641	25.2
622.832	25.07
623.024	25.2
623.215	25.16
623.407	25.1
623.598	25.04
623.789	25.06
623.981	24.95
624.172	24.97
624.363	25.02
624.555	24.82
624.746	24.65
624.937	24.76
625.129	24.63
625.32	24.64
625.511	24.58
625.702	24.71
625.893	24.66
626.085	24.7
626.276	24.82
626.467	24.86
626.658	24.93
626.849	25.1
627.04	25.09
627.231	25.03
627.422	25.16
627.614	25.17
627.805	25.11
627.996	25.14
628.187	25.07
628.378	25.04
628.569	25.02
628.76	25.01
628.951	25.01
629.142	25.08
629.332	25.15
629.523	25.12
629.714	25.25
629.905	25.38
630.096	25.4
630.287	25.48
630.478	25.47
630.669	25.54
630.859	25.67
631.05	25.71
631.241	25.74
631.432	25.75
631.623	25.58
631.813	25.53
632.004	25.48
632.195	25.51
632.385	25.45
632.576	25.5
632.767	25.47
632.957	25.21
633.148	25.13
633.339	25.02
633.529	24.98
633.72	25.06
633.91	25.05
634.101	25.08
634.292	25.06
634.482	25.13
634.673	25.12
634.863	25.08
635.054	25.18
635.244	25.3
635.435	25.4
635.625	25.58
635.815	25.41
636.006	25.39
636.196	25.37
636.387	25.4
636.577	25.46
636.767	25.28
636.958	25.34
637.148	25.3
637.338	25.06
637.529	24.97
637.719	24.89
637.909	25.2
638.099	25.34
638.29	25.35
638.48	25.26
638.67	25.19
638.86	25.3
639.05	25.35
639.241	25.35
639.431	25.45
639.621	25.62
639.811	25.56
640.001	25.54
640.191	25.43
640.381	25.29
640.571	25.37
640.761	25.51
640.951	25.34
641.141	25.44
641.331	25.52
641.521	25.74
641.711	25.56
641.901	25.72
642.091	25.57
642.281	25.41
642.471	25.42
642.661	25.41
642.851	25.23
643.041	25.28
643.231	25.22
643.42	25.26
643.61	25.33
643.8	25.4
643.99	25.18
644.18	25.39
644.369	25.8
644.559	25.97
644.749	26.14
644.939	26.27
645.128	26.49
645.318	26.5
645.508	26.59
645.697	26.39
645.887	26.17
646.076	26.25
646.266	26.06
646.456	25.79
646.645	25.61
646.835	25.43
647.024	25.33
647.214	25.22
647.403	25.2
647.593	25.26
647.782	25.33
647.972	25.56
648.161	25.51
648.351	25.73
648.54	25.77
648.73	25.74
648.919	25.9
649.108	26.2
649.298	26.26
649.487	26.24
649.677	26.14
649.866	26.09
650.055	26.11
650.244	26.19
650.434	26.11
650.623	26.21
650.812	26.48
651.002	26.45
651.191	26.35
651.38	26.15
651.569	26.1
651.758	26.15
651.947	26.16
652.137	26.16
652.326	26.37
652.515	26.33
652.704	26.29
652.893	26.22
653.082	26.21
653.271	26.07
653.46	26.16
653.649	26.4
653.838	26.38
654.027	26.1
654.216	25.99
654.405	25.85
654.594	25.9
654.783	25.77
654.972	25.97
655.161	26.14
655.35	26.18
655.539	26.43
655.728	26.29
655.916	26.14
656.105	26.27
656.294	26.2
656.483	26.09
656.672	25.98
656.86	25.93
657.049	25.84
657.238	25.54
657.427	25.58
657.615	25.39
657.804	25.25
657.993	25.46
658.181	25.5
658.37	25.64
658.559	25.83
658.747	25.98
658.936	25.97
659.125	25.96
659.313	25.98
659.502	25.93
659.69	26.05
659.879	26.23
660.067	26.17
660.256	26.35
660.444	26.23
660.633	26.08
660.821	26.04
661.01	26.09
661.198	25.99
661.387	26.14
661.575	26.23
661.763	26.11
661.952	26.06
662.14	26.03
662.328	26.12
662.517	26.36
662.705	26.35
662.893	26.55
663.082	27.01
663.27	27.39
663.458	27.35
663.646	27.32
663.834	27.48
664.023	27.46
664.211	27.58
664.399	27.37
664.587	27.06
664.775	27.25
664.963	26.93
665.152	26.37
665.34	26.33
665.528	26.45
665.716	26.26
665.904	26.26
666.092	26.5
666.28	26.49
666.468	26.47
666.656	26.72
666.844	26.72
667.032	26.86
667.22	27.07
667.408	26.9
667.596	26.8
667.784	27.04
667.971	27.13
668.159	26.86
668.347	26.73
668.535	26.85
668.723	26.92
668.911	27.08
669.098	26.69
669.286	26.69
669.474	26.64
669.662	26.61
669.849	26.5
670.037	26.58
670.225	26.8
670.413	26.76
670.6	26.84
670.788	26.61
670.976	26.6
671.163	27.01
671.351	26.88
671.538	26.97
671.726	27.03
671.913	27.13
672.101	26.79
672.289	26.7
672.476	26.83
672.664	26.65
672.851	26.88
673.039	26.71
673.226	26.74
673.413	26.82
673.601	26.44
673.788	26.42
673.976	26.25
674.163	26.44
674.35	26.57
674.538	26.5
674.725	26.69
674.912	26.57
675.1	26.51
675.287	26.47
675.474	26.64
675.662	27.04
675.849	27.19
676.036	27.29
676.223	27.09
676.411	27.08
676.598	27.15
676.785	26.95
676.972	27.09
677.159	27.21
677.346	27.48
677.533	27.31
677.721	27.31
677.908	27.32
678.095	27.57
678.282	27.71
678.469	27.58
678.656	27.4
678.843	27.45
679.03	27.29
679.217	27.34
679.404	27.06
679.591	27.39
679.778	27.28
679.964	27.1
680.151	26.86
680.338	26.78
680.525	26.79
680.712	27.1
680.899	27.21
681.086	27.34
681.272	27.36
681.459	27.42
681.646	27.23
681.833	27.46
682.02	27.47
682.206	27.46
682.393	27.67
682.58	27.84
682.766	27.7
682.953	27.64
683.14	27.86
683.326	27.66
683.513	28.05
683.7	28.1
683.886	27.83
684.073	28.06
684.259	28.31
684.446	28.38
684.632	28.32
684.819	28.45
685.005	28.64
685.192	28.45
685.378	28.6
685.565	28.28
685.751	28.06
685.938	27.89
686.124	27.85
686.31	27.86
686.497	27.66
686.683	27.86
686.87	27.77
687.056	27.8
687.242	27.76
687.429	27.76
687.615	27.72
687.801	27.88
687.987	28.1
688.174	28.03
688.36	27.98
688.546	28.14
688.732	27.76
688.918	27.78
689.105	27.84
689.291	27.95
689.477	27.89
689.663	27.89
689.849	27.98
690.035	27.91
690.221	27.89
690.407	27.89
690.593	27.8
690.779	28.14
690.965	28.23
691.151	28.07
691.337	28.22
691.523	28.11
691.709	28.03
691.895	28.14
692.081	28.45
692.267	28.73
692.453	28.96
692.639	28.79
692.825	28.67
693.011	28.77
693.196	28.91
693.382	28.74
693.568	28.99
693.754	29.25
693.94	29.17
694.125	29.05
694.311	28.97
694.497	28.86
694.682	28.98
694.868	28.99
695.054	29.16
695.239	28.82
695.425	28.91
695.611	28.74
695.796	28.88
695.982	28.67
696.168	28.62
696.353	28.57
696.539	28.45
696.724	28.34
696.91	28.45
697.095	27.97
697.281	28.14
697.466	27.98
697.652	27.94
697.837	27.76
698.023	27.85
698.208	27.92
698.393	27.93
698.579	27.94
698.764	28.03
698.949	27.84
699.135	27.97
699.32	27.8
699.505	27.96
699.691	27.96
699.876	27.93
700.061	27.99
700.246	27.9
700.432	27.77
700.617	27.88
700.802	27.77
700.987	28.12
701.172	28.28
701.358	28.4
701.543	28.38
701.728	28.8
701.913	28.95
702.098	28.76
702.283	29.29
702.468	29.37
702.653	29.37
702.838	29.74
703.023	29.33
703.208	29.42
703.393	29.73
703.578	29.67
703.763	29.74
703.948	29.8
704.133	30.45
704.318	30.4
704.503	30.61
704.688	30.75
704.873	30.95
705.057	31.36
705.242	31.57
705.427	31.52
705.612	31.79
705.797	31.72
705.981	32.04
706.166	31.91
706.351	31.3
706.536	31.72
706.72	31.84
706.905	31.82
707.09	31.74
707.274	31.61
707.459	31.73
707.644	31.75
707.828	32.07
708.013	32.53
708.197	32.24
708.382	32.8
708.567	32.36
708.751	32.33
708.936	32.08
709.12	32.23
709.305	31.98
709.489	32.21
709.673	32.2
709.858	31.97
710.042	31.27
710.227	31.5
710.411	31.28
710.596	31.43
710.78	31.75
710.964	31.82
711.149	31.7
711.333	31.77
711.517	31.69
711.702	31.7
711.886	31.5
712.07	31.66
712.254	31.38
712.438	31.41
712.623	31.42
712.807	30.81
712.991	30.71
713.175	30.6
713.359	30.36
713.544	29.69
713.728	29.54
713.912	29.44
714.096	29.4
714.28	29.6
714.464	29.49
714.648	29.44
714.832	29.2
715.016	29.05
715.2	29.01
715.384	29.06
715.568	29.65
715.752	29.65
715.936	29.49
716.12	29.16
716.304	28.77
716.488	28.77
716.671	28.22
716.855	28.28
717.039	28.28
717.223	28.11
717.407	27.97
717.59	27.64
717.774	27.29
717.958	27.4
718.142	27.49
718.325	27.58
718.509	27.28
718.693	27.76
718.877	27.75
719.06	27.9
719.244	28.06
719.428	28.08
719.611	27.9
719.795	28.07
719.978	28.01
720.162	28.04
720.345	28.34
720.529	28.59
720.713	28.51
720.896	28.61
721.08	28.59
721.263	28.72
721.446	29.22
721.63	29.22
721.813	29.12
721.997	29.32
722.18	29.07
722.364	29.01
722.547	28.73
722.73	28.91
722.914	28.56
723.097	28.44
723.28	28.6
723.464	28.35
723.647	28.92
723.83	29.27
724.013	29.15
724.197	29.16
724.38	29.09
724.563	29.34
724.746	29.44
724.929	30.25
725.112	30.18
725.296	29.7
725.479	29.86
725.662	29.62
725.845	29.14
726.028	29.55
726.211	29.77
726.394	29.79
726.577	29.73
726.76	29.46
726.943	29.04
727.126	29.18
727.309	29.14
727.492	28.94
727.675	28.61
727.858	28.67
728.041	28.08
728.224	28.02
728.407	28.06
728.589	28.03
728.772	27.98
728.955	28.15
729.138	28.25
729.321	28.42
729.503	28.42
729.686	28.82
729.869	28.96
730.052	29.17
730.234	29.23
730.417	29.15
730.6	29.32
730.782	29.44
730.965	29.73
731.148	29.83
731.33	30.15
731.513	30.29
731.695	29.91
731.878	29.66
732.061	29.85
732.243	29.79
732.426	29.95
732.608	30.2
732.791	30.15
732.973	29.98
733.156	29.92
733.338	29.88
733.52	29.85
733.703	30.1
733.885	30.83
734.068	30.92
734.25	31.47
734.432	31.47
734.615	31.12
734.797	31.05
734.979	31.03
735.162	31.25
735.344	31.29
735.526	31.39
735.708	31.54
735.891	31.36
736.073	31.41
736.255	30.97
736.437	30.87
736.619	30.9
736.802	31.12
736.984	31.06
737.166	31.09
737.348	30.94
737.53	31.07
737.712	31.11
737.894	31.34
738.076	31.24
738.258	31.59
738.44	31.95
738.622	31.89
738.804	32.06
738.986	32.24
739.168	32.44
739.35	32.26
739.532	32.02
739.714	31.75
739.896	31.45
740.078	31.58
740.259	31.41
740.441	30.84
740.623	31.05
740.805	31.44
740.987	31.3
741.168	31.24
741.35	31.72
741.532	31.89
741.714	32.35
741.895	32.35
742.077	32.78
742.259	32.77
742.44	33.22
742.622	33.28
742.804	33.31
742.985	33.54
743.167	33.11
743.348	32.74
743.53	32.96
743.711	33.03
743.893	33.6
744.075	33.26
744.256	33.31
744.438	33.42
744.619	33.18
744.8	32.45
744.982	32.24
745.163	32.65
745.345	32.95
745.526	33.02
745.707	33.39
745.889	33.28
746.07	33.39
746.252	33.58
746.433	34.42
746.614	35.07
746.795	35.62
746.977	35.41
747.158	35.36
747.339	35.34
747.52	34.9
747.702	34.6
747.883	34.68
748.064	34.82
748.245	34.44
748.426	33.75
748.607	33.47
748.788	33.01
748.97	33.6
749.151	33.54
749.332	33.38
749.513	34.21
749.694	34.54
749.875	34.46
750.056	34.47
750.237	35.15
750.418	35.1
750.599	34.76
750.78	34.59
750.96	34.46
751.141	34.8
751.322	35.29
751.503	35.29
751.684	34.83
751.865	34.63
752.046	33.95
752.226	33.74
752.407	33.74
752.588	33.97
752.769	34.21
752.949	33.96
753.13	33.08
753.311	32.57
753.492	31.88
753.672	31.71
753.853	31.86
754.034	32.41
754.214	32.3
754.395	32.17
754.575	33.26
754.756	33.13
754.937	33.32
755.117	34.14
755.298	34.03
755.478	34.41
755.659	34.69
755.839	34.43
756.02	34.59
756.2	34.48
756.381	34.79
756.561	33.87
756.741	34.03
756.922	34.01
757.102	33.74
757.283	33.77
757.463	32.98
757.643	33.02
757.823	33.33
758.004	32.63
758.184	32.17
758.364	31.58
758.545	31.48
758.725	30.94
758.905	30.06
759.085	29.32
759.265	29.22
759.446	29.16
759.626	28.51
759.806	27.71
759.986	27.22
760.166	27.65
760.346	27.48
760.526	27.18
760.706	27.16
760.886	27.41
761.066	27.68
761.246	27.55
761.426	27.96
761.606	28.06
761.786	28.43
761.966	28.91
762.146	28.08
762.326	27.66
762.506	27.73
762.686	28.26
762.866	28.52
763.046	28.59
763.225	28.58
763.405	28.42
763.585	28.13
763.765	27.97
763.945	27.86
764.124	28.39
764.304	29.15
764.484	29.25
764.664	29.16
764.843	29.2
765.023	29.11
765.203	29.52
765.382	29.84
765.562	29.94
765.741	30.59
765.921	31.01
766.101	31.27
766.28	30.82
766.46	31.41
766.639	31.98
766.819	32.44
766.998	32.86
767.178	32.78
767.357	32.83
767.537	33.29
767.716	33
767.896	33.12
768.075	33.3
768.254	34.03
768.434	33.85
768.613	33.98
768.792	33.86
768.972	34.5
769.151	34.48
769.33	34.37
769.51	34.93
769.689	34.7
769.868	34.74
770.047	34.66
770.226	34.37
770.406	34.08
770.585	33.66
770.764	33.61
770.943	32.91
771.122	32.63
771.301	33.22
771.48	33.42
771.66	33.87
771.839	33.5
772.018	34.19
772.197	34.17
772.376	34.72
772.555	34.71
772.734	34.86
772.913	35.13
773.092	36.31
773.271	36.48
773.449	36.4
773.628	36.6
773.807	37.41
773.986	36.95
774.165	36.67
774.344	36.88
774.523	36.69
774.701	36.29
774.88	36.19
775.059	36.19
775.238	35.96
775.417	36.06
775.595	35.89
775.774	34.88
775.953	34.49
776.131	34.92
776.31	34.58
776.489	34.58
776.667	35.48
776.846	35.91
777.025	35.46
777.203	34.65
777.382	34.16
777.56	34.42
777.739	35.06
777.917	34.48
778.096	35.43
778.274	35.93
778.453	36.28
778.631	35.89
778.81	35.41
778.988	35.09
779.166	36.47
779.345	36.91
779.523	36.3
779.702	36.42
779.88	37.17
780.058	36.54
780.237	35.16
780.415	34.57
780.593	34.74
780.771	34.76
780.95	35.43
781.128	34.62
781.306	34.61
781.484	34.38
781.662	34.43
781.841	34.95
782.019	34.46
782.197	35.81
782.375	36.19
782.553	35.71
782.731	35.71
782.909	35.91
783.087	36.5
783.265	36.81
783.443	38.24
783.621	38.32
783.799	37.73
783.977	37.43
784.155	37.05
784.333	36.15
784.511	36.43
784.689	36.19
784.867	35.71
785.045	35.12
785.223	35.11
785.4	33.66
785.578	33.84
785.756	34.78
785.934	35.98
786.112	36.02
786.289	35.85
786.467	35.74
786.645	35.72
786.823	34.92
787	34.55
787.178	34.04
787.356	34.44
787.533	33.87
787.711	32.18
787.889	31.59
788.066	31.33
788.244	32.06
788.421	32.46
788.599	32.83
788.776	33.66
788.954	33.47
789.131	33.7
789.309	33.67
789.486	34.12
789.664	35.23
789.841	35.36
790.019	35.4
790.196	35.15
790.373	35.37
790.551	34.95
790.728	35.52
790.906	35.96
791.083	35.11
791.26	35.19
791.437	34.81
791.615	34.82
791.792	34.49
791.969	33.73
792.146	34.2
792.324	32.44
792.501	32.87
792.678	32.08
792.855	32.15
793.032	32.16
793.209	31.77
793.387	31.41
793.564	29.7
793.741	30.61
793.918	30.99
794.095	31.64
794.272	33.35
794.449	33.11
794.626	32.01
794.803	32
794.98	32.4
795.157	32.96
795.334	33.05
795.511	34.3
795.688	34.57
795.864	34.46
796.041	33.61
796.218	32.78
796.395	32.85
796.572	32.89
796.749	33.01
796.925	32.8
797.102	32.85
797.279	33.29
797.456	33.04
797.632	31.94
797.809	31.6
797.986	32.3
798.162	32.67
798.339	33.1
798.516	34.15
798.692	34.72
798.869	35.37
799.046	34.95
799.222	34.64
799.399	34.86
799.575	34.84
799.752	35.85
799.928	34.45
800.105	34.86
800.281	34.44
800.458	34.01
800.634	33.25
800.811	33.58
800.987	32.58
801.163	32.87
801.34	32.41
801.516	32.94
801.692	32.57
801.869	33.29
802.045	32.24
802.221	33.14
802.398	33.09
802.574	33.68
802.75	32.97
802.926	33.35
803.103	32.65
803.279	32.11
803.455	31.9
803.631	31.83
803.807	32.82
803.983	34.02
804.16	33.21
804.336	33.27
804.512	33.99
804.688	33.35
804.864	34.03
805.04	34.22
805.216	34.5
805.392	34.33
805.568	33.91
805.744	31.45
805.92	30.97
806.096	30.23
806.272	30
806.448	28.37
806.623	28.62
806.799	29.02
806.975	28.72
807.151	29.28
807.327	29.9
807.503	29.55
807.678	31.45
807.854	30.42
808.03	30.87
808.206	31.06
808.381	30.98
808.557	30.87
808.733	31.46
808.908	31.66
809.084	31.1
809.26	30.61
809.435	31.81
809.611	31.2
809.787	32.28
809.962	32.19
810.138	32.79
810.313	33.66
810.489	34.81
810.664	33.84
810.84	33.46
811.015	34.5
811.191	34.51
811.366	35.23
811.542	35.58
811.717	34.68
811.892	35.71
812.068	34.33
812.243	32.37
812.419	32.3
812.594	32.44
812.769	33.26
812.944	32.27
813.12	31.6
813.295	30.71
813.47	29.64
813.645	30.68
813.821	29.07
813.996	29.26
814.171	30.16
814.346	28.62
814.521	28.21
814.697	27.24
814.872	25.77
815.047	26.31
815.222	26.41
815.397	25.59
815.572	23.61
815.747	23.92
815.922	23.78
816.097	24.26
816.272	24.63
816.447	25.15
816.622	24.78
816.797	25.83
816.972	25.77
817.147	24.45
817.322	25.3
817.496	25.65
817.671	25.91
817.846	25.83
818.021	25.7
818.196	24.18
818.371	24.02
818.545	24.53
818.72	25.6
818.895	26.12
819.069	26.18
819.244	26.62
819.419	27.02
819.594	27.32
819.768	28.24
819.943	27.51
820.117	28.31
820.292	27.81
820.467	27.12
820.641	26.55
820.816	25.72
820.99	25.73
821.165	25.58
821.339	25.24
821.514	25.14
821.688	24.66
821.863	24.61
822.037	24.37
822.212	24.29
822.386	24.41
822.56	24.67
822.735	24.78
822.909	24.67
823.084	24.57
823.258	24.58
823.432	24.42
823.606	24.5
823.781	24.75
823.955	25.08
824.129	25.47
824.303	25.77
824.478	25.54
824.652	25.13
824.826	25.28
825	25.61
825.174	25.93
825.348	26.04
825.523	25.77
825.697	25.6
825.871	25.59
826.045	24.99
826.219	24.65
826.393	25.09
826.567	25.65
826.741	25.48
826.915	25.52
827.089	25.82
827.263	25.64
827.437	25.91
827.611	25.97
827.784	25.64
827.958	26.27
828.132	26.5
828.306	25.94
828.48	26.64
828.654	26.41
828.827	26.15
829.001	26.1
829.175	26.77
829.349	27.72
829.522	27.9
829.696	28.58
829.87	28.32
830.044	27.91
830.217	28.72
830.391	27.8
830.565	28.54
830.738	29.6
830.912	29.17
831.085	28.68
831.259	27.91
831.432	27.81
831.606	27.84
831.779	27.74
831.953	27.79
832.126	27.87
832.3	27.5
832.473	28.08
832.647	27.08
832.82	27.35
832.994	27.19
833.167	26.84
833.34	26.86
833.514	27.45
833.687	26.82
833.86	26.96
834.034	26.29
834.207	26.74
834.38	26.91
834.553	27.11
834.727	27.14
834.9	26.79
835.073	26.39
835.246	26.37
835.419	25.48
835.593	26.07
835.766	26.01
835.939	27.14
836.112	27.11
836.285	26.84
836.458	27.55
836.631	27.37
836.804	27.41
836.977	28.75
837.15	28.53
837.323	30.27
837.496	31.2
837.669	29.65
837.842	27.67
838.015	27.61
838.188	28.19
838.361	27.04
838.533	26.92
838.706	29.94
838.879	29.44
839.052	31.06
839.225	28.57
839.398	28
839.57	31.92
839.743	33.56
839.916	32.97
840.088	34.15
840.261	33.5
840.434	34.18
840.607	32.86
840.779	33.21
840.952	32.36
841.124	32.99
841.297	32.1
841.47	31.36
841.642	30.18
841.815	29.48
841.987	27.6
842.16	26.71
842.332	25.77
842.505	26.47
842.677	25.76
842.85	25.48
843.022	26.93
843.194	27.92
843.367	26.62
843.539	27.24
843.712	28.43
843.884	27.34
844.056	27.85
844.229	27.37
844.401	26.29
844.573	28.12
844.745	28.27
844.918	26.5
845.09	27.26
845.262	30.46
845.434	29.69
845.606	30.56
845.779	31.68
845.951	34.42
846.123	37.25
846.295	35.79
846.467	33.76
846.639	34.85
846.811	33.7
846.983	34.41
847.155	33.61
847.327	33.24
847.499	32.56
847.671	31.57
847.843	30.84
848.015	29.34
848.187	27.72
848.359	28.13
848.531	26.6
848.703	25.83
848.875	19.26
849.047	16.18
849.218	14.93
849.39	15.71
849.562	16.63
849.734	20.78
849.905	18.95
850.077	22.26
850.249	23.3
850.421	24.38
850.592	26.63
850.764	30.12
850.936	31.2
851.107	34.4
851.279	33.05
851.451	36.03
851.622	32.92
851.794	35.98
851.965	35.26
852.137	34.68
852.308	30.84
852.48	32.02
852.651	31.82
852.823	32.08
852.994	31.23
853.166	33.45
853.337	29.93
853.509	27.08
853.68	27.27
853.851	27.22
854.023	26.06
854.194	27.27
854.365	28
854.537	30.92
854.708	31.14
854.879	28.39
855.05	26.58
855.222	27.92
855.393	29.56
855.564	27.3
855.735	25.7
855.906	24.81
856.078	25.81
856.249	19.27
856.42	20.39
856.591	20.34
856.762	22.92
856.933	23.33
857.104	22.38
857.275	24.52
857.446	23.55
857.617	24.71
857.788	24.8
857.959	25.52
858.13	29.98
858.301	25
858.472	24.84
858.643	27.29
858.814	27.15
858.985	22.35
859.155	21.31
859.326	19.77
859.497	21.95
859.668	22.65
859.839	20.82
860.009	22.93
860.18	23.54
860.351	22.91
860.522	18.03
860.692	15.91
860.863	19.02
861.034	18.97
861.204	23.25
861.375	23.19
861.546	23.66
861.716	26.24
861.887	24.59
862.057	27.51
862.228	25.67
862.398	26.76
862.569	28.57
862.739	29.79
862.91	30.34
863.08	28.16
863.251	26.08
863.421	25.26
863.592	25.17
863.762	27.08
863.932	26.12
864.103	26.39
864.273	25.87
864.443	26.28
864.614	24.3
864.784	20.26
864.954	20.1
865.125	18.82
865.295	18.08
865.465	17.69
865.635	16.16
865.805	15.1
865.976	19.11
866.146	21.36
866.316	19.82
866.486	20.83
866.656	22.24
866.826	25.97
866.996	28.82
867.166	35.26
867.336	28.95
867.506	26.38
867.676	25.97
867.846	26.33
868.016	25.04
868.186	25.23
868.356	25.93
868.526	27.92
868.696	28.5
868.866	28.23
869.036	22.7
869.206	25.27
869.376	27.06
869.545	28.7
869.715	26.57
869.885	30.15
870.055	34.33
870.224	31.27
870.394	27.31
870.564	23.83
870.734	22.7
870.903	23.61
871.073	23.92
871.243	15.87
871.412	14.58
871.582	13.62
871.751	9.94
871.921	4.05
872.091	8.9
872.26	13.33
872.43	14.82
872.599	14.68
872.769	18.15
872.938	18.93
873.108	27.6
873.277	24.63
873.446	24.8
873.616	24.67
873.785	26.53
873.955	25.2
874.124	23.61
874.293	21.85
874.463	20.63
874.632	15.8
874.801	18.56
874.971	11.66
875.14	15.79
875.309	17
875.478	21.98
875.647	17.44
875.817	18.86
875.986	16.78
876.155	18.4
876.324	21.05
876.493	19.34
876.662	17.29
876.831	22.81
877	24.24
877.17	25.56
877.339	18.9
877.508	24.1
877.677	22.98
877.846	24.96
878.015	21.9
878.184	18.19
878.352	20.76
878.521	19.01
878.69	18.03
878.859	15.06
879.028	15.26
879.197	19.03
879.366	18.27
879.534	18.58
879.703	17.73
879.872	21.79
880.041	23.91
880.21	22.56
880.378	21.93
880.547	22.23
880.716	23
880.884	22.29
881.053	22.06
881.222	22.74
881.39	22.45
881.559	22.66
881.727	22.3
881.896	22.07
882.065	23.2
882.233	23.65
882.402	23.58
882.57	23.7
882.739	23.79
882.907	23.29
883.076	22.86
883.244	22.69
883.412	22.11
883.581	21.84
883.749	21.92
883.918	21.16
884.086	20.96
884.254	20.58
884.423	20.18
884.591	20.31
884.759	20.95
884.927	21.12
885.096	22.03
885.264	22.88
885.432	23.2
885.6	21.45
885.769	21.09
885.937	20.46
886.105	20.6
886.273	20.9
886.441	19.91
886.609	20.12
886.777	21.39
886.945	18.82
887.113	19.16
887.281	17.97
887.449	23.02
887.617	24.14
887.785	24.52
887.953	25.39
888.121	22.85
888.289	22.15
888.457	22.33
888.625	19.92
888.793	21.15
888.961	17.98
889.129	20.4
889.296	14.73
889.464	13.31
889.632	14.11
889.8	10.46
889.967	11.01
890.135	13.28
