Data from 2938766__Reflection_02.txt Node
Date: Fri Mar 13 16:03:02 EDT 2015
User: robert
Spectrometer: USB4E03002
Autoset integration time: false
Trigger mode: 4
Integration Time (sec): 1.000000E-1
Scans to average: 10
Electric dark correction enabled: false
Nonlinearity correction enabled: false
Boxcar width: 5
Stray light correction enabled: false
XAxis mode: Wavelengths
Stop averaging: false
Number of Pixels in Spectrum: 3648
>>>>>Begin Spectral Data<<<<<
177.575	-229.63
177.794	-1595.24
178.014	-1046.15
178.233	-986.96
178.452	-5000
178.672	-130.41
178.891	-258.06
179.11	-223.53
179.33	1428.57
179.549	1380
179.768	40.68
179.987	42.01
180.207	51.67
180.426	39
180.645	36.78
180.864	26.97
181.084	23.63
181.303	5.81
181.522	0.66
181.741	-1.36
181.96	6.64
182.179	-21.29
182.398	17.17
182.618	-30.94
182.837	-11.44
183.056	-79.66
183.275	-88.24
183.494	-12.24
183.713	36.17
183.932	32.37
184.151	28.91
184.37	37.7
184.589	42.21
184.808	21.52
185.027	29.17
185.246	31.4
185.465	18.64
185.684	4.17
185.903	-1.59
186.122	-7.01
186.341	-5.02
186.56	-8.4
186.779	-7.21
186.998	-9.42
187.216	-8.75
187.435	-17.53
187.654	-55.8
187.873	7.97
188.092	85.16
188.311	95.62
188.53	126.74
188.748	126.24
188.967	148.88
189.186	196.13
189.405	441.77
189.623	174.62
189.842	148.51
190.061	158.02
190.28	177
190.498	81.93
190.717	21.05
190.936	-39.07
191.154	-56.42
191.373	-47.01
191.592	-20.46
191.81	-35.32
192.029	-17.07
192.248	-12.56
192.466	-25.31
192.685	-21.8
192.904	-17.59
193.122	-64.35
193.341	-45.5
193.559	-67.73
193.778	-67.66
193.996	-40.34
194.215	-43.84
194.433	-63.57
194.652	-172.76
194.87	-214.68
195.089	-543.09
195.307	-411.48
195.526	-118.53
195.744	-117.4
195.963	-82.23
196.181	-90.89
196.399	-77.72
196.618	-18.54
196.836	-42.2
197.055	-54.93
197.273	-18.27
197.491	8.39
197.71	33.67
197.928	-10.67
198.146	2.32
198.365	-3.9
198.583	-4.74
198.801	-0.47
199.019	-16.07
199.238	-15.26
199.456	-0.4
199.674	-10.46
199.892	12.41
200.111	12.57
200.329	29.17
200.547	18.83
200.765	29.9
200.983	20.13
201.202	16.08
201.42	23.37
201.638	19.89
201.856	11.3
202.074	-4.32
202.292	-31.47
202.51	-64.35
202.728	-41.97
202.946	-20.66
203.165	-43.92
203.383	-44.27
203.601	-78.98
203.819	-83.15
204.037	-100.17
204.255	-109.26
204.473	-66.78
204.691	-86.5
204.909	-24.02
205.127	-66.8
205.345	-123.42
205.562	-42.08
205.78	-54.95
205.998	-6.68
206.216	4.07
206.434	8.26
206.652	-1.33
206.87	-13.4
207.088	-32.07
207.306	-44.78
207.523	-43.24
207.741	-61.16
207.959	-75.54
208.177	-101.7
208.395	-163.32
208.612	-145.28
208.83	-168.97
209.048	-364.86
209.266	-485.88
209.483	-121.94
209.701	-160.64
209.919	-287.56
210.136	-133.06
210.354	-140.19
210.572	-72.26
210.79	-54.55
211.007	-99.84
211.225	-65.73
211.442	-62.67
211.66	-64.29
211.878	-51.43
212.095	-115.35
212.313	-59.77
212.53	-63.28
212.748	-40.17
212.966	-36.97
213.183	-37.94
213.401	-29.9
213.618	-41.8
213.836	-37.9
214.053	-46.9
214.271	-49.3
214.488	-2.19
214.705	-4.52
214.923	2.35
215.14	-3.51
215.358	2.19
215.575	11.29
215.793	15.72
216.01	19.65
216.227	32.72
216.445	33.64
216.662	29.51
216.879	24.06
217.097	28.69
217.314	25.39
217.531	21.74
217.749	13.21
217.966	5.46
218.183	0.26
218.4	8.03
218.618	-4.56
218.835	-0.49
219.052	5.12
219.269	9.41
219.487	2.94
219.704	0.44
219.921	-9.94
220.138	-7.43
220.355	-9.09
220.572	-13.12
220.79	-21.67
221.007	-24.75
221.224	-17.21
221.441	-12.25
221.658	-9.42
221.875	-11.08
222.092	-10.8
222.309	1.78
222.526	4.42
222.743	5.25
222.96	6.48
223.177	4.21
223.394	7.52
223.611	6.16
223.828	0.53
224.045	-1.86
224.262	-1.74
224.479	-2.22
224.696	-6.4
224.913	-10.81
225.13	-11.69
225.347	-8.64
225.564	-9.1
225.781	-9.35
225.997	-10.95
226.214	-7.62
226.431	-6.58
226.648	-5.02
226.865	-2.48
227.082	-2.13
227.298	0.02
227.515	0.14
227.732	-0.26
227.949	1.15
228.165	1.53
228.382	1.98
228.599	2.35
228.816	2.46
229.032	2.32
229.249	2.37
229.466	2.43
229.682	2.49
229.899	2.65
230.116	2.88
230.332	3.35
230.549	2.84
230.765	2.52
230.982	3.46
231.199	3.17
231.415	2.94
231.632	2.6
231.848	2.31
232.065	1.67
232.281	2.18
232.498	1.9
232.714	-0.94
232.931	0.65
233.147	1.12
233.364	-0.51
233.58	-0.81
233.797	0.39
234.013	0.32
234.23	1.22
234.446	0.23
234.662	-0.66
234.879	-0.81
235.095	0.11
235.312	-1.1
235.528	-0.54
235.744	-2.57
235.961	-1.06
236.177	-1.99
236.393	-1.3
236.61	-3.23
236.826	-2.19
237.042	-2.6
237.258	-2.42
237.475	-2.55
237.691	-2.22
237.907	-2
238.123	1
238.339	-0.4
238.556	-0.38
238.772	0.38
238.988	1.75
239.204	1.44
239.42	2.58
239.636	2.12
239.853	2.26
240.069	1.97
240.285	1.58
240.501	1.09
240.717	1.97
240.933	1.88
241.149	1.09
241.365	1.08
241.581	0.78
241.797	0.7
242.013	1.32
242.229	1.28
242.445	1.4
242.661	1.44
242.877	1.33
243.093	1.15
243.309	1.4
243.525	1.22
243.741	1.68
243.957	1.87
244.173	1.69
244.388	1.36
244.604	2.02
244.82	2.45
245.036	2.59
245.252	2.23
245.468	2.65
245.683	2.53
245.899	2.8
246.115	2.43
246.331	2.52
246.547	2.83
246.762	2.88
246.978	2.66
247.194	2.41
247.409	2.58
247.625	2.61
247.841	2.29
248.057	2.13
248.272	2.05
248.488	2.01
248.703	1.93
248.919	1.94
249.135	1.45
249.35	1.32
249.566	1.05
249.782	0.69
249.997	1.09
250.213	1.47
250.428	2.34
250.644	2.16
250.859	1.64
251.075	2.31
251.29	2.36
251.506	2.47
251.721	2.74
251.937	3.11
252.152	3.23
252.368	3.37
252.583	3.07
252.798	2.69
253.014	2.99
253.229	3.63
253.445	3.54
253.66	3.13
253.875	3.97
254.091	2.77
254.306	2.23
254.521	0.9
254.737	-0.3
254.952	-0.26
255.167	-0.12
255.383	-0.1
255.598	-1.03
255.813	-2.2
256.028	-2.38
256.244	-2.76
256.459	-1.49
256.674	-1.41
256.889	-0.41
257.104	-0.09
257.32	0.05
257.535	-0.66
257.75	-0.32
257.965	0.41
258.18	1.24
258.395	1.4
258.61	1.73
258.826	1.66
259.041	2.02
259.256	1.86
259.471	2.02
259.686	2.04
259.901	2.32
260.116	2.19
260.331	2.18
260.546	2
260.761	1.91
260.976	1.9
261.191	2.15
261.406	2.03
261.621	2.27
261.836	2.15
262.05	1.92
262.265	1.61
262.48	2.05
262.695	2
262.91	2.18
263.125	2.27
263.34	1.66
263.555	1.01
263.769	0.93
263.984	0.94
264.199	0.96
264.414	1.29
264.629	1.13
264.843	0.65
265.058	0.76
265.273	0.55
265.488	0.45
265.702	0.69
265.917	1.3
266.132	1.12
266.346	0.61
266.561	0.8
266.776	1.09
266.99	1.09
267.205	0.99
267.42	1.08
267.634	0.91
267.849	1.05
268.063	0.66
268.278	0.95
268.492	1.16
268.707	1.39
268.922	1.14
269.136	0.73
269.351	0.82
269.565	0.84
269.78	0.49
269.994	0.54
270.209	0.71
270.423	1.28
270.637	0.95
270.852	0.91
271.066	0.75
271.281	0.97
271.495	1.28
271.709	1.43
271.924	1.51
272.138	1.37
272.353	1.5
272.567	1.52
272.781	1.5
272.996	1.59
273.21	1.47
273.424	1.68
273.638	1.76
273.853	1.79
274.067	2.03
274.281	2.08
274.495	1.88
274.71	2
274.924	1.67
275.138	1.55
275.352	1.35
275.566	1.91
275.781	2.09
275.995	1.87
276.209	1.8
276.423	1.51
276.637	1.39
276.851	1.87
277.065	2.06
277.279	2.24
277.493	2.24
277.707	2.34
277.921	1.86
278.135	1.7
278.349	1.39
278.563	1.37
278.777	1.43
278.991	1.36
279.205	0.98
279.419	0.67
279.633	0.48
279.847	0.63
280.061	0.42
280.275	0.64
280.489	0.52
280.703	0.28
280.917	0.48
281.131	0.38
281.344	0.23
281.558	0.55
281.772	0.57
281.986	0.76
282.2	0.86
282.414	1.03
282.627	1.05
282.841	1.23
283.055	1.88
283.269	1.79
283.482	2.03
283.696	2.13
283.91	2.04
284.123	1.95
284.337	1.86
284.551	1.66
284.764	1.42
284.978	1.35
285.192	1.27
285.405	1.19
285.619	1.1
285.833	1.02
286.046	1.1
286.26	1.13
286.473	1.14
286.687	1.06
286.9	0.9
287.114	1
287.327	0.98
287.541	0.88
287.754	0.94
287.968	0.79
288.181	0.9
288.395	0.88
288.608	0.92
288.822	0.75
289.035	0.91
289.248	1.08
289.462	1
289.675	0.94
289.889	0.92
290.102	0.84
290.315	0.71
290.529	0.83
290.742	0.85
290.955	0.72
291.169	1.09
291.382	0.96
291.595	0.73
291.808	0.69
292.022	0.6
292.235	0.46
292.448	0.41
292.661	0.47
292.875	0.12
293.088	0.02
293.301	0.27
293.514	0.09
293.727	0.19
293.94	0.27
294.153	0.63
294.367	0.83
294.58	1.08
294.793	1.04
295.006	1.48
295.219	1.48
295.432	1.52
295.645	1.22
295.858	1.23
296.071	1.27
296.284	1.62
296.497	1.48
296.71	1.52
296.923	1.6
297.136	1.84
297.349	1.66
297.562	1.59
297.775	1.68
297.988	1.98
298.201	2.02
298.414	1.99
298.626	1.86
298.839	1.95
299.052	1.75
299.265	1.87
299.478	1.55
299.691	1.53
299.903	1.56
300.116	1.4
300.329	1.39
300.542	1.01
300.755	1.36
300.967	1.39
301.18	1.42
301.393	1.37
301.605	1.17
301.818	1.16
302.031	1.15
302.243	1.21
302.456	1.83
302.669	1.74
302.881	2.31
303.094	2.2
303.307	2.29
303.519	2.48
303.732	2.94
303.944	2.9
304.157	3.24
304.37	3.23
304.582	3.41
304.795	2.83
305.007	2.99
305.22	2.96
305.432	2.91
305.645	3.15
305.857	2.83
306.069	2.62
306.282	3.13
306.494	2.67
306.707	2.76
306.919	2.35
307.132	2.23
307.344	2.12
307.556	2.11
307.769	2.11
307.981	1.39
308.193	1.44
308.406	1.27
308.618	0.82
308.83	1
309.043	1.19
309.255	1.12
309.467	1.27
309.679	1.05
309.892	1.07
310.104	1.12
310.316	1.23
310.528	1.19
310.74	1.36
310.953	1.41
311.165	1.61
311.377	1.42
311.589	1.85
311.801	2.01
312.013	2.32
312.225	2.33
312.437	2.42
312.649	2.87
312.862	2.99
313.074	3.08
313.286	3.05
313.498	2.99
313.71	2.96
313.922	3.1
314.134	3.02
314.346	3.02
314.558	2.7
314.77	2.31
314.982	2.33
315.193	2.32
315.405	2.15
315.617	2.29
315.829	2.3
316.041	2.49
316.253	2.43
316.465	2.17
316.677	1.79
316.888	1.9
317.1	2.06
317.312	1.76
317.524	1.82
317.736	1.84
317.947	1.72
318.159	1.85
318.371	2.12
318.583	1.54
318.794	1.72
319.006	2.12
319.218	2.38
319.43	2.25
319.641	2.22
319.853	2.71
320.064	3.05
320.276	3.22
320.488	3.13
320.699	3.17
320.911	3.76
321.123	3.95
321.334	3.98
321.546	4.2
321.757	4.81
321.969	5.22
322.18	4.94
322.392	5.07
322.603	5.1
322.815	5.52
323.026	5.51
323.238	6.16
323.449	6.34
323.661	6.26
323.872	6.37
324.083	6.18
324.295	6.19
324.506	6.35
324.718	6.42
324.929	6.47
325.14	6.38
325.352	6.42
325.563	5.99
325.774	6.3
325.986	6.49
326.197	6.54
326.408	7.03
326.62	7.14
326.831	7.59
327.042	7.62
327.253	8.02
327.464	8.22
327.676	8.32
327.887	8.42
328.098	8.58
328.309	9.18
328.52	9.38
328.732	9.63
328.943	9.93
329.154	9.88
329.365	10.22
329.576	10.44
329.787	10.62
329.998	11.2
330.209	11.77
330.42	11.68
330.631	11.5
330.842	12.27
331.053	12.52
331.264	12.8
331.475	12.91
331.686	13.47
331.897	13.91
332.108	14.19
332.319	14.21
332.53	14.13
332.741	14.62
332.952	14.75
333.163	14.58
333.374	14.62
333.585	14.55
333.795	14.7
334.006	14.47
334.217	14.48
334.428	14.63
334.639	15.01
334.849	14.98
335.06	15.12
335.271	15.43
335.482	15.45
335.692	15.57
335.903	15.87
336.114	16.18
336.325	16.41
336.535	16.7
336.746	16.59
336.957	16.1
337.167	16.43
337.378	16.3
337.589	16.3
337.799	16.61
338.01	16.73
338.22	16.88
338.431	16.72
338.642	16.57
338.852	16.27
339.063	15.97
339.273	16.51
339.484	16.41
339.694	16.27
339.905	16.01
340.115	15.77
340.326	15.66
340.536	15.94
340.746	15.91
340.957	16.31
341.167	16.26
341.378	16.87
341.588	16.57
341.799	16.68
342.009	16.79
342.219	17.14
342.43	17.17
342.64	17.13
342.85	16.87
343.061	16.91
343.271	16.71
343.481	16.9
343.691	16.95
343.902	17.22
344.112	17.14
344.322	17.38
344.532	17.59
344.743	17.49
344.953	17.65
345.163	17.49
345.373	17.47
345.583	17.59
345.793	17.49
346.004	17.57
346.214	17.35
346.424	17.67
346.634	17.53
346.844	17.04
347.054	17.01
347.264	16.83
347.474	17.03
347.684	17.36
347.894	17.27
348.104	17.66
348.314	17.53
348.524	17.57
348.734	17.25
348.944	17.22
349.154	17.57
349.364	17.78
349.574	17.89
349.784	17.95
349.994	17.49
350.204	17.28
350.413	16.66
350.623	16.45
350.833	16.44
351.043	16.64
351.253	16.54
351.463	16.35
351.672	16.06
351.882	15.97
352.092	15.92
352.302	16.09
352.511	16.44
352.721	16.42
352.931	16.42
353.141	16.42
353.35	16.1
353.56	16.1
353.77	15.91
353.979	16.07
354.189	16.23
354.399	16.09
354.608	15.89
354.818	15.38
355.027	15.6
355.237	15.52
355.447	15.54
355.656	15.63
355.866	15.77
356.075	15.86
356.285	15.87
356.494	15.87
356.704	15.83
356.913	15.82
357.123	16
357.332	16.11
357.542	16.19
357.751	16.12
357.96	16.07
358.17	15.91
358.379	15.84
358.589	15.78
358.798	15.7
359.007	15.85
359.217	16.12
359.426	16.18
359.635	16.05
359.845	16
360.054	16.13
360.263	16.19
360.472	16.29
360.682	16.16
360.891	16.16
361.1	15.95
361.309	15.72
361.519	15.67
361.728	15.72
361.937	15.79
362.146	15.84
362.355	15.74
362.564	15.84
362.774	15.85
362.983	15.88
363.192	15.79
363.401	16.01
363.61	16
363.819	15.9
364.028	15.73
364.237	15.69
364.446	15.6
364.655	15.63
364.864	15.4
365.073	15.19
365.282	15.22
365.491	15.36
365.7	15.3
365.909	15.21
366.118	15.28
366.327	15.43
366.536	15.46
366.745	15.32
366.954	15.35
367.162	15.52
367.371	15.56
367.58	15.55
367.789	15.31
367.998	15.32
368.207	15.45
368.415	15.42
368.624	15.13
368.833	15.15
369.042	15.34
369.25	15.19
369.459	15.01
369.668	15.07
369.877	15.28
370.085	15.23
370.294	15.11
370.503	15.03
370.711	14.92
370.92	14.93
371.129	14.83
371.337	14.82
371.546	14.85
371.754	15.06
371.963	15.1
372.171	14.95
372.38	15.21
372.589	15.25
372.797	15.46
373.006	15.5
373.214	15.61
373.423	15.48
373.631	15.43
373.84	15.34
374.048	15.06
374.256	14.83
374.465	14.77
374.673	14.65
374.882	14.66
375.09	14.49
375.298	14.69
375.507	14.57
375.715	14.67
375.923	14.67
376.132	14.67
376.34	14.67
376.548	14.74
376.757	14.87
376.965	15.05
377.173	14.75
377.381	14.76
377.59	14.59
377.798	14.91
378.006	14.74
378.214	14.85
378.423	14.77
378.631	14.71
378.839	14.66
379.047	14.69
379.255	14.42
379.463	14.78
379.671	14.78
379.879	14.76
380.088	14.53
380.296	14.66
380.504	14.59
380.712	14.95
380.92	15.02
381.128	15.16
381.336	15.07
381.544	15.02
381.752	15
381.96	14.79
382.168	14.94
382.376	14.94
382.584	14.96
382.791	15.08
382.999	14.8
383.207	15.05
383.415	15.18
383.623	15.42
383.831	15.66
384.039	15.58
384.247	15.79
384.454	15.46
384.662	15.38
384.87	15.34
385.078	15.23
385.285	15.28
385.493	15.27
385.701	15.09
385.909	14.95
386.116	14.8
386.324	14.9
386.532	14.94
386.739	15.09
386.947	15.16
387.155	15.3
387.362	15.42
387.57	15.41
387.778	15.21
387.985	15.23
388.193	15.15
388.4	15.18
388.608	15.14
388.816	15.08
389.023	15.03
389.231	15.08
389.438	15.02
389.646	14.94
389.853	14.83
390.061	14.81
390.268	14.82
390.475	14.88
390.683	14.73
390.89	14.68
391.098	14.8
391.305	14.82
391.512	14.75
391.72	14.74
391.927	14.67
392.135	14.7
392.342	14.79
392.549	14.81
392.756	14.91
392.964	14.95
393.171	15.08
393.378	15.11
393.586	15.14
393.793	15.23
394	15.26
394.207	15.31
394.414	15.34
394.622	15.19
394.829	15.28
395.036	15.14
395.243	15.26
395.45	14.98
395.657	15.04
395.864	14.92
396.072	14.83
396.279	14.85
396.486	14.8
396.693	14.89
396.9	15.12
397.107	14.99
397.314	15.06
397.521	15.1
397.728	15.4
397.935	15.33
398.142	15.66
398.349	15.93
398.556	15.91
398.763	16
398.97	15.9
399.177	15.89
399.383	15.97
399.59	15.84
399.797	15.86
400.004	15.81
400.211	15.86
400.418	15.59
400.625	15.54
400.831	15.51
401.038	15.61
401.245	15.54
401.452	15.55
401.658	15.38
401.865	15.64
402.072	15.64
402.279	15.57
402.485	15.6
402.692	15.85
402.899	15.76
403.105	15.86
403.312	15.66
403.519	15.84
403.725	15.74
403.932	15.9
404.138	15.77
404.345	15.72
404.552	15.81
404.758	15.74
404.965	15.65
405.171	15.74
405.378	15.77
405.584	15.71
405.791	15.75
405.997	15.81
406.204	15.77
406.41	16.01
406.617	15.87
406.823	15.82
407.029	15.79
407.236	15.89
407.442	15.88
407.649	15.87
407.855	15.97
408.061	15.92
408.268	15.94
408.474	16.09
408.68	15.9
408.887	16.12
409.093	16.19
409.299	16.15
409.505	15.95
409.712	16.07
409.918	16.01
410.124	16.21
410.33	16.38
410.537	16.34
410.743	16.41
410.949	16.32
411.155	16.28
411.361	16.24
411.567	16.32
411.773	16.54
411.98	16.38
412.186	16.42
412.392	16.3
412.598	16.36
412.804	16.48
413.01	16.41
413.216	16.57
413.422	16.78
413.628	16.71
413.834	16.63
414.04	16.52
414.246	16.54
414.452	16.47
414.658	16.46
414.864	16.31
415.07	16.27
415.275	16.28
415.481	16.16
415.687	15.93
415.893	15.87
416.099	16.03
416.305	16.04
416.511	15.81
416.716	15.81
416.922	15.76
417.128	15.82
417.334	15.89
417.539	15.89
417.745	16
417.951	16.09
418.157	16.18
418.362	16.13
418.568	16.15
418.774	16.3
418.979	16.23
419.185	16.35
419.391	16.34
419.596	16.4
419.802	16.41
420.008	16.37
420.213	16.39
420.419	16.38
420.624	16.42
420.83	16.44
421.035	16.41
421.241	16.54
421.446	16.52
421.652	16.5
421.857	16.45
422.063	16.42
422.268	16.42
422.474	16.38
422.679	16.38
422.885	16.39
423.09	16.38
423.295	16.5
423.501	16.51
423.706	16.53
423.911	16.56
424.117	16.54
424.322	16.58
424.527	16.63
424.733	16.64
424.938	16.64
425.143	16.65
425.349	16.63
425.554	16.62
425.759	16.64
425.964	16.65
426.169	16.65
426.375	16.62
426.58	16.6
426.785	16.58
426.99	16.65
427.195	16.62
427.4	16.73
427.605	16.85
427.811	16.88
428.016	16.84
428.221	16.87
428.426	16.87
428.631	16.91
428.836	16.93
429.041	17.02
429.246	16.95
429.451	17.05
429.656	16.99
429.861	16.95
430.066	16.87
430.271	16.88
430.476	16.84
430.681	17.01
430.886	16.97
431.09	17
431.295	17.03
431.5	17.11
431.705	17.23
431.91	17.1
432.115	17.11
432.32	17.08
432.524	17.15
432.729	17.16
432.934	17.14
433.139	17.21
433.343	17.32
433.548	17.26
433.753	17.26
433.958	17.26
434.162	17.41
434.367	17.48
434.572	17.6
434.776	17.64
434.981	17.75
435.186	17.82
435.39	17.85
435.595	17.86
435.799	17.84
436.004	17.91
436.209	17.96
436.413	17.92
436.618	17.87
436.822	17.86
437.027	17.77
437.231	17.76
437.436	17.56
437.64	17.55
437.845	17.38
438.049	17.42
438.253	17.36
438.458	17.26
438.662	17.22
438.867	17.19
439.071	17.18
439.275	17.2
439.48	17.11
439.684	17.18
439.888	17.2
440.093	17.22
440.297	17.21
440.501	17.31
440.706	17.29
440.91	17.41
441.114	17.41
441.318	17.45
441.523	17.51
441.727	17.51
441.931	17.54
442.135	17.49
442.339	17.56
442.543	17.56
442.748	17.47
442.952	17.5
443.156	17.48
443.36	17.5
443.564	17.46
443.768	17.42
443.972	17.45
444.176	17.38
444.38	17.45
444.584	17.41
444.788	17.36
444.992	17.31
445.196	17.34
445.4	17.26
445.604	17.23
445.808	17.28
446.012	17.17
446.216	17.2
446.42	17.18
446.624	17.23
446.828	17.25
447.032	17.3
447.235	17.37
447.439	17.41
447.643	17.41
447.847	17.49
448.051	17.46
448.254	17.59
448.458	17.59
448.662	17.76
448.866	17.72
449.069	17.83
449.273	17.91
449.477	17.94
449.681	17.85
449.884	17.89
450.088	17.82
450.292	17.89
450.495	17.87
450.699	17.88
450.902	17.75
451.106	17.67
451.31	17.6
451.513	17.52
451.717	17.42
451.92	17.44
452.124	17.5
452.327	17.6
452.531	17.63
452.734	17.66
452.938	17.68
453.141	17.74
453.345	17.89
453.548	17.91
453.752	17.99
453.955	18.17
454.158	18.25
454.362	18.23
454.565	18.18
454.769	18.18
454.972	18.23
455.175	18.26
455.379	18.28
455.582	18.25
455.785	18.18
455.988	18.13
456.192	17.99
456.395	17.9
456.598	17.77
456.801	17.75
457.005	17.74
457.208	17.69
457.411	17.55
457.614	17.51
457.817	17.45
458.021	17.5
458.224	17.44
458.427	17.43
458.63	17.49
458.833	17.52
459.036	17.55
459.239	17.54
459.442	17.48
459.645	17.55
459.848	17.61
460.051	17.59
460.254	17.6
460.457	17.69
460.66	17.73
460.863	17.66
461.066	17.68
461.269	17.68
461.472	17.63
461.675	17.7
461.878	17.71
462.081	17.65
462.284	17.8
462.486	17.76
462.689	17.75
462.892	17.81
463.095	18.03
463.298	18.1
463.5	18.18
463.703	18.16
463.906	18.17
464.109	18.13
464.311	18.22
464.514	18.1
464.717	18.17
464.92	18.21
465.122	18.2
465.325	18.04
465.528	18
465.73	17.9
465.933	18.01
466.135	17.98
466.338	18.04
466.541	17.95
466.743	17.93
466.946	17.89
467.148	17.75
467.351	17.71
467.553	17.71
467.756	17.71
467.958	17.67
468.161	17.66
468.363	17.72
468.566	17.62
468.768	17.71
468.971	17.73
469.173	17.72
469.375	17.77
469.578	17.78
469.78	17.77
469.983	17.76
470.185	17.85
470.387	17.85
470.59	17.83
470.792	17.9
470.994	17.92
471.196	17.99
471.399	18.04
471.601	18.13
471.803	18.12
472.005	18.21
472.208	18.32
472.41	18.32
472.612	18.28
472.814	18.34
473.016	18.27
473.218	18.21
473.421	18.21
473.623	18.22
473.825	18.11
474.027	18.1
474.229	18.05
474.431	18.1
474.633	18.07
474.835	18.15
475.037	18.12
475.239	18.19
475.441	18.22
475.643	18.16
475.845	18.18
476.047	18.29
476.249	18.3
476.451	18.35
476.653	18.26
476.855	18.34
477.057	18.3
477.258	18.28
477.46	18.29
477.662	18.27
477.864	18.34
478.066	18.31
478.268	18.23
478.469	18.27
478.671	18.2
478.873	18.2
479.075	18.1
479.276	18.07
479.478	18.04
479.68	18.16
479.882	18.22
480.083	18.16
480.285	18.2
480.487	18.21
480.688	18.22
480.89	18.27
481.091	18.23
481.293	18.2
481.495	18.25
481.696	18.3
481.898	18.2
482.099	18.11
482.301	18.1
482.502	18.05
482.704	18.05
482.905	18.01
483.107	17.98
483.308	17.92
483.51	17.91
483.711	17.87
483.913	17.83
484.114	17.83
484.315	17.8
484.517	17.77
484.718	17.77
484.92	17.76
485.121	17.76
485.322	17.76
485.524	17.84
485.725	17.88
485.926	17.92
486.127	17.94
486.329	17.91
486.53	17.99
486.731	18
486.932	18.05
487.134	18.07
487.335	18.09
487.536	18.1
487.737	18.1
487.938	18.08
488.139	18.11
488.341	18.17
488.542	18.24
488.743	18.2
488.944	18.27
489.145	18.26
489.346	18.32
489.547	18.34
489.748	18.32
489.949	18.32
490.15	18.36
490.351	18.32
490.552	18.23
490.753	18.25
490.954	18.27
491.155	18.26
491.356	18.25
491.557	18.21
491.758	18.24
491.959	18.27
492.159	18.24
492.36	18.27
492.561	18.31
492.762	18.4
492.963	18.43
493.164	18.47
493.364	18.51
493.565	18.57
493.766	18.74
493.967	18.78
494.167	18.8
494.368	18.85
494.569	18.88
494.769	18.93
494.97	18.97
495.171	19.01
495.371	19.06
495.572	19.08
495.773	19.09
495.973	18.99
496.174	19.01
496.375	19.06
496.575	19.07
496.776	19.05
496.976	19.08
497.177	19.05
497.377	19.01
497.578	18.99
497.778	19.01
497.979	19.03
498.179	19.01
498.38	19
498.58	19.02
498.78	19.01
498.981	19.04
499.181	19.01
499.382	19
499.582	19
499.782	19.04
499.983	19.05
500.183	19.05
500.383	19.14
500.584	19.13
500.784	19.16
500.984	19.26
501.184	19.27
501.385	19.35
501.585	19.37
501.785	19.48
501.985	19.44
502.185	19.41
502.386	19.36
502.586	19.29
502.786	19.3
502.986	19.31
503.186	19.3
503.386	19.37
503.586	19.34
503.786	19.36
503.987	19.29
504.187	19.29
504.387	19.34
504.587	19.36
504.787	19.36
504.987	19.4
505.187	19.31
505.387	19.33
505.587	19.29
505.786	19.31
505.986	19.28
506.186	19.27
506.386	19.23
506.586	19.18
506.786	19.3
506.986	19.36
507.186	19.36
507.386	19.45
507.585	19.49
507.785	19.49
507.985	19.42
508.185	19.41
508.384	19.46
508.584	19.52
508.784	19.55
508.984	19.44
509.183	19.37
509.383	19.4
509.583	19.5
509.782	19.52
509.982	19.54
510.182	19.59
510.381	19.68
510.581	19.71
510.781	19.7
510.98	19.7
511.18	19.71
511.379	19.75
511.579	19.75
511.778	19.7
511.978	19.63
512.177	19.59
512.377	19.59
512.576	19.59
512.776	19.56
512.975	19.68
513.175	19.71
513.374	19.79
513.573	19.88
513.773	19.88
513.972	19.84
514.172	19.98
514.371	20.04
514.57	20.08
514.77	20.08
514.969	20.11
515.168	20.08
515.367	20.16
515.567	20.2
515.766	20.15
515.965	20.17
516.164	20.2
516.364	20.12
516.563	20.05
516.762	19.94
516.961	19.99
517.16	19.97
517.359	19.94
517.559	19.9
517.758	19.86
517.957	19.87
518.156	19.92
518.355	19.88
518.554	19.89
518.753	19.91
518.952	19.99
519.151	19.98
519.35	19.97
519.549	19.96
519.748	20.01
519.947	20.03
520.146	20.09
520.345	20.05
520.544	20.12
520.743	20.17
520.942	20.24
521.141	20.33
521.339	20.36
521.538	20.42
521.737	20.54
521.936	20.55
522.135	20.65
522.333	20.65
522.532	20.72
522.731	20.75
522.93	20.78
523.129	20.9
523.327	20.94
523.526	20.95
523.725	20.96
523.923	20.93
524.122	20.94
524.321	20.84
524.519	20.84
524.718	20.8
524.917	20.76
525.115	20.75
525.314	20.68
525.512	20.63
525.711	20.69
525.909	20.65
526.108	20.62
526.306	20.59
526.505	20.54
526.703	20.51
526.902	20.51
527.1	20.49
527.299	20.48
527.497	20.45
527.696	20.43
527.894	20.37
528.092	20.35
528.291	20.34
528.489	20.3
528.688	20.31
528.886	20.29
529.084	20.27
529.283	20.26
529.481	20.25
529.679	20.28
529.877	20.31
530.076	20.32
530.274	20.33
530.472	20.36
530.67	20.46
530.869	20.5
531.067	20.58
531.265	20.64
531.463	20.7
531.661	20.75
531.859	20.74
532.057	20.76
532.255	20.76
532.454	20.84
532.652	20.84
532.85	20.8
533.048	20.88
533.246	20.91
533.444	20.9
533.642	20.92
533.84	21
534.038	21.03
534.236	21.04
534.434	21.11
534.632	21.12
534.83	21.17
535.027	21.26
535.225	21.27
535.423	21.33
535.621	21.43
535.819	21.44
536.017	21.45
536.215	21.53
536.412	21.65
536.61	21.74
536.808	21.81
537.006	21.9
537.203	22.01
537.401	22.09
537.599	22.14
537.797	22.19
537.994	22.4
538.192	22.51
538.39	22.64
538.587	22.73
538.785	22.83
538.983	22.96
539.18	23.05
539.378	23.11
539.575	23.17
539.773	23.3
539.97	23.39
540.168	23.43
540.366	23.44
540.563	23.44
540.761	23.44
540.958	23.48
541.155	23.54
541.353	23.5
541.55	23.55
541.748	23.61
541.945	23.62
542.143	23.65
542.34	23.69
542.537	23.77
542.735	23.85
542.932	23.9
543.129	24.03
543.327	24.16
543.524	24.51
543.721	24.7
543.919	25.07
544.116	25.37
544.313	25.71
544.51	26.05
544.708	26.44
544.905	26.82
545.102	27.24
545.299	27.45
545.496	27.69
545.693	27.74
545.891	27.88
546.088	27.73
546.285	27.66
546.482	27.54
546.679	27.35
546.876	27.1
547.073	26.88
547.27	26.64
547.467	26.47
547.664	26.23
547.861	26.01
548.058	25.86
548.255	25.78
548.452	25.68
548.649	25.63
548.846	25.59
549.043	25.57
549.24	25.61
549.437	25.49
549.633	25.36
549.83	25.35
550.027	25.32
550.224	25.13
550.421	24.98
550.618	24.76
550.814	24.63
551.011	24.55
551.208	24.38
551.405	24.17
551.601	24
551.798	23.95
551.995	23.82
552.191	23.71
552.388	23.69
552.585	23.72
552.781	23.76
552.978	23.69
553.175	23.61
553.371	23.6
553.568	23.57
553.764	23.66
553.961	23.7
554.157	23.7
554.354	23.75
554.55	23.71
554.747	23.65
554.943	23.69
555.14	23.76
555.336	23.87
555.533	23.84
555.729	23.88
555.926	23.9
556.122	23.89
556.318	23.84
556.515	23.96
556.711	24.01
556.907	24.09
557.104	23.96
557.3	23.95
557.496	23.84
557.693	23.95
557.889	24.12
558.085	24.14
558.281	24.11
558.478	24.21
558.674	24.04
558.87	24.05
559.066	24.03
559.262	24.23
559.459	24.25
559.655	24.28
559.851	24.35
560.047	24.27
560.243	24.22
560.439	24.31
560.635	24.16
560.831	24.21
561.027	24.26
561.223	24.24
561.419	24.16
561.615	24.17
561.811	24.25
562.007	24.06
562.203	23.94
562.399	23.96
562.595	23.87
562.791	23.98
562.987	23.92
563.183	23.8
563.379	23.79
563.575	23.72
563.771	23.77
563.966	23.72
564.162	23.84
564.358	23.82
564.554	23.82
564.75	23.78
564.945	23.84
565.141	23.87
565.337	24
565.533	24.04
565.728	24
565.924	23.9
566.12	23.89
566.315	23.94
566.511	24.06
566.707	24.08
566.902	24.18
567.098	24.12
567.293	24.23
567.489	24.19
567.684	24.06
567.88	24.15
568.076	24.25
568.271	24.28
568.467	24.14
568.662	24.16
568.858	24.08
569.053	24.05
569.248	24.1
569.444	23.9
569.639	23.89
569.835	23.92
570.03	23.92
570.225	23.93
570.421	23.84
570.616	23.87
570.812	23.84
571.007	23.93
571.202	23.88
571.397	23.81
571.593	23.89
571.788	23.89
571.983	23.9
572.178	23.84
572.374	23.77
572.569	23.67
572.764	23.68
572.959	23.57
573.154	23.53
573.35	23.63
573.545	23.7
573.74	23.75
573.935	23.65
574.13	23.71
574.325	23.87
574.52	23.96
574.715	24.18
574.91	24.36
575.105	24.47
575.3	24.62
575.495	24.65
575.69	24.87
575.885	24.95
576.08	25.21
576.275	25.39
576.47	25.55
576.665	25.73
576.86	25.97
577.055	25.98
577.25	26.17
577.444	26.26
577.639	26.5
577.834	26.57
578.029	26.78
578.224	26.89
578.418	26.95
578.613	27.04
578.808	27.06
579.003	26.95
579.197	27.02
579.392	26.98
579.587	27.09
579.781	27.05
579.976	26.98
580.171	26.93
580.365	26.92
580.56	26.93
580.755	26.97
580.949	26.89
581.144	27.02
581.338	27.16
581.533	27.32
581.727	27.35
581.922	27.5
582.116	27.47
582.311	27.7
582.505	27.87
582.7	27.83
582.894	27.76
583.089	27.93
583.283	28
583.478	27.91
583.672	28.04
583.866	28.01
584.061	27.89
584.255	27.92
584.449	27.86
584.644	27.76
584.838	27.86
585.032	27.92
585.226	28.02
585.421	28.13
585.615	28.27
585.809	28.22
586.003	28.39
586.198	28.48
586.392	28.56
586.586	28.55
586.78	28.62
586.974	28.66
587.168	28.6
587.363	28.38
587.557	28.21
587.751	28.13
587.945	28.04
588.139	27.79
588.333	27.77
588.527	27.58
588.721	27.58
588.915	27.46
589.109	27.31
589.303	27.35
589.497	27.35
589.691	27.23
589.885	27.2
590.079	27.3
590.273	27.43
590.466	27.37
590.66	27.58
590.854	27.61
591.048	27.61
591.242	27.93
591.436	28.06
591.629	28.26
591.823	28.52
592.017	28.82
592.211	28.89
592.404	29.09
592.598	29.19
592.792	29.26
592.986	29.19
593.179	29.23
593.373	28.94
593.567	28.93
593.76	28.75
593.954	28.55
594.147	28.3
594.341	28.11
594.535	27.88
594.728	27.89
594.922	27.66
595.115	27.5
595.309	27.41
595.502	27.36
595.696	27.18
595.889	27.17
596.083	27.08
596.276	27.17
596.47	27.13
596.663	27.29
596.856	27.29
597.05	27.49
597.243	27.69
597.437	27.8
597.63	28.03
597.823	28.2
598.017	28.31
598.21	28.63
598.403	28.64
598.596	28.83
598.79	28.92
598.983	28.93
599.176	29.03
599.369	29
599.563	29.06
599.756	29
599.949	29.1
600.142	29.16
600.335	29.06
600.528	29.12
600.722	29.1
600.915	28.92
601.108	28.87
601.301	28.86
601.494	28.81
601.687	28.91
601.88	28.94
602.073	28.75
602.266	28.69
602.459	28.66
602.652	28.53
602.845	28.54
603.038	28.34
603.231	28.26
603.424	28
603.617	28.04
603.809	27.9
604.002	27.8
604.195	27.87
604.388	27.83
604.581	27.81
604.774	27.86
604.966	27.82
605.159	27.98
605.352	28.1
605.545	28.37
605.737	28.47
605.93	28.7
606.123	29.04
606.316	29.09
606.508	29.37
606.701	29.68
606.894	29.96
607.086	30.31
607.279	30.89
607.471	31.2
607.664	31.53
607.857	31.92
608.049	32.38
608.242	33.08
608.434	34.13
608.627	35.36
608.819	36.57
609.012	38.08
609.204	39.87
609.397	41.55
609.589	43.69
609.782	45.92
609.974	48.3
610.166	50.88
610.359	53.03
610.551	55.15
610.743	56.89
610.936	58.63
611.128	59.87
611.32	60.64
611.513	61.1
611.705	61.23
611.897	61.03
612.09	60.3
612.282	59.34
612.474	58.47
612.666	57.11
612.858	56.04
613.051	54.77
613.243	53.54
613.435	52.35
613.627	51.35
613.819	50.36
614.011	49.18
614.203	48.47
614.395	47.19
614.588	45.96
614.78	45.08
614.972	43.75
615.164	42.77
615.356	41.83
615.548	40.97
615.74	40.08
615.932	39.2
616.124	38.54
616.315	37.65
616.507	37.17
616.699	36.66
616.891	36.12
617.083	35.92
617.275	35.5
617.467	35.02
617.659	34.76
617.85	34.58
618.042	34.1
618.234	33.73
618.426	33.6
618.618	33.38
618.809	33.21
619.001	33.12
619.193	33.12
619.384	33.08
619.576	33.23
619.768	33.06
619.959	33.09
620.151	33.35
620.343	33.52
620.534	33.42
620.726	33.5
620.917	33.65
621.109	33.65
621.301	33.53
621.492	33.81
621.684	33.97
621.875	34.34
622.067	34.3
622.258	34.5
622.45	34.71
622.641	34.88
622.832	35.03
623.024	35.01
623.215	35.05
623.407	35.12
623.598	34.94
623.789	34.67
623.981	34.4
624.172	34.5
624.363	34.53
624.555	34.41
624.746	34.45
624.937	34.39
625.129	34.46
625.32	34.55
625.511	34.58
625.702	34.64
625.893	34.62
626.085	34.5
626.276	34.27
626.467	33.98
626.658	33.91
626.849	33.71
627.04	33.66
627.231	33.5
627.422	33.24
627.614	33.23
627.805	33.29
627.996	33.47
628.187	33.66
628.378	33.93
628.569	34.33
628.76	34.59
628.951	34.93
629.142	35.15
629.332	35.7
629.523	36.2
629.714	36.57
629.905	36.73
630.096	36.91
630.287	37.18
630.478	37.31
630.669	37.31
630.859	37.28
631.05	37.25
631.241	37.02
631.432	36.49
631.623	36.26
631.813	35.73
632.004	35.41
632.195	34.93
632.385	34.45
632.576	34.08
632.767	33.37
632.957	33.03
633.148	32.66
633.339	32.41
633.529	32.15
633.72	31.9
633.91	31.93
634.101	31.81
634.292	31.93
634.482	31.68
634.673	31.52
634.863	31.71
635.054	31.69
635.244	31.7
635.435	31.68
635.625	31.83
635.815	31.85
636.006	31.72
636.196	31.6
636.387	31.54
636.577	31.68
636.767	31.69
636.958	31.67
637.148	31.71
637.338	31.87
637.529	31.98
637.719	32.01
637.909	32.11
638.099	32.08
638.29	32.18
638.48	32.02
638.67	32.12
638.86	32.21
639.05	32.45
639.241	32.35
639.431	32.24
639.621	32.25
639.811	32.11
640.001	32.09
640.191	32.18
640.381	32.15
640.571	32.24
640.761	32.34
640.951	32.41
641.141	32.12
641.331	32.1
641.521	32.03
641.711	32.04
641.901	32.15
642.091	32.05
642.281	31.98
642.471	32.08
642.661	32.06
642.851	31.93
643.041	32.03
643.231	32.3
643.42	32.75
643.61	32.72
643.8	32.94
643.99	33.09
644.18	33.21
644.369	33.34
644.559	33.47
644.749	33.52
644.939	33.66
645.128	33.59
645.318	33.59
645.508	33.32
645.697	33.36
645.887	33.23
646.076	32.96
646.266	32.83
646.456	33
646.645	32.84
646.835	32.94
647.024	32.94
647.214	32.83
647.403	32.84
647.593	32.79
647.782	33.02
647.972	33.07
648.161	33.48
648.351	33.72
648.54	33.67
648.73	33.79
648.919	33.99
649.108	33.87
649.298	34.19
649.487	34.34
649.677	34.72
649.866	34.77
650.055	34.79
650.244	34.79
650.434	34.85
650.623	34.75
650.812	34.74
651.002	34.81
651.191	35.1
651.38	35.02
651.569	34.96
651.758	34.87
651.947	34.99
652.137	35.01
652.326	34.9
652.515	34.79
652.704	34.88
652.893	35.02
653.082	35.05
653.271	35
653.46	34.95
653.649	34.87
653.838	34.62
654.027	34.29
654.216	34.19
654.405	34.1
654.594	33.95
654.783	33.91
654.972	33.72
655.161	33.54
655.35	33.31
655.539	33.31
655.728	33.14
655.916	33.3
656.105	33.42
656.294	33.64
656.483	33.63
656.672	33.64
656.86	33.75
657.049	33.87
657.238	33.86
657.427	33.86
657.615	33.75
657.804	33.68
657.993	33.43
658.181	33.24
658.37	32.89
658.559	33.05
658.747	33.19
658.936	32.94
659.125	32.59
659.313	32.38
659.502	32.46
659.69	32.49
659.879	32.83
660.067	33.01
660.256	32.86
660.444	33.29
660.633	33.29
660.821	33.25
661.01	33.48
661.198	34.03
661.387	34.38
661.575	34.71
661.763	34.98
661.952	34.91
662.14	35.05
662.328	35.44
662.517	35.3
662.705	35.56
662.893	35.9
663.082	35.97
663.27	35.73
663.458	35.68
663.646	35.6
663.834	35.51
664.023	35.26
664.211	35.2
664.399	35.25
664.587	35.4
664.775	34.91
664.963	34.77
665.152	34.84
665.34	34.91
665.528	35.05
665.716	34.91
665.904	34.74
666.092	35.01
666.28	35.27
666.468	35.18
666.656	34.99
666.844	35.23
667.032	35.36
667.22	35.29
667.408	35.36
667.596	35.17
667.784	35.27
667.971	35.31
668.159	35.17
668.347	35.04
668.535	35.27
668.723	35.27
668.911	35.18
669.098	34.96
669.286	35.01
669.474	35.1
669.662	35.33
669.849	35.42
670.037	35.49
670.225	35.61
670.413	35.51
670.6	35.58
670.788	35.48
670.976	35.56
671.163	35.71
671.351	35.89
671.538	35.6
671.726	35.43
671.913	35.32
672.101	35.37
672.289	35.54
672.476	35.49
672.664	35.46
672.851	35.53
673.039	35.5
673.226	35.31
673.413	35.3
673.601	35.21
673.788	35.34
673.976	35.2
674.163	35.34
674.35	35.18
674.538	35.51
674.725	35.28
674.912	35.73
675.1	35.88
675.287	36.07
675.474	35.77
675.662	36.21
675.849	35.9
676.036	35.89
676.223	35.74
676.411	35.56
676.598	35.33
676.785	35.26
676.972	35.16
677.159	35.5
677.346	35.2
677.533	35.6
677.721	35.35
677.908	35.64
678.095	35.76
678.282	35.69
678.469	35.88
678.656	35.95
678.843	36.08
679.03	36.2
679.217	35.69
679.404	35.91
679.591	35.73
679.778	35.86
679.964	35.99
680.151	35.97
680.338	36.01
680.525	35.95
680.712	35.83
680.899	35.91
681.086	35.67
681.272	35.98
681.459	35.99
681.646	35.95
681.833	36.16
682.02	36.12
682.206	36.17
682.393	36.51
682.58	36.65
682.766	36.67
682.953	36.67
683.14	36.88
683.326	36.68
683.513	36.81
683.7	36.82
683.886	36.5
684.073	36.43
684.259	36.43
684.446	36.28
684.632	36.51
684.819	36.69
685.005	36.73
685.192	36.42
685.378	36.68
685.565	36.77
685.751	36.76
685.938	37.03
686.124	37.1
686.31	37.04
686.497	37.13
686.683	36.95
686.87	37.08
687.056	37.12
687.242	37.28
687.429	37.23
687.615	37.22
687.801	37.52
687.987	37.5
688.174	37.24
688.36	37.47
688.546	37.47
688.732	37.58
688.918	37.38
689.105	37.39
689.291	37.5
689.477	37.55
689.663	37.27
689.849	37.06
690.035	36.76
690.221	37.08
690.407	37.27
690.593	37.06
690.779	37
690.965	37.31
691.151	37.36
691.337	37.09
691.523	37.47
691.709	37.79
691.895	37.98
692.081	38.3
692.267	38.1
692.453	37.93
692.639	37.98
692.825	38.17
693.011	38.34
693.196	38.61
693.382	38.85
693.568	38.39
693.754	38.33
693.94	38.11
694.125	38.17
694.311	38.36
694.497	38.21
694.682	38.17
694.868	37.85
695.054	37.47
695.239	37.17
695.425	37.39
695.611	37.21
695.796	36.98
695.982	37.2
696.168	37.11
696.353	36.77
696.539	36.66
696.724	36.62
696.91	36.5
697.095	36.46
697.281	36.33
697.466	35.86
697.652	35.63
697.837	35.54
698.023	35.07
698.208	35.1
698.393	35.04
698.579	35.08
698.764	35
698.949	35.01
699.135	35.07
699.32	34.92
699.505	35.16
699.691	35.58
699.876	35.43
700.061	35.63
700.246	35.61
700.432	35.87
700.617	35.94
700.802	36.27
700.987	36.56
701.172	36.17
701.358	36.52
701.543	36.68
701.728	36.54
701.913	37.37
702.098	37.98
702.283	38.2
702.468	38.24
702.653	38.48
702.838	38.47
703.023	38.49
703.208	39.17
703.393	39.59
703.578	39.82
703.763	40.39
703.948	40.64
704.133	40.78
704.318	41.1
704.503	41.51
704.688	42.03
704.873	42.63
705.057	43.02
705.242	43.53
705.427	43.51
705.612	43.77
705.797	43.97
705.981	44.36
706.166	44.64
706.351	44.97
706.536	45.42
706.72	45.6
706.905	45.8
707.09	46.24
707.274	46.19
707.459	47.03
707.644	47.65
707.828	47.74
708.013	47.55
708.197	47.67
708.382	47.73
708.567	47.61
708.751	47.55
708.936	47.4
709.12	46.51
709.305	46.51
709.489	45.93
709.673	45.07
709.858	44.84
710.042	44.59
710.227	44.33
710.411	43.89
710.596	43.49
710.78	43.32
710.964	43.37
711.149	43.48
711.333	43.44
711.517	43.14
711.702	43.18
711.886	42.93
712.07	42.68
712.254	42.44
712.438	42.02
712.623	42.25
712.807	42.04
712.991	41.48
713.175	41.51
713.359	40.87
713.544	40.37
713.728	39.92
713.912	39.94
714.096	39.47
714.28	39.39
714.464	39.29
714.648	38.89
714.832	38.3
715.016	38.08
715.2	37.64
715.384	37.59
715.568	37.67
715.752	37.12
715.936	36.84
716.12	36.87
716.304	36.47
716.488	36.25
716.671	36.02
716.855	35.91
717.039	35.63
717.223	35.68
717.407	35.56
717.59	35.62
717.774	35.87
717.958	35.61
718.142	35.71
718.325	36.2
718.509	36.48
718.693	36.36
718.877	36.36
719.06	36.75
719.244	36.76
719.428	36.96
719.611	37
719.795	37.42
719.978	37.42
720.162	37.75
720.345	36.97
720.529	36.87
720.713	36.73
720.896	37.25
721.08	37.53
721.263	37.54
721.446	37.36
721.63	37.39
721.813	37.28
721.997	37.48
722.18	37.18
722.364	37.24
722.547	37.57
722.73	37.74
722.914	37.54
723.097	37.09
723.28	37.2
723.464	37.39
723.647	37.22
723.83	37.28
724.013	37.21
724.197	37.07
724.38	37.19
724.563	37.13
724.746	37.53
724.929	37.37
725.112	37.33
725.296	37.11
725.479	37.15
725.662	37.13
725.845	36.93
726.028	37.18
726.211	37.28
726.394	37.15
726.577	36.59
726.76	36.49
726.943	36.77
727.126	36.7
727.309	36.98
727.492	37.06
727.675	36.51
727.858	36.53
728.041	36.25
728.224	36.27
728.407	36.33
728.589	36.54
728.772	36.5
728.955	35.99
729.138	35.82
729.321	35.89
729.503	35.78
729.686	36.14
729.869	36.24
730.052	36.18
730.234	36.15
730.417	36.2
730.6	36.22
730.782	36.29
730.965	36.93
731.148	37.27
731.33	37.31
731.513	37.24
731.695	37.58
731.878	37.7
732.061	38.03
732.243	37.99
732.426	38.51
732.608	38.68
732.791	38.41
732.973	38.4
733.156	38.27
733.338	38.44
733.52	38.76
733.703	38.72
733.885	38.64
734.068	38.58
734.25	38.57
734.432	38.01
734.615	38.1
734.797	38.24
734.979	38.53
735.162	38.88
735.344	38.93
735.526	38.64
735.708	38.62
735.891	38.63
736.073	38.53
736.255	38.73
736.437	38.95
736.619	39.02
736.802	39.43
736.984	39.17
737.166	39.33
737.348	38.99
737.53	39.33
737.712	39.55
737.894	39.43
738.076	39.91
738.258	39.66
738.44	39.98
738.622	40.05
738.804	39.89
738.986	39.88
739.168	39.54
739.35	39.47
739.532	39.29
739.714	39.08
739.896	39.42
740.078	39.04
740.259	39.49
740.441	38.8
740.623	39.07
740.805	38.78
740.987	38.97
741.168	39.13
741.35	39.09
741.532	39.55
741.714	39.78
741.895	39.68
742.077	39.54
742.259	39.46
742.44	39.9
742.622	39.66
742.804	40.52
742.985	40.36
743.167	41.15
743.348	41.64
743.53	41.11
743.711	41.43
743.893	41.42
744.075	42.17
744.256	41.72
744.438	41.56
744.619	41.92
744.8	41.62
744.982	41.77
745.163	41.42
745.345	41.23
745.526	41.54
745.707	41.27
745.889	41.44
746.07	40.84
746.252	41.46
746.433	41.51
746.614	41.55
746.795	41.05
746.977	40.71
747.158	40.45
747.339	39.41
747.52	39.38
747.702	39.31
747.883	39.17
748.064	39.94
748.245	39.9
748.426	40.48
748.607	39.66
748.788	40.06
748.97	40.36
749.151	39.99
749.332	40.84
749.513	40.95
749.694	40.67
749.875	41.03
750.056	40.46
750.237	40.2
750.418	39.44
750.599	40.12
750.78	40.23
750.96	40.41
751.141	41.06
751.322	41.38
751.503	41.31
751.684	41.3
751.865	40.99
752.046	40.6
752.226	40.82
752.407	41.22
752.588	41.05
752.769	40.77
752.949	40.08
753.13	40.05
753.311	39.94
753.492	39.37
753.672	39.4
753.853	39.83
754.034	39.98
754.214	39.93
754.395	40.03
754.575	39.47
754.756	39.15
754.937	39.43
755.117	39.4
755.298	39.42
755.478	40.2
755.659	40.15
755.839	39.82
756.02	39.83
756.2	39.97
756.381	40.03
756.561	40.17
756.741	40.41
756.922	40.41
757.102	39.73
757.283	39.09
757.463	38.11
757.643	38.57
757.823	38.51
758.004	38.51
758.184	38.14
758.364	38.05
758.545	37.43
758.725	36.99
758.905	36.13
759.085	35.68
759.265	35.82
759.446	35.86
759.626	34.89
759.806	34.48
759.986	34.35
760.166	33.94
760.346	33.43
760.526	33.6
760.706	33.26
760.886	33.56
761.066	34.13
761.246	33.61
761.426	33.73
761.606	34.23
761.786	33.87
761.966	33.9
762.146	34.11
762.326	34.14
762.506	34.51
762.686	34.65
762.866	34.55
763.046	34.67
763.225	34.8
763.405	34.83
763.585	34.85
763.765	35.28
763.945	35.24
764.124	35.36
764.304	35.61
764.484	34.94
764.664	35.09
764.843	34.84
765.023	34.67
765.203	34.76
765.382	34.78
765.562	34.78
765.741	34.74
765.921	34.52
766.101	34.2
766.28	34.37
766.46	35.1
766.639	35.17
766.819	36.12
766.998	37.14
767.178	37.87
767.357	38.13
767.537	38.37
767.716	38.99
767.896	39.6
768.075	40.13
768.254	39.7
768.434	40.04
768.613	40.09
768.792	39.92
768.972	38.63
769.151	38.25
769.33	38.23
769.51	38.61
769.689	38.9
769.868	39.52
770.047	39.86
770.226	40.38
770.406	40.72
770.585	41.43
770.764	41.92
770.943	42.01
771.122	42.34
771.301	42.17
771.48	42.27
771.66	41.04
771.839	40.39
772.018	39.94
772.197	40.06
772.376	40.03
772.555	39.97
772.734	40.3
772.913	40.74
773.092	39.9
773.271	40.06
773.449	39.56
773.628	40.08
773.807	39.85
773.986	40.94
774.165	40.69
774.344	40.85
774.523	40.73
774.701	40.91
774.88	40.89
775.059	42.6
775.238	43.12
775.417	43.62
775.595	43.67
775.774	43.43
775.953	42.85
776.131	42.88
776.31	42.02
776.489	41.98
776.667	40.95
776.846	41.49
777.025	40.84
777.203	40.51
777.382	39.84
777.56	39.88
777.739	40.16
777.917	39.83
778.096	39.98
778.274	40.18
778.453	40.08
778.631	39.66
778.81	39.17
778.988	39.3
779.166	39.55
779.345	39.01
779.523	39.73
779.702	39.67
779.88	39.93
780.058	40.51
780.237	41.08
780.415	40.27
780.593	40.18
780.771	39.44
780.95	38.58
781.128	38.57
781.306	39.83
781.484	38.83
781.662	38.77
781.841	38.72
782.019	38.09
782.197	37.76
782.375	39.17
782.553	39.71
782.731	40.78
782.909	41.16
783.087	41.06
783.265	41.07
783.443	41.26
783.621	40.97
783.799	41.32
783.977	41.05
784.155	40.91
784.333	40.23
784.511	41.02
784.689	40.42
784.867	40.55
785.045	40.47
785.223	40.17
785.4	40.66
785.578	42.17
785.756	41.79
785.934	41.68
786.112	42.04
786.289	42.48
786.467	40.74
786.645	40.67
786.823	41.04
787	40.12
787.178	39.58
787.356	39.33
787.533	37.46
787.711	37.37
787.889	36.86
788.066	36.42
788.244	35.59
788.421	35.92
788.599	35.65
788.776	35.4
788.954	35.27
789.131	35.35
789.309	34.89
789.486	35.16
789.664	34.94
789.841	35.74
790.019	35.72
790.196	35.85
790.373	36.97
790.551	37.72
790.728	36.93
790.906	37.45
791.083	38.68
791.26	39.13
791.437	39.64
791.615	39.78
791.792	39.36
791.969	38.53
792.146	38.77
792.324	38.72
792.501	38.76
792.678	39.6
792.855	39.34
793.032	38.08
793.209	37.08
793.387	37.23
793.564	36.82
793.741	36.93
793.918	37.43
794.095	37.53
794.272	37.37
794.449	36.8
794.626	36.7
794.803	36.68
794.98	36.29
795.157	37.53
795.334	37.29
795.511	37.53
795.688	37.44
795.864	37.96
796.041	36.81
796.218	35.8
796.395	35.44
796.572	34.87
796.749	34.83
796.925	35.12
797.102	34.91
797.279	35.21
797.456	34.28
797.632	33.48
797.809	33.26
797.986	34.25
798.162	35.19
798.339	35.97
798.516	35.68
798.692	35.51
798.869	34.51
799.046	33.25
799.222	33.25
799.399	33.51
799.575	34.33
799.752	34.36
799.928	34.56
800.105	33.53
800.281	32.03
800.458	32.92
800.634	32.62
800.811	33.9
800.987	34.74
801.163	35.2
801.34	36.12
801.516	37.27
801.692	36.63
801.869	36.1
802.045	36.62
802.221	37.66
802.398	37.74
802.574	38.26
802.75	38.38
802.926	38.1
803.103	37.1
803.279	36.43
803.455	35.54
803.631	36.06
803.807	36.5
803.983	35.31
804.16	35.56
804.336	34.88
804.512	34.76
804.688	33.66
804.864	33.15
805.04	33.44
805.216	34.54
805.392	34.17
805.568	34.06
805.744	33.63
805.92	34.27
806.096	34.51
806.272	33.81
806.448	34.02
806.623	34.49
806.799	35.17
806.975	34.83
807.151	33.74
807.327	34.53
807.503	33.99
807.678	34.32
807.854	34.41
808.03	33.84
808.206	35.38
808.381	34.92
808.557	33.81
808.733	34.11
808.908	35.08
809.084	35.72
809.26	33.05
809.435	33.67
809.611	34.25
809.787	34.66
809.962	35.39
810.138	35.39
810.313	35.67
810.489	37.15
810.664	36.78
810.84	36.77
811.015	36.44
811.191	37.44
811.366	37.41
811.542	35.05
811.717	34.77
811.892	34.1
812.068	34.29
812.243	33.15
812.419	33.14
812.594	33.62
812.769	32.51
812.944	32.33
813.12	32.47
813.295	31.89
813.47	32.8
813.645	31.98
813.821	31.71
813.996	29.89
814.171	31.4
814.346	31.04
814.521	31.57
814.697	31.85
814.872	31.17
815.047	31.35
815.222	33.02
815.397	33.29
815.572	34.41
815.747	33.87
815.922	33.83
816.097	33.6
816.272	32.54
816.447	31.48
816.622	30.72
816.797	31.39
816.972	31.33
817.147	31.1
817.322	31.56
817.496	31.31
817.671	31.98
817.846	31.38
818.021	30.56
818.196	31.4
818.371	30.41
818.545	31.53
818.72	30.97
818.895	31.78
819.069	30.23
819.244	29.7
819.419	29.48
819.594	28.53
819.768	29.39
819.943	29.58
820.117	28.91
820.292	28.95
820.467	27.78
820.641	27.49
820.816	27.29
820.99	27.29
821.165	26.96
821.339	27.14
821.514	27.34
821.688	27.03
821.863	27
822.037	26.83
822.212	26.68
822.386	26.85
822.56	26.86
822.735	26.84
822.909	26.66
823.084	26.82
823.258	26.55
823.432	26.7
823.606	26.49
823.781	26.68
823.955	27.01
824.129	27.15
824.303	27.05
824.478	26.99
824.652	26.63
824.826	26.85
825	26.73
825.174	27.01
825.348	26.54
825.523	26.93
825.697	26.19
825.871	26.19
826.045	26.39
826.219	26.58
826.393	26.4
826.567	26.55
826.741	27.32
826.915	26.99
827.089	26.91
827.263	27.32
827.437	27.5
827.611	27.72
827.784	27.49
827.958	27.26
828.132	27
828.306	27.43
828.48	27.73
828.654	26.82
828.827	27.48
829.001	27.51
829.175	26.7
829.349	25.96
829.522	25.49
829.696	24.7
829.87	24.56
830.044	24.89
830.217	24.65
830.391	24.34
830.565	25
830.738	24.67
830.912	23.9
831.085	23.98
831.259	25.02
831.432	25.42
831.606	26.45
831.779	27.26
831.953	27.26
832.126	27.4
832.3	26.73
832.473	26.19
832.647	26.08
832.82	26.29
832.994	27.59
833.167	27.5
833.34	27.42
833.514	27.77
833.687	27.51
833.86	27.34
834.034	27.51
834.207	27.72
834.38	27.36
834.553	26.49
834.727	25.74
834.9	25.55
835.073	25.54
835.246	25.8
835.419	25.02
835.593	25.59
835.766	24.75
835.939	24.44
836.112	23.76
836.285	23.45
836.458	24.27
836.631	26.42
836.804	26.11
836.977	26.81
837.15	26.49
837.323	27.07
837.496	27.33
837.669	28.26
837.842	28.87
838.015	30.55
838.188	32.25
838.361	32.88
838.533	33.86
838.706	34.48
838.879	32.66
839.052	33.14
839.225	34.93
839.398	32.26
839.57	32.12
839.743	30.07
839.916	28.81
840.088	28.9
840.261	30.36
840.434	29.2
840.607	27.42
840.779	29.08
840.952	28.79
841.124	25.79
841.297	28.2
841.47	28.38
841.642	30.88
841.815	32.77
841.987	31.57
842.16	29.88
842.332	28.75
842.505	30.33
842.677	29.86
842.85	30.93
843.022	32.94
843.194	31.53
843.367	30.7
843.539	27.37
843.712	25.72
843.884	25.72
844.056	27.97
844.229	27.98
844.401	29.78
844.573	28.91
844.745	28.4
844.918	27.26
845.09	27.7
845.262	29.86
845.434	33.63
845.606	34.53
845.779	35.59
845.951	33.04
846.123	32.01
846.295	28.82
846.467	28.36
846.639	28.01
846.811	31.95
846.983	31.81
847.155	32.13
847.327	31.54
847.499	29.94
847.671	29.41
847.843	31.26
848.015	35.39
848.187	37
848.359	41.26
848.531	42.6
848.703	38.94
848.875	33.23
849.047	32.97
849.218	32.91
849.39	34.54
849.562	35.19
849.734	33.15
849.905	32.73
850.077	33.36
850.249	29.84
850.421	26.81
850.592	26.75
850.764	30.41
850.936	27.43
851.107	24.01
851.279	24.17
851.451	24.45
851.622	27.82
851.794	26.26
851.965	24.39
852.137	25.2
852.308	26.85
852.48	23.5
852.651	23.13
852.823	24.87
852.994	23.1
853.166	25.59
853.337	24.14
853.509	20.76
853.68	19.74
853.851	20.06
854.023	17.36
854.194	17.95
854.365	23.79
854.537	26.82
854.708	24.73
854.879	28.58
855.05	27.47
855.222	25.64
855.393	28.21
855.564	29.19
855.735	28.05
855.906	29.48
856.078	25.42
856.249	21.46
856.42	19.15
856.591	23.91
856.762	22.6
856.933	21.73
857.104	23.59
857.275	22.89
857.446	26.91
857.617	29.45
857.788	31.76
857.959	33.75
858.13	32.92
858.301	33.11
858.472	29.19
858.643	28.62
858.814	24.81
858.985	28.24
859.155	27.54
859.326	20.35
859.497	23.99
859.668	19.18
859.839	24.13
860.009	26.79
860.18	29.48
860.351	33.72
860.522	36.56
860.692	37.65
860.863	34.35
861.034	34.46
861.204	35.63
861.375	33.29
861.546	38.02
861.716	34.5
861.887	36.49
862.057	35.83
862.228	33.57
862.398	32.91
862.569	32.45
862.739	33.54
862.91	31.94
863.08	32.39
863.251	30.25
863.421	24.9
863.592	23.7
863.762	22.59
863.932	23.71
864.103	24.22
864.273	22.57
864.443	19.8
864.614	19.66
864.784	17.81
864.954	22.11
865.125	21.67
865.295	21.73
865.465	23.91
865.635	24.55
865.805	22.9
865.976	21.56
866.146	23.63
866.316	25.96
866.486	27.96
866.656	26.84
866.826	25.89
866.996	23.79
867.166	26.13
867.336	26.09
867.506	27.39
867.676	24.48
867.846	25.1
868.016	21.99
868.186	23.35
868.356	20.75
868.526	27.41
868.696	22.33
868.866	28.48
869.036	29.5
869.206	26.88
869.376	22.55
869.545	22.9
869.715	22.84
869.885	22.6
870.055	19.96
870.224	19.68
870.394	17.27
870.564	18.82
870.734	14.71
870.903	11.24
871.073	15.48
871.243	18.46
871.412	19.1
871.582	17.68
871.751	20.4
871.921	22.55
872.091	27.37
872.26	28.66
872.43	29.7
872.599	32.24
872.769	36.83
872.938	33.9
873.108	32.27
873.277	32.16
873.446	34.25
873.616	31.51
873.785	32.84
873.955	26.73
874.124	26.37
874.293	24.29
874.463	22.29
874.632	18.82
874.801	20.93
874.971	21.58
875.14	21.41
875.309	19.51
875.478	18.99
875.647	20.05
875.817	19.59
875.986	22.21
876.155	21.87
876.324	20.21
876.493	20.23
876.662	22.11
876.831	23
877	27.26
877.17	25.6
877.339	23.54
877.508	23.88
877.677	25.03
877.846	19.1
878.015	19.1
878.184	20.62
878.352	21.35
878.521	22.07
878.69	22.98
878.859	20.92
879.028	20.53
879.197	23.45
879.366	21.94
879.534	22.84
879.703	23.41
879.872	24.3
880.041	22.87
880.21	23.56
880.378	21.02
880.547	20.49
880.716	19.99
880.884	20.29
881.053	21.15
881.222	21.88
881.39	21.9
881.559	23.09
881.727	22.33
881.896	22.77
882.065	22.32
882.233	22.76
882.402	22.44
882.57	23.07
882.739	24.17
882.907	23.96
883.076	23.67
883.244	23.43
883.412	22.98
883.581	23.57
883.749	23.34
883.918	23.71
884.086	23.1
884.254	23.71
884.423	23.27
884.591	22.61
884.759	22.5
884.927	22.16
885.096	21.56
885.264	21.41
885.432	20.63
885.6	20.18
885.769	18.99
885.937	22.83
886.105	21.74
886.273	22.53
886.441	22.22
886.609	22.5
886.777	24.13
886.945	27.66
887.113	28.41
887.281	29.49
887.449	31.6
887.617	30.23
887.785	25.02
887.953	27.55
888.121	24.88
888.289	22.71
888.457	20.03
888.625	20.18
888.793	17.69
888.961	17.37
889.129	16.55
889.296	15.35
889.464	18.79
889.632	19.44
889.8	16.49
889.967	18.27
890.135	21.97
