Data from 2938848__Reflection_05.txt Node
Date: Wed Mar 11 13:45:57 EDT 2015
User: robert
Spectrometer: USB4E03002
Autoset integration time: false
Trigger mode: 4
Integration Time (sec): 1.000000E-1
Scans to average: 10
Electric dark correction enabled: false
Nonlinearity correction enabled: false
Boxcar width: 5
Stray light correction enabled: false
XAxis mode: Wavelengths
Stop averaging: false
Number of Pixels in Spectrum: 3648
>>>>>Begin Spectral Data<<<<<
177.575	-425.93
177.794	187.5
178.014	-12.33
178.233	-155.88
178.452	-148.91
178.672	-28.96
178.891	-23.83
179.11	-24.84
179.33	-97.49
179.549	-74.69
179.768	-137.02
179.987	-151.6
180.207	-95.67
180.426	-7.62
180.645	80.93
180.864	113.61
181.084	87.77
181.303	-14.29
181.522	-25.66
181.741	82.84
181.96	32.62
182.179	131.03
182.398	249.41
182.618	-69.23
182.837	67.69
183.056	595.74
183.275	100.71
183.494	18.7
183.713	50.3
183.932	45.87
184.151	73.65
184.37	30.95
184.589	65.56
184.808	53.28
185.027	552.38
185.246	312.22
185.465	176.38
185.684	106.34
185.903	94.63
186.122	67.16
186.341	60.88
186.56	55.14
186.779	22.32
186.998	44.91
187.216	42.86
187.435	21.51
187.654	34.15
187.873	27.91
188.092	21.79
188.311	22.93
188.53	39.43
188.748	34.08
188.967	33.91
189.186	43.84
189.405	36.8
189.623	37.07
189.842	37.31
190.061	30.74
190.28	42.78
190.498	38.24
190.717	37.62
190.936	44.93
191.154	47.64
191.373	43.02
191.592	37.58
191.81	30.55
192.029	26.97
192.248	17.99
192.466	-4.18
192.685	-63.67
192.904	-48.61
193.122	-6.88
193.341	-97.9
193.559	-196.67
193.778	-285.19
193.996	-62.69
194.215	-12.8
194.433	-10.36
194.652	-4.71
194.87	-7.53
195.089	26.54
195.307	-8.35
195.526	-55.86
195.744	-10.46
195.963	25.27
196.181	33.52
196.399	15.92
196.618	-5.3
196.836	-2.55
197.055	15.89
197.273	26.85
197.491	-3.61
197.71	3.34
197.928	21.71
198.146	12.21
198.365	-16.65
198.583	-12.77
198.801	-4.27
199.019	6.62
199.238	0.7
199.456	-5.88
199.674	-21.88
199.892	5.91
200.111	20.55
200.329	-1.73
200.547	2.14
200.765	5.3
200.983	-31.07
201.202	-46.12
201.42	-19.31
201.638	-10.02
201.856	-12.81
202.074	-36.88
202.292	-56.95
202.51	-89.94
202.728	-80.34
202.946	-59.91
203.165	-61.76
203.383	11.82
203.601	-14.25
203.819	-71.08
204.037	-60.07
204.255	-20.17
204.473	-23.68
204.691	-27.42
204.909	-16.26
205.127	-37.88
205.345	-92.63
205.562	-46.05
205.78	-63.79
205.998	-65.27
206.216	-76.1
206.434	-28.57
206.652	-26.45
206.87	-22.35
207.088	9.78
207.306	-1.73
207.523	8.16
207.741	24.04
207.959	12.73
208.177	14.73
208.395	0.91
208.612	7.5
208.83	1.92
209.048	-3.02
209.266	16.18
209.483	-26.92
209.701	-25.11
209.919	-7.39
210.136	-10.28
210.354	-10.3
210.572	-23.14
210.79	-17.44
211.007	-36.87
211.225	-44.26
211.442	-35.11
211.66	-76.09
211.878	-40.2
212.095	-21
212.313	-28.34
212.53	-18.42
212.748	6.11
212.966	9.92
213.183	16.98
213.401	30.18
213.618	32.4
213.836	39.59
214.053	39.09
214.271	36.44
214.488	32.27
214.705	24.11
214.923	17.84
215.14	9.68
215.358	2.55
215.575	4.63
215.793	-1.32
216.01	-7.61
216.227	-13.94
216.445	-0.28
216.662	-3.97
216.879	-2.93
217.097	4.97
217.314	4.82
217.531	10.94
217.749	11.69
217.966	15.57
218.183	19.28
218.4	19.12
218.618	10.17
218.835	12.78
219.052	15.86
219.269	14.94
219.487	11.79
219.704	13.48
219.921	9.59
220.138	18.34
220.355	16.13
220.572	9.7
220.79	8.33
221.007	10.67
221.224	2.47
221.441	1.66
221.658	5.29
221.875	3.57
222.092	4.94
222.309	3.97
222.526	3.21
222.743	-0.11
222.96	-0.28
223.177	-4.18
223.394	0.89
223.611	0.27
223.828	6.19
224.045	7.71
224.262	11.81
224.479	12.45
224.696	13.97
224.913	13.19
225.13	12.92
225.347	11.98
225.564	12.78
225.781	10.15
225.997	10.46
226.214	7.2
226.431	4.69
226.648	3.15
226.865	2.77
227.082	2.98
227.298	2.33
227.515	1.73
227.732	1.42
227.949	2.26
228.165	2.13
228.382	2.62
228.599	3.35
228.816	4.52
229.032	4.9
229.249	4.4
229.466	5.06
229.682	4.7
229.899	5.81
230.116	6.21
230.332	6.29
230.549	6.23
230.765	6.13
230.982	5.68
231.199	4.73
231.415	5.13
231.632	4.84
231.848	2.79
232.065	4.28
232.281	3.54
232.498	3.49
232.714	2.18
232.931	3.26
233.147	3.66
233.364	4.36
233.58	4.39
233.797	3.48
234.013	4.93
234.23	5.9
234.446	5.17
234.662	3.85
234.879	3.4
235.095	4.15
235.312	4.72
235.528	3.74
235.744	2.91
235.961	2.26
236.177	3.44
236.393	2.74
236.61	1.66
236.826	3.1
237.042	4.56
237.258	3.89
237.475	4.62
237.691	3.96
237.907	5.42
238.123	5.75
238.339	6.84
238.556	5.51
238.772	5.5
238.988	5.86
239.204	5.64
239.42	6.13
239.636	6.4
239.853	6.42
240.069	5.7
240.285	5.6
240.501	6.43
240.717	6.81
240.933	6.54
241.149	6.69
241.365	6.3
241.581	5.47
241.797	4.91
242.013	5.47
242.229	5.44
242.445	5.55
242.661	5.53
242.877	5.01
243.093	4.68
243.309	4.63
243.525	4.9
243.741	5.28
243.957	5.08
244.173	4.85
244.388	4.74
244.604	4
244.82	3.3
245.036	3.02
245.252	3.18
245.468	3.81
245.683	4.63
245.899	4.19
246.115	4.56
246.331	4.99
246.547	5.42
246.762	5.23
246.978	5.44
247.194	5.81
247.409	6.13
247.625	6.21
247.841	5.82
248.057	5.55
248.272	5.64
248.488	5.48
248.703	5.46
248.919	5.26
249.135	5.41
249.35	5.39
249.566	5.04
249.782	4.45
249.997	3.79
250.213	4.13
250.428	4.65
250.644	4.41
250.859	4.34
251.075	4.51
251.29	4.94
251.506	5.17
251.721	5.77
251.937	6.28
252.152	6.33
252.368	7.01
252.583	6.85
252.798	6
253.014	6.42
253.229	6.5
253.445	6.5
253.66	6.04
253.875	5.98
254.091	4.9
254.306	4.91
254.521	5.46
254.737	6
254.952	5.62
255.167	6.25
255.383	6.07
255.598	6.54
255.813	6.73
256.028	6.64
256.244	6.76
256.459	7.37
256.674	6.62
256.889	6.35
257.104	4.96
257.32	5.15
257.535	4.9
257.75	4.69
257.965	4.31
258.18	4.15
258.395	4.36
258.61	4.17
258.826	4.02
259.041	4.2
259.256	4.12
259.471	4.26
259.686	4.43
259.901	4.45
260.116	4.4
260.331	4.22
260.546	4.32
260.761	4.11
260.976	4.01
261.191	4.11
261.406	4.29
261.621	4.33
261.836	4.26
262.05	4
262.265	3.92
262.48	3.87
262.695	3.79
262.91	3.12
263.125	3.64
263.34	3.65
263.555	3.54
263.769	2.94
263.984	1.73
264.199	1.93
264.414	1.84
264.629	1.76
264.843	2.21
265.058	2.76
265.273	2.79
265.488	2.15
265.702	1.87
265.917	2.37
266.132	2.28
266.346	3.47
266.561	3.57
266.776	3.71
266.99	3.75
267.205	3.24
267.42	3.29
267.634	3.48
267.849	3.88
268.063	3.91
268.278	3.5
268.492	4.03
268.707	3.7
268.922	3.28
269.136	3.01
269.351	2.82
269.565	3.21
269.78	2.9
269.994	2.65
270.209	2.6
270.423	2.74
270.637	2.9
270.852	2.76
271.066	2.9
271.281	3.13
271.495	3.06
271.709	3.12
271.924	3.08
272.138	3.07
272.353	3.19
272.567	3.22
272.781	3.43
272.996	3.24
273.21	3.13
273.424	3.28
273.638	3.54
273.853	4.07
274.067	4.29
274.281	4.37
274.495	4.49
274.71	4.63
274.924	4.46
275.138	4.64
275.352	5.09
275.566	5.43
275.781	5.12
275.995	4.96
276.209	4.52
276.423	4.71
276.637	3.98
276.851	4.19
277.065	4.28
277.279	4.54
277.493	4.29
277.707	3.89
277.921	3.84
278.135	4.06
278.349	3.69
278.563	3.43
278.777	3.13
278.991	3.76
279.205	3.69
279.419	3.74
279.633	3.61
279.847	3.91
280.061	4.19
280.275	4.14
280.489	3.97
280.703	4.2
280.917	4.71
281.131	4.61
281.344	4.9
281.558	4.84
281.772	4.63
281.986	4.56
282.2	4.24
282.414	4
282.627	3.85
282.841	4.25
283.055	4.23
283.269	3.98
283.482	4.16
283.696	3.9
283.91	3.73
284.123	3.57
284.337	3.51
284.551	3.51
284.764	3.42
284.978	3.25
285.192	2.92
285.405	2.75
285.619	2.7
285.833	2.65
286.046	2.76
286.26	2.99
286.473	3.13
286.687	3.35
286.9	3.68
287.114	3.79
287.327	3.86
287.541	3.92
287.754	4.17
287.968	4.19
288.181	4.74
288.395	4.75
288.608	4.58
288.822	4.62
289.035	4.29
289.248	3.96
289.462	4.13
289.675	4.14
289.889	4.03
290.102	4.01
290.315	4.15
290.529	3.85
290.742	3.97
290.955	3.68
291.169	3.76
291.382	4.1
291.595	4.24
291.808	4.16
292.022	4.35
292.235	4.03
292.448	3.91
292.661	3.74
292.875	3.41
293.088	3.3
293.301	3.53
293.514	3.36
293.727	3.16
293.94	3.11
294.153	2.99
294.367	3.2
294.58	3.96
294.793	4.04
295.006	4.12
295.219	4.51
295.432	4.44
295.645	4.79
295.858	5.21
296.071	5.1
296.284	5.26
296.497	5.33
296.71	5.34
296.923	5.36
297.136	5.37
297.349	5.46
297.562	5.51
297.775	5.55
297.988	5.45
298.201	5.23
298.414	5.56
298.626	5.44
298.839	5.56
299.052	5.56
299.265	5.35
299.478	5.58
299.691	5.75
299.903	5.73
300.116	5.76
300.329	5.93
300.542	5.95
300.755	5.79
300.967	6.06
301.18	6.19
301.393	6.46
301.605	6.84
301.818	6.89
302.031	6.96
302.243	6.9
302.456	7.28
302.669	7.18
302.881	7.56
303.094	7.86
303.307	7.67
303.519	7.91
303.732	7.63
303.944	7.68
304.157	7.77
304.37	7.76
304.582	7.69
304.795	7.56
305.007	7.26
305.22	7.44
305.432	7.33
305.645	7.52
305.857	7.54
306.069	7.7
306.282	7.46
306.494	7.56
306.707	7.34
306.919	7.68
307.132	7.59
307.344	8.34
307.556	7.71
307.769	7.79
307.981	7.91
308.193	7.69
308.406	7.85
308.618	8.18
308.83	8.09
309.043	8.16
309.255	8.07
309.467	8.01
309.679	8.06
309.892	8.16
310.104	8.23
310.316	8.22
310.528	8.36
310.74	8.31
310.953	7.82
311.165	7.71
311.377	8.01
311.589	7.95
311.801	8.2
312.013	8.3
312.225	8.54
312.437	8.65
312.649	8.78
312.862	8.74
313.074	9.02
313.286	9.31
313.498	9.63
313.71	9.71
313.922	9.86
314.134	9.92
314.346	9.57
314.558	9.85
314.77	9.78
314.982	9.66
315.193	9.63
315.405	9.11
315.617	9.13
315.829	8.82
316.041	8.62
316.253	8.17
316.465	8.01
316.677	8.37
316.888	8.19
317.1	8.21
317.312	8.48
317.524	8.63
317.736	8.72
317.947	9.13
318.159	9.4
318.371	9.37
318.583	10.17
318.794	10.75
319.006	10.74
319.218	10.68
319.43	10.63
319.641	10.6
319.853	10.36
320.064	10.14
320.276	9.83
320.488	9.77
320.699	10.04
320.911	10.16
321.123	9.88
321.334	10.02
321.546	10.35
321.757	10.56
321.969	10.62
322.18	10.87
322.392	11.72
322.603	11.75
322.815	11.66
323.026	11.68
323.238	11
323.449	10.99
323.661	10.67
323.872	10.54
324.083	10.63
324.295	10.77
324.506	10.56
324.718	10.2
324.929	10.34
325.14	10.59
325.352	10.74
325.563	11.33
325.774	11.27
325.986	10.96
326.197	10.92
326.408	10.72
326.62	10.44
326.831	10.95
327.042	11.05
327.253	11.25
327.464	11.31
327.676	11.21
327.887	11.09
328.098	11.37
328.309	11.64
328.52	11.54
328.732	11.45
328.943	11.65
329.154	11.63
329.365	11.49
329.576	11.69
329.787	11.62
329.998	11.45
330.209	11.49
330.42	11.35
330.631	11.56
330.842	11.74
331.053	11.91
331.264	11.78
331.475	11.89
331.686	11.87
331.897	11.82
332.108	11.6
332.319	11.75
332.53	11.82
332.741	11.78
332.952	11.74
333.163	11.75
333.374	11.99
333.585	12.01
333.795	12
334.006	12.31
334.217	12.18
334.428	12.73
334.639	12.75
334.849	12.79
335.06	12.55
335.271	12.46
335.482	12.67
335.692	12.5
335.903	12.5
336.114	12.6
336.325	12.5
336.535	12.27
336.746	11.78
336.957	11.78
337.167	11.69
337.378	11.65
337.589	11.9
337.799	11.62
338.01	11.56
338.22	11.59
338.431	10.98
338.642	10.8
338.852	10.87
339.063	10.98
339.273	10.95
339.484	10.88
339.694	11.19
339.905	11.05
340.115	11.21
340.326	10.98
340.536	10.82
340.746	11.11
340.957	11.15
341.167	11.13
341.378	11.32
341.588	11.47
341.799	11.67
342.009	11.76
342.219	11.78
342.43	11.6
342.64	11.64
342.85	11.52
343.061	11.53
343.271	11.53
343.481	11.39
343.691	11.25
343.902	11.28
344.112	10.95
344.322	10.89
344.532	10.97
344.743	11.07
344.953	11.36
345.163	11.35
345.373	11.52
345.583	11.64
345.793	11.76
346.004	11.73
346.214	11.38
346.424	11.65
346.634	11.5
346.844	11.56
347.054	11.55
347.264	11.37
347.474	11.52
347.684	11.35
347.894	11.05
348.104	11
348.314	10.87
348.524	11.01
348.734	10.76
348.944	10.8
349.154	10.39
349.364	10.51
349.574	10.6
349.784	10.67
349.994	10.41
350.204	10.44
350.413	10.46
350.623	10.49
350.833	10.35
351.043	10.04
351.253	9.82
351.463	10.16
351.672	9.8
351.882	9.81
352.092	9.98
352.302	10.07
352.511	10.24
352.721	10.18
352.931	10.25
353.141	10.5
353.35	10.73
353.56	11.09
353.77	10.99
353.979	11.25
354.189	11.42
354.399	10.95
354.608	11.04
354.818	11.04
355.027	11.32
355.237	11.12
355.447	10.95
355.656	10.88
355.866	10.44
356.075	10.58
356.285	10.56
356.494	10.52
356.704	10.89
356.913	10.99
357.123	10.91
357.332	10.87
357.542	11.04
357.751	11.05
357.96	11.03
358.17	11.2
358.379	10.95
358.589	10.71
358.798	10.6
359.007	10.37
359.217	10.16
359.426	10.32
359.635	10.11
359.845	9.97
360.054	9.77
360.263	9.98
360.472	9.96
360.682	9.97
360.891	10.08
361.1	10.02
361.309	10.04
361.519	10.07
361.728	9.87
361.937	9.9
362.146	9.89
362.355	10.08
362.564	9.94
362.774	10.12
362.983	10.1
363.192	10.02
363.401	10.03
363.61	10.13
363.819	10.04
364.028	10.14
364.237	10.1
364.446	10.41
364.655	10.32
364.864	10.22
365.073	10.17
365.282	10.14
365.491	10.14
365.7	10.01
365.909	9.99
366.118	10.02
366.327	10.07
366.536	10.04
366.745	9.6
366.954	9.79
367.162	9.97
367.371	9.81
367.58	9.78
367.789	9.92
367.998	9.84
368.207	9.57
368.415	9.36
368.624	9.43
368.833	9.43
369.042	9.54
369.25	9.34
369.459	9.25
369.668	9.29
369.877	9.32
370.085	9.16
370.294	9.38
370.503	9.54
370.711	9.71
370.92	9.63
371.129	9.59
371.337	9.6
371.546	9.52
371.754	9.46
371.963	9.55
372.171	9.56
372.38	9.46
372.589	9.22
372.797	9.09
373.006	8.97
373.214	9.04
373.423	9.1
373.631	9.12
373.84	9.12
374.048	9.22
374.256	9.04
374.465	9.01
374.673	9.27
374.882	9.31
375.09	9.24
375.298	9.18
375.507	8.85
375.715	8.56
375.923	8.3
376.132	8.2
376.34	8.2
376.548	8.15
376.757	7.99
376.965	7.85
377.173	8.1
377.381	8.25
377.59	8.44
377.798	8.52
378.006	8.76
378.214	9.01
378.423	9.05
378.631	8.87
378.839	8.92
379.047	9.09
379.255	9.19
379.463	9.07
379.671	8.98
379.879	8.92
380.088	9.05
380.296	8.94
380.504	9.1
380.712	9.16
380.92	9.19
381.128	8.97
381.336	8.88
381.544	8.77
381.752	8.68
381.96	8.67
382.168	8.66
382.376	8.48
382.584	8.35
382.791	8.16
382.999	7.89
383.207	7.93
383.415	7.91
383.623	7.98
383.831	8.01
384.039	8.06
384.247	7.98
384.454	8.12
384.662	8.1
384.87	8.35
385.078	8.37
385.285	8.67
385.493	8.49
385.701	8.66
385.909	8.72
386.116	8.65
386.324	8.65
386.532	8.79
386.739	8.56
386.947	8.55
387.155	8.39
387.362	8.27
387.57	8.04
387.778	8.1
387.985	7.92
388.193	7.86
388.4	7.73
388.608	7.61
388.816	7.61
389.023	7.5
389.231	7.4
389.438	7.43
389.646	7.47
389.853	7.46
390.061	7.42
390.268	7.37
390.475	7.43
390.683	7.48
390.89	7.63
391.098	7.5
391.305	7.61
391.512	7.63
391.72	7.56
391.927	7.43
392.135	7.46
392.342	7.62
392.549	7.76
392.756	7.6
392.964	7.58
393.171	7.47
393.378	7.51
393.586	7.49
393.793	7.41
394	7.44
394.207	7.51
394.414	7.57
394.622	7.31
394.829	7.29
395.036	7.15
395.243	7.19
395.45	7.31
395.657	7.23
395.864	7.24
396.072	7.34
396.279	7.37
396.486	7.39
396.693	7.25
396.9	7.43
397.107	7.38
397.314	7.46
397.521	7.35
397.728	7.1
397.935	7.13
398.142	7.08
398.349	7.19
398.556	7.06
398.763	6.86
398.97	6.73
399.177	6.66
399.383	6.63
399.59	6.72
399.797	6.8
400.004	6.86
400.211	6.95
400.418	6.99
400.625	6.96
400.831	7.07
401.038	7.2
401.245	7.41
401.452	7.35
401.658	7.53
401.865	7.32
402.072	7.24
402.279	7.09
402.485	6.95
402.692	7.03
402.899	6.87
403.105	7.05
403.312	7.01
403.519	7.08
403.725	7.19
403.932	6.97
404.138	7.03
404.345	7.12
404.552	7.15
404.758	7.12
404.965	7.04
405.171	7.17
405.378	7.12
405.584	7.2
405.791	7.05
405.997	7.14
406.204	7.05
406.41	7.08
406.617	6.99
406.823	7.12
407.029	7.3
407.236	7.29
407.442	7.16
407.649	6.91
407.855	6.82
408.061	6.73
408.268	6.65
408.474	6.81
408.68	6.8
408.887	6.59
409.093	6.53
409.299	6.4
409.505	6.18
409.712	6.14
409.918	6.26
410.124	6.27
410.33	6.38
410.537	6.39
410.743	6.46
410.949	6.55
411.155	6.65
411.361	6.68
411.567	6.68
411.773	6.92
411.98	7.07
412.186	7.08
412.392	7.14
412.598	7.28
412.804	7.22
413.01	7.17
413.216	7.25
413.422	7.18
413.628	7.24
413.834	7.19
414.04	7.16
414.246	7.11
414.452	7.11
414.658	6.91
414.864	6.77
415.07	6.72
415.275	6.8
415.481	6.86
415.687	7.03
415.893	6.97
416.099	7.01
416.305	6.98
416.511	7.04
416.716	7.03
416.922	7.24
417.128	7.26
417.334	7.3
417.539	7.27
417.745	7.26
417.951	7.26
418.157	7.21
418.362	7.3
418.568	7.26
418.774	7.25
418.979	7.2
419.185	7.18
419.391	7.22
419.596	7.33
419.802	7.34
420.008	7.21
420.213	7.25
420.419	7.27
420.624	7.16
420.83	7.16
421.035	7.14
421.241	7.2
421.446	7.23
421.652	7.24
421.857	7.15
422.063	7.12
422.268	7.16
422.474	7.16
422.679	7.19
422.885	7.22
423.09	7.19
423.295	7.19
423.501	7.12
423.706	7.13
423.911	7.12
424.117	7.07
424.322	7.16
424.527	7.22
424.733	7.24
424.938	7.24
425.143	7.19
425.349	7.25
425.554	7.28
425.759	7.38
425.964	7.31
426.169	7.35
426.375	7.4
426.58	7.26
426.785	7.18
426.99	7.24
427.195	7.24
427.4	7.35
427.605	7.32
427.811	7.38
428.016	7.36
428.221	7.38
428.426	7.35
428.631	7.42
428.836	7.55
429.041	7.53
429.246	7.37
429.451	7.49
429.656	7.56
429.861	7.63
430.066	7.52
430.271	7.5
430.476	7.45
430.681	7.4
430.886	7.38
431.09	7.23
431.295	7.29
431.5	7.32
431.705	7.23
431.91	7.14
432.115	7.15
432.32	7.19
432.524	7.27
432.729	7.27
432.934	7.26
433.139	7.28
433.343	7.39
433.548	7.36
433.753	7.4
433.958	7.35
434.162	7.44
434.367	7.46
434.572	7.52
434.776	7.51
434.981	7.61
435.186	7.64
435.39	7.64
435.595	7.67
435.799	7.73
436.004	7.74
436.209	7.9
436.413	7.87
436.618	7.78
436.822	7.77
437.027	7.81
437.231	7.81
437.436	7.85
437.64	7.81
437.845	7.74
438.049	7.72
438.253	7.72
438.458	7.63
438.662	7.63
438.867	7.64
439.071	7.75
439.275	7.72
439.48	7.71
439.684	7.72
439.888	7.75
440.093	7.84
440.297	7.85
440.501	7.85
440.706	7.84
440.91	7.93
441.114	7.99
441.318	7.79
441.523	7.79
441.727	7.86
441.931	7.87
442.135	7.83
442.339	7.75
442.543	7.78
442.748	7.72
442.952	7.73
443.156	7.5
443.36	7.45
443.564	7.57
443.768	7.58
443.972	7.64
444.176	7.55
444.38	7.59
444.584	7.59
444.788	7.54
444.992	7.66
445.196	7.72
445.4	7.79
445.604	7.89
445.808	7.95
446.012	7.9
446.216	7.79
446.42	7.86
446.624	7.88
446.828	7.88
447.032	7.89
447.235	7.81
447.439	7.81
447.643	7.81
447.847	7.81
448.051	7.75
448.254	7.8
448.458	7.78
448.662	7.73
448.866	7.77
449.069	7.76
449.273	7.71
449.477	7.66
449.681	7.62
449.884	7.66
450.088	7.63
450.292	7.7
450.495	7.71
450.699	7.73
450.902	7.84
451.106	7.85
451.31	7.93
451.513	8.07
451.717	8.19
451.92	8.23
452.124	8.25
452.327	8.12
452.531	7.98
452.734	7.99
452.938	7.98
453.141	7.96
453.345	7.9
453.548	7.9
453.752	7.83
453.955	7.74
454.158	7.74
454.362	7.66
454.565	7.81
454.769	7.88
454.972	7.83
455.175	7.9
455.379	7.75
455.582	7.85
455.785	7.77
455.988	7.87
456.192	8.05
456.395	8.05
456.598	8.12
456.801	8.03
457.005	8
457.208	8
457.411	7.97
457.614	8.1
457.817	8.03
458.021	8.06
458.224	7.99
458.427	7.91
458.63	7.84
458.833	7.8
459.036	7.82
459.239	7.79
459.442	7.88
459.645	7.8
459.848	7.85
460.051	7.79
460.254	7.84
460.457	7.83
460.66	7.75
460.863	7.82
461.066	7.86
461.269	7.89
461.472	7.98
461.675	7.84
461.878	7.9
462.081	7.82
462.284	7.88
462.486	7.77
462.689	7.8
462.892	7.87
463.095	7.82
463.298	7.86
463.5	7.81
463.703	7.8
463.906	7.84
464.109	7.91
464.311	7.84
464.514	7.85
464.717	7.85
464.92	7.82
465.122	7.88
465.325	7.95
465.528	7.87
465.73	7.84
465.933	7.75
466.135	7.7
466.338	7.63
466.541	7.67
466.743	7.68
466.946	7.64
467.148	7.58
467.351	7.57
467.553	7.54
467.756	7.56
467.958	7.63
468.161	7.66
468.363	7.76
468.566	7.69
468.768	7.72
468.971	7.64
469.173	7.77
469.375	7.88
469.578	7.86
469.78	7.85
469.983	7.95
470.185	7.85
470.387	7.78
470.59	7.87
470.792	7.95
470.994	7.89
471.196	7.89
471.399	7.92
471.601	7.95
471.803	7.93
472.005	7.86
472.208	7.8
472.41	7.96
472.612	7.96
472.814	7.83
473.016	7.81
473.218	7.8
473.421	7.85
473.623	7.76
473.825	7.74
474.027	7.71
474.229	7.73
474.431	7.73
474.633	7.66
474.835	7.79
475.037	7.86
475.239	7.97
475.441	8.08
475.643	8.07
475.845	8.14
476.047	8.05
476.249	8.06
476.451	8.15
476.653	8.21
476.855	8.14
477.057	8.06
477.258	8.01
477.46	7.98
477.662	7.94
477.864	7.95
478.066	7.94
478.268	8.02
478.469	8
478.671	7.95
478.873	7.89
479.075	7.92
479.276	7.87
479.478	7.87
479.68	7.8
479.882	7.82
480.083	7.78
480.285	7.79
480.487	7.74
480.688	7.76
480.89	7.84
481.091	7.83
481.293	7.85
481.495	7.94
481.696	8.01
481.898	8.02
482.099	8.02
482.301	8.07
482.502	8.03
482.704	8.07
482.905	8.08
483.107	8.07
483.308	8.08
483.51	8.06
483.711	8.03
483.913	8.01
484.114	8.03
484.315	8.03
484.517	8.02
484.718	8.01
484.92	7.97
485.121	7.94
485.322	7.92
485.524	7.89
485.725	7.88
485.926	7.87
486.127	7.86
486.329	7.82
486.53	7.81
486.731	7.81
486.932	7.85
487.134	7.85
487.335	7.87
487.536	7.91
487.737	7.92
487.938	7.92
488.139	7.89
488.341	7.88
488.542	7.93
488.743	7.92
488.944	7.92
489.145	7.9
489.346	7.95
489.547	7.95
489.748	7.95
489.949	7.95
490.15	8.01
490.351	8.07
490.552	8.06
490.753	8.06
490.954	8.07
491.155	8.06
491.356	8.06
491.557	8.03
491.758	8.07
491.959	8.03
492.159	8.03
492.36	7.97
492.561	7.97
492.762	8
492.963	7.95
493.164	7.9
493.364	7.95
493.565	8
493.766	8.06
493.967	7.98
494.167	7.98
494.368	7.97
494.569	8.05
494.769	8.05
494.97	8.05
495.171	8.12
495.371	8.24
495.572	8.22
495.773	8.14
495.973	8.11
496.174	8.16
496.375	8.17
496.575	8.27
496.776	8.23
496.976	8.29
497.177	8.32
497.377	8.29
497.578	8.25
497.778	8.17
497.979	8.19
498.179	8.22
498.38	8.24
498.58	8.28
498.78	8.21
498.981	8.13
499.181	8
499.382	7.99
499.582	8.02
499.782	8.03
499.983	8.1
500.183	8.16
500.383	8.17
500.584	8.17
500.784	8.15
500.984	8.14
501.184	8.25
501.385	8.37
501.585	8.48
501.785	8.48
501.985	8.48
502.185	8.53
502.386	8.53
502.586	8.56
502.786	8.63
502.986	8.61
503.186	8.68
503.386	8.79
503.586	8.83
503.786	8.8
503.987	8.88
504.187	8.8
504.387	8.91
504.587	8.86
504.787	8.9
504.987	8.95
505.187	9.01
505.387	9
505.587	8.92
505.786	8.93
505.986	8.94
506.186	8.93
506.386	9.07
506.586	9
506.786	9.06
506.986	8.95
507.186	9
507.386	9.04
507.585	9.14
507.785	9.17
507.985	9.17
508.185	9.19
508.384	9.28
508.584	9.32
508.784	9.26
508.984	9.31
509.183	9.5
509.383	9.44
509.583	9.47
509.782	9.46
509.982	9.55
510.182	9.6
510.381	9.66
510.581	9.62
510.781	9.62
510.98	9.76
511.18	9.77
511.379	9.72
511.579	9.82
511.778	9.86
511.978	9.87
512.177	9.93
512.377	9.98
512.576	9.99
512.776	10.01
512.975	10.11
513.175	10.13
513.374	10.22
513.573	10.31
513.773	10.34
513.972	10.44
514.172	10.51
514.371	10.49
514.57	10.49
514.77	10.53
514.969	10.51
515.168	10.51
515.367	10.54
515.567	10.61
515.766	10.62
515.965	10.65
516.164	10.67
516.364	10.72
516.563	10.82
516.762	10.93
516.961	11.02
517.16	11.14
517.359	11.26
517.559	11.36
517.758	11.41
517.957	11.44
518.156	11.44
518.355	11.44
518.554	11.52
518.753	11.51
518.952	11.56
519.151	11.61
519.35	11.67
519.549	11.68
519.748	11.68
519.947	11.69
520.146	11.8
520.345	11.87
520.544	11.95
520.743	12
520.942	12.16
521.141	12.18
521.339	12.17
521.538	12.15
521.737	12.29
521.936	12.31
522.135	12.33
522.333	12.37
522.532	12.46
522.731	12.56
522.93	12.63
523.129	12.68
523.327	12.75
523.526	12.9
523.725	12.94
523.923	12.96
524.122	13.04
524.321	13.18
524.519	13.25
524.718	13.34
524.917	13.36
525.115	13.36
525.314	13.42
525.512	13.5
525.711	13.48
525.909	13.63
526.108	13.69
526.306	13.75
526.505	13.79
526.703	13.88
526.902	13.92
527.1	14.02
527.299	14.07
527.497	14.15
527.696	14.22
527.894	14.3
528.092	14.36
528.291	14.43
528.489	14.49
528.688	14.55
528.886	14.6
529.084	14.67
529.283	14.67
529.481	14.75
529.679	14.79
529.877	14.8
530.076	14.85
530.274	14.89
530.472	14.89
530.67	14.97
530.869	15.04
531.067	15.09
531.265	15.14
531.463	15.25
531.661	15.29
531.859	15.37
532.057	15.47
532.255	15.59
532.454	15.65
532.652	15.75
532.85	15.82
533.048	15.86
533.246	15.91
533.444	15.94
533.642	16.03
533.84	16.1
534.038	16.12
534.236	16.15
534.434	16.12
534.632	16.16
534.83	16.27
535.027	16.23
535.225	16.27
535.423	16.34
535.621	16.36
535.819	16.38
536.017	16.46
536.215	16.46
536.412	16.53
536.61	16.57
536.808	16.66
537.006	16.65
537.203	16.73
537.401	16.74
537.599	16.75
537.797	16.83
537.994	16.9
538.192	16.92
538.39	17.04
538.587	17.11
538.785	17.22
538.983	17.27
539.18	17.25
539.378	17.34
539.575	17.46
539.773	17.55
539.97	17.58
540.168	17.61
540.366	17.65
540.563	17.7
540.761	17.73
540.958	17.79
541.155	17.76
541.353	17.82
541.55	17.84
541.748	17.83
541.945	17.82
542.143	17.85
542.34	17.88
542.537	17.89
542.735	17.88
542.932	17.87
543.129	17.84
543.327	17.91
543.524	17.94
543.721	17.99
543.919	18.05
544.116	18.11
544.313	18.14
544.51	18.19
544.708	18.23
544.905	18.32
545.102	18.41
545.299	18.47
545.496	18.52
545.693	18.57
545.891	18.59
546.088	18.62
546.285	18.6
546.482	18.66
546.679	18.7
546.876	18.75
547.073	18.79
547.27	18.78
547.467	18.76
547.664	18.82
547.861	18.84
548.058	18.88
548.255	18.82
548.452	18.9
548.649	18.88
548.846	18.86
549.043	18.85
549.24	18.79
549.437	18.87
549.633	19.07
549.83	18.93
550.027	18.91
550.224	19
550.421	19.09
550.618	19.07
550.814	19.19
551.011	19.17
551.208	19.18
551.405	19.18
551.601	19.18
551.798	19
551.995	19.03
552.191	19.09
552.388	19.02
552.585	18.99
552.781	18.96
552.978	18.97
553.175	19.01
553.371	19.03
553.568	19.03
553.764	19.01
553.961	18.97
554.157	18.99
554.354	18.91
554.55	18.9
554.747	19.01
554.943	19.13
555.14	19.04
555.336	19.04
555.533	19.05
555.729	19.03
555.926	18.88
556.122	18.99
556.318	18.99
556.515	19.04
556.711	19.02
556.907	18.91
557.104	18.77
557.3	18.79
557.496	18.76
557.693	18.76
557.889	18.93
558.085	19.16
558.281	19.21
558.478	19.35
558.674	19.35
558.87	19.43
559.066	19.46
559.262	19.55
559.459	19.68
559.655	19.74
559.851	19.72
560.047	19.55
560.243	19.63
560.439	19.6
560.635	19.45
560.831	19.41
561.027	19.39
561.223	19.46
561.419	19.42
561.615	19.39
561.811	19.35
562.007	19.3
562.203	19.4
562.399	19.24
562.595	19.23
562.791	19.46
562.987	19.46
563.183	19.45
563.379	19.49
563.575	19.56
563.771	19.44
563.966	19.47
564.162	19.61
564.358	19.61
564.554	19.7
564.75	19.74
564.945	19.64
565.141	19.71
565.337	19.77
565.533	19.74
565.728	19.71
565.924	19.72
566.12	19.77
566.315	19.69
566.511	19.67
566.707	19.63
566.902	19.63
567.098	19.69
567.293	19.64
567.489	19.61
567.684	19.61
567.88	19.67
568.076	19.7
568.271	19.73
568.467	19.75
568.662	19.79
568.858	19.83
569.053	19.82
569.248	19.8
569.444	19.89
569.639	19.93
569.835	19.9
570.03	19.85
570.225	19.92
570.421	19.91
570.616	19.99
570.812	19.98
571.007	20.03
571.202	20.01
571.397	19.93
571.593	19.95
571.788	19.97
571.983	20
572.178	20.08
572.374	20.06
572.569	20.06
572.764	20.02
572.959	20.01
573.154	19.95
573.35	20.02
573.545	20.05
573.74	20.01
573.935	20.02
574.13	20.04
574.325	20.06
574.52	20.19
574.715	20.2
574.91	20.21
575.105	20.23
575.3	20.28
575.495	20.26
575.69	20.29
575.885	20.2
576.08	20.17
576.275	20.17
576.47	20.14
576.665	20.08
576.86	20.05
577.055	20.07
577.25	20.13
577.444	20.11
577.639	20.15
577.834	20.32
578.029	20.36
578.224	20.29
578.418	20.3
578.613	20.36
578.808	20.36
579.003	20.49
579.197	20.53
579.392	20.49
579.587	20.5
579.781	20.48
579.976	20.33
580.171	20.46
580.365	20.48
580.56	20.46
580.755	20.47
580.949	20.43
581.144	20.28
581.338	20.21
581.533	20.21
581.727	20.32
581.922	20.48
582.116	20.51
582.311	20.59
582.505	20.66
582.7	20.64
582.894	20.65
583.089	20.64
583.283	20.69
583.478	20.65
583.672	20.78
583.866	20.69
584.061	20.62
584.255	20.61
584.449	20.57
584.644	20.65
584.838	20.7
585.032	20.67
585.226	20.74
585.421	20.84
585.615	20.93
585.809	20.96
586.003	20.99
586.198	20.88
586.392	20.86
586.586	20.95
586.78	20.98
586.974	21.21
587.168	21.17
587.363	21.15
587.557	21.18
587.751	21.29
587.945	21.17
588.139	21.2
588.333	21.2
588.527	21.2
588.721	21.1
588.915	21.06
589.109	20.96
589.303	21.08
589.497	21.05
589.691	20.99
589.885	20.91
590.079	20.92
590.273	20.92
590.466	21.09
590.66	21.12
590.854	21.24
591.048	21.25
591.242	21.14
591.436	20.89
591.629	21.01
591.823	21.15
592.017	21.21
592.211	21.31
592.404	21.29
592.598	21.1
592.792	21.08
592.986	21
593.179	20.98
593.373	21
593.567	21.21
593.76	21.15
593.954	21
594.147	20.99
594.341	20.88
594.535	20.86
594.728	21
594.922	21.17
595.115	21.13
595.309	21.18
595.502	21.26
595.696	21.21
595.889	21.1
596.083	21.12
596.276	21.05
596.47	21.16
596.663	21.14
596.856	21.16
597.05	21.02
597.243	21.03
597.437	21.18
597.63	21.1
597.823	21.18
598.017	21.33
598.21	21.41
598.403	21.46
598.596	21.46
598.79	21.54
598.983	21.61
599.176	21.82
599.369	21.92
599.563	21.73
599.756	21.82
599.949	21.83
600.142	21.85
600.335	21.72
600.528	21.72
600.722	21.73
600.915	21.81
601.108	21.64
601.301	21.56
601.494	21.46
601.687	21.49
601.88	21.46
602.073	21.36
602.266	21.28
602.459	21.34
602.652	21.32
602.845	21.35
603.038	21.38
603.231	21.43
603.424	21.45
603.617	21.5
603.809	21.54
604.002	21.5
604.195	21.47
604.388	21.53
604.581	21.58
604.774	21.65
604.966	21.62
605.159	21.68
605.352	21.7
605.545	21.7
605.737	21.64
605.93	21.67
606.123	21.76
606.316	21.85
606.508	21.82
606.701	21.88
606.894	21.94
607.086	21.98
607.279	21.9
607.471	22.01
607.664	21.97
607.857	22.01
608.049	22.07
608.242	22.12
608.434	22.24
608.627	22.42
608.819	22.42
609.012	22.43
609.204	22.66
609.397	22.9
609.589	22.97
609.782	23.21
609.974	23.47
610.166	23.52
610.359	23.78
610.551	24
610.743	24.14
610.936	24.28
611.128	24.52
611.32	24.41
611.513	24.39
611.705	24.48
611.897	24.32
612.09	24.22
612.282	24.18
612.474	24.08
612.666	24.05
612.858	23.97
613.051	23.86
613.243	23.76
613.435	23.66
613.627	23.56
613.819	23.47
614.011	23.59
614.203	23.47
614.395	23.58
614.588	23.55
614.78	23.37
614.972	23.12
615.164	23.1
615.356	23.05
615.548	23.17
615.74	23.01
615.932	22.9
616.124	22.75
616.315	22.9
616.507	22.79
616.699	22.58
616.891	22.49
617.083	22.57
617.275	22.55
617.467	22.47
617.659	22.52
617.85	22.45
618.042	22.51
618.234	22.45
618.426	22.3
618.618	22.24
618.809	22.38
619.001	22.43
619.193	22.44
619.384	22.55
619.576	22.71
619.768	22.61
619.959	22.77
620.151	22.72
620.343	22.75
620.534	22.86
620.726	22.95
620.917	22.91
621.109	22.89
621.301	22.98
621.492	22.79
621.684	22.67
621.875	22.68
622.067	22.58
622.258	22.46
622.45	22.48
622.641	22.3
622.832	22.07
623.024	22.11
623.215	22.26
623.407	22.22
623.598	22.23
623.789	22.08
623.981	22.09
624.172	22.18
624.363	22.39
624.555	22.34
624.746	22.54
624.937	22.74
625.129	22.66
625.32	22.45
625.511	22.36
625.702	22.5
625.893	22.47
626.085	22.42
626.276	22.47
626.467	22.39
626.658	22.39
626.849	22.4
627.04	22.42
627.231	22.34
627.422	22.45
627.614	22.63
627.805	22.51
627.996	22.53
628.187	22.5
628.378	22.56
628.569	22.68
628.76	22.88
628.951	22.81
629.142	22.78
629.332	22.84
629.523	22.84
629.714	22.62
629.905	22.81
630.096	22.89
630.287	23.07
630.478	22.93
630.669	22.77
630.859	22.73
631.05	22.83
631.241	22.95
631.432	22.94
631.623	22.76
631.813	22.79
632.004	22.67
632.195	22.64
632.385	22.39
632.576	22.43
632.767	22.47
632.957	22.35
633.148	22.33
633.339	21.98
633.529	21.96
633.72	22.14
633.91	22.21
634.101	22.12
634.292	22.17
634.482	22.37
634.673	22.42
634.863	22.41
635.054	22.43
635.244	22.5
635.435	22.67
635.625	22.71
635.815	22.57
636.006	22.56
636.196	22.64
636.387	22.65
636.577	22.68
636.767	22.67
636.958	22.69
637.148	22.79
637.338	22.65
637.529	22.77
637.719	22.74
637.909	22.84
638.099	22.85
638.29	22.86
638.48	22.88
638.67	22.84
638.86	22.7
639.05	22.84
639.241	22.69
639.431	22.75
639.621	22.81
639.811	23.05
640.001	23.09
640.191	23.1
640.381	23.13
640.571	23.02
640.761	23.16
640.951	23.14
641.141	23.05
641.331	23.01
641.521	23.09
641.711	22.9
641.901	22.74
642.091	22.74
642.281	22.76
642.471	22.78
642.661	22.79
642.851	22.57
643.041	22.66
643.231	22.61
643.42	22.78
643.61	22.87
643.8	23.08
643.99	22.94
644.18	23.01
644.369	23.08
644.559	23.1
644.749	23.33
644.939	23.36
645.128	23.43
645.318	23.47
645.508	23.37
645.697	23.21
645.887	22.91
646.076	23.01
646.266	22.84
646.456	22.56
646.645	22.38
646.835	22.17
647.024	22.01
647.214	21.83
647.403	21.72
647.593	21.66
647.782	21.53
647.972	21.9
648.161	21.83
648.351	22.06
648.54	22.23
648.73	22.38
648.919	22.49
649.108	22.77
649.298	22.69
649.487	22.83
649.677	22.99
649.866	23.11
650.055	23.03
650.244	23.17
650.434	23
650.623	23.13
650.812	23.19
651.002	23.01
651.191	23.03
651.38	23.07
651.569	23.06
651.758	23.06
651.947	23.13
652.137	23.09
652.326	23.14
652.515	23.04
652.704	23.05
652.893	22.99
653.082	23.36
653.271	23.29
653.46	23.38
653.649	23.41
653.838	23.21
654.027	23.19
654.216	23.1
654.405	23.1
654.594	23.28
654.783	23.19
654.972	23.26
655.161	23.09
655.35	23.04
655.539	23.11
655.728	23.23
655.916	23.38
656.105	23.25
656.294	23.3
656.483	23.23
656.672	23.15
656.86	22.99
657.049	23.06
657.238	23.05
657.427	23.14
657.615	23.24
657.804	22.95
657.993	23.03
658.181	23.22
658.37	23.29
658.559	23.39
658.747	23.56
658.936	23.63
659.125	23.2
659.313	23.23
659.502	23.18
659.69	23.2
659.879	23.36
660.067	23.35
660.256	23.28
660.444	23.06
660.633	22.93
660.821	22.88
661.01	22.93
661.198	23.31
661.387	23.3
661.575	23.36
661.763	23.21
661.952	23.16
662.14	23.24
662.328	23.37
662.517	23.62
662.705	23.61
662.893	23.67
663.082	23.9
663.27	24.06
663.458	24.24
663.646	24.4
663.834	24.42
664.023	24.33
664.211	24.2
664.399	24.03
664.587	23.78
664.775	24.21
664.963	23.9
665.152	23.65
665.34	23.5
665.528	23.32
665.716	23.15
665.904	23.19
666.092	23.51
666.28	23.5
666.468	23.56
666.656	23.77
666.844	23.42
667.032	23.68
667.22	23.73
667.408	23.6
667.596	23.54
667.784	23.55
667.971	23.74
668.159	23.57
668.347	23.61
668.535	23.41
668.723	23.63
668.911	23.67
669.098	23.53
669.286	23.57
669.474	23.82
669.662	23.89
669.849	23.91
670.037	23.8
670.225	23.99
670.413	24
670.6	24.28
670.788	24.12
670.976	24.13
671.163	24.13
671.351	24.04
671.538	24.07
671.726	24
671.913	23.89
672.101	23.92
672.289	24.01
672.476	23.85
672.664	23.66
672.851	23.52
673.039	23.47
673.226	23.54
673.413	23.73
673.601	23.35
673.788	23.28
673.976	23.39
674.163	23.41
674.35	23.18
674.538	23.3
674.725	23.32
674.912	23.42
675.1	23.52
675.287	23.38
675.474	23.24
675.662	23.46
675.849	23.7
676.036	23.49
676.223	23.57
676.411	23.87
676.598	24.03
676.785	24.16
676.972	24.22
677.159	24.19
677.346	24.48
677.533	24.48
677.721	24.38
677.908	24.37
678.095	24.67
678.282	24.39
678.469	24.24
678.656	24.18
678.843	24.08
679.03	24
679.217	24.08
679.404	23.85
679.591	24.03
679.778	24.26
679.964	24.25
680.151	24.08
680.338	24.26
680.525	24.12
680.712	24.02
680.899	24.11
681.086	24.21
681.272	24.24
681.459	24.33
681.646	24.28
681.833	24.09
682.02	24.18
682.206	24.3
682.393	24.12
682.58	24.29
682.766	24.36
682.953	24.25
683.14	24.22
683.326	24.18
683.513	24.18
683.7	24.21
683.886	24.15
684.073	24.02
684.259	24.05
684.446	24.16
684.632	24.14
684.819	24.18
685.005	24.4
685.192	24.37
685.378	24.38
685.565	24.32
685.751	24.07
685.938	24.12
686.124	23.98
686.31	23.63
686.497	23.84
686.683	23.89
686.87	23.98
687.056	23.9
687.242	24.09
687.429	23.79
687.615	23.82
687.801	24.04
687.987	24.1
688.174	24.26
688.36	24.69
688.546	24.57
688.732	24.33
688.918	24.11
689.105	24.19
689.291	24.01
689.477	24.06
689.663	24.14
689.849	24.32
690.035	24.36
690.221	24.28
690.407	24.28
690.593	24.28
690.779	24.36
690.965	24.64
691.151	24.38
691.337	24.45
691.523	24.68
691.709	24.74
691.895	24.52
692.081	24.35
692.267	24.64
692.453	24.65
692.639	24.59
692.825	24.61
693.011	24.42
693.196	24.48
693.382	24.26
693.568	24.27
693.754	24.31
693.94	24.27
694.125	24.57
694.311	24.51
694.497	24.48
694.682	24.61
694.868	24.69
695.054	24.82
695.239	25.02
695.425	25.19
695.611	25.06
695.796	25.11
695.982	25.27
696.168	24.95
696.353	24.73
696.539	24.61
696.724	24.57
696.91	24.67
697.095	24.47
697.281	24.34
697.466	24.18
697.652	24.1
697.837	24.01
698.023	23.93
698.208	24.2
698.393	24.33
698.579	24.31
698.764	24.46
698.949	24.33
699.135	24.36
699.32	24.45
699.505	24.68
699.691	24.8
699.876	24.74
700.061	24.85
700.246	24.81
700.432	24.78
700.617	25.01
700.802	24.77
700.987	24.97
701.172	25.22
701.358	25.05
701.543	25.02
701.728	25.33
701.913	25.49
702.098	25.58
702.283	25.71
702.468	25.59
702.653	25.36
702.838	25.52
703.023	25.33
703.208	25.26
703.393	25.63
703.578	25.66
703.763	25.65
703.948	25.81
704.133	25.97
704.318	26.26
704.503	26.84
704.688	27.08
704.873	27.03
705.057	27.34
705.242	27.66
705.427	27.73
705.612	27.99
705.797	27.74
705.981	27.57
706.166	27.15
706.351	26.69
706.536	26.45
706.72	26.31
706.905	26.12
707.09	26.01
707.274	25.58
707.459	25.53
707.644	25.5
707.828	25.72
708.013	26.11
708.197	26.09
708.382	26.19
708.567	25.87
708.751	26.18
708.936	26.48
709.12	26.56
709.305	26.61
709.489	26.76
709.673	26.6
709.858	26.41
710.042	26.28
710.227	26.58
710.411	26.62
710.596	26.68
710.78	26.41
710.964	26.39
711.149	26.24
711.333	26.39
711.517	26.41
711.702	26.49
711.886	26.57
712.07	26.39
712.254	26.02
712.438	25.89
712.623	26.07
712.807	25.96
712.991	25.9
713.175	25.78
713.359	25.81
713.544	25.38
713.728	25.52
713.912	25.48
714.096	25.83
714.28	25.96
714.464	25.89
714.648	25.76
714.832	25.71
715.016	25.59
715.2	25.74
715.384	25.42
715.568	25.69
715.752	25.34
715.936	25.37
716.12	25.06
716.304	24.88
716.488	25.08
716.671	24.55
716.855	24.47
717.039	24.66
717.223	24.35
717.407	24.35
717.59	24.33
717.774	24.31
717.958	24.13
718.142	23.73
718.325	23.91
718.509	23.88
718.693	24.33
718.877	24.13
719.06	23.88
719.244	23.8
719.428	23.81
719.611	23.6
719.795	23.73
719.978	23.46
720.162	24.12
720.345	24.42
720.529	24.36
720.713	24.54
720.896	25.12
721.08	25
721.263	25.74
721.446	26.16
721.63	26.25
721.813	25.73
721.997	26.12
722.18	25.91
722.364	25.55
722.547	25.51
722.73	25.25
722.914	25.17
723.097	25.49
723.28	24.73
723.464	24.84
723.647	25.05
723.83	25.21
724.013	25.29
724.197	25.28
724.38	25.55
724.563	25.52
724.746	25.77
724.929	25.99
725.112	26.12
725.296	26.47
725.479	26.37
725.662	25.99
725.845	26.28
726.028	26.09
726.211	26.16
726.394	26.09
726.577	26.54
726.76	27
726.943	26.68
727.126	26.51
727.309	26.35
727.492	26.47
727.675	26.59
727.858	26.46
728.041	26.56
728.224	26.44
728.407	26.18
728.589	25.86
728.772	25.38
728.955	25.9
729.138	25.9
729.321	25.99
729.503	25.67
729.686	25.76
729.869	25.85
730.052	25.89
730.234	25.6
730.417	25.91
730.6	25.89
730.782	25.93
730.965	25.53
731.148	25.6
731.33	25.76
731.513	25.13
731.695	25.04
731.878	24.88
732.061	25.13
732.243	25.32
732.426	24.92
732.608	24.93
732.791	24.75
732.973	24.62
733.156	24.51
733.338	24.05
733.52	24.41
733.703	24.2
733.885	24.57
734.068	24.6
734.25	24.6
734.432	24.87
734.615	24.92
734.797	25.22
734.979	25.5
735.162	25.44
735.344	25.96
735.526	26.31
735.708	26.78
735.891	26.51
736.073	26.55
736.255	26.74
736.437	26.74
736.619	26.84
736.802	26.83
736.984	26.44
737.166	26.72
737.348	27.2
737.53	27.68
737.712	27.29
737.894	27.6
738.076	27.08
738.258	27.24
738.44	27.66
738.622	26.92
738.804	27.11
738.986	27.3
739.168	27.31
739.35	26.56
739.532	26.14
739.714	26.04
739.896	25.75
740.078	26.02
740.259	26.01
740.441	25.97
740.623	26.5
740.805	26.33
740.987	26.45
741.168	26.54
741.35	26.82
741.532	26.83
741.714	26.83
741.895	27.08
742.077	27.52
742.259	27.74
742.44	27.99
742.622	28.02
742.804	28.17
742.985	27.74
743.167	27.54
743.348	27.57
743.53	27.14
743.711	27.49
743.893	27.25
744.075	26.74
744.256	26.26
744.438	25.55
744.619	25.28
744.8	25.16
744.982	25.55
745.163	26.17
745.345	25.85
745.526	26.85
745.707	27.05
745.889	27.43
746.07	27.23
746.252	27.76
746.433	28.05
746.614	28.11
746.795	27.86
746.977	27.53
747.158	27.22
747.339	27.48
747.52	27.43
747.702	27.33
747.883	26.91
748.064	26.96
748.245	26.61
748.426	26.22
748.607	26.3
748.788	26.07
748.97	26.46
749.151	26.07
749.332	26.51
749.513	26.55
749.694	26.94
749.875	27.21
750.056	27.15
750.237	27.1
750.418	27.06
750.599	26.98
750.78	28.02
750.96	27.78
751.141	28.03
751.322	28.13
751.503	27.97
751.684	27.35
751.865	27.04
752.046	27.3
752.226	27.07
752.407	27.41
752.588	27.99
752.769	27.51
752.949	27.59
753.13	26.77
753.311	26.15
753.492	25.77
753.672	25.98
753.853	26.06
754.034	26.01
754.214	26.42
754.395	26.38
754.575	26.51
754.756	26.52
754.937	27.11
755.117	28.33
755.298	28.08
755.478	28.18
755.659	28.27
755.839	28.26
756.02	28.41
756.2	28.54
756.381	28.65
756.561	27.75
756.741	27.5
756.922	27.42
757.102	27.14
757.283	27.58
757.463	27.61
757.643	28.03
757.823	28.57
758.004	28.28
758.184	27.47
758.364	27.19
758.545	27.51
758.725	27.35
758.905	26.93
759.085	26.92
759.265	26.44
759.446	26.01
759.626	24.63
759.806	23.93
759.986	23.9
760.166	23.94
760.346	23.78
760.526	23.81
760.706	24
760.886	23.82
761.066	23.38
761.246	23.46
761.426	23.9
761.606	24.36
761.786	24.18
761.966	24.52
762.146	24.29
762.326	24.5
762.506	24.7
762.686	24.57
762.866	25.24
763.046	25.65
763.225	25.82
763.405	25.5
763.585	25.46
763.765	25.68
763.945	25.63
764.124	26.22
764.304	26.28
764.484	26.24
764.664	26.53
764.843	26.32
765.023	26.2
765.203	26.39
765.382	26.51
765.562	26.89
765.741	27.35
765.921	27.22
766.101	26.66
766.28	26.49
766.46	26.93
766.639	27.02
766.819	26.64
766.998	26.51
767.178	26.49
767.357	26.93
767.537	26.82
767.716	26.45
767.896	26.75
768.075	27.49
768.254	28.09
768.434	27.32
768.613	26.94
768.792	27.3
768.972	27.62
769.151	26.89
769.33	26.53
769.51	26.67
769.689	26.99
769.868	26.99
770.047	27.34
770.226	26.47
770.406	26.83
770.585	27.18
770.764	27.38
770.943	27.18
771.122	27.63
771.301	27.83
771.48	27.45
771.66	27.14
771.839	27.35
772.018	27.96
772.197	28.3
772.376	27.83
772.555	27.15
772.734	26.8
772.913	26.9
773.092	26.97
773.271	27.46
773.449	27.79
773.628	27.7
773.807	28.37
773.986	27.89
774.165	27.87
774.344	28.7
774.523	29.4
774.701	29.91
774.88	30.31
775.059	30.99
775.238	30.85
775.417	31.04
775.595	31.92
775.774	30.31
775.953	29.33
776.131	29.47
776.31	28.78
776.489	27.94
776.667	27.36
776.846	26.88
777.025	26.14
777.203	25.95
777.382	25.79
777.56	25.37
777.739	26.51
777.917	26.81
778.096	26.93
778.274	27.01
778.453	28.5
778.631	28.65
778.81	29.19
778.988	29.45
779.166	29.57
779.345	30.52
779.523	30.4
779.702	29.34
779.88	28.93
780.058	28.94
780.237	28.65
780.415	27.77
780.593	28.39
780.771	28.32
780.95	28.85
781.128	28.97
781.306	28.44
781.484	28.33
781.662	28.46
781.841	28.66
782.019	27.86
782.197	28.14
782.375	28.12
782.553	27.33
782.731	27.26
782.909	26.34
783.087	25.84
783.265	25.3
783.443	26.08
783.621	26.52
783.799	26.93
783.977	27.28
784.155	27.67
784.333	27.71
784.511	28.2
784.689	26.92
784.867	27.18
785.045	27.22
785.223	27.44
785.4	25.55
785.578	25.71
785.756	26.13
785.934	26.95
786.112	26.22
786.289	25.08
786.467	25.49
786.645	27.12
786.823	27.44
787	26.94
787.178	26.92
787.356	27.76
787.533	26.96
787.711	26.77
787.889	27.01
788.066	27.65
788.244	27.97
788.421	27.78
788.599	27.7
788.776	27.44
788.954	28.09
789.131	28.42
789.309	28.32
789.486	29.85
789.664	30.12
789.841	29.73
790.019	29.66
790.196	29.98
790.373	30.16
790.551	30.17
790.728	30.45
790.906	30.37
791.083	28.86
791.26	29.19
791.437	28.94
791.615	28.21
791.792	28.8
791.969	28.53
792.146	29.53
792.324	28.24
792.501	27.95
792.678	27.92
792.855	28.55
793.032	29.93
793.209	29.73
793.387	29.18
793.564	28.57
793.741	27.37
793.918	27.57
794.095	27.59
794.272	28.3
794.449	28
794.626	28.05
794.803	27.14
794.98	27.06
795.157	26.08
795.334	25.72
795.511	26.54
795.688	28.2
795.864	27.86
796.041	27.16
796.218	26.3
796.395	26.48
796.572	26.43
796.749	26.88
796.925	27.03
797.102	28.54
797.279	28.05
797.456	28.13
797.632	27.53
797.809	27.63
797.986	28.61
798.162	29.58
798.339	29.41
798.516	29.83
798.692	29.47
798.869	29.11
799.046	29.13
799.222	29.63
799.399	29.43
799.575	28.77
799.752	29.7
799.928	28.53
800.105	28.71
800.281	28.51
800.458	27.99
800.634	28.33
800.811	28.97
800.987	27.48
801.163	27.3
801.34	27.54
801.516	27.31
801.692	26.86
801.869	27.37
802.045	26.91
802.221	27.7
802.398	28.64
802.574	28.96
802.75	28.87
802.926	29.67
803.103	29.8
803.279	29.47
803.455	29.4
803.631	29.13
803.807	29.97
803.983	30.73
804.16	29.65
804.336	28.33
804.512	28.57
804.688	28.25
804.864	28.04
805.04	27.67
805.216	27.07
805.392	28.22
805.568	28.91
805.744	25.95
805.92	25.19
806.096	25.29
806.272	24.6
806.448	23.22
806.623	23.55
806.799	24.17
806.975	25.13
807.151	24.76
807.327	24.77
807.503	23.79
807.678	26.01
807.854	25.64
808.03	25.31
808.206	25.37
808.381	24.91
808.557	24.21
808.733	23.74
808.908	23.56
809.084	23.95
809.26	23.92
809.435	24.27
809.611	23.49
809.787	23.87
809.962	23.87
810.138	25.18
810.313	26.01
810.489	26.12
810.664	26.41
810.84	26.3
811.015	27.15
811.191	27.48
811.366	28.47
811.542	28.44
811.717	27.25
811.892	28.44
812.068	28.06
812.243	28.32
812.419	28.24
812.594	28
812.769	28.28
812.944	26.91
813.12	24.66
813.295	23.84
813.47	24.16
813.645	26.99
813.821	26.63
813.996	26.83
814.171	26.45
814.346	25.84
814.521	25.2
814.697	24.85
814.872	25.43
815.047	26.48
815.222	26.78
815.397	26.09
815.572	23.44
815.747	22.59
815.922	21.73
816.097	21.21
816.272	22.25
816.447	23.66
816.622	24.66
816.797	25.11
816.972	25.88
817.147	26.12
817.322	26.32
817.496	28.05
817.671	28.15
817.846	29.12
818.021	29.23
818.196	28.72
818.371	28.94
818.545	28.01
818.72	28.04
818.895	27.54
819.069	26.51
819.244	26.86
819.419	26.18
819.594	26.89
819.768	26.28
819.943	26.18
820.117	26.12
820.292	25.16
820.467	25.77
820.641	25.75
820.816	25.4
820.99	25.6
821.165	25.64
821.339	25.68
821.514	25.49
821.688	25.47
821.863	25.79
822.037	25.68
822.212	25.64
822.386	25.27
822.56	25.26
822.735	25.43
822.909	25.35
823.084	25.4
823.258	25.32
823.432	25.39
823.606	25.36
823.781	25.24
823.955	25.51
824.129	25.75
824.303	25.98
824.478	26.35
824.652	26.24
824.826	26.29
825	26.49
825.174	26.71
825.348	26.72
825.523	26.86
825.697	26.92
825.871	26.64
826.045	26.47
826.219	26.8
826.393	26.52
826.567	26.36
826.741	26.69
826.915	26.1
827.089	25.72
827.263	25.29
827.437	25.5
827.611	25.42
827.784	25.1
827.958	25.34
828.132	24.9
828.306	24.43
828.48	24.48
828.654	23.79
828.827	23.6
829.001	23.99
829.175	24.48
829.349	24.59
829.522	24.76
829.696	25.13
829.87	24.94
830.044	24.09
830.217	24.93
830.391	25.11
830.565	25.43
830.738	26.84
830.912	26.76
831.085	26.38
831.259	25.81
831.432	26.28
831.606	26.1
831.779	24.88
831.953	26.5
832.126	26.07
832.3	26.03
832.473	27.64
832.647	26.32
832.82	25.75
832.994	26.5
833.167	27.35
833.34	26.42
833.514	26.82
833.687	27.44
833.86	26.75
834.034	26.56
834.207	26.9
834.38	26.33
834.553	26.18
834.727	26.67
834.9	26.23
835.073	24.92
835.246	24.52
835.419	24.25
835.593	23.51
835.766	23.45
835.939	23.83
836.112	22.75
836.285	22.85
836.458	24.24
836.631	24.33
836.804	23.93
836.977	24.97
837.15	26.31
837.323	26.95
837.496	28.15
837.669	28.9
837.842	28.04
838.015	29.42
838.188	29.21
838.361	28.67
838.533	27.54
838.706	29.95
838.879	29.17
839.052	29.93
839.225	29.11
839.398	29.24
839.57	30.25
839.743	30.23
839.916	29.92
840.088	31.45
840.261	30.9
840.434	32.02
840.607	29.88
840.779	30.81
840.952	29.36
841.124	29.31
841.297	28.07
841.47	27.83
841.642	28.36
841.815	28.13
841.987	26.53
842.16	27.35
842.332	27.44
842.505	28.12
842.677	28.73
842.85	30.01
843.022	30.57
843.194	32.27
843.367	32.49
843.539	32.05
843.712	31.77
843.884	32.33
844.056	30.86
844.229	28.69
844.401	26.46
844.573	26.25
844.745	24.01
844.918	23.26
845.09	21.36
845.262	21.63
845.434	21.04
845.606	19.46
845.779	22.84
845.951	23.87
846.123	28.03
846.295	31.14
846.467	30.08
846.639	34.01
846.811	34.38
846.983	36.93
847.155	36.49
847.327	35.65
847.499	38.63
847.671	34.25
847.843	34.58
848.015	33
848.187	31.91
848.359	33.43
848.531	32.45
848.703	31.95
848.875	25.54
849.047	25.1
849.218	27.08
849.39	27.56
849.562	26.45
849.734	28.2
849.905	22.83
850.077	24.18
850.249	21.92
850.421	20.29
850.592	20.2
850.764	24.37
850.936	25.61
851.107	25.71
851.279	28.32
851.451	30.91
851.622	26.68
851.794	30.83
851.965	31.29
852.137	32.19
852.308	31.27
852.48	32.09
852.651	36.03
852.823	34.9
852.994	36.34
853.166	36.7
853.337	33.97
853.509	38.54
853.68	40.24
853.851	39.54
854.023	37.07
854.194	38.2
854.365	38.47
854.537	35.28
854.708	34.78
854.879	32.76
855.05	29.58
855.222	31.59
855.393	29.62
855.564	26.87
855.735	26.4
855.906	31.19
856.078	32.3
856.249	26.98
856.42	26.91
856.591	28.63
856.762	28.39
856.933	26.55
857.104	26.1
857.275	25.7
857.446	23.74
857.617	22.27
857.788	20.71
857.959	21.17
858.13	27.05
858.301	24.79
858.472	20.39
858.643	18.73
858.814	18.87
858.985	17.92
859.155	17.7
859.326	21.93
859.497	23.57
859.668	22.11
859.839	20.23
860.009	19.37
860.18	19.94
860.351	25.43
860.522	27.66
860.692	24.51
860.863	24.56
861.034	26.02
861.204	22.28
861.375	22.63
861.546	23.54
861.716	24.97
861.887	22.71
862.057	26.24
862.228	21.66
862.398	20.09
862.569	23.22
862.739	23.82
862.91	23.51
863.08	25.86
863.251	23.05
863.421	20.56
863.592	16.44
863.762	18.65
863.932	15.84
864.103	17.2
864.273	21.32
864.443	24.14
864.614	23.96
864.784	21.81
864.954	19.63
865.125	21.41
865.295	23.51
865.465	26.57
865.635	26.75
865.805	28.17
865.976	29.76
866.146	27.14
866.316	20.6
866.486	19.35
866.656	18.23
866.826	19.06
866.996	20.2
867.166	22.02
867.336	14.52
867.506	17.24
867.676	17.97
867.846	14.37
868.016	15.34
868.186	20.4
868.356	23.96
868.526	24.04
868.696	25.77
868.866	23.78
869.036	22.92
869.206	32.61
869.376	32.02
869.545	34.15
869.715	37.02
869.885	36.82
870.055	39.83
870.224	35.78
870.394	35.43
870.564	32.04
870.734	29.28
870.903	29.92
871.073	28.51
871.243	23.7
871.412	17.95
871.582	21.14
871.751	19.5
871.921	13.4
872.091	15.37
872.26	16.86
872.43	21.54
872.599	23.82
872.769	23.8
872.938	23.66
873.108	27.46
873.277	29.9
873.446	27.02
873.616	27.48
873.785	30.08
873.955	30.44
874.124	31.04
874.293	30.09
874.463	30.16
874.632	26.64
874.801	25.48
874.971	20.42
875.14	18.14
875.309	19.97
875.478	18.74
875.647	17.24
875.817	18.09
875.986	16.57
876.155	14.08
876.324	18.91
876.493	22.56
876.662	20.43
876.831	24.45
877	28.03
877.17	27.45
877.339	32.35
877.508	33.24
877.677	33.93
877.846	35.37
878.015	36.76
878.184	30.3
878.352	30.2
878.521	30.62
878.69	30.87
878.859	29.95
879.028	29.19
879.197	27.64
879.366	26.07
879.534	21.87
879.703	21.44
879.872	23.86
880.041	26.58
880.21	25.1
880.378	25.23
880.547	24.62
880.716	24.84
880.884	24.28
881.053	24.44
881.222	25.5
881.39	25.57
881.559	25.15
881.727	24.18
881.896	23.65
882.065	24.59
882.233	24.8
882.402	24.96
882.57	24.87
882.739	25.29
882.907	25.22
883.076	24.64
883.244	24.87
883.412	24.52
883.581	25.02
883.749	24.97
883.918	24.83
884.086	24.6
884.254	24.34
884.423	23.86
884.591	23.33
884.759	23.46
884.927	24.11
885.096	24.08
885.264	24.44
885.432	25.15
885.6	24.95
885.769	23.71
885.937	24.31
886.105	25.38
886.273	26.46
886.441	27.55
886.609	29.16
886.777	29.53
886.945	29.35
887.113	29.92
887.281	26.05
887.449	27.25
887.617	29.63
887.785	27.13
887.953	27.86
888.121	24.84
888.289	22.85
888.457	18.09
888.625	15.56
888.793	17.17
888.961	18.06
889.129	20.07
889.296	20.21
889.464	16.56
889.632	18.95
889.8	13.48
889.967	16.81
890.135	19.67
