Data from 2938813__Reflection_03.txt Node
Date: Thu Mar 12 16:17:36 EDT 2015
User: robert
Spectrometer: USB4E03002
Autoset integration time: false
Trigger mode: 4
Integration Time (sec): 1.000000E-1
Scans to average: 10
Electric dark correction enabled: false
Nonlinearity correction enabled: false
Boxcar width: 5
Stray light correction enabled: false
XAxis mode: Wavelengths
Stop averaging: false
Number of Pixels in Spectrum: 3648
>>>>>Begin Spectral Data<<<<<
177.575	-2821.43
177.794	-2050.77
178.014	-1287.9
178.233	-5977.42
178.452	2852.56
178.672	-7780.65
178.891	-1305.76
179.11	-1371.5
179.33	-1668.67
179.549	-1922.3
179.768	-13331.82
179.987	-10732.14
180.207	-1906.06
180.426	5196.88
180.645	-3459.79
180.864	-2854.24
181.084	5462.5
181.303	2003.43
181.522	11043.75
181.741	0
181.96	88350
182.179	-13533.33
182.398	-7448
182.618	3852.63
182.837	-4751.35
183.056	-5838.98
183.275	-5655.74
183.494	-10963.64
183.713	6031.15
183.932	2474.48
184.151	2285.23
184.37	912.83
184.589	818.6
184.808	663.79
185.027	497.49
185.246	543.94
185.465	435.41
185.684	472.14
185.903	500.46
186.122	632.94
186.341	648.01
186.56	609.06
186.779	710.63
186.998	1006.07
187.216	934.83
187.435	1580.18
187.654	1243.69
187.873	1796.46
188.092	1520.25
188.311	1086.83
188.53	835.19
188.748	724.46
188.967	782.18
189.186	1523.56
189.405	809.43
189.623	832.94
189.842	902.99
190.061	882.49
190.28	934.08
190.498	966.86
190.717	2031.33
190.936	2779.17
191.154	1872.07
191.373	1713.5
191.592	2971.79
191.81	-111566.67
192.029	-2400.74
192.248	-1363.49
192.466	-955.59
192.685	-1355.36
192.904	-1087.13
193.122	-863.21
193.341	-991.32
193.559	-990.85
193.778	-856.88
193.996	-4444.62
194.215	7926.32
194.433	1047.17
194.652	642.41
194.87	592.38
195.089	791.65
195.307	911.6
195.526	686.82
195.744	643.92
195.963	592.01
196.181	621.38
196.399	666.24
196.618	674.1
196.836	887.77
197.055	1398.28
197.273	1028.89
197.491	744.47
197.71	494.66
197.928	516.33
198.146	549.77
198.365	909.67
198.583	969.03
198.801	1084.02
199.019	1321.28
199.238	974.81
199.456	732.83
199.674	933.41
199.892	1117.63
200.111	1319.32
200.329	1076.73
200.547	836.09
200.765	706.42
200.983	713.55
201.202	654.1
201.42	571.36
201.638	691.48
201.856	762.79
202.074	600.82
202.292	522.87
202.51	1015.76
202.728	1109.52
202.946	1510.62
203.165	1023.7
203.383	1033.23
203.601	1067.85
203.819	1612.56
204.037	1242.75
204.255	959.6
204.473	1171.05
204.691	4342.42
204.909	908.23
205.127	1026.86
205.345	708.67
205.562	451.4
205.78	474.74
205.998	424.57
206.216	384.43
206.434	379.08
206.652	389.54
206.87	387.65
207.088	395.89
207.306	349.95
207.523	322.08
207.741	328.07
207.959	533.77
208.177	510.28
208.395	499.08
208.612	477.12
208.83	550.42
209.048	650.42
209.266	673.45
209.483	443.81
209.701	455.71
209.919	511.68
210.136	675.09
210.354	521.88
210.572	447.53
210.79	445.54
211.007	499.34
211.225	435.73
211.442	356.78
211.66	316.32
211.878	331.49
212.095	308.44
212.313	295.54
212.53	290.8
212.748	265.6
212.966	272.04
213.183	262.94
213.401	267.61
213.618	285.49
213.836	301.03
214.053	310.71
214.271	357.93
214.488	413.84
214.705	401.66
214.923	343.08
215.14	349.07
215.358	352.42
215.575	393.6
215.793	325.71
216.01	298.38
216.227	294.11
216.445	308.22
216.662	272.86
216.879	258.12
217.097	254.83
217.314	267.3
217.531	285.65
217.749	294.61
217.966	264.24
218.183	281.19
218.4	288.32
218.618	295.91
218.835	276.23
219.052	263.17
219.269	260.29
219.487	252.26
219.704	254.12
219.921	250.55
220.138	233.57
220.355	229.2
220.572	206.73
220.79	199.61
221.007	186.25
221.224	184.63
221.441	199.55
221.658	202.39
221.875	186.75
222.092	164.76
222.309	158.06
222.526	159.98
222.743	166.57
222.96	166.98
223.177	160.29
223.394	151.39
223.611	145.39
223.828	137.71
224.045	133.5
224.262	136.22
224.479	131.66
224.696	126.28
224.913	117.02
225.13	109.72
225.347	104.85
225.564	100.52
225.781	94.63
225.997	88.46
226.214	77.96
226.431	69.8
226.648	62.91
226.865	56.46
227.082	48.81
227.298	42.75
227.515	38.57
227.732	35.09
227.949	31.83
228.165	29.13
228.382	27.54
228.599	26.15
228.816	24.52
229.032	22.73
229.249	22.5
229.466	22.19
229.682	22.62
229.899	23.01
230.116	22.61
230.332	22.66
230.549	24.07
230.765	25.41
230.982	27.12
231.199	29.7
231.415	32.82
231.632	33.61
231.848	34.94
232.065	36
232.281	38.14
232.498	39.68
232.714	40.19
232.931	40.62
233.147	39.54
233.364	38.53
233.58	38.08
233.797	36.98
234.013	36.85
234.23	36.74
234.446	36.71
234.662	35.27
234.879	35.69
235.095	35.05
235.312	34.34
235.528	36.74
235.744	37.46
235.961	38.1
236.177	38.99
236.393	39.2
236.61	38.8
236.826	38.33
237.042	38.36
237.258	38.31
237.475	38.85
237.691	39.71
237.907	37.27
238.123	37.98
238.339	36.81
238.556	35.75
238.772	34.77
238.988	35.82
239.204	34.07
239.42	32.98
239.636	32.67
239.853	31.88
240.069	30.05
240.285	29.09
240.501	26.59
240.717	25.67
240.933	24.19
241.149	22.8
241.365	20.59
241.581	20.01
241.797	19.55
242.013	17.74
242.229	16.52
242.445	15.57
242.661	15.57
242.877	15.39
243.093	14.89
243.309	15.7
243.525	15.95
243.741	17.36
243.957	17.49
244.173	17.48
244.388	19
244.604	19.55
244.82	20.07
245.036	19.53
245.252	18.95
245.468	17.88
245.683	16.15
245.899	15.21
246.115	14.06
246.331	13.08
246.547	12.46
246.762	11.88
246.978	11.9
247.194	11.71
247.409	11.4
247.625	11.29
247.841	11.36
248.057	11.34
248.272	11.32
248.488	11.69
248.703	12.32
248.919	12.81
249.135	13.57
249.35	13.84
249.566	14.94
249.782	15.29
249.997	16.63
250.213	16.79
250.428	17.4
250.644	17.7
250.859	16.88
251.075	17.29
251.29	17.34
251.506	17.14
251.721	17.36
251.937	17.47
252.152	17.69
252.368	16.45
252.583	17.55
252.798	17.86
253.014	18.69
253.229	19.33
253.445	19.9
253.66	21.52
253.875	21.54
254.091	21.66
254.306	21.69
254.521	23.05
254.737	24.47
254.952	23.85
255.167	24.31
255.383	23.92
255.598	23.77
255.813	23.03
256.028	21.13
256.244	21.26
256.459	21.08
256.674	20.81
256.889	19.39
257.104	18.04
257.32	17.67
257.535	16.61
257.75	15.93
257.965	15.72
258.18	15.1
258.395	14.23
258.61	13.44
258.826	12.33
259.041	11.44
259.256	11.19
259.471	11
259.686	10.57
259.901	10.34
260.116	10.11
260.331	9.53
260.546	9.48
260.761	9.63
260.976	9.85
261.191	10.54
261.406	10.87
261.621	11.06
261.836	11.33
262.05	11.79
262.265	12.83
262.48	13.49
262.695	14.11
262.91	14.76
263.125	15.11
263.34	14.99
263.555	14.95
263.769	15.33
263.984	15.35
264.199	15.92
264.414	15.92
264.629	15.88
264.843	15.93
265.058	16.9
265.273	16.65
265.488	16.39
265.702	15.97
265.917	15.69
266.132	15.78
266.346	15.29
266.561	15.24
266.776	15.15
266.99	14.28
267.205	14.57
267.42	14.12
267.634	13.9
267.849	13.74
268.063	13.6
268.278	13.18
268.492	12.77
268.707	13.39
268.922	12.74
269.136	12.52
269.351	12.65
269.565	11.59
269.78	11.44
269.994	11.15
270.209	11.3
270.423	11.42
270.637	11.75
270.852	11.37
271.066	11.11
271.281	11.01
271.495	11.01
271.709	10.84
271.924	11.07
272.138	10.86
272.353	10.77
272.567	10.55
272.781	10.95
272.996	11.11
273.21	11.08
273.424	11.06
273.638	11.37
273.853	11.69
274.067	11.85
274.281	12.24
274.495	12.49
274.71	12.61
274.924	12.44
275.138	11.69
275.352	11.54
275.566	12.28
275.781	12.44
275.995	12.35
276.209	12.86
276.423	12.62
276.637	12.52
276.851	12.43
277.065	12.7
277.279	13.35
277.493	14.08
277.707	13.88
277.921	13.49
278.135	13.39
278.349	13.4
278.563	13.13
278.777	13.8
278.991	13.88
279.205	14.21
279.419	13.74
279.633	13.68
279.847	13.54
280.061	13.77
280.275	13.32
280.489	12.59
280.703	12.89
280.917	12.61
281.131	11.82
281.344	11.62
281.558	11.24
281.772	11.23
281.986	11.07
282.2	10.75
282.414	10.2
282.627	10.41
282.841	10.56
283.055	10.23
283.269	10.03
283.482	10.39
283.696	9.86
283.91	9.8
284.123	9.6
284.337	9.35
284.551	9.22
284.764	9.15
284.978	9.12
285.192	9.17
285.405	8.96
285.619	8.64
285.833	8.55
286.046	8.52
286.26	8.54
286.473	8.71
286.687	8.9
286.9	8.99
287.114	9.32
287.327	9.43
287.541	9.45
287.754	9.85
287.968	10.47
288.181	10.16
288.395	10.43
288.608	10.52
288.822	10.47
289.035	10.2
289.248	10.24
289.462	10.2
289.675	10.07
289.889	10.29
290.102	10.18
290.315	10.25
290.529	10.32
290.742	10.2
290.955	10.11
291.169	10.13
291.382	10.71
291.595	10.98
291.808	10.96
292.022	11.12
292.235	10.8
292.448	10.84
292.661	10.5
292.875	10.83
293.088	11.09
293.301	11.34
293.514	11.33
293.727	10.66
293.94	10.54
294.153	10.69
294.367	10.84
294.58	10.9
294.793	10.62
295.006	10.48
295.219	10.27
295.432	10.19
295.645	9.9
295.858	9.7
296.071	9.8
296.284	9.56
296.497	9.43
296.71	9.01
296.923	8.89
297.136	8.8
297.349	8.83
297.562	8.75
297.775	8.95
297.988	8.97
298.201	9.05
298.414	8.95
298.626	9.21
298.839	9.06
299.052	9.57
299.265	9.76
299.478	10.21
299.691	10.26
299.903	10.49
300.116	10.39
300.329	10.69
300.542	10.98
300.755	11.34
300.967	11.05
301.18	11.35
301.393	10.96
301.605	11.07
301.818	11.1
302.031	11.04
302.243	11.21
302.456	11.68
302.669	11.57
302.881	11.6
303.094	11.4
303.307	11.45
303.519	11.52
303.732	11.74
303.944	11.83
304.157	11.89
304.37	12.08
304.582	12.23
304.795	11.87
305.007	11.99
305.22	11.83
305.432	12.13
305.645	12.5
305.857	12.74
306.069	13.18
306.282	13.39
306.494	13.34
306.707	13.59
306.919	13.51
307.132	13.75
307.344	13.72
307.556	13.83
307.769	13.79
307.981	13.24
308.193	13.01
308.406	12.68
308.618	12.35
308.83	12.09
309.043	11.85
309.255	11.66
309.467	11.31
309.679	11.36
309.892	11.27
310.104	10.83
310.316	10.95
310.528	10.76
310.74	10.66
310.953	10.97
311.165	11.05
311.377	10.88
311.589	10.8
311.801	10.93
312.013	10.68
312.225	10.99
312.437	11.45
312.649	11.93
312.862	12.29
313.074	12.53
313.286	12.5
313.498	12.73
313.71	12.87
313.922	13
314.134	13.1
314.346	13.27
314.558	13.24
314.77	13.17
314.982	13.01
315.193	13.04
315.405	13.14
315.617	12.89
315.829	12.97
316.041	13
316.253	13.13
316.465	13.18
316.677	13.35
316.888	13.33
317.1	13.66
317.312	13.56
317.524	13.43
317.736	13.83
317.947	13.97
318.159	14.14
318.371	14.65
318.583	14.83
318.794	14.98
319.006	15.14
319.218	15.07
319.43	14.93
319.641	15.12
319.853	14.95
320.064	14.68
320.276	14.69
320.488	14.91
320.699	14.83
320.911	14.6
321.123	14.92
321.334	15.13
321.546	15.26
321.757	15.37
321.969	15.29
322.18	15.56
322.392	15.31
322.603	15.8
322.815	15.52
323.026	15.54
323.238	15.51
323.449	15.22
323.661	14.86
323.872	14.85
324.083	14.87
324.295	14.9
324.506	14.49
324.718	14.07
324.929	13.52
325.14	13.51
325.352	13.04
325.563	12.88
325.774	12.79
325.986	12.49
326.197	12.29
326.408	11.69
326.62	11.4
326.831	11.84
327.042	12.18
327.253	12.26
327.464	12.03
327.676	12.51
327.887	13.18
328.098	13.28
328.309	13.83
328.52	14.32
328.732	14.95
328.943	15.04
329.154	14.97
329.365	15.04
329.576	15.02
329.787	15.09
329.998	14.94
330.209	14.55
330.42	14.34
330.631	14.14
330.842	14.1
331.053	14.18
331.264	14.14
331.475	14.08
331.686	14.03
331.897	14.41
332.108	14.33
332.319	14.03
332.53	13.83
332.741	13.74
332.952	13.81
333.163	13.6
333.374	13.32
333.585	13.12
333.795	13.32
334.006	13.16
334.217	13.2
334.428	13.34
334.639	13.36
334.849	13.61
335.06	13.82
335.271	13.84
335.482	14.07
335.692	14.4
335.903	14.79
336.114	14.47
336.325	14.52
336.535	14.39
336.746	14.44
336.957	14.41
337.167	14.39
337.378	14.47
337.589	14.48
337.799	14.23
338.01	13.92
338.22	13.8
338.431	14.29
338.642	14.4
338.852	13.94
339.063	13.79
339.273	13.77
339.484	13.73
339.694	13.42
339.905	13.29
340.115	13.23
340.326	13.29
340.536	13.42
340.746	13.13
340.957	13.12
341.167	13.67
341.378	14.03
341.588	14.11
341.799	13.8
342.009	13.99
342.219	14.02
342.43	14.14
342.64	13.72
342.85	13.53
343.061	12.98
343.271	13.01
343.481	12.55
343.691	11.95
343.902	11.63
344.112	11.73
344.322	11.5
344.532	11.71
344.743	11.39
344.953	11.74
345.163	11.68
345.373	12
345.583	11.87
345.793	12.09
346.004	12.35
346.214	12.82
346.424	13.1
346.634	13.2
346.844	13.01
347.054	13.14
347.264	13.02
347.474	13.24
347.684	13.61
347.894	13.55
348.104	13.29
348.314	13.25
348.524	12.99
348.734	12.87
348.944	12.53
349.154	12.04
349.364	12.3
349.574	12.43
349.784	12.36
349.994	11.89
350.204	11.91
350.413	12.15
350.623	12.19
350.833	12.22
351.043	11.93
351.253	12.05
351.463	12.53
351.672	11.92
351.882	11.71
352.092	11.55
352.302	11.51
352.511	11.69
352.721	11.71
352.931	11.66
353.141	11.6
353.35	11.8
353.56	11.81
353.77	11.81
353.979	11.86
354.189	11.86
354.399	11.99
354.608	12.05
354.818	11.84
355.027	11.41
355.237	11.36
355.447	11.43
355.656	11.2
355.866	11.21
356.075	11.12
356.285	11.24
356.494	11.07
356.704	10.7
356.913	10.54
357.123	10.37
357.332	10.6
357.542	10.62
357.751	10.46
357.96	10.58
358.17	10.48
358.379	10.32
358.589	10.28
358.798	10.48
359.007	10.66
359.217	10.76
359.426	10.85
359.635	10.96
359.845	10.6
360.054	10.39
360.263	10.2
360.472	10.16
360.682	9.97
360.891	9.84
361.1	9.61
361.309	9.31
361.519	9.13
361.728	9.13
361.937	8.92
362.146	8.95
362.355	9.08
362.564	9.14
362.774	9.18
362.983	9.21
363.192	9.11
363.401	9.11
363.61	9.23
363.819	9.6
364.028	9.62
364.237	9.5
364.446	9.65
364.655	9.61
364.864	9.62
365.073	9.68
365.282	9.97
365.491	9.86
365.7	10
365.909	10.33
366.118	10.12
366.327	10.31
366.536	10.29
366.745	10.25
366.954	10.25
367.162	10.1
367.371	10.16
367.58	10.15
367.789	10.22
367.998	10
368.207	10.05
368.415	9.97
368.624	10.02
368.833	10.23
369.042	10.32
369.25	10.54
369.459	10.64
369.668	10.44
369.877	10.26
370.085	10.46
370.294	10.49
370.503	10.18
370.711	10.05
370.92	9.99
371.129	10.18
371.337	9.81
371.546	9.65
371.754	9.81
371.963	9.82
372.171	9.59
372.38	9.53
372.589	9.59
372.797	9.78
373.006	9.72
373.214	9.36
373.423	9.08
373.631	9.35
373.84	9.18
374.048	9
374.256	8.88
374.465	8.94
374.673	8.87
374.882	9.13
375.09	9.24
375.298	9.19
375.507	9.32
375.715	9.28
375.923	9.05
376.132	9.09
376.34	9.24
376.548	9.1
376.757	9.25
376.965	9.41
377.173	8.96
377.381	8.85
377.59	9.16
377.798	9.01
378.006	8.8
378.214	8.99
378.423	8.99
378.631	8.97
378.839	8.95
379.047	8.85
379.255	8.82
379.463	9.02
379.671	8.88
379.879	8.69
380.088	8.68
380.296	8.88
380.504	8.96
380.712	9.03
380.92	8.82
381.128	8.9
381.336	8.91
381.544	8.87
381.752	8.79
381.96	8.57
382.168	8.66
382.376	8.79
382.584	8.81
382.791	8.69
382.999	8.39
383.207	8.64
383.415	9.13
383.623	8.97
383.831	8.74
384.039	8.97
384.247	9.03
384.454	9.03
384.662	8.84
384.87	8.87
385.078	8.79
385.285	9.06
385.493	8.61
385.701	8.29
385.909	8.66
386.116	8.79
386.324	8.42
386.532	8.41
386.739	8.31
386.947	8.45
387.155	8.42
387.362	8.44
387.57	8.36
387.778	8.34
387.985	8.19
388.193	8.02
388.4	7.98
388.608	8.29
388.816	8.18
389.023	8.12
389.231	7.93
389.438	7.77
389.646	7.87
389.853	7.79
390.061	7.94
390.268	7.86
390.475	7.59
390.683	7.45
390.89	7.13
391.098	7.3
391.305	7.2
391.512	7.13
391.72	7.15
391.927	6.78
392.135	6.76
392.342	6.68
392.549	6.83
392.756	6.86
392.964	6.84
393.171	7.03
393.378	6.81
393.586	6.88
393.793	6.98
394	6.98
394.207	7.14
394.414	7.12
394.622	7.07
394.829	7.15
395.036	7.22
395.243	7.28
395.45	7.28
395.657	7.31
395.864	7.4
396.072	7.3
396.279	7.31
396.486	7.34
396.693	7.43
396.9	7.43
397.107	7.1
397.314	7.2
397.521	7.26
397.728	7.1
397.935	7.28
398.142	7.2
398.349	7.26
398.556	7.17
398.763	7.35
398.97	7.33
399.177	7.42
399.383	7.53
399.59	7.55
399.797	7.57
400.004	7.67
400.211	7.68
400.418	7.66
400.625	7.78
400.831	7.99
401.038	7.97
401.245	7.97
401.452	8.05
401.658	8.07
401.865	7.79
402.072	7.86
402.279	7.93
402.485	7.99
402.692	7.91
402.899	7.82
403.105	7.67
403.312	7.5
403.519	7.51
403.725	7.44
403.932	7.4
404.138	7.45
404.345	7.2
404.552	6.94
404.758	6.72
404.965	6.86
405.171	6.73
405.378	6.69
405.584	6.83
405.791	6.71
405.997	6.61
406.204	6.64
406.41	6.63
406.617	6.67
406.823	6.88
407.029	6.99
407.236	6.94
407.442	6.96
407.649	6.9
407.855	6.75
408.061	6.9
408.268	7.08
408.474	7.24
408.68	7.3
408.887	7.3
409.093	7.48
409.299	7.25
409.505	7.15
409.712	7.17
409.918	7.29
410.124	7.31
410.33	7.22
410.537	7.3
410.743	7.09
410.949	7.05
411.155	7.08
411.361	6.84
411.567	7.07
411.773	7.08
411.98	7.05
412.186	7.18
412.392	7.12
412.598	7.12
412.804	6.9
413.01	6.85
413.216	6.92
413.422	6.95
413.628	6.95
413.834	6.89
414.04	6.82
414.246	6.74
414.452	6.59
414.658	6.59
414.864	6.55
415.07	6.53
415.275	6.55
415.481	6.49
415.687	6.49
415.893	6.37
416.099	6.27
416.305	6.21
416.511	6.22
416.716	6.22
416.922	6.23
417.128	6.16
417.334	6.03
417.539	5.94
417.745	5.94
417.951	5.8
418.157	5.79
418.362	5.68
418.568	5.61
418.774	5.56
418.979	5.46
419.185	5.32
419.391	5.23
419.596	5.21
419.802	5.1
420.008	5.03
420.213	5.09
420.419	5.02
420.624	4.98
420.83	5.06
421.035	5.02
421.241	5.01
421.446	5.04
421.652	5.03
421.857	5.02
422.063	5.15
422.268	5.16
422.474	5.06
422.679	5.09
422.885	5.18
423.09	5.12
423.295	5.12
423.501	5.09
423.706	5.08
423.911	5.07
424.117	5.18
424.322	5.08
424.527	5.06
424.733	5.09
424.938	5.14
425.143	5.08
425.349	5.13
425.554	5.07
425.759	5.14
425.964	5.23
426.169	5.36
426.375	5.36
426.58	5.32
426.785	5.4
426.99	5.52
427.195	5.49
427.4	5.51
427.605	5.61
427.811	5.92
428.016	5.93
428.221	5.88
428.426	5.85
428.631	5.86
428.836	5.89
429.041	5.9
429.246	5.87
429.451	5.87
429.656	5.89
429.861	5.72
430.066	5.63
430.271	5.62
430.476	5.55
430.681	5.58
430.886	5.53
431.09	5.66
431.295	5.66
431.5	5.63
431.705	5.72
431.91	5.68
432.115	5.8
432.32	5.77
432.524	5.72
432.729	5.72
432.934	5.77
433.139	5.62
433.343	5.49
433.548	5.43
433.753	5.44
433.958	5.44
434.162	5.43
434.367	5.28
434.572	5.24
434.776	5.21
434.981	5.24
435.186	5.1
435.39	5.27
435.595	5.46
435.799	5.51
436.004	5.58
436.209	5.59
436.413	5.67
436.618	5.78
436.822	5.73
437.027	5.63
437.231	5.56
437.436	5.58
437.64	5.54
437.845	5.46
438.049	5.42
438.253	5.31
438.458	5.2
438.662	5.17
438.867	5.18
439.071	5.19
439.275	5.24
439.48	5.23
439.684	5.19
439.888	5.13
440.093	5.14
440.297	5.14
440.501	5.17
440.706	5.2
440.91	5.17
441.114	5.01
441.318	5.06
441.523	5.06
441.727	5.16
441.931	5.21
442.135	5.21
442.339	5.15
442.543	5.18
442.748	5.17
442.952	5.19
443.156	5.17
443.36	5.44
443.564	5.45
443.768	5.41
443.972	5.42
444.176	5.43
444.38	5.4
444.584	5.44
444.788	5.39
444.992	5.37
445.196	5.27
445.4	5.21
445.604	5.04
445.808	4.97
446.012	4.96
446.216	4.87
446.42	4.78
446.624	4.81
446.828	4.75
447.032	4.7
447.235	4.65
447.439	4.6
447.643	4.58
447.847	4.64
448.051	4.64
448.254	4.7
448.458	4.72
448.662	4.8
448.866	4.79
449.069	4.9
449.273	5.02
449.477	5.13
449.681	5.31
449.884	5.39
450.088	5.44
450.292	5.47
450.495	5.5
450.699	5.62
450.902	5.56
451.106	5.56
451.31	5.5
451.513	5.46
451.717	5.36
451.92	5.31
452.124	5.4
452.327	5.29
452.531	5.21
452.734	5.22
452.938	5.07
453.141	5.11
453.345	5.09
453.548	5.12
453.752	5.13
453.955	5.35
454.158	5.3
454.362	5.25
454.565	5.41
454.769	5.52
454.972	5.42
455.175	5.54
455.379	5.52
455.582	5.64
455.785	5.5
455.988	5.45
456.192	5.22
456.395	5.29
456.598	5.3
456.801	5.23
457.005	5.18
457.208	5.31
457.411	5.23
457.614	5.13
457.817	5.09
458.021	5.05
458.224	5.09
458.427	5.09
458.63	5.11
458.833	5.12
459.036	5.09
459.239	5.04
459.442	4.94
459.645	4.9
459.848	4.95
460.051	5
460.254	5.07
460.457	5.01
460.66	5.05
460.863	5.03
461.066	4.98
461.269	5.04
461.472	5.16
461.675	5.21
461.878	5.34
462.081	5.42
462.284	5.29
462.486	5.38
462.689	5.43
462.892	5.45
463.095	5.44
463.298	5.47
463.5	5.4
463.703	5.42
463.906	5.46
464.109	5.45
464.311	5.54
464.514	5.55
464.717	5.64
464.92	5.65
465.122	5.68
465.325	5.72
465.528	5.64
465.73	5.75
465.933	5.66
466.135	5.65
466.338	5.7
466.541	5.66
466.743	5.62
466.946	5.45
467.148	5.45
467.351	5.47
467.553	5.35
467.756	5.46
467.958	5.3
468.161	5.29
468.363	5.23
468.566	5.07
468.768	5.03
468.971	5.06
469.173	5.07
469.375	5.11
469.578	5
469.78	5.11
469.983	5.1
470.185	5.24
470.387	5.29
470.59	5.22
470.792	5.33
470.994	5.43
471.196	5.44
471.399	5.52
471.601	5.49
471.803	5.59
472.005	5.64
472.208	5.58
472.41	5.54
472.612	5.45
472.814	5.57
473.016	5.59
473.218	5.52
473.421	5.62
473.623	5.55
473.825	5.45
474.027	5.35
474.229	5.35
474.431	5.42
474.633	5.41
474.835	5.38
475.037	5.44
475.239	5.44
475.441	5.49
475.643	5.49
475.845	5.51
476.047	5.59
476.249	5.67
476.451	5.7
476.653	5.67
476.855	5.58
477.057	5.65
477.258	5.54
477.46	5.46
477.662	5.4
477.864	5.39
478.066	5.28
478.268	5.24
478.469	5.15
478.671	5.07
478.873	5.08
479.075	5.1
479.276	5.1
479.478	5.13
479.68	5.17
479.882	5.03
480.083	4.87
480.285	4.9
480.487	4.89
480.688	4.87
480.89	4.77
481.091	4.74
481.293	4.67
481.495	4.6
481.696	4.49
481.898	4.36
482.099	4.31
482.301	4.25
482.502	4.16
482.704	4.07
482.905	4.02
483.107	3.97
483.308	3.91
483.51	3.92
483.711	3.88
483.913	3.83
484.114	3.81
484.315	3.8
484.517	3.83
484.718	3.86
484.92	3.89
485.121	3.91
485.322	3.96
485.524	3.99
485.725	3.95
485.926	3.97
486.127	4.03
486.329	4.05
486.53	4.05
486.731	4.03
486.932	4.02
487.134	4.01
487.335	3.98
487.536	3.95
487.737	3.91
487.938	3.93
488.139	3.94
488.341	3.98
488.542	4.01
488.743	4.04
488.944	4.06
489.145	4.07
489.346	4.07
489.547	4.13
489.748	4.15
489.949	4.2
490.15	4.19
490.351	4.16
490.552	4.14
490.753	4.13
490.954	4.11
491.155	4.12
491.356	4.16
491.557	4.19
491.758	4.19
491.959	4.22
492.159	4.25
492.36	4.32
492.561	4.38
492.762	4.45
492.963	4.5
493.164	4.54
493.364	4.57
493.565	4.64
493.766	4.69
493.967	4.79
494.167	4.87
494.368	4.88
494.569	4.85
494.769	4.84
494.97	4.8
495.171	4.9
495.371	5.03
495.572	5.1
495.773	5
495.973	5.03
496.174	4.98
496.375	4.96
496.575	4.94
496.776	4.87
496.976	4.9
497.177	4.95
497.377	4.91
497.578	4.9
497.778	4.85
497.979	4.88
498.179	4.96
498.38	4.93
498.58	4.98
498.78	5.06
498.981	5.2
499.181	5.27
499.382	5.31
499.582	5.28
499.782	5.26
499.983	5.33
500.183	5.42
500.383	5.38
500.584	5.43
500.784	5.44
500.984	5.47
501.184	5.41
501.385	5.51
501.585	5.46
501.785	5.49
501.985	5.6
502.185	5.61
502.386	5.56
502.586	5.55
502.786	5.49
502.986	5.49
503.186	5.6
503.386	5.73
503.586	5.66
503.786	5.66
503.987	5.68
504.187	5.62
504.387	5.64
504.587	5.75
504.787	5.71
504.987	5.76
505.187	5.71
505.387	5.62
505.587	5.6
505.786	5.55
505.986	5.62
506.186	5.63
506.386	5.61
506.586	5.61
506.786	5.61
506.986	5.68
507.186	5.7
507.386	5.75
507.585	5.79
507.785	5.79
507.985	5.85
508.185	5.83
508.384	5.82
508.584	5.86
508.784	5.87
508.984	5.8
509.183	5.83
509.383	5.86
509.583	5.86
509.782	5.75
509.982	5.75
510.182	5.75
510.381	5.71
510.581	5.77
510.781	5.79
510.98	5.77
511.18	5.76
511.379	5.72
511.579	5.77
511.778	5.87
511.978	6.01
512.177	6.04
512.377	6.09
512.576	6.11
512.776	6.09
512.975	6.06
513.175	6.17
513.374	6.23
513.573	6.43
513.773	6.45
513.972	6.46
514.172	6.44
514.371	6.43
514.57	6.46
514.77	6.49
514.969	6.63
515.168	6.72
515.367	6.67
515.567	6.74
515.766	6.67
515.965	6.68
516.164	6.56
516.364	6.57
516.563	6.59
516.762	6.6
516.961	6.66
517.16	6.53
517.359	6.46
517.559	6.5
517.758	6.46
517.957	6.51
518.156	6.53
518.355	6.59
518.554	6.64
518.753	6.63
518.952	6.61
519.151	6.65
519.35	6.74
519.549	6.79
519.748	6.79
519.947	6.88
520.146	6.84
520.345	6.78
520.544	6.93
520.743	6.9
520.942	7.03
521.141	7.08
521.339	7.13
521.538	7.15
521.737	7.18
521.936	7.26
522.135	7.25
522.333	7.34
522.532	7.44
522.731	7.45
522.93	7.51
523.129	7.54
523.327	7.56
523.526	7.55
523.725	7.64
523.923	7.69
524.122	7.72
524.321	7.75
524.519	7.73
524.718	7.7
524.917	7.6
525.115	7.56
525.314	7.51
525.512	7.46
525.711	7.46
525.909	7.41
526.108	7.4
526.306	7.36
526.505	7.27
526.703	7.24
526.902	7.23
527.1	7.24
527.299	7.24
527.497	7.27
527.696	7.24
527.894	7.22
528.092	7.24
528.291	7.2
528.489	7.21
528.688	7.24
528.886	7.23
529.084	7.3
529.283	7.31
529.481	7.34
529.679	7.36
529.877	7.45
530.076	7.52
530.274	7.54
530.472	7.64
530.67	7.73
530.869	7.81
531.067	7.92
531.265	7.91
531.463	7.97
531.661	7.99
531.859	7.99
532.057	7.99
532.255	7.93
532.454	7.94
532.652	7.96
532.85	7.99
533.048	7.99
533.246	8.01
533.444	8.01
533.642	8.05
533.84	8.07
534.038	8.16
534.236	8.23
534.434	8.31
534.632	8.37
534.83	8.42
535.027	8.45
535.225	8.53
535.423	8.54
535.621	8.57
535.819	8.63
536.017	8.71
536.215	8.68
536.412	8.67
536.61	8.72
536.808	8.8
537.006	8.8
537.203	8.79
537.401	8.85
537.599	8.93
537.797	9.09
537.994	9.1
538.192	9.17
538.39	9.28
538.587	9.41
538.785	9.47
538.983	9.41
539.18	9.51
539.378	9.55
539.575	9.56
539.773	9.58
539.97	9.51
540.168	9.59
540.366	9.56
540.563	9.54
540.761	9.49
540.958	9.51
541.155	9.56
541.353	9.58
541.55	9.61
541.748	9.58
541.945	9.6
542.143	9.67
542.34	9.67
542.537	9.73
542.735	9.78
542.932	9.89
543.129	9.92
543.327	9.98
543.524	10.05
543.721	10.11
543.919	10.28
544.116	10.38
544.313	10.48
544.51	10.6
544.708	10.7
544.905	10.83
545.102	10.94
545.299	11.05
545.496	11.17
545.693	11.24
545.891	11.35
546.088	11.44
546.285	11.52
546.482	11.57
546.679	11.57
546.876	11.59
547.073	11.68
547.27	11.76
547.467	11.83
547.664	11.88
547.861	11.97
548.058	11.99
548.255	12.01
548.452	12.08
548.649	12.29
548.846	12.38
549.043	12.61
549.24	12.62
549.437	12.68
549.633	12.73
549.83	12.89
550.027	13.01
550.224	13.18
550.421	13.24
550.618	13.39
550.814	13.33
551.011	13.52
551.208	13.5
551.405	13.55
551.601	13.66
551.798	13.8
551.995	13.84
552.191	13.79
552.388	13.8
552.585	13.93
552.781	13.92
552.978	14.12
553.175	14.19
553.371	14.32
553.568	14.43
553.764	14.45
553.961	14.6
554.157	14.69
554.354	14.97
554.55	15.12
554.747	15.19
554.943	15.26
555.14	15.23
555.336	15.3
555.533	15.32
555.729	15.39
555.926	15.4
556.122	15.49
556.318	15.48
556.515	15.43
556.711	15.44
556.907	15.51
557.104	15.62
557.3	15.69
557.496	15.72
557.693	15.9
557.889	16.11
558.085	16.25
558.281	16.3
558.478	16.46
558.674	16.55
558.87	16.7
559.066	16.88
559.262	16.95
559.459	16.92
559.655	16.95
559.851	17.02
560.047	17.07
560.243	17.2
560.439	17.29
560.635	17.39
560.831	17.51
561.027	17.56
561.223	17.5
561.419	17.6
561.615	17.72
561.811	17.86
562.007	17.86
562.203	17.94
562.399	17.94
562.595	17.98
562.791	18.16
562.987	18.27
563.183	18.4
563.379	18.45
563.575	18.55
563.771	18.73
563.966	18.63
564.162	18.72
564.358	18.76
564.554	18.76
564.75	18.79
564.945	18.75
565.141	18.82
565.337	18.86
565.533	18.83
565.728	18.78
565.924	18.76
566.12	18.99
566.315	19.1
566.511	19.18
566.707	19.42
566.902	19.53
567.098	19.61
567.293	19.66
567.489	19.77
567.684	20.01
567.88	20.14
568.076	20.16
568.271	20.26
568.467	20.27
568.662	20.38
568.858	20.37
569.053	20.41
569.248	20.45
569.444	20.5
569.639	20.46
569.835	20.67
570.03	20.71
570.225	20.8
570.421	20.78
570.616	20.84
570.812	20.93
571.007	20.89
571.202	20.95
571.397	20.94
571.593	21.02
571.788	21.08
571.983	20.93
572.178	20.94
572.374	21.06
572.569	21.15
572.764	21.3
572.959	21.16
573.154	21.28
573.35	21.25
573.545	21.34
573.74	21.31
573.935	21.45
574.13	21.58
574.325	21.7
574.52	21.84
574.715	21.91
574.91	21.81
575.105	21.95
575.3	21.99
575.495	22.14
575.69	22.27
575.885	22.44
576.08	22.56
576.275	22.69
576.47	22.84
576.665	22.9
576.86	23.08
577.055	23.24
577.25	23.36
577.444	23.44
577.639	23.61
577.834	23.88
578.029	23.9
578.224	23.85
578.418	23.82
578.613	23.87
578.808	24.02
579.003	24.08
579.197	24.25
579.392	24.39
579.587	24.46
579.781	24.5
579.976	24.34
580.171	24.47
580.365	24.7
580.56	24.77
580.755	24.88
580.949	24.75
581.144	24.68
581.338	24.59
581.533	24.62
581.727	24.75
581.922	24.86
582.116	25.02
582.311	25
582.505	25.07
582.7	25.2
582.894	25.32
583.089	25.53
583.283	25.69
583.478	25.99
583.672	26.08
583.866	26.04
584.061	25.99
584.255	25.94
584.449	26.17
584.644	26.16
584.838	26.11
585.032	26.04
585.226	26.03
585.421	26
585.615	25.81
585.809	25.73
586.003	25.81
586.198	25.93
586.392	26
586.586	25.82
586.78	25.95
586.974	26.03
587.168	26.02
587.363	26.13
587.557	26.28
587.751	26.35
587.945	26.41
588.139	26.43
588.333	26.34
588.527	26.29
588.721	26.23
588.915	26.22
589.109	26.19
589.303	26.19
589.497	26.05
589.691	25.86
589.885	25.73
590.079	25.76
590.273	25.77
590.466	26.03
590.66	26.04
590.854	26.26
591.048	26.19
591.242	26.31
591.436	26.42
591.629	26.66
591.823	26.87
592.017	27.16
592.211	27.15
592.404	27.13
592.598	26.98
592.792	27.02
592.986	27
593.179	26.98
593.373	26.97
593.567	27.06
593.76	26.85
593.954	26.88
594.147	26.86
594.341	26.87
594.535	26.88
594.728	26.79
594.922	26.8
595.115	26.69
595.309	26.64
595.502	26.6
595.696	26.57
595.889	26.52
596.083	26.47
596.276	26.39
596.47	26.45
596.663	26.62
596.856	26.65
597.05	26.8
597.243	26.88
597.437	26.87
597.63	26.85
597.823	26.88
598.017	26.97
598.21	27.06
598.403	27.09
598.596	27.22
598.79	27.15
598.983	27.33
599.176	27.19
599.369	27.3
599.563	27.59
599.756	27.82
599.949	27.74
600.142	27.82
600.335	27.75
600.528	27.74
600.722	27.69
600.915	27.83
601.108	27.92
601.301	28.1
601.494	28.04
601.687	27.92
601.88	27.84
602.073	27.77
602.266	27.66
602.459	27.66
602.652	27.59
602.845	27.38
603.038	27.16
603.231	26.92
603.424	26.72
603.617	26.56
603.809	26.44
604.002	26.49
604.195	26.58
604.388	26.66
604.581	26.53
604.774	26.71
604.966	26.75
605.159	26.83
605.352	26.98
605.545	27.17
605.737	27.41
605.93	27.57
606.123	27.56
606.316	27.56
606.508	27.63
606.701	27.94
606.894	27.85
607.086	28.1
607.279	28.21
607.471	28.38
607.664	28.41
607.857	28.52
608.049	28.56
608.242	28.68
608.434	28.99
608.627	29.25
608.819	29.59
609.012	30.24
609.204	30.63
609.397	31.18
609.589	31.56
609.782	32.07
609.974	32.63
610.166	33.37
610.359	34.11
610.551	34.5
610.743	35.02
610.936	35.33
611.128	35.46
611.32	35.66
611.513	35.67
611.705	35.81
611.897	35.97
612.09	35.9
612.282	35.71
612.474	35.34
612.666	35.44
612.858	35.1
613.051	34.96
613.243	34.62
613.435	34.54
613.627	34.27
613.819	34.19
614.011	34
614.203	33.79
614.395	33.51
614.588	33.28
614.78	32.95
614.972	32.74
615.164	32.73
615.356	32.56
615.548	32.15
615.74	32.21
615.932	31.83
616.124	31.65
616.315	31.55
616.507	31.42
616.699	31.26
616.891	31.18
617.083	31.19
617.275	30.82
617.467	30.63
617.659	30.71
617.85	30.64
618.042	30.71
618.234	30.39
618.426	30.32
618.618	30.28
618.809	30.31
619.001	30.2
619.193	30.14
619.384	30.14
619.576	30.21
619.768	30.23
619.959	30.12
620.151	30.22
620.343	30.32
620.534	30.35
620.726	30.36
620.917	30.54
621.109	30.44
621.301	30.57
621.492	30.42
621.684	30.58
621.875	30.55
622.067	30.51
622.258	30.21
622.45	30.39
622.641	30.49
622.832	30.53
623.024	30.39
623.215	30.63
623.407	30.5
623.598	30.62
623.789	30.6
623.981	30.55
624.172	30.64
624.363	30.8
624.555	30.59
624.746	30.49
624.937	30.49
625.129	30.61
625.32	30.38
625.511	30.27
625.702	30.36
625.893	30.52
626.085	30.49
626.276	30.46
626.467	30.33
626.658	30.31
626.849	30.22
627.04	29.94
627.231	29.84
627.422	30.03
627.614	30.22
627.805	30.11
627.996	30.13
628.187	30.24
628.378	30.29
628.569	30.64
628.76	30.72
628.951	30.67
629.142	30.97
629.332	31.11
629.523	31.09
629.714	31.07
629.905	31.28
630.096	31.1
630.287	31.25
630.478	31.28
630.669	31.08
630.859	31.36
631.05	31.38
631.241	31.39
631.432	31.41
631.623	31.55
631.813	31.49
632.004	31.49
632.195	31.48
632.385	31.27
632.576	31.18
632.767	31.11
632.957	30.92
633.148	30.98
633.339	31.09
633.529	30.99
633.72	30.65
633.91	30.6
634.101	30.47
634.292	30.52
634.482	30.45
634.673	30.61
634.863	30.58
635.054	30.48
635.244	30.58
635.435	30.48
635.625	30.56
635.815	30.66
636.006	30.79
636.196	30.86
636.387	30.86
636.577	31
636.767	30.83
636.958	30.83
637.148	30.79
637.338	30.73
637.529	30.78
637.719	30.88
637.909	31.04
638.099	31.04
638.29	31.15
638.48	31.1
638.67	31.13
638.86	31.29
639.05	31.35
639.241	31.57
639.431	31.6
639.621	31.69
639.811	31.44
640.001	31.4
640.191	31.25
640.381	31.33
640.571	31.22
640.761	31.33
640.951	31.18
641.141	31.06
641.331	30.86
641.521	31.06
641.711	30.93
641.901	30.98
642.091	30.9
642.281	30.94
642.471	30.86
642.661	31.38
642.851	31.45
643.041	31.63
643.231	31.81
643.42	32.03
643.61	31.86
643.8	31.87
643.99	32.01
644.18	32.24
644.369	32.49
644.559	32.47
644.749	32.1
644.939	31.94
645.128	31.84
645.318	31.73
645.508	31.9
645.697	31.82
645.887	31.92
646.076	31.77
646.266	31.74
646.456	31.73
646.645	31.94
646.835	31.96
647.024	31.97
647.214	32.02
647.403	32.06
647.593	31.9
647.782	32.23
647.972	32.07
648.161	32.35
648.351	31.98
648.54	31.96
648.73	31.64
648.919	31.72
649.108	31.58
649.298	31.75
649.487	31.85
649.677	31.88
649.866	31.67
650.055	31.99
650.244	32
650.434	32.25
650.623	32.13
650.812	32.24
651.002	31.98
651.191	31.89
651.38	31.7
651.569	31.85
651.758	31.55
651.947	31.51
652.137	31.31
652.326	31.11
652.515	31.26
652.704	31.12
652.893	31.13
653.082	31.35
653.271	31.64
653.46	31.74
653.649	31.7
653.838	31.95
654.027	32.09
654.216	32.14
654.405	32.24
654.594	32.22
654.783	32.46
654.972	32.52
655.161	32.78
655.35	32.34
655.539	32.27
655.728	32.36
655.916	32.24
656.105	32.17
656.294	31.98
656.483	31.62
656.672	31.46
656.86	31.28
657.049	31.07
657.238	30.77
657.427	30.95
657.615	30.96
657.804	30.6
657.993	30.55
658.181	30.42
658.37	30.46
658.559	30.55
658.747	30.54
658.936	30.68
659.125	30.95
659.313	30.91
659.502	31.05
659.69	30.95
659.879	31.08
660.067	31.24
660.256	31.31
660.444	31.47
660.633	31.67
660.821	31.64
661.01	31.68
661.198	31.29
661.387	31.55
661.575	31.65
661.763	31.92
661.952	32.18
662.14	32.23
662.328	32.48
662.517	32.7
662.705	32.9
662.893	33.01
663.082	33.28
663.27	33.73
663.458	33.7
663.646	33.77
663.834	33.77
664.023	33.83
664.211	33.66
664.399	33.51
664.587	33.48
664.775	33.33
664.963	33.64
665.152	33.49
665.34	33.48
665.528	33.45
665.716	33.55
665.904	33.65
666.092	33.48
666.28	33.72
666.468	33.73
666.656	33.64
666.844	33.87
667.032	33.67
667.22	33.92
667.408	33.95
667.596	33.78
667.784	33.54
667.971	33.42
668.159	33.45
668.347	33.24
668.535	33.17
668.723	33.09
668.911	32.84
669.098	32.58
669.286	32.49
669.474	32.02
669.662	32.03
669.849	32.1
670.037	32.13
670.225	32.05
670.413	32.28
670.6	32.13
670.788	31.98
670.976	32.26
671.163	32.34
671.351	32.17
671.538	32.37
671.726	32.86
671.913	32.73
672.101	32.82
672.289	32.97
672.476	32.97
672.664	33.51
672.851	33.96
673.039	33.87
673.226	34.39
673.413	34.36
673.601	34.64
673.788	34.63
673.976	34.68
674.163	34.65
674.35	34.88
674.538	34.96
674.725	34.86
674.912	34.76
675.1	34.49
675.287	34.33
675.474	34.35
675.662	34.14
675.849	33.96
676.036	34.18
676.223	34.27
676.411	33.76
676.598	33.51
676.785	33.22
676.972	33.25
677.159	33.35
677.346	33.22
677.533	33.11
677.721	33.4
677.908	33.3
678.095	33.13
678.282	33.02
678.469	33.21
678.656	33.33
678.843	33.24
679.03	32.97
679.217	33.08
679.404	33.11
679.591	33.23
679.778	33.2
679.964	33.36
680.151	33.28
680.338	33.19
680.525	33.01
680.712	33.15
680.899	33.38
681.086	33.37
681.272	33.14
681.459	32.97
681.646	32.7
681.833	32.53
682.02	32.45
682.206	32.59
682.393	32.49
682.58	32.67
682.766	32.71
682.953	32.5
683.14	32.93
683.326	33.53
683.513	33.86
683.7	34.29
683.886	34.23
684.073	34.1
684.259	34.33
684.446	34.85
684.632	35.15
684.819	35.12
685.005	35.36
685.192	35.2
685.378	34.96
685.565	34.83
685.751	34.55
685.938	34.57
686.124	34.88
686.31	34.7
686.497	34.2
686.683	33.82
686.87	33.5
687.056	33.15
687.242	33.08
687.429	33.29
687.615	33.39
687.801	33.93
687.987	34.05
688.174	33.71
688.36	33.74
688.546	34.18
688.732	34.45
688.918	34.76
689.105	35.35
689.291	35.26
689.477	34.76
689.663	34.71
689.849	34.33
690.035	34.35
690.221	34.81
690.407	35.04
690.593	34.96
690.779	34.89
690.965	34.82
691.151	34.63
691.337	34.96
691.523	35.31
691.709	35.26
691.895	35.7
692.081	35.94
692.267	35.85
692.453	35.86
692.639	35.94
692.825	35.91
693.011	35.88
693.196	35.82
693.382	35.48
693.568	35
693.754	35.03
693.94	34.38
694.125	34.08
694.311	33.74
694.497	33.27
694.682	33.18
694.868	33.38
695.054	33.64
695.239	33.7
695.425	33.84
695.611	34.04
695.796	34.18
695.982	34.45
696.168	34.16
696.353	34.45
696.539	34.24
696.724	33.84
696.91	33.54
697.095	33.44
697.281	33.33
697.466	33.18
697.652	33.16
697.837	32.83
698.023	32.6
698.208	32.62
698.393	32.38
698.579	32.64
698.764	32.61
698.949	32.54
699.135	32.28
699.32	32.24
699.505	32.18
699.691	32.03
699.876	32.08
700.061	32.14
700.246	32.26
700.432	32.47
700.617	32.63
700.802	32.83
700.987	33.23
701.172	33.92
701.358	34.17
701.543	34.83
701.728	35.36
701.913	35.82
702.098	36.59
702.283	37.23
702.468	37.66
702.653	38.16
702.838	38.55
703.023	38.55
703.208	38.34
703.393	38.53
703.578	38.59
703.763	38.92
703.948	39.12
704.133	38.8
704.318	38.85
704.503	38.81
704.688	38.85
704.873	38.7
705.057	39.34
705.242	39.67
705.427	39.87
705.612	40.03
705.797	40.12
705.981	40.62
706.166	40.77
706.351	40.47
706.536	40.37
706.72	40.14
706.905	40.85
707.09	40.32
707.274	40.28
707.459	40.33
707.644	40.25
707.828	40.23
708.013	39.66
708.197	40.11
708.382	39.9
708.567	39.92
708.751	39.9
708.936	39.23
709.12	39.71
709.305	39.25
709.489	39.4
709.673	39.11
709.858	38.87
710.042	38.57
710.227	37.86
710.411	38.18
710.596	38.06
710.78	38.34
710.964	38.55
711.149	38.37
711.333	38.63
711.517	38.3
711.702	38.4
711.886	38.63
712.07	39.01
712.254	39.37
712.438	38.94
712.623	39.4
712.807	38.94
712.991	38.66
713.175	38.19
713.359	37.99
713.544	37.86
713.728	37.63
713.912	37.4
714.096	37.27
714.28	36.71
714.464	37.12
714.648	36.25
714.832	36.43
715.016	36.59
715.2	36.41
715.384	36.59
715.568	36.47
715.752	36.3
715.936	36.34
716.12	36.33
716.304	36.7
716.488	36.41
716.671	36.71
716.855	36.62
717.039	36.5
717.223	36.61
717.407	36.29
717.59	36.64
717.774	36.94
717.958	36.93
718.142	37.17
718.325	36.91
718.509	37.22
718.693	37.55
718.877	37.08
719.06	37.09
719.244	37.32
719.428	37.73
719.611	37.92
719.795	38.1
719.978	38.32
720.162	38.09
720.345	38.59
720.529	38.6
720.713	39.04
720.896	39.65
721.08	39.96
721.263	40.14
721.446	39.96
721.63	39.83
721.813	39.66
721.997	39.2
722.18	39.49
722.364	39.51
722.547	39.44
722.73	38.73
722.914	38.55
723.097	39.04
723.28	39.46
723.464	39.6
723.647	39.83
723.83	40.14
724.013	40.78
724.197	40.6
724.38	40.76
724.563	41.01
724.746	41.2
724.929	41.64
725.112	41.24
725.296	40.63
725.479	40.76
725.662	40.38
725.845	40.37
726.028	40.29
726.211	40.16
726.394	39.49
726.577	39.2
726.76	39.28
726.943	38.42
727.126	38.42
727.309	38.7
727.492	38.75
727.675	38.94
727.858	38.68
728.041	38.19
728.224	38.47
728.407	38.9
728.589	38.89
728.772	38.75
728.955	39
729.138	38.87
729.321	38.44
729.503	38.36
729.686	38.25
729.869	37.93
730.052	38.1
730.234	37.76
730.417	37.73
730.6	37.77
730.782	37.73
730.965	37.74
731.148	37.64
731.33	37.91
731.513	37.57
731.695	37.31
731.878	37.32
732.061	37.42
732.243	37.82
732.426	37.82
732.608	37.85
732.791	38.47
732.973	38.81
733.156	38.93
733.338	38.98
733.52	39.16
733.703	39.24
733.885	39.38
734.068	39.7
734.25	39.5
734.432	38.91
734.615	39.03
734.797	38.74
734.979	38.65
735.162	38.88
735.344	38.78
735.526	38.99
735.708	39.06
735.891	39.66
736.073	39.32
736.255	39.93
736.437	40.49
736.619	40.57
736.802	40.22
736.984	40.8
737.166	41.34
737.348	41.93
737.53	42.41
737.712	42.71
737.894	43.01
738.076	43.16
738.258	42.94
738.44	42.8
738.622	42.73
738.804	43.28
738.986	42.78
739.168	42.04
739.35	42.02
739.532	41.71
739.714	41.68
739.896	40.97
740.078	41.29
740.259	41.06
740.441	41.7
740.623	42.07
740.805	41.98
740.987	41.9
741.168	41.91
741.35	41.63
741.532	41.71
741.714	42
741.895	42.49
742.077	42.07
742.259	42.36
742.44	42.47
742.622	42.54
742.804	42.59
742.985	43.36
743.167	43.91
743.348	43.85
743.53	43.52
743.711	43.34
743.893	43.05
744.075	43.18
744.256	43.11
744.438	43.19
744.619	43.43
744.8	43.45
744.982	42.56
745.163	42.21
745.345	42.5
745.526	43.12
745.707	43.28
745.889	43.84
746.07	43.79
746.252	43.93
746.433	43.24
746.614	43.06
746.795	43.07
746.977	43.53
747.158	43.95
747.339	43.97
747.52	43.06
747.702	43.34
747.883	43.03
748.064	43.46
748.245	43.5
748.426	44
748.607	43.66
748.788	43.1
748.97	43.39
749.151	42.88
749.332	43.11
749.513	43.93
749.694	43.71
749.875	44.18
750.056	43.64
750.237	43.29
750.418	43.62
750.599	43.52
750.78	44.02
750.96	43.8
751.141	44
751.322	43.41
751.503	43.37
751.684	43.52
751.865	42.59
752.046	42.62
752.226	42.98
752.407	42.63
752.588	43.8
752.769	44.54
752.949	44.89
753.13	45.62
753.311	46.11
753.492	45.81
753.672	45.83
753.853	46.01
754.034	46.17
754.214	45.86
754.395	45.78
754.575	45.43
754.756	44.57
754.937	44.32
755.117	44.41
755.298	44.45
755.478	45.38
755.659	45.28
755.839	46.05
756.02	46.12
756.2	45.86
756.381	46.41
756.561	45.86
756.741	45.91
756.922	46.35
757.102	45.75
757.283	46.13
757.463	45.29
757.643	45.07
757.823	44.35
758.004	43.98
758.184	44.04
758.364	43.48
758.545	42.89
758.725	42.63
758.905	41.57
759.085	41.28
759.265	39.92
759.446	39.88
759.626	39.83
759.806	39.91
759.986	40.23
760.166	40.52
760.346	40.88
760.526	41.23
760.706	41.45
760.886	41.48
761.066	41.6
761.246	42
761.426	42.12
761.606	41.84
761.786	41.58
761.966	40.94
762.146	40.49
762.326	39.55
762.506	39.14
762.686	39.16
762.866	39.23
763.046	38.73
763.225	38.3
763.405	37.5
763.585	37.48
763.765	37.64
763.945	37.48
764.124	37.47
764.304	38.21
764.484	38.3
764.664	38.15
764.843	37.97
765.023	38.26
765.203	39.14
765.382	39.72
765.562	40.11
765.741	40.13
765.921	40.79
766.101	41.06
766.28	40.26
766.46	40.36
766.639	40.84
766.819	41.49
766.998	42.2
767.178	42.23
767.357	43.12
767.537	43.21
767.716	44
767.896	43.88
768.075	44.24
768.254	45.29
768.434	46.49
768.613	46.93
768.792	46.94
768.972	47.32
769.151	47.53
769.33	47.09
769.51	47.8
769.689	47.69
769.868	47.96
770.047	48.37
770.226	48.28
770.406	47.64
770.585	47.61
770.764	48.55
770.943	48.25
771.122	47.84
771.301	48.15
771.48	47.76
771.66	48.29
771.839	48.21
772.018	48.42
772.197	48.47
772.376	48.42
772.555	48.83
772.734	48.5
772.913	47.68
773.092	48.27
773.271	49.42
773.449	49.07
773.628	48.15
773.807	49.69
773.986	49.45
774.165	50.19
774.344	51.23
774.523	50.52
774.701	49.5
774.88	50.54
775.059	50.12
775.238	49.45
775.417	50.15
775.595	50.77
775.774	50.2
775.953	50.3
776.131	50.05
776.31	49.67
776.489	50.51
776.667	51.62
776.846	51.56
777.025	51.31
777.203	51.25
777.382	51.45
777.56	51.32
777.739	51.52
777.917	51.66
778.096	51.71
778.274	51.42
778.453	51.04
778.631	51.67
778.81	52.18
778.988	53.4
779.166	53.28
779.345	52.79
779.523	52.94
779.702	52.68
779.88	53.27
780.058	52.65
780.237	52.74
780.415	53.62
780.593	52.68
780.771	51.8
780.95	51.41
781.128	52.09
781.306	52.6
781.484	52.98
781.662	52.97
781.841	52.48
782.019	53.57
782.197	53.11
782.375	51.81
782.553	52.06
782.731	53.06
782.909	53.11
783.087	53.11
783.265	52.41
783.443	52.1
783.621	52.81
783.799	52.86
783.977	51.74
784.155	52.81
784.333	53.86
784.511	54.32
784.689	53.46
784.867	54.07
785.045	53.97
785.223	54.64
785.4	54.84
785.578	54.79
785.756	54.59
785.934	54.98
786.112	54.42
786.289	52.75
786.467	52.43
786.645	53.01
786.823	52
787	51.93
787.178	51.12
787.356	51.38
787.533	50.43
787.711	50.78
787.889	51.1
788.066	50.11
788.244	50.02
788.421	50.08
788.599	49.79
788.776	50
788.954	49.33
789.131	50.07
789.309	49.13
789.486	49.65
789.664	49.73
789.841	49.84
790.019	50.94
790.196	52.5
790.373	52.63
790.551	53.39
790.728	53.48
790.906	53.45
791.083	52.98
791.26	53.33
791.437	53.62
791.615	53.97
791.792	54.02
791.969	54.73
792.146	54.04
792.324	53.98
792.501	53.34
792.678	53.8
792.855	54.52
793.032	55.04
793.209	55.93
793.387	56.35
793.564	55.87
793.741	55.28
793.918	54
794.095	55.17
794.272	56
794.449	55.2
794.626	54.77
794.803	53.99
794.98	54.64
795.157	54.22
795.334	52.57
795.511	52.1
795.688	52.66
795.864	53.27
796.041	52.11
796.218	51.61
796.395	53.39
796.572	53.03
796.749	53.38
796.925	51.42
797.102	51.64
797.279	52.65
797.456	53.46
797.632	52.93
797.809	52.5
797.986	53.06
798.162	52.41
798.339	51.13
798.516	52.33
798.692	52.62
798.869	54.23
799.046	53.94
799.222	53.81
799.399	53.8
799.575	55.25
799.752	55.95
799.928	55.82
800.105	56.49
800.281	56.74
800.458	56.95
800.634	57.31
800.811	56.55
800.987	57.56
801.163	58.57
801.34	58.45
801.516	59.39
801.692	59.25
801.869	58.74
802.045	59.1
802.221	59.05
802.398	58.71
802.574	58.77
802.75	60.04
802.926	59.41
803.103	59.73
803.279	59.87
803.455	57.3
803.631	58.44
803.807	59.7
803.983	60.83
804.16	61.75
804.336	61.07
804.512	61.54
804.688	61.67
804.864	61.83
805.04	61.8
805.216	61.62
805.392	62.02
805.568	61.5
805.744	60.78
805.92	58.73
806.096	57.38
806.272	58.69
806.448	58.52
806.623	58.47
806.799	57.65
806.975	56.59
807.151	55.96
807.327	56.42
807.503	55.67
807.678	55.81
807.854	56.84
808.03	57.08
808.206	55.46
808.381	55.15
808.557	53.57
808.733	54.04
808.908	53.26
809.084	55.47
809.26	54.72
809.435	55.9
809.611	56.52
809.787	57.04
809.962	58.92
810.138	60.15
810.313	60.58
810.489	60.68
810.664	61.24
810.84	62.77
811.015	61.17
811.191	62.82
811.366	61.63
811.542	61.6
811.717	60.52
811.892	60.22
812.068	59.73
812.243	58.82
812.419	59.87
812.594	59.58
812.769	58.87
812.944	58.93
813.12	58.12
813.295	58.26
813.47	57.39
813.645	57.14
813.821	56.57
813.996	57.66
814.171	57.56
814.346	56.38
814.521	57.52
814.697	57.11
814.872	58
815.047	57.83
815.222	58.09
815.397	58.24
815.572	58.19
815.747	57.59
815.922	56.9
816.097	58.1
816.272	58.45
816.447	57.86
816.622	60.44
816.797	59.29
816.972	58.69
817.147	58.91
817.322	58.49
817.496	58.15
817.671	57.93
817.846	57.83
818.021	56.62
818.196	56.41
818.371	55.98
818.545	53.55
818.72	53.11
818.895	52.79
819.069	52.49
819.244	52.58
819.419	52.54
819.594	51.76
819.768	50.27
819.943	49.55
820.117	48.91
820.292	46.6
820.467	44.78
820.641	42.38
820.816	40.61
820.99	38.07
821.165	36.74
821.339	35.09
821.514	34.42
821.688	33.35
821.863	32.4
822.037	31.48
822.212	31.32
822.386	30.64
822.56	30.65
822.735	30.56
822.909	30.68
823.084	30.58
823.258	30.73
823.432	30.61
823.606	30.78
823.781	31
823.955	31.69
824.129	31.92
824.303	32.97
824.478	33.89
824.652	34.57
824.826	34.35
825	35.07
825.174	35.95
825.348	36.52
825.523	37.4
825.697	38.32
825.871	38.25
826.045	38.16
826.219	37.85
826.393	37.13
826.567	36.89
826.741	37.83
826.915	36.98
827.089	36.76
827.263	36.93
827.437	36.72
827.611	35.91
827.784	36.34
827.958	36.6
828.132	36.9
828.306	37.04
828.48	37.07
828.654	37.9
828.827	38.87
829.001	39.82
829.175	41.04
829.349	42.8
829.522	44.11
829.696	44.78
829.87	46.53
830.044	47.91
830.217	50.15
830.391	51.66
830.565	51.87
830.738	53.84
830.912	54.12
831.085	54.66
831.259	54.3
831.432	55.32
831.606	55.25
831.779	53.89
831.953	51.41
832.126	49.48
832.3	49.19
832.473	48.52
832.647	47.33
832.82	46.52
832.994	44.38
833.167	43.03
833.34	42.63
833.514	41.83
833.687	41.48
833.86	41.88
834.034	42.06
834.207	41.55
834.38	41.57
834.553	40.84
834.727	40.35
834.9	40.75
835.073	40.79
835.246	40.78
835.419	41.42
835.593	42.51
835.766	43.4
835.939	44.31
836.112	45.94
836.285	47.15
836.458	49.44
836.631	51.78
836.804	53.77
836.977	55.53
837.15	57.72
837.323	59.81
837.496	59.44
837.669	60.92
837.842	62.67
838.015	65.03
838.188	65.39
838.361	66.71
838.533	67.12
838.706	68.02
838.879	68.92
839.052	69.27
839.225	68.3
839.398	69.75
839.57	71.68
839.743	69.69
839.916	67.77
840.088	67.35
840.261	67.8
840.434	68.93
840.607	66.68
840.779	66.04
840.952	64.97
841.124	64.97
841.297	64.98
841.47	64.29
841.642	64.84
841.815	65.39
841.987	67.8
842.16	68.13
842.332	69.4
842.505	72.12
842.677	75.42
842.85	78.57
843.022	83.3
843.194	84.99
843.367	86.98
843.539	86.46
843.712	88.74
843.884	88.48
844.056	87.66
844.229	88.88
844.401	92.91
844.573	91.35
844.745	91.83
844.918	89.78
845.09	89.34
845.262	87.57
845.434	91.24
845.606	89.6
845.779	94.43
845.951	95.86
846.123	95.06
846.295	90.24
846.467	91.48
846.639	92.14
846.811	93.31
846.983	97.63
847.155	97.72
847.327	103.26
847.499	107.19
847.671	104.17
847.843	106.36
848.015	105.45
848.187	112.78
848.359	117.8
848.531	114.37
848.703	115.99
848.875	117.52
849.047	121.21
849.218	115.55
849.39	116.28
849.562	116.91
849.734	117.73
849.905	119.53
850.077	116.99
850.249	116.03
850.421	120.93
850.592	118.36
850.764	113.87
850.936	111.87
851.107	111.94
851.279	108.84
851.451	112.4
851.622	113.93
851.794	115.36
851.965	116.46
852.137	117.53
852.308	117.06
852.48	119.95
852.651	120.75
852.823	121.3
852.994	125.07
853.166	125.01
853.337	122.95
853.509	122.39
853.68	118.52
853.851	120.45
854.023	116.57
854.194	114.11
854.365	112.84
854.537	113.79
854.708	112.5
854.879	110.46
855.05	112.32
855.222	110.02
855.393	108.91
855.564	111.95
855.735	105.41
855.906	106.79
856.078	107.95
856.249	106.25
856.42	107.69
856.591	115.39
856.762	115.25
856.933	117.76
857.104	117.65
857.275	115.08
857.446	112.22
857.617	113.38
857.788	110.97
857.959	108.83
858.13	113.62
858.301	107.79
858.472	99.91
858.643	102.95
858.814	100.79
858.985	103.08
859.155	108.89
859.326	113.85
859.497	117.16
859.668	126.84
859.839	129.63
860.009	127.3
860.18	136.26
860.351	139.73
860.522	134.85
860.692	134.24
860.863	135.86
861.034	131.7
861.204	125.95
861.375	120.7
861.546	113.35
861.716	113.14
861.887	115.12
862.057	115.68
862.228	116.96
862.398	117.03
862.569	119.1
862.739	121.49
862.91	118.34
863.08	119.06
863.251	118.15
863.421	116.5
863.592	119.96
863.762	115.61
863.932	119.07
864.103	120.24
864.273	117.23
864.443	117.13
864.614	110.59
864.784	109.74
864.954	111.79
865.125	114.51
865.295	120.1
865.465	119.29
865.635	121.71
865.805	116.5
865.976	113.26
866.146	115.87
866.316	114.82
866.486	116.57
866.656	119.65
866.826	121.95
866.996	125.94
867.166	124.49
867.336	119.64
867.506	119.4
867.676	120.17
867.846	126.15
868.016	123.61
868.186	128.44
868.356	131.45
868.526	130.78
868.696	130.18
868.866	124.19
869.036	124.25
869.206	133.04
869.376	139.22
869.545	136.78
869.715	135.07
869.885	143.1
870.055	132.24
870.224	132.82
870.394	126.2
870.564	126.51
870.734	129.03
870.903	131.38
871.073	118.39
871.243	109.72
871.412	105.86
871.582	104.38
871.751	103.08
871.921	106.41
872.091	105.73
872.26	108.03
872.43	104.57
872.599	104.61
872.769	104.72
872.938	113.16
873.108	117.36
873.277	119.35
873.446	118.4
873.616	115.87
873.785	112.47
873.955	113.17
874.124	116.61
874.293	116.79
874.463	117.79
874.632	117.5
874.801	111.51
874.971	110.72
875.14	113.18
875.309	112.43
875.478	116.44
875.647	119.56
875.817	114.63
875.986	114.37
876.155	112.12
876.324	113.21
876.493	112
876.662	112.95
876.831	108.41
877	106.01
877.17	105.12
877.339	102.05
877.508	100.12
877.677	103.92
877.846	101.58
878.015	106.08
878.184	100.41
878.352	97.63
878.521	98.44
878.69	104.45
878.859	104.07
879.028	104.63
879.197	98.04
879.366	95.38
879.534	91.24
879.703	86.7
879.872	82.03
880.041	78.03
880.21	73.45
880.378	69.06
880.547	62.09
880.716	58.25
880.884	54.53
881.053	52.48
881.222	50.46
881.39	47.72
881.559	45.9
881.727	43.85
881.896	43
882.065	41.91
882.233	40.21
882.402	40.58
882.57	40.17
882.739	39.65
882.907	39.86
883.076	39.6
883.244	39.64
883.412	39.85
883.581	40.59
883.749	40.77
883.918	41.44
884.086	43.11
884.254	43.2
884.423	44.92
884.591	46.47
884.759	48.18
884.927	50.62
885.096	52.68
885.264	55.67
885.432	57.2
885.6	60.46
885.769	63.83
885.937	67.13
886.105	71.05
886.273	73.4
886.441	77.99
886.609	79.46
886.777	80.56
886.945	84.02
887.113	87.19
887.281	88.47
887.449	91.77
887.617	95.08
887.785	95.45
887.953	96.98
888.121	96.8
888.289	94.44
888.457	97.73
888.625	103.1
888.793	106.89
888.961	104.97
889.129	108.3
889.296	108.19
889.464	109.09
889.632	108.74
889.8	108.16
889.967	111.5
890.135	115.61
