Data from 2938786__Reflection_03.txt Node
Date: Fri Mar 13 11:57:32 EDT 2015
User: robert
Spectrometer: USB4E03002
Autoset integration time: false
Trigger mode: 4
Integration Time (sec): 1.000000E-1
Scans to average: 10
Electric dark correction enabled: false
Nonlinearity correction enabled: false
Boxcar width: 5
Stray light correction enabled: false
XAxis mode: Wavelengths
Stop averaging: false
Number of Pixels in Spectrum: 3648
>>>>>Begin Spectral Data<<<<<
177.575	-609.17
177.794	-7164.29
178.014	-1043.48
178.233	-771.98
178.452	-509.09
178.672	-386.5
178.891	-451.69
179.11	-470.5
179.33	-477.69
179.549	-614.16
179.768	-656.91
179.987	-1012.5
180.207	-639.31
180.426	-1070.59
180.645	-2007.69
180.864	-7843.9
181.084	2347.76
181.303	3534.83
181.522	1770.62
181.741	3931.08
181.96	1613.64
182.179	757.66
182.398	695.96
182.618	572.73
182.837	625.19
183.056	458.64
183.275	444.67
183.494	505.78
183.713	460
183.932	459.56
184.151	442.24
184.37	489
184.589	571.77
184.808	677.52
185.027	668.08
185.246	686.29
185.465	2405.13
185.684	1218.22
185.903	1425.12
186.122	1597.77
186.341	5568.63
186.56	2541.38
186.779	3680.72
186.998	1840.23
187.216	-4812.5
187.435	-1200.77
187.654	-1268.92
187.873	-1751.14
188.092	-4514.49
188.311	23876.92
188.53	-3672.84
188.748	10237.5
188.967	-1604.62
189.186	-1826.16
189.405	-910.84
189.623	-3067.65
189.842	6929.79
190.061	2446.92
190.28	3485.87
190.498	-1898.24
190.717	-1510.09
190.936	-1218.89
191.154	-691.55
191.373	-1971.81
191.592	-1565.7
191.81	-1257.14
192.029	-1004.8
192.248	-971.89
192.466	-3659.15
192.685	-18385.71
192.904	-914.34
193.122	-4318.18
193.341	1026.4
193.559	607.78
193.778	743.04
193.996	585.47
194.215	652.84
194.433	660.12
194.652	563.14
194.87	1079.86
195.089	814.05
195.307	436.5
195.526	483.67
195.744	550.17
195.963	480.03
196.181	414.67
196.399	473.8
196.618	400
196.836	450.66
197.055	546.12
197.273	579.53
197.491	704.49
197.71	669.11
197.928	963.82
198.146	1061.74
198.365	9528.13
198.583	-5594.34
198.801	-2236.36
199.019	-2314.84
199.238	-6046
199.456	1989.26
199.674	1066.55
199.892	821.87
200.111	1289.7
200.329	1193.67
200.547	1020.14
200.765	719.06
200.983	661.42
201.202	684.45
201.42	847.21
201.638	882.01
201.856	1491.33
202.074	1751.59
202.292	-4400
202.51	17675
202.728	10024.14
202.946	-3529.87
203.165	-3557.5
203.383	5321.15
203.601	2025.19
203.819	4792.73
204.037	985.25
204.255	1074
204.473	1223.5
204.691	703.75
204.909	600.44
205.127	604.66
205.345	666.83
205.562	854.84
205.78	1153.85
205.998	1186.38
206.216	717.57
206.434	1077.19
206.652	678.7
206.87	757.83
207.088	721.7
207.306	1011.51
207.523	841.11
207.741	684.36
207.959	607.87
208.177	814.55
208.395	818.13
208.612	1156.92
208.83	834.86
209.048	899.68
209.266	1128.23
209.483	1012.98
209.701	1087.45
209.919	1620
210.136	1296.41
210.354	1090.26
210.572	802.38
210.79	614.94
211.007	634.33
211.225	736.3
211.442	787.85
211.66	542.69
211.878	568.54
212.095	-1084.43
212.313	-2957.45
212.53	-1765.33
212.748	-1209.76
212.966	-2094.02
213.183	-1412.65
213.401	-2094.64
213.618	4360
213.836	-13747.06
214.053	-8074.19
214.271	9607.69
214.488	320.85
214.705	312.45
214.923	265.61
215.14	280.65
215.358	315.21
215.575	350.74
215.793	328.29
216.01	492.07
216.227	464.91
216.445	466.61
216.662	511.72
216.879	677.87
217.097	618.6
217.314	587.11
217.531	398.44
217.749	336.11
217.966	282.57
218.183	256.17
218.4	243.35
218.618	234.29
218.835	206.94
219.052	200.98
219.269	164.34
219.487	160.92
219.704	168.82
219.921	172.55
220.138	179.54
220.355	183.89
220.572	168.58
220.79	151.58
221.007	154.91
221.224	161.35
221.441	158.41
221.658	165.22
221.875	160.47
222.092	157.63
222.309	151.17
222.526	145.67
222.743	147.16
222.96	147.25
223.177	149.75
223.394	140.08
223.611	130.99
223.828	126.3
224.045	120.67
224.262	121.4
224.479	110.88
224.696	105.73
224.913	97.29
225.13	88.35
225.347	80.25
225.564	73.22
225.781	70.6
225.997	67.26
226.214	59.38
226.431	54.39
226.648	49.97
226.865	44.89
227.082	41.76
227.298	39.58
227.515	35.22
227.732	32.92
227.949	30.25
228.165	26.66
228.382	25.32
228.599	25.57
228.816	24.66
229.032	23.05
229.249	22.2
229.466	20.44
229.682	19.85
229.899	20.69
230.116	21.02
230.332	21.27
230.549	22.61
230.765	23.9
230.982	23.86
231.199	24.66
231.415	25.69
231.632	28.21
231.848	30.81
232.065	32.41
232.281	32.6
232.498	33.03
232.714	33.5
232.931	33.49
233.147	34.29
233.364	35.37
233.58	36.36
233.797	36.64
234.013	36.02
234.23	36.57
234.446	36.48
234.662	36.2
234.879	36.05
235.095	35.39
235.312	35.86
235.528	33.78
235.744	33.26
235.961	32.17
236.177	33.15
236.393	33.97
236.61	32.35
236.826	31.92
237.042	32.01
237.258	31.62
237.475	33.4
237.691	33.98
237.907	35.65
238.123	35.83
238.339	37.16
238.556	35.31
238.772	35.33
238.988	36.37
239.204	35
239.42	34.22
239.636	33.57
239.853	32.05
240.069	29.88
240.285	27.62
240.501	26.17
240.717	24.09
240.933	22.2
241.149	20.27
241.365	18.53
241.581	17.96
241.797	17.18
242.013	16.33
242.229	15.56
242.445	15.32
242.661	14.99
242.877	14.91
243.093	15.14
243.309	15.19
243.525	15.52
243.741	15.95
243.957	16.18
244.173	16.97
244.388	17.19
244.604	17.49
244.82	17.55
245.036	17.85
245.252	16.2
245.468	15.09
245.683	15.45
245.899	14.44
246.115	13.55
246.331	12.38
246.547	11.7
246.762	11.12
246.978	10.87
247.194	10.53
247.409	10.08
247.625	10.13
247.841	9.92
248.057	9.58
248.272	9.55
248.488	9.48
248.703	9.97
248.919	10.11
249.135	10.63
249.35	11.35
249.566	12.07
249.782	12.44
249.997	13.26
250.213	13.73
250.428	14.31
250.644	15.27
250.859	15.81
251.075	15.95
251.29	16.28
251.506	15.58
251.721	14.93
251.937	14.65
252.152	14.7
252.368	15.2
252.583	15.31
252.798	15.58
253.014	15.63
253.229	15.88
253.445	15.87
253.66	15.39
253.875	16.36
254.091	17.33
254.306	17.58
254.521	19.49
254.737	19.48
254.952	19.98
255.167	19.45
255.383	19.21
255.598	19.35
255.813	19.52
256.028	19.69
256.244	18.43
256.459	17.67
256.674	17.24
256.889	15.09
257.104	14.95
257.32	14.72
257.535	14.17
257.75	13.26
257.965	12.67
258.18	11.93
258.395	11.38
258.61	10.8
258.826	10.07
259.041	9.77
259.256	9.38
259.471	8.59
259.686	8.28
259.901	8.01
260.116	7.92
260.331	7.53
260.546	7.69
260.761	7.74
260.976	8
261.191	7.74
261.406	7.7
261.621	8.07
261.836	8.4
262.05	9.1
262.265	9.98
262.48	10.64
262.695	11.61
262.91	12.36
263.125	12.72
263.34	12.63
263.555	14.13
263.769	14.77
263.984	15.14
264.199	15.97
264.414	15.26
264.629	14.68
264.843	14.69
265.058	14.64
265.273	13.58
265.488	13.14
265.702	13.2
265.917	12.49
266.132	12.19
266.346	12.03
266.561	11.58
266.776	11.8
266.99	11.69
267.205	11.19
267.42	10.84
267.634	10.5
267.849	11.04
268.063	11.04
268.278	11.24
268.492	11.39
268.707	11.3
268.922	11.52
269.136	11.5
269.351	10.95
269.565	10.99
269.78	10.91
269.994	11.14
270.209	10.66
270.423	10.27
270.637	9.88
270.852	9.79
271.066	9.36
271.281	9.2
271.495	9.21
271.709	9.41
271.924	9.19
272.138	9.24
272.353	9.03
272.567	9.06
272.781	9.44
272.996	9.34
273.21	9.07
273.424	8.98
273.638	8.45
273.853	8.23
274.067	8.25
274.281	8.71
274.495	8.94
274.71	9.66
274.924	9.71
275.138	9.71
275.352	10.05
275.566	10.5
275.781	10.66
275.995	11.41
276.209	11.62
276.423	11.71
276.637	11.7
276.851	12.2
277.065	11.89
277.279	11.9
277.493	11.61
277.707	11.71
277.921	11.48
278.135	11.78
278.349	11.15
278.563	11
278.777	11.17
278.991	10.88
279.205	10.71
279.419	10.37
279.633	9.95
279.847	10.18
280.061	9.86
280.275	9.39
280.489	9.05
280.703	9.5
280.917	9.63
281.131	9.24
281.344	9.13
281.558	8.28
281.772	8.68
281.986	8.76
282.2	8.76
282.414	8.87
282.627	9.01
282.841	9.36
283.055	9.6
283.269	9.45
283.482	9.39
283.696	9.11
283.91	9.28
284.123	8.39
284.337	8.06
284.551	7.76
284.764	7.68
284.978	7.55
285.192	7.37
285.405	7.11
285.619	6.83
285.833	7.1
286.046	7.1
286.26	7.1
286.473	7.78
286.687	7.91
286.9	8.08
287.114	7.87
287.327	7.89
287.541	8.18
287.754	8.21
287.968	8.57
288.181	8.42
288.395	8.42
288.608	8.54
288.822	8.28
289.035	8.31
289.248	8.1
289.462	8.01
289.675	7.85
289.889	7.67
290.102	7.22
290.315	6.89
290.529	6.91
290.742	7.12
290.955	6.87
291.169	7.17
291.382	7.57
291.595	7.75
291.808	8.11
292.022	8.72
292.235	8.77
292.448	9.24
292.661	9.77
292.875	10.01
293.088	10.16
293.301	10.26
293.514	9.99
293.727	9.58
293.94	9.54
294.153	9.46
294.367	9.37
294.58	8.91
294.793	8.91
295.006	8.6
295.219	8.06
295.432	8.23
295.645	8.22
295.858	8.03
296.071	7.82
296.284	7.72
296.497	7.38
296.71	6.97
296.923	7.25
297.136	7.22
297.349	7.02
297.562	7.21
297.775	6.89
297.988	7.14
298.201	7.29
298.414	7.51
298.626	7.6
298.839	7.7
299.052	7.76
299.265	7.82
299.478	7.54
299.691	8.05
299.903	8.42
300.116	8.72
300.329	8.5
300.542	8.36
300.755	8.48
300.967	8.58
301.18	8.91
301.393	9.16
301.605	9.26
301.818	9.59
302.031	9.52
302.243	9.18
302.456	9.23
302.669	9.43
302.881	9.8
303.094	10.27
303.307	10.19
303.519	10
303.732	10.06
303.944	9.97
304.157	10.26
304.37	9.87
304.582	10.02
304.795	10.1
305.007	9.88
305.22	9.87
305.432	9.36
305.645	9.55
305.857	10
306.069	10.28
306.282	10.22
306.494	10.07
306.707	10.48
306.919	10.5
307.132	10.39
307.344	10.61
307.556	10.49
307.769	10.64
307.981	10.57
308.193	10.28
308.406	10.06
308.618	9.94
308.83	9.98
309.043	9.68
309.255	9.43
309.467	9.26
309.679	9.02
309.892	9.36
310.104	9.02
310.316	8.96
310.528	8.85
310.74	8.9
310.953	9.05
311.165	9.16
311.377	9.65
311.589	10.1
311.801	10.23
312.013	10.16
312.225	9.86
312.437	10.24
312.649	10.33
312.862	10.72
313.074	10.86
313.286	11.12
313.498	11.04
313.71	10.87
313.922	10.71
314.134	10.97
314.346	11.36
314.558	11.6
314.77	12.07
314.982	12.6
315.193	12.78
315.405	12.77
315.617	12.98
315.829	13.16
316.041	13.54
316.253	13.51
316.465	13.67
316.677	13.9
316.888	13.94
317.1	13.58
317.312	13.42
317.524	13.55
317.736	13.68
317.947	13.89
318.159	13.9
318.371	13.55
318.583	13.8
318.794	13.68
319.006	13.73
319.218	13.76
319.43	14.02
319.641	14
319.853	13.97
320.064	14.43
320.276	14.05
320.488	14.55
320.699	14.47
320.911	14.81
321.123	15.25
321.334	14.87
321.546	15.21
321.757	15.47
321.969	15.89
322.18	15.9
322.392	15.6
322.603	15.81
322.815	14.98
323.026	15.66
323.238	15.6
323.449	15.03
323.661	15.78
323.872	15.58
324.083	15.55
324.295	15.26
324.506	15.19
324.718	15
324.929	15.08
325.14	15.82
325.352	15.5
325.563	15.85
325.774	16.45
325.986	16.25
326.197	16.41
326.408	16.49
326.62	16.75
326.831	16.85
327.042	17.4
327.253	17.9
327.464	18.07
327.676	18.1
327.887	17.95
328.098	18.09
328.309	18.36
328.52	18.6
328.732	19.01
328.943	19.33
329.154	19.8
329.365	20.03
329.576	20.28
329.787	20.45
329.998	21.69
330.209	21.97
330.42	22.18
330.631	22.4
330.842	22.36
331.053	22.23
331.264	22.25
331.475	22.28
331.686	22.5
331.897	22.49
332.108	22.44
332.319	22.46
332.53	22.55
332.741	22.57
332.952	23.02
333.163	23.65
333.374	23.92
333.585	24.35
333.795	24.6
334.006	24.34
334.217	23.87
334.428	24.1
334.639	23.87
334.849	23.8
335.06	24.03
335.271	23.98
335.482	23.9
335.692	23.61
335.903	23.18
336.114	22.88
336.325	23.18
336.535	23.63
336.746	23.56
336.957	23.39
337.167	23.61
337.378	23.63
337.589	23.72
337.799	23.59
338.01	23.81
338.22	23.82
338.431	24.11
338.642	23.84
338.852	23.39
339.063	23.51
339.273	23.91
339.484	23.81
339.694	23.52
339.905	23.23
340.115	23.18
340.326	23.12
340.536	23.15
340.746	23.07
340.957	23.05
341.167	23.2
341.378	23.24
341.588	22.82
341.799	22.66
342.009	22.67
342.219	22.68
342.43	22.76
342.64	22.94
342.85	23.07
343.061	22.87
343.271	23.23
343.481	23.32
343.691	23.13
343.902	23.04
344.112	23.13
344.322	23.03
344.532	22.99
344.743	22.58
344.953	22.11
345.163	21.9
345.373	21.73
345.583	21.64
345.793	21.96
346.004	21.9
346.214	21.95
346.424	22.02
346.634	22.22
346.844	22.47
347.054	22.74
347.264	23.06
347.474	23.12
347.684	23.33
347.894	23.28
348.104	22.97
348.314	22.84
348.524	22.79
348.734	22.88
348.944	22.64
349.154	22.16
349.364	22.09
349.574	21.83
349.784	21.98
349.994	22.02
350.204	21.89
350.413	21.78
350.623	21.62
350.833	21.44
351.043	21.3
351.253	21.41
351.463	21.45
351.672	21.48
351.882	21.44
352.092	21.14
352.302	21.08
352.511	21.22
352.721	21.11
352.931	21.21
353.141	21.32
353.35	21.06
353.56	20.9
353.77	20.96
353.979	20.83
354.189	20.97
354.399	20.88
354.608	20.84
354.818	20.58
355.027	20.65
355.237	20.56
355.447	20.6
355.656	20.72
355.866	20.65
356.075	20.54
356.285	20.63
356.494	20.52
356.704	20.33
356.913	20.31
357.123	20.26
357.332	20.18
357.542	19.96
357.751	19.82
357.96	19.78
358.17	19.73
358.379	19.85
358.589	19.79
358.798	19.78
359.007	20.12
359.217	20.09
359.426	19.82
359.635	19.84
359.845	19.98
360.054	19.77
360.263	19.63
360.472	19.62
360.682	19.48
360.891	19.31
361.1	19.08
361.309	18.87
361.519	18.85
361.728	19.04
361.937	18.93
362.146	18.87
362.355	19
362.564	19.12
362.774	19.09
362.983	18.91
363.192	19.08
363.401	19.17
363.61	19.17
363.819	19.36
364.028	19.26
364.237	19.35
364.446	19.49
364.655	19.54
364.864	19.4
365.073	19.41
365.282	19.4
365.491	19.07
365.7	18.98
365.909	19.04
366.118	19.01
366.327	19.05
366.536	19.04
366.745	18.96
366.954	18.91
367.162	18.93
367.371	18.79
367.58	19.26
367.789	19.3
367.998	19.32
368.207	19.37
368.415	19.2
368.624	19.26
368.833	19.23
369.042	19.18
369.25	19.06
369.459	19.14
369.668	19.08
369.877	18.5
370.085	18.47
370.294	18.59
370.503	18.56
370.711	18.49
370.92	18.33
371.129	18.29
371.337	18.01
371.546	18.1
371.754	18.02
371.963	17.83
372.171	17.9
372.38	18.22
372.589	18.18
372.797	18.23
373.006	18.22
373.214	18.11
373.423	17.91
373.631	17.98
373.84	17.88
374.048	17.7
374.256	17.86
374.465	18.19
374.673	18.07
374.882	18.15
375.09	18.16
375.298	18.02
375.507	18.18
375.715	18.2
375.923	18.21
376.132	17.94
376.34	17.9
376.548	17.77
376.757	17.46
376.965	17.44
377.173	17.17
377.381	16.95
377.59	17.11
377.798	17.06
378.006	16.86
378.214	17.02
378.423	17.19
378.631	17.08
378.839	17.09
379.047	17.11
379.255	17.01
379.463	17.15
379.671	17.01
379.879	16.78
380.088	16.58
380.296	16.69
380.504	16.4
380.712	16.3
380.92	16.4
381.128	16.63
381.336	16.48
381.544	16.3
381.752	16.15
381.96	16.11
382.168	16.12
382.376	16.16
382.584	16.08
382.791	16.23
382.999	15.97
383.207	15.77
383.415	15.47
383.623	15.5
383.831	15.34
384.039	15.16
384.247	15.1
384.454	15.2
384.662	15.14
384.87	15.2
385.078	14.97
385.285	15.21
385.493	15.31
385.701	15.35
385.909	15.22
386.116	15.32
386.324	15.29
386.532	15.27
386.739	15.2
386.947	15.23
387.155	15.39
387.362	15.45
387.57	15.22
387.778	15.06
387.985	15.01
388.193	14.9
388.4	14.76
388.608	15.17
388.816	15.31
389.023	15.24
389.231	15.17
389.438	14.72
389.646	14.75
389.853	14.85
390.061	14.84
390.268	15.1
390.475	15.15
390.683	15.17
390.89	14.92
391.098	14.81
391.305	14.8
391.512	14.68
391.72	14.93
391.927	14.87
392.135	14.87
392.342	14.98
392.549	14.83
392.756	14.75
392.964	14.72
393.171	14.73
393.378	14.6
393.586	14.48
393.793	14.57
394	14.29
394.207	14.36
394.414	14.31
394.622	14.12
394.829	13.92
395.036	14
395.243	14.05
395.45	13.77
395.657	13.78
395.864	13.73
396.072	13.54
396.279	13.82
396.486	13.67
396.693	13.73
396.9	13.88
397.107	14.02
397.314	14.04
397.521	14.03
397.728	14.08
397.935	14.17
398.142	14.13
398.349	14.41
398.556	14.34
398.763	14.28
398.97	14.1
399.177	13.9
399.383	13.74
399.59	13.77
399.797	13.77
400.004	13.78
400.211	13.83
400.418	13.94
400.625	13.84
400.831	13.7
401.038	13.83
401.245	13.99
401.452	14.21
401.658	14.41
401.865	14.53
402.072	14.6
402.279	14.61
402.485	14.47
402.692	14.26
402.899	14.11
403.105	14.18
403.312	14.14
403.519	13.89
403.725	13.73
403.932	13.56
404.138	13.29
404.345	13.27
404.552	13.09
404.758	13.06
404.965	12.99
405.171	13.05
405.378	12.96
405.584	12.81
405.791	12.79
405.997	12.82
406.204	12.92
406.41	12.86
406.617	12.77
406.823	13.01
407.029	13.04
407.236	13.28
407.442	13.35
407.649	13.49
407.855	13.69
408.061	13.9
408.268	13.92
408.474	13.76
408.68	13.85
408.887	13.78
409.093	13.5
409.299	13.59
409.505	13.58
409.712	13.45
409.918	13.31
410.124	13.1
410.33	12.99
410.537	12.85
410.743	12.8
410.949	12.96
411.155	13
411.361	13.13
411.567	13.02
411.773	12.87
411.98	12.83
412.186	12.82
412.392	13.04
412.598	13
412.804	13.03
413.01	13.15
413.216	12.95
413.422	12.94
413.628	13.06
413.834	13.05
414.04	13.16
414.246	13.2
414.452	13.13
414.658	12.96
414.864	13.04
415.07	13
415.275	12.94
415.481	12.99
415.687	12.92
415.893	12.82
416.099	12.77
416.305	12.69
416.511	12.68
416.716	12.57
416.922	12.48
417.128	12.43
417.334	12.33
417.539	12.3
417.745	12.12
417.951	12.24
418.157	12.18
418.362	12.18
418.568	12.15
418.774	12.06
418.979	12.07
419.185	12.11
419.391	12.03
419.596	12.02
419.802	11.96
420.008	12.08
420.213	12.75
420.419	12.77
420.624	12.75
420.83	12.73
421.035	12.78
421.241	12.86
421.446	12.85
421.652	12.86
421.857	12.92
422.063	12.95
422.268	12.87
422.474	12.15
422.679	12.14
422.885	12.16
423.09	12.16
423.295	12.11
423.501	12.05
423.706	12.06
423.911	12.04
424.117	12.02
424.322	12
424.527	11.97
424.733	11.96
424.938	11.97
425.143	11.87
425.349	11.92
425.554	11.92
425.759	12
425.964	11.93
426.169	11.98
426.375	12.01
426.58	12.06
426.785	12.14
426.99	12.2
427.195	12.23
427.4	12.2
427.605	12.17
427.811	12.19
428.016	12.16
428.221	12.3
428.426	12.27
428.631	12.25
428.836	12.26
429.041	12.21
429.246	12.21
429.451	12.17
429.656	12.3
429.861	12.38
430.066	12.36
430.271	12.35
430.476	12.31
430.681	12.45
430.886	12.44
431.09	12.43
431.295	12.45
431.5	12.55
431.705	12.44
431.91	12.48
432.115	12.42
432.32	12.46
432.524	12.38
432.729	12.49
432.934	12.45
433.139	12.44
433.343	12.46
433.548	12.48
433.753	12.38
433.958	12.43
434.162	12.47
434.367	12.5
434.572	12.55
434.776	12.55
434.981	12.44
435.186	12.4
435.39	12.52
435.595	12.53
435.799	12.54
436.004	12.6
436.209	12.7
436.413	12.68
436.618	12.6
436.822	12.51
437.027	12.6
437.231	12.57
437.436	12.66
437.64	12.6
437.845	12.56
438.049	12.54
438.253	12.45
438.458	12.4
438.662	12.3
438.867	12.35
439.071	12.33
439.275	12.27
439.48	12.3
439.684	12.2
439.888	12.15
440.093	12.16
440.297	12.1
440.501	12.12
440.706	12.06
440.91	12.12
441.114	12.12
441.318	12.13
441.523	12.19
441.727	12.15
441.931	12.17
442.135	12.25
442.339	12.21
442.543	12.38
442.748	12.41
442.952	12.51
443.156	12.46
443.36	12.46
443.564	12.49
443.768	12.56
443.972	12.53
444.176	12.58
444.38	12.51
444.584	12.53
444.788	12.39
444.992	12.39
445.196	12.33
445.4	12.31
445.604	12.32
445.808	12.33
446.012	12.23
446.216	12.25
446.42	12.21
446.624	12.19
446.828	12.08
447.032	12.15
447.235	12.08
447.439	12.08
447.643	12.13
447.847	12.13
448.051	12.1
448.254	12.09
448.458	12.13
448.662	12.07
448.866	12.05
449.069	12.23
449.273	12.26
449.477	12.28
449.681	12.3
449.884	12.37
450.088	12.47
450.292	12.46
450.495	12.47
450.699	12.55
450.902	12.57
451.106	12.65
451.31	12.59
451.513	12.64
451.717	12.63
451.92	12.58
452.124	12.58
452.327	12.48
452.531	12.48
452.734	12.42
452.938	12.35
453.141	12.48
453.345	12.51
453.548	12.53
453.752	12.44
453.955	12.5
454.158	12.52
454.362	12.53
454.565	12.54
454.769	12.65
454.972	12.75
455.175	12.75
455.379	12.67
455.582	12.67
455.785	12.69
455.988	12.68
456.192	12.7
456.395	12.69
456.598	12.63
456.801	12.66
457.005	12.55
457.208	12.56
457.411	12.58
457.614	12.56
457.817	12.48
458.021	12.45
458.224	12.45
458.427	12.32
458.63	12.35
458.833	12.29
459.036	12.22
459.239	12.21
459.442	12.12
459.645	12.15
459.848	12.13
460.051	12.16
460.254	12.22
460.457	12.21
460.66	12.36
460.863	12.35
461.066	12.36
461.269	12.36
461.472	12.41
461.675	12.43
461.878	12.42
462.081	12.43
462.284	12.39
462.486	12.32
462.689	12.33
462.892	12.32
463.095	12.3
463.298	12.45
463.5	12.52
463.703	12.52
463.906	12.62
464.109	12.57
464.311	12.69
464.514	12.73
464.717	12.75
464.92	12.84
465.122	12.76
465.325	12.95
465.528	12.85
465.73	12.94
465.933	12.89
466.135	12.88
466.338	12.83
466.541	12.75
466.743	12.77
466.946	12.76
467.148	12.75
467.351	12.83
467.553	12.71
467.756	12.67
467.958	12.55
468.161	12.74
468.363	12.68
468.566	12.78
468.768	12.81
468.971	12.73
469.173	12.78
469.375	12.7
469.578	12.66
469.78	12.74
469.983	12.82
470.185	12.84
470.387	12.74
470.59	12.82
470.792	12.76
470.994	12.87
471.196	12.96
471.399	12.91
471.601	12.89
471.803	12.83
472.005	12.76
472.208	12.68
472.41	12.71
472.612	12.71
472.814	12.67
473.016	12.75
473.218	12.64
473.421	12.63
473.623	12.66
473.825	12.71
474.027	12.71
474.229	12.67
474.431	12.74
474.633	12.76
474.835	12.76
475.037	12.91
475.239	12.8
475.441	12.81
475.643	12.81
475.845	12.71
476.047	12.73
476.249	12.7
476.451	12.77
476.653	12.74
476.855	12.72
477.057	12.64
477.258	12.55
477.46	12.59
477.662	12.63
477.864	12.61
478.066	12.69
478.268	12.61
478.469	12.63
478.671	12.56
478.873	12.58
479.075	12.53
479.276	12.49
479.478	12.52
479.68	12.5
479.882	12.52
480.083	12.52
480.285	12.47
480.487	12.55
480.688	12.5
480.89	12.49
481.091	12.44
481.293	12.4
481.495	12.39
481.696	12.29
481.898	12.27
482.099	12.21
482.301	12.15
482.502	12.14
482.704	12.08
482.905	12.07
483.107	12
483.308	11.99
483.51	11.96
483.711	11.96
483.913	11.98
484.114	11.97
484.315	11.95
484.517	11.94
484.718	11.94
484.92	11.96
485.121	11.97
485.322	12.02
485.524	12.03
485.725	12.07
485.926	12.1
486.127	12.08
486.329	12.09
486.53	12.08
486.731	12.12
486.932	12.07
487.134	12.08
487.335	12.04
487.536	12.04
487.737	12.06
487.938	12.05
488.139	12.1
488.341	12.14
488.542	12.14
488.743	12.15
488.944	12.14
489.145	12.18
489.346	12.16
489.547	12.2
489.748	12.19
489.949	12.2
490.15	12.17
490.351	12.15
490.552	12.13
490.753	12.11
490.954	12.08
491.155	12.08
491.356	12.07
491.557	12.1
491.758	12.12
491.959	12.14
492.159	12.15
492.36	12.2
492.561	12.15
492.762	12.15
492.963	12.2
493.164	12.25
493.364	12.28
493.565	12.33
493.766	12.31
493.967	12.31
494.167	12.38
494.368	12.36
494.569	12.29
494.769	12.33
494.97	12.35
495.171	12.42
495.371	12.53
495.572	12.5
495.773	12.5
495.973	12.64
496.174	12.65
496.375	12.64
496.575	12.65
496.776	12.84
496.976	12.88
497.177	12.84
497.377	12.73
497.578	12.75
497.778	12.83
497.979	12.92
498.179	12.82
498.38	12.9
498.58	12.96
498.78	13.04
498.981	13.02
499.181	13.06
499.382	13.13
499.582	13.25
499.782	13.27
499.983	13.29
500.183	13.35
500.383	13.43
500.584	13.39
500.784	13.37
500.984	13.39
501.184	13.41
501.385	13.39
501.585	13.4
501.785	13.41
501.985	13.42
502.185	13.45
502.386	13.39
502.586	13.44
502.786	13.53
502.986	13.62
503.186	13.6
503.386	13.56
503.586	13.62
503.786	13.66
503.987	13.7
504.187	13.68
504.387	13.68
504.587	13.71
504.787	13.68
504.987	13.66
505.187	13.62
505.387	13.59
505.587	13.63
505.786	13.6
505.986	13.6
506.186	13.62
506.386	13.72
506.586	13.76
506.786	13.73
506.986	13.77
507.186	13.8
507.386	13.8
507.585	13.95
507.785	13.94
507.985	14.04
508.185	14.14
508.384	14.15
508.584	14.13
508.784	14.08
508.984	14.23
509.183	14.25
509.383	14.26
509.583	14.38
509.782	14.31
509.982	14.43
510.182	14.41
510.381	14.42
510.581	14.48
510.781	14.49
510.98	14.6
511.18	14.55
511.379	14.59
511.579	14.64
511.778	14.57
511.978	14.71
512.177	14.78
512.377	14.8
512.576	14.87
512.776	14.85
512.975	15.04
513.175	15.18
513.374	15.22
513.573	15.34
513.773	15.52
513.972	15.67
514.172	15.75
514.371	15.88
514.57	16.03
514.77	16.05
514.969	16.19
515.168	16.19
515.367	16.22
515.567	16.38
515.766	16.37
515.965	16.4
516.164	16.39
516.364	16.38
516.563	16.26
516.762	16.27
516.961	16.28
517.16	16.31
517.359	16.36
517.559	16.38
517.758	16.36
517.957	16.34
518.156	16.35
518.355	16.38
518.554	16.38
518.753	16.44
518.952	16.54
519.151	16.63
519.35	16.68
519.549	16.71
519.748	16.74
519.947	16.84
520.146	16.96
520.345	16.99
520.544	17.1
520.743	17.2
520.942	17.3
521.141	17.27
521.339	17.39
521.538	17.43
521.737	17.5
521.936	17.49
522.135	17.55
522.333	17.59
522.532	17.67
522.731	17.78
522.93	17.86
523.129	17.94
523.327	18.04
523.526	18.04
523.725	18.16
523.923	18.21
524.122	18.34
524.321	18.38
524.519	18.4
524.718	18.39
524.917	18.36
525.115	18.41
525.314	18.43
525.512	18.51
525.711	18.59
525.909	18.64
526.108	18.66
526.306	18.64
526.505	18.68
526.703	18.77
526.902	18.81
527.1	18.83
527.299	18.88
527.497	18.89
527.696	18.89
527.894	18.88
528.092	18.88
528.291	18.88
528.489	18.94
528.688	18.97
528.886	18.99
529.084	19.07
529.283	19.12
529.481	19.14
529.679	19.21
529.877	19.3
530.076	19.38
530.274	19.42
530.472	19.51
530.67	19.64
530.869	19.72
531.067	19.81
531.265	19.89
531.463	19.97
531.661	20.01
531.859	20.07
532.057	20.07
532.255	20.14
532.454	20.2
532.652	20.25
532.85	20.25
533.048	20.31
533.246	20.34
533.444	20.36
533.642	20.4
533.84	20.46
534.038	20.51
534.236	20.6
534.434	20.64
534.632	20.69
534.83	20.77
535.027	20.83
535.225	20.88
535.423	20.96
535.621	21.02
535.819	21.06
536.017	21.17
536.215	21.17
536.412	21.22
536.61	21.28
536.808	21.31
537.006	21.37
537.203	21.44
537.401	21.51
537.599	21.56
537.797	21.62
537.994	21.74
538.192	21.77
538.39	21.86
538.587	21.91
538.785	21.93
538.983	21.98
539.18	22.06
539.378	22.09
539.575	22.12
539.773	22.17
539.97	22.16
540.168	22.15
540.366	22.17
540.563	22.18
540.761	22.18
540.958	22.22
541.155	22.28
541.353	22.26
541.55	22.28
541.748	22.23
541.945	22.24
542.143	22.33
542.34	22.41
542.537	22.43
542.735	22.5
542.932	22.56
543.129	22.62
543.327	22.66
543.524	22.77
543.721	22.83
543.919	23.06
544.116	23.17
544.313	23.3
544.51	23.43
544.708	23.61
544.905	23.81
545.102	24.01
545.299	24.09
545.496	24.16
545.693	24.23
545.891	24.3
546.088	24.24
546.285	24.27
546.482	24.21
546.679	24.14
546.876	24.06
547.073	23.95
547.27	23.85
547.467	23.8
547.664	23.79
547.861	23.77
548.058	23.86
548.255	23.92
548.452	23.94
548.649	23.93
548.846	23.89
549.043	23.91
549.24	23.99
549.437	23.92
549.633	23.94
549.83	24.05
550.027	24.04
550.224	23.87
550.421	23.77
550.618	23.64
550.814	23.68
551.011	23.66
551.208	23.75
551.405	23.65
551.601	23.69
551.798	23.66
551.995	23.5
552.191	23.44
552.388	23.47
552.585	23.49
552.781	23.48
552.978	23.46
553.175	23.51
553.371	23.48
553.568	23.47
553.764	23.45
553.961	23.51
554.157	23.53
554.354	23.58
554.55	23.59
554.747	23.64
554.943	23.84
555.14	23.85
555.336	23.89
555.533	23.83
555.729	23.82
555.926	23.79
556.122	23.89
556.318	24.02
556.515	23.94
556.711	24.01
556.907	23.97
557.104	23.94
557.3	23.98
557.496	23.9
557.693	23.98
557.889	24.09
558.085	24.21
558.281	24.26
558.478	24.25
558.674	24.31
558.87	24.31
559.066	24.35
559.262	24.39
559.459	24.3
559.655	24.34
559.851	24.19
560.047	24.16
560.243	24.15
560.439	24.16
560.635	24.21
560.831	24.2
561.027	24.17
561.223	24.11
561.419	23.9
561.615	23.88
561.811	23.96
562.007	24.06
562.203	24.13
562.399	24.16
562.595	23.94
562.791	24.01
562.987	24.08
563.183	24.01
563.379	24.02
563.575	24.1
563.771	24.1
563.966	24.05
564.162	24.06
564.358	23.93
564.554	23.98
564.75	24.04
564.945	23.91
565.141	23.83
565.337	23.83
565.533	23.83
565.728	23.82
565.924	23.97
566.12	23.9
566.315	23.79
566.511	23.88
566.707	23.76
566.902	23.74
567.098	23.8
567.293	23.83
567.489	23.85
567.684	23.97
567.88	24
568.076	23.9
568.271	23.99
568.467	24.09
568.662	23.96
568.858	24.05
569.053	24
569.248	23.96
569.444	23.94
569.639	23.88
569.835	23.75
570.03	23.76
570.225	23.63
570.421	23.6
570.616	23.56
570.812	23.62
571.007	23.52
571.202	23.53
571.397	23.54
571.593	23.43
571.788	23.47
571.983	23.5
572.178	23.56
572.374	23.65
572.569	23.7
572.764	23.88
572.959	23.95
573.154	24.06
573.35	24.07
573.545	24.07
573.74	24.17
573.935	24.21
574.13	24.16
574.325	24.19
574.52	24.25
574.715	24.3
574.91	24.22
575.105	24.2
575.3	24.17
575.495	24.18
575.69	24.18
575.885	24.31
576.08	24.3
576.275	24.42
576.47	24.3
576.665	24.28
576.86	24.24
577.055	24.12
577.25	24.21
577.444	24.35
577.639	24.5
577.834	24.52
578.029	24.61
578.224	24.75
578.418	24.84
578.613	24.92
578.808	25.08
579.003	25.21
579.197	25.4
579.392	25.21
579.587	25.24
579.781	25.25
579.976	25.25
580.171	25.17
580.365	25.17
580.56	25.19
580.755	25.34
580.949	25.21
581.144	25.16
581.338	25.21
581.533	25.48
581.727	25.64
581.922	25.61
582.116	25.8
582.311	26
582.505	25.76
582.7	25.75
582.894	25.85
583.089	25.97
583.283	26
583.478	25.98
583.672	25.99
583.866	25.71
584.061	25.79
584.255	25.65
584.449	25.52
584.644	25.76
584.838	25.88
585.032	25.69
585.226	25.67
585.421	25.81
585.615	25.81
585.809	25.73
586.003	25.89
586.198	25.89
586.392	26.07
586.586	26.01
586.78	26.08
586.974	25.94
587.168	25.9
587.363	25.91
587.557	25.77
587.751	25.82
587.945	25.66
588.139	25.63
588.333	25.52
588.527	25.48
588.721	25.53
588.915	25.42
589.109	25.41
589.303	25.48
589.497	25.35
589.691	25.26
589.885	25.12
590.079	25.35
590.273	25.24
590.466	25.42
590.66	25.35
590.854	25.37
591.048	25.31
591.242	25.35
591.436	25.38
591.629	25.51
591.823	25.67
592.017	26.02
592.211	25.94
592.404	26.01
592.598	25.75
592.792	25.92
592.986	25.95
593.179	25.96
593.373	26
593.567	26.12
593.76	26.07
593.954	25.95
594.147	25.74
594.341	25.75
594.535	25.79
594.728	25.96
594.922	25.81
595.115	25.69
595.309	25.85
595.502	25.8
595.696	25.63
595.889	25.61
596.083	25.59
596.276	25.59
596.47	25.61
596.663	25.48
596.856	25.46
597.05	25.5
597.243	25.61
597.437	25.61
597.63	25.66
597.823	25.78
598.017	25.85
598.21	25.96
598.403	25.97
598.596	26.07
598.79	26.25
598.983	26.33
599.176	26.46
599.369	26.49
599.563	26.38
599.756	26.41
599.949	26.41
600.142	26.49
600.335	26.58
600.528	26.56
600.722	26.52
600.915	26.49
601.108	26.44
601.301	26.39
601.494	26.38
601.687	26.4
601.88	26.28
602.073	26.12
602.266	25.98
602.459	25.72
602.652	25.69
602.845	25.61
603.038	25.55
603.231	25.54
603.424	25.46
603.617	25.3
603.809	25.21
604.002	25.15
604.195	25.18
604.388	25.26
604.581	25.37
604.774	25.31
604.966	25.32
605.159	25.36
605.352	25.3
605.545	25.45
605.737	25.52
605.93	25.65
606.123	25.77
606.316	25.87
606.508	25.86
606.701	25.87
606.894	26.03
607.086	26.1
607.279	26.26
607.471	26.36
607.664	26.29
607.857	26.57
608.049	26.79
608.242	27.05
608.434	27.2
608.627	27.48
608.819	27.73
609.012	28.07
609.204	28.63
609.397	29.02
609.589	29.72
609.782	30.32
609.974	30.86
610.166	31.36
610.359	31.98
610.551	32.64
610.743	33.14
610.936	33.69
611.128	34.18
611.32	34.35
611.513	34.5
611.705	34.47
611.897	34.4
612.09	34.26
612.282	34.2
612.474	33.88
612.666	33.62
612.858	33.27
613.051	33.07
613.243	32.54
613.435	32.23
613.627	32.05
613.819	31.77
614.011	31.67
614.203	31.48
614.395	31.12
614.588	30.79
614.78	30.55
614.972	30.38
615.164	30.15
615.356	30.11
615.548	29.92
615.74	29.63
615.932	29.4
616.124	29.19
616.315	29.09
616.507	29.14
616.699	29.05
616.891	28.94
617.083	28.95
617.275	28.8
617.467	28.71
617.659	28.63
617.85	28.59
618.042	28.45
618.234	28.19
618.426	27.87
618.618	27.67
618.809	27.74
619.001	27.69
619.193	27.59
619.384	27.76
619.576	27.77
619.768	27.89
619.959	27.96
620.151	28.03
620.343	28.1
620.534	28.14
620.726	28.25
620.917	28.1
621.109	27.93
621.301	27.91
621.492	27.77
621.684	27.76
621.875	27.66
622.067	27.66
622.258	27.7
622.45	28.04
622.641	28.09
622.832	28.04
623.024	28.33
623.215	28.36
623.407	28.17
623.598	28.13
623.789	28.23
623.981	28.19
624.172	28.14
624.363	28.13
624.555	27.81
624.746	27.76
624.937	27.69
625.129	27.5
625.32	27.61
625.511	27.74
625.702	27.69
625.893	27.67
626.085	27.71
626.276	27.69
626.467	27.73
626.658	27.73
626.849	27.66
627.04	27.68
627.231	27.63
627.422	27.69
627.614	27.69
627.805	27.7
627.996	27.65
628.187	27.79
628.378	27.8
628.569	27.81
628.76	27.95
628.951	28.08
629.142	28.32
629.332	28.53
629.523	28.58
629.714	28.65
629.905	28.83
630.096	28.85
630.287	28.64
630.478	28.53
630.669	28.64
630.859	28.67
631.05	28.71
631.241	28.41
631.432	28.26
631.623	28.07
631.813	28.06
632.004	27.85
632.195	27.45
632.385	27.54
632.576	27.7
632.767	27.55
632.957	27.48
633.148	27.31
633.339	27.28
633.529	27.3
633.72	27.17
633.91	27.18
634.101	27.39
634.292	27.7
634.482	27.59
634.673	27.42
634.863	27.47
635.054	27.59
635.244	27.67
635.435	27.57
635.625	27.53
635.815	27.66
636.006	27.77
636.196	27.61
636.387	27.56
636.577	27.52
636.767	27.74
636.958	27.8
637.148	27.57
637.338	27.57
637.529	27.85
637.719	27.93
637.909	28.05
638.099	27.93
638.29	27.79
638.48	28.03
638.67	28.2
638.86	28.12
639.05	28.02
639.241	28.13
639.431	28.02
639.621	28.01
639.811	27.93
640.001	27.8
640.191	27.76
640.381	27.9
640.571	27.72
640.761	27.67
640.951	27.51
641.141	27.55
641.331	27.69
641.521	27.74
641.711	27.76
641.901	27.87
642.091	28.03
642.281	28.15
642.471	28.29
642.661	28.43
642.851	28.42
643.041	28.64
643.231	28.61
643.42	28.61
643.61	28.58
643.8	28.56
643.99	28.64
644.18	28.56
644.369	28.43
644.559	28.48
644.749	28.58
644.939	28.49
645.128	28.35
645.318	28.21
645.508	28.09
645.697	28.28
645.887	28.34
646.076	28.16
646.266	28.33
646.456	28.5
646.645	28.34
646.835	28.15
647.024	28.28
647.214	28.29
647.403	28.33
647.593	28.5
647.782	28.51
647.972	28.45
648.161	28.57
648.351	28.39
648.54	28.23
648.73	28.15
648.919	28.18
649.108	28.18
649.298	28.45
649.487	28.6
649.677	28.6
649.866	28.6
650.055	28.6
650.244	28.47
650.434	28.48
650.623	28.5
650.812	28.76
651.002	28.74
651.191	28.74
651.38	28.68
651.569	28.71
651.758	28.67
651.947	28.75
652.137	28.72
652.326	28.66
652.515	28.63
652.704	28.62
652.893	28.39
653.082	28.37
653.271	28.35
653.46	28.46
653.649	28.59
653.838	28.49
654.027	28.26
654.216	28.42
654.405	28.65
654.594	28.71
654.783	28.77
654.972	28.64
655.161	28.63
655.35	28.66
655.539	28.57
655.728	28.45
655.916	28.48
656.105	28.6
656.294	28.68
656.483	28.41
656.672	28.49
656.86	28.35
657.049	28.39
657.238	28.24
657.427	28.26
657.615	28.03
657.804	27.95
657.993	27.89
658.181	27.8
658.37	27.57
658.559	27.93
658.747	27.85
658.936	28.03
659.125	27.8
659.313	27.97
659.502	27.98
659.69	28.06
659.879	27.97
660.067	28.1
660.256	28.14
660.444	28.18
660.633	28.02
660.821	27.95
661.01	28
661.198	28.42
661.387	28.3
661.575	28.39
661.763	28.58
661.952	28.67
662.14	28.5
662.328	28.56
662.517	28.72
662.705	28.72
662.893	28.91
663.082	28.93
663.27	28.98
663.458	29.06
663.646	29
663.834	29.04
664.023	28.96
664.211	29.16
664.399	29.28
664.587	29.25
664.775	29.27
664.963	29.5
665.152	29.47
665.34	29.32
665.528	29.65
665.716	29.94
665.904	29.67
666.092	29.96
666.28	29.87
666.468	29.8
666.656	29.95
666.844	30.04
667.032	30.01
667.22	29.97
667.408	30.22
667.596	29.9
667.784	29.55
667.971	29.72
668.159	29.64
668.347	29.65
668.535	29.66
668.723	29.55
668.911	29.5
669.098	29.28
669.286	29.43
669.474	29.08
669.662	29.25
669.849	29.35
670.037	29.47
670.225	29.22
670.413	29.39
670.6	29.52
670.788	29.57
670.976	29.62
671.163	29.5
671.351	29.25
671.538	29.48
671.726	29.52
671.913	29.24
672.101	28.99
672.289	29.36
672.476	29.15
672.664	28.99
672.851	29.08
673.039	29.07
673.226	29.28
673.413	29.26
673.601	29.45
673.788	29.58
673.976	29.99
674.163	29.88
674.35	29.9
674.538	30.06
674.725	30.32
674.912	30.06
675.1	30.02
675.287	30.18
675.474	30.12
675.662	30.29
675.849	30.32
676.036	30.15
676.223	30.63
676.411	30.57
676.598	30.49
676.785	30.16
676.972	30.27
677.159	30.27
677.346	30.1
677.533	30.41
677.721	30.2
677.908	29.88
678.095	29.69
678.282	29.33
678.469	29.12
678.656	29.07
678.843	29.11
679.03	29.18
679.217	29.2
679.404	29.08
679.591	28.67
679.778	28.44
679.964	28.48
680.151	28.73
680.338	28.61
680.525	28.72
680.712	28.68
680.899	28.89
681.086	28.91
681.272	28.82
681.459	29.01
681.646	29.56
681.833	29.86
682.02	29.91
682.206	29.81
682.393	29.97
682.58	29.8
682.766	30.01
682.953	29.89
683.14	29.75
683.326	30.08
683.513	30.04
683.7	29.75
683.886	29.71
684.073	29.71
684.259	29.58
684.446	29.94
684.632	30.37
684.819	30.48
685.005	30.66
685.192	30.88
685.378	30.78
685.565	30.63
685.751	30.53
685.938	30.57
686.124	30.59
686.31	31.03
686.497	30.71
686.683	30.6
686.87	30.45
687.056	30.15
687.242	29.85
687.429	29.79
687.615	30.06
687.801	30
687.987	30.14
688.174	30.14
688.36	30.13
688.546	30.32
688.732	30.22
688.918	30.15
689.105	30.44
689.291	30.61
689.477	30.65
689.663	30.64
689.849	31.08
690.035	30.83
690.221	31.05
690.407	30.87
690.593	30.64
690.779	30.63
690.965	30.6
691.151	30.85
691.337	31.03
691.523	31.29
691.709	31.38
691.895	31.39
692.081	31.61
692.267	31.81
692.453	31.89
692.639	32.13
692.825	32.45
693.011	32.84
693.196	32.46
693.382	32.38
693.568	32.22
693.754	32.2
693.94	31.82
694.125	31.7
694.311	31.41
694.497	31.39
694.682	31.36
694.868	31.35
695.054	31.46
695.239	31.74
695.425	31.59
695.611	31.69
695.796	31.38
695.982	31.21
696.168	31.14
696.353	31.18
696.539	30.8
696.724	30.41
696.91	30.23
697.095	29.74
697.281	29.57
697.466	29.61
697.652	29.45
697.837	29.25
698.023	29.47
698.208	29.32
698.393	29.31
698.579	29.51
698.764	29.74
698.949	29.81
699.135	29.8
699.32	29.59
699.505	29.54
699.691	29.51
699.876	29.79
700.061	29.76
700.246	29.77
700.432	29.75
700.617	29.68
700.802	29.74
700.987	29.68
701.172	29.85
701.358	30.31
701.543	30.42
701.728	30.84
701.913	30.83
702.098	31.32
702.283	31.73
702.468	31.82
702.653	32.36
702.838	33
703.023	33.13
703.208	33.44
703.393	33.62
703.578	34.12
703.763	34.18
703.948	34.55
704.133	34.11
704.318	34.31
704.503	34.33
704.688	34.47
704.873	34.56
705.057	34.89
705.242	35.02
705.427	34.8
705.612	34.57
705.797	34.81
705.981	34.83
706.166	35.54
706.351	35.48
706.536	35.75
706.72	35.62
706.905	35.33
707.09	35.32
707.274	35.57
707.459	35.78
707.644	35.79
707.828	35.51
708.013	35.86
708.197	35.31
708.382	35.11
708.567	35.14
708.751	34.93
708.936	34.67
709.12	34.27
709.305	33.93
709.489	33.38
709.673	33.35
709.858	33.09
710.042	32.97
710.227	33.28
710.411	33.49
710.596	33.14
710.78	33.25
710.964	33.44
711.149	34.25
711.333	34.25
711.517	34.39
711.702	34.41
711.886	34.42
712.07	34.16
712.254	33.64
712.438	33.28
712.623	33.64
712.807	33.65
712.991	33.52
713.175	33.04
713.359	32.98
713.544	33.21
713.728	33.2
713.912	32.93
714.096	32.45
714.28	32.69
714.464	33.19
714.648	32.7
714.832	32.55
715.016	32.62
715.2	32.69
715.384	32.61
715.568	32.71
715.752	32.58
715.936	32.89
716.12	33.18
716.304	33.27
716.488	33.05
716.671	33.17
716.855	33.44
717.039	33.2
717.223	33.22
717.407	32.85
717.59	32.85
717.774	33.21
717.958	33.04
718.142	33.41
718.325	33.07
718.509	33.09
718.693	32.95
718.877	32.51
719.06	33.06
719.244	32.88
719.428	33.62
719.611	33.53
719.795	33.19
719.978	33.78
720.162	33.56
720.345	33.91
720.529	34.54
720.713	34.96
720.896	34.87
721.08	34.58
721.263	35.03
721.446	34.92
721.63	34.95
721.813	35.33
721.997	35.46
722.18	35.6
722.364	35.5
722.547	34.85
722.73	34.84
722.914	35.26
723.097	35.07
723.28	34.48
723.464	34.73
723.647	35
723.83	34.62
724.013	33.91
724.197	33.69
724.38	34.06
724.563	34.42
724.746	34.29
724.929	34.55
725.112	34.58
725.296	34.64
725.479	34.47
725.662	34.15
725.845	34.31
726.028	34.71
726.211	35.22
726.394	34.93
726.577	34.72
726.76	34.69
726.943	34
727.126	33.61
727.309	33.73
727.492	33.52
727.675	33.79
727.858	33.54
728.041	33.26
728.224	32.86
728.407	33.02
728.589	33.01
728.772	33.14
728.955	33.55
729.138	33.84
729.321	33.45
729.503	33.72
729.686	33.16
729.869	33.04
730.052	32.88
730.234	32.81
730.417	33.2
730.6	32.8
730.782	32.76
730.965	32.66
731.148	32.48
731.33	32.93
731.513	32.52
731.695	32.64
731.878	33.1
732.061	33.63
732.243	34
732.426	33.64
732.608	34.12
732.791	33.98
732.973	34.26
733.156	34.62
733.338	34.36
733.52	34.39
733.703	34.57
733.885	34.06
734.068	34.08
734.25	33.89
734.432	33.79
734.615	33.64
734.797	33.92
734.979	33.53
735.162	33.63
735.344	33.96
735.526	34.17
735.708	34.33
735.891	34.72
736.073	34.78
736.255	35.47
736.437	35.22
736.619	35.59
736.802	35.79
736.984	35.97
737.166	37.07
737.348	37.23
737.53	37.24
737.712	37.22
737.894	36.82
738.076	36.5
738.258	35.6
738.44	36.18
738.622	36.04
738.804	35.9
738.986	36.11
739.168	34.82
739.35	34.89
739.532	35.21
739.714	34.99
739.896	35.17
740.078	35.52
740.259	35.94
740.441	35.59
740.623	35.49
740.805	35.66
740.987	35.62
741.168	35.87
741.35	35.16
741.532	34.92
741.714	35.19
741.895	35.74
742.077	35.6
742.259	35.65
742.44	36.04
742.622	35.9
742.804	35.72
742.985	35.82
743.167	35.22
743.348	35.62
743.53	35.87
743.711	36.37
743.893	36.67
744.075	36.15
744.256	36.23
744.438	35.98
744.619	37.26
744.8	37.66
744.982	38.46
745.163	39.29
745.345	39.68
745.526	39.98
745.707	39.88
745.889	39.45
746.07	40.47
746.252	40.64
746.433	41.07
746.614	39.85
746.795	39.33
746.977	37.93
747.158	38.08
747.339	38.03
747.52	37.85
747.702	38.27
747.883	38.34
748.064	37.74
748.245	37.46
748.426	37.18
748.607	38.06
748.788	38.4
748.97	39.43
749.151	39.54
749.332	39.18
749.513	39.34
749.694	38.83
749.875	39.23
750.056	39.26
750.237	39.6
750.418	39.76
750.599	38.79
750.78	38.74
750.96	38.88
751.141	38.75
751.322	39.17
751.503	38.4
751.684	38.17
751.865	37.47
752.046	37.3
752.226	36.78
752.407	36.44
752.588	36.5
752.769	36.82
752.949	36.15
753.13	36.73
753.311	36.33
753.492	36.64
753.672	36.43
753.853	36.82
754.034	37
754.214	37.37
754.395	37.37
754.575	37.89
754.756	37.87
754.937	37.71
755.117	37.38
755.298	37.88
755.478	38.52
755.659	39.53
755.839	39.53
756.02	40.21
756.2	39.23
756.381	39.12
756.561	38.78
756.741	38.41
756.922	38.59
757.102	38.46
757.283	38.25
757.463	38.08
757.643	37.61
757.823	37.6
758.004	36.82
758.184	38.01
758.364	38.61
758.545	38.49
758.725	38.58
758.905	38.17
759.085	38.13
759.265	37.72
759.446	37.32
759.626	37.28
759.806	36.94
759.986	37.52
760.166	36.87
760.346	36.22
760.526	36.2
760.706	36.1
760.886	36.3
761.066	35.79
761.246	36.25
761.426	36.37
761.606	36.14
761.786	35.97
761.966	35.24
762.146	34.5
762.326	34.64
762.506	34.68
762.686	34.39
762.866	34.01
763.046	33.92
763.225	33.49
763.405	33.15
763.585	32.89
763.765	32.9
763.945	32.72
764.124	32.85
764.304	32.48
764.484	32.49
764.664	32.67
764.843	32.97
765.023	33.25
765.203	33.56
765.382	33.76
765.562	34.45
765.741	34.7
765.921	35.31
766.101	35.9
766.28	36.66
766.46	36.47
766.639	36.52
766.819	36.97
766.998	36.57
767.178	36.64
767.357	36.83
767.537	36.97
767.716	36.93
767.896	37.11
768.075	37.3
768.254	37.25
768.434	38.2
768.613	38.8
768.792	39.22
768.972	40.23
769.151	41.25
769.33	41.25
769.51	40.23
769.689	41.01
769.868	41.42
770.047	41.34
770.226	41.48
770.406	41.02
770.585	41.06
770.764	40.54
770.943	40.43
771.122	39.82
771.301	40.52
771.48	41.14
771.66	40.35
771.839	39.55
772.018	40.07
772.197	40.06
772.376	40.3
772.555	40.44
772.734	40.44
772.913	40.51
773.092	40.62
773.271	39.88
773.449	40.63
773.628	41.33
773.807	41.55
773.986	42.2
774.165	42.84
774.344	42.54
774.523	42.18
774.701	42.02
774.88	43.02
775.059	43.95
775.238	44.09
775.417	43.46
775.595	44.05
775.774	44.19
775.953	43.23
776.131	42.55
776.31	42.42
776.489	42.69
776.667	43.02
776.846	41.98
777.025	40.64
777.203	41.32
777.382	41.64
777.56	40.63
777.739	40.86
777.917	40.41
778.096	40.56
778.274	41.41
778.453	41.11
778.631	41.63
778.81	41.39
778.988	40.56
779.166	40.02
779.345	40.24
779.523	40.84
779.702	41.44
779.88	42.46
780.058	43.15
780.237	43.36
780.415	43.85
780.593	43.87
780.771	43.62
780.95	44.16
781.128	44.87
781.306	45.17
781.484	44.39
781.662	42.66
781.841	42.78
782.019	42.14
782.197	41.65
782.375	41.27
782.553	40.6
782.731	41.53
782.909	43.08
783.087	42.96
783.265	43.47
783.443	44.1
783.621	45.17
783.799	45.02
783.977	45.25
784.155	45.55
784.333	46.39
784.511	46.82
784.689	46.4
784.867	45.79
785.045	45.45
785.223	44.01
785.4	44.73
785.578	45.27
785.756	46.11
785.934	46.13
786.112	45.31
786.289	44.96
786.467	44.81
786.645	44.72
786.823	44.43
787	44.01
787.178	44
787.356	43.14
787.533	42.48
787.711	41.51
787.889	41.36
788.066	42.15
788.244	41.31
788.421	41.08
788.599	40.88
788.776	41.15
788.954	42.38
789.131	42.19
789.309	42.63
789.486	43.61
789.664	43.99
789.841	43.63
790.019	43.23
790.196	43.52
790.373	43.05
790.551	44.39
790.728	44.11
790.906	43.53
791.083	44.68
791.26	44.32
791.437	44.06
791.615	43.83
791.792	45.07
791.969	45.91
792.146	45.4
792.324	45.83
792.501	45.57
792.678	46.24
792.855	45.26
793.032	44.83
793.209	44.81
793.387	44.61
793.564	44.68
793.741	44.66
793.918	44.01
794.095	45.48
794.272	45.64
794.449	45.62
794.626	45.19
794.803	46.08
794.98	46.62
795.157	47.16
795.334	47.05
795.511	46.26
795.688	45.13
795.864	44.82
796.041	44.74
796.218	45.33
796.395	45.01
796.572	44.21
796.749	43.52
796.925	42.72
797.102	42.86
797.279	42.66
797.456	43.24
797.632	43.67
797.809	43.93
797.986	43.75
798.162	44.05
798.339	42.74
798.516	44.63
798.692	46.43
798.869	46.88
799.046	46.9
799.222	46.9
799.399	47.27
799.575	47.62
799.752	47.67
799.928	48.39
800.105	48.04
800.281	49.26
800.458	49.71
800.634	49.11
800.811	48.57
800.987	48.01
801.163	48.15
801.34	48.28
801.516	48.82
801.692	48.86
801.869	48.16
802.045	48.76
802.221	48.87
802.398	48.68
802.574	49.03
802.75	50.11
802.926	50.82
803.103	50.41
803.279	49.33
803.455	48.38
803.631	48.43
803.807	48.05
803.983	47.79
804.16	48.31
804.336	47.12
804.512	46.68
804.688	46.83
804.864	46.63
805.04	47.98
805.216	49.04
805.392	49.9
805.568	50.66
805.744	52.3
805.92	53.03
806.096	52.55
806.272	53.51
806.448	52.76
806.623	51.65
806.799	50.45
806.975	50.23
807.151	50.68
807.327	50.01
807.503	51.66
807.678	51.55
807.854	51.58
808.03	52.3
808.206	51.1
808.381	51.68
808.557	52.71
808.733	54.09
808.908	54.68
809.084	55.16
809.26	55.58
809.435	55.16
809.611	54.62
809.787	51.99
809.962	52.74
810.138	53.14
810.313	53.55
810.489	53.01
810.664	51.95
810.84	51.48
811.015	51.27
811.191	51.53
811.366	50.56
811.542	50.61
811.717	52.19
811.892	50.69
812.068	52.11
812.243	51.71
812.419	52.24
812.594	52.32
812.769	53.01
812.944	51.91
813.12	50.99
813.295	51.31
813.47	50.72
813.645	49.31
813.821	50.19
813.996	47.53
814.171	48.02
814.346	47.51
814.521	49
814.697	48.74
814.872	50.5
815.047	52.12
815.222	51.05
815.397	50.84
815.572	51.93
815.747	49.8
815.922	50.23
816.097	49.59
816.272	50.24
816.447	50.04
816.622	49
816.797	47.94
816.972	47.5
817.147	47.19
817.322	47.89
817.496	47.66
817.671	49.7
817.846	49.96
818.021	49.2
818.196	49.24
818.371	48.07
818.545	48.02
818.72	47.82
818.895	46.91
819.069	45.5
819.244	44.27
819.419	42.98
819.594	41.92
819.768	40.75
819.943	40.22
820.117	38.11
820.292	37.07
820.467	35.88
820.641	34.64
820.816	33.27
820.99	32.56
821.165	31.29
821.339	30.97
821.514	30.09
821.688	29.55
821.863	28.78
822.037	28.21
822.212	27.9
822.386	27.5
822.56	27.22
822.735	27.18
822.909	27.03
823.084	27.08
823.258	27.01
823.432	27.09
823.606	27.03
823.781	27.49
823.955	27.78
824.129	27.92
824.303	28.33
824.478	28.31
824.652	28.63
824.826	28.88
825	29.14
825.174	29.57
825.348	29.47
825.523	29.73
825.697	29.62
825.871	30.34
826.045	30.86
826.219	30.72
826.393	31.43
826.567	31.08
826.741	31.68
826.915	31.78
827.089	31.88
827.263	31.76
827.437	32.11
827.611	32.4
827.784	32.03
827.958	31.74
828.132	32.13
828.306	32.16
828.48	33.05
828.654	33.57
828.827	34.81
829.001	35.14
829.175	36.73
829.349	38.5
829.522	39.2
829.696	40.45
829.87	41.36
830.044	43.2
830.217	44.59
830.391	44.78
830.565	44.43
830.738	44.71
830.912	45.79
831.085	45.47
831.259	44.87
831.432	45.59
831.606	45.98
831.779	44.92
831.953	43.45
832.126	42.22
832.3	42.42
832.473	41.43
832.647	38.93
832.82	38.09
832.994	38.06
833.167	37.43
833.34	36.59
833.514	35.94
833.687	35.96
833.86	35.18
834.034	35.26
834.207	35.39
834.38	35.91
834.553	36.44
834.727	36.95
834.9	36.57
835.073	36.62
835.246	36.84
835.419	38.01
835.593	39.48
835.766	40.43
835.939	41.84
836.112	42.34
836.285	43.6
836.458	44.75
836.631	45.67
836.804	48.57
836.977	49.54
837.15	51.4
837.323	53.01
837.496	53.05
837.669	54.67
837.842	55.15
838.015	56.31
838.188	56.47
838.361	57.65
838.533	56.19
838.706	55.09
838.879	56.22
839.052	56.51
839.225	55.13
839.398	56.29
839.57	57.52
839.743	57.86
839.916	58.32
840.088	58.83
840.261	58.4
840.434	59.6
840.607	60.12
840.779	58.75
840.952	57.24
841.124	57.09
841.297	56.22
841.47	54.87
841.642	54.6
841.815	54.61
841.987	55.59
842.16	58.38
842.332	60.2
842.505	60.31
842.677	63.07
842.85	65.4
843.022	66.98
843.194	70.51
843.367	73.01
843.539	74.71
843.712	75.14
843.884	74.18
844.056	72.82
844.229	71.24
844.401	73.23
844.573	77.3
844.745	79.68
844.918	80.63
845.09	77.6
845.262	78.01
845.434	79.45
845.606	83.03
845.779	85.21
845.951	87.59
846.123	88.12
846.295	90.92
846.467	87.2
846.639	86.61
846.811	87.66
846.983	92.09
847.155	91.11
847.327	92.38
847.499	89.91
847.671	90.6
847.843	88.08
848.015	92.18
848.187	88.6
848.359	86.44
848.531	86.25
848.703	84.97
848.875	85.33
849.047	85.95
849.218	85.74
849.39	84.48
849.562	86.6
849.734	88.43
849.905	84.44
850.077	86.45
850.249	88.12
850.421	92.76
850.592	95.25
850.764	97.85
850.936	102.25
851.107	102.55
851.279	102.31
851.451	99.33
851.622	101.18
851.794	107.87
851.965	108.73
852.137	112.32
852.308	108.39
852.48	105.66
852.651	102.53
852.823	99.17
852.994	98.92
853.166	103.2
853.337	108.06
853.509	106.49
853.68	103.59
853.851	97.3
854.023	98.46
854.194	98.57
854.365	98.4
854.537	101.05
854.708	102.06
854.879	103.84
855.05	105.87
855.222	100.93
855.393	102.14
855.564	98.07
855.735	103.47
855.906	102.2
856.078	104.38
856.249	104.96
856.42	101.97
856.591	100.58
856.762	99.3
856.933	96.65
857.104	97.53
857.275	97.57
857.446	100.84
857.617	100.71
857.788	102.08
857.959	97.72
858.13	102
858.301	102.26
858.472	100.52
858.643	96.49
858.814	97.03
858.985	97.54
859.155	100.8
859.326	101.59
859.497	100.82
859.668	98.73
859.839	107.07
860.009	105.68
860.18	106.68
860.351	110.97
860.522	116.94
860.692	110.39
860.863	113.38
861.034	110.14
861.204	112.41
861.375	109.48
861.546	114.06
861.716	113.65
861.887	109.25
862.057	109.05
862.228	108.24
862.398	107.44
862.569	112.64
862.739	114.44
862.91	112.42
863.08	106.21
863.251	106.05
863.421	100.65
863.592	96.1
863.762	102.12
863.932	97.97
864.103	101.45
864.273	98.78
864.443	97.7
864.614	94.15
864.784	95.26
864.954	99.74
865.125	99.13
865.295	101.11
865.465	105.28
865.635	104.73
865.805	106.78
865.976	103.82
866.146	104.21
866.316	103.45
866.486	104.66
866.656	106.09
866.826	106.46
866.996	114.98
867.166	115.4
867.336	113.2
867.506	115.21
867.676	119.94
867.846	118.77
868.016	122.64
868.186	121.87
868.356	117.74
868.526	116.88
868.696	120.14
868.866	111.57
869.036	115.28
869.206	118.81
869.376	109.35
869.545	106.37
869.715	110.28
869.885	107.6
870.055	109.88
870.224	111.55
870.394	111.48
870.564	108.88
870.734	115.1
870.903	112.33
871.073	110.56
871.243	112.95
871.412	114.97
871.582	113.87
871.751	116.71
871.921	114.24
872.091	115.96
872.26	113.7
872.43	116.14
872.599	112.51
872.769	113.54
872.938	109.23
873.108	109.15
873.277	104.48
873.446	104.69
873.616	105.09
873.785	108.44
873.955	106.47
874.124	110.45
874.293	107.05
874.463	107.15
874.632	105.24
874.801	106.67
874.971	108.18
875.14	114.93
875.309	109.41
875.478	112.21
875.647	107.39
875.817	108.92
875.986	104.18
876.155	105.84
876.324	101.32
876.493	99.02
876.662	101.12
876.831	99.7
877	93.85
877.17	92.92
877.339	91.92
877.508	92.19
877.677	94.92
877.846	93.57
878.015	90.2
878.184	92.66
878.352	94.72
878.521	92.27
878.69	91.36
878.859	94.86
879.028	94.26
879.197	88.03
879.366	86.44
879.534	79.72
879.703	74.48
879.872	69.59
880.041	65.9
880.21	58.62
880.378	54.62
880.547	51.11
880.716	46.75
880.884	44.25
881.053	42.37
881.222	39.99
881.39	37.76
881.559	35.72
881.727	34.03
881.896	33.55
882.065	33.67
882.233	32.39
882.402	31.57
882.57	31.76
882.739	31.71
882.907	31.25
883.076	32.12
883.244	32.72
883.412	33.51
883.581	33.84
883.749	33.85
883.918	34.18
884.086	36.11
884.254	37.88
884.423	37.72
884.591	38.97
884.759	40.92
884.927	42.37
885.096	43.72
885.264	45.82
885.432	49.95
885.6	53.68
885.769	55.72
885.937	56.77
886.105	58.67
886.273	63.12
886.441	66.67
886.609	69.28
886.777	68.84
886.945	71.33
887.113	74.73
887.281	72.22
887.449	73.87
887.617	78.15
887.785	79.16
887.953	80.51
888.121	81.85
888.289	83.96
888.457	85.45
888.625	89.3
888.793	91.09
888.961	95.78
889.129	99.7
889.296	98.35
889.464	97.08
889.632	100.07
889.8	99.96
889.967	102.62
890.135	102.5
