Data from 2938789__Reflection_03.txt Node
Date: Fri Mar 13 11:32:07 EDT 2015
User: robert
Spectrometer: USB4E03002
Autoset integration time: false
Trigger mode: 4
Integration Time (sec): 1.000000E-1
Scans to average: 10
Electric dark correction enabled: false
Nonlinearity correction enabled: false
Boxcar width: 5
Stray light correction enabled: false
XAxis mode: Wavelengths
Stop averaging: false
Number of Pixels in Spectrum: 3648
>>>>>Begin Spectral Data<<<<<
177.575	-784.17
177.794	-8564.29
178.014	-1242.61
178.233	-892.86
178.452	-575
178.672	-423.89
178.891	-464.72
179.11	-453.14
179.33	-430.96
179.549	-526.39
179.768	-598.16
179.987	-965.81
180.207	-637.93
180.426	-1022.06
180.645	-1879.49
180.864	-7251.22
181.084	2320.15
181.303	3440.45
181.522	1729.94
181.741	4077.03
181.96	1631.82
182.179	729.44
182.398	624.47
182.618	480.62
182.837	507.28
183.056	383.13
183.275	378.81
183.494	411.56
183.713	370.75
183.932	379.64
184.151	351.89
184.37	418.28
184.589	491.62
184.808	602.78
185.027	630.8
185.246	678.25
185.465	2378.63
185.684	1196.19
185.903	1430.05
186.122	1593.85
186.341	5462.75
186.56	2393.1
186.779	3396.39
186.998	1689.66
187.216	-4253.13
187.435	-1028.19
187.654	-1109.56
187.873	-1519.89
188.092	-3917.39
188.311	19869.23
188.53	-3277.78
188.748	8440.63
188.967	-1334.87
189.186	-1483.14
189.405	-761.14
189.623	-2630.39
189.842	5938.3
190.061	2040
190.28	2946.74
190.498	-1612.94
190.717	-1275.23
190.936	-1021.48
191.154	-658.94
191.373	-1961.07
191.592	-1641.86
191.81	-1324.29
192.029	-1172.4
192.248	-1130.52
192.466	-4338.03
192.685	-21978.57
192.904	-1139.15
193.122	-5350.91
193.341	1234
193.559	706.44
193.778	837.89
193.996	649.42
194.215	708.42
194.433	692.56
194.652	630.34
194.87	1203.6
195.089	928.38
195.307	479.28
195.526	536.85
195.744	613.01
195.963	524.79
196.181	453.18
196.399	512.21
196.618	423.86
196.836	454.91
197.055	490.97
197.273	511.58
197.491	592.04
197.71	544.36
197.928	797.65
198.146	863.67
198.365	7878.13
198.583	-4866.04
198.801	-1888.64
199.019	-1947.66
199.238	-5028
199.456	1873.83
199.674	1008.28
199.892	804.8
200.111	1304.72
200.329	1233.33
200.547	1060.07
200.765	718.32
200.983	627.17
201.202	648.26
201.42	802.35
201.638	889.94
201.856	1461.22
202.074	1788.54
202.292	-4372.58
202.51	17325
202.728	9241.38
202.946	-3314.29
203.165	-3358.75
203.383	5496.15
203.601	2154.81
203.819	5090.91
204.037	1041.01
204.255	1076.4
204.473	1238.71
204.691	712.25
204.909	629.74
205.127	615.08
205.345	690.98
205.562	907.42
205.78	1075.3
205.998	1074.89
206.216	658.42
206.434	974.9
206.652	623.26
206.87	661.93
207.088	593.87
207.306	823.03
207.523	715.12
207.741	565.75
207.959	498.03
208.177	709.87
208.395	748
208.612	1073.85
208.83	762.16
209.048	854.26
209.266	1097.98
209.483	1038.25
209.701	1087.45
209.919	1640.61
210.136	1265.92
210.354	1051.69
210.572	754.76
210.79	567.82
211.007	568.65
211.225	676.92
211.442	710.13
211.66	500.67
211.878	518.8
212.095	-1300.82
212.313	-3580.85
212.53	-2209.33
212.748	-1545.85
212.966	-2748.72
213.183	-1884.34
213.401	-2963.39
213.618	6383.64
213.836	-20876.47
214.053	-11254.84
214.271	13938.46
214.488	347.1
214.705	346.84
214.923	298.94
215.14	325.77
215.358	363.35
215.575	400.12
215.793	375.7
216.01	523.06
216.227	458.42
216.445	492.64
216.662	509
216.879	716.81
217.097	603.14
217.314	542.67
217.531	345.03
217.749	291.42
217.966	256.02
218.183	223.99
218.4	218.72
218.618	235.24
218.835	210.75
219.052	208.78
219.269	170.21
219.487	170.6
219.704	184.14
219.921	188.01
220.138	193.16
220.355	195.09
220.572	185.91
220.79	170.36
221.007	152.65
221.224	164.78
221.441	159.22
221.658	160.89
221.875	154.95
222.092	149.02
222.309	145.53
222.526	138.86
222.743	132.6
222.96	132.83
223.177	130.49
223.394	131.83
223.611	121.68
223.828	114.9
224.045	114.07
224.262	116.69
224.479	108.85
224.696	105.04
224.913	101.23
225.13	97.08
225.347	89.51
225.564	86.02
225.781	79.99
225.997	73.05
226.214	67.08
226.431	59.21
226.648	49.87
226.865	46.35
227.082	42
227.298	36.47
227.515	31.45
227.732	29.67
227.949	26
228.165	24.23
228.382	23.1
228.599	23.37
228.816	23.43
229.032	22.46
229.249	21.35
229.466	20.45
229.682	20.56
229.899	21.7
230.116	20.85
230.332	21.69
230.549	22.04
230.765	23.69
230.982	23.52
231.199	24.5
231.415	27.28
231.632	29.74
231.848	31.83
232.065	33.88
232.281	34.15
232.498	34.4
232.714	34.08
232.931	34.56
233.147	33.71
233.364	33.66
233.58	32.55
233.797	31.04
234.013	30.12
234.23	29.36
234.446	28.26
234.662	27.34
234.879	29.7
235.095	29.84
235.312	28.75
235.528	30.23
235.744	30.6
235.961	30.32
236.177	30.68
236.393	31.01
236.61	30.65
236.826	30.1
237.042	31.03
237.258	29.65
237.475	29.86
237.691	31.4
237.907	29.81
238.123	30.04
238.339	32.16
238.556	32.06
238.772	31.38
238.988	32.8
239.204	33.28
239.42	31.85
239.636	31.45
239.853	29.94
240.069	27.79
240.285	26.57
240.501	24.31
240.717	22.66
240.933	21.49
241.149	20.48
241.365	18.56
241.581	17.54
241.797	17.38
242.013	16.23
242.229	15.97
242.445	15.51
242.661	15.17
242.877	15.79
243.093	15.88
243.309	15.98
243.525	16.29
243.741	16.77
243.957	17.26
244.173	17.39
244.388	17.73
244.604	18.46
244.82	18.95
245.036	18.82
245.252	17.98
245.468	16.52
245.683	16
245.899	14.59
246.115	13.87
246.331	12.89
246.547	12.79
246.762	12.46
246.978	11.8
247.194	11.71
247.409	11.5
247.625	11.4
247.841	11.5
248.057	11.49
248.272	11.91
248.488	12.04
248.703	12.39
248.919	12.5
249.135	12.89
249.35	14.06
249.566	14.84
249.782	15.3
249.997	15.99
250.213	16.34
250.428	16.61
250.644	17.27
250.859	17.67
251.075	17.38
251.29	17.55
251.506	17.25
251.721	16.35
251.937	15.87
252.152	16.04
252.368	16.11
252.583	16.62
252.798	16.72
253.014	16.68
253.229	16.7
253.445	17.19
253.66	16.78
253.875	17.62
254.091	18.48
254.306	18.89
254.521	20.56
254.737	21.27
254.952	20.4
255.167	19.93
255.383	19.09
255.598	19.08
255.813	19.37
256.028	18.9
256.244	17.82
256.459	18.21
256.674	17.13
256.889	15.53
257.104	14.71
257.32	14.76
257.535	14.78
257.75	14.31
257.965	13.9
258.18	12.92
258.395	12.28
258.61	11.93
258.826	10.41
259.041	10.35
259.256	9.91
259.471	9.27
259.686	9.02
259.901	8.54
260.116	8.61
260.331	8.28
260.546	8.55
260.761	8.78
260.976	8.94
261.191	9.02
261.406	9.1
261.621	9.63
261.836	10.07
262.05	10.55
262.265	11.2
262.48	11.96
262.695	13.07
262.91	13.75
263.125	14.01
263.34	13.83
263.555	15.01
263.769	15.73
263.984	14.91
264.199	15.06
264.414	14.72
264.629	14.87
264.843	14.74
265.058	14.54
265.273	13.75
265.488	13.18
265.702	13.12
265.917	12.9
266.132	12.64
266.346	12.78
266.561	12.58
266.776	12.43
266.99	12.61
267.205	11.87
267.42	11.58
267.634	11.24
267.849	11.66
268.063	11.59
268.278	11.68
268.492	11.61
268.707	11.67
268.922	11.41
269.136	11.39
269.351	10.69
269.565	10.61
269.78	10.11
269.994	10.13
270.209	9.54
270.423	9.14
270.637	8.41
270.852	8.07
271.066	7.81
271.281	8.3
271.495	8.41
271.709	8.61
271.924	8.77
272.138	9.09
272.353	9.09
272.567	9.55
272.781	10.03
272.996	10.22
273.21	10.38
273.424	10.47
273.638	10.14
273.853	10.12
274.067	9.98
274.281	10.05
274.495	10.2
274.71	10.35
274.924	10.38
275.138	10.47
275.352	10.34
275.566	10.35
275.781	10.49
275.995	11.17
276.209	11.69
276.423	12.02
276.637	12.2
276.851	12.34
277.065	12.3
277.279	11.8
277.493	11.58
277.707	11.96
277.921	11.81
278.135	11.86
278.349	11.3
278.563	11.02
278.777	10.68
278.991	10.3
279.205	10.07
279.419	10.34
279.633	10.3
279.847	10.31
280.061	10.51
280.275	10.02
280.489	10.13
280.703	10.23
280.917	9.94
281.131	10.09
281.344	9.88
281.558	9.66
281.772	9.76
281.986	9.92
282.2	9.89
282.414	9.72
282.627	9.69
282.841	9.68
283.055	9.7
283.269	9.91
283.482	9.74
283.696	9.72
283.91	9.7
284.123	8.97
284.337	8.75
284.551	8.33
284.764	8.13
284.978	7.96
285.192	7.68
285.405	7.67
285.619	7.24
285.833	7.12
286.046	7.36
286.26	7.28
286.473	7.63
286.687	7.54
286.9	7.91
287.114	7.85
287.327	8.04
287.541	8.37
287.754	8.53
287.968	9.08
288.181	9.25
288.395	9.09
288.608	8.92
288.822	8.84
289.035	8.91
289.248	8.52
289.462	8.52
289.675	8.4
289.889	8.23
290.102	7.65
290.315	7.38
290.529	7.29
290.742	7.13
290.955	7.33
291.169	7.5
291.382	7.94
291.595	8.32
291.808	8.78
292.022	9.38
292.235	9.35
292.448	9.83
292.661	9.88
292.875	10.18
293.088	10.32
293.301	10.23
293.514	10.01
293.727	9.5
293.94	9.48
294.153	9.19
294.367	9.06
294.58	8.97
294.793	8.79
295.006	8.75
295.219	8.47
295.432	8.61
295.645	8.8
295.858	8.56
296.071	8.39
296.284	8.16
296.497	8.04
296.71	7.82
296.923	7.97
297.136	8.02
297.349	7.74
297.562	7.77
297.775	7.66
297.988	7.69
298.201	7.97
298.414	8.25
298.626	8.36
298.839	8.38
299.052	8.42
299.265	8.62
299.478	8.58
299.691	9.41
299.903	9.78
300.116	10.01
300.329	9.75
300.542	9.59
300.755	9.5
300.967	9.81
301.18	9.86
301.393	10.11
301.605	10.02
301.818	10.17
302.031	9.77
302.243	9.62
302.456	9.59
302.669	10.02
302.881	10.13
303.094	10.59
303.307	10.43
303.519	10.25
303.732	10.31
303.944	10.15
304.157	10.07
304.37	9.93
304.582	9.99
304.795	10.29
305.007	9.94
305.22	10.41
305.432	10.07
305.645	10.19
305.857	10.74
306.069	11.05
306.282	10.87
306.494	10.91
306.707	11.1
306.919	11.15
307.132	10.84
307.344	11.1
307.556	10.8
307.769	10.78
307.981	10.3
308.193	9.94
308.406	9.53
308.618	9.84
308.83	9.64
309.043	9.47
309.255	9.18
309.467	9.11
309.679	9.09
309.892	9
310.104	9.08
310.316	9.44
310.528	9.59
310.74	9.67
310.953	9.43
311.165	9.93
311.377	10.16
311.589	10.51
311.801	10.62
312.013	10.72
312.225	10.78
312.437	10.89
312.649	10.9
312.862	11.04
313.074	11.24
313.286	11.48
313.498	11.44
313.71	11.53
313.922	11.31
314.134	11.61
314.346	11.91
314.558	11.88
314.77	11.96
314.982	12.22
315.193	12.43
315.405	12.47
315.617	12.58
315.829	12.65
316.041	13.13
316.253	13.05
316.465	12.99
316.677	12.56
316.888	12.69
317.1	13.01
317.312	12.91
317.524	12.99
317.736	13.22
317.947	14.19
318.159	14.25
318.371	13.81
318.583	14.14
318.794	14.5
319.006	14.96
319.218	15.13
319.43	14.92
319.641	14.86
319.853	14.7
320.064	14.92
320.276	14.03
320.488	14.28
320.699	14.2
320.911	14.68
321.123	14.67
321.334	14.63
321.546	14.99
321.757	15.45
321.969	15.88
322.18	16.16
322.392	15.89
322.603	16.4
322.815	16.28
323.026	16.7
323.238	16.49
323.449	15.64
323.661	15.56
323.872	15.68
324.083	15.37
324.295	15.01
324.506	14.88
324.718	14.75
324.929	14.46
325.14	14.44
325.352	14.16
325.563	14.71
325.774	15.29
325.986	15.5
326.197	15.74
326.408	16.31
326.62	16.96
326.831	16.93
327.042	17.54
327.253	18.15
327.464	18.64
327.676	18.97
327.887	18.99
328.098	19.32
328.309	19.45
328.52	19.44
328.732	19.03
328.943	19.08
329.154	19.84
329.365	19.96
329.576	19.87
329.787	20.25
329.998	21.03
330.209	21.2
330.42	21.25
330.631	21.89
330.842	22.06
331.053	22.75
331.264	22.48
331.475	22.01
331.686	22.06
331.897	21.97
332.108	21.64
332.319	21.29
332.53	21.39
332.741	21.33
332.952	20.92
333.163	20.84
333.374	20.9
333.585	21.27
333.795	21.59
334.006	21.44
334.217	21.48
334.428	21.28
334.639	21.27
334.849	20.88
335.06	21.2
335.271	21.27
335.482	21.52
335.692	21.01
335.903	21
336.114	20.51
336.325	20.73
336.535	20.61
336.746	20.66
336.957	20.63
337.167	20.77
337.378	20.84
337.589	20.92
337.799	20.5
338.01	20.72
338.22	20.52
338.431	20.97
338.642	20.68
338.852	20.81
339.063	20.92
339.273	20.94
339.484	20.66
339.694	20.44
339.905	20.64
340.115	20.52
340.326	20.56
340.536	20.87
340.746	20.74
340.957	20.72
341.167	20.77
341.378	20.89
341.588	20.7
341.799	20.97
342.009	20.7
342.219	20.24
342.43	20.5
342.64	20.56
342.85	20.2
343.061	20.08
343.271	20.15
343.481	20.22
343.691	20.22
343.902	20.69
344.112	20.57
344.322	20.73
344.532	20.74
344.743	20.36
344.953	20.03
345.163	19.73
345.373	19.64
345.583	19.48
345.793	19.35
346.004	19.28
346.214	18.68
346.424	18.74
346.634	18.75
346.844	18.72
347.054	19.13
347.264	19.35
347.474	19.77
347.684	19.89
347.894	20.01
348.104	20.27
348.314	19.97
348.524	19.85
348.734	19.92
348.944	19.91
349.154	19.76
349.364	19.56
349.574	19.45
349.784	19.3
349.994	19.15
350.204	18.98
350.413	18.86
350.623	18.85
350.833	19.09
351.043	18.8
351.253	18.81
351.463	18.81
351.672	19.17
351.882	18.99
352.092	18.92
352.302	19.08
352.511	19.18
352.721	19.01
352.931	18.99
353.141	19.04
353.35	19.11
353.56	18.86
353.77	19.12
353.979	18.79
354.189	18.87
354.399	18.95
354.608	18.97
354.818	18.91
355.027	18.92
355.237	18.94
355.447	18.98
355.656	19.11
355.866	19.11
356.075	19.01
356.285	19.16
356.494	19.31
356.704	19.24
356.913	19.03
357.123	19.12
357.332	18.93
357.542	18.73
357.751	18.69
357.96	18.51
358.17	18.54
358.379	18.45
358.589	18.2
358.798	18.07
359.007	18.06
359.217	18.15
359.426	17.81
359.635	17.94
359.845	17.96
360.054	17.6
360.263	17.49
360.472	17.38
360.682	17.27
360.891	17.19
361.1	16.96
361.309	16.86
361.519	16.95
361.728	17.02
361.937	16.87
362.146	16.9
362.355	17.03
362.564	17.2
362.774	17.27
362.983	17.12
363.192	17.15
363.401	17.25
363.61	17.31
363.819	17.31
364.028	17.38
364.237	17.53
364.446	17.58
364.655	17.55
364.864	17.18
365.073	17.16
365.282	17.23
365.491	17.17
365.7	16.93
365.909	16.85
366.118	16.69
366.327	16.68
366.536	16.47
366.745	16.38
366.954	16.58
367.162	16.91
367.371	16.83
367.58	16.9
367.789	16.77
367.998	16.92
368.207	16.89
368.415	16.91
368.624	16.86
368.833	16.85
369.042	17.02
369.25	16.98
369.459	16.91
369.668	16.78
369.877	16.48
370.085	16.48
370.294	16.71
370.503	16.79
370.711	16.63
370.92	16.43
371.129	16.48
371.337	16.21
371.546	15.95
371.754	15.97
371.963	16
372.171	16.2
372.38	16.36
372.589	15.98
372.797	15.88
373.006	15.82
373.214	15.77
373.423	15.67
373.631	15.74
373.84	15.83
374.048	15.53
374.256	15.44
374.465	15.48
374.673	15.34
374.882	15.47
375.09	15.62
375.298	15.53
375.507	15.71
375.715	15.6
375.923	15.44
376.132	15.36
376.34	15.32
376.548	15.06
376.757	14.98
376.965	15.09
377.173	14.94
377.381	14.46
377.59	14.7
377.798	14.49
378.006	14.38
378.214	14.38
378.423	14.14
378.631	14.1
378.839	14.36
379.047	14.26
379.255	14.05
379.463	14.28
379.671	14.47
379.879	14.25
380.088	14.15
380.296	14.36
380.504	14.26
380.712	14.21
380.92	14.41
381.128	14.37
381.336	14.2
381.544	14.2
381.752	13.72
381.96	13.59
382.168	13.42
382.376	13.32
382.584	13.18
382.791	13.14
382.999	13.19
383.207	13
383.415	13.05
383.623	13.07
383.831	12.86
384.039	13.01
384.247	13.08
384.454	13.15
384.662	13.21
384.87	12.94
385.078	13.01
385.285	12.76
385.493	12.52
385.701	12.23
385.909	12.19
386.116	12.29
386.324	12.17
386.532	11.93
386.739	11.77
386.947	11.6
387.155	11.73
387.362	11.61
387.57	11.72
387.778	11.79
387.985	12.05
388.193	12.08
388.4	11.85
388.608	11.97
388.816	11.97
389.023	12.14
389.231	12.38
389.438	12.24
389.646	12.29
389.853	12.14
390.061	12.12
390.268	12
390.475	11.89
390.683	11.98
390.89	11.75
391.098	11.8
391.305	11.77
391.512	11.56
391.72	11.78
391.927	11.6
392.135	11.77
392.342	11.81
392.549	11.78
392.756	11.68
392.964	11.69
393.171	11.72
393.378	11.62
393.586	11.3
393.793	11.23
394	11.02
394.207	11.18
394.414	11.05
394.622	10.88
394.829	10.8
395.036	10.8
395.243	10.75
395.45	10.71
395.657	10.74
395.864	10.81
396.072	10.87
396.279	10.9
396.486	10.72
396.693	10.79
396.9	10.92
397.107	10.8
397.314	10.95
397.521	10.85
397.728	10.8
397.935	10.65
398.142	10.67
398.349	10.76
398.556	10.77
398.763	10.7
398.97	10.29
399.177	10.08
399.383	10.1
399.59	10.11
399.797	10.13
400.004	10.14
400.211	10.3
400.418	10.32
400.625	10.24
400.831	10.13
401.038	10.2
401.245	10.37
401.452	10.38
401.658	10.28
401.865	10.21
402.072	10.32
402.279	10.28
402.485	10.15
402.692	9.99
402.899	9.94
403.105	9.89
403.312	9.8
403.519	9.81
403.725	9.96
403.932	9.83
404.138	9.69
404.345	9.49
404.552	9.42
404.758	9.43
404.965	9.32
405.171	9.42
405.378	9.36
405.584	9.42
405.791	9.48
405.997	9.4
406.204	9.68
406.41	9.53
406.617	9.65
406.823	9.79
407.029	9.79
407.236	9.99
407.442	9.92
407.649	10.11
407.855	10.11
408.061	10.24
408.268	10.19
408.474	10.02
408.68	10.22
408.887	10.18
409.093	10.1
409.299	10.21
409.505	10.15
409.712	9.91
409.918	9.68
410.124	9.58
410.33	9.42
410.537	9.3
410.743	9.25
410.949	9.28
411.155	9.23
411.361	9.17
411.567	8.98
411.773	8.98
411.98	9.06
412.186	9.07
412.392	9.29
412.598	9.35
412.804	9.47
413.01	9.53
413.216	9.52
413.422	9.52
413.628	9.53
413.834	9.45
414.04	9.52
414.246	9.62
414.452	9.52
414.658	9.3
414.864	9.11
415.07	9.11
415.275	9.04
415.481	9.06
415.687	8.99
415.893	8.94
416.099	8.98
416.305	8.83
416.511	8.75
416.716	8.71
416.922	8.6
417.128	8.62
417.334	8.43
417.539	8.38
417.745	8.08
417.951	8
418.157	7.9
418.362	7.84
418.568	7.74
418.774	7.61
418.979	7.61
419.185	7.57
419.391	7.51
419.596	7.45
419.802	7.33
420.008	7.4
420.213	7.38
420.419	7.38
420.624	7.3
420.83	7.33
421.035	7.32
421.241	7.29
421.446	7.27
421.652	7.17
421.857	7.19
422.063	7.18
422.268	7.08
422.474	7.07
422.679	7.06
422.885	6.96
423.09	6.91
423.295	6.84
423.501	6.8
423.706	6.82
423.911	6.85
424.117	6.9
424.322	6.86
424.527	6.86
424.733	6.85
424.938	6.84
425.143	6.94
425.349	6.95
425.554	6.99
425.759	7.02
425.964	6.97
426.169	6.99
426.375	6.97
426.58	7.09
426.785	7.2
426.99	7.22
427.195	7.3
427.4	7.37
427.605	7.42
427.811	7.51
428.016	7.61
428.221	7.78
428.426	7.86
428.631	7.91
428.836	7.96
429.041	7.99
429.246	7.99
429.451	7.96
429.656	7.98
429.861	7.93
430.066	7.92
430.271	7.94
430.476	7.9
430.681	7.89
430.886	7.94
431.09	7.91
431.295	7.88
431.5	7.93
431.705	7.93
431.91	7.95
432.115	7.95
432.32	7.92
432.524	7.82
432.729	7.82
432.934	7.77
433.139	7.61
433.343	7.6
433.548	7.57
433.753	7.6
433.958	7.59
434.162	7.58
434.367	7.74
434.572	7.8
434.776	7.81
434.981	7.78
435.186	7.81
435.39	7.94
435.595	7.95
435.799	7.93
436.004	7.89
436.209	7.8
436.413	7.72
436.618	7.56
436.822	7.55
437.027	7.62
437.231	7.68
437.436	7.69
437.64	7.74
437.845	7.72
438.049	7.78
438.253	7.75
438.458	7.84
438.662	7.81
438.867	7.77
439.071	7.8
439.275	7.69
439.48	7.59
439.684	7.5
439.888	7.41
440.093	7.43
440.297	7.34
440.501	7.29
440.706	7.24
440.91	7.24
441.114	7.27
441.318	7.22
441.523	7.28
441.727	7.29
441.931	7.33
442.135	7.35
442.339	7.33
442.543	7.53
442.748	7.63
442.952	7.67
443.156	7.74
443.36	7.78
443.564	7.81
443.768	7.78
443.972	7.7
444.176	7.6
444.38	7.6
444.584	7.51
444.788	7.34
444.992	7.3
445.196	7.31
445.4	7.24
445.604	7.22
445.808	7.15
446.012	7.15
446.216	7.22
446.42	7.3
446.624	7.2
446.828	7.2
447.032	7.19
447.235	7.21
447.439	7.15
447.643	7.21
447.847	7.19
448.051	7.22
448.254	7.18
448.458	7.2
448.662	7.2
448.866	7.3
449.069	7.43
449.273	7.49
449.477	7.41
449.681	7.5
449.884	7.56
450.088	7.66
450.292	7.67
450.495	7.73
450.699	7.71
450.902	7.69
451.106	7.63
451.31	7.59
451.513	7.65
451.717	7.68
451.92	7.59
452.124	7.6
452.327	7.44
452.531	7.44
452.734	7.42
452.938	7.46
453.141	7.61
453.345	7.73
453.548	7.67
453.752	7.66
453.955	7.78
454.158	7.84
454.362	7.8
454.565	7.9
454.769	7.94
454.972	7.97
455.175	7.92
455.379	7.86
455.582	7.79
455.785	7.85
455.988	7.82
456.192	7.72
456.395	7.66
456.598	7.64
456.801	7.64
457.005	7.59
457.208	7.62
457.411	7.61
457.614	7.47
457.817	7.43
458.021	7.27
458.224	7.23
458.427	7.15
458.63	7.18
458.833	7.05
459.036	7
459.239	6.95
459.442	6.87
459.645	6.81
459.848	6.86
460.051	6.89
460.254	7.04
460.457	7.07
460.66	7.17
460.863	7.17
461.066	7.31
461.269	7.32
461.472	7.43
461.675	7.47
461.878	7.63
462.081	7.75
462.284	7.74
462.486	7.65
462.689	7.62
462.892	7.59
463.095	7.63
463.298	7.67
463.5	7.78
463.703	7.7
463.906	7.77
464.109	7.77
464.311	7.71
464.514	7.75
464.717	7.79
464.92	7.84
465.122	7.86
465.325	7.94
465.528	7.86
465.73	7.95
465.933	7.96
466.135	7.95
466.338	7.89
466.541	7.84
466.743	7.77
466.946	7.75
467.148	7.7
467.351	7.75
467.553	7.77
467.756	7.76
467.958	7.59
468.161	7.73
468.363	7.74
468.566	7.72
468.768	7.86
468.971	7.94
469.173	8.06
469.375	8.1
469.578	8.11
469.78	8.06
469.983	8.13
470.185	8.14
470.387	8.08
470.59	8.09
470.792	8.1
470.994	8.09
471.196	8.01
471.399	7.95
471.601	8.04
471.803	7.97
472.005	8
472.208	7.94
472.41	8
472.612	7.97
472.814	7.95
473.016	7.92
473.218	7.9
473.421	7.99
473.623	8.01
473.825	8.04
474.027	8.09
474.229	8.04
474.431	8.02
474.633	7.97
474.835	8.07
475.037	8.1
475.239	8.12
475.441	8.13
475.643	8.09
475.845	8
476.047	7.89
476.249	7.89
476.451	7.84
476.653	7.87
476.855	7.93
477.057	7.83
477.258	7.73
477.46	7.76
477.662	7.71
477.864	7.75
478.066	7.85
478.268	7.8
478.469	7.78
478.671	7.74
478.873	7.77
479.075	7.68
479.276	7.66
479.478	7.78
479.68	7.77
479.882	7.77
480.083	7.7
480.285	7.59
480.487	7.59
480.688	7.5
480.89	7.52
481.091	7.43
481.293	7.4
481.495	7.27
481.696	7.15
481.898	7.01
482.099	6.93
482.301	6.84
482.502	6.8
482.704	6.73
482.905	6.7
483.107	6.64
483.308	6.61
483.51	6.55
483.711	6.55
483.913	6.52
484.114	6.53
484.315	6.51
484.517	6.5
484.718	6.5
484.92	6.5
485.121	6.49
485.322	6.52
485.524	6.54
485.725	6.56
485.926	6.61
486.127	6.63
486.329	6.63
486.53	6.64
486.731	6.69
486.932	6.68
487.134	6.68
487.335	6.65
487.536	6.63
487.737	6.65
487.938	6.64
488.139	6.65
488.341	6.7
488.542	6.73
488.743	6.73
488.944	6.71
489.145	6.77
489.346	6.84
489.547	6.91
489.748	6.91
489.949	6.92
490.15	6.92
490.351	6.89
490.552	6.86
490.753	6.82
490.954	6.84
491.155	6.85
491.356	6.85
491.557	6.84
491.758	6.87
491.959	6.91
492.159	6.9
492.36	6.95
492.561	6.99
492.762	7.03
492.963	7.1
493.164	7.15
493.364	7.19
493.565	7.23
493.766	7.24
493.967	7.25
494.167	7.33
494.368	7.42
494.569	7.5
494.769	7.57
494.97	7.65
495.171	7.69
495.371	7.81
495.572	7.82
495.773	7.79
495.973	7.87
496.174	7.96
496.375	8
496.575	7.99
496.776	8.06
496.976	8.07
497.177	8.02
497.377	7.99
497.578	8.01
497.778	8.08
497.979	8.18
498.179	8.21
498.38	8.24
498.58	8.23
498.78	8.35
498.981	8.35
499.181	8.44
499.382	8.54
499.582	8.66
499.782	8.71
499.983	8.75
500.183	8.85
500.383	8.9
500.584	8.9
500.784	8.98
500.984	8.98
501.184	9.02
501.385	8.99
501.585	9
501.785	9
501.985	9.08
502.185	9.13
502.386	9.1
502.586	9.12
502.786	9.19
502.986	9.3
503.186	9.39
503.386	9.43
503.586	9.47
503.786	9.56
503.987	9.66
504.187	9.65
504.387	9.7
504.587	9.84
504.787	9.83
504.987	9.95
505.187	9.95
505.387	9.97
505.587	10.03
505.786	10.1
505.986	10.08
506.186	10.13
506.386	10.22
506.586	10.34
506.786	10.28
506.986	10.44
507.186	10.33
507.386	10.38
507.585	10.48
507.785	10.51
507.985	10.59
508.185	10.67
508.384	10.69
508.584	10.65
508.784	10.53
508.984	10.64
509.183	10.67
509.383	10.71
509.583	10.81
509.782	10.78
509.982	10.87
510.182	10.89
510.381	10.98
510.581	11.07
510.781	11.18
510.98	11.35
511.18	11.37
511.379	11.38
511.579	11.52
511.778	11.55
511.978	11.66
512.177	11.77
512.377	11.87
512.576	11.91
512.776	11.94
512.975	12.04
513.175	12.15
513.374	12.28
513.573	12.45
513.773	12.65
513.972	12.76
514.172	12.87
514.371	13.03
514.57	13.15
514.77	13.28
514.969	13.37
515.168	13.51
515.367	13.57
515.567	13.71
515.766	13.8
515.965	13.78
516.164	13.78
516.364	13.84
516.563	13.76
516.762	13.82
516.961	13.87
517.16	14.01
517.359	14.02
517.559	14.07
517.758	14.02
517.957	13.99
518.156	14.08
518.355	14.11
518.554	14.14
518.753	14.28
518.952	14.34
519.151	14.44
519.35	14.47
519.549	14.6
519.748	14.68
519.947	14.84
520.146	15.06
520.345	15.15
520.544	15.38
520.743	15.53
520.942	15.61
521.141	15.74
521.339	15.88
521.538	16.05
521.737	16.1
521.936	16.22
522.135	16.37
522.333	16.48
522.532	16.61
522.731	16.73
522.93	16.86
523.129	16.99
523.327	17.13
523.526	17.2
523.725	17.24
523.923	17.35
524.122	17.46
524.321	17.56
524.519	17.59
524.718	17.57
524.917	17.64
525.115	17.66
525.314	17.72
525.512	17.77
525.711	17.85
525.909	17.97
526.108	18.09
526.306	18.1
526.505	18.1
526.703	18.19
526.902	18.27
527.1	18.27
527.299	18.39
527.497	18.42
527.696	18.45
527.894	18.5
528.092	18.49
528.291	18.5
528.489	18.57
528.688	18.63
528.886	18.7
529.084	18.78
529.283	18.89
529.481	18.93
529.679	19.02
529.877	19.16
530.076	19.28
530.274	19.38
530.472	19.53
530.67	19.72
530.869	19.88
531.067	19.99
531.265	20.19
531.463	20.28
531.661	20.43
531.859	20.55
532.057	20.57
532.255	20.56
532.454	20.7
532.652	20.74
532.85	20.74
533.048	20.82
533.246	20.88
533.444	20.88
533.642	21.02
533.84	21.07
534.038	21.16
534.236	21.26
534.434	21.44
534.632	21.53
534.83	21.67
535.027	21.79
535.225	21.83
535.423	21.95
535.621	22.09
535.819	22.11
536.017	22.26
536.215	22.32
536.412	22.46
536.61	22.5
536.808	22.51
537.006	22.65
537.203	22.74
537.401	22.93
537.599	23.07
537.797	23.18
537.994	23.38
538.192	23.48
538.39	23.63
538.587	23.75
538.785	23.9
538.983	24.15
539.18	24.18
539.378	24.36
539.575	24.33
539.773	24.42
539.97	24.44
540.168	24.53
540.366	24.52
540.563	24.59
540.761	24.56
540.958	24.62
541.155	24.69
541.353	24.74
541.55	24.78
541.748	24.83
541.945	24.85
542.143	24.94
542.34	25
542.537	25.11
542.735	25.19
542.932	25.32
543.129	25.5
543.327	25.59
543.524	25.83
543.721	26.04
543.919	26.4
544.116	26.71
544.313	26.98
544.51	27.24
544.708	27.54
544.905	27.85
545.102	28.2
545.299	28.34
545.496	28.48
545.693	28.54
545.891	28.59
546.088	28.53
546.285	28.52
546.482	28.41
546.679	28.29
546.876	28.23
547.073	28.07
547.27	27.91
547.467	27.89
547.664	27.81
547.861	27.8
548.058	27.81
548.255	27.87
548.452	27.87
548.649	28.07
548.846	28.1
549.043	28.04
549.24	28.22
549.437	28.29
549.633	28.31
549.83	28.44
550.027	28.45
550.224	28.31
550.421	28.16
550.618	28.01
550.814	27.91
551.011	27.97
551.208	28.07
551.405	27.9
551.601	27.88
551.798	27.81
551.995	27.69
552.191	27.69
552.388	27.82
552.585	27.69
552.781	27.75
552.978	27.73
553.175	27.63
553.371	27.61
553.568	27.62
553.764	27.59
553.961	27.66
554.157	27.73
554.354	27.77
554.55	27.77
554.747	27.91
554.943	27.96
555.14	27.99
555.336	28.13
555.533	28.13
555.729	28.11
555.926	28.21
556.122	28.25
556.318	28.27
556.515	28.25
556.711	28.21
556.907	28.29
557.104	28.32
557.3	28.39
557.496	28.37
557.693	28.33
557.889	28.32
558.085	28.29
558.281	28.31
558.478	28.4
558.674	28.27
558.87	28.24
559.066	28.3
559.262	28.37
559.459	28.29
559.655	28.38
559.851	28.37
560.047	28.51
560.243	28.53
560.439	28.52
560.635	28.54
560.831	28.66
561.027	28.81
561.223	28.72
561.419	28.6
561.615	28.59
561.811	28.66
562.007	28.71
562.203	28.74
562.399	28.85
562.595	28.83
562.791	28.8
562.987	28.71
563.183	28.66
563.379	28.68
563.575	28.8
563.771	28.96
563.966	28.91
564.162	28.99
564.358	28.88
564.554	28.86
564.75	28.75
564.945	28.61
565.141	28.68
565.337	28.65
565.533	28.54
565.728	28.4
565.924	28.28
566.12	28.15
566.315	28.07
566.511	28.17
566.707	28.08
566.902	28.12
567.098	28.29
567.293	28.28
567.489	28.29
567.684	28.42
567.88	28.47
568.076	28.53
568.271	28.66
568.467	28.78
568.662	28.66
568.858	28.75
569.053	28.75
569.248	28.63
569.444	28.67
569.639	28.65
569.835	28.7
570.03	28.78
570.225	28.77
570.421	28.65
570.616	28.66
570.812	28.75
571.007	28.74
571.202	28.91
571.397	28.95
571.593	28.87
571.788	28.95
571.983	28.93
572.178	28.92
572.374	28.95
572.569	29.04
572.764	29.06
572.959	29.1
573.154	29.04
573.35	28.92
573.545	28.98
573.74	29.18
573.935	29.14
574.13	29.1
574.325	29.19
574.52	29.28
574.715	29.43
574.91	29.42
575.105	29.49
575.3	29.68
575.495	29.85
575.69	29.89
575.885	29.89
576.08	30.12
576.275	30.29
576.47	30.41
576.665	30.44
576.86	30.45
577.055	30.47
577.25	30.52
577.444	30.55
577.639	30.68
577.834	30.85
578.029	31.01
578.224	31.09
578.418	31.2
578.613	31.23
578.808	31.31
579.003	31.45
579.197	31.66
579.392	31.61
579.587	31.49
579.781	31.45
579.976	31.51
580.171	31.45
580.365	31.31
580.56	31.4
580.755	31.5
580.949	31.6
581.144	31.54
581.338	31.56
581.533	31.82
581.727	32.21
581.922	32.23
582.116	32.34
582.311	32.51
582.505	32.5
582.7	32.51
582.894	32.55
583.089	32.61
583.283	32.62
583.478	32.63
583.672	32.7
583.866	32.63
584.061	32.58
584.255	32.33
584.449	32.23
584.644	32.45
584.838	32.42
585.032	32.28
585.226	32.42
585.421	32.73
585.615	32.75
585.809	32.61
586.003	32.7
586.198	32.81
586.392	33.08
586.586	33.18
586.78	33.21
586.974	33.2
587.168	33.17
587.363	33.09
587.557	32.67
587.751	32.58
587.945	32.52
588.139	32.36
588.333	32.22
588.527	32.11
588.721	31.94
588.915	31.67
589.109	31.58
589.303	31.53
589.497	31.35
589.691	31.49
589.885	31.61
590.079	31.69
590.273	31.63
590.466	31.79
590.66	31.79
590.854	32.09
591.048	32.23
591.242	32.41
591.436	32.66
591.629	32.76
591.823	32.95
592.017	32.91
592.211	32.89
592.404	33
592.598	32.97
592.792	32.94
592.986	32.74
593.179	32.61
593.373	32.55
593.567	32.48
593.76	32.38
593.954	32.16
594.147	32.17
594.341	32.11
594.535	32.06
594.728	31.9
594.922	31.83
595.115	31.78
595.309	31.68
595.502	31.59
595.696	31.45
595.889	31.46
596.083	31.42
596.276	31.34
596.47	31.36
596.663	31.23
596.856	31.23
597.05	31.23
597.243	31.18
597.437	31.47
597.63	31.48
597.823	31.6
598.017	31.73
598.21	31.89
598.403	31.99
598.596	32.07
598.79	32.28
598.983	32.45
599.176	32.6
599.369	32.69
599.563	32.62
599.756	32.7
599.949	32.68
600.142	32.61
600.335	32.56
600.528	32.46
600.722	32.43
600.915	32.43
601.108	32.43
601.301	32.43
601.494	32.44
601.687	32.28
601.88	32.34
602.073	32.22
602.266	32.15
602.459	31.98
602.652	31.84
602.845	31.7
603.038	31.57
603.231	31.43
603.424	31.3
603.617	31.18
603.809	31.2
604.002	31.01
604.195	30.96
604.388	31.09
604.581	31.11
604.774	31.1
604.966	31.08
605.159	31.1
605.352	31.17
605.545	31.35
605.737	31.53
605.93	31.65
606.123	31.84
606.316	32.03
606.508	32.11
606.701	32.32
606.894	32.66
607.086	32.93
607.279	33.21
607.471	33.36
607.664	33.53
607.857	33.63
608.049	33.94
608.242	34.2
608.434	34.48
608.627	34.95
608.819	35.53
609.012	36.3
609.204	37.24
609.397	38.25
609.589	39.27
609.782	40.41
609.974	41.71
610.166	42.93
610.359	44.1
610.551	45.34
610.743	46.3
610.936	47.14
611.128	47.76
611.32	48.33
611.513	48.52
611.705	48.64
611.897	48.36
612.09	48.09
612.282	47.56
612.474	47.14
612.666	46.66
612.858	46.07
613.051	45.48
613.243	44.78
613.435	43.99
613.627	43.56
613.819	43.1
614.011	42.73
614.203	42.34
614.395	41.82
614.588	41.28
614.78	40.91
614.972	40.39
615.164	40.1
615.356	39.66
615.548	39.34
615.74	38.99
615.932	38.54
616.124	38.27
616.315	37.71
616.507	37.49
616.699	37.38
616.891	37.07
617.083	36.95
617.275	36.58
617.467	36.44
617.659	36.24
617.85	35.92
618.042	35.78
618.234	35.54
618.426	35.36
618.618	35.32
618.809	35.14
619.001	35.14
619.193	35.15
619.384	35.26
619.576	35.51
619.768	35.48
619.959	35.55
620.151	35.61
620.343	35.85
620.534	36.04
620.726	36.06
620.917	36.1
621.109	36.12
621.301	36.01
621.492	36.12
621.684	36.05
621.875	35.97
622.067	35.92
622.258	35.97
622.45	35.79
622.641	35.68
622.832	35.77
623.024	35.96
623.215	35.82
623.407	35.85
623.598	35.66
623.789	35.55
623.981	35.53
624.172	35.45
624.363	35.46
624.555	35.5
624.746	35.41
624.937	35.2
625.129	34.87
625.32	34.77
625.511	34.74
625.702	34.57
625.893	34.76
626.085	34.84
626.276	34.8
626.467	34.69
626.658	34.55
626.849	34.5
627.04	34.37
627.231	34.44
627.422	34.68
627.614	34.59
627.805	34.75
627.996	34.61
628.187	34.67
628.378	34.8
628.569	35.02
628.76	35.33
628.951	35.64
629.142	36.09
629.332	36.28
629.523	36.22
629.714	36.56
629.905	36.8
630.096	36.84
630.287	36.93
630.478	37.05
630.669	36.95
630.859	36.85
631.05	36.73
631.241	36.45
631.432	36.35
631.623	36.11
631.813	35.89
632.004	35.72
632.195	35.5
632.385	35.3
632.576	35.21
632.767	35.14
632.957	35.01
633.148	34.94
633.339	34.93
633.529	34.68
633.72	34.8
633.91	34.66
634.101	34.69
634.292	34.78
634.482	34.7
634.673	34.46
634.863	34.46
635.054	34.37
635.244	34.29
635.435	34.25
635.625	34.34
635.815	34.28
636.006	34.25
636.196	33.98
636.387	33.98
636.577	34.03
636.767	34.29
636.958	34.19
637.148	34.19
637.338	34.26
637.529	34.36
637.719	34.64
637.909	34.6
638.099	34.64
638.29	34.8
638.48	34.92
638.67	34.85
638.86	34.67
639.05	34.89
639.241	35.2
639.431	35.07
639.621	35.18
639.811	34.92
640.001	35.01
640.191	35.05
640.381	35.11
640.571	35.12
640.761	35.3
640.951	35.58
641.141	35.22
641.331	35.14
641.521	35.41
641.711	35.32
641.901	35.32
642.091	35.48
642.281	35.51
642.471	35.49
642.661	35.56
642.851	35.53
643.041	35.42
643.231	35.61
643.42	35.64
643.61	35.6
643.8	35.6
643.99	35.68
644.18	35.61
644.369	35.62
644.559	35.71
644.749	35.62
644.939	35.62
645.128	35.46
645.318	35.35
645.508	35.26
645.697	35.09
645.887	35.24
646.076	35.18
646.266	35.09
646.456	35.35
646.645	35.26
646.835	35.1
647.024	35.16
647.214	35.27
647.403	35.42
647.593	35.35
647.782	35.62
647.972	35.49
648.161	35.6
648.351	35.62
648.54	35.49
648.73	35.47
648.919	35.6
649.108	35.43
649.298	35.61
649.487	35.77
649.677	35.79
649.866	35.57
650.055	35.56
650.244	35.68
650.434	35.87
650.623	35.82
650.812	35.83
651.002	35.68
651.191	35.78
651.38	35.72
651.569	35.62
651.758	35.58
651.947	35.76
652.137	35.64
652.326	35.56
652.515	35.44
652.704	35.34
652.893	35.2
653.082	35.31
653.271	35.35
653.46	35.32
653.649	35.5
653.838	35.45
654.027	35.46
654.216	35.63
654.405	35.73
654.594	35.65
654.783	35.65
654.972	35.9
655.161	35.94
655.35	35.81
655.539	35.69
655.728	35.54
655.916	35.58
656.105	35.32
656.294	35.23
656.483	34.97
656.672	35.04
656.86	35.05
657.049	34.93
657.238	34.79
657.427	34.88
657.615	34.77
657.804	34.65
657.993	34.58
658.181	34.44
658.37	34.27
658.559	34.29
658.747	34.26
658.936	34.32
659.125	34.13
659.313	34.23
659.502	34.4
659.69	34.46
659.879	34.52
660.067	34.63
660.256	34.71
660.444	34.84
660.633	35.07
660.821	34.97
661.01	34.95
661.198	35.24
661.387	35.23
661.575	35.16
661.763	35.27
661.952	35.42
662.14	35.5
662.328	35.9
662.517	36.09
662.705	36.17
662.893	36.54
663.082	37.03
663.27	37.06
663.458	37.31
663.646	37.36
663.834	37.46
664.023	37.55
664.211	37.75
664.399	37.74
664.587	37.72
664.775	37.38
664.963	37.2
665.152	36.93
665.34	36.67
665.528	36.88
665.716	37.06
665.904	37.07
666.092	37.14
666.28	36.93
666.468	36.88
666.656	37.01
666.844	37.29
667.032	37.45
667.22	37.19
667.408	37.37
667.596	37.26
667.784	36.91
667.971	36.87
668.159	36.74
668.347	36.75
668.535	36.63
668.723	36.6
668.911	36.46
669.098	36.31
669.286	36.58
669.474	36.64
669.662	36.57
669.849	36.77
670.037	36.84
670.225	36.95
670.413	37.06
670.6	37.26
670.788	37.44
670.976	37.57
671.163	37.43
671.351	37.31
671.538	37.76
671.726	37.66
671.913	37.69
672.101	37.6
672.289	37.43
672.476	37.26
672.664	37.07
672.851	36.86
673.039	36.82
673.226	37.1
673.413	37.22
673.601	36.77
673.788	36.96
673.976	37.03
674.163	36.95
674.35	37.05
674.538	37.36
674.725	37.68
674.912	37.53
675.1	37.67
675.287	37.54
675.474	37.47
675.662	37.57
675.849	37.46
676.036	37.33
676.223	37.65
676.411	37.6
676.598	37.51
676.785	37.19
676.972	37.42
677.159	37.15
677.346	37.21
677.533	37.18
677.721	37.11
677.908	37.02
678.095	36.95
678.282	36.71
678.469	36.55
678.656	36.47
678.843	36.54
679.03	36.49
679.217	36.68
679.404	36.65
679.591	36.41
679.778	36.33
679.964	36.3
680.151	36.31
680.338	36.28
680.525	36.4
680.712	36.25
680.899	36.38
681.086	36.54
681.272	36.35
681.459	36.37
681.646	36.65
681.833	36.71
682.02	36.79
682.206	36.97
682.393	37.1
682.58	37.13
682.766	37.49
682.953	37.6
683.14	37.29
683.326	37.91
683.513	38.16
683.7	38.35
683.886	38.64
684.073	38.7
684.259	38.58
684.446	38.66
684.632	38.68
684.819	38.61
685.005	38.47
685.192	38.65
685.378	38.53
685.565	38.4
685.751	38.37
685.938	38.17
686.124	38.07
686.31	38.13
686.497	38.08
686.683	38.1
686.87	38.16
687.056	38.19
687.242	38.18
687.429	37.88
687.615	37.82
687.801	37.74
687.987	37.85
688.174	37.93
688.36	37.88
688.546	37.97
688.732	37.93
688.918	37.84
689.105	37.91
689.291	37.88
689.477	38.05
689.663	38.17
689.849	38.18
690.035	38.17
690.221	38.48
690.407	38.67
690.593	38.61
690.779	38.59
690.965	38.8
691.151	38.85
691.337	38.97
691.523	39.09
691.709	39.03
691.895	39.25
692.081	39.19
692.267	39.23
692.453	39.43
692.639	39.61
692.825	39.83
693.011	39.86
693.196	39.69
693.382	40.01
693.568	39.83
693.754	39.97
693.94	40
694.125	39.96
694.311	39.64
694.497	39.35
694.682	38.88
694.868	38.81
695.054	38.58
695.239	38.97
695.425	38.55
695.611	38.77
695.796	38.77
695.982	38.32
696.168	37.93
696.353	37.66
696.539	37.64
696.724	37.57
696.91	37.49
697.095	37.38
697.281	36.99
697.466	36.87
697.652	36.35
697.837	35.98
698.023	36.17
698.208	36.23
698.393	36.33
698.579	36.08
698.764	36.09
698.949	35.94
699.135	35.79
699.32	35.68
699.505	35.62
699.691	35.74
699.876	36.04
700.061	36.01
700.246	36.09
700.432	36.37
700.617	36.52
700.802	36.97
700.987	37.27
701.172	37.78
701.358	38.11
701.543	38.45
701.728	39.02
701.913	39.02
702.098	39.64
702.283	39.87
702.468	39.57
702.653	40.05
702.838	40.29
703.023	40.38
703.208	40.47
703.393	40.88
703.578	41.27
703.763	41.56
703.948	42.04
704.133	41.71
704.318	42.09
704.503	42.51
704.688	42.95
704.873	43.31
705.057	43.77
705.242	44.15
705.427	44.44
705.612	44.73
705.797	44.61
705.981	45.13
706.166	45.88
706.351	46.14
706.536	46.36
706.72	46.29
706.905	46.43
707.09	46.38
707.274	46.25
707.459	45.7
707.644	45.67
707.828	45.79
708.013	45.34
708.197	44.86
708.382	44.68
708.567	44.52
708.751	44.27
708.936	43.77
709.12	43.81
709.305	43.69
709.489	43.89
709.673	43.8
709.858	43.42
710.042	43.31
710.227	43.35
710.411	43.46
710.596	43.21
710.78	43.29
710.964	43.28
711.149	43.3
711.333	43.47
711.517	43.5
711.702	43.26
711.886	43.21
712.07	43.02
712.254	42.84
712.438	42.48
712.623	42.89
712.807	42.6
712.991	42.57
713.175	42.12
713.359	41.82
713.544	41.75
713.728	41.9
713.912	41.74
714.096	41.61
714.28	40.98
714.464	41.04
714.648	40.58
714.832	40.65
715.016	40.39
715.2	40.6
715.384	40.25
715.568	40.16
715.752	40.03
715.936	40.12
716.12	40.09
716.304	40.66
716.488	40.56
716.671	40.53
716.855	40.54
717.039	40.24
717.223	40.07
717.407	40.24
717.59	40.27
717.774	40.01
717.958	39.98
718.142	39.93
718.325	39.71
718.509	39.82
718.693	39.54
718.877	39.66
719.06	40.37
719.244	40.59
719.428	40.32
719.611	40.2
719.795	40.51
719.978	41.19
720.162	41.27
720.345	41.56
720.529	41.66
720.713	42.44
720.896	42.24
721.08	42.49
721.263	42.86
721.446	43.65
721.63	44.02
721.813	44.02
721.997	43.96
722.18	44.4
722.364	44.46
722.547	44.64
722.73	44.25
722.914	44.6
723.097	44.25
723.28	43.95
723.464	43.87
723.647	43.87
723.83	43.87
724.013	43.29
724.197	43.34
724.38	43.25
724.563	43.21
724.746	43.79
724.929	43.05
725.112	43.01
725.296	42.3
725.479	42.04
725.662	41.89
725.845	42.18
726.028	42.37
726.211	42.24
726.394	42.16
726.577	42.44
726.76	42.05
726.943	42.44
727.126	42.37
727.309	42.75
727.492	42.41
727.675	42.54
727.858	42.07
728.041	41.6
728.224	41.54
728.407	41.63
728.589	41.3
728.772	41.05
728.955	41.14
729.138	41.14
729.321	40.85
729.503	41.02
729.686	40.41
729.869	40.7
730.052	41.08
730.234	41.15
730.417	41.37
730.6	41.35
730.782	41.44
730.965	41.19
731.148	41.05
731.33	41.72
731.513	41.46
731.695	41.27
731.878	41.41
732.061	41.1
732.243	41.21
732.426	40.89
732.608	41.38
732.791	41.77
732.973	41.72
733.156	41.93
733.338	41.56
733.52	42.15
733.703	42.75
733.885	42.24
734.068	42.53
734.25	42.56
734.432	42.38
734.615	41.68
734.797	41.61
734.979	41.76
735.162	41.91
735.344	42.2
735.526	42.25
735.708	42.7
735.891	43.1
736.073	43.45
736.255	43.66
736.437	43.64
736.619	44.04
736.802	44.11
736.984	44.39
737.166	45.11
737.348	45.06
737.53	45.04
737.712	44.07
737.894	44.16
738.076	44.49
738.258	43.85
738.44	44.22
738.622	44.46
738.804	44.14
738.986	44.32
739.168	44.04
739.35	44.12
739.532	44.24
739.714	45.32
739.896	44.57
740.078	44.8
740.259	45.1
740.441	45.35
740.623	45.39
740.805	45.86
740.987	45.53
741.168	45.51
741.35	45.74
741.532	45.91
741.714	45.73
741.895	46.48
742.077	45.96
742.259	46.14
742.44	46.25
742.622	45.82
742.804	45.96
742.985	46.39
743.167	46.13
743.348	46.31
743.53	46.47
743.711	46.38
743.893	46.74
744.075	46.79
744.256	47.41
744.438	47.54
744.619	47.67
744.8	47.6
744.982	48.02
745.163	48.21
745.345	47.54
745.526	47.74
745.707	47.75
745.889	47.92
746.07	48.2
746.252	48.34
746.433	48.56
746.614	48.48
746.795	48.33
746.977	47.88
747.158	47.59
747.339	48.28
747.52	47.91
747.702	48.26
747.883	48.08
748.064	48.14
748.245	47.81
748.426	46.94
748.607	48.2
748.788	48.42
748.97	48.32
749.151	48.45
749.332	48.45
749.513	48.01
749.694	47.9
749.875	48.25
750.056	47.99
750.237	47.97
750.418	48.37
750.599	47.6
750.78	47.44
750.96	47.99
751.141	49.05
751.322	49
751.503	49.53
751.684	49.4
751.865	49.11
752.046	49.06
752.226	48.47
752.407	48.17
752.588	48.11
752.769	48.53
752.949	47.9
753.13	47.5
753.311	46.33
753.492	46.56
753.672	47.02
753.853	47.02
754.034	47.7
754.214	48.41
754.395	48.88
754.575	49.41
754.756	49.62
754.937	49.82
755.117	50.09
755.298	51.78
755.478	51.99
755.659	52.35
755.839	52.57
756.02	52.22
756.2	52.02
756.381	51.79
756.561	51.59
756.741	50.98
756.922	51.05
757.102	50.31
757.283	49.8
757.463	49.2
757.643	48.55
757.823	47.87
758.004	47.11
758.184	47.03
758.364	46.99
758.545	46.11
758.725	45.15
758.905	45.13
759.085	44.9
759.265	44.48
759.446	44.46
759.626	43.89
759.806	43.65
759.986	43.95
760.166	43.96
760.346	43.51
760.526	44.3
760.706	44.96
760.886	44.78
761.066	44.51
761.246	44.87
761.426	44.76
761.606	44.79
761.786	44.71
761.966	43.77
762.146	42.32
762.326	42.6
762.506	41.3
762.686	40.64
762.866	40.4
763.046	39.97
763.225	39.35
763.405	38.86
763.585	38.46
763.765	38.34
763.945	38.08
764.124	38.37
764.304	37.99
764.484	38.37
764.664	39.1
764.843	39.02
765.023	39.35
765.203	39.61
765.382	40.02
765.562	40.96
765.741	41.43
765.921	42.57
766.101	43.28
766.28	43.67
766.46	44.6
766.639	44.43
766.819	45.5
766.998	45.76
767.178	46.08
767.357	46.55
767.537	46.4
767.716	47.52
767.896	48.09
768.075	48.67
768.254	49.46
768.434	49.45
768.613	50.15
768.792	50.04
768.972	50.51
769.151	50.62
769.33	50.65
769.51	50.53
769.689	50.19
769.868	50.36
770.047	50.77
770.226	50.97
770.406	51.13
770.585	51.48
770.764	51.8
770.943	52.29
771.122	52.39
771.301	52.48
771.48	52.87
771.66	53.18
771.839	53.2
772.018	52.83
772.197	52.84
772.376	52.68
772.555	52.86
772.734	52.63
772.913	52.88
773.092	53.12
773.271	53.3
773.449	54.23
773.628	53.85
773.807	53.79
773.986	54.02
774.165	54.23
774.344	54.21
774.523	54.04
774.701	54.42
774.88	55.18
775.059	55.71
775.238	55.52
775.417	55.57
775.595	55.42
775.774	55.86
775.953	56.43
776.131	56.37
776.31	56.48
776.489	56.48
776.667	56.15
776.846	55.03
777.025	54.88
777.203	55.59
777.382	55.13
777.56	55.06
777.739	54.39
777.917	53.73
778.096	53.95
778.274	53.51
778.453	53.76
778.631	53.71
778.81	54.07
778.988	53.56
779.166	53.05
779.345	52.56
779.523	52.53
779.702	53.03
779.88	53.38
780.058	53.43
780.237	54.23
780.415	54.02
780.593	54.43
780.771	53.67
780.95	54.14
781.128	54.7
781.306	55.77
781.484	56.56
781.662	55.14
781.841	55.31
782.019	54.77
782.197	54.38
782.375	54.16
782.553	53.06
782.731	54.52
782.909	55.44
783.087	55.65
783.265	54.64
783.443	54.36
783.621	55.97
783.799	55.66
783.977	56.72
784.155	57.68
784.333	57.84
784.511	58.76
784.689	57.63
784.867	57.5
785.045	57.1
785.223	58.36
785.4	58.33
785.578	58.17
785.756	58.31
785.934	57.82
786.112	57.81
786.289	57.96
786.467	57.86
786.645	57.26
786.823	55.78
787	55.14
787.178	54.09
787.356	54.35
787.533	53.87
787.711	53.64
787.889	52.97
788.066	52.74
788.244	52.25
788.421	51.74
788.599	51.66
788.776	52.53
788.954	52.96
789.131	53.01
789.309	52.75
789.486	53.58
789.664	53.86
789.841	54.14
790.019	53.47
790.196	53.73
790.373	53.76
790.551	55.89
790.728	55.64
790.906	55.46
791.083	55.79
791.26	55.84
791.437	55.93
791.615	55.27
791.792	55.69
791.969	56.65
792.146	57.05
792.324	58.12
792.501	56.42
792.678	57.7
792.855	58.75
793.032	57.93
793.209	58.42
793.387	57.72
793.564	59.49
793.741	60.09
793.918	59.98
794.095	60.32
794.272	59.78
794.449	60.49
794.626	60.26
794.803	59.6
794.98	60.7
795.157	59.83
795.334	60.41
795.511	58.45
795.688	58.07
795.864	57.9
796.041	58.21
796.218	58.31
796.395	57.95
796.572	56.95
796.749	56.69
796.925	56.48
797.102	56.75
797.279	56.9
797.456	57.67
797.632	56.76
797.809	56.62
797.986	55.43
798.162	56.05
798.339	55.04
798.516	56.47
798.692	56.5
798.869	56.25
799.046	56.16
799.222	55.46
799.399	55.7
799.575	56.52
799.752	56.76
799.928	57.91
800.105	57.89
800.281	59.11
800.458	58.28
800.634	59.32
800.811	58.9
800.987	59.76
801.163	59.36
801.34	59.02
801.516	58.73
801.692	58.62
801.869	58.03
802.045	57.27
802.221	56.67
802.398	56.92
802.574	55.75
802.75	57.3
802.926	57.21
803.103	57.93
803.279	58.71
803.455	60.04
803.631	60.73
803.807	61.1
803.983	63.1
804.16	64.92
804.336	65.38
804.512	66.41
804.688	66.64
804.864	65.86
805.04	66.23
805.216	65.97
805.392	65.89
805.568	66.63
805.744	67.25
805.92	65.5
806.096	64.5
806.272	63.56
806.448	63.65
806.623	61.84
806.799	61.52
806.975	61.11
807.151	62.77
807.327	62.79
807.503	62.05
807.678	61.56
807.854	61.22
808.03	61.59
808.206	62.04
808.381	61.75
808.557	62.04
808.733	62.59
808.908	62.73
809.084	60.8
809.26	60.05
809.435	59.51
809.611	59.8
809.787	59.5
809.962	59.32
810.138	59.82
810.313	59.93
810.489	59.93
810.664	60.64
810.84	61.21
811.015	61.12
811.191	62.08
811.366	61.83
811.542	62.3
811.717	63.73
811.892	62.99
812.068	62.54
812.243	63.85
812.419	64.52
812.594	64.07
812.769	64.4
812.944	64.47
813.12	63.72
813.295	63.16
813.47	62.22
813.645	61.03
813.821	62.53
813.996	62.1
814.171	60.66
814.346	60.77
814.521	61.26
814.697	60.95
814.872	60.94
815.047	61.13
815.222	62.57
815.397	62.06
815.572	62.71
815.747	60.35
815.922	59.01
816.097	60.22
816.272	59.41
816.447	59.91
816.622	60.46
816.797	59.96
816.972	58.67
817.147	57.55
817.322	56.75
817.496	56.16
817.671	57.61
817.846	59.32
818.021	57.55
818.196	57.4
818.371	55.98
818.545	55.53
818.72	56.75
818.895	57.4
819.069	56.3
819.244	56.72
819.419	55.34
819.594	53.72
819.768	51.24
819.943	50.34
820.117	48.94
820.292	46.89
820.467	44.68
820.641	42.31
820.816	39.78
820.99	38.1
821.165	36.22
821.339	35.38
821.514	34.4
821.688	33.99
821.863	32.76
822.037	32.09
822.212	31.67
822.386	31.31
822.56	31.2
822.735	31.35
822.909	31.43
823.084	31.32
823.258	31.31
823.432	31.44
823.606	31.39
823.781	31.91
823.955	32.24
824.129	32.68
824.303	32.88
824.478	32.88
824.652	33.32
824.826	33.73
825	34.82
825.174	35.31
825.348	35.59
825.523	35.93
825.697	36.68
825.871	36.75
826.045	37.11
826.219	37.53
826.393	38.06
826.567	37.48
826.741	37.42
826.915	36.89
827.089	36.9
827.263	36.92
827.437	37.25
827.611	36.82
827.784	37.16
827.958	37.26
828.132	37.04
828.306	37.13
828.48	37.72
828.654	38.1
828.827	39.81
829.001	40.12
829.175	41.76
829.349	43.11
829.522	45.05
829.696	46.22
829.87	46.71
830.044	48.84
830.217	49.15
830.391	50.03
830.565	50.9
830.738	49.91
830.912	52.65
831.085	51.79
831.259	52.24
831.432	51.35
831.606	51.89
831.779	51.25
831.953	51.64
832.126	51.54
832.3	51.11
832.473	49.82
832.647	48.41
832.82	46.67
832.994	46.14
833.167	45.15
833.34	44.16
833.514	43.18
833.687	43.67
833.86	41.72
834.034	41.83
834.207	41.66
834.38	42.67
834.553	42.81
834.727	42.72
834.9	41.91
835.073	42.04
835.246	42.29
835.419	43.25
835.593	44.3
835.766	45.49
835.939	46.22
836.112	46.99
836.285	47.82
836.458	50.31
836.631	51.93
836.804	55.5
836.977	57.14
837.15	59.43
837.323	60.53
837.496	60.24
837.669	62.4
837.842	63.62
838.015	64.11
838.188	63.77
838.361	65.13
838.533	65.19
838.706	62.77
838.879	62.21
839.052	62.65
839.225	61.96
839.398	62.33
839.57	63.58
839.743	64.83
839.916	67.02
840.088	66.25
840.261	64.06
840.434	64.41
840.607	66.06
840.779	65.06
840.952	63.77
841.124	64.62
841.297	63.97
841.47	63.09
841.642	63.26
841.815	64.09
841.987	65.46
842.16	67.87
842.332	69.52
842.505	71.25
842.677	73.68
842.85	76.44
843.022	76.72
843.194	81.85
843.367	84.71
843.539	84.9
843.712	81.88
843.884	83.8
844.056	81.96
844.229	83.78
844.401	84.49
844.573	88.17
844.745	89.79
844.918	93.45
845.09	92.04
845.262	93.59
845.434	96.48
845.606	101.33
845.779	102.83
845.951	103.63
846.123	102.26
846.295	105.09
846.467	105.19
846.639	104.6
846.811	102
846.983	106.07
847.155	101.69
847.327	103.34
847.499	104.84
847.671	106.75
847.843	109.08
848.015	111.74
848.187	107.66
848.359	103.65
848.531	107.03
848.703	106.75
848.875	104.13
849.047	105.28
849.218	101.76
849.39	100.55
849.562	100.59
849.734	98.22
849.905	95.39
850.077	97.55
850.249	101.31
850.421	102.4
850.592	104.12
850.764	105.51
850.936	108.79
851.107	109.43
851.279	109.92
851.451	108.46
851.622	111.55
851.794	118.01
851.965	121.78
852.137	127.82
852.308	121.27
852.48	120.5
852.651	116.19
852.823	113.73
852.994	116.13
853.166	113.22
853.337	115.99
853.509	116.76
853.68	113.87
853.851	109.93
854.023	105.68
854.194	112.18
854.365	113.23
854.537	115.99
854.708	112.13
854.879	114.98
855.05	118.94
855.222	115.44
855.393	116.47
855.564	114.43
855.735	119.67
855.906	121.24
856.078	116.98
856.249	113.92
856.42	115.09
856.591	120.9
856.762	119.53
856.933	115.87
857.104	116.65
857.275	114.39
857.446	115.42
857.617	114.16
857.788	110.94
857.959	109.95
858.13	118.59
858.301	117.28
858.472	114.16
858.643	109.09
858.814	111.64
858.985	114.4
859.155	115.45
859.326	116.37
859.497	115.28
859.668	116.08
859.839	124.74
860.009	120.18
860.18	120.51
860.351	120.32
860.522	128.28
860.692	126.07
860.863	127.12
861.034	128.39
861.204	130.2
861.375	126.11
861.546	126.4
861.716	123.76
861.887	121.02
862.057	117.52
862.228	120.43
862.398	115.67
862.569	115.95
862.739	115.59
862.91	113.1
863.08	105.11
863.251	103.45
863.421	103.18
863.592	98.99
863.762	102.04
863.932	102.64
864.103	108.27
864.273	109.99
864.443	108.69
864.614	109.75
864.784	108.71
864.954	112.57
865.125	113.42
865.295	113.75
865.465	115.56
865.635	114.64
865.805	116.4
865.976	109.81
866.146	109.62
866.316	114.39
866.486	113.07
866.656	116.06
866.826	115
866.996	121.39
867.166	124.12
867.336	127.63
867.506	130.07
867.676	131.29
867.846	132.31
868.016	132.11
868.186	126.43
868.356	123.22
868.526	123.5
868.696	133.33
868.866	127.16
869.036	130.65
869.206	130.49
869.376	124.85
869.545	125.96
869.715	128.09
869.885	128.92
870.055	129.53
870.224	132.75
870.394	129.55
870.564	123.56
870.734	123.35
870.903	118.04
871.073	120.54
871.243	123.58
871.412	120.8
871.582	118.34
871.751	119.14
871.921	116.93
872.091	114.49
872.26	109.74
872.43	114.06
872.599	113.09
872.769	116.59
872.938	111.98
873.108	108.58
873.277	105.9
873.446	103.72
873.616	102.88
873.785	105.91
873.955	108.09
874.124	114.97
874.293	112.01
874.463	112.17
874.632	111.61
874.801	112.39
874.971	116.25
875.14	121.91
875.309	119.98
875.478	128.74
875.647	126.85
875.817	126.16
875.986	122.18
876.155	119.24
876.324	114.51
876.493	111.28
876.662	111.53
876.831	112.67
877	110.33
877.17	112.52
877.339	103.9
877.508	102.48
877.677	101.45
877.846	102.09
878.015	100.97
878.184	104.79
878.352	107.13
878.521	103.61
878.69	102.51
878.859	102.7
879.028	99.7
879.197	94.57
879.366	93.53
879.534	87.34
879.703	82.71
879.872	74.65
880.041	68.51
880.21	61.35
880.378	56.59
880.547	52.37
880.716	48.49
880.884	46
881.053	45.34
881.222	41.87
881.39	39.94
881.559	38.34
881.727	37.08
881.896	36.4
882.065	35.99
882.233	35.65
882.402	34.52
882.57	34.82
882.739	34.91
882.907	34.34
883.076	35.14
883.244	35.98
883.412	35.39
883.581	37.11
883.749	37.52
883.918	37.14
884.086	38.49
884.254	40.3
884.423	40.74
884.591	42.23
884.759	43.47
884.927	45.48
885.096	45.82
885.264	50.19
885.432	50.76
885.6	54.99
885.769	60.24
885.937	62.58
886.105	65.53
886.273	68.27
886.441	72.84
886.609	76.9
886.777	78.43
886.945	81.91
887.113	85.06
887.281	87.97
887.449	90.55
887.617	95.03
887.785	95.71
887.953	97.5
888.121	99.28
888.289	97.94
888.457	98.02
888.625	100.7
888.793	102.02
888.961	101.72
889.129	104.41
889.296	99.19
889.464	94.8
889.632	96.9
889.8	93.7
889.967	92.34
890.135	94.37
