Data from 2938838__Reflection_02.txt Node
Date: Wed Mar 11 16:05:33 EDT 2015
User: robert
Spectrometer: USB4E03002
Autoset integration time: false
Trigger mode: 4
Integration Time (sec): 1.000000E-1
Scans to average: 10
Electric dark correction enabled: false
Nonlinearity correction enabled: false
Boxcar width: 5
Stray light correction enabled: false
XAxis mode: Wavelengths
Stop averaging: false
Number of Pixels in Spectrum: 3648
>>>>>Begin Spectral Data<<<<<
177.575	503.7
177.794	225.51
178.014	191.4
178.233	138.24
178.452	163.46
178.672	114.86
178.891	104.5
179.11	64.46
179.33	28.64
179.549	2.3
179.768	-31.25
179.987	-111.73
180.207	-1007.41
180.426	-40.66
180.645	-2.73
180.864	30.33
181.084	50.35
181.303	11.05
181.522	20
181.741	-30.7
181.96	-11.4
182.179	-3.42
182.398	-20.41
182.618	-4.35
182.837	-20.45
183.056	-40.8
183.275	-559.21
183.494	-227.14
183.713	-203.45
183.932	-236.41
184.151	-472.32
184.37	-462.5
184.589	515.65
184.808	560.28
185.027	325.81
185.246	229.29
185.465	319.03
185.684	207.78
185.903	271.09
186.122	307.14
186.341	489.67
186.56	233.33
186.779	177.21
186.998	225.25
187.216	152.78
187.435	103.57
187.654	113.4
187.873	94.24
188.092	63.78
188.311	49.85
188.53	36.41
188.748	26.5
188.967	-12.78
189.186	-21.03
189.405	-38.5
189.623	-28.79
189.842	-17.47
190.061	-19.89
190.28	-14.14
190.498	2.81
190.717	-29.1
190.936	16.02
191.154	26.51
191.373	71.09
191.592	70.18
191.81	74.6
192.029	76.84
192.248	75.85
192.466	91.26
192.685	119.75
192.904	150.68
193.122	135.47
193.341	-945.45
193.559	-517.39
193.778	64.91
193.996	265.31
194.215	-94.92
194.433	117.24
194.652	93.6
194.87	142.3
195.089	116.51
195.307	131.75
195.526	157.72
195.744	156.45
195.963	107.57
196.181	122.85
196.399	102.27
196.618	108.63
196.836	93.94
197.055	130.6
197.273	75.54
197.491	98.65
197.71	29.81
197.928	66.67
198.146	446.51
198.365	40
198.583	73.02
198.801	106.9
199.019	45.52
199.238	-9.6
199.456	-105.71
199.674	40.37
199.892	-550
200.111	75.9
200.329	21.21
200.547	61.72
200.765	44.73
200.983	56.67
201.202	62.61
201.42	61.28
201.638	40.13
201.856	38.07
202.074	62.13
202.292	95.93
202.51	89.18
202.728	62.31
202.946	11.64
203.165	69.8
203.383	-105.32
203.601	96.49
203.819	69.39
204.037	-50
204.255	46.82
204.473	10.2
204.691	25.49
204.909	-3.55
205.127	-221.77
205.345	-82.54
205.562	-65.78
205.78	-196.93
205.998	-1223.81
206.216	345.12
206.434	760.61
206.652	573.47
206.87	250
207.088	120
207.306	-65.57
207.523	-177.42
207.741	-45.54
207.959	12.02
208.177	20.68
208.395	-34.45
208.612	3.79
208.83	13.25
209.048	21.99
209.266	35.04
209.483	54.57
209.701	48.56
209.919	48
210.136	54.48
210.354	51.64
210.572	41.16
210.79	51.77
211.007	50.1
211.225	56.88
211.442	67.59
211.66	65.3
211.878	54.96
212.095	1012.12
212.313	420.99
212.53	-1093.75
212.748	-42.86
212.966	374.36
213.183	174.55
213.401	128.71
213.618	109.17
213.836	76.69
214.053	68.95
214.271	75.75
214.488	20.33
214.705	-222.22
214.923	173.48
215.14	46.15
215.358	43.95
215.575	69.11
215.793	64.78
216.01	75.16
216.227	60.2
216.445	58.85
216.662	69.22
216.879	77.6
217.097	79.29
217.314	90.04
217.531	91.74
217.749	77.43
217.966	65.53
218.183	39.57
218.4	28.79
218.618	13.95
218.835	24.65
219.052	23.23
219.269	26.92
219.487	19.09
219.704	14.22
219.921	16.93
220.138	37.16
220.355	35.91
220.572	30.1
220.79	41.02
221.007	39.48
221.224	32.29
221.441	31.88
221.658	25.4
221.875	34.37
222.092	28.33
222.309	35.41
222.526	25.37
222.743	26.17
222.96	27.37
223.177	23.31
223.394	23.93
223.611	21.12
223.828	22.12
224.045	14.06
224.262	6.35
224.479	6.21
224.696	3.67
224.913	6.02
225.13	-0.54
225.347	-0.38
225.564	2.61
225.781	4.77
225.997	6.17
226.214	5.7
226.431	10.23
226.648	12.02
226.865	11.59
227.082	11.65
227.298	11.2
227.515	11.38
227.732	9.74
227.949	8.56
228.165	7.48
228.382	7.09
228.599	5.74
228.816	5.44
229.032	5.68
229.249	5.86
229.466	4.61
229.682	3.86
229.899	4.01
230.116	4.32
230.332	5.37
230.549	5.72
230.765	6.04
230.982	6.4
231.199	7.22
231.415	7.07
231.632	6.91
231.848	7.66
232.065	7.56
232.281	7.33
232.498	9.42
232.714	8.32
232.931	8.53
233.147	8.96
233.364	8.7
233.58	9.29
233.797	7.68
234.013	7.09
234.23	7.88
234.446	8.5
234.662	9.94
234.879	9.36
235.095	9.22
235.312	8.73
235.528	9.17
235.744	9.58
235.961	8.08
236.177	9.13
236.393	10
236.61	8.01
236.826	7.61
237.042	5.59
237.258	2.78
237.475	2.64
237.691	1.62
237.907	-1.94
238.123	-1.46
238.339	-1.71
238.556	-3.47
238.772	-5.18
238.988	-2.68
239.204	0.97
239.42	1.64
239.636	3.41
239.853	4.01
240.069	5.62
240.285	6.18
240.501	5.34
240.717	5.68
240.933	6.01
241.149	6.41
241.365	6.03
241.581	4.62
241.797	4.15
242.013	3.98
242.229	3.64
242.445	3.86
242.661	4.44
242.877	4.73
243.093	4.42
243.309	4.52
243.525	4.22
243.741	4.8
243.957	5.43
244.173	6.04
244.388	6.22
244.604	6.54
244.82	5.76
245.036	4.59
245.252	4.35
245.468	4.21
245.683	4.45
245.899	4.74
246.115	4.61
246.331	3.98
246.547	3.96
246.762	3.93
246.978	4.19
247.194	3.87
247.409	4.37
247.625	4.24
247.841	4.53
248.057	4.3
248.272	4.37
248.488	4.07
248.703	4.75
248.919	5.26
249.135	5.47
249.35	5.31
249.566	6.12
249.782	6.3
249.997	6.7
250.213	6.62
250.428	6.87
250.644	6.89
250.859	6.19
251.075	5.48
251.29	4.23
251.506	4.31
251.721	3.93
251.937	3.95
252.152	3.71
252.368	4.04
252.583	4.16
252.798	4.16
253.014	3.86
253.229	4.67
253.445	5.19
253.66	5.54
253.875	5.43
254.091	5.61
254.306	5.87
254.521	5.7
254.737	5.69
254.952	6.21
255.167	6.78
255.383	7.06
255.598	7.16
255.813	6.48
256.028	6.79
256.244	7.25
256.459	6.83
256.674	5.6
256.889	6.02
257.104	5.66
257.32	5.37
257.535	5.16
257.75	4.46
257.965	4.14
258.18	4.55
258.395	4.22
258.61	3.74
258.826	4.03
259.041	4.38
259.256	4.11
259.471	4.12
259.686	4.12
259.901	3.88
260.116	4.1
260.331	4.18
260.546	3.93
260.761	3.85
260.976	3.95
261.191	4
261.406	3.96
261.621	3.71
261.836	3.56
262.05	3.31
262.265	3.58
262.48	3.57
262.695	3.39
262.91	3.07
263.125	3.15
263.34	3.28
263.555	2.85
263.769	2.93
263.984	3.16
264.199	3.61
264.414	3.4
264.629	3.14
264.843	2.91
265.058	2.87
265.273	3.58
265.488	3.57
265.702	3.17
265.917	3.12
266.132	2.99
266.346	2.99
266.561	2.84
266.776	3.04
266.99	2.61
267.205	2.73
267.42	2.99
267.634	2.81
267.849	2.45
268.063	2.62
268.278	2.86
268.492	2.75
268.707	2.88
268.922	2.98
269.136	2.96
269.351	3.87
269.565	4.22
269.78	4.12
269.994	4.26
270.209	4.76
270.423	4.82
270.637	4.76
270.852	5.05
271.066	4.79
271.281	4.83
271.495	5.04
271.709	4.57
271.924	4.04
272.138	3.88
272.353	3.9
272.567	4.08
272.781	3.99
272.996	4.09
273.21	4.03
273.424	4.36
273.638	4.35
273.853	3.92
274.067	4.07
274.281	4.38
274.495	4.27
274.71	4.13
274.924	4.06
275.138	4.12
275.352	3.69
275.566	3.26
275.781	3.33
275.995	3.06
276.209	3.24
276.423	2.99
276.637	3.29
276.851	3.74
277.065	3.66
277.279	3.42
277.493	2.93
277.707	2.74
277.921	2.76
278.135	2.43
278.349	2.87
278.563	2.86
278.777	2.94
278.991	2.72
279.205	1.86
279.419	1.86
279.633	1.17
279.847	1.68
280.061	2.11
280.275	2.16
280.489	2.52
280.703	2.32
280.917	1.93
281.131	2.38
281.344	2.02
281.558	2.74
281.772	3.06
281.986	3.77
282.2	3.97
282.414	3.81
282.627	4.42
282.841	4.23
283.055	4.04
283.269	4.39
283.482	3.86
283.696	3.91
283.91	3.58
284.123	3.21
284.337	2.84
284.551	2.6
284.764	2.74
284.978	2.17
285.192	2.28
285.405	2.32
285.619	2.09
285.833	2.1
286.046	2.16
286.26	2.2
286.473	2.11
286.687	2.32
286.9	2.39
287.114	2.1
287.327	2.02
287.541	1.85
287.754	1.84
287.968	2.22
288.181	2.28
288.395	2.22
288.608	2.45
288.822	2.7
289.035	2.74
289.248	2.68
289.462	3.04
289.675	3.25
289.889	3.39
290.102	3.4
290.315	3.03
290.529	3.01
290.742	3.19
290.955	3.26
291.169	3.36
291.382	3.4
291.595	3.11
291.808	3.34
292.022	3.41
292.235	3.6
292.448	3.94
292.661	4.34
292.875	4.58
293.088	4.85
293.301	4.66
293.514	4.49
293.727	4.58
293.94	4.75
294.153	4.69
294.367	4.54
294.58	4
294.793	3.86
295.006	3.55
295.219	3.54
295.432	3.46
295.645	3.41
295.858	3.5
296.071	3.38
296.284	3.56
296.497	3.25
296.71	3.32
296.923	3.61
297.136	3.61
297.349	3.85
297.562	3.87
297.775	3.8
297.988	3.93
298.201	3.86
298.414	3.94
298.626	3.81
298.839	3.96
299.052	3.94
299.265	3.48
299.478	3.56
299.691	3.44
299.903	3.44
300.116	3.47
300.329	3.3
300.542	3.5
300.755	3.52
300.967	3.84
301.18	4.02
301.393	4.35
301.605	4.72
301.818	4.71
302.031	4.89
302.243	4.98
302.456	5.06
302.669	5.03
302.881	4.86
303.094	5.23
303.307	5.03
303.519	4.83
303.732	4.73
303.944	4.87
304.157	4.98
304.37	5.07
304.582	4.84
304.795	4.91
305.007	5.22
305.22	5.44
305.432	5.13
305.645	5.42
305.857	5.22
306.069	5.12
306.282	4.44
306.494	4.34
306.707	4.2
306.919	4.27
307.132	4.05
307.344	3.86
307.556	4.1
307.769	4.1
307.981	4.22
308.193	4.72
308.406	4.93
308.618	5.85
308.83	5.68
309.043	5.53
309.255	5.43
309.467	5.29
309.679	5.54
309.892	5.48
310.104	5.41
310.316	5.16
310.528	5.02
310.74	4.74
310.953	4.7
311.165	5.02
311.377	5.13
311.589	5.17
311.801	5.34
312.013	5.15
312.225	5.22
312.437	5.24
312.649	5.22
312.862	5.39
313.074	5.71
313.286	5.52
313.498	5.31
313.71	5.27
313.922	5.4
314.134	5.29
314.346	4.77
314.558	4.32
314.77	4.43
314.982	4.7
315.193	4.32
315.405	4.23
315.617	4.29
315.829	4.31
316.041	4.56
316.253	4.54
316.465	4.7
316.677	5.53
316.888	5.75
317.1	5.46
317.312	5.34
317.524	5.12
317.736	5.04
317.947	5.2
318.159	5.25
318.371	5.21
318.583	5.04
318.794	4.87
319.006	4.46
319.218	4.62
319.43	4.48
319.641	4.55
319.853	4.79
320.064	4.62
320.276	4.86
320.488	4.76
320.699	4.47
320.911	4.86
321.123	4.96
321.334	5.15
321.546	4.58
321.757	5.32
321.969	5.48
322.18	5.88
322.392	6.36
322.603	5.64
322.815	5.5
323.026	5.77
323.238	5.83
323.449	5.58
323.661	5.52
323.872	5.87
324.083	5.6
324.295	5.37
324.506	5.33
324.718	4.91
324.929	5.55
325.14	6.14
325.352	5.78
325.563	5.48
325.774	5.7
325.986	6.08
326.197	5.78
326.408	5.86
326.62	5.93
326.831	5.71
327.042	5.85
327.253	5.44
327.464	4.93
327.676	5.12
327.887	5.27
328.098	5.11
328.309	5.19
328.52	5.04
328.732	4.91
328.943	5.01
329.154	5.16
329.365	5.13
329.576	4.86
329.787	5.19
329.998	5.17
330.209	5.57
330.42	5.78
330.631	5.55
330.842	6.05
331.053	6.12
331.264	6.46
331.475	6.49
331.686	6.83
331.897	7.21
332.108	7.13
332.319	7.41
332.53	6.9
332.741	6.76
332.952	6.88
333.163	6.83
333.374	6.77
333.585	6.65
333.795	6.79
334.006	6.71
334.217	6.65
334.428	6.44
334.639	6.4
334.849	6.65
335.06	6.93
335.271	6.75
335.482	6.64
335.692	6.77
335.903	6.52
336.114	6.63
336.325	6.59
336.535	6.36
336.746	6.42
336.957	6.42
337.167	6.37
337.378	6.36
337.589	6.45
337.799	6.4
338.01	6.3
338.22	6.26
338.431	5.91
338.642	5.72
338.852	6.08
339.063	6.16
339.273	6.04
339.484	5.78
339.694	6.13
339.905	6
340.115	6.11
340.326	6.43
340.536	6.47
340.746	6.42
340.957	6.51
341.167	6.18
341.378	6.36
341.588	6.27
341.799	6.74
342.009	6.33
342.219	5.87
342.43	5.96
342.64	5.97
342.85	5.72
343.061	5.94
343.271	5.83
343.481	5.63
343.691	5.26
343.902	5.26
344.112	5.35
344.322	5.43
344.532	5.95
344.743	5.81
344.953	5.44
345.163	5.54
345.373	5.32
345.583	5.35
345.793	5.73
346.004	5.91
346.214	6.02
346.424	5.75
346.634	5.68
346.844	5.44
347.054	5.68
347.264	5.72
347.474	5.81
347.684	5.87
347.894	5.82
348.104	5.48
348.314	5.77
348.524	6.14
348.734	5.92
348.944	5.61
349.154	5.45
349.364	5.12
349.574	5.37
349.784	5.01
349.994	5.13
350.204	4.87
350.413	5.2
350.623	4.96
350.833	4.68
351.043	4.73
351.253	5.02
351.463	5.22
351.672	5.21
351.882	4.72
352.092	4.85
352.302	4.78
352.511	4.96
352.721	4.69
352.931	4.38
353.141	4.24
353.35	4.37
353.56	4.58
353.77	4.39
353.979	4.59
354.189	4.98
354.399	5.22
354.608	5.1
354.818	5.34
355.027	5.49
355.237	5.68
355.447	5.76
355.656	5.73
355.866	5.47
356.075	5.75
356.285	5.76
356.494	5.45
356.704	5.36
356.913	5.7
357.123	5.37
357.332	5.53
357.542	5.43
357.751	5.46
357.96	5.44
358.17	5.55
358.379	5.57
358.589	5.45
358.798	5.76
359.007	5.67
359.217	5.43
359.426	5.72
359.635	5.46
359.845	5.35
360.054	5.16
360.263	4.99
360.472	4.94
360.682	5.14
360.891	5.1
361.1	5.03
361.309	5.11
361.519	5.25
361.728	5.21
361.937	5.32
362.146	5.5
362.355	5.52
362.564	5.69
362.774	5.48
362.983	5.31
363.192	5.49
363.401	5.61
363.61	5.66
363.819	5.55
364.028	5.63
364.237	5.64
364.446	5.65
364.655	5.68
364.864	5.58
365.073	5.69
365.282	5.48
365.491	5.44
365.7	5.18
365.909	5.22
366.118	5.16
366.327	4.84
366.536	4.68
366.745	4.58
366.954	4.73
367.162	4.77
367.371	4.92
367.58	5.01
367.789	4.95
367.998	4.92
368.207	4.51
368.415	4.46
368.624	4.7
368.833	4.93
369.042	5.03
369.25	4.87
369.459	4.88
369.668	4.84
369.877	4.67
370.085	4.56
370.294	4.63
370.503	4.64
370.711	4.69
370.92	4.5
371.129	4.36
371.337	4.32
371.546	4.14
371.754	4.06
371.963	4.14
372.171	4.34
372.38	4.41
372.589	4.45
372.797	4.8
373.006	4.84
373.214	4.96
373.423	4.97
373.631	4.76
373.84	4.84
374.048	4.76
374.256	4.63
374.465	4.42
374.673	4.36
374.882	4.25
375.09	4.1
375.298	4.15
375.507	4.05
375.715	3.88
375.923	4
376.132	3.91
376.34	4.02
376.548	4.02
376.757	4.12
376.965	4.09
377.173	4.07
377.381	4.05
377.59	3.82
377.798	3.85
378.006	4.04
378.214	3.95
378.423	4.08
378.631	3.96
378.839	3.87
379.047	3.68
379.255	3.65
379.463	3.54
379.671	3.56
379.879	3.64
380.088	3.58
380.296	3.4
380.504	3.44
380.712	3.34
380.92	3.68
381.128	3.71
381.336	3.88
381.544	3.77
381.752	3.75
381.96	3.64
382.168	3.73
382.376	3.71
382.584	3.84
382.791	3.83
382.999	3.86
383.207	3.64
383.415	3.68
383.623	3.84
383.831	4.03
384.039	3.87
384.247	3.85
384.454	3.74
384.662	3.89
384.87	3.86
385.078	3.88
385.285	3.7
385.493	3.63
385.701	3.71
385.909	3.59
386.116	3.41
386.324	3.71
386.532	3.79
386.739	3.68
386.947	3.5
387.155	3.41
387.362	3.44
387.57	3.63
387.778	3.5
387.985	3.48
388.193	3.3
388.4	3.37
388.608	3.23
388.816	3.36
389.023	3.46
389.231	3.33
389.438	3.22
389.646	3.21
389.853	3.2
390.061	3.12
390.268	3.04
390.475	3
390.683	3.08
390.89	2.94
391.098	2.71
391.305	2.78
391.512	2.84
391.72	2.88
391.927	2.82
392.135	2.73
392.342	2.76
392.549	2.79
392.756	2.68
392.964	2.66
393.171	2.75
393.378	2.68
393.586	2.52
393.793	2.49
394	2.51
394.207	2.54
394.414	2.46
394.622	2.52
394.829	2.32
395.036	2.51
395.243	2.45
395.45	2.45
395.657	2.57
395.864	2.62
396.072	2.84
396.279	2.86
396.486	2.75
396.693	2.97
396.9	2.98
397.107	3.08
397.314	3.09
397.521	3.01
397.728	2.99
397.935	2.96
398.142	2.85
398.349	2.79
398.556	2.69
398.763	2.78
398.97	2.62
399.177	2.78
399.383	2.72
399.59	2.6
399.797	2.71
400.004	2.85
400.211	2.87
400.418	3.06
400.625	3.02
400.831	3.07
401.038	3.11
401.245	3.17
401.452	3
401.658	3
401.865	2.97
402.072	2.83
402.279	2.7
402.485	2.61
402.692	2.49
402.899	2.36
403.105	2.33
403.312	2.25
403.519	2.33
403.725	2.4
403.932	2.57
404.138	2.6
404.345	2.61
404.552	2.7
404.758	2.7
404.965	2.68
405.171	2.7
405.378	2.7
405.584	2.6
405.791	2.53
405.997	2.51
406.204	2.46
406.41	2.54
406.617	2.61
406.823	2.47
407.029	2.45
407.236	2.47
407.442	2.56
407.649	2.56
407.855	2.57
408.061	2.47
408.268	2.51
408.474	2.49
408.68	2.53
408.887	2.42
409.093	2.41
409.299	2.42
409.505	2.41
409.712	2.4
409.918	2.46
410.124	2.4
410.33	2.51
410.537	2.28
410.743	2.35
410.949	2.25
411.155	2.38
411.361	2.3
411.567	2.39
411.773	2.48
411.98	2.37
412.186	2.3
412.392	2.37
412.598	2.21
412.804	2.39
413.01	2.29
413.216	2.27
413.422	1.99
413.628	2.16
413.834	2.18
414.04	2.22
414.246	2.25
414.452	2.23
414.658	2.15
414.864	2.31
415.07	2.22
415.275	2.25
415.481	2.34
415.687	2.48
415.893	2.48
416.099	2.57
416.305	2.52
416.511	2.55
416.716	2.5
416.922	2.51
417.128	2.52
417.334	2.62
417.539	2.54
417.745	2.49
417.951	2.58
418.157	2.49
418.362	2.48
418.568	2.44
418.774	2.42
418.979	2.55
419.185	2.53
419.391	2.54
419.596	2.44
419.802	2.43
420.008	2.41
420.213	1.73
420.419	1.71
420.624	1.66
420.83	1.65
421.035	1.63
421.241	1.55
421.446	1.62
421.652	1.51
421.857	1.51
422.063	1.48
422.268	1.44
422.474	2.01
422.679	2.04
422.885	1.96
423.09	1.98
423.295	1.96
423.501	1.98
423.706	1.95
423.911	2.05
424.117	2.1
424.322	2.17
424.527	2.18
424.733	2.22
424.938	2.26
425.143	2.35
425.349	2.35
425.554	2.36
425.759	2.39
425.964	2.44
426.169	2.4
426.375	2.33
426.58	2.28
426.785	2.26
426.99	2.14
427.195	2.17
427.4	2.1
427.605	2.01
427.811	2.07
428.016	1.87
428.221	1.76
428.426	1.75
428.631	1.79
428.836	1.81
429.041	1.9
429.246	1.87
429.451	1.76
429.656	1.75
429.861	1.89
430.066	1.85
430.271	1.91
430.476	1.99
430.681	2.04
430.886	2.07
431.09	2.14
431.295	2.07
431.5	2.19
431.705	2.15
431.91	2.1
432.115	2.16
432.32	2.17
432.524	2.29
432.729	2.26
432.934	2.21
433.139	2.16
433.343	2.08
433.548	2.04
433.753	2.03
433.958	2.02
434.162	2.07
434.367	2.08
434.572	1.98
434.776	2
434.981	2.04
435.186	2.15
435.39	2.23
435.595	2.27
435.799	2.34
436.004	2.35
436.209	2.51
436.413	2.52
436.618	2.4
436.822	2.51
437.027	2.38
437.231	2.35
437.436	2.3
437.64	2.24
437.845	2.22
438.049	2.29
438.253	2.32
438.458	2.3
438.662	2.29
438.867	2.35
439.071	2.27
439.275	2.36
439.48	2.29
439.684	2.25
439.888	2.3
440.093	2.29
440.297	2.29
440.501	2.23
440.706	2.21
440.91	2.23
441.114	2.15
441.318	2.22
441.523	2.26
441.727	2.27
441.931	2.38
442.135	2.28
442.339	2.27
442.543	2.22
442.748	2.24
442.952	2.25
443.156	2.24
443.36	2.29
443.564	2.27
443.768	2.1
443.972	2.17
444.176	2.13
444.38	2.17
444.584	2.19
444.788	2.25
444.992	2.27
445.196	2.22
445.4	2.16
445.604	2.19
445.808	2.16
446.012	2.21
446.216	2.21
446.42	2.1
446.624	2.14
446.828	2.14
447.032	2.1
447.235	2.1
447.439	2.04
447.643	2.05
447.847	2.02
448.051	1.98
448.254	1.99
448.458	1.96
448.662	2
448.866	2.02
449.069	2.01
449.273	2.07
449.477	2.1
449.681	2.2
449.884	2.25
450.088	2.33
450.292	2.31
450.495	2.32
450.699	2.32
450.902	2.32
451.106	2.16
451.31	2.16
451.513	2.06
451.717	1.99
451.92	1.91
452.124	1.84
452.327	1.75
452.531	1.85
452.734	1.73
452.938	1.76
453.141	1.8
453.345	1.89
453.548	1.92
453.752	1.93
453.955	1.9
454.158	2.02
454.362	2.09
454.565	2.07
454.769	2.05
454.972	2.21
455.175	2.29
455.379	2.29
455.582	2.33
455.785	2.36
455.988	2.27
456.192	2.32
456.395	2.26
456.598	2.2
456.801	2.23
457.005	2.29
457.208	2.21
457.411	2.2
457.614	2.19
457.817	2.03
458.021	1.98
458.224	2.02
458.427	2.01
458.63	2
458.833	2.07
459.036	2.08
459.239	2.03
459.442	2.02
459.645	1.96
459.848	1.96
460.051	2.04
460.254	2.08
460.457	2.1
460.66	2.05
460.863	2
461.066	1.97
461.269	1.99
461.472	1.99
461.675	2.07
461.878	2.1
462.081	2.07
462.284	2.05
462.486	2.03
462.689	2.01
462.892	2.18
463.095	2.32
463.298	2.28
463.5	2.22
463.703	2.24
463.906	2.14
464.109	2.04
464.311	2.07
464.514	2.09
464.717	2.13
464.92	2.15
465.122	2.01
465.325	1.94
465.528	2.02
465.73	2.05
465.933	2.1
466.135	2.19
466.338	2.3
466.541	2.36
466.743	2.43
466.946	2.4
467.148	2.4
467.351	2.45
467.553	2.46
467.756	2.35
467.958	2.3
468.161	2.23
468.363	2.14
468.566	1.97
468.768	1.88
468.971	1.81
469.173	1.88
469.375	1.89
469.578	1.91
469.78	1.98
469.983	2.12
470.185	2.22
470.387	2.24
470.59	2.26
470.792	2.39
470.994	2.47
471.196	2.44
471.399	2.32
471.601	2.29
471.803	2.26
472.005	2.21
472.208	2.2
472.41	2.23
472.612	2.24
472.814	2.23
473.016	2.25
473.218	2.17
473.421	2.21
473.623	2.27
473.825	2.29
474.027	2.31
474.229	2.33
474.431	2.39
474.633	2.29
474.835	2.28
475.037	2.29
475.239	2.26
475.441	2.22
475.643	2.27
475.845	2.2
476.047	2.17
476.249	2.17
476.451	2.17
476.653	2.11
476.855	2.09
477.057	2.11
477.258	2.12
477.46	2.11
477.662	2.21
477.864	2.2
478.066	2.18
478.268	2.17
478.469	2.15
478.671	2.17
478.873	2.18
479.075	2.26
479.276	2.29
479.478	2.25
479.68	2.19
479.882	2.05
480.083	2.02
480.285	2.01
480.487	2
480.688	2.02
480.89	2.02
481.091	1.99
481.293	1.96
481.495	1.93
481.696	2.02
481.898	2.08
482.099	2.14
482.301	2.12
482.502	2.14
482.704	2.16
482.905	2.15
483.107	2.13
483.308	2.1
483.51	2.08
483.711	2.06
483.913	2.04
484.114	2.03
484.315	2
484.517	1.99
484.718	1.99
484.92	1.95
485.121	1.97
485.322	1.94
485.524	1.92
485.725	1.91
485.926	1.91
486.127	1.92
486.329	1.91
486.53	1.94
486.731	1.96
486.932	1.95
487.134	1.98
487.335	1.92
487.536	1.96
487.737	1.96
487.938	2
488.139	2.01
488.341	2
488.542	1.97
488.743	1.96
488.944	1.89
489.145	1.92
489.346	1.94
489.547	1.96
489.748	1.92
489.949	1.96
490.15	1.9
490.351	1.91
490.552	1.9
490.753	1.97
490.954	2.01
491.155	2.06
491.356	2.02
491.557	2.01
491.758	2.02
491.959	2.05
492.159	2.05
492.36	2.1
492.561	2.11
492.762	2.14
492.963	2.09
493.164	2.07
493.364	2.1
493.565	2.12
493.766	2.09
493.967	2.13
494.167	2.16
494.368	2.2
494.569	2.21
494.769	2.22
494.97	2.17
495.171	2.21
495.371	2.22
495.572	2.17
495.773	2.21
495.973	2.25
496.174	2.19
496.375	2.24
496.575	2.21
496.776	2.18
496.976	2.19
497.177	2.22
497.377	2.18
497.578	2.2
497.778	2.28
497.979	2.33
498.179	2.25
498.38	2.29
498.58	2.22
498.78	2.21
498.981	2.28
499.181	2.3
499.382	2.34
499.582	2.41
499.782	2.46
499.983	2.47
500.183	2.49
500.383	2.53
500.584	2.63
500.784	2.67
500.984	2.67
501.184	2.66
501.385	2.66
501.585	2.63
501.785	2.71
501.985	2.75
502.185	2.72
502.386	2.75
502.586	2.85
502.786	2.74
502.986	2.82
503.186	2.89
503.386	2.88
503.586	2.85
503.786	2.86
503.987	2.88
504.187	2.96
504.387	2.96
504.587	2.94
504.787	2.91
504.987	3.07
505.187	3.06
505.387	3.04
505.587	3.07
505.786	3.13
505.986	3.18
506.186	3.17
506.386	3.09
506.586	3.22
506.786	3.18
506.986	3.19
507.186	3.12
507.386	3.1
507.585	3.12
507.785	3.17
507.985	3.2
508.185	3.22
508.384	3.21
508.584	3.27
508.784	3.26
508.984	3.32
509.183	3.35
509.383	3.38
509.583	3.47
509.782	3.6
509.982	3.68
510.182	3.74
510.381	3.77
510.581	3.91
510.781	3.99
510.98	4.04
511.18	4.13
511.379	4.15
511.579	4.26
511.778	4.3
511.978	4.3
512.177	4.26
512.377	4.36
512.576	4.47
512.776	4.44
512.975	4.41
513.175	4.48
513.374	4.49
513.573	4.55
513.773	4.61
513.972	4.62
514.172	4.73
514.371	4.89
514.57	4.96
514.77	4.97
514.969	5.11
515.168	5.2
515.367	5.19
515.567	5.26
515.766	5.4
515.965	5.52
516.164	5.59
516.364	5.6
516.563	5.62
516.762	5.6
516.961	5.69
517.16	5.73
517.359	5.84
517.559	5.93
517.758	6.01
517.957	6.04
518.156	6.01
518.355	6.09
518.554	6.17
518.753	6.24
518.952	6.38
519.151	6.4
519.35	6.44
519.549	6.47
519.748	6.53
519.947	6.54
520.146	6.61
520.345	6.68
520.544	6.77
520.743	6.84
520.942	6.92
521.141	6.98
521.339	7.1
521.538	7.16
521.737	7.25
521.936	7.36
522.135	7.58
522.333	7.69
522.532	7.83
522.731	7.85
522.93	7.93
523.129	7.98
523.327	7.97
523.526	8.05
523.725	8.15
523.923	8.28
524.122	8.4
524.321	8.39
524.519	8.47
524.718	8.51
524.917	8.62
525.115	8.67
525.314	8.72
525.512	8.84
525.711	8.94
525.909	9
526.108	8.97
526.306	8.99
526.505	9.11
526.703	9.2
526.902	9.31
527.1	9.42
527.299	9.51
527.497	9.59
527.696	9.69
527.894	9.72
528.092	9.75
528.291	9.85
528.489	9.93
528.688	9.97
528.886	10.01
529.084	10.02
529.283	10.09
529.481	10.11
529.679	10.15
529.877	10.17
530.076	10.24
530.274	10.31
530.472	10.37
530.67	10.41
530.869	10.5
531.067	10.56
531.265	10.7
531.463	10.75
531.661	10.83
531.859	11
532.057	11.07
532.255	11.19
532.454	11.3
532.652	11.37
532.85	11.45
533.048	11.49
533.246	11.56
533.444	11.6
533.642	11.62
533.84	11.68
534.038	11.67
534.236	11.73
534.434	11.76
534.632	11.79
534.83	11.87
535.027	11.97
535.225	12.07
535.423	12.13
535.621	12.2
535.819	12.29
536.017	12.45
536.215	12.56
536.412	12.6
536.61	12.66
536.808	12.71
537.006	12.77
537.203	12.75
537.401	12.82
537.599	12.89
537.797	12.91
537.994	13.03
538.192	13.01
538.39	13.05
538.587	13.1
538.785	13.1
538.983	13.25
539.18	13.31
539.378	13.42
539.575	13.52
539.773	13.64
539.97	13.78
540.168	13.84
540.366	13.86
540.563	13.95
540.761	14.05
540.958	14.17
541.155	14.16
541.353	14.17
541.55	14.26
541.748	14.26
541.945	14.27
542.143	14.28
542.34	14.24
542.537	14.31
542.735	14.32
542.932	14.32
543.129	14.4
543.327	14.45
543.524	14.52
543.721	14.57
543.919	14.61
544.116	14.72
544.313	14.81
544.51	14.95
544.708	14.99
544.905	15.02
545.102	15.13
545.299	15.1
545.496	15.17
545.693	15.22
545.891	15.27
546.088	15.3
546.285	15.26
546.482	15.26
546.679	15.23
546.876	15.31
547.073	15.41
547.27	15.42
547.467	15.49
547.664	15.58
547.861	15.65
548.058	15.62
548.255	15.69
548.452	15.75
548.649	15.86
548.846	15.99
549.043	15.93
549.24	15.99
549.437	16.05
549.633	16.02
549.83	15.99
550.027	15.98
550.224	16.05
550.421	16.19
550.618	16.29
550.814	16.28
551.011	16.33
551.208	16.45
551.405	16.51
551.601	16.5
551.798	16.59
551.995	16.59
552.191	16.62
552.388	16.72
552.585	16.69
552.781	16.7
552.978	16.77
553.175	16.76
553.371	16.88
553.568	16.93
553.764	17
553.961	17.01
554.157	17.03
554.354	17.04
554.55	16.95
554.747	16.95
554.943	17.05
555.14	17.17
555.336	17.24
555.533	17.22
555.729	17.13
555.926	17.14
556.122	17.18
556.318	17.21
556.515	17.33
556.711	17.44
556.907	17.46
557.104	17.41
557.3	17.35
557.496	17.47
557.693	17.59
557.889	17.69
558.085	17.81
558.281	17.96
558.478	18.13
558.674	18.15
558.87	18.12
559.066	18.21
559.262	18.3
559.459	18.33
559.655	18.18
559.851	18.17
560.047	18.27
560.243	18.18
560.439	18.28
560.635	18.2
560.831	18.24
561.027	18.35
561.223	18.34
561.419	18.38
561.615	18.36
561.811	18.58
562.007	18.54
562.203	18.56
562.399	18.63
562.595	18.52
562.791	18.55
562.987	18.6
563.183	18.55
563.379	18.65
563.575	18.75
563.771	18.82
563.966	18.83
564.162	18.86
564.358	18.95
564.554	18.94
564.75	19.03
564.945	19.05
565.141	19.06
565.337	19.21
565.533	19.26
565.728	19.2
565.924	19.24
566.12	19.24
566.315	19.29
566.511	19.26
566.707	19.35
566.902	19.33
567.098	19.39
567.293	19.45
567.489	19.5
567.684	19.53
567.88	19.57
568.076	19.49
568.271	19.49
568.467	19.45
568.662	19.48
568.858	19.46
569.053	19.53
569.248	19.52
569.444	19.55
569.639	19.54
569.835	19.5
570.03	19.5
570.225	19.58
570.421	19.61
570.616	19.7
570.812	19.69
571.007	19.76
571.202	19.87
571.397	19.94
571.593	19.89
571.788	19.98
571.983	19.94
572.178	20.05
572.374	20
572.569	19.95
572.764	19.93
572.959	19.95
573.154	19.93
573.35	19.89
573.545	19.82
573.74	19.84
573.935	19.79
574.13	19.83
574.325	19.76
574.52	19.92
574.715	19.99
574.91	20.05
575.105	20.07
575.3	20.23
575.495	20.26
575.69	20.33
575.885	20.49
576.08	20.52
576.275	20.76
576.47	20.8
576.665	20.69
576.86	20.73
577.055	20.79
577.25	20.84
577.444	20.72
577.639	20.75
577.834	20.85
578.029	20.75
578.224	20.8
578.418	20.73
578.613	20.8
578.808	20.85
579.003	20.85
579.197	20.88
579.392	20.96
579.587	21.07
579.781	21.05
579.976	21.12
580.171	21.13
580.365	21.14
580.56	21.12
580.755	21.1
580.949	21.21
581.144	21.27
581.338	21.24
581.533	21.22
581.727	21.15
581.922	21.13
582.116	21.12
582.311	21.27
582.505	21.33
582.7	21.23
582.894	21.26
583.089	21.27
583.283	21.21
583.478	21.27
583.672	21.22
583.866	21.27
584.061	21.35
584.255	21.4
584.449	21.38
584.644	21.26
584.838	21.4
585.032	21.43
585.226	21.48
585.421	21.68
585.615	21.65
585.809	21.77
586.003	21.91
586.198	21.95
586.392	21.84
586.586	21.74
586.78	21.93
586.974	21.85
587.168	21.89
587.363	21.86
587.557	21.79
587.751	21.7
587.945	21.66
588.139	21.47
588.333	21.46
588.527	21.65
588.721	21.74
588.915	21.63
589.109	21.8
589.303	21.86
589.497	21.74
589.691	21.68
589.885	21.82
590.079	21.77
590.273	21.89
590.466	21.96
590.66	21.8
590.854	21.78
591.048	21.89
591.242	21.71
591.436	21.68
591.629	21.85
591.823	21.94
592.017	21.92
592.211	22.08
592.404	22.12
592.598	22.09
592.792	22.16
592.986	22.17
593.179	22.1
593.373	22.3
593.567	22.22
593.76	22.24
593.954	22.24
594.147	22.43
594.341	22.36
594.535	22.29
594.728	22.32
594.922	22.36
595.115	22.41
595.309	22.45
595.502	22.42
595.696	22.41
595.889	22.42
596.083	22.43
596.276	22.49
596.47	22.48
596.663	22.6
596.856	22.59
597.05	22.67
597.243	22.64
597.437	22.63
597.63	22.59
597.823	22.58
598.017	22.65
598.21	22.72
598.403	22.68
598.596	22.71
598.79	22.69
598.983	22.77
599.176	22.75
599.369	22.9
599.563	22.89
599.756	22.97
599.949	23.12
600.142	23.02
600.335	23
600.528	22.93
600.722	22.94
600.915	22.99
601.108	22.84
601.301	22.71
601.494	22.67
601.687	22.83
601.88	22.76
602.073	22.77
602.266	22.93
602.459	22.95
602.652	22.97
602.845	23.04
603.038	23
603.231	23.09
603.424	23.27
603.617	23.31
603.809	23.24
604.002	23.26
604.195	23.28
604.388	23.22
604.581	23.25
604.774	23.27
604.966	23.28
605.159	23.34
605.352	23.26
605.545	23.11
605.737	23.21
605.93	23.35
606.123	23.49
606.316	23.44
606.508	23.45
606.701	23.5
606.894	23.47
607.086	23.41
607.279	23.34
607.471	23.57
607.664	23.73
607.857	23.68
608.049	23.66
608.242	23.55
608.434	23.78
608.627	23.96
608.819	24.14
609.012	24.34
609.204	24.52
609.397	24.73
609.589	24.97
609.782	25.19
609.974	25.43
610.166	25.69
610.359	26.06
610.551	26.28
610.743	26.42
610.936	26.53
611.128	26.67
611.32	26.82
611.513	26.71
611.705	26.64
611.897	26.65
612.09	26.57
612.282	26.26
612.474	26.07
612.666	25.85
612.858	25.82
613.051	25.83
613.243	25.51
613.435	25.44
613.627	25.71
613.819	25.54
614.011	25.39
614.203	25.31
614.395	25.42
614.588	25.41
614.78	25.38
614.972	25.26
615.164	25.09
615.356	25.14
615.548	25.14
615.74	24.97
615.932	24.95
616.124	24.92
616.315	24.74
616.507	24.53
616.699	24.45
616.891	24.42
617.083	24.26
617.275	24.17
617.467	24.24
617.659	24.13
617.85	24.01
618.042	24.17
618.234	23.99
618.426	23.93
618.618	23.99
618.809	23.82
619.001	23.83
619.193	23.84
619.384	23.87
619.576	23.89
619.768	23.92
619.959	23.79
620.151	23.61
620.343	23.88
620.534	23.75
620.726	23.84
620.917	24.09
621.109	24.11
621.301	24.19
621.492	24.2
621.684	24.19
621.875	24.34
622.067	24.58
622.258	24.44
622.45	24.39
622.641	24.7
622.832	24.73
623.024	24.64
623.215	24.44
623.407	24.51
623.598	24.67
623.789	24.56
623.981	24.52
624.172	24.5
624.363	24.7
624.555	24.53
624.746	24.6
624.937	24.65
625.129	24.6
625.32	24.75
625.511	24.66
625.702	24.46
625.893	24.47
626.085	24.47
626.276	24.56
626.467	24.52
626.658	24.53
626.849	24.45
627.04	24.37
627.231	24.34
627.422	24.32
627.614	24.37
627.805	24.43
627.996	24.52
628.187	24.51
628.378	24.63
628.569	24.67
628.76	24.69
628.951	24.69
629.142	24.64
629.332	24.89
629.523	24.89
629.714	24.97
629.905	25.03
630.096	25.05
630.287	24.89
630.478	24.64
630.669	24.67
630.859	24.81
631.05	24.77
631.241	24.97
631.432	25.01
631.623	25.05
631.813	25.02
632.004	24.86
632.195	24.83
632.385	24.75
632.576	24.78
632.767	24.58
632.957	24.67
633.148	24.73
633.339	24.57
633.529	24.42
633.72	24.48
633.91	24.53
634.101	24.59
634.292	24.58
634.482	24.75
634.673	25
634.863	25.21
635.054	25.06
635.244	25.02
635.435	25.08
635.625	25
635.815	25.07
636.006	24.96
636.196	25.15
636.387	25.23
636.577	25.2
636.767	25.02
636.958	25.05
637.148	25.21
637.338	25.3
637.529	25.34
637.719	25.34
637.909	25.18
638.099	25.24
638.29	25.07
638.48	25.08
638.67	24.99
638.86	24.9
639.05	24.82
639.241	24.69
639.431	24.75
639.621	24.72
639.811	24.8
640.001	24.87
640.191	24.96
640.381	25.1
640.571	25.17
640.761	25.35
640.951	25.48
641.141	25.54
641.331	25.73
641.521	25.7
641.711	25.73
641.901	25.86
642.091	25.96
642.281	25.71
642.471	25.7
642.661	25.61
642.851	25.55
643.041	25.6
643.231	25.63
643.42	25.66
643.61	25.79
643.8	25.86
643.99	25.83
644.18	25.68
644.369	25.77
644.559	25.62
644.749	25.62
644.939	25.44
645.128	25.39
645.318	25.25
645.508	25.19
645.697	25.23
645.887	25.33
646.076	25.51
646.266	25.35
646.456	25.38
646.645	25.36
646.835	25.37
647.024	25.76
647.214	25.72
647.403	25.85
647.593	25.76
647.782	25.44
647.972	25.34
648.161	25.22
648.351	25.34
648.54	25.47
648.73	25.64
648.919	25.67
649.108	25.54
649.298	25.45
649.487	25.42
649.677	25.57
649.866	25.98
650.055	25.92
650.244	25.89
650.434	26.13
650.623	25.94
650.812	25.88
651.002	25.89
651.191	25.85
651.38	26.1
651.569	26.16
651.758	26.13
651.947	25.72
652.137	25.72
652.326	25.64
652.515	25.51
652.704	25.75
652.893	25.91
653.082	25.8
653.271	25.8
653.46	25.62
653.649	25.69
653.838	25.63
654.027	25.9
654.216	26.05
654.405	26.03
654.594	26.07
654.783	26.1
654.972	25.92
655.161	25.96
655.35	26.17
655.539	26.21
655.728	26.04
655.916	26
656.105	25.8
656.294	25.7
656.483	25.61
656.672	25.35
656.86	25.01
657.049	24.88
657.238	25.08
657.427	24.71
657.615	24.63
657.804	24.69
657.993	24.73
658.181	24.76
658.37	24.83
658.559	25.08
658.747	25.13
658.936	25.27
659.125	25.22
659.313	25.07
659.502	25.33
659.69	25.47
659.879	25.43
660.067	25.35
660.256	25.46
660.444	25.46
660.633	25.38
660.821	25.42
661.01	25.5
661.198	25.76
661.387	25.77
661.575	25.7
661.763	25.63
661.952	25.69
662.14	25.75
662.328	25.72
662.517	25.74
662.705	25.73
662.893	25.87
663.082	25.88
663.27	25.91
663.458	25.95
663.646	25.8
663.834	25.65
664.023	25.74
664.211	25.85
664.399	25.79
664.587	25.68
664.775	25.71
664.963	25.86
665.152	25.74
665.34	25.74
665.528	25.79
665.716	26.24
665.904	26.3
666.092	26.14
666.28	26.16
666.468	26.15
666.656	26.18
666.844	26.15
667.032	26.07
667.22	26.04
667.408	26.08
667.596	26.2
667.784	26.05
667.971	26.3
668.159	26.37
668.347	26.4
668.535	26.43
668.723	26.48
668.911	26.43
669.098	26.41
669.286	26.52
669.474	26.41
669.662	26.22
669.849	26.13
670.037	26.13
670.225	26.12
670.413	26.13
670.6	26.22
670.788	26.09
670.976	26.14
671.163	26.08
671.351	25.95
671.538	25.86
671.726	25.84
671.913	25.89
672.101	25.73
672.289	25.88
672.476	25.74
672.664	25.55
672.851	25.78
673.039	25.73
673.226	25.59
673.413	25.82
673.601	26.09
673.788	26.44
673.976	26.39
674.163	26.43
674.35	26.22
674.538	26.21
674.725	26.17
674.912	26.3
675.1	26.59
675.287	26.98
675.474	26.85
675.662	26.87
675.849	26.61
676.036	26.7
676.223	26.83
676.411	26.93
676.598	26.95
676.785	27.21
676.972	26.87
677.159	26.75
677.346	26.57
677.533	26.72
677.721	26.55
677.908	26.73
678.095	26.89
678.282	26.86
678.469	27.09
678.656	27.16
678.843	27.44
679.03	27.46
679.217	27.59
679.404	27.57
679.591	27.38
679.778	27.67
679.964	27.49
680.151	27.37
680.338	27.47
680.525	27.38
680.712	27.42
680.899	27.26
681.086	27.22
681.272	27.24
681.459	27.14
681.646	27.16
681.833	27.06
682.02	27.13
682.206	27.02
682.393	27.01
682.58	26.94
682.766	27.22
682.953	27.04
683.14	27.41
683.326	27.28
683.513	27.36
683.7	27.85
683.886	27.6
684.073	27.5
684.259	27.68
684.446	27.49
684.632	27.52
684.819	27.06
685.005	27.07
685.192	27.09
685.378	27.12
685.565	27.48
685.751	27.16
685.938	27.41
686.124	27.59
686.31	27.53
686.497	27.55
686.683	27.54
686.87	27.6
687.056	27.74
687.242	27.35
687.429	27.23
687.615	27.09
687.801	27.02
687.987	26.96
688.174	27.28
688.36	27.3
688.546	27.5
688.732	27.43
688.918	27.41
689.105	27.55
689.291	27.63
689.477	27.69
689.663	27.58
689.849	27.69
690.035	27.65
690.221	27.25
690.407	27.14
690.593	27.02
690.779	27.17
690.965	27.37
691.151	27.14
691.337	27.59
691.523	27.52
691.709	27.52
691.895	27.9
692.081	28.12
692.267	28.2
692.453	28.39
692.639	28.46
692.825	28.37
693.011	28.38
693.196	28.45
693.382	28.1
693.568	28.01
693.754	28.22
693.94	27.74
694.125	27.94
694.311	27.82
694.497	27.44
694.682	27.06
694.868	27.18
695.054	27.21
695.239	27.01
695.425	27.02
695.611	27.14
695.796	27.08
695.982	27.45
696.168	27.37
696.353	27.61
696.539	27.99
696.724	28.35
696.91	28.39
697.095	28.31
697.281	28.37
697.466	28.22
697.652	28.29
697.837	28.26
698.023	28.01
698.208	27.89
698.393	27.59
698.579	27.36
698.764	27.27
698.949	27.1
699.135	26.97
699.32	27.03
699.505	27.2
699.691	27.27
699.876	27.3
700.061	27.42
700.246	27.13
700.432	27.3
700.617	27.52
700.802	27.66
700.987	27.93
701.172	28.16
701.358	28.12
701.543	28.09
701.728	28.03
701.913	28.05
702.098	27.95
702.283	28.12
702.468	28.4
702.653	28.59
702.838	28.37
703.023	28.02
703.208	28.2
703.393	28.44
703.578	28.66
703.763	28.65
703.948	28.45
704.133	28.97
704.318	29.31
704.503	29.25
704.688	29.37
704.873	29.61
705.057	30.05
705.242	29.78
705.427	29.61
705.612	29.7
705.797	29.98
705.981	30.33
706.166	30.3
706.351	30.37
706.536	30.59
706.72	30.42
706.905	30.47
707.09	30.32
707.274	30.51
707.459	30.87
707.644	30.47
707.828	30.31
708.013	30.25
708.197	29.81
708.382	29.9
708.567	29.96
708.751	29.92
708.936	29.94
709.12	29.67
709.305	29.69
709.489	29.34
709.673	29.54
709.858	29.64
710.042	29.64
710.227	29.96
710.411	29.77
710.596	29.51
710.78	29.52
710.964	29.62
711.149	29.78
711.333	29.63
711.517	29.58
711.702	29.83
711.886	29.72
712.07	29.67
712.254	29.77
712.438	29.72
712.623	29.76
712.807	29.45
712.991	29.19
713.175	29.08
713.359	29.02
713.544	29.2
713.728	28.77
713.912	28.67
714.096	28.67
714.28	28.2
714.464	28.25
714.648	28.43
714.832	28.61
715.016	28.79
715.2	29
715.384	29
715.568	29.23
715.752	29.25
715.936	29.17
716.12	28.93
716.304	28.89
716.488	28.78
716.671	28.35
716.855	28.35
717.039	28.07
717.223	27.73
717.407	27.86
717.59	27.51
717.774	27.69
717.958	27.59
718.142	27.8
718.325	28.11
718.509	28.22
718.693	28.5
718.877	28.61
719.06	28.62
719.244	29.11
719.428	29.05
719.611	28.85
719.795	28.84
719.978	29.05
720.162	29.03
720.345	28.87
720.529	28.62
720.713	28.51
720.896	28.31
721.08	28.57
721.263	28.5
721.446	28.3
721.63	28.67
721.813	28.68
721.997	28.68
722.18	28.77
722.364	28.97
722.547	29.27
722.73	28.99
722.914	29.17
723.097	29.18
723.28	29.09
723.464	29.21
723.647	29.16
723.83	28.98
724.013	28.93
724.197	29.09
724.38	29.15
724.563	28.86
724.746	29.02
724.929	29.07
725.112	29.4
725.296	29.4
725.479	29.48
725.662	29.37
725.845	29.81
726.028	29.83
726.211	29.21
726.394	28.72
726.577	28.99
726.76	29.47
726.943	29.42
727.126	29.14
727.309	28.96
727.492	29.25
727.675	29.19
727.858	28.72
728.041	28.79
728.224	29.01
728.407	28.92
728.589	28.56
728.772	28.14
728.955	28.45
729.138	28.44
729.321	28.57
729.503	28.33
729.686	28.22
729.869	28.52
730.052	28.61
730.234	28.99
730.417	29.01
730.6	29.3
730.782	29.53
730.965	29.3
731.148	29.4
731.33	29.39
731.513	29.81
731.695	30.4
731.878	30.26
732.061	30.63
732.243	30.23
732.426	30.56
732.608	30.41
732.791	29.92
732.973	29.6
733.156	29.27
733.338	29.17
733.52	29.13
733.703	28.94
733.885	29.25
734.068	28.95
734.25	28.9
734.432	29.01
734.615	28.9
734.797	29.44
734.979	29.91
735.162	30.31
735.344	30.94
735.526	30.27
735.708	29.99
735.891	29.68
736.073	29.61
736.255	29.44
736.437	29.42
736.619	30.14
736.802	29.98
736.984	29.94
737.166	29.48
737.348	29.1
737.53	29.51
737.712	29.52
737.894	29.08
738.076	29.49
738.258	30.2
738.44	30.22
738.622	29.96
738.804	29.65
738.986	28.92
739.168	28.72
739.35	28.85
739.532	29.07
739.714	29.07
739.896	29.45
740.078	29.13
740.259	29.11
740.441	28.82
740.623	28.7
740.805	29.2
740.987	29.7
741.168	30.66
741.35	30.33
741.532	29.91
741.714	30.11
741.895	30.36
742.077	30.08
742.259	29.56
742.44	30.11
742.622	30.11
742.804	29.76
742.985	29.75
743.167	29.29
743.348	29.27
743.53	29.45
743.711	29.36
743.893	28.92
744.075	29.34
744.256	29.72
744.438	29.49
744.619	29.26
744.8	29.86
744.982	30.48
745.163	30.77
745.345	31.14
745.526	30.81
745.707	30.82
745.889	31.5
746.07	30.94
746.252	30.49
746.433	30.45
746.614	31
746.795	30.39
746.977	29.63
747.158	29.06
747.339	29.49
747.52	30.24
747.702	30.18
747.883	30.09
748.064	30.62
748.245	30.96
748.426	31.04
748.607	30.8
748.788	31.46
748.97	32.24
749.151	32.64
749.332	32.04
749.513	32.12
749.694	32.02
749.875	32.29
750.056	32.18
750.237	32.3
750.418	32.49
750.599	32.93
750.78	32.96
750.96	32.68
751.141	32.72
751.322	32.2
751.503	32.04
751.684	32.17
751.865	31.64
752.046	31.63
752.226	31.47
752.407	30.95
752.588	30.99
752.769	30.51
752.949	30.61
753.13	30.89
753.311	31.22
753.492	31.02
753.672	31.28
753.853	30.81
754.034	30.59
754.214	31.33
754.395	31.57
754.575	31.17
754.756	31.55
754.937	31.47
755.117	30.93
755.298	31.32
755.478	31.44
755.659	31.35
755.839	31.84
756.02	31.38
756.2	30.94
756.381	31.48
756.561	31.39
756.741	30.96
756.922	30.68
757.102	31.14
757.283	30.88
757.463	30.57
757.643	30.1
757.823	30.32
758.004	30.77
758.184	30.3
758.364	29.17
758.545	30.04
758.725	30.23
758.905	30.75
759.085	29.89
759.265	29.82
759.446	30.14
759.626	30.69
759.806	30.01
759.986	30.72
760.166	30.59
760.346	30.84
760.526	30
760.706	29.74
760.886	29.36
761.066	30.14
761.246	29.57
761.426	29.35
761.606	29.28
761.786	29.38
761.966	28.3
762.146	28.34
762.326	28.16
762.506	27.97
762.686	27.86
762.866	27.8
763.046	27.64
763.225	28.08
763.405	28.08
763.585	28.57
763.765	28.89
763.945	29.15
764.124	29.41
764.304	29.52
764.484	29.43
764.664	29.44
764.843	29.39
765.023	29.2
765.203	29.31
765.382	29.26
765.562	28.32
765.741	28.21
765.921	28.21
766.101	27.99
766.28	28.33
766.46	28.97
766.639	28.98
766.819	29.5
766.998	29.86
767.178	30.29
767.357	30.01
767.537	30.41
767.716	30.55
767.896	31.14
768.075	31.43
768.254	31.68
768.434	31.68
768.613	32.05
768.792	31.64
768.972	32.02
769.151	32.23
769.33	32.24
769.51	32.37
769.689	32.03
769.868	32.15
770.047	31.46
770.226	31.6
770.406	31.78
770.585	31.87
770.764	31.33
770.943	30.71
771.122	30.7
771.301	30.71
771.48	30.81
771.66	31.43
771.839	30.79
772.018	31.37
772.197	30.5
772.376	30.03
772.555	29.25
772.734	30.44
772.913	30.62
773.092	29.14
773.271	29.74
773.449	29.58
773.628	29.02
773.807	29.86
773.986	30.53
774.165	32.28
774.344	32.6
774.523	33.08
774.701	32.31
774.88	32.31
775.059	33.68
775.238	34.08
775.417	33.87
775.595	33.68
775.774	32.75
775.953	31.82
776.131	30.62
776.31	31
776.489	31.28
776.667	31.66
776.846	31.64
777.025	30.42
777.203	29.64
777.382	30.47
777.56	30.81
777.739	31.33
777.917	31.09
778.096	31.4
778.274	30.84
778.453	30.73
778.631	30.07
778.81	30.91
778.988	31.66
779.166	32.21
779.345	32.36
779.523	32.28
779.702	33.39
779.88	34.31
780.058	34.11
780.237	34.01
780.415	34.21
780.593	35.16
780.771	34.77
780.95	34.09
781.128	34.56
781.306	34.66
781.484	35.29
781.662	33.72
781.841	33.42
782.019	32.52
782.197	32.82
782.375	32.69
782.553	32.09
782.731	31.66
782.909	32.53
783.087	31.75
783.265	30.86
783.443	30.94
783.621	30.54
783.799	30.61
783.977	30.98
784.155	30.36
784.333	30.48
784.511	30.3
784.689	30.68
784.867	30.91
785.045	31.43
785.223	32.43
785.4	31.76
785.578	32.85
785.756	33.4
785.934	33.78
786.112	34.25
786.289	33.58
786.467	33.47
786.645	32.56
786.823	31.17
787	31.23
787.178	30.29
787.356	29.71
787.533	29.18
787.711	28.87
787.889	28.66
788.066	28.18
788.244	28.2
788.421	28.87
788.599	28.71
788.776	29.69
788.954	29.35
789.131	28.84
789.309	29.52
789.486	30.21
789.664	30.15
789.841	30.5
790.019	30.86
790.196	31.71
790.373	31.83
790.551	33.38
790.728	33.53
790.906	33.13
791.083	34.23
791.26	34.44
791.437	33.29
791.615	33.12
791.792	33.13
791.969	33.61
792.146	33.81
792.324	33.8
792.501	32.89
792.678	33.2
792.855	33.83
793.032	32.79
793.209	33.24
793.387	33.59
793.564	33.4
793.741	32.99
793.918	32.08
794.095	31.83
794.272	31.44
794.449	32.08
794.626	31.44
794.803	31.52
794.98	31.61
795.157	29.85
795.334	30.21
795.511	29.91
795.688	31.05
795.864	30.57
796.041	29.75
796.218	30.65
796.395	30.27
796.572	30.91
796.749	30.95
796.925	31.26
797.102	32.97
797.279	33.28
797.456	34.3
797.632	33.12
797.809	34.15
797.986	34.66
798.162	34.43
798.339	34.03
798.516	32.57
798.692	32.36
798.869	32.83
799.046	32.21
799.222	31.07
799.399	30.04
799.575	29.72
799.752	29.56
799.928	28.86
800.105	28.22
800.281	28.97
800.458	29.57
800.634	29.39
800.811	28.95
800.987	30.17
801.163	30.68
801.34	30.91
801.516	31.62
801.692	30.82
801.869	32
802.045	31.69
802.221	31.66
802.398	32.22
802.574	32.65
802.75	33.13
802.926	31.12
803.103	31.89
803.279	32.59
803.455	32.8
803.631	33.04
803.807	32.26
803.983	33.44
804.16	31.52
804.336	32.17
804.512	31.48
804.688	31.13
804.864	31.31
805.04	30.69
805.216	30.65
805.392	30.53
805.568	31.57
805.744	31.92
805.92	31.34
806.096	31.29
806.272	31.26
806.448	31.3
806.623	32.01
806.799	32.56
806.975	32.4
807.151	32.4
807.327	32.31
807.503	31.48
807.678	32.52
807.854	32.47
808.03	32.61
808.206	31.81
808.381	32.54
808.557	30.95
808.733	30.95
808.908	31.29
809.084	31.39
809.26	32
809.435	32.43
809.611	31.59
809.787	31.54
809.962	32.19
810.138	31.92
810.313	31.52
810.489	31.62
810.664	31.18
810.84	30.25
811.015	28.98
811.191	28.91
811.366	29.91
811.542	30.31
811.717	30.87
811.892	31.87
812.068	33.3
812.243	33.3
812.419	33.46
812.594	34.85
812.769	34.93
812.944	35.59
813.12	34.09
813.295	32.1
813.47	30.48
813.645	29.57
813.821	28.45
813.996	27.59
814.171	27.16
814.346	27.76
814.521	25.43
814.697	24.89
814.872	25.1
815.047	25.27
815.222	25.99
815.397	27.6
815.572	27.35
815.747	28.03
815.922	28.71
816.097	28.66
816.272	29.86
816.447	30.25
816.622	30.2
816.797	28.75
816.972	29.44
817.147	28.9
817.322	27.93
817.496	28.05
817.671	28
817.846	27.04
818.021	26.75
818.196	24.71
818.371	25.3
818.545	26.53
818.72	28.11
818.895	26.59
819.069	27.16
819.244	27.61
819.419	27.85
819.594	27.74
819.768	28.56
819.943	29.33
820.117	29.8
820.292	29.68
820.467	29.57
820.641	29.64
820.816	30.62
820.99	30.2
821.165	30.08
821.339	29.66
821.514	29.44
821.688	28.78
821.863	28.45
822.037	28.4
822.212	28.4
822.386	28.09
822.56	27.97
822.735	27.75
822.909	27.6
823.084	27.59
823.258	27.72
823.432	27.64
823.606	27.92
823.781	28.02
823.955	27.95
824.129	27.81
824.303	27.63
824.478	27.9
824.652	27.93
824.826	28.38
825	28.06
825.174	28.05
825.348	28.49
825.523	28
825.697	28.2
825.871	28.56
826.045	29.07
826.219	29.52
826.393	29.16
826.567	28.96
826.741	28.64
826.915	28.63
827.089	28.18
827.263	27.95
827.437	28.11
827.611	27.86
827.784	27.11
827.958	26.46
828.132	26.8
828.306	26.74
828.48	26.61
828.654	26.32
828.827	26.68
829.001	26.68
829.175	26.2
829.349	26.05
829.522	25.39
829.696	25.95
829.87	26.55
830.044	26.29
830.217	26.22
830.391	27.84
830.565	27.79
830.738	28.82
830.912	29.14
831.085	30.33
831.259	29.92
831.432	30.27
831.606	31.28
831.779	31.37
831.953	31.04
832.126	30.07
832.3	29.02
832.473	29.62
832.647	28
832.82	28.33
832.994	27.48
833.167	28.27
833.34	28.13
833.514	27.81
833.687	27.22
833.86	27.6
834.034	28.5
834.207	28.6
834.38	29.09
834.553	28.76
834.727	28.28
834.9	28.87
835.073	28.52
835.246	28.66
835.419	27.89
835.593	28.75
835.766	28.4
835.939	27.72
836.112	28.06
836.285	26.81
836.458	26.8
836.631	27.62
836.804	27.04
836.977	27.7
837.15	28.87
837.323	29.69
837.496	29.32
837.669	30.3
837.842	29.96
838.015	28.99
838.188	30.94
838.361	32.44
838.533	32.47
838.706	31.74
838.879	31.79
839.052	30.55
839.225	30.9
839.398	30.76
839.57	31.12
839.743	31.86
839.916	31.51
840.088	31.91
840.261	31.33
840.434	31.15
840.607	32.24
840.779	33.8
840.952	33.72
841.124	32.95
841.297	33.64
841.47	31.63
841.642	31.58
841.815	32.33
841.987	31.23
842.16	33.62
842.332	34.78
842.505	35.81
842.677	33.28
842.85	32.01
843.022	32.57
843.194	33.37
843.367	35.64
843.539	36.11
843.712	37.25
843.884	38.83
844.056	36.59
844.229	36.98
844.401	37.06
844.573	34.51
844.745	34.17
844.918	36.3
845.09	34.86
845.262	32.75
845.434	33.87
845.606	34.03
845.779	30.33
845.951	30.72
846.123	27.55
846.295	25.34
846.467	29.77
846.639	34.42
846.811	35.37
846.983	34.89
847.155	35.6
847.327	34.9
847.499	35.51
847.671	38.47
847.843	40.35
848.015	42.97
848.187	43.09
848.359	44.47
848.531	42.56
848.703	39.82
848.875	43.28
849.047	45.47
849.218	43.87
849.39	41.42
849.562	42.79
849.734	40.28
849.905	37.7
850.077	40.96
850.249	39.22
850.421	39.69
850.592	42.87
850.764	40.58
850.936	36.05
851.107	39
851.279	37.8
851.451	36.27
851.622	36.88
851.794	41.17
851.965	41.69
852.137	39.24
852.308	37.54
852.48	35.75
852.651	33.92
852.823	38.31
852.994	38.06
853.166	40.16
853.337	42.06
853.509	40.36
853.68	34.13
853.851	33.52
854.023	35.47
854.194	38.3
854.365	40.4
854.537	41.51
854.708	39.34
854.879	38.19
855.05	37.39
855.222	34.15
855.393	39.75
855.564	43.44
855.735	41.75
855.906	44.97
856.078	43.49
856.249	41.72
856.42	42.24
856.591	42.11
856.762	39.29
856.933	42.78
857.104	43
857.275	40.61
857.446	43.55
857.617	42.27
857.788	38.42
857.959	45.43
858.13	48.46
858.301	51.16
858.472	52.26
858.643	52.8
858.814	48.55
858.985	45.73
859.155	45.23
859.326	43.84
859.497	42.18
859.668	41.42
859.839	32.44
860.009	28.24
860.18	24.65
860.351	19.17
860.522	26.57
860.692	26.68
860.863	30.86
861.034	29.87
861.204	25.81
861.375	27.05
861.546	27.03
861.716	28.93
861.887	29.87
862.057	29.43
862.228	33.3
862.398	28.13
862.569	29.74
862.739	28.48
862.91	26.95
863.08	30.35
863.251	35.28
863.421	36.76
863.592	40.68
863.762	39.33
863.932	41.58
864.103	39.49
864.273	38.83
864.443	41.25
864.614	42.93
864.784	47.66
864.954	49.47
865.125	47.92
865.295	46.6
865.465	45.51
865.635	45.3
865.805	42.25
865.976	42.59
866.146	43.7
866.316	40.95
866.486	40.96
866.656	39.88
866.826	39.38
866.996	35.41
867.166	35.04
867.336	36.3
867.506	36.12
867.676	38.33
867.846	41.93
868.016	41.43
868.186	41.98
868.356	41.95
868.526	34.82
868.696	32.39
868.866	35.2
869.036	39.2
869.206	37.54
869.376	38.77
869.545	37.22
869.715	37.1
869.885	40.09
870.055	40.31
870.224	39.16
870.394	43.87
870.564	43.18
870.734	43.23
870.903	43.1
871.073	42.79
871.243	41.95
871.412	43.15
871.582	42.73
871.751	40.07
871.921	40.35
872.091	39.62
872.26	40.91
872.43	43.17
872.599	40.78
872.769	36.07
872.938	35.68
873.108	36.13
873.277	34.34
873.446	30.26
873.616	32.94
873.785	28.32
873.955	25.42
874.124	19.37
874.293	21.08
874.463	23.92
874.632	27.81
874.801	25.22
874.971	28.95
875.14	29.6
875.309	31.78
875.478	33.1
875.647	38.8
875.817	45.19
875.986	47.32
876.155	44.37
876.324	42.55
876.493	42.07
876.662	45.48
876.831	40.99
877	37.78
877.17	37.84
877.339	36.71
877.508	36.42
877.677	28.75
877.846	31.99
878.015	33.43
878.184	31.12
878.352	30.56
878.521	28.35
878.69	25.33
878.859	30.7
879.028	30.24
879.197	27.39
879.366	22.9
879.534	26.05
879.703	23.82
879.872	25.56
880.041	27.33
880.21	28.18
880.378	28.37
880.547	28.74
880.716	26.73
880.884	26.74
881.053	27.81
881.222	27.66
881.39	26.91
881.559	26.98
881.727	26.85
881.896	26.83
882.065	26.11
882.233	26.41
882.402	26.47
882.57	26.51
882.739	25.87
882.907	25.07
883.076	25.39
883.244	25.86
883.412	26.41
883.581	25.93
883.749	25.66
883.918	26.12
884.086	26.09
884.254	26.15
884.423	25.82
884.591	26.48
884.759	27.26
884.927	27.25
885.096	26.36
885.264	23.62
885.432	24.17
885.6	24.21
885.769	23.83
885.937	22.54
886.105	23.76
886.273	25.07
886.441	23.97
886.609	23
886.777	25.13
886.945	27.7
887.113	29.06
887.281	29.58
887.449	29.18
887.617	29
887.785	28.51
887.953	26.48
888.121	29.24
888.289	34.53
888.457	36.8
888.625	30.74
888.793	30.39
888.961	32.51
889.129	27.81
889.296	29.19
889.464	29.29
889.632	31.14
889.8	32.18
889.967	27.15
890.135	21.61
