Data from 2938716__Reflection_01.txt Node
Date: Tue Mar 17 18:55:53 EDT 2015
User: robert
Spectrometer: USB4E03002
Autoset integration time: false
Trigger mode: 4
Integration Time (sec): 1.000000E-1
Scans to average: 10
Electric dark correction enabled: false
Nonlinearity correction enabled: false
Boxcar width: 5
Stray light correction enabled: false
XAxis mode: Wavelengths
Stop averaging: false
Number of Pixels in Spectrum: 3648
>>>>>Begin Spectral Data<<<<<
177.575	-1.32
177.794	-31.71
178.014	-16.5
178.233	-0.95
178.452	-0.84
178.672	-42.55
178.891	-82.46
179.11	-127.74
179.33	-522.64
179.549	-69.13
179.768	-44.48
179.987	-62.96
180.207	-58.73
180.426	-154.71
180.645	-18450
180.864	8600
181.084	684.62
181.303	320.83
181.522	275.45
181.741	1118.92
181.96	135.06
182.179	180.32
182.398	229.18
182.618	186.71
182.837	215.63
183.056	187.02
183.275	110.07
183.494	179.5
183.713	185.37
183.932	167.24
184.151	109.75
184.37	96.09
184.589	92.64
184.808	86.74
185.027	101.14
185.246	115.4
185.465	113.37
185.684	123.36
185.903	130.16
186.122	137.78
186.341	121.6
186.56	117.01
186.779	77.44
186.998	68.65
187.216	65.99
187.435	59.97
187.654	53.56
187.873	31.06
188.092	47.33
188.311	52.71
188.53	46.98
188.748	75.23
188.967	83.94
189.186	290.28
189.405	-38.66
189.623	20.37
189.842	27.67
190.061	-23.43
190.28	-86.64
190.498	-53.07
190.717	40.89
190.936	46.21
191.154	2333.33
191.373	72.14
191.592	125.54
191.81	73.14
192.029	81.74
192.248	63.43
192.466	30.88
192.685	49.63
192.904	85.6
193.122	135.44
193.341	150.5
193.559	158.71
193.778	184.31
193.996	190.32
194.215	690.91
194.433	-310.49
194.652	2890.91
194.87	428.57
195.089	2064.29
195.307	404.17
195.526	190.76
195.744	159.09
195.963	156.9
196.181	132.54
196.399	136
196.618	87.33
196.836	102.49
197.055	134.53
197.273	121.78
197.491	95.15
197.71	102.3
197.928	113.35
198.146	130.46
198.365	257.14
198.583	1165.79
198.801	5700
199.019	-40700
199.238	432.43
199.456	874
199.674	-478.49
199.892	-367.8
200.111	-116.04
200.329	-204.74
200.547	-260.61
200.765	619.79
200.983	297.7
201.202	156.97
201.42	185.27
201.638	133.72
201.856	96.88
202.074	81.76
202.292	143.79
202.51	104.88
202.728	107.84
202.946	57.02
203.165	-48.45
203.383	0
203.601	2.06
203.819	81.82
204.037	71.29
204.255	190.66
204.473	133.24
204.691	81.71
204.909	97.4
205.127	94.03
205.345	104.47
205.562	98.27
205.78	68.77
205.998	66.17
206.216	76.32
206.434	78.3
206.652	58.2
206.87	52.42
207.088	63.84
207.306	59.42
207.523	49.24
207.741	48.38
207.959	61.83
208.177	116.3
208.395	125.64
208.612	106.59
208.83	145.13
209.048	252.84
209.266	285.52
209.483	198.8
209.701	165.09
209.919	140.54
210.136	156.11
210.354	183.21
210.572	194.74
210.79	163.22
211.007	154.22
211.225	148.27
211.442	111.87
211.66	161.01
211.878	164.98
212.095	231.94
212.313	340.97
212.53	194.44
212.748	218.54
212.966	207.38
213.183	358.43
213.401	-477.5
213.618	-3700
213.836	795.24
214.053	135.63
214.271	120.87
214.488	129.79
214.705	75
214.923	77.14
215.14	94.81
215.358	67.09
215.575	35.5
215.793	71.57
216.01	88.71
216.227	95.34
216.445	83.17
216.662	46.01
216.879	55.76
217.097	39.83
217.314	28.7
217.531	30.65
217.749	38.84
217.966	69.57
218.183	62.32
218.4	53.92
218.618	35.32
218.835	38.18
219.052	35.42
219.269	28.44
219.487	34.82
219.704	35.31
219.921	38.83
220.138	31.79
220.355	17.05
220.572	23.46
220.79	25.31
221.007	39.78
221.224	41.78
221.441	47.07
221.658	50.03
221.875	39.62
222.092	32.02
222.309	27.8
222.526	31.99
222.743	32.3
222.96	28.8
223.177	23.34
223.394	15.23
223.611	9.32
223.828	8.43
224.045	5.33
224.262	13.52
224.479	20.71
224.696	19.96
224.913	13.92
225.13	13.17
225.347	8.11
225.564	10.7
225.781	14.63
225.997	17.46
226.214	19.32
226.431	16.07
226.648	10.8
226.865	8.05
227.082	7.82
227.298	7.8
227.515	7.52
227.732	7.45
227.949	7.02
228.165	5.56
228.382	5.25
228.599	4.61
228.816	5.38
229.032	4.67
229.249	4.87
229.466	4.12
229.682	3.59
229.899	3.38
230.116	3.9
230.332	3.83
230.549	2.92
230.765	2.06
230.982	1.05
231.199	1.07
231.415	1.59
231.632	2.27
231.848	2.13
232.065	3.68
232.281	3.47
232.498	3.16
232.714	3.37
232.931	8.21
233.147	9.88
233.364	10.35
233.58	8.08
233.797	9.83
234.013	8.6
234.23	9.11
234.446	7.61
234.662	6.4
234.879	5.92
235.095	5.07
235.312	3.26
235.528	2.28
235.744	-0.29
235.961	0.58
236.177	-1.59
236.393	-1.07
236.61	-1.24
236.826	0.78
237.042	1.95
237.258	1.9
237.475	1.9
237.691	0.4
237.907	-1.37
238.123	2.28
238.339	3.13
238.556	3.4
238.772	4.44
238.988	6.13
239.204	5.58
239.42	5.91
239.636	6.54
239.853	6.57
240.069	7.91
240.285	8.33
240.501	7.49
240.717	6.98
240.933	7.91
241.149	7.22
241.365	6.02
241.581	6.09
241.797	6.54
242.013	5.89
242.229	6.06
242.445	5.32
242.661	5.28
242.877	5.55
243.093	5.89
243.309	5.12
243.525	5.43
243.741	6.17
243.957	6.35
244.173	5.7
244.388	6.69
244.604	6.91
244.82	7.42
245.036	7.04
245.252	7.32
245.468	7.34
245.683	7.62
245.899	7.62
246.115	7.13
246.331	6.98
246.547	6.95
246.762	6.67
246.978	6.49
247.194	6.54
247.409	6.75
247.625	6.62
247.841	6.45
248.057	6.29
248.272	6.03
248.488	5.73
248.703	5.45
248.919	5.7
249.135	5.36
249.35	5.11
249.566	4.66
249.782	4.73
249.997	4.5
250.213	4.69
250.428	4.61
250.644	4.49
250.859	4.98
251.075	5.06
251.29	4.8
251.506	4.6
251.721	4.92
251.937	4.89
252.152	4.87
252.368	4.31
252.583	4.37
252.798	4.49
253.014	4.33
253.229	3.82
253.445	3.81
253.66	3.78
253.875	4.3
254.091	3.38
254.306	3.27
254.521	2.65
254.737	3.2
254.952	2.03
255.167	2.44
255.383	2.66
255.598	2.33
255.813	2.69
256.028	2.14
256.244	2.27
256.459	3.86
256.674	4.61
256.889	4.79
257.104	5.16
257.32	5.94
257.535	5.36
257.75	5.3
257.965	6.28
258.18	5.78
258.395	6.08
258.61	5.41
258.826	4.77
259.041	4.58
259.256	4.6
259.471	4.11
259.686	3.82
259.901	3.93
260.116	4.15
260.331	3.85
260.546	4.06
260.761	3.84
260.976	4.03
261.191	4.11
261.406	4.48
261.621	4.67
261.836	5.1
262.05	5.09
262.265	5.15
262.48	4.8
262.695	5.29
262.91	5.71
263.125	5.93
263.34	5.5
263.555	5.97
263.769	5.09
263.984	4.87
264.199	4.91
264.414	4.96
264.629	4.78
264.843	5.27
265.058	4.57
265.273	3.74
265.488	3.37
265.702	3.88
265.917	3.39
266.132	3.26
266.346	3.65
266.561	3.7
266.776	3.76
266.99	3.78
267.205	3.18
267.42	3.52
267.634	3.68
267.849	3.88
268.063	3.9
268.278	4.38
268.492	4.42
268.707	3.75
268.922	3.37
269.136	3.25
269.351	3.27
269.565	3.6
269.78	3.12
269.994	2.78
270.209	2.52
270.423	2.53
270.637	2.12
270.852	2.55
271.066	2.58
271.281	2.63
271.495	2.73
271.709	2.74
271.924	2.48
272.138	2.74
272.353	3.24
272.567	3.35
272.781	3.43
272.996	3.6
273.21	3.68
273.424	3.9
273.638	4.06
273.853	4.3
274.067	4.19
274.281	4.21
274.495	3.75
274.71	3.33
274.924	3.62
275.138	3.32
275.352	3.44
275.566	3.3
275.781	2.74
275.995	2.67
276.209	2.56
276.423	2.65
276.637	2.74
276.851	3.27
277.065	2.83
277.279	2.15
277.493	2.68
277.707	2.54
277.921	1.95
278.135	2.65
278.349	2.66
278.563	2.55
278.777	2.42
278.991	3
279.205	2.69
279.419	3.45
279.633	4.15
279.847	3.59
280.061	3.72
280.275	4.16
280.489	3.93
280.703	3.62
280.917	3.47
281.131	3.46
281.344	3.27
281.558	2.99
281.772	2.62
281.986	2.54
282.2	2.32
282.414	2.12
282.627	2.19
282.841	2.01
283.055	2.36
283.269	2.87
283.482	2.77
283.696	2.48
283.91	2.96
284.123	3.29
284.337	3.08
284.551	3.32
284.764	3.39
284.978	3.27
285.192	3.24
285.405	3.2
285.619	2.71
285.833	2.85
286.046	2.67
286.26	2.69
286.473	2.56
286.687	2.68
286.9	2.6
287.114	2.77
287.327	2.74
287.541	3.24
287.754	3.32
287.968	3.84
288.181	3.85
288.395	4.17
288.608	4.32
288.822	4.2
289.035	3.98
289.248	4.14
289.462	4.1
289.675	3.86
289.889	3.53
290.102	3.5
290.315	3.38
290.529	3.58
290.742	3.45
290.955	3.55
291.169	3.6
291.382	3.79
291.595	3.9
291.808	3.92
292.022	4.15
292.235	4.24
292.448	4.17
292.661	3.84
292.875	3.62
293.088	3.92
293.301	3.82
293.514	3.97
293.727	4.02
293.94	4.08
294.153	4.02
294.367	3.99
294.58	3.91
294.793	3.89
295.006	4.1
295.219	4.49
295.432	4.23
295.645	4.11
295.858	3.99
296.071	3.97
296.284	3.86
296.497	3.78
296.71	3.96
296.923	4.12
297.136	4.09
297.349	4.43
297.562	4.27
297.775	4.37
297.988	4.42
298.201	4.53
298.414	4.49
298.626	4.79
298.839	4.88
299.052	4.98
299.265	4.75
299.478	4.96
299.691	4.61
299.903	4.18
300.116	4.35
300.329	4.45
300.542	4.3
300.755	4.57
300.967	4.27
301.18	4.41
301.393	4.25
301.605	4.41
301.818	4.44
302.031	4.7
302.243	5.07
302.456	4.83
302.669	4.91
302.881	4.98
303.094	4.92
303.307	4.62
303.519	4.36
303.732	4.27
303.944	4.41
304.157	4.35
304.37	4.09
304.582	4.2
304.795	4.65
305.007	4.55
305.22	4.58
305.432	4.6
305.645	4.86
305.857	4.97
306.069	5.2
306.282	4.94
306.494	5.03
306.707	5.48
306.919	5.22
307.132	4.88
307.344	4.61
307.556	4.94
307.769	5.17
307.981	5.3
308.193	5.43
308.406	5.34
308.618	5.26
308.83	5.21
309.043	4.78
309.255	4.65
309.467	5.12
309.679	5.15
309.892	5.15
310.104	4.78
310.316	4.65
310.528	4.58
310.74	4.65
310.953	4.84
311.165	5.15
311.377	5.49
311.589	5.83
311.801	5.71
312.013	5.79
312.225	5.79
312.437	6.1
312.649	6.27
312.862	6.33
313.074	6.63
313.286	6.49
313.498	6.25
313.71	6.14
313.922	6.11
314.134	5.69
314.346	5.7
314.558	5.4
314.77	5.44
314.982	5.61
315.193	5.76
315.405	5.95
315.617	6.52
315.829	6.63
316.041	6.81
316.253	6.74
316.465	6.92
316.677	7.67
316.888	8
317.1	7.6
317.312	7.23
317.524	7.31
317.736	6.73
317.947	6.5
318.159	6.86
318.371	6.64
318.583	6.66
318.794	6.83
319.006	6.18
319.218	6.1
319.43	6.43
319.641	6.62
319.853	6.5
320.064	6.85
320.276	6.9
320.488	6.74
320.699	7.08
320.911	7.13
321.123	7.15
321.334	7.4
321.546	7.24
321.757	7.25
321.969	7.14
322.18	7.06
322.392	6.57
322.603	6.47
322.815	6.21
323.026	5.94
323.238	5.86
323.449	6.02
323.661	5.78
323.872	6.28
324.083	6.59
324.295	6.75
324.506	6.85
324.718	7.04
324.929	7.45
325.14	7.26
325.352	7.32
325.563	7.38
325.774	7.26
325.986	7.25
326.197	7.27
326.408	6.85
326.62	6.92
326.831	6.34
327.042	6.4
327.253	6.21
327.464	6.39
327.676	6.22
327.887	6.24
328.098	6.02
328.309	5.87
328.52	5.76
328.732	6.23
328.943	6.44
329.154	7.24
329.365	7.38
329.576	7.32
329.787	7.47
329.998	7.34
330.209	7.41
330.42	7.83
330.631	8.09
330.842	8.09
331.053	7.61
331.264	7.3
331.475	7.04
331.686	6.8
331.897	6.46
332.108	6.62
332.319	6.94
332.53	6.98
332.741	6.95
332.952	6.93
333.163	6.27
333.374	6.1
333.585	6.27
333.795	6.2
334.006	6.29
334.217	6.56
334.428	6.24
334.639	6.33
334.849	6.53
335.06	6.19
335.271	6.16
335.482	6.32
335.692	6.81
335.903	6.81
336.114	7.07
336.325	7.06
336.535	6.74
336.746	7.07
336.957	6.92
337.167	6.79
337.378	6.8
337.589	6.46
337.799	6.86
338.01	6.71
338.22	6.58
338.431	6.48
338.642	6.56
338.852	6.58
339.063	6.35
339.273	6.51
339.484	6.29
339.694	6.53
339.905	6.83
340.115	6.55
340.326	6.43
340.536	6.33
340.746	6.42
340.957	6.48
341.167	6.82
341.378	6.77
341.588	6.6
341.799	6.51
342.009	6.35
342.219	6.38
342.43	6.69
342.64	6.67
342.85	6.72
343.061	6.35
343.271	6.58
343.481	6.66
343.691	6.71
343.902	6.88
344.112	7.13
344.322	6.85
344.532	6.56
344.743	6.27
344.953	6.5
345.163	6.83
345.373	7.22
345.583	7.09
345.793	6.81
346.004	6.8
346.214	6.28
346.424	6.47
346.634	6.86
346.844	7.34
347.054	7.21
347.264	6.99
347.474	6.64
347.684	6.38
347.894	6.28
348.104	6.23
348.314	5.98
348.524	6.38
348.734	5.89
348.944	6.01
349.154	5.98
349.364	6.13
349.574	5.92
349.784	5.85
349.994	5.78
350.204	5.55
350.413	5.69
350.623	5.75
350.833	5.76
351.043	5.88
351.253	5.75
351.463	5.69
351.672	5.91
351.882	6.5
352.092	6.69
352.302	6.97
352.511	7
352.721	6.75
352.931	6.72
353.141	6.72
353.35	6.74
353.56	6.54
353.77	6.71
353.979	6.59
354.189	6.37
354.399	6.17
354.608	6.1
354.818	6.12
355.027	6.06
355.237	6.03
355.447	5.95
355.656	6.16
355.866	6.12
356.075	5.89
356.285	5.85
356.494	6.07
356.704	6.16
356.913	5.97
357.123	6.12
357.332	6.33
357.542	6.27
357.751	6.46
357.96	6.31
358.17	6.48
358.379	6.6
358.589	6.51
358.798	6.2
359.007	6.36
359.217	6.49
359.426	6.45
359.635	6.32
359.845	6.64
360.054	6.49
360.263	6.41
360.472	6.36
360.682	6.04
360.891	6.08
361.1	6.09
361.309	6.07
361.519	6.15
361.728	6.06
361.937	6.18
362.146	5.93
362.355	5.78
362.564	5.93
362.774	5.85
362.983	5.9
363.192	5.8
363.401	5.85
363.61	5.58
363.819	5.44
364.028	5.35
364.237	5.38
364.446	5.57
364.655	5.92
364.864	5.62
365.073	5.54
365.282	5.66
365.491	5.68
365.7	5.54
365.909	5.6
366.118	5.64
366.327	5.66
366.536	5.51
366.745	5.32
366.954	5.21
367.162	5.37
367.371	5.42
367.58	5.29
367.789	5.44
367.998	5.56
368.207	5.43
368.415	5.27
368.624	5.48
368.833	5.43
369.042	5.46
369.25	5.28
369.459	5.15
369.668	5.46
369.877	5.69
370.085	5.67
370.294	5.6
370.503	5.86
370.711	5.79
370.92	5.39
371.129	5.49
371.337	5.42
371.546	5.23
371.754	5.1
371.963	4.78
372.171	4.49
372.38	4.39
372.589	4.43
372.797	4.26
373.006	4.41
373.214	4.75
373.423	4.73
373.631	4.91
373.84	5.03
374.048	5.13
374.256	5.12
374.465	5.54
374.673	5.67
374.882	5.55
375.09	5.57
375.298	5.65
375.507	5.38
375.715	5.42
375.923	5.45
376.132	5.66
376.34	5.64
376.548	5.76
376.757	5.42
376.965	5.25
377.173	5.21
377.381	5.18
377.59	4.99
377.798	5.09
378.006	5.13
378.214	4.88
378.423	4.68
378.631	4.83
378.839	4.74
379.047	4.93
379.255	4.96
379.463	4.82
379.671	5
379.879	5.14
380.088	4.98
380.296	4.92
380.504	5.17
380.712	5.21
380.92	5.22
381.128	5.4
381.336	5.35
381.544	5.2
381.752	5.22
381.96	5.16
382.168	4.96
382.376	5.07
382.584	5.08
382.791	5.22
382.999	5.29
383.207	5.14
383.415	4.97
383.623	4.97
383.831	5.13
384.039	5.31
384.247	5.03
384.454	5.37
384.662	5.46
384.87	5.27
385.078	4.88
385.285	4.78
385.493	4.84
385.701	4.91
385.909	4.89
386.116	4.8
386.324	4.61
386.532	4.67
386.739	4.48
386.947	4.4
387.155	4.52
387.362	4.57
387.57	4.62
387.778	4.58
387.985	4.5
388.193	4.55
388.4	4.75
388.608	4.64
388.816	4.76
389.023	4.7
389.231	4.64
389.438	4.62
389.646	4.66
389.853	4.48
390.061	4.48
390.268	4.3
390.475	4.1
390.683	3.94
390.89	4.17
391.098	4.09
391.305	4.02
391.512	3.96
391.72	3.85
391.927	3.96
392.135	4.05
392.342	4.03
392.549	4.25
392.756	4.25
392.964	4.32
393.171	4.33
393.378	4.3
393.586	4.3
393.793	4.36
394	4.38
394.207	4.3
394.414	4.36
394.622	4.29
394.829	4.21
395.036	4.38
395.243	4.06
395.45	3.98
395.657	4.02
395.864	4.15
396.072	4.25
396.279	4.26
396.486	4.27
396.693	4.19
396.9	4.21
397.107	4.16
397.314	4.02
397.521	4.33
397.728	4.3
397.935	4.34
398.142	4.3
398.349	4.37
398.556	4.37
398.763	4.35
398.97	4.34
399.177	4.43
399.383	4.55
399.59	4.38
399.797	4.3
400.004	4.34
400.211	4.37
400.418	4.32
400.625	4.25
400.831	4.26
401.038	4.24
401.245	4.26
401.452	4.16
401.658	4.06
401.865	4.13
402.072	4.17
402.279	4.09
402.485	3.96
402.692	4.05
402.899	3.92
403.105	3.8
403.312	3.66
403.519	3.64
403.725	3.67
403.932	3.63
404.138	3.78
404.345	3.84
404.552	3.87
404.758	3.88
404.965	3.79
405.171	3.75
405.378	3.83
405.584	3.89
405.791	3.94
405.997	3.97
406.204	3.96
406.41	4
406.617	3.99
406.823	4.03
407.029	4.16
407.236	4.31
407.442	4.43
407.649	4.54
407.855	4.71
408.061	4.67
408.268	4.64
408.474	4.73
408.68	4.58
408.887	4.45
409.093	4.36
409.299	4.41
409.505	4.35
409.712	4.17
409.918	4.1
410.124	4
410.33	4.1
410.537	3.97
410.743	4.11
410.949	4.21
411.155	4.22
411.361	4.34
411.567	4.11
411.773	4.11
411.98	4.36
412.186	4.41
412.392	4.42
412.598	4.26
412.804	4.42
413.01	4.1
413.216	4.11
413.422	4.11
413.628	4.02
413.834	4.03
414.04	4.06
414.246	3.8
414.452	3.66
414.658	3.86
414.864	3.93
415.07	3.84
415.275	3.93
415.481	3.86
415.687	3.99
415.893	3.93
416.099	3.87
416.305	3.74
416.511	3.99
416.716	4
416.922	3.79
417.128	3.82
417.334	3.99
417.539	4.01
417.745	3.98
417.951	3.91
418.157	3.93
418.362	4
418.568	3.99
418.774	3.83
418.979	3.84
419.185	3.86
419.391	3.8
419.596	3.71
419.802	3.71
420.008	3.67
420.213	4.33
420.419	4.35
420.624	4.36
420.83	4.37
421.035	4.4
421.241	4.45
421.446	4.38
421.652	4.35
421.857	4.44
422.063	4.44
422.268	4.48
422.474	3.9
422.679	3.91
422.885	3.88
423.09	3.88
423.295	3.84
423.501	3.85
423.706	3.97
423.911	3.99
424.117	3.98
424.322	3.98
424.527	3.98
424.733	4.04
424.938	4.03
425.143	4.03
425.349	4.05
425.554	4.07
425.759	4.03
425.964	3.99
426.169	4.06
426.375	4.03
426.58	4.08
426.785	4.08
426.99	4
427.195	3.97
427.4	4.02
427.605	4.08
427.811	4.13
428.016	4.2
428.221	4.3
428.426	4.29
428.631	4.26
428.836	4.19
429.041	4.24
429.246	4.24
429.451	4.31
429.656	4.33
429.861	4.25
430.066	4.26
430.271	4.37
430.476	4.25
430.681	4.29
430.886	4.26
431.09	4.3
431.295	4.29
431.5	4.29
431.705	4.27
431.91	4.21
432.115	4.18
432.32	4.26
432.524	4.12
432.729	4.16
432.934	4.07
433.139	3.98
433.343	3.93
433.548	3.94
433.753	3.91
433.958	3.94
434.162	4
434.367	4.04
434.572	3.94
434.776	3.97
434.981	3.91
435.186	3.91
435.39	4.05
435.595	4.06
435.799	4.02
436.004	4.01
436.209	3.89
436.413	3.96
436.618	3.94
436.822	3.93
437.027	3.92
437.231	3.96
437.436	3.96
437.64	3.86
437.845	3.92
438.049	3.96
438.253	4.02
438.458	4.1
438.662	3.98
438.867	4.03
439.071	4.04
439.275	3.99
439.48	4.07
439.684	4.09
439.888	4.09
440.093	4.02
440.297	4.01
440.501	3.98
440.706	4
440.91	4.04
441.114	3.98
441.318	3.96
441.523	3.96
441.727	3.84
441.931	3.87
442.135	3.92
442.339	3.92
442.543	3.87
442.748	3.88
442.952	3.89
443.156	3.83
443.36	3.92
443.564	4.02
443.768	3.99
443.972	3.98
444.176	3.99
444.38	4.02
444.584	3.97
444.788	4.07
444.992	4.02
445.196	3.98
445.4	4.01
445.604	4
445.808	3.94
446.012	3.98
446.216	4.06
446.42	4.04
446.624	4.01
446.828	4.07
447.032	4.01
447.235	3.99
447.439	3.95
447.643	3.98
447.847	3.95
448.051	4.01
448.254	4.01
448.458	3.92
448.662	3.94
448.866	3.97
449.069	3.96
449.273	4
449.477	4.13
449.681	4.22
449.884	4.19
450.088	4.26
450.292	4.23
450.495	4.29
450.699	4.31
450.902	4.28
451.106	4.27
451.31	4.37
451.513	4.31
451.717	4.17
451.92	4.09
452.124	4.05
452.327	3.92
452.531	3.92
452.734	3.88
452.938	3.94
453.141	3.91
453.345	3.86
453.548	3.81
453.752	3.86
453.955	3.98
454.158	4.09
454.362	4.07
454.565	4.16
454.769	4.08
454.972	4.09
455.175	3.97
455.379	3.92
455.582	3.94
455.785	3.89
455.988	3.89
456.192	3.89
456.395	3.88
456.598	3.9
456.801	3.78
457.005	3.94
457.208	3.99
457.411	4.08
457.614	4.09
457.817	4.14
458.021	4.15
458.224	4.05
458.427	3.97
458.63	3.91
458.833	3.83
459.036	3.81
459.239	3.75
459.442	3.69
459.645	3.68
459.848	3.68
460.051	3.66
460.254	3.68
460.457	3.75
460.66	3.8
460.863	3.8
461.066	3.83
461.269	3.91
461.472	3.85
461.675	3.88
461.878	3.89
462.081	3.85
462.284	3.85
462.486	3.8
462.689	3.79
462.892	3.74
463.095	3.81
463.298	3.87
463.5	3.84
463.703	3.99
463.906	3.9
464.109	3.96
464.311	4.04
464.514	4.03
464.717	4.12
464.92	4.19
465.122	4.18
465.325	4.04
465.528	4.18
465.73	4.27
465.933	4.24
466.135	4.3
466.338	4.17
466.541	4.18
466.743	4.25
466.946	4.13
467.148	4.05
467.351	4.05
467.553	4.07
467.756	3.88
467.958	3.8
468.161	3.77
468.363	3.69
468.566	3.79
468.768	3.75
468.971	3.61
469.173	3.71
469.375	3.77
469.578	3.76
469.78	3.91
469.983	4.05
470.185	4.1
470.387	4.06
470.59	4.11
470.792	4.1
470.994	4.23
471.196	4.3
471.399	4.25
471.601	4.23
471.803	4.3
472.005	4.2
472.208	4.17
472.41	4.09
472.612	4.11
472.814	4.2
473.016	4.16
473.218	4.08
473.421	4.01
473.623	4.05
473.825	4.24
474.027	4.21
474.229	4.17
474.431	4.17
474.633	4.28
474.835	4.42
475.037	4.27
475.239	4.22
475.441	4.26
475.643	4.35
475.845	4.24
476.047	4.06
476.249	4.09
476.451	4.15
476.653	4.12
476.855	4.01
477.057	3.97
477.258	4.05
477.46	4.15
477.662	4.17
477.864	4.12
478.066	4.16
478.268	4.16
478.469	4.04
478.671	4.03
478.873	3.96
479.075	4.1
479.276	4.06
479.478	3.94
479.68	3.92
479.882	3.79
480.083	3.79
480.285	3.78
480.487	3.75
480.688	3.85
480.89	3.84
481.091	3.89
481.293	3.78
481.495	3.7
481.696	3.74
481.898	3.71
482.099	3.74
482.301	3.69
482.502	3.66
482.704	3.63
482.905	3.62
483.107	3.6
483.308	3.57
483.51	3.56
483.711	3.58
483.913	3.56
484.114	3.6
484.315	3.59
484.517	3.63
484.718	3.67
484.92	3.7
485.121	3.7
485.322	3.71
485.524	3.76
485.725	3.79
485.926	3.81
486.127	3.84
486.329	3.76
486.53	3.77
486.731	3.72
486.932	3.73
487.134	3.71
487.335	3.7
487.536	3.71
487.737	3.66
487.938	3.66
488.139	3.64
488.341	3.66
488.542	3.69
488.743	3.72
488.944	3.76
489.145	3.72
489.346	3.75
489.547	3.77
489.748	3.76
489.949	3.79
490.15	3.81
490.351	3.82
490.552	3.76
490.753	3.77
490.954	3.76
491.155	3.72
491.356	3.75
491.557	3.74
491.758	3.72
491.959	3.73
492.159	3.74
492.36	3.71
492.561	3.73
492.762	3.82
492.963	3.84
493.164	3.87
493.364	3.95
493.565	3.94
493.766	3.97
493.967	4.07
494.167	4.08
494.368	4.11
494.569	4.21
494.769	4.3
494.97	4.29
495.171	4.24
495.371	4.27
495.572	4.18
495.773	4.19
495.973	4.13
496.174	4.06
496.375	4.09
496.575	4.12
496.776	4.06
496.976	3.98
497.177	3.91
497.377	3.97
497.578	3.94
497.778	3.97
497.979	3.99
498.179	3.98
498.38	3.97
498.58	4
498.78	3.98
498.981	4.02
499.181	4.02
499.382	4.12
499.582	4.04
499.782	4.08
499.983	4.18
500.183	4.21
500.383	4.33
500.584	4.4
500.784	4.42
500.984	4.38
501.184	4.34
501.385	4.44
501.585	4.35
501.785	4.45
501.985	4.47
502.185	4.5
502.386	4.49
502.586	4.51
502.786	4.46
502.986	4.38
503.186	4.38
503.386	4.36
503.586	4.44
503.786	4.47
503.987	4.41
504.187	4.4
504.387	4.33
504.587	4.38
504.787	4.33
504.987	4.4
505.187	4.46
505.387	4.53
505.587	4.61
505.786	4.57
505.986	4.65
506.186	4.69
506.386	4.71
506.586	4.84
506.786	4.84
506.986	4.88
507.186	4.94
507.386	4.95
507.585	4.9
507.785	4.91
507.985	4.82
508.185	4.84
508.384	4.87
508.584	4.86
508.784	4.72
508.984	4.65
509.183	4.61
509.383	4.59
509.583	4.59
509.782	4.64
509.982	4.67
510.182	4.7
510.381	4.64
510.581	4.69
510.781	4.7
510.98	4.79
511.18	4.86
511.379	4.94
511.579	4.9
511.778	4.95
511.978	4.98
512.177	5.03
512.377	5.18
512.576	5.22
512.776	5.27
512.975	5.29
513.175	5.3
513.374	5.3
513.573	5.3
513.773	5.36
513.972	5.39
514.172	5.42
514.371	5.36
514.57	5.33
514.77	5.4
514.969	5.4
515.168	5.45
515.367	5.51
515.567	5.59
515.766	5.6
515.965	5.65
516.164	5.67
516.364	5.7
516.563	5.7
516.762	5.67
516.961	5.66
517.16	5.65
517.359	5.68
517.559	5.69
517.758	5.67
517.957	5.67
518.156	5.71
518.355	5.73
518.554	5.78
518.753	5.87
518.952	5.94
519.151	5.97
519.35	6
519.549	6.02
519.748	6.08
519.947	6.13
520.146	6.2
520.345	6.17
520.544	6.21
520.743	6.17
520.942	6.17
521.141	6.16
521.339	6.22
521.538	6.21
521.737	6.22
521.936	6.26
522.135	6.33
522.333	6.33
522.532	6.37
522.731	6.4
522.93	6.45
523.129	6.49
523.327	6.57
523.526	6.57
523.725	6.65
523.923	6.75
524.122	6.71
524.321	6.7
524.519	6.75
524.718	6.72
524.917	6.74
525.115	6.8
525.314	6.8
525.512	6.78
525.711	6.82
525.909	6.84
526.108	6.81
526.306	6.85
526.505	6.88
526.703	6.92
526.902	6.94
527.1	6.93
527.299	6.94
527.497	6.95
527.696	6.91
527.894	6.92
528.092	6.89
528.291	6.9
528.489	6.88
528.688	6.9
528.886	6.89
529.084	6.92
529.283	6.98
529.481	7
529.679	7.04
529.877	7.1
530.076	7.15
530.274	7.2
530.472	7.25
530.67	7.29
530.869	7.34
531.067	7.38
531.265	7.4
531.463	7.37
531.661	7.31
531.859	7.35
532.057	7.39
532.255	7.43
532.454	7.48
532.652	7.47
532.85	7.54
533.048	7.53
533.246	7.56
533.444	7.61
533.642	7.65
533.84	7.75
534.038	7.81
534.236	7.84
534.434	7.83
534.632	7.86
534.83	7.93
535.027	7.95
535.225	8.01
535.423	8.01
535.621	8.05
535.819	8.09
536.017	8.05
536.215	8.03
536.412	8.05
536.61	8.08
536.808	8.07
537.006	8.02
537.203	8.04
537.401	8.03
537.599	8.06
537.797	8.05
537.994	8.08
538.192	8.2
538.39	8.22
538.587	8.21
538.785	8.26
538.983	8.32
539.18	8.46
539.378	8.47
539.575	8.54
539.773	8.56
539.97	8.55
540.168	8.62
540.366	8.63
540.563	8.64
540.761	8.68
540.958	8.7
541.155	8.77
541.353	8.75
541.55	8.79
541.748	8.81
541.945	8.84
542.143	8.95
542.34	8.96
542.537	9.03
542.735	9.06
542.932	9.07
543.129	9.09
543.327	9.07
543.524	9.15
543.721	9.24
543.919	9.29
544.116	9.35
544.313	9.36
544.51	9.43
544.708	9.45
544.905	9.53
545.102	9.7
545.299	9.74
545.496	9.85
545.693	9.89
545.891	9.93
546.088	9.96
546.285	9.98
546.482	10.07
546.679	10.06
546.876	10.04
547.073	10.06
547.27	10.03
547.467	10.09
547.664	10.07
547.861	10
548.058	10.02
548.255	10.11
548.452	10.17
548.649	10.12
548.846	10.11
549.043	10.09
549.24	10.2
549.437	10.16
549.633	10.16
549.83	10.22
550.027	10.33
550.224	10.4
550.421	10.37
550.618	10.39
550.814	10.41
551.011	10.52
551.208	10.66
551.405	10.54
551.601	10.64
551.798	10.74
551.995	10.66
552.191	10.73
552.388	10.73
552.585	10.69
552.781	10.64
552.978	10.71
553.175	10.72
553.371	10.78
553.568	10.84
553.764	10.87
553.961	10.89
554.157	11.06
554.354	11.03
554.55	10.98
554.747	11.12
554.943	11.31
555.14	11.38
555.336	11.37
555.533	11.34
555.729	11.38
555.926	11.28
556.122	11.2
556.318	11.06
556.515	11.18
556.711	11.32
556.907	11.28
557.104	11.32
557.3	11.24
557.496	11.43
557.693	11.38
557.889	11.54
558.085	11.69
558.281	11.77
558.478	11.93
558.674	11.92
558.87	11.9
559.066	11.91
559.262	11.82
559.459	11.87
559.655	11.68
559.851	11.75
560.047	11.74
560.243	11.74
560.439	11.88
560.635	11.94
560.831	12.04
561.027	12.1
561.223	12.24
561.419	12.35
561.615	12.34
561.811	12.45
562.007	12.52
562.203	12.57
562.399	12.56
562.595	12.54
562.791	12.58
562.987	12.61
563.183	12.64
563.379	12.53
563.575	12.58
563.771	12.78
563.966	12.89
564.162	12.97
564.358	12.98
564.554	13.06
564.75	13.03
564.945	13
565.141	12.87
565.337	12.93
565.533	13.05
565.728	13.02
565.924	12.96
566.12	13.01
566.315	12.99
566.511	13.05
566.707	13.06
566.902	13.18
567.098	13.2
567.293	13.29
567.489	13.3
567.684	13.36
567.88	13.45
568.076	13.51
568.271	13.58
568.467	13.69
568.662	13.64
568.858	13.82
569.053	13.68
569.248	13.74
569.444	13.9
569.639	13.89
569.835	13.9
570.03	13.92
570.225	13.94
570.421	13.81
570.616	13.77
570.812	13.85
571.007	13.79
571.202	14
571.397	14.06
571.593	14.06
571.788	14.07
571.983	14.07
572.178	14.07
572.374	14.1
572.569	14.15
572.764	14.21
572.959	14.19
573.154	14.23
573.35	14.27
573.545	14.34
573.74	14.29
573.935	14.44
574.13	14.44
574.325	14.42
574.52	14.45
574.715	14.59
574.91	14.62
575.105	14.69
575.3	14.74
575.495	14.72
575.69	14.71
575.885	14.79
576.08	14.74
576.275	14.89
576.47	14.99
576.665	15.09
576.86	15.12
577.055	15.14
577.25	15.19
577.444	15.24
577.639	15.33
577.834	15.39
578.029	15.45
578.224	15.54
578.418	15.6
578.613	15.71
578.808	15.72
579.003	15.65
579.197	15.74
579.392	15.78
579.587	15.8
579.781	15.74
579.976	15.83
580.171	15.93
580.365	15.97
580.56	15.93
580.755	16.01
580.949	15.96
581.144	15.98
581.338	15.88
581.533	15.91
581.727	15.85
581.922	15.96
582.116	15.95
582.311	15.85
582.505	15.87
582.7	15.92
582.894	15.75
583.089	15.87
583.283	16.03
583.478	16.17
583.672	16.19
583.866	16.29
584.061	16.3
584.255	16.34
584.449	16.4
584.644	16.46
584.838	16.45
585.032	16.56
585.226	16.53
585.421	16.49
585.615	16.47
585.809	16.45
586.003	16.58
586.198	16.59
586.392	16.6
586.586	16.64
586.78	16.51
586.974	16.57
587.168	16.67
587.363	16.84
587.557	16.85
587.751	16.95
587.945	16.99
588.139	16.94
588.333	16.99
588.527	16.92
588.721	16.9
588.915	17.05
589.109	17.19
589.303	17.04
589.497	16.96
589.691	17
589.885	17.07
590.079	17.13
590.273	17.09
590.466	17.09
590.66	17.2
590.854	17.29
591.048	17.41
591.242	17.19
591.436	17.3
591.629	17.43
591.823	17.39
592.017	17.31
592.211	17.34
592.404	17.47
592.598	17.42
592.792	17.3
592.986	17.22
593.179	17.12
593.373	17.31
593.567	17.37
593.76	17.23
593.954	17.31
594.147	17.5
594.341	17.48
594.535	17.47
594.728	17.43
594.922	17.54
595.115	17.7
595.309	17.65
595.502	17.59
595.696	17.54
595.889	17.56
596.083	17.7
596.276	17.63
596.47	17.55
596.663	17.56
596.856	17.65
597.05	17.64
597.243	17.56
597.437	17.74
597.63	17.8
597.823	17.81
598.017	17.84
598.21	17.8
598.403	17.75
598.596	17.95
598.79	18.04
598.983	18.09
599.176	18.13
599.369	18.14
599.563	17.93
599.756	17.84
599.949	17.93
600.142	17.94
600.335	17.74
600.528	17.84
600.722	17.7
600.915	17.69
601.108	17.74
601.301	17.88
601.494	17.84
601.687	17.88
601.88	17.96
602.073	17.92
602.266	18.01
602.459	18.2
602.652	18.21
602.845	18.34
603.038	18.3
603.231	18.33
603.424	18.26
603.617	18.35
603.809	18.25
604.002	18.15
604.195	18.28
604.388	18.21
604.581	18.21
604.774	18.18
604.966	18.12
605.159	18.08
605.352	18.04
605.545	18.04
605.737	18.11
605.93	18.37
606.123	18.57
606.316	18.48
606.508	18.48
606.701	18.49
606.894	18.59
607.086	18.8
607.279	19.04
607.471	19.13
607.664	19.23
607.857	19.31
608.049	19.3
608.242	19.43
608.434	19.74
608.627	20.18
608.819	20.59
609.012	20.92
609.204	21.18
609.397	21.54
609.589	22.04
609.782	22.6
609.974	23.15
610.166	23.77
610.359	24.26
610.551	24.62
610.743	24.95
610.936	25.37
611.128	25.65
611.32	25.99
611.513	26.11
611.705	25.99
611.897	25.97
612.09	25.74
612.282	25.51
612.474	25.22
612.666	25.19
612.858	24.89
613.051	24.55
613.243	24.16
613.435	23.99
613.627	23.66
613.819	23.63
614.011	23.47
614.203	23.41
614.395	23.18
614.588	23.1
614.78	22.81
614.972	22.59
615.164	22.32
615.356	22.29
615.548	21.83
615.74	21.73
615.932	21.47
616.124	21.14
616.315	20.91
616.507	20.95
616.699	20.83
616.891	20.6
617.083	20.43
617.275	20.34
617.467	20.3
617.659	20.33
617.85	20.2
618.042	20.11
618.234	19.94
618.426	19.9
618.618	19.52
618.809	19.35
619.001	19.23
619.193	19.23
619.384	19.23
619.576	19.22
619.768	19.14
619.959	19.07
620.151	19.21
620.343	19.31
620.534	19.18
620.726	19.44
620.917	19.53
621.109	19.74
621.301	19.78
621.492	19.71
621.684	19.63
621.875	19.56
622.067	19.77
622.258	19.77
622.45	19.72
622.641	19.95
622.832	19.87
623.024	19.98
623.215	20.15
623.407	20.32
623.598	20.42
623.789	20.6
623.981	20.76
624.172	20.74
624.363	20.73
624.555	20.84
624.746	20.75
624.937	20.67
625.129	20.51
625.32	20.4
625.511	20.45
625.702	20.39
625.893	20.14
626.085	20.02
626.276	20.03
626.467	19.97
626.658	19.86
626.849	19.87
627.04	20.02
627.231	20.11
627.422	20.04
627.614	19.91
627.805	19.95
627.996	20.1
628.187	20.25
628.378	20.18
628.569	20.29
628.76	20.6
628.951	20.78
629.142	20.93
629.332	20.96
629.523	21.04
629.714	21.06
629.905	21.1
630.096	21.15
630.287	21.37
630.478	21.54
630.669	21.5
630.859	21.49
631.05	21.45
631.241	21.43
631.432	21.5
631.623	21.41
631.813	21.44
632.004	21.42
632.195	21.19
632.385	20.9
632.576	20.86
632.767	20.9
632.957	20.74
633.148	20.64
633.339	20.42
633.529	20.49
633.72	20.45
633.91	20.37
634.101	20.48
634.292	20.55
634.482	20.43
634.673	20.37
634.863	20.5
635.054	20.35
635.244	20.46
635.435	20.41
635.625	20
635.815	19.91
636.006	19.99
636.196	19.93
636.387	19.95
636.577	20.09
636.767	20.04
636.958	19.87
637.148	20.02
637.338	19.65
637.529	19.81
637.719	19.84
637.909	19.99
638.099	20.03
638.29	19.98
638.48	20.03
638.67	19.96
638.86	19.9
639.05	19.72
639.241	19.51
639.431	19.73
639.621	19.72
639.811	20.1
640.001	20.15
640.191	20.26
640.381	20.17
640.571	20.15
640.761	20.15
640.951	20.24
641.141	20.52
641.331	20.57
641.521	20.58
641.711	20.57
641.901	20.3
642.091	20.29
642.281	20.15
642.471	20.07
642.661	20.12
642.851	20.17
643.041	20.07
643.231	20
643.42	20.17
643.61	20.17
643.8	19.93
643.99	20.18
644.18	20.11
644.369	20.18
644.559	20.17
644.749	20.18
644.939	20.23
645.128	20.37
645.318	20.73
645.508	20.7
645.697	20.54
645.887	20.72
646.076	20.4
646.266	20.57
646.456	20.44
646.645	20.6
646.835	20.43
647.024	20.64
647.214	20.63
647.403	20.42
647.593	20.37
647.782	20.72
647.972	20.74
648.161	21.03
648.351	20.99
648.54	21.13
648.73	20.98
648.919	21.04
649.108	20.78
649.298	20.93
649.487	20.96
649.677	21.04
649.866	20.83
650.055	20.85
650.244	20.74
650.434	20.78
650.623	20.83
650.812	21.12
651.002	21.32
651.191	21.51
651.38	21.49
651.569	21.15
651.758	21.23
651.947	21.25
652.137	21.51
652.326	21.56
652.515	21.29
652.704	21.24
652.893	21.01
653.082	20.88
653.271	20.77
653.46	20.92
653.649	21.23
653.838	20.98
654.027	21.02
654.216	20.69
654.405	20.72
654.594	20.8
654.783	20.84
654.972	21.09
655.161	21.3
655.35	21.18
655.539	20.98
655.728	20.87
655.916	21.13
656.105	21.23
656.294	21.24
656.483	21.35
656.672	21.65
656.86	21.64
657.049	21.31
657.238	21.03
657.427	21.21
657.615	21.17
657.804	20.96
657.993	20.86
658.181	21.03
658.37	21.09
658.559	21.07
658.747	20.89
658.936	20.9
659.125	20.83
659.313	21
659.502	20.92
659.69	20.77
659.879	20.94
660.067	20.96
660.256	20.62
660.444	20.6
660.633	20.77
660.821	20.77
661.01	20.7
661.198	21.05
661.387	20.97
661.575	21.18
661.763	21.36
661.952	21.57
662.14	21.61
662.328	21.71
662.517	21.9
662.705	21.43
662.893	21.57
663.082	21.53
663.27	21.38
663.458	21.55
663.646	21.56
663.834	21.64
664.023	21.41
664.211	21.42
664.399	21.42
664.587	21.29
664.775	21.68
664.963	21.48
665.152	21.53
665.34	21.64
665.528	21.36
665.716	21.29
665.904	21.35
666.092	21.11
666.28	21.01
666.468	21.02
666.656	21.03
666.844	20.9
667.032	21.04
667.22	21.02
667.408	21.15
667.596	21.52
667.784	21.6
667.971	21.63
668.159	21.92
668.347	22.07
668.535	22.19
668.723	22.07
668.911	22.16
669.098	22.04
669.286	22.06
669.474	21.76
669.662	21.36
669.849	21.11
670.037	21.1
670.225	21.12
670.413	20.9
670.6	20.8
670.788	20.89
670.976	20.85
671.163	20.79
671.351	20.83
671.538	21.03
671.726	21.19
671.913	21.34
672.101	21.17
672.289	21.04
672.476	21.29
672.664	21.41
672.851	21.64
673.039	21.6
673.226	21.73
673.413	21.7
673.601	21.75
673.788	21.71
673.976	21.63
674.163	21.92
674.35	22.02
674.538	22.13
674.725	22.07
674.912	21.96
675.1	21.96
675.287	22.27
675.474	22.25
675.662	21.98
675.849	22.03
676.036	22.2
676.223	22.17
676.411	21.98
676.598	21.92
676.785	22.16
676.972	21.98
677.159	21.91
677.346	21.81
677.533	21.89
677.721	22.11
677.908	22.14
678.095	21.92
678.282	21.93
678.469	21.93
678.656	22.06
678.843	21.7
679.03	21.91
679.217	21.97
679.404	21.77
679.591	21.85
679.778	21.77
679.964	21.87
680.151	22.06
680.338	22.03
680.525	22.1
680.712	22.13
680.899	22.16
681.086	22.14
681.272	22.41
681.459	22.46
681.646	22.42
681.833	22.51
682.02	22.45
682.206	22.43
682.393	22.4
682.58	22.58
682.766	22.52
682.953	22.65
683.14	22.63
683.326	22.57
683.513	22.7
683.7	22.64
683.886	22.57
684.073	22.59
684.259	22.55
684.446	22.56
684.632	22.85
684.819	22.8
685.005	22.76
685.192	22.86
685.378	22.82
685.565	22.96
685.751	23.1
685.938	23.35
686.124	23.22
686.31	23.26
686.497	23.3
686.683	23.04
686.87	22.85
687.056	22.96
687.242	22.79
687.429	22.68
687.615	22.68
687.801	22.57
687.987	22.47
688.174	22.52
688.36	22.73
688.546	22.66
688.732	22.73
688.918	22.79
689.105	22.91
689.291	22.95
689.477	22.91
689.663	22.8
689.849	23.02
690.035	22.86
690.221	23.03
690.407	22.99
690.593	22.9
690.779	22.89
690.965	22.73
691.151	22.47
691.337	22.4
691.523	22.51
691.709	22.54
691.895	22.37
692.081	22.47
692.267	22.46
692.453	22.15
692.639	22.29
692.825	22.16
693.011	22.42
693.196	22.59
693.382	22.62
693.568	22.71
693.754	22.95
693.94	23.05
694.125	23.28
694.311	23.52
694.497	23.59
694.682	23.49
694.868	23.4
695.054	23.37
695.239	23.31
695.425	23.24
695.611	23.26
695.796	23.16
695.982	22.81
696.168	22.68
696.353	22.31
696.539	22.38
696.724	22.52
696.91	22.6
697.095	22.43
697.281	22.57
697.466	22.77
697.652	22.76
697.837	22.69
698.023	22.83
698.208	22.65
698.393	22.57
698.579	22.7
698.764	22.55
698.949	22.69
699.135	22.71
699.32	22.53
699.505	22.45
699.691	22.27
699.876	22.37
700.061	22.52
700.246	22.85
700.432	23.11
700.617	23.07
700.802	23.23
700.987	23.49
701.172	24.17
701.358	24.48
701.543	24.69
701.728	24.82
701.913	24.61
702.098	24.56
702.283	24.35
702.468	24.33
702.653	24.17
702.838	24.45
703.023	24.28
703.208	23.58
703.393	23.69
703.578	23.59
703.763	24.03
703.948	24.32
704.133	24.49
704.318	24.59
704.503	24.75
704.688	24.81
704.873	24.81
705.057	25.01
705.242	25.17
705.427	25.31
705.612	25.69
705.797	25.61
705.981	25.73
706.166	26.08
706.351	26.77
706.536	26.95
706.72	27.5
706.905	27.36
707.09	27.06
707.274	27.25
707.459	27.17
707.644	27.09
707.828	27.08
708.013	27.01
708.197	26.57
708.382	26.11
708.567	26.01
708.751	25.43
708.936	25.44
709.12	25.79
709.305	25.85
709.489	25.67
709.673	25.53
709.858	25.66
710.042	25.58
710.227	25.92
710.411	25.76
710.596	26.01
710.78	26.42
710.964	26.65
711.149	26.59
711.333	26.42
711.517	26.22
711.702	26.31
711.886	26.22
712.07	26.42
712.254	26.3
712.438	26.21
712.623	25.82
712.807	25.77
712.991	25.56
713.175	25.39
713.359	25.3
713.544	25.44
713.728	25.19
713.912	24.77
714.096	24.29
714.28	24.09
714.464	24.46
714.648	24.42
714.832	23.96
715.016	23.94
715.2	23.94
715.384	23.98
715.568	24.06
715.752	24.17
715.936	24.36
716.12	24.41
716.304	24.41
716.488	24.27
716.671	24.29
716.855	24.59
717.039	24.51
717.223	24.18
717.407	24.02
717.59	24.08
717.774	24
717.958	23.81
718.142	24
718.325	23.91
718.509	23.45
718.693	23.18
718.877	22.75
719.06	22.57
719.244	22.67
719.428	22.67
719.611	22.4
719.795	22.18
719.978	22.68
720.162	22.41
720.345	22.58
720.529	23.04
720.713	23.56
720.896	23.94
721.08	24.17
721.263	24.53
721.446	24.78
721.63	24.87
721.813	25.16
721.997	24.91
722.18	24.95
722.364	24.81
722.547	24.54
722.73	24.23
722.914	24.41
723.097	24.57
723.28	23.74
723.464	23.88
723.647	23.78
723.83	23.71
724.013	23.57
724.197	23.72
724.38	23.75
724.563	24.2
724.746	24.47
724.929	24.32
725.112	23.58
725.296	24.37
725.479	24.25
725.662	24.46
725.845	24.07
726.028	24.19
726.211	24.11
726.394	24.29
726.577	23.86
726.76	23.69
726.943	23.82
727.126	24.38
727.309	24.15
727.492	24.24
727.675	24.26
727.858	24.67
728.041	24.37
728.224	24.36
728.407	24.05
728.589	24.02
728.772	23.93
728.955	24.02
729.138	24.08
729.321	24.2
729.503	24.48
729.686	24.53
729.869	24.33
730.052	24.89
730.234	25.48
730.417	26.12
730.6	26.18
730.782	26.57
730.965	26.3
731.148	26.26
731.33	26.02
731.513	25.93
731.695	26.17
731.878	26.26
732.061	25.94
732.243	25.66
732.426	25.32
732.608	25.46
732.791	25.31
732.973	25.57
733.156	25.11
733.338	25.1
733.52	24.86
733.703	24.42
733.885	24.52
734.068	24.51
734.25	24.37
734.432	24.34
734.615	24.54
734.797	24.2
734.979	23.85
735.162	24.11
735.344	24.34
735.526	24.27
735.708	24.32
735.891	24.29
736.073	24.22
736.255	24.4
736.437	24.33
736.619	24.09
736.802	24.03
736.984	24.3
737.166	24.4
737.348	24.61
737.53	24.9
737.712	24.87
737.894	24.96
738.076	24.82
738.258	24.97
738.44	24.93
738.622	24.51
738.804	24.81
738.986	24.43
739.168	24.81
739.35	24.51
739.532	24.27
739.714	24.72
739.896	24.84
740.078	25.01
740.259	24.65
740.441	24.81
740.623	24.63
740.805	24.84
740.987	24.82
741.168	24.43
741.35	24.4
741.532	24.62
741.714	23.86
741.895	24.01
742.077	24.09
742.259	24.47
742.44	24.48
742.622	25.11
742.804	25.21
742.985	26.27
743.167	26.34
743.348	26.31
743.53	25.99
743.711	26.51
743.893	26.41
744.075	27.15
744.256	26.94
744.438	26.37
744.619	26.68
744.8	25.89
744.982	25.58
745.163	25.52
745.345	25.86
745.526	25.75
745.707	25.71
745.889	25.41
746.07	25.18
746.252	25.2
746.433	25.74
746.614	26.24
746.795	26.67
746.977	26.16
747.158	26.32
747.339	26.2
747.52	26.43
747.702	26.28
747.883	26.39
748.064	26.22
748.245	26.05
748.426	25.47
748.607	25.2
748.788	25.34
748.97	25.26
749.151	25.27
749.332	25.32
749.513	25.57
749.694	25.76
749.875	25.68
750.056	25.46
750.237	25.53
750.418	26.06
750.599	25.71
750.78	25.4
750.96	25.63
751.141	25.77
751.322	24.98
751.503	24.45
751.684	23.73
751.865	23.69
752.046	24.04
752.226	23.97
752.407	23.7
752.588	24.45
752.769	24.55
752.949	23.93
753.13	24.12
753.311	24.85
753.492	24.9
753.672	25.64
753.853	25.53
754.034	24.84
754.214	25.48
754.395	25.6
754.575	24.98
754.756	25.16
754.937	26.11
755.117	26.29
755.298	25.96
755.478	25.51
755.659	25.5
755.839	25.56
756.02	26.16
756.2	25.34
756.381	26.09
756.561	25.57
756.741	24.98
756.922	25.07
757.102	24.65
757.283	24.63
757.463	25.38
757.643	25.39
757.823	25.84
758.004	25.61
758.184	26.39
758.364	25.78
758.545	26.15
758.725	26.55
758.905	25.69
759.085	25.56
759.265	26.05
759.446	25.84
759.626	25.88
759.806	25.63
759.986	25.07
760.166	24.86
760.346	24.21
760.526	23.35
760.706	23.61
760.886	24.27
761.066	24.2
761.246	24.25
761.426	24.24
761.606	24.63
761.786	24.48
761.966	24.91
762.146	24.48
762.326	24.94
762.506	25.74
762.686	25.7
762.866	25.59
763.046	25.57
763.225	25.36
763.405	25.35
763.585	24.84
763.765	24.71
763.945	24.6
764.124	24.35
764.304	24.37
764.484	24.29
764.664	24.45
764.843	24.4
765.023	24.49
765.203	24.51
765.382	24.12
765.562	24.49
765.741	24.43
765.921	24.67
766.101	24.74
766.28	24.7
766.46	24.72
766.639	24.49
766.819	24.51
766.998	24.2
767.178	23.87
767.357	24.61
767.537	24.61
767.716	25.13
767.896	25.02
768.075	25.92
768.254	25.8
768.434	25.5
768.613	25.61
768.792	24.97
768.972	25.26
769.151	25.76
769.33	26.01
769.51	25.11
769.689	25.6
769.868	26.09
770.047	25.29
770.226	25.31
770.406	25.85
770.585	25.98
770.764	26.85
770.943	26.75
771.122	26.34
771.301	25.47
771.48	27.03
771.66	26.05
771.839	25.78
772.018	26
772.197	26.5
772.376	25.48
772.555	24.73
772.734	24.73
772.913	24.24
773.092	24.99
773.271	25.89
773.449	24.72
773.628	25.01
773.807	25.13
773.986	25.01
774.165	25.45
774.344	26.49
774.523	27.78
774.701	27.25
774.88	28.65
775.059	28.61
775.238	28.46
775.417	28.71
775.595	28.77
775.774	28.84
775.953	29.06
776.131	29.01
776.31	28.78
776.489	28.24
776.667	29.03
776.846	28.57
777.025	27.88
777.203	27.51
777.382	27.61
777.56	27.39
777.739	26.87
777.917	26.54
778.096	25.94
778.274	26.04
778.453	25.24
778.631	25.42
778.81	25.23
778.988	26.09
779.166	26.73
779.345	26.4
779.523	26.6
779.702	26.7
779.88	26.17
780.058	25.52
780.237	25.48
780.415	26.34
780.593	25.26
780.771	25.66
780.95	25.53
781.128	25.22
781.306	25.91
781.484	26.75
781.662	26.63
781.841	28.45
782.019	29.03
782.197	28.81
782.375	28.96
782.553	28.98
782.731	29.02
782.909	28.76
783.087	30.58
783.265	30.12
783.443	29.15
783.621	29.24
783.799	28.51
783.977	28.74
784.155	29.3
784.333	28.72
784.511	28.98
784.689	28.92
784.867	28.7
785.045	26.56
785.223	26.36
785.4	25.87
785.578	26.24
785.756	26.88
785.934	26.77
786.112	26.21
786.289	26.5
786.467	25.64
786.645	24.36
786.823	24.05
787	24.3
787.178	24.45
787.356	24.91
787.533	23.67
787.711	23.4
787.889	22.66
788.066	22.49
788.244	21.86
788.421	22.97
788.599	23.54
788.776	23.81
788.954	23.48
789.131	23.79
789.309	24.59
789.486	25.91
789.664	25.26
789.841	26.31
790.019	25.71
790.196	26.37
790.373	26.09
790.551	26.81
790.728	26.88
790.906	27.35
791.083	29.13
791.26	28.54
791.437	28.31
791.615	28.5
791.792	28.22
791.969	29.35
792.146	29.36
792.324	30.25
792.501	29.9
792.678	30.57
792.855	30.42
793.032	28.66
793.209	28.37
793.387	28.08
793.564	28
793.741	28.83
793.918	28.11
794.095	27.45
794.272	26.86
794.449	26.61
794.626	26.22
794.803	27.04
794.98	26.6
795.157	27.04
795.334	26.67
795.511	26.76
795.688	25.4
795.864	25.8
796.041	26.64
796.218	26.13
796.395	26.5
796.572	25.67
796.749	25.44
796.925	25.73
797.102	24.88
797.279	25.75
797.456	26.66
797.632	26.76
797.809	26.64
797.986	26.48
798.162	26.74
798.339	26.19
798.516	27
798.692	27.05
798.869	27.03
799.046	26.69
799.222	26.09
799.399	25.79
799.575	26.56
799.752	27.68
799.928	27.34
800.105	27.68
800.281	28.1
800.458	28.71
800.634	27.16
800.811	26.3
800.987	27.57
801.163	28.34
801.34	28.23
801.516	28.46
801.692	27.61
801.869	27.93
802.045	28.84
802.221	28.96
802.398	28.5
802.574	28.78
802.75	29.91
802.926	30.31
803.103	30.23
803.279	28.37
803.455	28.7
803.631	29.63
803.807	28.7
803.983	28.31
804.16	27.92
804.336	27.78
804.512	28.45
804.688	29.03
804.864	27.58
805.04	25.23
805.216	26.63
805.392	25.67
805.568	23.36
805.744	24.41
805.92	23.13
806.096	24.41
806.272	24.69
806.448	25.41
806.623	24.06
806.799	25.36
806.975	27.64
807.151	27.76
807.327	27.99
807.503	28.5
807.678	28.79
807.854	28.83
808.03	28.53
808.206	28.71
808.381	28.99
808.557	29.15
808.733	28.41
808.908	27.61
809.084	26.44
809.26	26.11
809.435	27.06
809.611	27.44
809.787	28.56
809.962	28.78
810.138	27.72
810.313	26.86
810.489	25.87
810.664	26.25
810.84	26.66
811.015	27.92
811.191	28.96
811.366	28.62
811.542	27.09
811.717	27.33
811.892	26.02
812.068	26.08
812.243	25.87
812.419	26.11
812.594	26.51
812.769	25.65
812.944	26.09
813.12	25.72
813.295	24.72
813.47	24.68
813.645	22.36
813.821	22.33
813.996	21.39
814.171	22.65
814.346	23.76
814.521	23.3
814.697	25.19
814.872	24.79
815.047	24.69
815.222	26.29
815.397	27.42
815.572	29.08
815.747	28.9
815.922	30.52
816.097	29.76
816.272	29.48
816.447	29.85
816.622	28.86
816.797	29.02
816.972	29.19
817.147	27.58
817.322	26.8
817.496	26.38
817.671	26.09
817.846	24.75
818.021	24.18
818.196	24
818.371	23.5
818.545	23.76
818.72	23.66
818.895	23.06
819.069	23.21
819.244	23.86
819.419	24.57
819.594	25.01
819.768	24.87
819.943	25.11
820.117	24.35
820.292	24.18
820.467	24.17
820.641	24.46
820.816	24.52
820.99	25.04
821.165	24.84
821.339	24.58
821.514	24.72
821.688	24.91
821.863	24.62
822.037	24.79
822.212	24.73
822.386	24.59
822.56	24.51
822.735	24.5
822.909	24.41
823.084	24.16
823.258	23.99
823.432	23.98
823.606	24.04
823.781	24.22
823.955	24.13
824.129	24.1
824.303	23.93
824.478	23.66
824.652	23.25
824.826	22.84
825	22.94
825.174	22.83
825.348	22.59
825.523	22.49
825.697	22.74
825.871	23.13
826.045	22.91
826.219	23.64
826.393	23.99
826.567	24.81
826.741	25.06
826.915	25.08
827.089	25.24
827.263	25.11
827.437	24.9
827.611	24.5
827.784	24.29
827.958	24.99
828.132	24.76
828.306	24.6
828.48	24.08
828.654	24.22
828.827	24.5
829.001	24.32
829.175	24.86
829.349	25.27
829.522	25.16
829.696	25.61
829.87	25.7
830.044	25.95
830.217	27.27
830.391	27.14
830.565	27.87
830.738	28.43
830.912	28.2
831.085	27.39
831.259	27.18
831.432	28.77
831.606	27.51
831.779	26.78
831.953	27.34
832.126	26.08
832.3	27.36
832.473	26.68
832.647	25.81
832.82	26.61
832.994	27.31
833.167	27.18
833.34	26.42
833.514	26.49
833.687	26.31
833.86	25.86
834.034	25.74
834.207	25.49
834.38	25.61
834.553	25.67
834.727	25.44
834.9	24.66
835.073	24.72
835.246	24.82
835.419	25.48
835.593	25.83
835.766	25.57
835.939	25.59
836.112	25.27
836.285	25.2
836.458	25.59
836.631	26.02
836.804	26.48
836.977	26.08
837.15	26.71
837.323	25.74
837.496	24.99
837.669	26.56
837.842	26.97
838.015	26.93
838.188	27.38
838.361	27.87
838.533	28.38
838.706	28.87
838.879	30.26
839.052	30.02
839.225	30.44
839.398	31.53
839.57	29.18
839.743	28.33
839.916	30.16
840.088	28.95
840.261	29.42
840.434	28.26
840.607	28.51
840.779	28.44
840.952	28.67
841.124	28.76
841.297	27.99
841.47	28.72
841.642	30.36
841.815	30.44
841.987	32.14
842.16	31.59
842.332	32.14
842.505	32.76
842.677	30.3
842.85	29.39
843.022	32.4
843.194	31.6
843.367	32.08
843.539	29.02
843.712	26.67
843.884	26.16
844.056	23.13
844.229	23.1
844.401	24.27
844.573	28.62
844.745	27.92
844.918	22.88
845.09	24.94
845.262	26.07
845.434	30.66
845.606	31.44
845.779	31.53
845.951	34.12
846.123	35.47
846.295	33.43
846.467	28.45
846.639	27.14
846.811	30.53
846.983	30.65
847.155	27.23
847.327	24.98
847.499	26
847.671	25.83
847.843	22.82
848.015	25.43
848.187	25.95
848.359	25.76
848.531	29.88
848.703	27.6
848.875	27.46
849.047	28.23
849.218	26.23
849.39	25.9
849.562	23.41
849.734	26.3
849.905	27.02
850.077	26.04
850.249	26.64
850.421	23.46
850.592	28.87
850.764	27.69
850.936	31.93
851.107	33.52
851.279	34.83
851.451	37.16
851.622	39.82
851.794	34.39
851.965	34.64
852.137	36.39
852.308	36.4
852.48	32.32
852.651	31.31
852.823	28.42
852.994	29.79
853.166	27.58
853.337	29.46
853.509	28.95
853.68	30.36
853.851	28.37
854.023	26.61
854.194	31.17
854.365	30.83
854.537	32.53
854.708	32.91
854.879	29.89
855.05	28.95
855.222	25.65
855.393	24.38
855.564	24.28
855.735	29.57
855.906	33.26
856.078	27.96
856.249	24.59
856.42	22.96
856.591	24.52
856.762	27.4
856.933	30.36
857.104	30.72
857.275	32.22
857.446	33.57
857.617	31.11
857.788	27.16
857.959	30.51
858.13	37.01
858.301	35.13
858.472	33.65
858.643	30.23
858.814	31.3
858.985	30.72
859.155	27.09
859.326	22.82
859.497	22.76
859.668	24.14
859.839	25.55
860.009	23.9
860.18	30.13
860.351	29.95
860.522	36.58
860.692	32.64
860.863	34.2
861.034	37.16
861.204	40.58
861.375	38.85
861.546	39.03
861.716	35.96
861.887	33.95
862.057	32.92
862.228	32.14
862.398	30.79
862.569	26.19
862.739	26.3
862.91	24.15
863.08	27.53
863.251	28.64
863.421	23.8
863.592	20.75
863.762	20.29
863.932	16.22
864.103	15.05
864.273	13.18
864.443	18.07
864.614	16.87
864.784	17.44
864.954	12.47
865.125	12.91
865.295	16.8
865.465	20.8
865.635	22.9
865.805	25.57
865.976	28.59
866.146	28.79
866.316	24.9
866.486	26.54
866.656	27.39
866.826	27.92
866.996	28.47
867.166	25.52
867.336	28.23
867.506	29.06
867.676	26.67
867.846	26.32
868.016	25
868.186	31.58
868.356	34.24
868.526	34.95
868.696	35.34
868.866	32.06
869.036	32.21
869.206	33.01
869.376	34.41
869.545	33.48
869.715	28.1
869.885	25.91
870.055	23.15
870.224	20.18
870.394	16
870.564	11.32
870.734	16.16
870.903	19.6
871.073	18.21
871.243	14.97
871.412	18.24
871.582	22.66
871.751	23.59
871.921	26.49
872.091	29.38
872.26	35.01
872.43	40.37
872.599	42.09
872.769	40.47
872.938	38.39
873.108	43.75
873.277	39.68
873.446	35.59
873.616	34.67
873.785	30.16
873.955	25.62
874.124	23.04
874.293	20.52
874.463	20.43
874.632	22.24
874.801	23.46
874.971	18.28
875.14	21.37
875.309	23.72
875.478	26.81
875.647	31.9
875.817	34.58
875.986	35.28
876.155	37.33
876.324	36.67
876.493	34.23
876.662	33.45
876.831	35.4
877	32.77
877.17	34.18
877.339	29.95
877.508	25.69
877.677	25.62
877.846	25.43
878.015	26.1
878.184	22.67
878.352	22.82
878.521	21.82
878.69	21.78
878.859	20.64
879.028	21.43
879.197	22.36
879.366	20.1
879.534	19.03
879.703	20.25
879.872	18.41
880.041	22.37
880.21	23.81
880.378	23.25
880.547	23.02
880.716	24.13
880.884	23.32
881.053	24.29
881.222	24.61
881.39	24.16
881.559	24.1
881.727	24.52
881.896	23.03
882.065	23.29
882.233	23.78
882.402	24.16
882.57	23.68
882.739	23.4
882.907	23.43
883.076	24.09
883.244	24.43
883.412	24.64
883.581	24.39
883.749	25.28
883.918	24.62
884.086	24.29
884.254	24.35
884.423	24.63
884.591	25.52
884.759	24.69
884.927	23.61
885.096	23.61
885.264	23.18
885.432	23.21
885.6	22
885.769	22.68
885.937	23.68
886.105	23.97
886.273	27.8
886.441	27.35
886.609	27.3
886.777	25.97
886.945	26.42
887.113	27.21
887.281	27.59
887.449	30.83
887.617	32.83
887.785	31.99
887.953	31.87
888.121	27.66
888.289	30.11
888.457	32.71
888.625	36.17
888.793	36.7
888.961	33.31
889.129	35.81
889.296	34.92
889.464	32.51
889.632	33.79
889.8	33.7
889.967	31.77
890.135	27.22
