Data from 2938772__Reflection_02.txt Node
Date: Fri Mar 13 14:47:39 EDT 2015
User: robert
Spectrometer: USB4E03002
Autoset integration time: false
Trigger mode: 4
Integration Time (sec): 1.000000E-1
Scans to average: 10
Electric dark correction enabled: false
Nonlinearity correction enabled: false
Boxcar width: 5
Stray light correction enabled: false
XAxis mode: Wavelengths
Stop averaging: false
Number of Pixels in Spectrum: 3648
>>>>>Begin Spectral Data<<<<<
177.575	-596.53
177.794	-1242.47
178.014	-3785.19
178.233	1664.18
178.452	3162.16
178.672	693.75
178.891	678.66
179.11	3986.96
179.33	-1149.25
179.549	-514.29
179.768	-1786.67
179.987	756.72
180.207	2300
180.426	878.46
180.645	-1677.14
180.864	-851.61
181.084	-182.68
181.303	-246.73
181.522	-1368.09
181.741	3820
181.96	252.38
182.179	237.67
182.398	162.85
182.618	160.16
182.837	278.97
183.056	229.31
183.275	218.11
183.494	180.85
183.713	228.32
183.932	263.47
184.151	294.12
184.37	375.48
184.589	496.07
184.808	990
185.027	357.19
185.246	273.77
185.465	262.4
185.684	266.28
185.903	273.68
186.122	198.18
186.341	167.89
186.56	145.06
186.779	230.59
186.998	200.61
187.216	258.96
187.435	563.56
187.654	247.21
187.873	168.62
188.092	186.03
188.311	358.96
188.53	318.27
188.748	875
188.967	-2254.17
189.186	405.8
189.405	470.5
189.623	214.13
189.842	212.56
190.061	256.49
190.28	349.19
190.498	239.55
190.717	186.13
190.936	180.19
191.154	158.73
191.373	194
191.592	206.22
191.81	160.86
192.029	184.72
192.248	200.6
192.466	181.86
192.685	191.57
192.904	208.2
193.122	198.41
193.341	293.55
193.559	506.25
193.778	265.95
193.996	311.44
194.215	2976
194.433	643.93
194.652	364.86
194.87	575.53
195.089	7820
195.307	2019.23
195.526	-544.86
195.744	1797.87
195.963	480.87
196.181	378.1
196.399	236
196.618	233.83
196.836	288.29
197.055	484.42
197.273	785.71
197.491	1926.47
197.71	1303.7
197.928	425.14
198.146	583.05
198.365	834.67
198.583	925.76
198.801	-294.76
199.019	-221.72
199.238	-161.42
199.456	-123.41
199.674	-189.74
199.892	-304.88
200.111	-219.41
200.329	-181.93
200.547	-149.7
200.765	-317.06
200.983	-278.19
201.202	-457.01
201.42	-1002.08
201.638	2482.61
201.856	751.55
202.074	1863.41
202.292	385.79
202.51	590.7
202.728	313.19
202.946	524.16
203.165	1134.92
203.383	67300
203.601	561.97
203.819	606.93
204.037	297.86
204.255	265.44
204.473	161.37
204.691	328.18
204.909	137.94
205.127	244.77
205.345	166.57
205.562	181.61
205.78	104.33
205.998	135.89
206.216	140.51
206.434	141.6
206.652	158.68
206.87	163.92
207.088	145.41
207.306	194.08
207.523	142.68
207.741	151.33
207.959	152.98
208.177	184.09
208.395	164.35
208.612	217.3
208.83	220.16
209.048	300
209.266	1923.33
209.483	-1173.53
209.701	-1728
209.919	879.69
210.136	9280
210.354	-1075
210.572	-195.63
210.79	718.69
211.007	312.45
211.225	1076.27
211.442	245.45
211.66	165.63
211.878	147.84
212.095	156.12
212.313	150.57
212.53	150.8
212.748	143
212.966	97.66
213.183	80.5
213.401	80
213.618	57.91
213.836	48.25
214.053	47.71
214.271	77.2
214.488	70.6
214.705	76.4
214.923	57.66
215.14	64.47
215.358	63.05
215.575	64.2
215.793	69.86
216.01	89.33
216.227	88.69
216.445	86.83
216.662	76.32
216.879	84.12
217.097	91.58
217.314	114.06
217.531	116.99
217.749	135.61
217.966	143.6
218.183	127.11
218.4	98.2
218.618	112.23
218.835	104.8
219.052	93.81
219.269	84.28
219.487	80.58
219.704	60.37
219.921	49.03
220.138	34.91
220.355	34.79
220.572	43.15
220.79	48.16
221.007	30.6
221.224	26.96
221.441	29.83
221.658	29.48
221.875	29.34
222.092	31.04
222.309	33.65
222.526	32.99
222.743	27.8
222.96	29.19
223.177	33.27
223.394	34.56
223.611	29.5
223.828	31.82
224.045	33.68
224.262	37.19
224.479	34.44
224.696	34.31
224.913	33.34
225.13	34.89
225.347	33.94
225.564	30.7
225.781	31.25
225.997	34.93
226.214	33.73
226.431	31.39
226.648	22.9
226.865	21.71
227.082	17.52
227.298	15.29
227.515	11.72
227.732	9.49
227.949	8.6
228.165	7.63
228.382	6.47
228.599	4.95
228.816	5.13
229.032	5.03
229.249	4.74
229.466	4.99
229.682	4.87
229.899	6.21
230.116	6.03
230.332	6.54
230.549	6.69
230.765	6.01
230.982	6.82
231.199	5.57
231.415	6.81
231.632	6.46
231.848	6.77
232.065	6.61
232.281	4.86
232.498	4.95
232.714	4.4
232.931	5.68
233.147	7.07
233.364	8.03
233.58	7.26
233.797	6.74
234.013	8.16
234.23	8.19
234.446	7.62
234.662	7.5
234.879	7.99
235.095	9.69
235.312	9.43
235.528	8.65
235.744	6.63
235.961	10.25
236.177	9.72
236.393	8.46
236.61	9.03
236.826	8.99
237.042	8.58
237.258	7.04
237.475	6.19
237.691	4.51
237.907	3.14
238.123	4.89
238.339	3.2
238.556	3.73
238.772	4.18
238.988	3.53
239.204	4.5
239.42	5.84
239.636	6.98
239.853	5.66
240.069	6.83
240.285	7.21
240.501	6.63
240.717	6.5
240.933	5.97
241.149	5.49
241.365	5.09
241.581	4.16
241.797	4.34
242.013	4.69
242.229	5.03
242.445	4.75
242.661	5.44
242.877	5.55
243.093	5.34
243.309	5.15
243.525	5.15
243.741	5.71
243.957	6.49
244.173	6.37
244.388	6.7
244.604	6.48
244.82	6.79
245.036	6.05
245.252	5.39
245.468	5.57
245.683	6.23
245.899	5.83
246.115	5.46
246.331	4.88
246.547	4.6
246.762	4.24
246.978	4.52
247.194	4.55
247.409	4.74
247.625	4.69
247.841	4.54
248.057	4.17
248.272	4.08
248.488	4.26
248.703	4.93
248.919	4.86
249.135	4.61
249.35	4.32
249.566	4.13
249.782	3.93
249.997	4.51
250.213	5.3
250.428	5.77
250.644	5.89
250.859	5.28
251.075	5.47
251.29	5.66
251.506	6.56
251.721	6.83
251.937	6.48
252.152	6.56
252.368	7.09
252.583	6.75
252.798	7.43
253.014	8.06
253.229	8.59
253.445	8.1
253.66	8.38
253.875	8.23
254.091	7.81
254.306	8.77
254.521	8.29
254.737	7.51
254.952	6.7
255.167	5.28
255.383	4.78
255.598	4.47
255.813	4.37
256.028	4.95
256.244	4.24
256.459	4.14
256.674	3.05
256.889	3.18
257.104	2.56
257.32	3.59
257.535	3.23
257.75	3.4
257.965	2.94
258.18	2.83
258.395	2.29
258.61	2.56
258.826	2.31
259.041	2.49
259.256	2.64
259.471	2.76
259.686	2.54
259.901	2.58
260.116	2.61
260.331	2.95
260.546	3
260.761	3.09
260.976	3.22
261.191	3.64
261.406	3.63
261.621	3.75
261.836	3.75
262.05	3.49
262.265	3.64
262.48	3.6
262.695	3.57
262.91	3.48
263.125	3.81
263.34	3.77
263.555	3.66
263.769	4.08
263.984	2.95
264.199	2.54
264.414	2.85
264.629	3.33
264.843	3.38
265.058	3.37
265.273	4.01
265.488	4
265.702	4.46
265.917	4.18
266.132	3.78
266.346	4.63
266.561	5.38
266.776	5.22
266.99	5.11
267.205	5.09
267.42	4.72
267.634	4.35
267.849	4.2
268.063	4.14
268.278	4.39
268.492	4.44
268.707	4.08
268.922	3.17
269.136	3.52
269.351	3
269.565	3
269.78	3.2
269.994	3.12
270.209	3.06
270.423	2.77
270.637	2.47
270.852	2.14
271.066	2.6
271.281	3.12
271.495	2.95
271.709	2.95
271.924	2.87
272.138	2.92
272.353	3.16
272.567	3.33
272.781	3.14
272.996	3.35
273.21	3.76
273.424	3.68
273.638	3.62
273.853	3.35
274.067	3.26
274.281	3.45
274.495	3.01
274.71	3.02
274.924	3.29
275.138	3.64
275.352	3.67
275.566	3.57
275.781	3.21
275.995	3.39
276.209	3.89
276.423	3.98
276.637	3.65
276.851	4.13
277.065	4.22
277.279	3.5
277.493	3.84
277.707	3.93
277.921	4.21
278.135	4.45
278.349	4.09
278.563	4.01
278.777	4.59
278.991	5
279.205	5.05
279.419	4.71
279.633	4.86
279.847	4.44
280.061	4.14
280.275	3.45
280.489	3.62
280.703	3.89
280.917	3.96
281.131	3.39
281.344	3.41
281.558	2.67
281.772	2.72
281.986	2.64
282.2	2.55
282.414	2.63
282.627	2.75
282.841	2.58
283.055	2.44
283.269	2.16
283.482	2.35
283.696	2.07
283.91	2.26
284.123	2.26
284.337	2.66
284.551	2.68
284.764	2.51
284.978	2.59
285.192	2.54
285.405	2.55
285.619	2.5
285.833	2.33
286.046	2.22
286.26	2.4
286.473	2.55
286.687	2.32
286.9	2.45
287.114	2.21
287.327	2.14
287.541	2.06
287.754	2
287.968	2.12
288.181	2.4
288.395	2.62
288.608	2.9
288.822	2.67
289.035	2.8
289.248	2.45
289.462	2.94
289.675	3.37
289.889	3.6
290.102	3.63
290.315	3.53
290.529	3.6
290.742	3.66
290.955	3.35
291.169	3.48
291.382	3.53
291.595	3.52
291.808	3.58
292.022	3.37
292.235	3.31
292.448	3.22
292.661	3.34
292.875	3.21
293.088	3.39
293.301	3.63
293.514	3.86
293.727	4.09
293.94	4.33
294.153	4.14
294.367	4.1
294.58	4.31
294.793	4.25
295.006	4.23
295.219	4.26
295.432	3.81
295.645	3.79
295.858	3.46
296.071	3.35
296.284	3.26
296.497	3.26
296.71	3.4
296.923	3.55
297.136	3.65
297.349	3.66
297.562	3.66
297.775	3.87
297.988	4.05
298.201	3.97
298.414	3.88
298.626	4.15
298.839	4.1
299.052	4.13
299.265	3.74
299.478	3.75
299.691	3.86
299.903	4.01
300.116	4.01
300.329	4.01
300.542	4.64
300.755	4.59
300.967	4.6
301.18	4.77
301.393	4.86
301.605	4.8
301.818	4.95
302.031	4.95
302.243	4.6
302.456	4.73
302.669	4.36
302.881	3.86
303.094	3.84
303.307	3.7
303.519	3.42
303.732	3.38
303.944	3.26
304.157	3.4
304.37	3.67
304.582	3.62
304.795	3.63
305.007	4.1
305.22	4.38
305.432	4.52
305.645	4.43
305.857	4.96
306.069	5.06
306.282	5.6
306.494	5.56
306.707	5.21
306.919	5.07
307.132	4.85
307.344	4.41
307.556	4.44
307.769	4.59
307.981	4.86
308.193	4.53
308.406	4.46
308.618	4.32
308.83	4.1
309.043	4.3
309.255	4.58
309.467	4.57
309.679	4.52
309.892	4.43
310.104	4.38
310.316	3.95
310.528	4.1
310.74	4.33
310.953	4.52
311.165	4.59
311.377	4.66
311.589	4.81
311.801	4.83
312.013	5.01
312.225	4.93
312.437	4.96
312.649	5.28
312.862	5.37
313.074	4.7
313.286	4.66
313.498	4.73
313.71	4.75
313.922	4.83
314.134	5.18
314.346	5.39
314.558	5.76
314.77	6.09
314.982	6.17
315.193	6
315.405	6.55
315.617	6.5
315.829	6.66
316.041	6.87
316.253	6.6
316.465	7.03
316.677	7.31
316.888	7.56
317.1	7.26
317.312	7.39
317.524	7.44
317.736	7.74
317.947	7.58
318.159	7.9
318.371	7.81
318.583	8.28
318.794	8
319.006	7.74
319.218	7.37
319.43	7.3
319.641	7.67
319.853	8.47
320.064	8.3
320.276	8.43
320.488	8.22
320.699	8.31
320.911	8.55
321.123	8.14
321.334	7.72
321.546	8.08
321.757	8.34
321.969	7.92
322.18	7.61
322.392	7.66
322.603	7.56
322.815	7.61
323.026	7.69
323.238	7.41
323.449	7.71
323.661	8.03
323.872	7.87
324.083	7.99
324.295	8.48
324.506	8.54
324.718	8.42
324.929	8.74
325.14	8.84
325.352	8.74
325.563	8.86
325.774	8.97
325.986	9.11
326.197	9.36
326.408	9.63
326.62	9.71
326.831	9.92
327.042	10.31
327.253	10.47
327.464	10.84
327.676	11.24
327.887	11.65
328.098	12.04
328.309	12.41
328.52	12.94
328.732	13.15
328.943	13.45
329.154	13.36
329.365	13.45
329.576	13.67
329.787	13.97
329.998	13.88
330.209	14.09
330.42	14.52
330.631	14.78
330.842	14.49
331.053	14.56
331.264	14.54
331.475	14.88
331.686	15.34
331.897	15.99
332.108	16.09
332.319	16.64
332.53	16.56
332.741	16.75
332.952	16.9
333.163	17.04
333.374	16.9
333.585	17.09
333.795	17.12
334.006	17.16
334.217	16.98
334.428	17.24
334.639	17.52
334.849	17.45
335.06	17.16
335.271	17.38
335.482	17.53
335.692	17.75
335.903	17.68
336.114	18
336.325	17.83
336.535	17.67
336.746	17.83
336.957	17.44
337.167	17.47
337.378	17.65
337.589	17.55
337.799	17.54
338.01	17.84
338.22	18.08
338.431	17.95
338.642	17.98
338.852	18.21
339.063	17.92
339.273	18.06
339.484	18.4
339.694	18.3
339.905	18.56
340.115	18.83
340.326	18.77
340.536	18.54
340.746	18.6
340.957	18.77
341.167	18.52
341.378	18.54
341.588	18.59
341.799	18.67
342.009	18.56
342.219	18.26
342.43	17.9
342.64	17.88
342.85	17.99
343.061	17.91
343.271	17.72
343.481	17.78
343.691	17.69
343.902	17.75
344.112	17.54
344.322	17.24
344.532	17.52
344.743	17.69
344.953	17.62
345.163	17.57
345.373	17.5
345.583	17.55
345.793	17.46
346.004	17.49
346.214	17.33
346.424	17.15
346.634	17.71
346.844	17.39
347.054	17.46
347.264	17.27
347.474	17.34
347.684	17.48
347.894	17.4
348.104	17.64
348.314	17.46
348.524	17.2
348.734	17.17
348.944	16.95
349.154	17.04
349.364	16.67
349.574	16.65
349.784	16.89
349.994	16.93
350.204	17.06
350.413	16.86
350.623	17.06
350.833	17.24
351.043	17.39
351.253	17.64
351.463	17.5
351.672	17.54
351.882	17.98
352.092	17.76
352.302	17.71
352.511	17.64
352.721	17.57
352.931	17.44
353.141	17.07
353.35	16.99
353.56	16.6
353.77	16.54
353.979	16.53
354.189	16.23
354.399	16.13
354.608	15.99
354.818	15.97
355.027	16.12
355.237	16.27
355.447	16.66
355.656	16.49
355.866	16.44
356.075	16.52
356.285	16.5
356.494	16.44
356.704	16.39
356.913	16.53
357.123	16.43
357.332	16.38
357.542	16.25
357.751	16.23
357.96	16.54
358.17	16.4
358.379	16.22
358.589	16.26
358.798	16.39
359.007	16.31
359.217	16.34
359.426	16.59
359.635	16.71
359.845	16.54
360.054	16.2
360.263	16.14
360.472	16.37
360.682	16.49
360.891	16.41
361.1	16.27
361.309	16.35
361.519	16.07
361.728	15.74
361.937	15.6
362.146	15.69
362.355	15.93
362.564	15.93
362.774	15.93
362.983	15.84
363.192	15.99
363.401	16
363.61	15.82
363.819	15.83
364.028	16.01
364.237	15.98
364.446	15.7
364.655	15.77
364.864	15.73
365.073	15.62
365.282	15.85
365.491	15.51
365.7	15.57
365.909	15.89
366.118	16.07
366.327	16.11
366.536	16.24
366.745	16.47
366.954	16.13
367.162	15.96
367.371	15.98
367.58	15.9
367.789	16.19
367.998	16.02
368.207	15.76
368.415	15.65
368.624	15.66
368.833	15.33
369.042	15.45
369.25	15.74
369.459	15.92
369.668	15.93
369.877	15.82
370.085	15.57
370.294	15.98
370.503	16.04
370.711	16.01
370.92	15.88
371.129	15.76
371.337	15.45
371.546	15.36
371.754	15.49
371.963	15.36
372.171	15.41
372.38	15.57
372.589	15.34
372.797	15.29
373.006	15.28
373.214	15.17
373.423	15.4
373.631	15.72
373.84	15.69
374.048	15.64
374.256	15.68
374.465	15.72
374.673	15.68
374.882	15.49
375.09	15.4
375.298	15.73
375.507	15.83
375.715	15.7
375.923	15.55
376.132	15.43
376.34	15.16
376.548	15.28
376.757	15.05
376.965	15.05
377.173	15.03
377.381	15.24
377.59	15.07
377.798	15.02
378.006	15.19
378.214	15.08
378.423	15.13
378.631	15.16
378.839	14.9
379.047	15.08
379.255	15.1
379.463	15.07
379.671	14.8
379.879	14.73
380.088	14.77
380.296	14.83
380.504	14.98
380.712	15.13
380.92	15.21
381.128	15.19
381.336	15.1
381.544	14.97
381.752	14.97
381.96	15.18
382.168	15.14
382.376	15.23
382.584	15.24
382.791	14.94
382.999	14.92
383.207	15
383.415	15.16
383.623	15.05
383.831	15.13
384.039	15.15
384.247	15.09
384.454	15.25
384.662	15.09
384.87	14.82
385.078	15.1
385.285	14.91
385.493	14.79
385.701	14.74
385.909	14.92
386.116	15
386.324	15.15
386.532	15.1
386.739	14.88
386.947	14.84
387.155	14.94
387.362	15.07
387.57	15.06
387.778	15.2
387.985	15.24
388.193	15.11
388.4	14.95
388.608	14.91
388.816	14.85
389.023	15
389.231	14.97
389.438	14.9
389.646	14.85
389.853	14.9
390.061	14.83
390.268	14.71
390.475	14.66
390.683	14.74
390.89	14.54
391.098	14.56
391.305	14.58
391.512	14.61
391.72	14.67
391.927	14.52
392.135	14.56
392.342	14.34
392.549	14.47
392.756	14.39
392.964	14.33
393.171	14.34
393.378	14.3
393.586	14.13
393.793	14.16
394	14.19
394.207	14.31
394.414	14.33
394.622	14.5
394.829	14.47
395.036	14.53
395.243	14.6
395.45	14.68
395.657	14.74
395.864	14.73
396.072	14.79
396.279	15.07
396.486	14.85
396.693	14.96
396.9	14.9
397.107	14.78
397.314	14.93
397.521	14.74
397.728	14.65
397.935	14.56
398.142	14.65
398.349	14.77
398.556	14.36
398.763	14.43
398.97	14.33
399.177	14.21
399.383	14.37
399.59	14.26
399.797	14.46
400.004	14.5
400.211	14.61
400.418	14.54
400.625	14.46
400.831	14.51
401.038	14.65
401.245	14.67
401.452	14.9
401.658	14.83
401.865	14.84
402.072	14.76
402.279	14.84
402.485	14.77
402.692	14.81
402.899	14.57
403.105	14.7
403.312	14.45
403.519	14.3
403.725	14.28
403.932	14.32
404.138	14.49
404.345	14.51
404.552	14.45
404.758	14.54
404.965	14.61
405.171	14.86
405.378	14.85
405.584	14.87
405.791	14.99
405.997	14.87
406.204	14.87
406.41	14.87
406.617	15
406.823	15.17
407.029	15.23
407.236	15.04
407.442	14.97
407.649	14.99
407.855	15.04
408.061	15
408.268	15
408.474	15.02
408.68	14.86
408.887	14.98
409.093	14.95
409.299	14.69
409.505	14.78
409.712	14.81
409.918	14.69
410.124	14.86
410.33	15.12
410.537	15.27
410.743	15.25
410.949	15.2
411.155	15.04
411.361	15.02
411.567	15.41
411.773	15.57
411.98	15.53
412.186	15.57
412.392	15.5
412.598	15.19
412.804	15.19
413.01	15.12
413.216	15.3
413.422	15.15
413.628	15.11
413.834	14.96
414.04	14.76
414.246	14.86
414.452	14.92
414.658	15.17
414.864	15.18
415.07	15.17
415.275	15.25
415.481	15.26
415.687	15.38
415.893	15.26
416.099	15.19
416.305	15.29
416.511	15.19
416.716	15.15
416.922	14.93
417.128	14.98
417.334	14.92
417.539	14.8
417.745	14.75
417.951	14.72
418.157	14.74
418.362	14.74
418.568	14.68
418.774	14.67
418.979	14.65
419.185	14.67
419.391	14.65
419.596	14.68
419.802	14.87
420.008	14.86
420.213	14.95
420.419	14.99
420.624	15.09
420.83	15.2
421.035	15.25
421.241	15.33
421.446	15.37
421.652	15.4
421.857	15.48
422.063	15.45
422.268	15.5
422.474	15.48
422.679	15.5
422.885	15.48
423.09	15.38
423.295	15.35
423.501	15.36
423.706	15.34
423.911	15.35
424.117	15.38
424.322	15.35
424.527	15.32
424.733	15.3
424.938	15.3
425.143	15.31
425.349	15.36
425.554	15.35
425.759	15.37
425.964	15.38
426.169	15.38
426.375	15.34
426.58	15.33
426.785	15.41
426.99	15.44
427.195	15.51
427.4	15.53
427.605	15.6
427.811	15.67
428.016	15.62
428.221	15.67
428.426	15.71
428.631	15.75
428.836	15.66
429.041	15.64
429.246	15.6
429.451	15.6
429.656	15.54
429.861	15.51
430.066	15.57
430.271	15.57
430.476	15.58
430.681	15.53
430.886	15.45
431.09	15.65
431.295	15.72
431.5	15.83
431.705	15.83
431.91	15.78
432.115	15.76
432.32	15.89
432.524	15.9
432.729	15.97
432.934	16.08
433.139	16.06
433.343	15.94
433.548	15.89
433.753	15.92
433.958	15.96
434.162	16.03
434.367	16.14
434.572	16.04
434.776	16.09
434.981	16.09
435.186	16.09
435.39	16.17
435.595	16.28
435.799	16.24
436.004	16.21
436.209	16.15
436.413	16.19
436.618	16.22
436.822	16.16
437.027	16.15
437.231	16.07
437.436	16.03
437.64	16.06
437.845	16.16
438.049	16.23
438.253	16.26
438.458	16.29
438.662	16.21
438.867	16.28
439.071	16.33
439.275	16.38
439.48	16.3
439.684	16.35
439.888	16.3
440.093	16.21
440.297	16.19
440.501	16.19
440.706	16.15
440.91	16.26
441.114	16.15
441.318	16.12
441.523	16.07
441.727	16.16
441.931	16.14
442.135	16.21
442.339	16.26
442.543	16.26
442.748	16.25
442.952	16.33
443.156	16.27
443.36	16.4
443.564	16.45
443.768	16.5
443.972	16.47
444.176	16.47
444.38	16.48
444.584	16.55
444.788	16.61
444.992	16.59
445.196	16.52
445.4	16.54
445.604	16.44
445.808	16.46
446.012	16.42
446.216	16.51
446.42	16.5
446.624	16.38
446.828	16.3
447.032	16.24
447.235	16.19
447.439	16.22
447.643	16.13
447.847	16.17
448.051	16.07
448.254	16.07
448.458	15.93
448.662	15.96
448.866	16.03
449.069	16
449.273	15.95
449.477	16.03
449.681	16.09
449.884	16.14
450.088	16.16
450.292	16.25
450.495	16.34
450.699	16.44
450.902	16.48
451.106	16.49
451.31	16.69
451.513	16.89
451.717	16.84
451.92	16.67
452.124	16.7
452.327	16.7
452.531	16.74
452.734	16.68
452.938	16.71
453.141	16.68
453.345	16.7
453.548	16.55
453.752	16.43
453.955	16.43
454.158	16.63
454.362	16.69
454.565	16.69
454.769	16.67
454.972	16.62
455.175	16.59
455.379	16.63
455.582	16.66
455.785	16.62
455.988	16.63
456.192	16.73
456.395	16.61
456.598	16.67
456.801	16.61
457.005	16.64
457.208	16.66
457.411	16.66
457.614	16.53
457.817	16.37
458.021	16.38
458.224	16.46
458.427	16.4
458.63	16.41
458.833	16.36
459.036	16.27
459.239	16.23
459.442	16.23
459.645	16.25
459.848	16.22
460.051	16.35
460.254	16.33
460.457	16.23
460.66	16.25
460.863	16.32
461.066	16.35
461.269	16.52
461.472	16.52
461.675	16.52
461.878	16.48
462.081	16.62
462.284	16.69
462.486	16.7
462.689	16.82
462.892	16.89
463.095	16.81
463.298	16.81
463.5	16.74
463.703	16.81
463.906	16.87
464.109	16.97
464.311	16.9
464.514	16.89
464.717	16.96
464.92	16.95
465.122	16.83
465.325	16.94
465.528	16.89
465.73	16.84
465.933	16.82
466.135	16.85
466.338	16.83
466.541	16.87
466.743	16.66
466.946	16.71
467.148	16.74
467.351	16.74
467.553	16.67
467.756	16.67
467.958	16.69
468.161	16.66
468.363	16.55
468.566	16.47
468.768	16.48
468.971	16.58
469.173	16.54
469.375	16.61
469.578	16.65
469.78	16.63
469.983	16.65
470.185	16.64
470.387	16.71
470.59	16.84
470.792	16.88
470.994	16.89
471.196	16.89
471.399	16.9
471.601	16.85
471.803	16.87
472.005	16.94
472.208	16.96
472.41	17.01
472.612	16.96
472.814	16.9
473.016	16.93
473.218	16.87
473.421	16.89
473.623	16.84
473.825	16.8
474.027	16.94
474.229	16.87
474.431	16.85
474.633	16.87
474.835	16.86
475.037	16.87
475.239	16.92
475.441	16.92
475.643	16.99
475.845	17.02
476.047	17.05
476.249	16.93
476.451	16.97
476.653	16.95
476.855	16.9
477.057	16.94
477.258	17.05
477.46	16.95
477.662	17.03
477.864	17.02
478.066	16.93
478.268	17.01
478.469	17.01
478.671	16.99
478.873	17.02
479.075	17.01
479.276	16.92
479.478	16.86
479.68	16.92
479.882	16.9
480.083	16.84
480.285	16.91
480.487	16.91
480.688	16.85
480.89	16.93
481.091	16.89
481.293	16.88
481.495	16.94
481.696	16.86
481.898	16.84
482.099	16.8
482.301	16.77
482.502	16.73
482.704	16.66
482.905	16.61
483.107	16.53
483.308	16.51
483.51	16.5
483.711	16.48
483.913	16.48
484.114	16.45
484.315	16.43
484.517	16.43
484.718	16.4
484.92	16.39
485.121	16.42
485.322	16.48
485.524	16.49
485.725	16.47
485.926	16.45
486.127	16.45
486.329	16.48
486.53	16.51
486.731	16.56
486.932	16.58
487.134	16.61
487.335	16.62
487.536	16.58
487.737	16.58
487.938	16.6
488.139	16.67
488.341	16.7
488.542	16.67
488.743	16.65
488.944	16.67
489.145	16.66
489.346	16.7
489.547	16.74
489.748	16.73
489.949	16.76
490.15	16.81
490.351	16.7
490.552	16.7
490.753	16.72
490.954	16.74
491.155	16.73
491.356	16.78
491.557	16.74
491.758	16.72
491.959	16.77
492.159	16.79
492.36	16.73
492.561	16.83
492.762	16.84
492.963	16.87
493.164	16.91
493.364	16.84
493.565	16.82
493.766	16.85
493.967	16.86
494.167	16.9
494.368	16.89
494.569	17.02
494.769	17.03
494.97	17.12
495.171	17.16
495.371	17.1
495.572	17.25
495.773	17.33
495.973	17.31
496.174	17.3
496.375	17.25
496.575	17.37
496.776	17.38
496.976	17.39
497.177	17.34
497.377	17.37
497.578	17.42
497.778	17.39
497.979	17.35
498.179	17.44
498.38	17.42
498.58	17.52
498.78	17.4
498.981	17.36
499.181	17.37
499.382	17.41
499.582	17.34
499.782	17.39
499.983	17.36
500.183	17.41
500.383	17.31
500.584	17.43
500.784	17.35
500.984	17.43
501.184	17.49
501.385	17.5
501.585	17.54
501.785	17.61
501.985	17.56
502.185	17.67
502.386	17.78
502.586	17.92
502.786	17.83
502.986	17.89
503.186	17.93
503.386	17.88
503.586	17.85
503.786	17.79
503.987	17.89
504.187	17.95
504.387	17.99
504.587	17.98
504.787	17.97
504.987	18.07
505.187	18.06
505.387	18.12
505.587	18.25
505.786	18.35
505.986	18.41
506.186	18.35
506.386	18.41
506.586	18.37
506.786	18.32
506.986	18.36
507.186	18.35
507.386	18.44
507.585	18.31
507.785	18.23
507.985	18.22
508.185	18.31
508.384	18.28
508.584	18.29
508.784	18.3
508.984	18.38
509.183	18.33
509.383	18.41
509.583	18.4
509.782	18.49
509.982	18.56
510.182	18.66
510.381	18.67
510.581	18.69
510.781	18.63
510.98	18.71
511.18	18.67
511.379	18.76
511.579	18.75
511.778	18.72
511.978	18.74
512.177	18.8
512.377	18.75
512.576	18.79
512.776	18.92
512.975	19.03
513.175	19.07
513.374	19.06
513.573	19.09
513.773	19.19
513.972	19.27
514.172	19.28
514.371	19.38
514.57	19.45
514.77	19.43
514.969	19.38
515.168	19.47
515.367	19.44
515.567	19.57
515.766	19.56
515.965	19.49
516.164	19.5
516.364	19.63
516.563	19.55
516.762	19.59
516.961	19.6
517.16	19.59
517.359	19.6
517.559	19.64
517.758	19.67
517.957	19.72
518.156	19.78
518.355	19.84
518.554	19.83
518.753	19.87
518.952	19.88
519.151	19.98
519.35	20.06
519.549	20.04
519.748	20.09
519.947	20.08
520.146	20.16
520.345	20.18
520.544	20.22
520.743	20.24
520.942	20.32
521.141	20.36
521.339	20.34
521.538	20.43
521.737	20.57
521.936	20.6
522.135	20.75
522.333	20.76
522.532	20.76
522.731	20.8
522.93	20.81
523.129	20.85
523.327	20.9
523.526	20.9
523.725	20.92
523.923	20.9
524.122	20.91
524.321	20.86
524.519	20.85
524.718	20.94
524.917	20.98
525.115	21.08
525.314	21.09
525.512	21.08
525.711	21.13
525.909	21.09
526.108	21.14
526.306	21.19
526.505	21.26
526.703	21.27
526.902	21.26
527.1	21.17
527.299	21.13
527.497	21.14
527.696	21.13
527.894	21.15
528.092	21.12
528.291	21.11
528.489	21.09
528.688	21.04
528.886	21.02
529.084	20.99
529.283	21.07
529.481	21.1
529.679	21.11
529.877	21.14
530.076	21.12
530.274	21.16
530.472	21.21
530.67	21.26
530.869	21.37
531.067	21.42
531.265	21.54
531.463	21.53
531.661	21.58
531.859	21.65
532.057	21.73
532.255	21.83
532.454	21.83
532.652	21.79
532.85	21.81
533.048	21.78
533.246	21.82
533.444	21.79
533.642	21.79
533.84	21.79
534.038	21.81
534.236	21.77
534.434	21.74
534.632	21.77
534.83	21.82
535.027	21.82
535.225	21.84
535.423	21.87
535.621	21.97
535.819	22.07
536.017	22.04
536.215	22.01
536.412	22.05
536.61	22.14
536.808	22.2
537.006	22.24
537.203	22.27
537.401	22.26
537.599	22.27
537.797	22.23
537.994	22.27
538.192	22.39
538.39	22.43
538.587	22.38
538.785	22.42
538.983	22.52
539.18	22.54
539.378	22.6
539.575	22.66
539.773	22.73
539.97	22.83
540.168	22.85
540.366	22.87
540.563	22.91
540.761	22.93
540.958	22.91
541.155	22.87
541.353	22.88
541.55	22.92
541.748	22.97
541.945	22.92
542.143	22.88
542.34	22.85
542.537	22.89
542.735	22.87
542.932	22.87
543.129	22.95
543.327	23.01
543.524	23.01
543.721	23.05
543.919	23.14
544.116	23.27
544.313	23.4
544.51	23.58
544.708	23.7
544.905	23.84
545.102	23.99
545.299	23.99
545.496	24.12
545.693	24.2
545.891	24.23
546.088	24.19
546.285	24.13
546.482	24.11
546.679	24
546.876	23.93
547.073	23.84
547.27	23.75
547.467	23.76
547.664	23.67
547.861	23.65
548.058	23.64
548.255	23.63
548.452	23.69
548.649	23.67
548.846	23.64
549.043	23.65
549.24	23.69
549.437	23.67
549.633	23.69
549.83	23.67
550.027	23.76
550.224	23.75
550.421	23.66
550.618	23.64
550.814	23.64
551.011	23.75
551.208	23.71
551.405	23.63
551.601	23.72
551.798	23.74
551.995	23.72
552.191	23.63
552.388	23.57
552.585	23.71
552.781	23.66
552.978	23.64
553.175	23.61
553.371	23.65
553.568	23.77
553.764	23.79
553.961	23.72
554.157	23.74
554.354	23.78
554.55	23.79
554.747	23.68
554.943	23.71
555.14	23.73
555.336	23.7
555.533	23.66
555.729	23.63
555.926	23.58
556.122	23.72
556.318	23.78
556.515	23.85
556.711	23.87
556.907	23.8
557.104	23.87
557.3	23.89
557.496	23.81
557.693	23.84
557.889	23.84
558.085	23.98
558.281	23.78
558.478	23.8
558.674	23.7
558.87	23.77
559.066	23.9
559.262	23.86
559.459	23.82
559.655	23.81
559.851	23.72
560.047	23.67
560.243	23.52
560.439	23.6
560.635	23.52
560.831	23.57
561.027	23.48
561.223	23.44
561.419	23.45
561.615	23.44
561.811	23.5
562.007	23.54
562.203	23.65
562.399	23.71
562.595	23.7
562.791	23.74
562.987	23.77
563.183	23.81
563.379	23.95
563.575	23.98
563.771	24.04
563.966	24.06
564.162	24.18
564.358	24.15
564.554	24.14
564.75	24.24
564.945	24.25
565.141	24.17
565.337	24.25
565.533	24.13
565.728	24.11
565.924	24.1
566.12	24.07
566.315	24.06
566.511	24.06
566.707	24.01
566.902	23.98
567.098	24.05
567.293	24.08
567.489	24.02
567.684	23.98
567.88	23.97
568.076	23.94
568.271	24
568.467	23.89
568.662	23.88
568.858	23.79
569.053	23.75
569.248	23.63
569.444	23.67
569.639	23.68
569.835	23.7
570.03	23.78
570.225	23.82
570.421	23.83
570.616	23.88
570.812	23.9
571.007	23.99
571.202	24.06
571.397	24.08
571.593	23.99
571.788	24.02
571.983	24.01
572.178	24.06
572.374	24.05
572.569	23.98
572.764	24.07
572.959	24.03
573.154	24.09
573.35	24.07
573.545	24.04
573.74	24.1
573.935	24.11
574.13	24.1
574.325	23.98
574.52	23.99
574.715	23.99
574.91	23.91
575.105	23.95
575.3	23.9
575.495	23.93
575.69	24.03
575.885	24.09
576.08	24.15
576.275	24.15
576.47	24.25
576.665	24.36
576.86	24.46
577.055	24.52
577.25	24.51
577.444	24.65
577.639	24.66
577.834	24.53
578.029	24.58
578.224	24.58
578.418	24.75
578.613	24.81
578.808	24.56
579.003	24.67
579.197	24.51
579.392	24.53
579.587	24.6
579.781	24.64
579.976	24.84
580.171	24.74
580.365	24.71
580.56	24.64
580.755	24.57
580.949	24.76
581.144	24.73
581.338	24.97
581.533	24.97
581.727	24.91
581.922	24.87
582.116	24.78
582.311	24.77
582.505	24.8
582.7	24.88
582.894	25.02
583.089	24.93
583.283	24.93
583.478	24.88
583.672	24.84
583.866	24.81
584.061	24.94
584.255	25.03
584.449	25.21
584.644	25.33
584.838	25.35
585.032	25.34
585.226	25.47
585.421	25.44
585.615	25.45
585.809	25.56
586.003	25.65
586.198	25.48
586.392	25.51
586.586	25.5
586.78	25.44
586.974	25.37
587.168	25.21
587.363	25.07
587.557	25.19
587.751	25.14
587.945	25.21
588.139	25.04
588.333	25.15
588.527	25.14
588.721	25.05
588.915	24.91
589.109	24.79
589.303	24.91
589.497	25.08
589.691	25.01
589.885	24.99
590.079	24.89
590.273	24.99
590.466	24.99
590.66	24.94
590.854	24.91
591.048	25.08
591.242	25.27
591.436	25.34
591.629	25.21
591.823	25.29
592.017	25.28
592.211	25.39
592.404	25.4
592.598	25.36
592.792	25.4
592.986	25.39
593.179	25.24
593.373	25.21
593.567	25.25
593.76	25.29
593.954	25.29
594.147	25.46
594.341	25.34
594.535	25.31
594.728	25.34
594.922	25.37
595.115	25.33
595.309	25.39
595.502	25.37
595.696	25.19
595.889	25.16
596.083	25.18
596.276	25.07
596.47	25.13
596.663	25.12
596.856	24.99
597.05	24.9
597.243	25
597.437	25.09
597.63	25.1
597.823	25.16
598.017	25.14
598.21	25.08
598.403	24.99
598.596	24.81
598.79	24.88
598.983	25.01
599.176	25.09
599.369	25.2
599.563	24.99
599.756	25.04
599.949	25.05
600.142	25.08
600.335	25.15
600.528	25.49
600.722	25.7
600.915	25.59
601.108	25.68
601.301	25.8
601.494	25.61
601.687	25.8
601.88	25.73
602.073	25.7
602.266	25.81
602.459	25.67
602.652	25.44
602.845	25.45
603.038	25.45
603.231	25.36
603.424	25.22
603.617	25.22
603.809	25.02
604.002	25.08
604.195	25.24
604.388	25.04
604.581	25.15
604.774	25.16
604.966	24.98
605.159	25.01
605.352	24.97
605.545	25
605.737	25.09
605.93	25.2
606.123	25.09
606.316	24.95
606.508	25.09
606.701	25.05
606.894	25.23
607.086	25.43
607.279	25.43
607.471	25.51
607.664	25.49
607.857	25.57
608.049	25.68
608.242	25.91
608.434	26.06
608.627	26.41
608.819	26.7
609.012	27.01
609.204	27.5
609.397	27.95
609.589	28.33
609.782	28.93
609.974	29.26
610.166	29.81
610.359	30.34
610.551	30.68
610.743	30.99
610.936	31.44
611.128	31.7
611.32	31.72
611.513	31.84
611.705	31.99
611.897	31.89
612.09	31.8
612.282	31.67
612.474	31.37
612.666	31.29
612.858	31.13
613.051	30.78
613.243	30.39
613.435	30.27
613.627	30.07
613.819	29.77
614.011	29.58
614.203	29.4
614.395	29.23
614.588	29.06
614.78	28.87
614.972	28.53
615.164	28.4
615.356	28.32
615.548	27.99
615.74	27.9
615.932	28.02
616.124	27.79
616.315	27.82
616.507	27.82
616.699	27.62
616.891	27.67
617.083	27.52
617.275	27.5
617.467	27.53
617.659	27.6
617.85	27.45
618.042	27.28
618.234	27.6
618.426	27.69
618.618	27.59
618.809	27.69
619.001	27.6
619.193	27.76
619.384	27.62
619.576	27.4
619.768	27.42
619.959	27.45
620.151	27.24
620.343	27.07
620.534	27.07
620.726	26.97
620.917	26.87
621.109	26.99
621.301	26.98
621.492	26.95
621.684	27
621.875	27.12
622.067	27.1
622.258	27.3
622.45	27.21
622.641	26.97
622.832	27.19
623.024	27.31
623.215	27.05
623.407	26.9
623.598	27.04
623.789	27.31
623.981	27.14
624.172	27.11
624.363	27.19
624.555	27.11
624.746	27.12
624.937	26.97
625.129	26.99
625.32	27.02
625.511	27.12
625.702	26.96
625.893	26.82
626.085	26.7
626.276	26.65
626.467	26.7
626.658	26.67
626.849	26.76
627.04	26.66
627.231	26.81
627.422	27
627.614	26.98
627.805	27.08
627.996	27.08
628.187	27.27
628.378	27.41
628.569	27.35
628.76	27.5
628.951	27.58
629.142	27.65
629.332	27.43
629.523	27.24
629.714	27.38
629.905	27.52
630.096	27.6
630.287	27.47
630.478	27.46
630.669	27.43
630.859	27.45
631.05	27.34
631.241	27.47
631.432	27.27
631.623	27.25
631.813	27.24
632.004	26.93
632.195	26.88
632.385	26.93
632.576	26.87
632.767	26.8
632.957	26.7
633.148	26.73
633.339	26.57
633.529	26.75
633.72	26.97
633.91	26.65
634.101	26.64
634.292	26.46
634.482	26.43
634.673	26.39
634.863	26.48
635.054	26.69
635.244	26.61
635.435	26.66
635.625	26.66
635.815	26.75
636.006	26.99
636.196	27.23
636.387	27.3
636.577	27.17
636.767	27.17
636.958	26.95
637.148	26.75
637.338	26.77
637.529	26.84
637.719	26.99
637.909	26.85
638.099	26.92
638.29	26.84
638.48	26.74
638.67	27.11
638.86	27.1
639.05	27.33
639.241	27.36
639.431	27.46
639.621	27.29
639.811	27.09
640.001	27.04
640.191	27.13
640.381	27.24
640.571	27.49
640.761	27.23
640.951	27.24
641.141	27.36
641.331	27.56
641.521	27.59
641.711	27.87
641.901	27.99
642.091	28.08
642.281	27.75
642.471	27.62
642.661	27.61
642.851	27.63
643.041	27.67
643.231	27.63
643.42	27.46
643.61	27.38
643.8	27.16
643.99	27.03
644.18	26.82
644.369	27.13
644.559	27.17
644.749	27.07
644.939	27.03
645.128	27.08
645.318	26.94
645.508	26.94
645.697	27.15
645.887	27.24
646.076	27.61
646.266	27.71
646.456	27.6
646.645	27.72
646.835	27.88
647.024	28.13
647.214	28.04
647.403	28
647.593	27.99
647.782	27.87
647.972	28
648.161	27.79
648.351	27.84
648.54	27.79
648.73	27.71
648.919	27.63
649.108	27.47
649.298	27.89
649.487	28.14
649.677	28.18
649.866	28.04
650.055	27.79
650.244	27.72
650.434	27.66
650.623	27.62
650.812	27.64
651.002	27.58
651.191	27.73
651.38	27.32
651.569	27.18
651.758	27.04
651.947	27.1
652.137	27.22
652.326	27.28
652.515	27.23
652.704	27.26
652.893	27.44
653.082	27.52
653.271	27.55
653.46	27.7
653.649	27.59
653.838	27.85
654.027	27.87
654.216	27.81
654.405	27.88
654.594	27.9
654.783	28.09
654.972	27.95
655.161	28
655.35	27.83
655.539	27.8
655.728	27.8
655.916	27.78
656.105	27.34
656.294	27.3
656.483	27.15
656.672	27.02
656.86	26.74
657.049	26.54
657.238	26.5
657.427	26.47
657.615	26.54
657.804	26.65
657.993	26.46
658.181	26.76
658.37	26.88
658.559	26.9
658.747	27.04
658.936	27.17
659.125	27.03
659.313	27.16
659.502	27.13
659.69	27.09
659.879	27.03
660.067	27.17
660.256	27.18
660.444	27.02
660.633	27.09
660.821	27.19
661.01	27.18
661.198	27.44
661.387	27.3
661.575	27.4
661.763	27.58
661.952	27.79
662.14	27.85
662.328	28.02
662.517	28.23
662.705	28.07
662.893	28.05
663.082	27.99
663.27	27.93
663.458	27.99
663.646	28.05
663.834	27.95
664.023	27.87
664.211	28.03
664.399	28.07
664.587	27.77
664.775	28.09
664.963	27.88
665.152	27.98
665.34	28.2
665.528	27.96
665.716	27.98
665.904	28.12
666.092	27.99
666.28	27.59
666.468	27.37
666.656	27.76
666.844	27.75
667.032	28.07
667.22	28.12
667.408	28.13
667.596	28.61
667.784	28.49
667.971	28.43
668.159	28.48
668.347	28.6
668.535	28.68
668.723	28.67
668.911	28.49
669.098	28.61
669.286	28.58
669.474	28.64
669.662	28.48
669.849	28.72
670.037	28.8
670.225	28.92
670.413	28.99
670.6	29.13
670.788	28.94
670.976	29.01
671.163	28.87
671.351	28.85
671.538	28.83
671.726	28.74
671.913	28.65
672.101	28.56
672.289	28.59
672.476	28.43
672.664	28.35
672.851	28.59
673.039	28.6
673.226	28.49
673.413	28.39
673.601	28.35
673.788	28.27
673.976	28.16
674.163	28.11
674.35	28.17
674.538	28.16
674.725	28.16
674.912	27.96
675.1	27.83
675.287	28.05
675.474	28.03
675.662	28.09
675.849	28.11
676.036	28.22
676.223	28.19
676.411	28.12
676.598	28.14
676.785	28.25
676.972	28.23
677.159	28.4
677.346	28.34
677.533	28.63
677.721	28.47
677.908	28.41
678.095	28.3
678.282	28.19
678.469	28.02
678.656	28.16
678.843	28.28
679.03	28.46
679.217	28.33
679.404	28.26
679.591	28.16
679.778	28.29
679.964	28.25
680.151	28.27
680.338	28.27
680.525	28.24
680.712	28.12
680.899	27.97
681.086	27.88
681.272	27.89
681.459	27.92
681.646	27.71
681.833	27.65
682.02	27.53
682.206	27.44
682.393	27.61
682.58	27.68
682.766	27.63
682.953	27.68
683.14	27.79
683.326	27.93
683.513	27.84
683.7	28.06
683.886	27.95
684.073	28.36
684.259	28.48
684.446	28.45
684.632	28.74
684.819	28.96
685.005	28.9
685.192	28.65
685.378	28.58
685.565	29.02
685.751	29
685.938	29.17
686.124	29.31
686.31	29.12
686.497	29.21
686.683	28.98
686.87	29.14
687.056	29.22
687.242	28.82
687.429	28.81
687.615	28.42
687.801	28.36
687.987	28.42
688.174	28.29
688.36	28.6
688.546	28.28
688.732	28.35
688.918	28.24
689.105	27.99
689.291	28.48
689.477	28.49
689.663	28.44
689.849	28.49
690.035	28.52
690.221	28.79
690.407	28.65
690.593	28.74
690.779	28.65
690.965	28.37
691.151	28.81
691.337	28.97
691.523	28.77
691.709	28.95
691.895	29.14
692.081	28.92
692.267	28.61
692.453	29.01
692.639	29.14
692.825	29.16
693.011	29.3
693.196	29.26
693.382	29.13
693.568	29.42
693.754	29.7
693.94	29.88
694.125	30.1
694.311	29.58
694.497	29.15
694.682	29.13
694.868	28.92
695.054	29.11
695.239	29.05
695.425	29.66
695.611	29.72
695.796	29.19
695.982	28.6
696.168	28.4
696.353	28.68
696.539	28.59
696.724	28.76
696.91	28.56
697.095	28.14
697.281	28.03
697.466	27.9
697.652	27.6
697.837	27.68
698.023	27.89
698.208	27.97
698.393	27.93
698.579	28.08
698.764	27.97
698.949	28.12
699.135	28.32
699.32	28.43
699.505	28.2
699.691	28.49
699.876	28.39
700.061	28.31
700.246	28.13
700.432	28.22
700.617	28.14
700.802	28.18
700.987	28.52
701.172	28.54
701.358	28.53
701.543	28.57
701.728	28.58
701.913	28.89
702.098	29.17
702.283	29.46
702.468	29.48
702.653	29.97
702.838	30.11
703.023	30.09
703.208	30.17
703.393	29.89
703.578	29.9
703.763	29.82
703.948	30.07
704.133	29.96
704.318	30.06
704.503	30.37
704.688	29.93
704.873	30.06
705.057	30.16
705.242	30.49
705.427	31.02
705.612	30.96
705.797	31.66
705.981	31.72
706.166	32.1
706.351	32.43
706.536	32.4
706.72	32.34
706.905	32.24
707.09	32.15
707.274	32.24
707.459	32.07
707.644	32.36
707.828	31.97
708.013	31.87
708.197	31.46
708.382	31.33
708.567	31.13
708.751	31.18
708.936	31.06
709.12	31.12
709.305	31.08
709.489	31.28
709.673	31.18
709.858	31.08
710.042	30.95
710.227	31.35
710.411	31.26
710.596	31.1
710.78	31.45
710.964	31.43
711.149	31.44
711.333	31.4
711.517	31.02
711.702	31.13
711.886	31.09
712.07	31.09
712.254	30.8
712.438	30.71
712.623	30.94
712.807	31.04
712.991	31.43
713.175	31.87
713.359	31.54
713.544	31.52
713.728	31.56
713.912	31.61
714.096	31.45
714.28	31.79
714.464	31.78
714.648	31.77
714.832	31.35
715.016	30.95
715.2	30.45
715.384	30.52
715.568	30.69
715.752	30.57
715.936	30.71
716.12	30.76
716.304	30.29
716.488	30.28
716.671	30.18
716.855	30.32
717.039	30.58
717.223	30.73
717.407	30.88
717.59	31.14
717.774	31.11
717.958	30.77
718.142	30.87
718.325	31.4
718.509	31.61
718.693	31.5
718.877	31.48
719.06	31.58
719.244	31.43
719.428	31.88
719.611	31.53
719.795	31.86
719.978	31.52
720.162	31.43
720.345	31.43
720.529	30.85
720.713	31.32
720.896	31.26
721.08	31.44
721.263	31.47
721.446	30.91
721.63	30.83
721.813	30.68
721.997	31.23
722.18	31.2
722.364	30.99
722.547	31.29
722.73	30.6
722.914	30.72
723.097	30.29
723.28	29.92
723.464	29.8
723.647	29.77
723.83	29.05
724.013	29.13
724.197	29.37
724.38	29.44
724.563	29.94
724.746	30.44
724.929	30.16
725.112	30.69
725.296	30.72
725.479	30
725.662	30.12
725.845	30.38
726.028	30.13
726.211	30.09
726.394	29.94
726.577	29.7
726.76	29.75
726.943	29.82
727.126	28.78
727.309	29.38
727.492	30.4
727.675	30.38
727.858	30.6
728.041	30.67
728.224	30.94
728.407	30.56
728.589	30.84
728.772	30.61
728.955	31.02
729.138	31.22
729.321	30.88
729.503	30.66
729.686	30.9
729.869	30.94
730.052	30.52
730.234	30.01
730.417	30.11
730.6	29.51
730.782	29.62
730.965	29.3
731.148	29.51
731.33	29.37
731.513	29.16
731.695	29.06
731.878	28.85
732.061	29.57
732.243	29.93
732.426	30.14
732.608	30.38
732.791	30.63
732.973	30.67
733.156	30.89
733.338	30.88
733.52	31.01
733.703	30.64
733.885	31.05
734.068	30.81
734.25	30.37
734.432	30.56
734.615	30.49
734.797	30.52
734.979	30.81
735.162	30.41
735.344	30.89
735.526	31.18
735.708	31.99
735.891	32.26
736.073	32.44
736.255	32.56
736.437	32.47
736.619	32.47
736.802	32.67
736.984	32.38
737.166	33.04
737.348	33.02
737.53	33.08
737.712	32.68
737.894	31.99
738.076	31.64
738.258	32.07
738.44	31.75
738.622	32.06
738.804	31.94
738.986	32
739.168	31.72
739.35	31.75
739.532	31.5
739.714	31.59
739.896	31.73
740.078	31.68
740.259	31.46
740.441	31.84
740.623	32.02
740.805	31.89
740.987	31.76
741.168	31.43
741.35	31.54
741.532	31.92
741.714	32.09
741.895	32.14
742.077	33.09
742.259	33.15
742.44	33.13
742.622	32.97
742.804	32.66
742.985	32.52
743.167	32.79
743.348	32.3
743.53	32.1
743.711	31.96
743.893	32.56
744.075	32.03
744.256	32.12
744.438	32.27
744.619	32
744.8	31.88
744.982	31.91
745.163	32.42
745.345	33.13
745.526	33.81
745.707	33.51
745.889	33.08
746.07	33.16
746.252	33.07
746.433	32.91
746.614	33.42
746.795	34.31
746.977	34.99
747.158	34.32
747.339	33.85
747.52	33.49
747.702	33.37
747.883	33.36
748.064	33.03
748.245	32.92
748.426	32.98
748.607	32.97
748.788	32.5
748.97	32.41
749.151	32.13
749.332	32.7
749.513	32.43
749.694	33.29
749.875	33.45
750.056	33.32
750.237	33.61
750.418	33.96
750.599	33.44
750.78	33.38
750.96	32.84
751.141	33.47
751.322	33.18
751.503	32.99
751.684	32.05
751.865	32.22
752.046	32.01
752.226	31.76
752.407	30.64
752.588	30.97
752.769	31.49
752.949	31.77
753.13	31.74
753.311	30.58
753.492	31.35
753.672	32.07
753.853	31.83
754.034	32.97
754.214	33.47
754.395	34.19
754.575	33.45
754.756	32.87
754.937	32.98
755.117	33.18
755.298	33.86
755.478	33.19
755.659	33.04
755.839	33.02
756.02	32.64
756.2	32.62
756.381	32.6
756.561	32.88
756.741	32.93
756.922	32.65
757.102	32.38
757.283	32.79
757.463	32.98
757.643	32.93
757.823	33.49
758.004	32.98
758.184	32.66
758.364	32.36
758.545	32.13
758.725	31.77
758.905	31.69
759.085	31.26
759.265	30.71
759.446	30.11
759.626	29.76
759.806	28.92
759.986	29.04
760.166	29.43
760.346	29.65
760.526	29.96
760.706	30.49
760.886	30.75
761.066	31.25
761.246	31.33
761.426	31.32
761.606	31.03
761.786	30.41
761.966	30.39
762.146	29.38
762.326	29.02
762.506	28.82
762.686	28.47
762.866	28.2
763.046	27.6
763.225	27.58
763.405	27.31
763.585	27.44
763.765	27.75
763.945	27.64
764.124	28.27
764.304	28.91
764.484	28.9
764.664	28.9
764.843	29.31
765.023	29.51
765.203	29.79
765.382	30.53
765.562	31.02
765.741	30.93
765.921	31.46
766.101	31.36
766.28	30.49
766.46	30.41
766.639	30.66
766.819	30.22
766.998	30.46
767.178	30.41
767.357	30.55
767.537	30.71
767.716	31.46
767.896	31.42
768.075	31.37
768.254	31.66
768.434	32.49
768.613	32.72
768.792	33.3
768.972	33.73
769.151	33.52
769.33	33.29
769.51	33.4
769.689	32.98
769.868	32.91
770.047	32.9
770.226	33.09
770.406	32.36
770.585	31.75
770.764	31.14
770.943	30.55
771.122	30.97
771.301	30.69
771.48	30.65
771.66	30.4
771.839	30.32
772.018	30.94
772.197	31.64
772.376	31.98
772.555	32.65
772.734	33.38
772.913	34.06
773.092	34.95
773.271	34.75
773.449	34.09
773.628	34.79
773.807	34.64
773.986	34.79
774.165	34.67
774.344	35.12
774.523	34.88
774.701	34.53
774.88	34.13
775.059	32.97
775.238	34.18
775.417	34.06
775.595	34.66
775.774	34.81
775.953	33.68
776.131	33.01
776.31	33.54
776.489	34.17
776.667	34.49
776.846	34.98
777.025	35.43
777.203	34.42
777.382	35.32
777.56	34.98
777.739	35.16
777.917	35.73
778.096	35.62
778.274	34.42
778.453	35.09
778.631	34.95
778.81	34.24
778.988	34.62
779.166	34.47
779.345	34.27
779.523	33.79
779.702	33.26
779.88	33.27
780.058	33.56
780.237	33.77
780.415	33.39
780.593	32.66
780.771	32.47
780.95	32.34
781.128	32.59
781.306	32.28
781.484	32.8
781.662	33.66
781.841	33.46
782.019	33.41
782.197	33.09
782.375	31.2
782.553	31.95
782.731	32.4
782.909	32.13
783.087	32.84
783.265	33.04
783.443	32.84
783.621	32.06
783.799	32.81
783.977	33.48
784.155	34.14
784.333	35.33
784.511	34.81
784.689	35.02
784.867	35.2
785.045	34.52
785.223	34.06
785.4	33.2
785.578	33.76
785.756	32.87
785.934	32.17
786.112	31.53
786.289	32.49
786.467	32.66
786.645	32.86
786.823	32.5
787	32.33
787.178	32.79
787.356	33.6
787.533	33.01
787.711	32.77
787.889	33
788.066	33.2
788.244	32.75
788.421	32.64
788.599	32.59
788.776	32.65
788.954	33.78
789.131	33.22
789.309	33.34
789.486	34.27
789.664	34.29
789.841	34.43
790.019	33.97
790.196	33.52
790.373	34.03
790.551	33.41
790.728	33.49
790.906	33.61
791.083	34.56
791.26	33.91
791.437	31.98
791.615	31.75
791.792	31.78
791.969	33.2
792.146	33.24
792.324	32.92
792.501	33.98
792.678	34.61
792.855	33.64
793.032	33.33
793.209	34.12
793.387	35.18
793.564	35.22
793.741	35.09
793.918	34.51
794.095	34.91
794.272	35.43
794.449	34.92
794.626	35.13
794.803	35.37
794.98	34.85
795.157	33.76
795.334	34.84
795.511	35.21
795.688	36.16
795.864	35.98
796.041	37.09
796.218	36.52
796.395	35.72
796.572	35.07
796.749	34.87
796.925	34.78
797.102	34.49
797.279	33.23
797.456	32.49
797.632	31.26
797.809	30.72
797.986	29.12
798.162	29.21
798.339	30.25
798.516	29.61
798.692	29.73
798.869	30.72
799.046	30.32
799.222	30.92
799.399	32.75
799.575	33.11
799.752	33.9
799.928	34.85
800.105	34.69
800.281	34.55
800.458	34.77
800.634	34.54
800.811	33.91
800.987	35.8
801.163	34.72
801.34	33.33
801.516	32.92
801.692	32.92
801.869	31.97
802.045	32.18
802.221	32.8
802.398	32.96
802.574	32.16
802.75	33.02
802.926	32.55
803.103	34.57
803.279	34.44
803.455	34.24
803.631	34.03
803.807	34.25
803.983	34.73
804.16	33.82
804.336	33.61
804.512	34.86
804.688	35.03
804.864	34.69
805.04	34.77
805.216	35.43
805.392	38.02
805.568	38.35
805.744	39.22
805.92	37.82
806.096	38.18
806.272	39.31
806.448	39
806.623	39.2
806.799	39.44
806.975	38.5
807.151	38.46
807.327	36.78
807.503	36.43
807.678	35.66
807.854	37.6
808.03	37.46
808.206	36.92
808.381	37.45
808.557	35.79
808.733	36.41
808.908	36.31
809.084	35.53
809.26	35.58
809.435	35.03
809.611	35.77
809.787	36.35
809.962	34.98
810.138	35.34
810.313	35.31
810.489	35.43
810.664	33.41
810.84	34.27
811.015	35.82
811.191	36.16
811.366	37.41
811.542	36.4
811.717	35.6
811.892	36.61
812.068	36.36
812.243	35.68
812.419	36.64
812.594	37.43
812.769	36.56
812.944	36.79
813.12	35.68
813.295	35.5
813.47	33.92
813.645	33.32
813.821	34.26
813.996	33.2
814.171	33.21
814.346	32.9
814.521	32.53
814.697	32.75
814.872	32.12
815.047	33.02
815.222	33.18
815.397	33.65
815.572	33.9
815.747	33.16
815.922	33.54
816.097	33.8
816.272	33.94
816.447	35.1
816.622	36.24
816.797	35.45
816.972	35.38
817.147	35.19
817.322	35.86
817.496	34.34
817.671	34.66
817.846	34.38
818.021	34
818.196	33.77
818.371	33.55
818.545	32.05
818.72	32.3
818.895	32.49
819.069	32.85
819.244	33.05
819.419	33.13
819.594	32.17
819.768	31.65
819.943	31.87
820.117	31.82
820.292	30.52
820.467	30.35
820.641	29.74
820.816	28.7
820.99	27.67
821.165	27.37
821.339	27.64
821.514	27.4
821.688	27.31
821.863	26.83
822.037	26.32
822.212	26.38
822.386	26.37
822.56	26.26
822.735	26.28
822.909	26.13
823.084	26.2
823.258	25.82
823.432	25.78
823.606	25.74
823.781	25.92
823.955	25.99
824.129	26.07
824.303	25.93
824.478	25.78
824.652	25.69
824.826	25.84
825	25.44
825.174	25.66
825.348	26.34
825.523	26.12
825.697	25.87
825.871	25.96
826.045	25.92
826.219	25.85
826.393	26.24
826.567	26.36
826.741	26.53
826.915	26.51
827.089	26.78
827.263	26.09
827.437	26.12
827.611	26.5
827.784	26.43
827.958	25.8
828.132	25.75
828.306	25.79
828.48	25.78
828.654	26.08
828.827	25.89
829.001	26.14
829.175	26
829.349	26.38
829.522	26.11
829.696	26.66
829.87	28.29
830.044	29.11
830.217	29.88
830.391	30.43
830.565	30.64
830.738	31.63
830.912	30.65
831.085	30.87
831.259	32.11
831.432	30.71
831.606	31.28
831.779	29.43
831.953	29.89
832.126	29.01
832.3	29.27
832.473	28.35
832.647	27.99
832.82	29.28
832.994	29.29
833.167	28.69
833.34	29.17
833.514	28.54
833.687	28.64
833.86	28.13
834.034	27.59
834.207	27.78
834.38	27.92
834.553	27.94
834.727	27.48
834.9	27.53
835.073	27.27
835.246	27.14
835.419	27.23
835.593	27.44
835.766	27.88
835.939	28.94
836.112	28.59
836.285	28.72
836.458	29.34
836.631	28.85
836.804	29.99
836.977	31.06
837.15	33.16
837.323	33.47
837.496	36.05
837.669	35.67
837.842	36.31
838.015	36.74
838.188	36.95
838.361	37
838.533	39.55
838.706	40.03
838.879	39.62
839.052	37.6
839.225	38.2
839.398	36.85
839.57	36.98
839.743	36.95
839.916	35.68
840.088	35.51
840.261	35.83
840.434	33.42
840.607	32.11
840.779	31.53
840.952	31.94
841.124	31.74
841.297	32.49
841.47	31.05
841.642	31.64
841.815	32.84
841.987	35.36
842.16	34.7
842.332	34.01
842.505	35.98
842.677	37.85
842.85	38.88
843.022	37.22
843.194	36.8
843.367	38.97
843.539	36.05
843.712	35.95
843.884	34.57
844.056	33.38
844.229	36.55
844.401	34.1
844.573	33.08
844.745	33.09
844.918	36.39
845.09	38.01
845.262	39.63
845.434	40.79
845.606	42.19
845.779	40.71
845.951	45.88
846.123	45.57
846.295	48.45
846.467	47.48
846.639	48.24
846.811	48.1
846.983	44.73
847.155	43.25
847.327	42.93
847.499	39.9
847.671	43
847.843	42.06
848.015	42.85
848.187	42.2
848.359	41.43
848.531	44.16
848.703	42.9
848.875	45.86
849.047	44.39
849.218	47.93
849.39	47.38
849.562	46.49
849.734	44.97
849.905	44.19
850.077	45.58
850.249	48.05
850.421	44.36
850.592	42.78
850.764	42.62
850.936	45.21
851.107	42.16
851.279	43.5
851.451	44.18
851.622	45.06
851.794	43.27
851.965	42.38
852.137	36.54
852.308	34.91
852.48	34.42
852.651	33.71
852.823	33.14
852.994	33.17
853.166	38.66
853.337	36.79
853.509	36.79
853.68	36.51
853.851	35.44
854.023	42.93
854.194	42.23
854.365	45.48
854.537	46.23
854.708	46.44
854.879	49.9
855.05	47.49
855.222	46.24
855.393	51.62
855.564	56.41
855.735	53.04
855.906	48.43
856.078	48.54
856.249	50.74
856.42	46.26
856.591	47.97
856.762	44.22
856.933	41.2
857.104	43.1
857.275	41.95
857.446	37.49
857.617	40.4
857.788	41.37
857.959	43.94
858.13	43.75
858.301	47.44
858.472	42.78
858.643	42.95
858.814	41.54
858.985	41.23
859.155	37.5
859.326	45.78
859.497	44.88
859.668	49.59
859.839	48.25
860.009	46.16
860.18	46.63
860.351	48.39
860.522	49.03
860.692	52.72
860.863	53.58
861.034	52.28
861.204	46.22
861.375	46.91
861.546	40.07
861.716	38.19
861.887	39.88
862.057	39.64
862.228	39.88
862.398	40.33
862.569	38.75
862.739	42.78
862.91	47.55
863.08	43.79
863.251	46.76
863.421	50.43
863.592	51.83
863.762	48.91
863.932	47.82
864.103	47.93
864.273	45.54
864.443	44.95
864.614	42.7
864.784	40.92
864.954	44.44
865.125	43.94
865.295	43.79
865.465	45.21
865.635	48.03
865.805	49.07
865.976	45.79
866.146	48.03
866.316	48.05
866.486	44.3
866.656	44.53
866.826	43.4
866.996	40.17
867.166	41.41
867.336	43.36
867.506	41.99
867.676	38.34
867.846	36.61
868.016	36.7
868.186	34.82
868.356	32.98
868.526	31
868.696	35.02
868.866	30.98
869.036	28.58
869.206	26.42
869.376	28.73
869.545	25.51
869.715	34.68
869.885	33.94
870.055	36.11
870.224	43.55
870.394	45.38
870.564	49
870.734	54.14
870.903	57.02
871.073	56.8
871.243	58.43
871.412	66.92
871.582	62.13
871.751	60.14
871.921	63.8
872.091	65.64
872.26	64.18
872.43	56.65
872.599	54.19
872.769	51.15
872.938	51.75
873.108	51.06
873.277	48.61
873.446	52.78
873.616	52.94
873.785	51.67
873.955	47.21
874.124	42.57
874.293	41.76
874.463	41.07
874.632	44.35
874.801	44.11
874.971	42.35
875.14	34.02
875.309	30.15
875.478	33.93
875.647	33.23
875.817	31.83
875.986	40.23
876.155	40.26
876.324	46.5
876.493	45.75
876.662	43.2
876.831	41.26
877	45.37
877.17	46.92
877.339	46.72
877.508	47.2
877.677	50.54
877.846	44.69
878.015	46.46
878.184	41.96
878.352	37.36
878.521	34.98
878.69	36.49
878.859	34.74
879.028	34.68
879.197	33.54
879.366	32.91
879.534	29.82
879.703	28.42
879.872	28.63
880.041	29.86
880.21	30.24
880.378	31.66
880.547	31.12
880.716	30.37
880.884	29.03
881.053	27.17
881.222	25.62
881.39	25.89
881.559	26.4
881.727	24.87
881.896	23.97
882.065	23.9
882.233	23.57
882.402	23.27
882.57	23.47
882.739	23.55
882.907	24.5
883.076	24.86
883.244	24.71
883.412	24.9
883.581	25.7
883.749	25.78
883.918	25.45
884.086	25.72
884.254	26.18
884.423	26.27
884.591	26.03
884.759	25.94
884.927	27.66
885.096	28.62
885.264	28.65
885.432	29.38
885.6	31.51
885.769	33.59
885.937	35.14
886.105	35.76
886.273	36.76
886.441	38.26
886.609	40.12
886.777	38.48
886.945	39.05
887.113	41.38
887.281	43.28
887.449	43.89
887.617	43.59
887.785	40.83
887.953	40.11
888.121	42.83
888.289	44.89
888.457	42.87
888.625	43.55
888.793	45.57
888.961	41.29
889.129	42.94
889.296	41.99
889.464	42.93
889.632	46.45
889.8	50
889.967	47.82
890.135	46.74
