Data from 2938771__Reflection_03.txt Node
Date: Fri Mar 13 15:02:53 EDT 2015
User: robert
Spectrometer: USB4E03002
Autoset integration time: false
Trigger mode: 4
Integration Time (sec): 1.000000E-1
Scans to average: 10
Electric dark correction enabled: false
Nonlinearity correction enabled: false
Boxcar width: 5
Stray light correction enabled: false
XAxis mode: Wavelengths
Stop averaging: false
Number of Pixels in Spectrum: 3648
>>>>>Begin Spectral Data<<<<<
177.575	-268.75
177.794	-709.59
178.014	-2125.93
178.233	1134.33
178.452	2194.59
178.672	514.77
178.891	537.8
179.11	4313.04
179.33	-1605.97
179.549	-772.22
179.768	-3050
179.987	1334.33
180.207	3233.33
180.426	1478.46
180.645	-2457.14
180.864	-1185.48
181.084	-277.95
181.303	-390.65
181.522	-1646.81
181.741	5300
181.96	296.83
182.179	251.99
182.398	194.48
182.618	189.13
182.837	278.97
183.056	230.75
183.275	229.34
183.494	186.46
183.713	254.34
183.932	272.14
184.151	220.97
184.37	267.05
184.589	368.54
184.808	780
185.027	277.89
185.246	237.98
185.465	204.44
185.684	219.31
185.903	189.18
186.122	127.87
186.341	118.2
186.56	126.47
186.779	218.88
186.998	179.19
187.216	212.97
187.435	643.22
187.654	253.9
187.873	201.06
188.092	212.05
188.311	450.87
188.53	398.08
188.748	1337.5
188.967	-2991.67
189.186	530.43
189.405	661.15
189.623	353.99
189.842	239.86
190.061	269.95
190.28	374.27
190.498	235.4
190.717	181
190.936	194.23
191.154	157.89
191.373	168.92
191.592	181.18
191.81	133.9
192.029	127.51
192.248	132.08
192.466	119.91
192.685	119.73
192.904	156.15
193.122	153.53
193.341	228.67
193.559	379.38
193.778	276.7
193.996	235.32
194.215	1992
194.433	537.38
194.652	389.86
194.87	737.23
195.089	10400
195.307	1753.85
195.526	-484.11
195.744	1280.85
195.963	348.63
196.181	252.48
196.399	221.6
196.618	184.13
196.836	220.07
197.055	314.94
197.273	471.43
197.491	1141.18
197.71	824.07
197.928	274.3
198.146	348.31
198.365	541.33
198.583	678.79
198.801	-144.98
199.019	-142.76
199.238	-85.3
199.456	-73.66
199.674	-131.13
199.892	-204.07
200.111	-177.66
200.329	-102.71
200.547	-109.58
200.765	-199.05
200.983	-149.38
201.202	-271.96
201.42	-745.83
201.638	1213.04
201.856	291.75
202.074	317.07
202.292	153.68
202.51	127.91
202.728	87.66
202.946	134.23
203.165	541.27
203.383	30700
203.601	314.79
203.819	164.36
204.037	195.19
204.255	223.96
204.473	163.08
204.691	296.13
204.909	131.41
205.127	218.41
205.345	130.47
205.562	65.22
205.78	88.45
205.998	87.32
206.216	109.85
206.434	100
206.652	131.6
206.87	146.99
207.088	127.9
207.306	198.41
207.523	172.14
207.741	169.17
207.959	184.93
208.177	184.09
208.395	185.65
208.612	277.36
208.83	225.27
209.048	247.74
209.266	1580
209.483	-1064.71
209.701	-840
209.919	281.25
210.136	3860
210.354	-405.56
210.572	-23.5
210.79	258.88
211.007	118.11
211.225	464.41
211.442	124.24
211.66	87.11
211.878	66.01
212.095	116.5
212.313	115.56
212.53	105.47
212.748	92.29
212.966	72.08
213.183	89.42
213.401	86.83
213.618	69.93
213.836	59.57
214.053	71.41
214.271	88.99
214.488	62.34
214.705	75.51
214.923	68
215.14	74.64
215.358	80.09
215.575	78.7
215.793	78.53
216.01	80.96
216.227	87.3
216.445	83.01
216.662	76.66
216.879	81.02
217.097	75
217.314	90.69
217.531	88.42
217.749	86.66
217.966	78.48
218.183	69.61
218.4	67.61
218.618	78.18
218.835	62.65
219.052	70.79
219.269	70.57
219.487	84.42
219.704	72.97
219.921	60.13
220.138	48.57
220.355	47.86
220.572	40.76
220.79	38.22
221.007	28.28
221.224	22.11
221.441	21.01
221.658	31.79
221.875	23.21
222.092	17.14
222.309	23.61
222.526	31.45
222.743	33.05
222.96	41.08
223.177	46.65
223.394	48.32
223.611	50.32
223.828	48.53
224.045	46.89
224.262	55.59
224.479	53.06
224.696	50.83
224.913	50.27
225.13	50.8
225.347	53.38
225.564	48.63
225.781	47.18
225.997	45.04
226.214	43.06
226.431	36.03
226.648	27.03
226.865	26.52
227.082	23.04
227.298	18.32
227.515	15.58
227.732	12.25
227.949	10.38
228.165	9.49
228.382	9.87
228.599	8.45
228.816	8.52
229.032	8.43
229.249	7.75
229.466	8.04
229.682	8.38
229.899	7.96
230.116	7.45
230.332	8.34
230.549	8.44
230.765	8.05
230.982	8.77
231.199	7.92
231.415	9.09
231.632	8.89
231.848	9.63
232.065	8.7
232.281	9.54
232.498	10.52
232.714	10.47
232.931	10.85
233.147	10.1
233.364	10.83
233.58	11.15
233.797	9.62
234.013	10.08
234.23	8.65
234.446	8.07
234.662	7.91
234.879	7.72
235.095	8.3
235.312	8.91
235.528	7.77
235.744	5.23
235.961	7.59
236.177	6.85
236.393	6.46
236.61	5.42
236.826	5.7
237.042	5.63
237.258	5.05
237.475	4.47
237.691	3.55
237.907	3.88
238.123	5.73
238.339	5.89
238.556	6.76
238.772	7.92
238.988	7.9
239.204	8.55
239.42	8.78
239.636	9.77
239.853	9.24
240.069	9.67
240.285	9.35
240.501	10.31
240.717	9.05
240.933	9.12
241.149	7.82
241.365	8.27
241.581	8.34
241.797	8.65
242.013	8.22
242.229	8.54
242.445	8.03
242.661	8.88
242.877	8.32
243.093	8.91
243.309	8.52
243.525	9.14
243.741	9.03
243.957	8.96
244.173	8.76
244.388	8.9
244.604	7.97
244.82	8.58
245.036	7.96
245.252	7.53
245.468	7.18
245.683	8.03
245.899	7.44
246.115	7.55
246.331	7.12
246.547	6.83
246.762	6.79
246.978	6.87
247.194	6.53
247.409	6.63
247.625	6.86
247.841	6.71
248.057	6.08
248.272	6.23
248.488	6.25
248.703	6.6
248.919	6.44
249.135	6.39
249.35	6.64
249.566	7.02
249.782	7.19
249.997	6.92
250.213	7.37
250.428	8.59
250.644	8.33
250.859	8.34
251.075	8.58
251.29	8.43
251.506	8.88
251.721	9.03
251.937	8.49
252.152	8.31
252.368	8.52
252.583	8.26
252.798	7.95
253.014	8.58
253.229	8.65
253.445	8.3
253.66	8.71
253.875	8.71
254.091	8.33
254.306	8.9
254.521	8.55
254.737	8.36
254.952	7.72
255.167	7.6
255.383	6.23
255.598	5.36
255.813	5.53
256.028	5.33
256.244	4.91
256.459	5.71
256.674	5.07
256.889	5.24
257.104	4.49
257.32	5.02
257.535	4.41
257.75	5.18
257.965	5.14
258.18	4.98
258.395	5.25
258.61	5.44
258.826	5.15
259.041	5.07
259.256	5.05
259.471	4.99
259.686	4.75
259.901	4.64
260.116	4.38
260.331	4.62
260.546	4.63
260.761	4.48
260.976	4.34
261.191	4.33
261.406	4.4
261.621	4.35
261.836	4.55
262.05	4.24
262.265	4.61
262.48	4.5
262.695	4.32
262.91	3.97
263.125	3.69
263.34	3.32
263.555	3.26
263.769	2.92
263.984	2.3
264.199	1.88
264.414	2.43
264.629	2.89
264.843	3.66
265.058	3.55
265.273	4.1
265.488	5.11
265.702	5.75
265.917	5.51
266.132	5.57
266.346	6.11
266.561	6.4
266.776	6.31
266.99	6.01
267.205	5.93
267.42	5.69
267.634	5.75
267.849	5.1
268.063	5.05
268.278	5.26
268.492	5.34
268.707	4.94
268.922	4.82
269.136	5.22
269.351	4.86
269.565	4.77
269.78	5.07
269.994	5.17
270.209	5.1
270.423	4.96
270.637	4.88
270.852	4.6
271.066	4.88
271.281	5.06
271.495	4.82
271.709	5.09
271.924	4.99
272.138	4.87
272.353	4.62
272.567	5
272.781	4.92
272.996	4.61
273.21	5.06
273.424	4.92
273.638	4.57
273.853	4.69
274.067	4.72
274.281	4.59
274.495	4.44
274.71	4.57
274.924	4.58
275.138	4.34
275.352	4.54
275.566	4.15
275.781	3.69
275.995	4.25
276.209	3.78
276.423	3.11
276.637	3.12
276.851	3.56
277.065	3.7
277.279	3.41
277.493	3.96
277.707	4.02
277.921	3.73
278.135	4.34
278.349	3.99
278.563	4.84
278.777	5.59
278.991	5.96
279.205	5.77
279.419	5.2
279.633	5.12
279.847	5
280.061	4.97
280.275	5.18
280.489	5.17
280.703	5.08
280.917	4.89
281.131	4.41
281.344	4
281.558	3.49
281.772	3.83
281.986	4.01
282.2	3.72
282.414	3.55
282.627	3.75
282.841	3.59
283.055	4.02
283.269	3.64
283.482	3.58
283.696	3.81
283.91	4.02
284.123	3.94
284.337	3.9
284.551	3.93
284.764	3.95
284.978	3.99
285.192	3.98
285.405	3.64
285.619	3.79
285.833	3.72
286.046	3.44
286.26	3.66
286.473	3.64
286.687	3.65
286.9	3.62
287.114	3.7
287.327	3.33
287.541	3.46
287.754	3.66
287.968	3.75
288.181	4
288.395	4.21
288.608	4.02
288.822	3.98
289.035	4.09
289.248	3.81
289.462	3.8
289.675	4.02
289.889	3.88
290.102	3.59
290.315	3.45
290.529	3.9
290.742	3.85
290.955	3.92
291.169	4.2
291.382	4.16
291.595	4.58
291.808	4.74
292.022	4.55
292.235	4.37
292.448	4.56
292.661	4.33
292.875	3.89
293.088	4.49
293.301	4.81
293.514	4.52
293.727	4.73
293.94	4.66
294.153	4.49
294.367	4.56
294.58	4.6
294.793	4.19
295.006	4.71
295.219	4.62
295.432	3.87
295.645	4.06
295.858	3.79
296.071	3.51
296.284	3.53
296.497	3.56
296.71	3.75
296.923	4.26
297.136	4.54
297.349	4.31
297.562	4.25
297.775	4.61
297.988	4.47
298.201	4.91
298.414	5.17
298.626	5.18
298.839	5.41
299.052	5.61
299.265	5.15
299.478	5.62
299.691	5.64
299.903	5.93
300.116	6.03
300.329	5.92
300.542	5.93
300.755	5.5
300.967	5.65
301.18	5.49
301.393	5.53
301.605	5.73
301.818	5.35
302.031	5.57
302.243	5.26
302.456	5.13
302.669	5.27
302.881	5.14
303.094	5.28
303.307	5.36
303.519	5.27
303.732	5.02
303.944	4.84
304.157	4.77
304.37	4.83
304.582	4.87
304.795	4.76
305.007	4.96
305.22	4.58
305.432	4.57
305.645	4.4
305.857	4.62
306.069	5.03
306.282	5.14
306.494	5.06
306.707	4.78
306.919	4.82
307.132	4.99
307.344	4.89
307.556	5.48
307.769	6.04
307.981	6.12
308.193	5.94
308.406	5.68
308.618	5.6
308.83	5.66
309.043	5.8
309.255	6
309.467	5.88
309.679	5.46
309.892	5.26
310.104	5.3
310.316	4.9
310.528	4.96
310.74	5.02
310.953	5.31
311.165	5.24
311.377	5.1
311.589	5.14
311.801	5.1
312.013	5.25
312.225	5.43
312.437	5.05
312.649	5.3
312.862	5.2
313.074	5
313.286	4.97
313.498	5.15
313.71	5.5
313.922	5.53
314.134	6.19
314.346	6.02
314.558	6.06
314.77	6.6
314.982	6.77
315.193	6.98
315.405	7.11
315.617	7.05
315.829	6.88
316.041	6.62
316.253	6.39
316.465	6.21
316.677	6.66
316.888	6.6
317.1	6.44
317.312	6.85
317.524	6.85
317.736	7.57
317.947	7.39
318.159	8.09
318.371	8.49
318.583	8.85
318.794	8.55
319.006	8.58
319.218	8.53
319.43	8.2
319.641	8.01
319.853	8.31
320.064	8.06
320.276	8.48
320.488	7.95
320.699	8.03
320.911	8.19
321.123	8.31
321.334	8.09
321.546	8.59
321.757	8.8
321.969	8.26
322.18	8.4
322.392	8.22
322.603	8.14
322.815	8.32
323.026	8.56
323.238	8.16
323.449	7.81
323.661	7.88
323.872	7.92
324.083	8.01
324.295	8.59
324.506	8.28
324.718	8.12
324.929	8.2
325.14	8.12
325.352	8.03
325.563	8.22
325.774	8.22
325.986	8.44
326.197	8.29
326.408	8.4
326.62	8.1
326.831	8.18
327.042	8.36
327.253	8.44
327.464	8.92
327.676	9.07
327.887	9.27
328.098	9.84
328.309	10.14
328.52	10.55
328.732	10.8
328.943	11.75
329.154	12.34
329.365	12.38
329.576	12.3
329.787	12.38
329.998	11.93
330.209	12.33
330.42	12.9
330.631	12.81
330.842	12.62
331.053	12.9
331.264	12.45
331.475	12.08
331.686	12.41
331.897	12.7
332.108	12.61
332.319	13.01
332.53	13.14
332.741	13.21
332.952	13.39
333.163	13.21
333.374	12.81
333.585	13.13
333.795	13.55
334.006	13.21
334.217	13.19
334.428	13.31
334.639	13.59
334.849	13.28
335.06	12.7
335.271	12.56
335.482	12.63
335.692	12.62
335.903	12.46
336.114	12.61
336.325	12.93
336.535	12.96
336.746	13
336.957	12.74
337.167	12.89
337.378	13
337.589	13.21
337.799	13.31
338.01	13.33
338.22	13.17
338.431	12.68
338.642	12.31
338.852	12.22
339.063	12.29
339.273	12.31
339.484	12.25
339.694	12.33
339.905	11.86
340.115	11.9
340.326	12.07
340.536	11.95
340.746	12.03
340.957	12.58
341.167	12.68
341.378	12.1
341.588	11.98
341.799	11.84
342.009	11.92
342.219	12.11
342.43	11.88
342.64	11.89
342.85	12.05
343.061	12.13
343.271	11.6
343.481	11.44
343.691	11.5
343.902	11.77
344.112	11.74
344.322	11.56
344.532	11.58
344.743	11.96
344.953	11.58
345.163	11.43
345.373	11.12
345.583	11.29
345.793	11.35
346.004	11.3
346.214	11.01
346.424	10.95
346.634	11.06
346.844	10.93
347.054	10.61
347.264	10.85
347.474	11.17
347.684	11.42
347.894	11.42
348.104	11.65
348.314	12.07
348.524	11.94
348.734	12.14
348.944	11.88
349.154	12.01
349.364	11.93
349.574	11.92
349.784	11.99
349.994	12.12
350.204	12.16
350.413	11.86
350.623	11.93
350.833	12.17
351.043	11.85
351.253	12.14
351.463	12.36
351.672	12.33
351.882	12.68
352.092	12.4
352.302	12.1
352.511	12.15
352.721	12.26
352.931	12.09
353.141	11.83
353.35	11.94
353.56	11.81
353.77	11.74
353.979	11.83
354.189	11.48
354.399	11.47
354.608	11.57
354.818	11.5
355.027	11.46
355.237	11.58
355.447	11.61
355.656	11.43
355.866	11.21
356.075	10.92
356.285	10.71
356.494	10.64
356.704	10.62
356.913	10.62
357.123	10.64
357.332	10.54
357.542	10.32
357.751	10.5
357.96	10.7
358.17	10.81
358.379	10.85
358.589	10.98
358.798	11.15
359.007	11.06
359.217	11.08
359.426	11.18
359.635	11.26
359.845	11.17
360.054	10.73
360.263	10.77
360.472	10.85
360.682	10.83
360.891	10.76
361.1	10.54
361.309	10.53
361.519	10.49
361.728	10.31
361.937	10.38
362.146	10.31
362.355	10.45
362.564	10.37
362.774	10.31
362.983	10.35
363.192	10.39
363.401	10.42
363.61	10.41
363.819	10.36
364.028	10.18
364.237	9.96
364.446	10.04
364.655	10.12
364.864	10.05
365.073	9.94
365.282	10.06
365.491	9.83
365.7	9.89
365.909	9.93
366.118	9.89
366.327	10.02
366.536	10.13
366.745	10.08
366.954	9.79
367.162	9.94
367.371	9.98
367.58	9.96
367.789	10.11
367.998	9.97
368.207	9.86
368.415	9.66
368.624	9.71
368.833	9.62
369.042	9.82
369.25	10.23
369.459	9.96
369.668	9.67
369.877	9.46
370.085	9.42
370.294	9.7
370.503	9.89
370.711	10.16
370.92	9.99
371.129	9.89
371.337	9.67
371.546	9.5
371.754	9.76
371.963	9.89
372.171	10.12
372.38	10.17
372.589	10.15
372.797	9.99
373.006	9.82
373.214	9.87
373.423	9.85
373.631	9.94
373.84	9.95
374.048	9.75
374.256	9.82
374.465	9.62
374.673	9.5
374.882	9.26
375.09	9.31
375.298	9.66
375.507	9.61
375.715	9.47
375.923	9.44
376.132	9.46
376.34	9.43
376.548	9.56
376.757	9.71
376.965	9.8
377.173	9.72
377.381	9.74
377.59	9.49
377.798	9.5
378.006	9.6
378.214	9.54
378.423	9.53
378.631	9.65
378.839	9.43
379.047	9.21
379.255	9.29
379.463	9.38
379.671	9.33
379.879	9.3
380.088	9.46
380.296	9.5
380.504	9.46
380.712	9.48
380.92	9.24
381.128	9.33
381.336	9.27
381.544	9.36
381.752	9.21
381.96	9.19
382.168	9.38
382.376	9.4
382.584	9.42
382.791	9.32
382.999	9.35
383.207	9.63
383.415	9.64
383.623	9.69
383.831	9.61
384.039	9.8
384.247	9.66
384.454	9.49
384.662	9.47
384.87	9.24
385.078	9.17
385.285	9.05
385.493	8.85
385.701	8.85
385.909	8.8
386.116	8.57
386.324	8.53
386.532	8.66
386.739	8.66
386.947	8.53
387.155	8.73
387.362	8.94
387.57	8.96
387.778	9.25
387.985	9.12
388.193	9.35
388.4	9.56
388.608	9.63
388.816	9.68
389.023	9.71
389.231	9.68
389.438	9.54
389.646	9.36
389.853	9.34
390.061	9.2
390.268	9.16
390.475	8.76
390.683	8.52
390.89	8.36
391.098	8.22
391.305	8.07
391.512	8.08
391.72	8.12
391.927	8.2
392.135	8.19
392.342	8.14
392.549	8.29
392.756	8.37
392.964	8.46
393.171	8.41
393.378	8.32
393.586	8.48
393.793	8.53
394	8.53
394.207	8.63
394.414	8.53
394.622	8.43
394.829	8.36
395.036	8.4
395.243	8.31
395.45	8.2
395.657	8.28
395.864	8.18
396.072	8.13
396.279	8.2
396.486	7.84
396.693	8.04
396.9	8.1
397.107	7.93
397.314	7.88
397.521	7.96
397.728	8.17
397.935	8.17
398.142	8.2
398.349	8.23
398.556	8.07
398.763	8.22
398.97	7.93
399.177	7.89
399.383	7.9
399.59	7.99
399.797	7.91
400.004	7.85
400.211	7.95
400.418	7.86
400.625	7.87
400.831	7.96
401.038	8.19
401.245	8.54
401.452	8.64
401.658	8.58
401.865	8.51
402.072	8.61
402.279	8.42
402.485	8.18
402.692	8.1
402.899	8.02
403.105	7.95
403.312	7.74
403.519	7.4
403.725	7.27
403.932	7.35
404.138	7.53
404.345	7.49
404.552	7.66
404.758	7.66
404.965	7.7
405.171	7.6
405.378	7.64
405.584	7.57
405.791	7.8
405.997	7.74
406.204	7.7
406.41	7.61
406.617	7.65
406.823	7.79
407.029	7.95
407.236	7.88
407.442	7.92
407.649	7.91
407.855	8.02
408.061	7.94
408.268	7.95
408.474	7.98
408.68	7.75
408.887	7.73
409.093	7.53
409.299	7.53
409.505	7.57
409.712	7.56
409.918	7.49
410.124	7.57
410.33	7.7
410.537	7.85
410.743	7.87
410.949	7.99
411.155	7.87
411.361	7.87
411.567	7.77
411.773	7.85
411.98	7.83
412.186	7.73
412.392	7.6
412.598	7.41
412.804	7.24
413.01	7.06
413.216	7.01
413.422	7.1
413.628	7.14
413.834	7.16
414.04	7.1
414.246	7.2
414.452	7.42
414.658	7.56
414.864	7.5
415.07	7.47
415.275	7.63
415.481	7.56
415.687	7.51
415.893	7.47
416.099	7.42
416.305	7.4
416.511	7.31
416.716	7.18
416.922	7.1
417.128	7.16
417.334	7.18
417.539	7.04
417.745	7.09
417.951	7.03
418.157	6.98
418.362	6.98
418.568	6.98
418.774	6.91
418.979	6.98
419.185	6.99
419.391	6.91
419.596	6.95
419.802	6.97
420.008	6.94
420.213	6.97
420.419	6.97
420.624	6.92
420.83	6.95
421.035	6.98
421.241	6.87
421.446	6.84
421.652	6.85
421.857	6.77
422.063	6.82
422.268	6.79
422.474	6.74
422.679	6.69
422.885	6.7
423.09	6.66
423.295	6.66
423.501	6.73
423.706	6.71
423.911	6.71
424.117	6.8
424.322	6.79
424.527	6.75
424.733	6.76
424.938	6.78
425.143	6.89
425.349	6.86
425.554	6.9
425.759	6.81
425.964	6.87
426.169	6.92
426.375	6.86
426.58	6.91
426.785	6.9
426.99	6.92
427.195	7.05
427.4	6.97
427.605	7.03
427.811	7.01
428.016	7.08
428.221	6.95
428.426	6.95
428.631	7
428.836	6.9
429.041	6.97
429.246	6.99
429.451	6.86
429.656	6.85
429.861	6.84
430.066	6.82
430.271	6.78
430.476	6.81
430.681	6.78
430.886	6.64
431.09	6.7
431.295	6.91
431.5	6.93
431.705	6.97
431.91	6.89
432.115	6.85
432.32	6.96
432.524	6.98
432.729	7.06
432.934	7.04
433.139	7.02
433.343	6.94
433.548	6.8
433.753	6.87
433.958	6.87
434.162	6.89
434.367	6.95
434.572	6.84
434.776	6.79
434.981	6.77
435.186	6.77
435.39	6.91
435.595	6.97
435.799	6.97
436.004	6.92
436.209	6.88
436.413	7.02
436.618	7.04
436.822	6.95
437.027	7.03
437.231	6.99
437.436	7.1
437.64	7.11
437.845	7.12
438.049	7.2
438.253	7.15
438.458	7.16
438.662	7.03
438.867	6.97
439.071	7.01
439.275	7
439.48	6.96
439.684	6.88
439.888	6.81
440.093	6.7
440.297	6.6
440.501	6.66
440.706	6.65
440.91	6.66
441.114	6.74
441.318	6.76
441.523	6.78
441.727	6.86
441.931	6.83
442.135	6.84
442.339	6.93
442.543	6.96
442.748	6.88
442.952	6.91
443.156	6.88
443.36	6.87
443.564	6.89
443.768	6.92
443.972	6.78
444.176	6.81
444.38	6.86
444.584	6.87
444.788	6.94
444.992	6.96
445.196	6.85
445.4	6.93
445.604	6.83
445.808	6.83
446.012	6.73
446.216	6.87
446.42	6.85
446.624	6.73
446.828	6.75
447.032	6.63
447.235	6.61
447.439	6.64
447.643	6.59
447.847	6.64
448.051	6.63
448.254	6.64
448.458	6.54
448.662	6.53
448.866	6.6
449.069	6.59
449.273	6.67
449.477	6.74
449.681	6.79
449.884	6.86
450.088	6.9
450.292	6.93
450.495	6.97
450.699	7
450.902	7.08
451.106	7.04
451.31	7.08
451.513	7.08
451.717	6.94
451.92	6.87
452.124	6.78
452.327	6.68
452.531	6.72
452.734	6.7
452.938	6.73
453.141	6.73
453.345	6.82
453.548	6.78
453.752	6.77
453.955	6.82
454.158	6.96
454.362	7.07
454.565	7.09
454.769	6.97
454.972	6.99
455.175	6.97
455.379	7
455.582	7.02
455.785	6.95
455.988	6.99
456.192	7.03
456.395	6.87
456.598	6.85
456.801	6.85
457.005	6.99
457.208	6.92
457.411	6.91
457.614	6.67
457.817	6.46
458.021	6.43
458.224	6.41
458.427	6.39
458.63	6.35
458.833	6.25
459.036	6.18
459.239	6.17
459.442	6.18
459.645	6.21
459.848	6.29
460.051	6.4
460.254	6.45
460.457	6.44
460.66	6.42
460.863	6.57
461.066	6.67
461.269	6.81
461.472	6.77
461.675	6.82
461.878	6.75
462.081	6.75
462.284	6.8
462.486	6.82
462.689	6.91
462.892	6.9
463.095	6.9
463.298	6.89
463.5	6.84
463.703	6.89
463.906	6.94
464.109	6.96
464.311	6.96
464.514	6.95
464.717	6.85
464.92	6.8
465.122	6.93
465.325	6.87
465.528	6.82
465.73	6.69
465.933	6.74
466.135	6.69
466.338	6.73
466.541	6.79
466.743	6.81
466.946	6.89
467.148	6.85
467.351	6.72
467.553	6.75
467.756	6.78
467.958	6.99
468.161	6.93
468.363	6.91
468.566	6.88
468.768	6.89
468.971	6.86
469.173	6.89
469.375	7.01
469.578	7.05
469.78	6.98
469.983	7.02
470.185	6.92
470.387	6.86
470.59	6.93
470.792	6.9
470.994	6.88
471.196	6.8
471.399	6.81
471.601	6.71
471.803	6.73
472.005	6.83
472.208	6.8
472.41	6.81
472.612	6.92
472.814	6.76
473.016	6.81
473.218	6.86
473.421	6.83
473.623	6.77
473.825	6.75
474.027	6.83
474.229	6.79
474.431	6.72
474.633	6.74
474.835	6.68
475.037	6.88
475.239	6.93
475.441	6.88
475.643	6.98
475.845	6.99
476.047	6.95
476.249	6.91
476.451	6.94
476.653	6.97
476.855	6.88
477.057	6.87
477.258	6.87
477.46	6.84
477.662	6.89
477.864	6.8
478.066	6.75
478.268	6.76
478.469	6.78
478.671	6.73
478.873	6.76
479.075	6.77
479.276	6.82
479.478	6.79
479.68	6.81
479.882	6.75
480.083	6.8
480.285	6.86
480.487	6.89
480.688	6.82
480.89	6.82
481.091	6.72
481.293	6.74
481.495	6.68
481.696	6.6
481.898	6.58
482.099	6.53
482.301	6.49
482.502	6.46
482.704	6.41
482.905	6.42
483.107	6.38
483.308	6.35
483.51	6.35
483.711	6.32
483.913	6.31
484.114	6.28
484.315	6.27
484.517	6.28
484.718	6.26
484.92	6.27
485.121	6.24
485.322	6.29
485.524	6.32
485.725	6.29
485.926	6.31
486.127	6.32
486.329	6.31
486.53	6.35
486.731	6.36
486.932	6.36
487.134	6.37
487.335	6.38
487.536	6.37
487.737	6.36
487.938	6.38
488.139	6.4
488.341	6.43
488.542	6.47
488.743	6.48
488.944	6.52
489.145	6.56
489.346	6.56
489.547	6.6
489.748	6.64
489.949	6.65
490.15	6.64
490.351	6.61
490.552	6.56
490.753	6.57
490.954	6.54
491.155	6.49
491.356	6.46
491.557	6.48
491.758	6.43
491.959	6.38
492.159	6.45
492.36	6.46
492.561	6.54
492.762	6.61
492.963	6.58
493.164	6.61
493.364	6.6
493.565	6.63
493.766	6.61
493.967	6.67
494.167	6.68
494.368	6.64
494.569	6.74
494.769	6.72
494.97	6.74
495.171	6.79
495.371	6.78
495.572	6.93
495.773	7.03
495.973	7.06
496.174	7.05
496.375	7.07
496.575	7.16
496.776	7.09
496.976	7.06
497.177	6.98
497.377	7.03
497.578	7.12
497.778	7.12
497.979	7.03
498.179	7.03
498.38	7.04
498.58	7.02
498.78	6.97
498.981	7.02
499.181	6.98
499.382	7.07
499.582	7.02
499.782	6.97
499.983	6.9
500.183	6.99
500.383	6.95
500.584	6.97
500.784	6.98
500.984	7.05
501.184	7.07
501.385	7.12
501.585	7.1
501.785	7.15
501.985	7.1
502.185	7.12
502.386	7.3
502.586	7.34
502.786	7.34
502.986	7.38
503.186	7.35
503.386	7.3
503.586	7.37
503.786	7.43
503.987	7.47
504.187	7.53
504.387	7.49
504.587	7.36
504.787	7.49
504.987	7.59
505.187	7.68
505.387	7.72
505.587	7.75
505.786	7.73
505.986	7.69
506.186	7.7
506.386	7.7
506.586	7.77
506.786	7.76
506.986	7.83
507.186	7.76
507.386	7.78
507.585	7.7
507.785	7.64
507.985	7.76
508.185	7.75
508.384	7.77
508.584	7.77
508.784	7.75
508.984	7.76
509.183	7.68
509.383	7.72
509.583	7.72
509.782	7.74
509.982	7.78
510.182	7.76
510.381	7.93
510.581	7.91
510.781	7.99
510.98	8.05
511.18	8.08
511.379	8.08
511.579	8.04
511.778	8.07
511.978	8.12
512.177	8.16
512.377	8.15
512.576	8.09
512.776	8.17
512.975	8.15
513.175	8.24
513.374	8.17
513.573	8.25
513.773	8.32
513.972	8.31
514.172	8.36
514.371	8.47
514.57	8.48
514.77	8.4
514.969	8.36
515.168	8.53
515.367	8.43
515.567	8.67
515.766	8.58
515.965	8.58
516.164	8.59
516.364	8.59
516.563	8.5
516.762	8.52
516.961	8.6
517.16	8.64
517.359	8.59
517.559	8.67
517.758	8.6
517.957	8.68
518.156	8.73
518.355	8.72
518.554	8.75
518.753	8.85
518.952	8.9
519.151	8.89
519.35	8.87
519.549	8.82
519.748	8.81
519.947	8.77
520.146	8.78
520.345	8.73
520.544	8.79
520.743	8.81
520.942	8.85
521.141	8.9
521.339	9
521.538	9.11
521.737	9.2
521.936	9.26
522.135	9.32
522.333	9.39
522.532	9.48
522.731	9.48
522.93	9.46
523.129	9.39
523.327	9.41
523.526	9.4
523.725	9.41
523.923	9.44
524.122	9.42
524.321	9.46
524.519	9.38
524.718	9.34
524.917	9.38
525.115	9.39
525.314	9.42
525.512	9.35
525.711	9.38
525.909	9.37
526.108	9.35
526.306	9.36
526.505	9.42
526.703	9.44
526.902	9.47
527.1	9.41
527.299	9.47
527.497	9.49
527.696	9.48
527.894	9.44
528.092	9.42
528.291	9.4
528.489	9.39
528.688	9.35
528.886	9.4
529.084	9.39
529.283	9.45
529.481	9.43
529.679	9.45
529.877	9.49
530.076	9.54
530.274	9.58
530.472	9.64
530.67	9.73
530.869	9.77
531.067	9.79
531.265	9.85
531.463	9.87
531.661	9.9
531.859	9.88
532.057	9.83
532.255	9.87
532.454	9.9
532.652	9.9
532.85	9.86
533.048	9.84
533.246	9.84
533.444	9.86
533.642	9.87
533.84	9.85
534.038	9.93
534.236	10.01
534.434	10
534.632	10
534.83	10.03
535.027	10.05
535.225	10.11
535.423	10.22
535.621	10.26
535.819	10.32
536.017	10.31
536.215	10.29
536.412	10.34
536.61	10.38
536.808	10.45
537.006	10.5
537.203	10.57
537.401	10.61
537.599	10.59
537.797	10.58
537.994	10.58
538.192	10.74
538.39	10.85
538.587	10.91
538.785	10.97
538.983	10.95
539.18	10.99
539.378	11.05
539.575	11.06
539.773	11.1
539.97	11.11
540.168	11.18
540.366	11.2
540.563	11.19
540.761	11.17
540.958	11.18
541.155	11.18
541.353	11.17
541.55	11.2
541.748	11.21
541.945	11.21
542.143	11.26
542.34	11.22
542.537	11.29
542.735	11.32
542.932	11.39
543.129	11.44
543.327	11.53
543.524	11.56
543.721	11.62
543.919	11.73
544.116	11.87
544.313	12.01
544.51	12.15
544.708	12.18
544.905	12.3
545.102	12.37
545.299	12.49
545.496	12.59
545.693	12.74
545.891	12.74
546.088	12.73
546.285	12.65
546.482	12.6
546.679	12.56
546.876	12.61
547.073	12.51
547.27	12.5
547.467	12.4
547.664	12.37
547.861	12.31
548.058	12.41
548.255	12.48
548.452	12.55
548.649	12.52
548.846	12.57
549.043	12.5
549.24	12.52
549.437	12.58
549.633	12.58
549.83	12.57
550.027	12.65
550.224	12.69
550.421	12.64
550.618	12.66
550.814	12.77
551.011	12.78
551.208	12.81
551.405	12.78
551.601	12.74
551.798	12.83
551.995	12.87
552.191	12.86
552.388	12.76
552.585	12.88
552.781	12.81
552.978	12.71
553.175	12.73
553.371	12.76
553.568	12.83
553.764	12.92
553.961	12.89
554.157	12.89
554.354	12.83
554.55	12.91
554.747	12.79
554.943	12.85
555.14	12.99
555.336	12.96
555.533	13.06
555.729	13.14
555.926	13.09
556.122	13.14
556.318	13.23
556.515	13.32
556.711	13.34
556.907	13.32
557.104	13.34
557.3	13.31
557.496	13.34
557.693	13.16
557.889	13.14
558.085	13.17
558.281	13.16
558.478	13.1
558.674	13.07
558.87	13.04
559.066	13.17
559.262	13.21
559.459	13.18
559.655	13.2
559.851	13.29
560.047	13.36
560.243	13.31
560.439	13.34
560.635	13.35
560.831	13.44
561.027	13.6
561.223	13.57
561.419	13.53
561.615	13.64
561.811	13.76
562.007	13.85
562.203	13.92
562.399	13.99
562.595	14.07
562.791	14.12
562.987	14.14
563.183	14.02
563.379	14.09
563.575	14.17
563.771	14.22
563.966	14.17
564.162	14.15
564.358	14
564.554	13.94
564.75	13.88
564.945	13.94
565.141	13.89
565.337	13.93
565.533	13.96
565.728	13.98
565.924	14.05
566.12	14.17
566.315	14.26
566.511	14.37
566.707	14.44
566.902	14.5
567.098	14.47
567.293	14.52
567.489	14.57
567.684	14.48
567.88	14.53
568.076	14.38
568.271	14.41
568.467	14.31
568.662	14.3
568.858	14.28
569.053	14.3
569.248	14.25
569.444	14.36
569.639	14.41
569.835	14.46
570.03	14.55
570.225	14.64
570.421	14.45
570.616	14.53
570.812	14.55
571.007	14.58
571.202	14.56
571.397	14.61
571.593	14.49
571.788	14.46
571.983	14.43
572.178	14.36
572.374	14.43
572.569	14.49
572.764	14.53
572.959	14.42
573.154	14.4
573.35	14.46
573.545	14.54
573.74	14.6
573.935	14.58
574.13	14.54
574.325	14.49
574.52	14.45
574.715	14.44
574.91	14.39
575.105	14.51
575.3	14.63
575.495	14.65
575.69	14.64
575.885	14.72
576.08	14.78
576.275	14.92
576.47	15.01
576.665	15.06
576.86	15.18
577.055	15.22
577.25	15.32
577.444	15.34
577.639	15.37
577.834	15.38
578.029	15.38
578.224	15.44
578.418	15.54
578.613	15.65
578.808	15.55
579.003	15.59
579.197	15.6
579.392	15.48
579.587	15.41
579.781	15.42
579.976	15.47
580.171	15.45
580.365	15.31
580.56	15.24
580.755	15.09
580.949	15.24
581.144	15.19
581.338	15.27
581.533	15.32
581.727	15.43
581.922	15.45
582.116	15.43
582.311	15.46
582.505	15.63
582.7	15.63
582.894	15.73
583.089	15.69
583.283	15.74
583.478	15.81
583.672	16.01
583.866	15.96
584.061	15.99
584.255	16.01
584.449	15.95
584.644	15.98
584.838	16.17
585.032	16.31
585.226	16.43
585.421	16.43
585.615	16.38
585.809	16.41
586.003	16.41
586.198	16.42
586.392	16.53
586.586	16.65
586.78	16.7
586.974	16.62
587.168	16.45
587.363	16.34
587.557	16.42
587.751	16.36
587.945	16.22
588.139	16.26
588.333	16.37
588.527	16.33
588.721	16.26
588.915	16.08
589.109	15.9
589.303	15.97
589.497	16.02
589.691	15.99
589.885	16.07
590.079	16.18
590.273	16.17
590.466	16.05
590.66	16.09
590.854	16.09
591.048	16.16
591.242	16.28
591.436	16.33
591.629	16.4
591.823	16.37
592.017	16.36
592.211	16.35
592.404	16.47
592.598	16.52
592.792	16.56
592.986	16.57
593.179	16.72
593.373	16.78
593.567	16.76
593.76	16.75
593.954	16.82
594.147	16.91
594.341	16.84
594.535	16.79
594.728	16.68
594.922	16.64
595.115	16.69
595.309	16.62
595.502	16.49
595.696	16.41
595.889	16.34
596.083	16.31
596.276	16.17
596.47	16.28
596.663	16.16
596.856	16.2
597.05	16.16
597.243	16.13
597.437	16.16
597.63	16.22
597.823	16.33
598.017	16.38
598.21	16.4
598.403	16.48
598.596	16.37
598.79	16.53
598.983	16.65
599.176	16.66
599.369	16.83
599.563	16.75
599.756	16.87
599.949	16.75
600.142	16.73
600.335	16.88
600.528	17.06
600.722	17.14
600.915	17.09
601.108	17.08
601.301	17.23
601.494	17.04
601.687	17.12
601.88	17.03
602.073	17.12
602.266	17.16
602.459	16.98
602.652	16.72
602.845	16.59
603.038	16.53
603.231	16.37
603.424	16.24
603.617	16.31
603.809	16.26
604.002	16.27
604.195	16.34
604.388	16.29
604.581	16.32
604.774	16.42
604.966	16.46
605.159	16.59
605.352	16.73
605.545	16.72
605.737	16.81
605.93	16.86
606.123	16.98
606.316	16.89
606.508	17
606.701	16.91
606.894	16.99
607.086	17.08
607.279	17.15
607.471	17.23
607.664	17.52
607.857	17.71
608.049	17.77
608.242	17.85
608.434	18.09
608.627	18.33
608.819	18.8
609.012	19.21
609.204	19.67
609.397	19.99
609.589	20.56
609.782	21.07
609.974	21.54
610.166	22.17
610.359	22.76
610.551	23.16
610.743	23.61
610.936	24.03
611.128	24.41
611.32	24.63
611.513	24.88
611.705	24.93
611.897	24.81
612.09	24.6
612.282	24.38
612.474	24.14
612.666	24.09
612.858	23.97
613.051	23.63
613.243	23.23
613.435	22.98
613.627	22.65
613.819	22.23
614.011	21.87
614.203	21.69
614.395	21.66
614.588	21.38
614.78	21.14
614.972	20.77
615.164	20.49
615.356	20.32
615.548	20.03
615.74	20
615.932	20.13
616.124	20.15
616.315	19.97
616.507	19.56
616.699	19.47
616.891	19.19
617.083	19.01
617.275	19.07
617.467	19.11
617.659	19.26
617.85	19.2
618.042	19.01
618.234	19.02
618.426	19.1
618.618	19.21
618.809	19.36
619.001	19.7
619.193	19.76
619.384	19.65
619.576	19.26
619.768	19.13
619.959	19.17
620.151	18.88
620.343	18.87
620.534	18.78
620.726	18.9
620.917	18.6
621.109	18.42
621.301	18.6
621.492	18.66
621.684	18.87
621.875	18.85
622.067	18.61
622.258	18.78
622.45	18.73
622.641	18.56
622.832	18.69
623.024	18.86
623.215	18.91
623.407	18.75
623.598	18.73
623.789	18.74
623.981	18.76
624.172	18.83
624.363	18.88
624.555	18.72
624.746	18.95
624.937	18.74
625.129	18.78
625.32	18.79
625.511	18.85
625.702	18.85
625.893	18.98
626.085	18.93
626.276	18.93
626.467	18.83
626.658	19
626.849	18.91
627.04	18.81
627.231	18.85
627.422	18.76
627.614	18.74
627.805	18.77
627.996	18.68
628.187	18.79
628.378	18.86
628.569	19.06
628.76	18.89
628.951	18.97
629.142	19.13
629.332	19.26
629.523	19.3
629.714	19.42
629.905	19.27
630.096	19.43
630.287	19.36
630.478	19.37
630.669	19.2
630.859	19.52
631.05	19.49
631.241	19.57
631.432	19.39
631.623	19.46
631.813	19.38
632.004	19.47
632.195	19.23
632.385	19.11
632.576	18.97
632.767	19.12
632.957	18.97
633.148	18.85
633.339	18.67
633.529	18.56
633.72	18.41
633.91	18.44
634.101	18.35
634.292	18.31
634.482	18.41
634.673	18.47
634.863	18.31
635.054	18.16
635.244	18.21
635.435	18.13
635.625	18.21
635.815	18.17
636.006	18.03
636.196	18.01
636.387	18.04
636.577	18.06
636.767	18.04
636.958	18.07
637.148	18.14
637.338	18.14
637.529	18.25
637.719	18.25
637.909	18.36
638.099	18.5
638.29	18.56
638.48	18.55
638.67	18.49
638.86	18.61
639.05	18.7
639.241	18.68
639.431	18.88
639.621	18.98
639.811	18.9
640.001	19.2
640.191	19.12
640.381	19.35
640.571	19.57
640.761	19.48
640.951	19.22
641.141	19.23
641.331	19.25
641.521	19.16
641.711	19.26
641.901	19.28
642.091	18.94
642.281	18.77
642.471	18.54
642.661	18.6
642.851	18.59
643.041	18.82
643.231	18.79
643.42	18.91
643.61	18.82
643.8	18.78
643.99	18.84
644.18	18.86
644.369	18.98
644.559	19.22
644.749	19.05
644.939	19.1
645.128	19.09
645.318	19.06
645.508	19.04
645.697	19.1
645.887	18.82
646.076	18.92
646.266	18.95
646.456	19.03
646.645	19.07
646.835	19.18
647.024	19.26
647.214	19.14
647.403	19.06
647.593	19.13
647.782	18.99
647.972	19.35
648.161	19.31
648.351	19.27
648.54	19.35
648.73	19.19
648.919	19.2
649.108	18.95
649.298	19.14
649.487	19.43
649.677	19.42
649.866	19.46
650.055	19.41
650.244	19.27
650.434	19.41
650.623	19.28
650.812	19.24
651.002	19.05
651.191	19.34
651.38	19.28
651.569	19.28
651.758	19.09
651.947	19.31
652.137	19.09
652.326	19.05
652.515	18.67
652.704	18.72
652.893	18.81
653.082	18.96
653.271	18.97
653.46	18.95
653.649	18.72
653.838	18.93
654.027	18.67
654.216	18.7
654.405	18.86
654.594	19.04
654.783	19.06
654.972	19.15
655.161	19.14
655.35	19.07
655.539	19.18
655.728	19.14
655.916	19.11
656.105	19.04
656.294	19.21
656.483	19.24
656.672	19.31
656.86	19.05
657.049	18.93
657.238	18.95
657.427	18.96
657.615	18.8
657.804	18.92
657.993	18.71
658.181	18.71
658.37	18.6
658.559	18.48
658.747	18.61
658.936	18.89
659.125	18.91
659.313	18.9
659.502	18.92
659.69	18.91
659.879	18.98
660.067	19.13
660.256	19.23
660.444	19.32
660.633	19.49
660.821	19.49
661.01	19.39
661.198	19.29
661.387	19.35
661.575	19.19
661.763	19.29
661.952	19.41
662.14	19.55
662.328	19.71
662.517	19.66
662.705	19.6
662.893	19.66
663.082	19.67
663.27	19.73
663.458	19.8
663.646	20.2
663.834	20.18
664.023	20
664.211	19.91
664.399	19.79
664.587	19.79
664.775	19.91
664.963	19.88
665.152	19.88
665.34	19.91
665.528	19.75
665.716	19.75
665.904	19.94
666.092	19.78
666.28	19.9
666.468	19.92
666.656	20.14
666.844	20.1
667.032	19.99
667.22	20.01
667.408	20.15
667.596	20.17
667.784	19.85
667.971	19.9
668.159	19.93
668.347	19.56
668.535	19.66
668.723	19.47
668.911	19.35
669.098	19.52
669.286	19.42
669.474	19.62
669.662	19.72
669.849	19.86
670.037	19.71
670.225	19.91
670.413	20.16
670.6	20.18
670.788	20.15
670.976	20.19
671.163	20.38
671.351	20.53
671.538	20.25
671.726	20.39
671.913	20.35
672.101	20.52
672.289	20.41
672.476	20.33
672.664	20.51
672.851	20.63
673.039	20.88
673.226	20.7
673.413	20.61
673.601	20.57
673.788	20.38
673.976	20.42
674.163	20.36
674.35	20.64
674.538	20.96
674.725	20.8
674.912	20.62
675.1	20.32
675.287	20.34
675.474	20.16
675.662	20.28
675.849	20.12
676.036	20.13
676.223	20.14
676.411	19.79
676.598	19.66
676.785	19.64
676.972	19.87
677.159	19.93
677.346	19.99
677.533	20.22
677.721	20.13
677.908	20.22
678.095	20.29
678.282	20.4
678.469	20.18
678.656	19.97
678.843	20.13
679.03	20.07
679.217	19.85
679.404	19.69
679.591	19.7
679.778	19.75
679.964	19.73
680.151	19.63
680.338	19.38
680.525	19.48
680.712	19.52
680.899	19.57
681.086	19.53
681.272	19.69
681.459	19.73
681.646	19.69
681.833	19.63
682.02	19.72
682.206	19.74
682.393	19.82
682.58	19.8
682.766	19.73
682.953	19.32
683.14	19.4
683.326	19.54
683.513	19.57
683.7	19.82
683.886	19.86
684.073	20.23
684.259	20.31
684.446	20.38
684.632	20.73
684.819	20.87
685.005	21.13
685.192	21.2
685.378	21.21
685.565	21.47
685.751	21.26
685.938	21.17
686.124	20.92
686.31	20.6
686.497	20.62
686.683	20.4
686.87	20.6
687.056	20.43
687.242	20.11
687.429	20.23
687.615	19.97
687.801	19.76
687.987	19.99
688.174	20.03
688.36	20.4
688.546	20.24
688.732	20.36
688.918	20.19
689.105	20.05
689.291	20.39
689.477	20.26
689.663	20.4
689.849	20.61
690.035	20.43
690.221	20.44
690.407	20.06
690.593	20.3
690.779	20.37
690.965	20.47
691.151	20.98
691.337	21.02
691.523	20.93
691.709	20.71
691.895	20.72
692.081	20.7
692.267	20.91
692.453	21.1
692.639	20.73
692.825	20.95
693.011	20.98
693.196	20.87
693.382	20.54
693.568	20.71
693.754	20.75
693.94	20.87
694.125	20.85
694.311	20.28
694.497	20.21
694.682	20.33
694.868	20.06
695.054	19.99
695.239	20.11
695.425	20.36
695.611	20.33
695.796	20.34
695.982	20.12
696.168	20.24
696.353	20.47
696.539	20.43
696.724	20.76
696.91	20.56
697.095	20.51
697.281	20.51
697.466	20.76
697.652	20.65
697.837	20.63
698.023	20.61
698.208	20.38
698.393	20.24
698.579	20.39
698.764	20.26
698.949	20.19
699.135	20.16
699.32	20.07
699.505	19.81
699.691	19.81
699.876	19.85
700.061	19.91
700.246	20.1
700.432	20.33
700.617	20.18
700.802	20.13
700.987	20.49
701.172	20.43
701.358	20.37
701.543	20.35
701.728	20.64
701.913	20.5
702.098	20.72
702.283	20.78
702.468	20.57
702.653	20.9
702.838	21.3
703.023	21.57
703.208	21.88
703.393	21.85
703.578	21.73
703.763	21.54
703.948	21.81
704.133	21.89
704.318	22.42
704.503	22.75
704.688	22.87
704.873	23.06
705.057	22.77
705.242	22.92
705.427	22.86
705.612	23.05
705.797	23.52
705.981	23.87
706.166	23.97
706.351	23.84
706.536	24
706.72	24.06
706.905	23.92
707.09	23.87
707.274	23.62
707.459	23.8
707.644	23.96
707.828	23.77
708.013	23.77
708.197	23.57
708.382	23.46
708.567	23.03
708.751	22.94
708.936	22.78
709.12	23.02
709.305	23.04
709.489	23.27
709.673	23.33
709.858	23.16
710.042	23.11
710.227	23.24
710.411	23.3
710.596	23.09
710.78	23.05
710.964	22.87
711.149	22.87
711.333	23.24
711.517	22.78
711.702	22.83
711.886	23
712.07	22.78
712.254	22.82
712.438	22.56
712.623	22.98
712.807	23.21
712.991	23.46
713.175	23.55
713.359	23.17
713.544	23.53
713.728	23.45
713.912	23.33
714.096	23.21
714.28	23
714.464	23.41
714.648	23.27
714.832	22.87
715.016	22.23
715.2	21.78
715.384	21.88
715.568	21.58
715.752	21.01
715.936	20.61
716.12	20.69
716.304	20.48
716.488	20.03
716.671	19.98
716.855	19.94
717.039	20.09
717.223	20.37
717.407	20.65
717.59	20.61
717.774	20.99
717.958	20.93
718.142	20.84
718.325	21.19
718.509	21.32
718.693	21.11
718.877	21.13
719.06	21.79
719.244	21.52
719.428	21.52
719.611	21.8
719.795	21.89
719.978	21.86
720.162	22.14
720.345	22.04
720.529	22.05
720.713	22.56
720.896	22.6
721.08	22.45
721.263	22.79
721.446	22.46
721.63	22.3
721.813	22.52
721.997	23.34
722.18	23.16
722.364	23.33
722.547	23.57
722.73	23.43
722.914	24.03
723.097	24.03
723.28	23.46
723.464	23.33
723.647	23.39
723.83	22.98
724.013	22.63
724.197	22.84
724.38	22.98
724.563	23.09
724.746	22.89
724.929	22.37
725.112	22.32
725.296	22.54
725.479	22.46
725.662	22.49
725.845	22.8
726.028	22.77
726.211	22.74
726.394	22.64
726.577	22.19
726.76	22.35
726.943	22.45
727.126	22.08
727.309	22.63
727.492	22.57
727.675	22.32
727.858	22.12
728.041	21.94
728.224	21.67
728.407	21.7
728.589	22.14
728.772	21.99
728.955	21.98
729.138	21.86
729.321	21.05
729.503	21.47
729.686	21.66
729.869	21.99
730.052	22.08
730.234	22.1
730.417	21.66
730.6	21.07
730.782	20.89
730.965	20.42
731.148	20.81
731.33	20.98
731.513	20.71
731.695	21.15
731.878	20.82
732.061	21.19
732.243	21.74
732.426	21.92
732.608	22.15
732.791	22.85
732.973	23.15
733.156	23.22
733.338	23.29
733.52	23.51
733.703	23.07
733.885	23.41
734.068	23.08
734.25	22.83
734.432	23.15
734.615	22.99
734.797	22.66
734.979	22.67
735.162	22.4
735.344	22.85
735.526	23.16
735.708	23.58
735.891	23.01
736.073	23.15
736.255	22.43
736.437	22.2
736.619	22.13
736.802	22.27
736.984	22.52
737.166	23.25
737.348	23.26
737.53	22.78
737.712	22.55
737.894	23.16
738.076	22.73
738.258	22.8
738.44	22.76
738.622	23.13
738.804	23.18
738.986	22.94
739.168	22.2
739.35	21.86
739.532	21.75
739.714	21.84
739.896	21.52
740.078	21.97
740.259	22.26
740.441	22.03
740.623	21.56
740.805	21.36
740.987	21.45
741.168	21.87
741.35	22.09
741.532	22.64
741.714	22.86
741.895	23.16
742.077	23.75
742.259	23.96
742.44	24.4
742.622	24.93
742.804	25.33
742.985	25.5
743.167	25.11
743.348	24.91
743.53	24.22
743.711	23.55
743.893	23.82
744.075	23.17
744.256	23.55
744.438	23.59
744.619	23.53
744.8	23.17
744.982	22.52
745.163	23.41
745.345	23.99
745.526	24.41
745.707	24.5
745.889	24.25
746.07	24.51
746.252	23.42
746.433	23.09
746.614	23.7
746.795	23.91
746.977	24.93
747.158	24.31
747.339	24.55
747.52	24.7
747.702	25.23
747.883	25.11
748.064	24.99
748.245	25.52
748.426	25.04
748.607	23.99
748.788	23.85
748.97	23.5
749.151	23.5
749.332	23.39
749.513	23.38
749.694	23.02
749.875	22.87
750.056	22.41
750.237	23.34
750.418	24.41
750.599	24.45
750.78	23.86
750.96	23.41
751.141	23.24
751.322	22.94
751.503	22.95
751.684	22.46
751.865	22.97
752.046	22.7
752.226	21.95
752.407	20.97
752.588	21.39
752.769	21.72
752.949	22.12
753.13	22.46
753.311	21.72
753.492	21.78
753.672	22.69
753.853	22.37
754.034	23.39
754.214	23.85
754.395	24.19
754.575	24.1
754.756	24.01
754.937	23.38
755.117	23.5
755.298	24.24
755.478	24.25
755.659	23.45
755.839	23.5
756.02	23.49
756.2	23.01
756.381	23.37
756.561	22.77
756.741	23.18
756.922	23.75
757.102	22.96
757.283	23.51
757.463	23.15
757.643	23.34
757.823	23.23
758.004	22.75
758.184	22.34
758.364	22.17
758.545	22.29
758.725	22.19
758.905	22.39
759.085	22.49
759.265	21.62
759.446	21.35
759.626	21.68
759.806	21.44
759.986	21.55
760.166	21.79
760.346	21.24
760.526	21.57
760.706	21.12
760.886	21.06
761.066	21.85
761.246	21.93
761.426	21.38
761.606	20.8
761.786	20.51
761.966	20.29
762.146	20.47
762.326	20.43
762.506	20.36
762.686	20.48
762.866	20.58
763.046	20.03
763.225	20.01
763.405	20.13
763.585	20.53
763.765	20.42
763.945	20.72
764.124	20.5
764.304	20.54
764.484	20.52
764.664	20.73
764.843	20.62
765.023	20.74
765.203	20.88
765.382	21.64
765.562	21.27
765.741	21.79
765.921	21.68
766.101	22.26
766.28	22.87
766.46	22.82
766.639	22.82
766.819	22.6
766.998	22.47
767.178	22.21
767.357	21.61
767.537	22.1
767.716	22.77
767.896	23.03
768.075	22.49
768.254	22.19
768.434	22.57
768.613	22.64
768.792	22.87
768.972	23.18
769.151	23.42
769.33	24.3
769.51	24.94
769.689	24.9
769.868	24.62
770.047	24.23
770.226	24.6
770.406	24.11
770.585	23.66
770.764	23.89
770.943	23.23
771.122	23.66
771.301	23.65
771.48	22.68
771.66	21.22
771.839	21.52
772.018	22.56
772.197	22.69
772.376	23.86
772.555	23.89
772.734	23.46
772.913	23.49
773.092	23.62
773.271	22.55
773.449	23.27
773.628	24.31
773.807	24.32
773.986	24.39
774.165	24.61
774.344	24.13
774.523	24.78
774.701	25.21
774.88	25.81
775.059	25.21
775.238	26.15
775.417	25.88
775.595	26.2
775.774	26.19
775.953	25.76
776.131	24.75
776.31	24.45
776.489	24.48
776.667	24.79
776.846	25.29
777.025	25.62
777.203	25.01
777.382	25.5
777.56	25.05
777.739	25.6
777.917	25.77
778.096	25.82
778.274	26.33
778.453	25.89
778.631	25.51
778.81	23.91
778.988	24
779.166	24.29
779.345	23.78
779.523	23.85
779.702	22.87
779.88	22.55
780.058	22.45
780.237	21.85
780.415	23.03
780.593	23.03
780.771	23.24
780.95	23.22
781.128	23.8
781.306	23.53
781.484	23.63
781.662	24.4
781.841	24.78
782.019	25.55
782.197	25.69
782.375	24.34
782.553	24.9
782.731	25.91
782.909	25.66
783.087	25.15
783.265	26.35
783.443	26.34
783.621	25.63
783.799	26.27
783.977	25.61
784.155	25.28
784.333	26.65
784.511	26.29
784.689	26.33
784.867	26.27
785.045	25.99
785.223	24.73
785.4	24.16
785.578	24.95
785.756	24.88
785.934	25.8
786.112	25.6
786.289	25.68
786.467	25.95
786.645	26.09
786.823	25.39
787	26.23
787.178	26.77
787.356	27.15
787.533	25.96
787.711	26.04
787.889	26.32
788.066	26.11
788.244	25.1
788.421	24.6
788.599	24.55
788.776	25.15
788.954	25.46
789.131	24.92
789.309	24.99
789.486	24.61
789.664	23.95
789.841	23.12
790.019	23.79
790.196	24.28
790.373	24.48
790.551	25.39
790.728	25.96
790.906	25.01
791.083	26.53
791.26	26.48
791.437	26.77
791.615	27.17
791.792	27.28
791.969	27.82
792.146	28.15
792.324	28.2
792.501	27.42
792.678	27.75
792.855	27.8
793.032	26.7
793.209	26.73
793.387	27.64
793.564	26.4
793.741	26.88
793.918	26.02
794.095	24.83
794.272	25.04
794.449	24.3
794.626	24.16
794.803	24.77
794.98	24.48
795.157	24.52
795.334	24.19
795.511	24.1
795.688	24.12
795.864	24.69
796.041	25.61
796.218	25.14
796.395	25.28
796.572	25.03
796.749	24.39
796.925	24.21
797.102	23.89
797.279	23.87
797.456	24.43
797.632	24.1
797.809	23.07
797.986	22.49
798.162	22.74
798.339	22.99
798.516	23.23
798.692	23.31
798.869	23.35
799.046	22.7
799.222	23.68
799.399	24.39
799.575	23.97
799.752	24.45
799.928	25.35
800.105	24.54
800.281	24.88
800.458	23.35
800.634	23.41
800.811	23.27
800.987	24.49
801.163	24.42
801.34	23.71
801.516	23.47
801.692	23.1
801.869	22.54
802.045	23.14
802.221	23.54
802.398	24.53
802.574	24.65
802.75	25.32
802.926	25.74
803.103	25.86
803.279	25.87
803.455	26.48
803.631	26.91
803.807	27.3
803.983	28.57
804.16	28.4
804.336	27.86
804.512	27.37
804.688	27.14
804.864	25.74
805.04	25.82
805.216	25.35
805.392	25.15
805.568	26.5
805.744	25.69
805.92	24.33
806.096	24.46
806.272	25.8
806.448	26.45
806.623	27.69
806.799	28.94
806.975	28.36
807.151	29.74
807.327	29.87
807.503	29.07
807.678	29.4
807.854	29.06
808.03	30.01
808.206	29.4
808.381	29.49
808.557	27.64
808.733	27.41
808.908	26.64
809.084	25.3
809.26	25.09
809.435	24.59
809.611	25.44
809.787	27.52
809.962	25.17
810.138	25.51
810.313	25.52
810.489	24.92
810.664	22.86
810.84	23.56
811.015	23.73
811.191	23.85
811.366	24.23
811.542	22.69
811.717	21.08
811.892	22.64
812.068	21.72
812.243	21.32
812.419	23.37
812.594	23.61
812.769	23.52
812.944	25.41
813.12	25.57
813.295	25.81
813.47	25.03
813.645	24.31
813.821	23.61
813.996	23.85
814.171	24.55
814.346	24.17
814.521	24.81
814.697	25.29
814.872	24.32
815.047	25.44
815.222	24.6
815.397	25.59
815.572	26.63
815.747	26.11
815.922	25.78
816.097	24.98
816.272	25.22
816.447	25.83
816.622	26.7
816.797	25.24
816.972	25.25
817.147	25.7
817.322	25.41
817.496	24.31
817.671	24.37
817.846	24.64
818.021	23.9
818.196	23.99
818.371	23.53
818.545	22.72
818.72	24.03
818.895	22.29
819.069	21.29
819.244	20.52
819.419	20.11
819.594	20.1
819.768	19.65
819.943	20.43
820.117	20.01
820.292	19.74
820.467	19.46
820.641	19.53
820.816	19.58
820.99	19.41
821.165	19.53
821.339	19.64
821.514	19.61
821.688	19.55
821.863	19.17
822.037	18.86
822.212	18.79
822.386	19
822.56	18.63
822.735	18.7
822.909	18.6
823.084	18.68
823.258	18.49
823.432	18.49
823.606	18.43
823.781	18.39
823.955	18.32
824.129	18.44
824.303	18.11
824.478	18.14
824.652	18.08
824.826	18.33
825	18.2
825.174	18.2
825.348	18.42
825.523	18.12
825.697	18.18
825.871	18.83
826.045	19.3
826.219	19.29
826.393	19.22
826.567	19.3
826.741	19.13
826.915	19.59
827.089	19.94
827.263	19.66
827.437	19.78
827.611	19.98
827.784	19.7
827.958	19.22
828.132	19.42
828.306	19.72
828.48	20.03
828.654	20.61
828.827	20.07
829.001	19.95
829.175	19.52
829.349	19.47
829.522	19.66
829.696	20.21
829.87	20.84
830.044	21.41
830.217	21.93
830.391	20.93
830.565	21.67
830.738	21.45
830.912	21.38
831.085	21.84
831.259	23.67
831.432	22.18
831.606	21.89
831.779	20.5
831.953	19.67
832.126	19.38
832.3	19.63
832.473	18.21
832.647	19.7
832.82	19.72
832.994	19.42
833.167	19.76
833.34	20.77
833.514	20.14
833.687	20.79
833.86	20.6
834.034	20.56
834.207	20.47
834.38	20.79
834.553	20.56
834.727	20.6
834.9	21.1
835.073	20.02
835.246	19.84
835.419	20.4
835.593	20.04
835.766	20.74
835.939	21.7
836.112	22.21
836.285	22.43
836.458	22.41
836.631	22.68
836.804	22.37
836.977	24.28
837.15	23.79
837.323	22.92
837.496	24.07
837.669	23.65
837.842	20.81
838.015	20.11
838.188	19.61
838.361	19.13
838.533	22.05
838.706	24.09
838.879	22.91
839.052	23.64
839.225	25.45
839.398	26.47
839.57	24.75
839.743	25.95
839.916	26.78
840.088	27.43
840.261	28.54
840.434	26.3
840.607	24.54
840.779	24.69
840.952	25.66
841.124	24.74
841.297	21.96
841.47	21.18
841.642	21.83
841.815	21.07
841.987	22.04
842.16	18.76
842.332	17.78
842.505	20.48
842.677	21.8
842.85	20.95
843.022	20.63
843.194	22.22
843.367	23.35
843.539	22.84
843.712	25.78
843.884	26.83
844.056	31
844.229	34.14
844.401	32.31
844.573	29.3
844.745	32.65
844.918	34.3
845.09	36.03
845.262	37.94
845.434	37.33
845.606	34.83
845.779	30.86
845.951	32.53
846.123	32.62
846.295	30.67
846.467	29.85
846.639	26.36
846.811	28.77
846.983	29.76
847.155	29.78
847.327	31.58
847.499	29.96
847.671	32.55
847.843	30.39
848.015	30.51
848.187	33.75
848.359	34.97
848.531	36.02
848.703	33.23
848.875	32.18
849.047	30.83
849.218	30.28
849.39	31.52
849.562	28.76
849.734	27.62
849.905	27.82
850.077	25.99
850.249	27.56
850.421	25.81
850.592	28.25
850.764	22.2
850.936	25.33
851.107	27.01
851.279	28.95
851.451	33.51
851.622	33.96
851.794	31.82
851.965	30.98
852.137	25.46
852.308	27.04
852.48	26.57
852.651	31.45
852.823	32.71
852.994	33.84
853.166	36.48
853.337	31.18
853.509	34.38
853.68	33.24
853.851	31.48
854.023	39.06
854.194	36.49
854.365	34.29
854.537	33.9
854.708	30.32
854.879	25.67
855.05	20.29
855.222	22.4
855.393	16.92
855.564	21.98
855.735	26.5
855.906	23.92
856.078	27.85
856.249	32.49
856.42	30.42
856.591	33.48
856.762	34.61
856.933	35.96
857.104	37.94
857.275	41.12
857.446	37.76
857.617	36.1
857.788	34.99
857.959	34.86
858.13	33.59
858.301	37.55
858.472	35.5
858.643	36.42
858.814	35.15
858.985	35.93
859.155	30.73
859.326	36.05
859.497	32.82
859.668	34.11
859.839	36.59
860.009	35.15
860.18	34.24
860.351	34.9
860.522	35.65
860.692	40.45
860.863	37.05
861.034	39.68
861.204	34.56
861.375	37.54
861.546	35.09
861.716	29.08
861.887	24.87
862.057	22.39
862.228	23.88
862.398	22.45
862.569	21.52
862.739	23.59
862.91	27.22
863.08	28.73
863.251	32.44
863.421	37.16
863.592	41.04
863.762	45.86
863.932	48.77
864.103	45.08
864.273	42.07
864.443	33.58
864.614	36.49
864.784	30.12
864.954	31.04
865.125	31.85
865.295	31.03
865.465	29.3
865.635	31.26
865.805	29.04
865.976	29.73
866.146	31.52
866.316	41.45
866.486	38.48
866.656	42.67
866.826	39.47
866.996	38.52
867.166	37.1
867.336	35.69
867.506	32.48
867.676	30.25
867.846	32.29
868.016	36.99
868.186	31.93
868.356	29
868.526	31.36
868.696	31.53
868.866	26.03
869.036	28.44
869.206	29.92
869.376	34.01
869.545	36.4
869.715	38.55
869.885	36.79
870.055	35.35
870.224	39.48
870.394	36.44
870.564	39.74
870.734	45.03
870.903	42.93
871.073	44.87
871.243	41.51
871.412	41.54
871.582	39.13
871.751	34.95
871.921	36.42
872.091	39.56
872.26	40.17
872.43	40.95
872.599	34.67
872.769	32.35
872.938	31.81
873.108	32.22
873.277	32.5
873.446	34.69
873.616	35.14
873.785	33.78
873.955	29.67
874.124	26.04
874.293	24.2
874.463	26.14
874.632	31.58
874.801	26.57
874.971	27.29
875.14	24.2
875.309	22.53
875.478	26.6
875.647	27.51
875.817	27.8
875.986	32.21
876.155	30.64
876.324	31.56
876.493	31.88
876.662	34.78
876.831	32.52
877	30.83
877.17	31.31
877.339	28.93
877.508	34.25
877.677	36.72
877.846	33.35
878.015	34.26
878.184	34.21
878.352	28.6
878.521	28.21
878.69	32.05
878.859	35.31
879.028	35.63
879.197	34.57
879.366	30.34
879.534	28.73
879.703	23.38
879.872	23.82
880.041	24.33
880.21	26.52
880.378	25.7
880.547	23.18
880.716	21.4
880.884	20.34
881.053	19
881.222	18.65
881.39	17.91
881.559	19.1
881.727	19.23
881.896	18.38
882.065	17.05
882.233	18.06
882.402	18.34
882.57	18.45
882.739	18.22
882.907	19.39
883.076	19.33
883.244	19.34
883.412	19.8
883.581	19.28
883.749	19.28
883.918	20.68
884.086	19.56
884.254	20.36
884.423	20.56
884.591	20.83
884.759	20.02
884.927	20.87
885.096	22.17
885.264	22.73
885.432	24.28
885.6	25.51
885.769	23.93
885.937	24.07
886.105	23.69
886.273	25.03
886.441	24.82
886.609	27.07
886.777	27.96
886.945	31.25
887.113	34.26
887.281	34.83
887.449	37.42
887.617	37.76
887.785	37.37
887.953	34.65
888.121	35.14
888.289	39.02
888.457	36.18
888.625	34.95
888.793	31.56
888.961	27.18
889.129	25.75
889.296	24.23
889.464	25.4
889.632	29.87
889.8	34.62
889.967	33.68
890.135	29.54
