Data from 2938736__Reflection_03.txt Node
Date: Sun Mar 15 18:16:25 EDT 2015
User: robert
Spectrometer: USB4E03002
Autoset integration time: false
Trigger mode: 4
Integration Time (sec): 1.000000E-1
Scans to average: 10
Electric dark correction enabled: false
Nonlinearity correction enabled: false
Boxcar width: 5
Stray light correction enabled: false
XAxis mode: Wavelengths
Stop averaging: false
Number of Pixels in Spectrum: 3648
>>>>>Begin Spectral Data<<<<<
177.575	291.36
177.794	302.79
178.014	189.19
178.233	211.98
178.452	209.6
178.672	191.79
178.891	172.17
179.11	162.69
179.33	-203.39
179.549	-182.46
179.768	-4680
179.987	-267.74
180.207	360
180.426	29.08
180.645	39.71
180.864	993.75
181.084	415.94
181.303	379.07
181.522	212.63
181.741	112.89
181.96	203.41
182.179	225.56
182.398	214.21
182.618	297.95
182.837	388.69
183.056	486.44
183.275	645.6
183.494	1627.66
183.713	3220.83
183.932	-743.3
184.151	-534.29
184.37	-350.74
184.589	-308.59
184.808	-24.4
185.027	-125.33
185.246	678.13
185.465	986.36
185.684	77.05
185.903	23.78
186.122	-1.16
186.341	15
186.56	18.83
186.779	39.24
186.998	14.33
187.216	43.07
187.435	40.54
187.654	44.08
187.873	42.63
188.092	57.37
188.311	68.31
188.53	80.73
188.748	106.35
188.967	82.95
189.186	86.17
189.405	180.74
189.623	186.25
189.842	195.65
190.061	164.56
190.28	179.17
190.498	202.96
190.717	211.55
190.936	185.09
191.154	217.11
191.373	321.53
191.592	382.67
191.81	300.3
192.029	231.8
192.248	257.14
192.466	264.35
192.685	225.42
192.904	203.55
193.122	281.28
193.341	169.37
193.559	113.42
193.778	88.51
193.996	114.22
194.215	90.69
194.433	83.33
194.652	68.11
194.87	101.32
195.089	82.7
195.307	138.96
195.526	133.2
195.744	213.19
195.963	260.69
196.181	1460
196.399	10814.29
196.618	-3443.75
196.836	-8800
197.055	-596.59
197.273	-215.2
197.491	-121.55
197.71	-54.23
197.928	-89.95
198.146	-144.14
198.365	-71.19
198.583	-55.1
198.801	-9.85
199.019	98.24
199.238	83.48
199.456	109.71
199.674	40.62
199.892	18.58
200.111	32.7
200.329	94.16
200.547	134.48
200.765	236.05
200.983	318.18
201.202	788.14
201.42	530.88
201.638	-11375
201.856	-443.42
202.074	-18100
202.292	2641.18
202.51	1076.09
202.728	1735.42
202.946	-1561.22
203.165	-1738.1
203.383	1674.42
203.601	-1421.28
203.819	-694.74
204.037	-707.87
204.255	-285.71
204.473	-146.47
204.691	-90.32
204.909	-65.53
205.127	-41.38
205.345	-91.25
205.562	-77.16
205.78	-91.61
205.998	-132.1
206.216	-125.44
206.434	-167.86
206.652	-163.46
206.87	-57.14
207.088	-63.95
207.306	-64.52
207.523	495.74
207.741	273.26
207.959	166.67
208.177	144.71
208.395	150.43
208.612	172.13
208.83	210.42
209.048	175.92
209.266	143.73
209.483	105.84
209.701	146.96
209.919	102.71
210.136	103.5
210.354	94.34
210.572	98.99
210.79	137.1
211.007	118.6
211.225	94.35
211.442	95.95
211.66	80.78
211.878	71.84
212.095	-23.51
212.313	-41.12
212.53	-62.06
212.748	-23.28
212.966	-23.45
213.183	-8.22
213.401	3.28
213.618	-19.97
213.836	-32.72
214.053	-53.01
214.271	-54.27
214.488	86.55
214.705	119.76
214.923	132.43
215.14	99.39
215.358	123.24
215.575	64.76
215.793	89.72
216.01	110.72
216.227	89.71
216.445	87.74
216.662	103.32
216.879	98.31
217.097	78.81
217.314	67.96
217.531	41.64
217.749	46.12
217.966	62.07
218.183	59.06
218.4	48.91
218.618	58.43
218.835	53.65
219.052	23.47
219.269	12.06
219.487	28.01
219.704	45.32
219.921	41.6
220.138	37.79
220.355	29.05
220.572	25.97
220.79	26.93
221.007	32.43
221.224	36.22
221.441	44.8
221.658	49.25
221.875	54.1
222.092	48.55
222.309	51.09
222.526	51.52
222.743	49.23
222.96	46.63
223.177	38.27
223.394	39.9
223.611	44.18
223.828	45.73
224.045	35.37
224.262	33
224.479	29.43
224.696	23.55
224.913	23.14
225.13	24.51
225.347	23.44
225.564	28.76
225.781	23.48
225.997	20.6
226.214	14.4
226.431	17.16
226.648	14.69
226.865	12.81
227.082	14.06
227.298	13.19
227.515	10.14
227.732	9.56
227.949	9.23
228.165	8.08
228.382	6.35
228.599	7.9
228.816	6.96
229.032	6.87
229.249	7.21
229.466	7.47
229.682	6.89
229.899	6.9
230.116	6.75
230.332	5.5
230.549	6.14
230.765	7.14
230.982	6.72
231.199	5.98
231.415	5.8
231.632	4.99
231.848	3.92
232.065	2.5
232.281	1.07
232.498	0.73
232.714	2.11
232.931	1.5
233.147	1.05
233.364	0.93
233.58	4.25
233.797	2.97
234.013	3.58
234.23	3.51
234.446	4.73
234.662	7.29
234.879	6.26
235.095	5.62
235.312	5.41
235.528	6.4
235.744	6.67
235.961	4.7
236.177	6.94
236.393	7.39
236.61	8.88
236.826	8.46
237.042	10.25
237.258	12.45
237.475	12.79
237.691	13.93
237.907	12.85
238.123	8.82
238.339	7.74
238.556	7.09
238.772	6.49
238.988	6.98
239.204	9.4
239.42	9.12
239.636	8.31
239.853	8.91
240.069	7.88
240.285	7.16
240.501	8.14
240.717	9.19
240.933	8.43
241.149	8.07
241.365	6.75
241.581	5.67
241.797	5.56
242.013	4.93
242.229	4.7
242.445	4.9
242.661	4.87
242.877	5.03
243.093	5
243.309	5.33
243.525	5.35
243.741	5.74
243.957	6.22
244.173	5.01
244.388	5.64
244.604	5.73
244.82	6.04
245.036	6.34
245.252	6.08
245.468	5.74
245.683	5.33
245.899	4.92
246.115	4.43
246.331	4.08
246.547	4.47
246.762	4.5
246.978	4.41
247.194	3.84
247.409	3.99
247.625	4.13
247.841	4.18
248.057	4.23
248.272	4.34
248.488	4.54
248.703	4.61
248.919	4.83
249.135	4.59
249.35	4.36
249.566	4.87
249.782	4.97
249.997	4.9
250.213	4.75
250.428	5.26
250.644	4.14
250.859	3.83
251.075	3.63
251.29	3.48
251.506	3.55
251.721	4.29
251.937	4.41
252.152	4.03
252.368	3.31
252.583	2.7
252.798	2.06
253.014	2.99
253.229	4.11
253.445	4.66
253.66	4.99
253.875	5.25
254.091	3.97
254.306	3.44
254.521	4.34
254.737	5.95
254.952	6.91
255.167	6.92
255.383	6.68
255.598	6.72
255.813	6.35
256.028	5.39
256.244	5.34
256.459	5.77
256.674	5.95
256.889	5.15
257.104	4.97
257.32	4.34
257.535	4.16
257.75	4.48
257.965	4.3
258.18	3.97
258.395	4.3
258.61	4.4
258.826	4.21
259.041	4.18
259.256	4.1
259.471	3.91
259.686	3.75
259.901	3.69
260.116	3.52
260.331	3.41
260.546	3.55
260.761	3.15
260.976	2.92
261.191	3.19
261.406	2.89
261.621	2.83
261.836	2.7
262.05	2.82
262.265	3.28
262.48	3.62
262.695	3.09
262.91	3.58
263.125	3.83
263.34	3.72
263.555	4.22
263.769	4.84
263.984	4.16
264.199	4.52
264.414	4.57
264.629	3.96
264.843	3.64
265.058	3.94
265.273	2.98
265.488	3.07
265.702	2.99
265.917	1.8
266.132	2.13
266.346	2.6
266.561	3.07
266.776	3.48
266.99	3.31
267.205	3.66
267.42	3.46
267.634	3.52
267.849	3.13
268.063	3.54
268.278	4.24
268.492	3.85
268.707	4.04
268.922	3.51
269.136	2.88
269.351	3.16
269.565	2.41
269.78	3.02
269.994	3.43
270.209	3.76
270.423	3.7
270.637	3.37
270.852	3.84
271.066	3.96
271.281	3.84
271.495	4.35
271.709	3.83
271.924	4.07
272.138	3.54
272.353	3.4
272.567	3.67
272.781	3.57
272.996	3.26
273.21	2.91
273.424	2.54
273.638	2.45
273.853	2.16
274.067	2.74
274.281	2.74
274.495	2.96
274.71	3.11
274.924	2.6
275.138	2.52
275.352	2.82
275.566	2.84
275.781	3.15
275.995	3.11
276.209	2.81
276.423	2.58
276.637	2.43
276.851	2.3
277.065	2.52
277.279	2.74
277.493	3.06
277.707	3.03
277.921	2.71
278.135	2.39
278.349	2.93
278.563	3.54
278.777	3.3
278.991	3.34
279.205	3.88
279.419	3.23
279.633	3.33
279.847	2.84
280.061	2.67
280.275	3
280.489	3.22
280.703	2.76
280.917	2.42
281.131	2.8
281.344	3.15
281.558	2.91
281.772	3.15
281.986	3.03
282.2	3.38
282.414	3.65
282.627	3.7
282.841	3.5
283.055	3.43
283.269	3.45
283.482	3.39
283.696	3.29
283.91	3.41
284.123	2.76
284.337	2.66
284.551	2.65
284.764	2.5
284.978	2.61
285.192	2.66
285.405	2.86
285.619	3.1
285.833	3.06
286.046	2.48
286.26	2.2
286.473	2.57
286.687	2.61
286.9	2.8
287.114	3.16
287.327	3.06
287.541	3.04
287.754	2.79
287.968	2.66
288.181	2.46
288.395	3.15
288.608	3.14
288.822	2.84
289.035	2.98
289.248	2.54
289.462	2.41
289.675	2.79
289.889	2.81
290.102	3.04
290.315	3.04
290.529	3.33
290.742	3.54
290.955	3.77
291.169	3.79
291.382	3.81
291.595	3.93
291.808	3.86
292.022	3.42
292.235	3.43
292.448	3.65
292.661	3.38
292.875	3.39
293.088	3.03
293.301	3.1
293.514	3.08
293.727	3.2
293.94	3.01
294.153	2.98
294.367	2.79
294.58	2.98
294.793	2.86
295.006	2.96
295.219	3.1
295.432	3.29
295.645	3.18
295.858	3.16
296.071	2.77
296.284	3.1
296.497	3.21
296.71	3.36
296.923	3.21
297.136	3.36
297.349	3.4
297.562	3.25
297.775	3.2
297.988	3.38
298.201	3.43
298.414	3.92
298.626	3.88
298.839	3.84
299.052	3.96
299.265	4.19
299.478	4.13
299.691	4.01
299.903	4.14
300.116	3.98
300.329	4.01
300.542	4.53
300.755	4.01
300.967	4.1
301.18	3.85
301.393	3.77
301.605	3.88
301.818	3.05
302.031	3.19
302.243	2.9
302.456	3.67
302.669	3.47
302.881	3.16
303.094	3.63
303.307	2.97
303.519	3.44
303.732	3.27
303.944	2.98
304.157	3.46
304.37	3.32
304.582	3.1
304.795	2.3
305.007	1.99
305.22	2.2
305.432	1.87
305.645	2.29
305.857	2.41
306.069	2.47
306.282	2.37
306.494	2.61
306.707	2.89
306.919	3.36
307.132	3.45
307.344	3.92
307.556	4.3
307.769	4.32
307.981	4.42
308.193	3.95
308.406	4
308.618	4.2
308.83	4.31
309.043	4.16
309.255	3.84
309.467	3.67
309.679	3.58
309.892	3.3
310.104	3.14
310.316	3.18
310.528	3.53
310.74	3.52
310.953	3.87
311.165	3.9
311.377	4.01
311.589	4.29
311.801	4.62
312.013	4.27
312.225	4.37
312.437	4.72
312.649	4.84
312.862	4.91
313.074	5.07
313.286	4.58
313.498	4.66
313.71	4.7
313.922	4.69
314.134	4.6
314.346	4.41
314.558	4.1
314.77	4.42
314.982	4.12
315.193	3.64
315.405	3.96
315.617	3.97
315.829	3.59
316.041	3.47
316.253	3.3
316.465	3.61
316.677	4.33
316.888	4.56
317.1	4.11
317.312	4.78
317.524	5.08
317.736	4.7
317.947	4.82
318.159	5.19
318.371	5.44
318.583	6.02
318.794	5.56
319.006	5.36
319.218	5.88
319.43	6.16
319.641	5.52
319.853	5.54
320.064	5.75
320.276	6.23
320.488	6.29
320.699	6.18
320.911	5.59
321.123	5.63
321.334	5.79
321.546	5.21
321.757	4.78
321.969	5.27
322.18	5.25
322.392	5.44
322.603	5.51
322.815	5.47
323.026	5.53
323.238	5.8
323.449	5.86
323.661	6.19
323.872	6.16
324.083	6.72
324.295	6.66
324.506	6.93
324.718	6.81
324.929	6.61
325.14	6.8
325.352	6.99
325.563	7.36
325.774	7.85
325.986	7.82
326.197	8.31
326.408	7.73
326.62	7.8
326.831	7.69
327.042	7.78
327.253	7.72
327.464	7.82
327.676	8.33
327.887	8.15
328.098	8
328.309	8.25
328.52	7.87
328.732	8.5
328.943	8.42
329.154	8.76
329.365	8.78
329.576	8.7
329.787	8.63
329.998	8.2
330.209	8.33
330.42	8.31
330.631	8.42
330.842	8.88
331.053	8.94
331.264	9.28
331.475	9.47
331.686	9.65
331.897	9.65
332.108	9.86
332.319	9.91
332.53	9.85
332.741	10.21
332.952	10.33
333.163	10.3
333.374	10.29
333.585	10.53
333.795	10.28
334.006	10.27
334.217	10.76
334.428	10.51
334.639	10.67
334.849	10.49
335.06	10.49
335.271	10.36
335.482	10.58
335.692	10.82
335.903	10.6
336.114	10.83
336.325	11.09
336.535	11.01
336.746	11.19
336.957	11.14
337.167	11.75
337.378	11.64
337.589	11.49
337.799	11.18
338.01	11.2
338.22	11.44
338.431	11.14
338.642	10.87
338.852	11.14
339.063	11.24
339.273	11.32
339.484	10.91
339.694	11.14
339.905	10.8
340.115	10.92
340.326	10.91
340.536	10.63
340.746	10.67
340.957	10.87
341.167	10.58
341.378	10.24
341.588	10.03
341.799	10.14
342.009	9.88
342.219	10.22
342.43	10.13
342.64	9.69
342.85	10
343.061	9.96
343.271	9.97
343.481	10.27
343.691	10.56
343.902	10.68
344.112	10.81
344.322	10.87
344.532	11.03
344.743	11.1
344.953	11.25
345.163	11.1
345.373	11.13
345.583	11.06
345.793	10.89
346.004	10.56
346.214	10.7
346.424	10.56
346.634	10.44
346.844	10.23
347.054	9.98
347.264	10.09
347.474	9.75
347.684	10.14
347.894	10.06
348.104	9.89
348.314	10.29
348.524	10.12
348.734	10.13
348.944	9.91
349.154	9.87
349.364	9.86
349.574	9.54
349.784	9.77
349.994	9.29
350.204	9.14
350.413	8.89
350.623	8.85
350.833	8.86
351.043	8.62
351.253	8.76
351.463	8.87
351.672	9.2
351.882	9.68
352.092	9.68
352.302	9.94
352.511	9.98
352.721	9.98
352.931	10.05
353.141	9.88
353.35	10.12
353.56	10.46
353.77	10.51
353.979	10.62
354.189	10.27
354.399	10.02
354.608	10.17
354.818	10.43
355.027	10.93
355.237	10.94
355.447	11.02
355.656	10.78
355.866	10.56
356.075	10.75
356.285	10.39
356.494	10.51
356.704	10.76
356.913	10.75
357.123	10.41
357.332	10.21
357.542	10.26
357.751	10.43
357.96	10.81
358.17	10.76
358.379	10.45
358.589	10.54
358.798	10.29
359.007	10.4
359.217	10.15
359.426	10.12
359.635	10.3
359.845	10.06
360.054	9.94
360.263	9.74
360.472	9.85
360.682	10.09
360.891	10.26
361.1	10.46
361.309	10.32
361.519	10.27
361.728	10.36
361.937	10.37
362.146	10.23
362.355	10.26
362.564	10.39
362.774	10.39
362.983	10.18
363.192	9.92
363.401	10.06
363.61	9.99
363.819	10.26
364.028	10.3
364.237	9.99
364.446	10.12
364.655	10.05
364.864	9.81
365.073	9.73
365.282	9.76
365.491	9.98
365.7	9.78
365.909	9.65
366.118	9.6
366.327	9.8
366.536	9.94
366.745	9.81
366.954	9.64
367.162	9.62
367.371	9.72
367.58	9.75
367.789	9.74
367.998	9.98
368.207	10.2
368.415	9.95
368.624	9.66
368.833	9.59
369.042	9.8
369.25	9.76
369.459	9.61
369.668	9.5
369.877	9.1
370.085	8.96
370.294	8.7
370.503	8.42
370.711	8.35
370.92	8.42
371.129	8.57
371.337	8.41
371.546	8.53
371.754	8.87
371.963	8.9
372.171	9.15
372.38	9.32
372.589	9.27
372.797	9.84
373.006	9.95
373.214	9.91
373.423	9.81
373.631	9.85
373.84	9.99
374.048	9.9
374.256	9.9
374.465	10.21
374.673	10.17
374.882	10.07
375.09	9.57
375.298	9.68
375.507	9.68
375.715	9.57
375.923	9.65
376.132	9.82
376.34	9.81
376.548	9.63
376.757	9.34
376.965	9.38
377.173	9.4
377.381	9.64
377.59	9.43
377.798	9.36
378.006	9.56
378.214	9.66
378.423	9.28
378.631	9.41
378.839	9.45
379.047	9.48
379.255	9.43
379.463	9.55
379.671	9.37
379.879	9.53
380.088	9.56
380.296	9.41
380.504	9.36
380.712	9.46
380.92	9.34
381.128	9.37
381.336	9.34
381.544	9.43
381.752	9.31
381.96	9.24
382.168	9.13
382.376	9.31
382.584	9.4
382.791	9.35
382.999	9.5
383.207	9.32
383.415	9.53
383.623	9.75
383.831	9.5
384.039	9.66
384.247	9.9
384.454	10.09
384.662	9.84
384.87	9.61
385.078	9.68
385.285	9.42
385.493	9.64
385.701	9.35
385.909	9.06
386.116	9.27
386.324	9.16
386.532	8.96
386.739	8.93
386.947	9.13
387.155	9.33
387.362	9.15
387.57	9.24
387.778	9.46
387.985	9.53
388.193	9.77
388.4	9.71
388.608	9.7
388.816	9.73
389.023	9.49
389.231	9.3
389.438	9.08
389.646	9.16
389.853	9.29
390.061	8.91
390.268	8.81
390.475	8.67
390.683	8.61
390.89	8.65
391.098	8.61
391.305	8.77
391.512	9.03
391.72	9.1
391.927	9.09
392.135	9
392.342	8.86
392.549	8.98
392.756	9.19
392.964	9.08
393.171	9.26
393.378	9.35
393.586	9.17
393.793	8.82
394	8.82
394.207	8.8
394.414	8.81
394.622	8.94
394.829	8.98
395.036	8.81
395.243	8.8
395.45	8.55
395.657	8.4
395.864	8.6
396.072	8.86
396.279	8.92
396.486	9.07
396.693	9.04
396.9	9.23
397.107	9.04
397.314	8.81
397.521	8.76
397.728	8.93
397.935	9.03
398.142	8.94
398.349	8.67
398.556	8.74
398.763	8.77
398.97	8.95
399.177	8.88
399.383	8.98
399.59	9.24
399.797	9.56
400.004	9.56
400.211	9.57
400.418	9.61
400.625	9.94
400.831	9.87
401.038	9.76
401.245	9.64
401.452	9.54
401.658	9.63
401.865	9.69
402.072	9.61
402.279	9.66
402.485	9.54
402.692	9.7
402.899	9.49
403.105	9.61
403.312	9.61
403.519	9.7
403.725	9.71
403.932	9.76
404.138	9.6
404.345	9.52
404.552	9.43
404.758	9.59
404.965	9.27
405.171	9.23
405.378	9.35
405.584	9.37
405.791	9.35
405.997	9.24
406.204	9.21
406.41	9.28
406.617	9.3
406.823	9.39
407.029	9.36
407.236	9.49
407.442	9.56
407.649	9.29
407.855	9.24
408.061	9.15
408.268	9.2
408.474	9.19
408.68	9.18
408.887	9.31
409.093	9.06
409.299	8.88
409.505	8.82
409.712	8.91
409.918	8.9
410.124	9.01
410.33	8.95
410.537	8.96
410.743	9.05
410.949	9.05
411.155	8.85
411.361	8.96
411.567	9
411.773	9.22
411.98	9.17
412.186	9.31
412.392	9.15
412.598	9.05
412.804	9.11
413.01	8.93
413.216	8.83
413.422	8.77
413.628	8.55
413.834	8.55
414.04	8.4
414.246	8.38
414.452	8.31
414.658	8.31
414.864	8.52
415.07	8.4
415.275	8.45
415.481	8.48
415.687	8.6
415.893	8.72
416.099	8.76
416.305	8.73
416.511	8.76
416.716	8.79
416.922	8.77
417.128	8.63
417.334	8.83
417.539	8.77
417.745	8.82
417.951	8.8
418.157	8.8
418.362	8.83
418.568	8.89
418.774	8.9
418.979	8.79
419.185	8.78
419.391	8.84
419.596	8.77
419.802	8.74
420.008	8.59
420.213	8.64
420.419	8.6
420.624	8.51
420.83	8.45
421.035	8.36
421.241	8.38
421.446	8.32
421.652	8.29
421.857	8.23
422.063	8.24
422.268	8.36
422.474	8.27
422.679	8.31
422.885	8.41
423.09	8.46
423.295	8.48
423.501	8.45
423.706	8.56
423.911	8.58
424.117	8.6
424.322	8.65
424.527	8.64
424.733	8.69
424.938	8.68
425.143	8.62
425.349	8.55
425.554	8.48
425.759	8.57
425.964	8.61
426.169	8.6
426.375	8.59
426.58	8.56
426.785	8.51
426.99	8.44
427.195	8.37
427.4	8.47
427.605	8.52
427.811	8.64
428.016	8.41
428.221	8.28
428.426	8.23
428.631	8.14
428.836	8.08
429.041	8.08
429.246	8.13
429.451	8.2
429.656	7.97
429.861	7.8
430.066	7.77
430.271	7.96
430.476	7.97
430.681	8.09
430.886	8.14
431.09	8.2
431.295	8.24
431.5	8.26
431.705	8.27
431.91	8.34
432.115	8.44
432.32	8.39
432.524	8.36
432.729	8.49
432.934	8.56
433.139	8.71
433.343	8.88
433.548	9.07
433.753	9.2
433.958	9.52
434.162	9.86
434.367	10.33
434.572	10.79
434.776	11.23
434.981	11.59
435.186	11.93
435.39	12.05
435.595	12.24
435.799	12.24
436.004	12.1
436.209	11.86
436.413	11.61
436.618	11.26
436.822	10.92
437.027	10.44
437.231	10.01
437.436	9.52
437.64	9.33
437.845	9.02
438.049	8.77
438.253	8.79
438.458	8.69
438.662	8.57
438.867	8.43
439.071	8.36
439.275	8.34
439.48	8.29
439.684	8.32
439.888	8.27
440.093	8.14
440.297	8.19
440.501	8.15
440.706	8.17
440.91	8.16
441.114	8.18
441.318	8.17
441.523	8.25
441.727	8.2
441.931	8.11
442.135	8.19
442.339	8.28
442.543	8.33
442.748	8.32
442.952	8.39
443.156	8.41
443.36	8.39
443.564	8.37
443.768	8.35
443.972	8.35
444.176	8.34
444.38	8.3
444.584	8.23
444.788	8.12
444.992	8.14
445.196	8
445.4	8.02
445.604	8.1
445.808	8.08
446.012	8.07
446.216	8.05
446.42	8.08
446.624	8.1
446.828	8.15
447.032	8.19
447.235	8.19
447.439	8.24
447.643	8.2
447.847	8.14
448.051	8.13
448.254	8.03
448.458	8.1
448.662	8.11
448.866	8.04
449.069	7.93
449.273	8.02
449.477	8.09
449.681	8.12
449.884	8.21
450.088	8.23
450.292	8.42
450.495	8.48
450.699	8.41
450.902	8.37
451.106	8.31
451.31	8.41
451.513	8.23
451.717	8.16
451.92	8.14
452.124	7.98
452.327	7.99
452.531	7.88
452.734	7.82
452.938	7.85
453.141	7.85
453.345	7.85
453.548	7.86
453.752	7.99
453.955	7.86
454.158	7.89
454.362	7.97
454.565	8
454.769	7.99
454.972	8.11
455.175	8.17
455.379	8.18
455.582	8.21
455.785	8.19
455.988	8.14
456.192	8.15
456.395	8.11
456.598	8.13
456.801	7.96
457.005	7.94
457.208	7.88
457.411	7.79
457.614	7.92
457.817	7.88
458.021	7.86
458.224	7.83
458.427	7.9
458.63	7.9
458.833	7.89
459.036	7.92
459.239	7.96
459.442	8.03
459.645	8.07
459.848	8.02
460.051	8.02
460.254	8.03
460.457	8.04
460.66	8.03
460.863	7.96
461.066	7.9
461.269	7.93
461.472	7.96
461.675	7.89
461.878	7.9
462.081	7.88
462.284	7.91
462.486	7.94
462.689	7.97
462.892	7.97
463.095	8.03
463.298	8.08
463.5	7.93
463.703	7.75
463.906	7.79
464.109	7.73
464.311	7.82
464.514	7.97
464.717	7.86
464.92	7.86
465.122	7.88
465.325	8.03
465.528	7.98
465.73	8.22
465.933	8.31
466.135	8.23
466.338	8.4
466.541	8.32
466.743	8.17
466.946	8.24
467.148	8.14
467.351	8.05
467.553	7.96
467.756	8.06
467.958	7.95
468.161	8.01
468.363	8.14
468.566	8.02
468.768	8.03
468.971	8.1
469.173	8.16
469.375	8.27
469.578	8.3
469.78	8.26
469.983	8.2
470.185	8.25
470.387	8.22
470.59	8.19
470.792	8.21
470.994	8.18
471.196	8.23
471.399	8.07
471.601	8.1
471.803	8.23
472.005	8.29
472.208	8.38
472.41	8.4
472.612	8.28
472.814	8.32
473.016	8.36
473.218	8.45
473.421	8.36
473.623	8.43
473.825	8.45
474.027	8.48
474.229	8.45
474.431	8.39
474.633	8.34
474.835	8.46
475.037	8.37
475.239	8.35
475.441	8.25
475.643	8.21
475.845	8.22
476.047	8.14
476.249	8.08
476.451	8
476.653	8.01
476.855	8.01
477.057	8.07
477.258	8.2
477.46	8.18
477.662	8.27
477.864	8.26
478.066	8.3
478.268	8.25
478.469	8.33
478.671	8.4
478.873	8.5
479.075	8.56
479.276	8.53
479.478	8.45
479.68	8.57
479.882	8.58
480.083	8.65
480.285	8.69
480.487	8.77
480.688	8.71
480.89	8.78
481.091	8.69
481.293	8.72
481.495	8.66
481.696	8.61
481.898	8.56
482.099	8.51
482.301	8.49
482.502	8.46
482.704	8.43
482.905	8.43
483.107	8.39
483.308	8.38
483.51	8.38
483.711	8.39
483.913	8.39
484.114	8.36
484.315	8.38
484.517	8.44
484.718	8.48
484.92	8.52
485.121	8.53
485.322	8.59
485.524	8.64
485.725	8.64
485.926	8.69
486.127	8.79
486.329	8.86
486.53	8.88
486.731	8.89
486.932	8.88
487.134	8.87
487.335	8.91
487.536	8.89
487.737	8.9
487.938	8.94
488.139	8.95
488.341	8.92
488.542	8.94
488.743	8.95
488.944	8.92
489.145	8.97
489.346	8.96
489.547	8.92
489.748	8.96
489.949	8.99
490.15	8.94
490.351	8.96
490.552	8.93
490.753	8.91
490.954	8.89
491.155	8.89
491.356	8.88
491.557	8.92
491.758	8.93
491.959	8.91
492.159	8.85
492.36	8.87
492.561	8.83
492.762	8.86
492.963	8.84
493.164	8.88
493.364	8.88
493.565	8.89
493.766	8.92
493.967	8.88
494.167	8.91
494.368	8.97
494.569	8.99
494.769	9.1
494.97	9.09
495.171	9.08
495.371	8.94
495.572	8.98
495.773	8.94
495.973	8.85
496.174	8.92
496.375	8.87
496.575	8.85
496.776	8.86
496.976	8.8
497.177	8.77
497.377	8.79
497.578	8.91
497.778	8.83
497.979	8.81
498.179	8.83
498.38	8.79
498.58	8.71
498.78	8.71
498.981	8.64
499.181	8.65
499.382	8.64
499.582	8.67
499.782	8.67
499.983	8.71
500.183	8.73
500.383	8.7
500.584	8.77
500.784	8.87
500.984	8.87
501.184	8.95
501.385	9
501.585	9.1
501.785	9.02
501.985	9.01
502.185	8.99
502.386	9.07
502.586	9.02
502.786	8.94
502.986	8.97
503.186	8.99
503.386	8.97
503.586	8.83
503.786	8.84
503.987	8.91
504.187	8.92
504.387	9.07
504.587	8.88
504.787	8.96
504.987	9.03
505.187	8.99
505.387	9.01
505.587	9.07
505.786	9.18
505.986	9.04
506.186	9.15
506.386	9.21
506.586	9.13
506.786	9.22
506.986	9.13
507.186	9.1
507.386	9.18
507.585	9.24
507.785	9.12
507.985	9.05
508.185	9.12
508.384	9.05
508.584	9.05
508.784	8.98
508.984	9.09
509.183	9.17
509.383	9.19
509.583	9.22
509.782	9.26
509.982	9.32
510.182	9.42
510.381	9.43
510.581	9.46
510.781	9.48
510.98	9.61
511.18	9.62
511.379	9.66
511.579	9.72
511.778	9.74
511.978	9.79
512.177	9.88
512.377	9.91
512.576	9.91
512.776	9.89
512.975	9.96
513.175	10.01
513.374	10.03
513.573	10.16
513.773	10.14
513.972	10.13
514.172	10.06
514.371	10.05
514.57	10.04
514.77	10.26
514.969	10.39
515.168	10.44
515.367	10.48
515.567	10.52
515.766	10.51
515.965	10.66
516.164	10.7
516.364	10.79
516.563	10.87
516.762	10.95
516.961	10.96
517.16	10.96
517.359	10.98
517.559	11
517.758	10.98
517.957	10.99
518.156	10.95
518.355	11.08
518.554	11.13
518.753	11.17
518.952	11.21
519.151	11.13
519.35	11.11
519.549	11.11
519.748	11.14
519.947	11.2
520.146	11.24
520.345	11.26
520.544	11.15
520.743	11.18
520.942	11.11
521.141	11.1
521.339	11.25
521.538	11.39
521.737	11.49
521.936	11.57
522.135	11.58
522.333	11.64
522.532	11.73
522.731	11.91
522.93	11.97
523.129	12.17
523.327	12.31
523.526	12.31
523.725	12.32
523.923	12.35
524.122	12.41
524.321	12.57
524.519	12.67
524.718	12.72
524.917	12.72
525.115	12.69
525.314	12.66
525.512	12.68
525.711	12.74
525.909	12.78
526.108	12.85
526.306	12.85
526.505	12.83
526.703	12.82
526.902	12.88
527.1	12.94
527.299	13.01
527.497	13.05
527.696	13.09
527.894	13.17
528.092	13.19
528.291	13.19
528.489	13.27
528.688	13.24
528.886	13.28
529.084	13.33
529.283	13.36
529.481	13.38
529.679	13.41
529.877	13.45
530.076	13.46
530.274	13.51
530.472	13.62
530.67	13.66
530.869	13.83
531.067	13.89
531.265	13.95
531.463	14.1
531.661	14.18
531.859	14.24
532.057	14.31
532.255	14.37
532.454	14.47
532.652	14.44
532.85	14.46
533.048	14.55
533.246	14.61
533.444	14.66
533.642	14.64
533.84	14.75
534.038	14.85
534.236	14.96
534.434	15.02
534.632	15.03
534.83	15.09
535.027	15.17
535.225	15.2
535.423	15.29
535.621	15.4
535.819	15.53
536.017	15.54
536.215	15.66
536.412	15.73
536.61	15.86
536.808	16.03
537.006	16.24
537.203	16.38
537.401	16.62
537.599	16.82
537.797	17.07
537.994	17.29
538.192	17.63
538.39	17.96
538.587	18.34
538.785	18.71
538.983	19.08
539.18	19.54
539.378	19.97
539.575	20.36
539.773	20.76
539.97	21.09
540.168	21.46
540.366	21.71
540.563	21.87
540.761	22
540.958	22.13
541.155	22.32
541.353	22.4
541.55	22.53
541.748	22.58
541.945	22.68
542.143	22.74
542.34	22.81
542.537	22.95
542.735	23.12
542.932	23.29
543.129	23.53
543.327	23.95
543.524	24.62
543.721	25.39
543.919	26.3
544.116	27.24
544.313	28.29
544.51	29.3
544.708	30.37
544.905	31.5
545.102	32.65
545.299	33.59
545.496	34.07
545.693	34.32
545.891	34.27
546.088	33.9
546.285	33.47
546.482	32.97
546.679	32.34
546.876	31.53
547.073	30.76
547.27	30.03
547.467	29.3
547.664	28.65
547.861	27.99
548.058	27.5
548.255	27.18
548.452	26.8
548.649	26.4
548.846	26.07
549.043	25.87
549.24	25.61
549.437	25.22
549.633	24.83
549.83	24.57
550.027	24.33
550.224	23.94
550.421	23.65
550.618	23.34
550.814	23.06
551.011	22.84
551.208	22.76
551.405	22.45
551.601	22.12
551.798	21.93
551.995	21.68
552.191	21.38
552.388	21.17
552.585	21.01
552.781	20.86
552.978	20.75
553.175	20.74
553.371	20.51
553.568	20.41
553.764	20.48
553.961	20.53
554.157	20.51
554.354	20.51
554.55	20.45
554.747	20.3
554.943	20.22
555.14	20.16
555.336	19.99
555.533	19.82
555.729	19.59
555.926	19.47
556.122	19.35
556.318	19.27
556.515	19.28
556.711	19.26
556.907	19.33
557.104	19.33
557.3	19.34
557.496	19.26
557.693	19.35
557.889	19.49
558.085	19.37
558.281	19.43
558.478	19.51
558.674	19.56
558.87	19.62
559.066	19.59
559.262	19.57
559.459	19.58
559.655	19.73
559.851	19.81
560.047	19.82
560.243	20
560.439	20
560.635	20.06
560.831	19.94
561.027	19.86
561.223	19.9
561.419	19.96
561.615	20.02
561.811	19.94
562.007	20.07
562.203	20.12
562.399	20.08
562.595	20.01
562.791	20.04
562.987	20.02
563.183	20.15
563.379	20.17
563.575	20.13
563.771	20.12
563.966	20.19
564.162	20.02
564.358	20.03
564.554	19.99
564.75	20.01
564.945	19.92
565.141	20
565.337	19.98
565.533	20.01
565.728	20.11
565.924	19.99
566.12	19.92
566.315	19.99
566.511	19.98
566.707	20.01
566.902	20.02
567.098	20.02
567.293	20.04
567.489	20.02
567.684	19.96
567.88	20.11
568.076	20.13
568.271	20.23
568.467	20.22
568.662	20.29
568.858	20.25
569.053	20.3
569.248	20.26
569.444	20.29
569.639	20.27
569.835	20.33
570.03	20.18
570.225	20.24
570.421	20.16
570.616	20.11
570.812	20.11
571.007	20.21
571.202	20.15
571.397	20.2
571.593	20.18
571.788	20.28
571.983	20.31
572.178	20.29
572.374	20.17
572.569	20.31
572.764	20.37
572.959	20.37
573.154	20.36
573.35	20.35
573.545	20.43
573.74	20.41
573.935	20.35
574.13	20.31
574.325	20.39
574.52	20.77
574.715	20.91
574.91	21.09
575.105	21.35
575.3	21.63
575.495	21.83
575.69	22.04
575.885	22.34
576.08	22.85
576.275	23.23
576.47	23.48
576.665	23.7
576.86	23.91
577.055	24.06
577.25	24.28
577.444	24.51
577.639	24.98
577.834	25.31
578.029	25.64
578.224	25.7
578.418	25.85
578.613	26.23
578.808	26.37
579.003	26.47
579.197	26.59
579.392	26.59
579.587	26.55
579.781	26.45
579.976	26.27
580.171	26.16
580.365	25.95
580.56	25.79
580.755	25.45
580.949	25.37
581.144	25.38
581.338	25.53
581.533	25.53
581.727	25.68
581.922	25.74
582.116	25.84
582.311	25.97
582.505	26.24
582.7	26.48
582.894	26.6
583.089	26.61
583.283	26.66
583.478	26.47
583.672	26.53
583.866	26.39
584.061	26.39
584.255	26.49
584.449	26.51
584.644	26.57
584.838	26.7
585.032	26.84
585.226	27
585.421	27.18
585.615	27.6
585.809	27.79
586.003	28.14
586.198	28.29
586.392	28.44
586.586	28.45
586.78	28.56
586.974	28.35
587.168	28.45
587.363	28.31
587.557	28.13
587.751	27.75
587.945	27.55
588.139	27.13
588.333	26.81
588.527	26.39
588.721	26.14
588.915	25.72
589.109	25.65
589.303	25.34
589.497	25.2
589.691	25.21
589.885	25.22
590.079	25.12
590.273	25.26
590.466	25.43
590.66	25.62
590.854	25.9
591.048	26.24
591.242	26.43
591.436	26.69
591.629	26.98
591.823	27.09
592.017	27.45
592.211	27.74
592.404	27.94
592.598	28.09
592.792	28.2
592.986	28.19
593.179	28.01
593.373	27.8
593.567	27.65
593.76	27.37
593.954	27.09
594.147	26.71
594.341	26.31
594.535	26
594.728	25.5
594.922	25.14
595.115	24.81
595.309	24.63
595.502	24.53
595.696	24.29
595.889	24.07
596.083	24.03
596.276	24.02
596.47	24.04
596.663	24.05
596.856	24.08
597.05	24.37
597.243	24.53
597.437	24.7
597.63	24.88
597.823	25.14
598.017	25.54
598.21	25.73
598.403	25.94
598.596	26.24
598.79	26.57
598.983	27.03
599.176	26.85
599.369	26.91
599.563	26.92
599.756	26.93
599.949	26.86
600.142	26.69
600.335	26.75
600.528	26.67
600.722	26.38
600.915	26.03
601.108	25.7
601.301	25.39
601.494	25.17
601.687	25.02
601.88	24.8
602.073	24.62
602.266	24.47
602.459	24.13
602.652	23.93
602.845	23.91
603.038	23.74
603.231	23.66
603.424	23.88
603.617	23.79
603.809	23.63
604.002	23.56
604.195	23.51
604.388	23.52
604.581	23.67
604.774	23.74
604.966	23.67
605.159	23.83
605.352	23.94
605.545	23.98
605.737	24.21
605.93	24.52
606.123	24.77
606.316	25.07
606.508	25.38
606.701	25.68
606.894	26.04
607.086	26.41
607.279	26.9
607.471	27.43
607.664	28
607.857	28.73
608.049	29.76
608.242	30.93
608.434	32.7
608.627	34.88
608.819	37.24
609.012	40.1
609.204	43.45
609.397	47.04
609.589	50.88
609.782	55.11
609.974	59.41
610.166	63.63
610.359	67.95
610.551	71.51
610.743	74.6
610.936	77.47
611.128	79.34
611.32	80.47
611.513	80.94
611.705	80.9
611.897	80.16
612.09	78.55
612.282	76.72
612.474	74.51
612.666	72.11
612.858	69.94
613.051	67.43
613.243	65.09
613.435	63.02
613.627	60.98
613.819	58.92
614.011	56.99
614.203	55.54
614.395	53.59
614.588	51.71
614.78	50.27
614.972	48.22
615.164	46.33
615.356	44.8
615.548	43.44
615.74	42
615.932	40.57
616.124	39.22
616.315	37.75
616.507	36.69
616.699	35.74
616.891	34.73
617.083	33.91
617.275	33.39
617.467	32.58
617.659	31.96
617.85	31.45
618.042	31.13
618.234	30.83
618.426	30.3
618.618	30.13
618.809	29.56
619.001	29.29
619.193	29.17
619.384	28.91
619.576	29.01
619.768	28.76
619.959	28.64
620.151	28.39
620.343	28.54
620.534	28.75
620.726	28.91
620.917	29.33
621.109	29.39
621.301	29.42
621.492	29.69
621.684	29.99
621.875	30.14
622.067	30.06
622.258	30.25
622.45	30.07
622.641	30.15
622.832	30.17
623.024	30.24
623.215	30.67
623.407	30.87
623.598	30.77
623.789	30.64
623.981	30.56
624.172	30.74
624.363	30.85
624.555	31.06
624.746	30.94
624.937	31
625.129	30.91
625.32	30.59
625.511	30.52
625.702	30.42
625.893	30.14
626.085	30.1
626.276	30.17
626.467	30.06
626.658	29.86
626.849	29.92
627.04	29.71
627.231	29.84
627.422	29.79
627.614	29.63
627.805	29.76
627.996	30.05
628.187	30.36
628.378	30.55
628.569	30.87
628.76	31.39
628.951	31.69
629.142	32.26
629.332	32.66
629.523	33.17
629.714	33.86
629.905	34.48
630.096	34.86
630.287	35.18
630.478	35.2
630.669	35.13
630.859	34.85
631.05	34.57
631.241	34.02
631.432	33.4
631.623	32.71
631.813	31.93
632.004	30.95
632.195	30.11
632.385	29.21
632.576	28.52
632.767	27.95
632.957	27.36
633.148	27.16
633.339	26.6
633.529	26.29
633.72	26.08
633.91	25.96
634.101	25.67
634.292	25.51
634.482	25.37
634.673	25.43
634.863	25.25
635.054	25.27
635.244	25.06
635.435	25.1
635.625	24.92
635.815	24.72
636.006	24.64
636.196	24.74
636.387	24.88
636.577	25.06
636.767	24.93
636.958	25.02
637.148	24.99
637.338	24.93
637.529	24.82
637.719	24.71
637.909	24.9
638.099	24.73
638.29	24.62
638.48	24.63
638.67	24.47
638.86	24.41
639.05	24.31
639.241	24.41
639.431	24.32
639.621	24.6
639.811	24.9
640.001	24.93
640.191	25.24
640.381	25.31
640.571	24.93
640.761	25
640.951	24.95
641.141	25.05
641.331	24.98
641.521	25.04
641.711	24.83
641.901	24.67
642.091	24.54
642.281	24.24
642.471	24.21
642.661	24.37
642.851	24.3
643.041	24.47
643.231	24.48
643.42	24.5
643.61	24.57
643.8	24.73
643.99	24.84
644.18	24.92
644.369	24.91
644.559	25.03
644.749	25.25
644.939	25.26
645.128	25
645.318	25.1
645.508	25.27
645.697	25.27
645.887	25.33
646.076	25.26
646.266	25.17
646.456	25.25
646.645	25.28
646.835	25.11
647.024	25.38
647.214	25.45
647.403	25.38
647.593	25.13
647.782	25.27
647.972	25.36
648.161	25.45
648.351	25.58
648.54	25.99
648.73	26.46
648.919	26.65
649.108	26.76
649.298	27.11
649.487	27.29
649.677	27.55
649.866	27.36
650.055	27.35
650.244	27.38
650.434	27.45
650.623	27.25
650.812	26.87
651.002	26.77
651.191	26.4
651.38	26.33
651.569	26.29
651.758	26.21
651.947	26.34
652.137	26.12
652.326	26.25
652.515	26.23
652.704	26.23
652.893	26.13
653.082	26.38
653.271	26.58
653.46	26.51
653.649	26.41
653.838	26.39
654.027	26.3
654.216	26.73
654.405	26.5
654.594	26.48
654.783	26.33
654.972	26.02
655.161	25.9
655.35	25.7
655.539	25.64
655.728	25.59
655.916	25.47
656.105	25.44
656.294	25.14
656.483	25.09
656.672	25.12
656.86	25.03
657.049	25.1
657.238	24.71
657.427	24.81
657.615	24.63
657.804	24.48
657.993	24.33
658.181	24.37
658.37	24.19
658.559	24.13
658.747	24.14
658.936	24.06
659.125	24.26
659.313	24.51
659.502	24.3
659.69	24.34
659.879	24.44
660.067	24.59
660.256	24.52
660.444	24.51
660.633	24.79
660.821	24.73
661.01	24.87
661.198	25.05
661.387	25.08
661.575	25.4
661.763	25.69
661.952	26.03
662.14	26.05
662.328	26.16
662.517	26.5
662.705	26.47
662.893	26.67
663.082	26.83
663.27	26.92
663.458	27.02
663.646	27.08
663.834	26.79
664.023	26.59
664.211	26.54
664.399	26.62
664.587	26.56
664.775	26.69
664.963	26.66
665.152	26.75
665.34	26.51
665.528	26.41
665.716	26.45
665.904	26.62
666.092	26.41
666.28	26.46
666.468	26.05
666.656	26.02
666.844	25.88
667.032	25.69
667.22	25.76
667.408	25.44
667.596	25.05
667.784	24.68
667.971	24.74
668.159	24.78
668.347	24.7
668.535	25.07
668.723	24.93
668.911	24.76
669.098	24.69
669.286	24.37
669.474	24.48
669.662	24.59
669.849	24.79
670.037	24.59
670.225	24.54
670.413	24.59
670.6	24.72
670.788	24.84
670.976	24.87
671.163	25.05
671.351	25.14
671.538	25.24
671.726	25.4
671.913	25.62
672.101	25.41
672.289	25.48
672.476	25.42
672.664	25.44
672.851	25.61
673.039	25.72
673.226	25.53
673.413	25.46
673.601	25.44
673.788	25.47
673.976	25.2
674.163	25.47
674.35	25.28
674.538	25.18
674.725	25.23
674.912	25.31
675.1	25.05
675.287	25.28
675.474	25.22
675.662	25.46
675.849	25.34
676.036	25.25
676.223	25.24
676.411	25.26
676.598	25.44
676.785	25.2
676.972	24.99
677.159	25.11
677.346	24.97
677.533	25.03
677.721	24.84
677.908	24.97
678.095	25.16
678.282	25.28
678.469	25.42
678.656	25.38
678.843	25.42
679.03	25.55
679.217	25.72
679.404	25.71
679.591	25.76
679.778	25.51
679.964	25.46
680.151	25.35
680.338	25.2
680.525	25.2
680.712	25.49
680.899	25.93
681.086	25.76
681.272	25.65
681.459	25.25
681.646	25.39
681.833	25.43
682.02	25.47
682.206	25.23
682.393	25.55
682.58	25.5
682.766	25.35
682.953	24.66
683.14	24.42
683.326	24.51
683.513	25.28
683.7	24.85
683.886	25.02
684.073	25.06
684.259	25.66
684.446	25.31
684.632	25.39
684.819	25.37
685.005	25.95
685.192	26.25
685.378	26.31
685.565	26.17
685.751	26.74
685.938	26.92
686.124	27.16
686.31	27.21
686.497	27.56
686.683	27.68
686.87	27.71
687.056	27.41
687.242	27.54
687.429	27.54
687.615	27.18
687.801	26.93
687.987	27.31
688.174	27.04
688.36	26.87
688.546	26.94
688.732	27.04
688.918	26.89
689.105	26.77
689.291	26.44
689.477	26.27
689.663	26.58
689.849	26.6
690.035	26.24
690.221	25.99
690.407	25.59
690.593	25.14
690.779	24.89
690.965	24.78
691.151	24.68
691.337	24.99
691.523	24.96
691.709	25.06
691.895	25.31
692.081	25.44
692.267	25.71
692.453	25.99
692.639	26.25
692.825	26.36
693.011	26.49
693.196	26.63
693.382	26.6
693.568	26.83
693.754	27.06
693.94	26.98
694.125	26.77
694.311	26.94
694.497	26.85
694.682	27.02
694.868	27.16
695.054	27.04
695.239	27.02
695.425	26.53
695.611	26.19
695.796	25.57
695.982	25.8
696.168	25.78
696.353	25.38
696.539	25.2
696.724	24.72
696.91	24.37
697.095	24.35
697.281	24.24
697.466	24.55
697.652	24.67
697.837	24.83
698.023	24.4
698.208	24.12
698.393	24.29
698.579	24.36
698.764	24.53
698.949	24.43
699.135	24.12
699.32	24.17
699.505	23.98
699.691	23.96
699.876	23.9
700.061	23.95
700.246	24.14
700.432	24.38
700.617	24.42
700.802	24.2
700.987	24.8
701.172	25.3
701.358	25.51
701.543	25.77
701.728	26.03
701.913	26.54
702.098	26.63
702.283	26.57
702.468	26.39
702.653	26.61
702.838	27.11
703.023	27.09
703.208	27.37
703.393	27.58
703.578	28.02
703.763	28.12
703.948	28.05
704.133	29.04
704.318	29.65
704.503	29.83
704.688	30.63
704.873	31.18
705.057	31.57
705.242	32.23
705.427	33.26
705.612	33.55
705.797	34.21
705.981	34.84
706.166	35.16
706.351	35.73
706.536	36.76
706.72	36.83
706.905	37.21
707.09	37.96
707.274	38.23
707.459	37.87
707.644	38.32
707.828	38.62
708.013	38.59
708.197	38.38
708.382	38.3
708.567	38.24
708.751	37.85
708.936	37.29
709.12	36.49
709.305	36.22
709.489	35.78
709.673	35.13
709.858	34.46
710.042	34.3
710.227	34.22
710.411	34.01
710.596	33.68
710.78	33.85
710.964	33.98
711.149	34
711.333	34.39
711.517	34.74
711.702	35.54
711.886	35.51
712.07	35.13
712.254	34.57
712.438	34.35
712.623	34.13
712.807	33.21
712.991	32.95
713.175	32.58
713.359	31.44
713.544	30.85
713.728	29.65
713.912	28.9
714.096	28.96
714.28	28.28
714.464	27.8
714.648	27.4
714.832	27.57
715.016	27.14
715.2	26.89
715.384	27
715.568	26.78
715.752	26.28
715.936	26.48
716.12	25.58
716.304	25.6
716.488	25.77
716.671	25.18
716.855	24.71
717.039	24.88
717.223	24.39
717.407	23.5
717.59	23.15
717.774	23.53
717.958	23.62
718.142	23.96
718.325	24.3
718.509	24.23
718.693	24.38
718.877	24.55
719.06	24.13
719.244	24.45
719.428	25.1
719.611	25.41
719.795	25.58
719.978	25.27
720.162	25.81
720.345	25.99
720.529	25.81
720.713	26.43
720.896	26.35
721.08	26.28
721.263	25.7
721.446	25.46
721.63	25.34
721.813	25
721.997	24.61
722.18	23.99
722.364	23.77
722.547	23.45
722.73	22.73
722.914	23.09
723.097	23.37
723.28	23.96
723.464	24.25
723.647	24.91
723.83	24.71
724.013	25.16
724.197	25.46
724.38	25.59
724.563	25.85
724.746	26.51
724.929	26.88
725.112	26.3
725.296	26.58
725.479	26.38
725.662	25.75
725.845	25.14
726.028	24.99
726.211	24.96
726.394	25.35
726.577	25.38
726.76	25.27
726.943	24.74
727.126	25.19
727.309	25.14
727.492	25.16
727.675	25.1
727.858	25.64
728.041	25.82
728.224	25.53
728.407	24.94
728.589	24.69
728.772	24.42
728.955	24.19
729.138	24.18
729.321	23.83
729.503	23.46
729.686	23.28
729.869	23.22
730.052	23.12
730.234	23.29
730.417	23.09
730.6	23.16
730.782	23.04
730.965	23.61
731.148	23.42
731.33	23.39
731.513	24.33
731.695	24.42
731.878	24.24
732.061	24.59
732.243	24.56
732.426	24.95
732.608	24.88
732.791	25.38
732.973	25.11
733.156	25.35
733.338	25.68
733.52	25.21
733.703	24.66
733.885	25.38
734.068	24.83
734.25	25.22
734.432	25.55
734.615	25.55
734.797	25.34
734.979	25.29
735.162	25.28
735.344	25.58
735.526	25.7
735.708	26.28
735.891	25.95
736.073	26.21
736.255	25.62
736.437	24.88
736.619	25.43
736.802	25.56
736.984	25.15
737.166	25.21
737.348	25.42
737.53	25.73
737.712	26.01
737.894	26.44
738.076	26.34
738.258	26.76
738.44	27.05
738.622	27.05
738.804	26.71
738.986	27.56
739.168	27.73
739.35	27.21
739.532	27.24
739.714	27.24
739.896	26.88
740.078	27.4
740.259	27.08
740.441	27.24
740.623	26.84
740.805	27.63
740.987	27.26
741.168	27.7
741.35	28.03
741.532	28.23
741.714	28.62
741.895	28.34
742.077	28.39
742.259	28.25
742.44	28.22
742.622	28.86
742.804	28.34
742.985	28.78
743.167	27.74
743.348	27.35
743.53	27.14
743.711	26.7
743.893	27.74
744.075	27.74
744.256	27.87
744.438	27.56
744.619	27.85
744.8	27.85
744.982	27.48
745.163	28.37
745.345	27.74
745.526	27.63
745.707	27.79
745.889	27.36
746.07	27.22
746.252	27.92
746.433	28.29
746.614	27.98
746.795	28.15
746.977	28.82
747.158	28.98
747.339	29.98
747.52	30.14
747.702	30.05
747.883	29.91
748.064	30.26
748.245	30.17
748.426	30.56
748.607	30.38
748.788	30.52
748.97	30.27
749.151	29.78
749.332	29.58
749.513	29.32
749.694	30.09
749.875	30.36
750.056	29.86
750.237	29.63
750.418	29.5
750.599	29.97
750.78	30.05
750.96	30.12
751.141	30.27
751.322	30.29
751.503	29.94
751.684	28.71
751.865	28.7
752.046	28.32
752.226	28.11
752.407	27.51
752.588	27.2
752.769	27.3
752.949	27.42
753.13	26.92
753.311	26.95
753.492	27.41
753.672	28.74
753.853	28.58
754.034	29.23
754.214	29.52
754.395	29.83
754.575	29.76
754.756	29.27
754.937	29.08
755.117	30.41
755.298	30.92
755.478	30.14
755.659	29.55
755.839	29.8
756.02	29.97
756.2	30.05
756.381	29.83
756.561	29.33
756.741	29.43
756.922	29.29
757.102	28.56
757.283	28.53
757.463	28.84
757.643	28.79
757.823	28.69
758.004	28.02
758.184	27.74
758.364	27.15
758.545	27.37
758.725	26.81
758.905	25.91
759.085	24.93
759.265	24.53
759.446	24.59
759.626	23.92
759.806	23.79
759.986	23.81
760.166	23.93
760.346	24.63
760.526	24.34
760.706	24.28
760.886	24.7
761.066	25.22
761.246	24.97
761.426	24.84
761.606	24.97
761.786	24.68
761.966	24.34
762.146	24.59
762.326	24.82
762.506	24.92
762.686	25.24
762.866	25.04
763.046	24.7
763.225	24.97
763.405	24.65
763.585	25.22
763.765	25.34
763.945	25.58
764.124	25.01
764.304	25.14
764.484	25.29
764.664	25.46
764.843	25.65
765.023	26.21
765.203	25.82
765.382	26.56
765.562	26.09
765.741	26.37
765.921	26.39
766.101	26.94
766.28	26.13
766.46	26.36
766.639	27
766.819	26.94
766.998	26.76
767.178	27.08
767.357	26.91
767.537	27.42
767.716	27.85
767.896	28.72
768.075	28.8
768.254	28.96
768.434	29.16
768.613	28.51
768.792	28.64
768.972	28.36
769.151	29.02
769.33	29.41
769.51	29.47
769.689	28.98
769.868	27.99
770.047	28.26
770.226	29
770.406	28.46
770.585	28.51
770.764	29.55
770.943	29.88
771.122	29.25
771.301	30.13
771.48	30.22
771.66	30.25
771.839	31.07
772.018	31.27
772.197	30.66
772.376	31.13
772.555	30.97
772.734	30.27
772.913	30.63
773.092	31.3
773.271	30.73
773.449	29.71
773.628	30.47
773.807	29.72
773.986	28.61
774.165	29.7
774.344	30.22
774.523	30.71
774.701	31.37
774.88	32.01
775.059	31.5
775.238	31.65
775.417	31.96
775.595	32.43
775.774	31.98
775.953	32.34
776.131	33.04
776.31	32.44
776.489	32.18
776.667	30.99
776.846	31.33
777.025	31.08
777.203	30.25
777.382	30.56
777.56	28.54
777.739	30.37
777.917	30.96
778.096	28.98
778.274	28.4
778.453	27.77
778.631	28.78
778.81	27.32
778.988	27.54
779.166	28.07
779.345	27.8
779.523	28.01
779.702	26.8
779.88	25.96
780.058	26.37
780.237	26.05
780.415	27.48
780.593	26.77
780.771	26.96
780.95	26.91
781.128	26.92
781.306	27.51
781.484	27.55
781.662	28.23
781.841	28.12
782.019	28.28
782.197	28.09
782.375	27.48
782.553	27.39
782.731	28.17
782.909	28.42
783.087	28.52
783.265	28.06
783.443	28.08
783.621	27.51
783.799	28.04
783.977	28.03
784.155	29.13
784.333	29.21
784.511	30.42
784.689	29.79
784.867	29.89
785.045	28.66
785.223	28.68
785.4	29.06
785.578	29.88
785.756	29.61
785.934	29.01
786.112	28.72
786.289	28.25
786.467	27.19
786.645	27.12
786.823	26.55
787	27.27
787.178	27.12
787.356	26.38
787.533	25.98
787.711	25.66
787.889	26.15
788.066	25.8
788.244	26.33
788.421	25.5
788.599	25.41
788.776	26
788.954	26.66
789.131	26.67
789.309	27.2
789.486	27.52
789.664	28.62
789.841	28.8
790.019	30.15
790.196	29.73
790.373	31.05
790.551	31.93
790.728	31.74
790.906	30.31
791.083	30.36
791.26	31.84
791.437	31.01
791.615	30.9
791.792	31.63
791.969	30.99
792.146	30.28
792.324	30.24
792.501	30.3
792.678	30.61
792.855	31.16
793.032	31.94
793.209	30.98
793.387	30.52
793.564	30.24
793.741	30.32
793.918	29.94
794.095	31.34
794.272	31.45
794.449	30.71
794.626	30.97
794.803	31.43
794.98	30.82
795.157	30.59
795.334	31.17
795.511	30.8
795.688	30.85
795.864	31.82
796.041	31.47
796.218	30.86
796.395	30.29
796.572	29.21
796.749	29.56
796.925	29.21
797.102	28.86
797.279	29.53
797.456	30.22
797.632	29.71
797.809	28.54
797.986	27.85
798.162	28.15
798.339	29.15
798.516	29.97
798.692	28.89
798.869	29.49
799.046	30.04
799.222	28.94
799.399	27.84
799.575	28.17
799.752	28.78
799.928	29.89
800.105	28.86
800.281	29.54
800.458	28.87
800.634	29.3
800.811	28.85
800.987	29.07
801.163	29.44
801.34	29.25
801.516	29.03
801.692	29.28
801.869	29.92
802.045	31.86
802.221	31.42
802.398	31.52
802.574	30.11
802.75	29.41
802.926	29.62
803.103	29.29
803.279	30.1
803.455	28.51
803.631	26.97
803.807	24.77
803.983	24.98
804.16	24.53
804.336	24.61
804.512	25.46
804.688	26.5
804.864	24.78
805.04	25.08
805.216	24.21
805.392	26.71
805.568	27.42
805.744	28.54
805.92	27.78
806.096	28.05
806.272	26.88
806.448	26.95
806.623	27.96
806.799	28.4
806.975	28.43
807.151	28.68
807.327	27.63
807.503	26.49
807.678	25.86
807.854	26.3
808.03	25.34
808.206	26.23
808.381	26.02
808.557	25.03
808.733	26.21
808.908	27.16
809.084	28.38
809.26	28.79
809.435	30.56
809.611	32.42
809.787	31.5
809.962	31.84
810.138	33.19
810.313	34.86
810.489	36.52
810.664	36.48
810.84	36.73
811.015	34.84
811.191	33.4
811.366	32.15
811.542	31.18
811.717	30.46
811.892	30.64
812.068	29.06
812.243	26.94
812.419	26.31
812.594	25.33
812.769	22.94
812.944	24.79
813.12	26.09
813.295	25.72
813.47	24.36
813.645	25.87
813.821	26.46
813.996	25.71
814.171	26.28
814.346	25.15
814.521	24.55
814.697	25.36
814.872	23.36
815.047	22.66
815.222	25.08
815.397	24.53
815.572	24.29
815.747	23.6
815.922	24.52
816.097	25.41
816.272	25.65
816.447	25.85
816.622	27.34
816.797	29.39
816.972	30.43
817.147	29.41
817.322	30.56
817.496	30.49
817.671	29.59
817.846	29.14
818.021	28.26
818.196	28.19
818.371	26.69
818.545	26.64
818.72	26.43
818.895	26.23
819.069	26.41
819.244	24.81
819.419	23.99
819.594	24.68
819.768	25.4
819.943	24.77
820.117	24.44
820.292	25.34
820.467	24.34
820.641	24.39
820.816	23.18
820.99	22.8
821.165	22.75
821.339	23.19
821.514	23.49
821.688	23.03
821.863	23.21
822.037	22.89
822.212	22.61
822.386	22.62
822.56	22.29
822.735	22.3
822.909	22.33
823.084	22.41
823.258	22.06
823.432	21.72
823.606	21.6
823.781	21.84
823.955	21.68
824.129	22.07
824.303	21.8
824.478	22.11
824.652	22.34
824.826	21.79
825	21.72
825.174	22.07
825.348	22.5
825.523	23.06
825.697	22.25
825.871	23.13
826.045	22.85
826.219	23.82
826.393	23.33
826.567	23.62
826.741	24.35
826.915	24.39
827.089	24.4
827.263	24.01
827.437	24.22
827.611	24.59
827.784	24.53
827.958	24.4
828.132	24.37
828.306	24.84
828.48	24.8
828.654	25.28
828.827	25.92
829.001	26.12
829.175	26.8
829.349	26.13
829.522	25.83
829.696	25.73
829.87	25.38
830.044	24.84
830.217	24.69
830.391	23.04
830.565	21.95
830.738	21.8
830.912	21.52
831.085	21.84
831.259	22.98
831.432	22.73
831.606	24.08
831.779	23.72
831.953	24.38
832.126	24.02
832.3	26.48
832.473	26.76
832.647	26.64
832.82	26.62
832.994	25.82
833.167	25.45
833.34	25.1
833.514	24.02
833.687	24.95
833.86	24.65
834.034	24.38
834.207	24.33
834.38	23.77
834.553	23.96
834.727	23.38
834.9	22.67
835.073	22.46
835.246	23.12
835.419	23.53
835.593	23.76
835.766	24.69
835.939	24.65
836.112	23.66
836.285	24.26
836.458	23.11
836.631	23.56
836.804	24.84
836.977	24.98
837.15	25.19
837.323	24.6
837.496	24.96
837.669	24.76
837.842	26.58
838.015	28.28
838.188	29.98
838.361	31.59
838.533	31.62
838.706	32.36
838.879	32.68
839.052	35.14
839.225	36.1
839.398	35.49
839.57	33.98
839.743	33.58
839.916	33.19
840.088	32.06
840.261	32.72
840.434	32.87
840.607	32.09
840.779	34.78
840.952	32.16
841.124	31.34
841.297	31.08
841.47	29.47
841.642	29.66
841.815	31.71
841.987	32.14
842.16	30.82
842.332	30.64
842.505	30.71
842.677	27.74
842.85	27.43
843.022	30.59
843.194	28.41
843.367	30.73
843.539	29.68
843.712	26.56
843.884	28.88
844.056	29.27
844.229	30.27
844.401	30.5
844.573	28.88
844.745	32.02
844.918	31.79
845.09	37.11
845.262	37.74
845.434	35.23
845.606	35.64
845.779	32.44
845.951	34.94
846.123	36.21
846.295	36.33
846.467	40.95
846.639	40.48
846.811	41.24
846.983	41.97
847.155	38.61
847.327	41.01
847.499	41.28
847.671	39.21
847.843	38.53
848.015	40.32
848.187	40.47
848.359	34.01
848.531	36.28
848.703	35.7
848.875	32.23
849.047	36.59
849.218	41.56
849.39	40.7
849.562	43.84
849.734	43.61
849.905	43.34
850.077	42.56
850.249	45.62
850.421	49.68
850.592	47.61
850.764	46.77
850.936	42.43
851.107	37.53
851.279	38.85
851.451	39.32
851.622	35.48
851.794	32.96
851.965	37.93
852.137	37.9
852.308	31.74
852.48	30.21
852.651	36.34
852.823	40.99
852.994	40.8
853.166	40.34
853.337	38.93
853.509	40.86
853.68	42.92
853.851	37.05
854.023	39.36
854.194	40.35
854.365	43.54
854.537	38.89
854.708	41.93
854.879	41.34
855.05	42.06
855.222	43.03
855.393	43.93
855.564	41.22
855.735	41.86
855.906	41.68
856.078	39.68
856.249	32.33
856.42	34.68
856.591	30.64
856.762	33.43
856.933	28.04
857.104	27.69
857.275	28.16
857.446	28.72
857.617	29.97
857.788	31.84
857.959	35.65
858.13	43.83
858.301	41.25
858.472	37.42
858.643	36.74
858.814	38.84
858.985	36.46
859.155	31.54
859.326	31.52
859.497	30.16
859.668	25.03
859.839	20.65
860.009	16.03
860.18	13.8
860.351	21.92
860.522	19.99
860.692	20.44
860.863	23.72
861.034	27.46
861.204	28.57
861.375	31.41
861.546	37.47
861.716	36.68
861.887	37.9
862.057	42.55
862.228	40.16
862.398	38.29
862.569	41.26
862.739	47.63
862.91	45.85
863.08	44.33
863.251	41.46
863.421	39.52
863.592	40.46
863.762	39.64
863.932	36.76
864.103	36.85
864.273	44.24
864.443	47.51
864.614	31.85
864.784	35.07
864.954	39.05
865.125	42.8
865.295	44.2
865.465	43.36
865.635	39.81
865.805	42.28
865.976	45.4
866.146	42.72
866.316	35.93
866.486	40.35
866.656	39.74
866.826	41.46
866.996	38.82
867.166	37.01
867.336	36.65
867.506	39.73
867.676	40.83
867.846	38.26
868.016	38.28
868.186	40.58
868.356	41.66
868.526	39.75
868.696	36.33
868.866	40.43
869.036	36.32
869.206	37.78
869.376	46.3
869.545	41.81
869.715	39.98
869.885	38.73
870.055	42.83
870.224	42.3
870.394	44.7
870.564	46.38
870.734	47.98
870.903	55.64
871.073	54.27
871.243	42.4
871.412	39.81
871.582	40.86
871.751	36.35
871.921	27.19
872.091	22.69
872.26	26.76
872.43	21.86
872.599	14.05
872.769	7.99
872.938	4.89
873.108	11.33
873.277	18.85
873.446	13.39
873.616	18.61
873.785	29.38
873.955	29.13
874.124	27.69
874.293	29.1
874.463	31.14
874.632	31.03
874.801	39.18
874.971	36.26
875.14	30.94
875.309	34.44
875.478	34.69
875.647	24.94
875.817	27.43
875.986	27.11
876.155	27.06
876.324	28.82
876.493	31.88
876.662	26.19
876.831	29.44
877	36.07
877.17	31.26
877.339	29.75
877.508	30.47
877.677	38.33
877.846	37.13
878.015	41.34
878.184	39.85
878.352	37.32
878.521	36.55
878.69	33.25
878.859	27.58
879.028	29.96
879.197	28.31
879.366	25.25
879.534	20.16
879.703	18.09
879.872	17.11
880.041	15.73
880.21	15.75
880.378	17.66
880.547	19.16
880.716	22.09
880.884	22.12
881.053	23.84
881.222	26.27
881.39	26.17
881.559	25.71
881.727	25.47
881.896	25.51
882.065	25.58
882.233	24.87
882.402	24.56
882.57	23.58
882.739	23.23
882.907	22.61
883.076	21.25
883.244	20.87
883.412	22.03
883.581	21.46
883.749	21.2
883.918	21.88
884.086	22.29
884.254	21.59
884.423	21.48
884.591	22.23
884.759	22.83
884.927	22.6
885.096	23.26
885.264	22.54
885.432	23.35
885.6	23.7
885.769	22.76
885.937	24.13
886.105	24.97
886.273	27.37
886.441	27.56
886.609	27.61
886.777	28.48
886.945	29.05
887.113	27.11
887.281	30.71
887.449	34.08
887.617	33.36
887.785	32.05
887.953	37.3
888.121	32.91
888.289	33.65
888.457	31.03
888.625	34.02
888.793	33.42
888.961	37.7
889.129	32.58
889.296	34.05
889.464	35.69
889.632	34.48
889.8	29.14
889.967	34.19
890.135	33.29
