Data from 2938776__Reflection_03.txt Node
Date: Fri Mar 13 13:55:49 EDT 2015
User: robert
Spectrometer: USB4E03002
Autoset integration time: false
Trigger mode: 4
Integration Time (sec): 1.000000E-1
Scans to average: 10
Electric dark correction enabled: false
Nonlinearity correction enabled: false
Boxcar width: 5
Stray light correction enabled: false
XAxis mode: Wavelengths
Stop averaging: false
Number of Pixels in Spectrum: 3648
>>>>>Begin Spectral Data<<<<<
177.575	-84.03
177.794	-339.73
178.014	-1133.33
178.233	647.76
178.452	1135.14
178.672	184.09
178.891	201.22
179.11	852.17
179.33	-249.25
179.549	-125.4
179.768	-983.33
179.987	562.69
180.207	1322.22
180.426	666.15
180.645	-1002.86
180.864	-570.97
181.084	-199.21
181.303	-265.89
181.522	-1444.68
181.741	4946.67
181.96	259.37
182.179	190.72
182.398	126.75
182.618	85.51
182.837	106.27
183.056	57.18
183.275	52.55
183.494	45.45
183.713	13.87
183.932	-14.86
184.151	-8.7
184.37	-109.96
184.589	-209.55
184.808	-364.44
185.027	-27.72
185.246	-51.91
185.465	-21.67
185.684	-23.34
185.903	-42.69
186.122	-2.91
186.341	15.75
186.56	15.41
186.779	42.02
186.998	74.14
187.216	105.19
187.435	234.75
187.654	130.11
187.873	96.81
188.092	82.47
188.311	167.05
188.53	197.12
188.748	817.19
188.967	-1487.5
189.186	328.26
189.405	377.7
189.623	207.25
189.842	164.73
190.061	180.53
190.28	251.14
190.498	187.01
190.717	148.27
190.936	144.46
191.154	106.34
191.373	100.62
191.592	94.99
191.81	79.45
192.029	59.53
192.248	62.05
192.466	50
192.685	35.54
192.904	20.7
193.122	-38.5
193.341	-106.81
193.559	-230
193.778	-64.16
193.996	-116.42
194.215	-1172
194.433	-248.6
194.652	-224.32
194.87	-261.7
195.089	-6240
195.307	-1088.46
195.526	124.3
195.744	-55.32
195.963	53.01
196.181	59.92
196.399	64.27
196.618	68.56
196.836	121.74
197.055	101.3
197.273	169.23
197.491	397.06
197.71	240.74
197.928	132.4
198.146	147.46
198.365	81.33
198.583	-106.06
198.801	119.21
199.019	145.86
199.238	113.39
199.456	91.22
199.674	99.34
199.892	122.76
200.111	149.45
200.329	135.24
200.547	111.08
200.765	109.48
200.983	70.78
201.202	180.37
201.42	247.92
201.638	-686.96
201.856	-132.99
202.074	-385.37
202.292	6.32
202.51	-0.78
202.728	39.57
202.946	73.83
203.165	171.43
203.383	6300
203.601	104.93
203.819	114.85
204.037	82.89
204.255	122.12
204.473	56.97
204.691	62.43
204.909	12.56
205.127	-43.1
205.345	-58.28
205.562	-100.33
205.78	-8.66
205.998	7.42
206.216	12.59
206.434	11.83
206.652	35.07
206.87	18.04
207.088	31.2
207.306	69.7
207.523	59.64
207.741	54.67
207.959	65.4
208.177	36.55
208.395	-10.88
208.612	-18.24
208.83	-33.6
209.048	-161.73
209.266	-1336.67
209.483	1644.12
209.701	2352
209.919	-759.38
210.136	-9000
210.354	1338.89
210.572	297.27
210.79	-263.55
211.007	-73.21
211.225	-340.68
211.442	-35.61
211.66	6.64
211.878	28.42
212.095	185.44
212.313	212.59
212.53	188.84
212.748	150.91
212.966	123.52
213.183	147.93
213.401	124.33
213.618	110.46
213.836	106.2
214.053	112.58
214.271	118.08
214.488	0.12
214.705	-1.65
214.923	6.65
215.14	22.17
215.358	3.94
215.575	16.87
215.793	26.81
216.01	23.43
216.227	24.7
216.445	32.37
216.662	28.81
216.879	27.26
217.097	28.35
217.314	25.51
217.531	25
217.749	38.34
217.966	27.18
218.183	21.69
218.4	5.01
218.618	9.83
218.835	1.41
219.052	-8.14
219.269	-4.24
219.487	-28.49
219.704	-16.26
219.921	-22.85
220.138	-16.69
220.355	-14.96
220.572	-9.45
220.79	-4.73
221.007	-12.69
221.224	-11.48
221.441	-13.2
221.658	-11.37
221.875	-1.85
222.092	-4.9
222.309	-7.8
222.526	-14.67
222.743	-15.58
222.96	-11.64
223.177	-9.03
223.394	-9.51
223.611	-12.93
223.828	-5.61
224.045	-9.19
224.262	-4.11
224.479	1.39
224.696	3.58
224.913	5.24
225.13	6.4
225.347	6.34
225.564	8.08
225.781	8.41
225.997	6.73
226.214	7.22
226.431	9.35
226.648	3.96
226.865	4.78
227.082	2.86
227.298	2.45
227.515	1.26
227.732	1.66
227.949	-0.39
228.165	0.07
228.382	0.54
228.599	-0.88
228.816	-0.67
229.032	-0.71
229.249	-1.49
229.466	-0.62
229.682	-1.23
229.899	-1.58
230.116	-2.6
230.332	-2.18
230.549	-2.51
230.765	-2.04
230.982	-1.59
231.199	-1.58
231.415	0.28
231.632	0.91
231.848	1.24
232.065	0.46
232.281	1.59
232.498	1.25
232.714	1.99
232.931	2.29
233.147	1.62
233.364	2.63
233.58	0.92
233.797	-1.86
234.013	-2.53
234.23	-3.37
234.446	-2.01
234.662	-2.81
234.879	-2.53
235.095	-2.21
235.312	-0.07
235.528	-1.21
235.744	-3.65
235.961	-1.87
236.177	-1.17
236.393	-1.08
236.61	-1.84
236.826	-2.4
237.042	-1.92
237.258	-2.2
237.475	-3.22
237.691	-6.09
237.907	-5.4
238.123	-1.88
238.339	-3.47
238.556	-2.51
238.772	-2.85
238.988	-1.5
239.204	-0.04
239.42	1.29
239.636	1.87
239.853	1.95
240.069	3.4
240.285	3.09
240.501	2.78
240.717	3.32
240.933	2.92
241.149	2.26
241.365	1.91
241.581	1.08
241.797	0.22
242.013	0.85
242.229	1.03
242.445	0.56
242.661	0.82
242.877	0.33
243.093	0.07
243.309	-0.08
243.525	0.14
243.741	0.2
243.957	0.42
244.173	0.54
244.388	0.14
244.604	-0.4
244.82	0.01
245.036	-0.04
245.252	-0.24
245.468	0.06
245.683	0.45
245.899	0.07
246.115	0.4
246.331	0.71
246.547	0.56
246.762	0.48
246.978	0.51
247.194	0.58
247.409	0.7
247.625	0.57
247.841	0.38
248.057	0
248.272	0.29
248.488	0.14
248.703	0.26
248.919	0.34
249.135	0.23
249.35	0.94
249.566	0.75
249.782	0.85
249.997	1.33
250.213	1.5
250.428	2.08
250.644	1.79
250.859	1.27
251.075	1.14
251.29	0.88
251.506	1.42
251.721	0.67
251.937	0.08
252.152	-0.73
252.368	-0.11
252.583	-0.18
252.798	-0.16
253.014	-0.1
253.229	0.06
253.445	-0.78
253.66	-0.57
253.875	-0.84
254.091	-1.74
254.306	-1.14
254.521	-0.57
254.737	-1
254.952	-0.87
255.167	-1.6
255.383	-0.96
255.598	-1.45
255.813	-0.32
256.028	-0.16
256.244	-1.38
256.459	-1.19
256.674	-2.25
256.889	-2.56
257.104	-3.23
257.32	-2.5
257.535	-2.37
257.75	-2.01
257.965	-2.02
258.18	-2.18
258.395	-1.78
258.61	-1.03
258.826	-0.87
259.041	-0.2
259.256	0.32
259.471	0.29
259.686	0.08
259.901	0.12
260.116	0.12
260.331	0.47
260.546	0.53
260.761	0.32
260.976	0.08
261.191	0.17
261.406	-0.01
261.621	-0.35
261.836	-0.1
262.05	-0.48
262.265	-0.2
262.48	-0.74
262.695	-1.22
262.91	-1.74
263.125	-1.8
263.34	-1.92
263.555	-1.67
263.769	-1.84
263.984	-2.49
264.199	-2.89
264.414	-2.52
264.629	-2.8
264.843	-2.12
265.058	-1.78
265.273	-1.22
265.488	-1.07
265.702	-0.28
265.917	-0.42
266.132	-0.42
266.346	-0.24
266.561	0.35
266.776	0.5
266.99	0.75
267.205	0.28
267.42	0.35
267.634	0.58
267.849	0.73
268.063	0.59
268.278	0.64
268.492	0.48
268.707	0.82
268.922	0.19
269.136	0.56
269.351	0.2
269.565	0.53
269.78	0.59
269.994	0.14
270.209	-0.11
270.423	-0.43
270.637	-0.7
270.852	-0.47
271.066	-0.32
271.281	0.01
271.495	-0.32
271.709	-0.27
271.924	-0.02
272.138	-0.05
272.353	0.44
272.567	0.78
272.781	0.77
272.996	0.96
273.21	1.43
273.424	1.41
273.638	1.31
273.853	1.36
274.067	1.35
274.281	1.25
274.495	1.29
274.71	1.3
274.924	1.25
275.138	1.41
275.352	1.18
275.566	0.42
275.781	-0.29
275.995	0.37
276.209	0.62
276.423	0.22
276.637	-0.3
276.851	-0.15
277.065	-0.75
277.279	-0.97
277.493	-0.87
277.707	-0.48
277.921	-0.84
278.135	-0.36
278.349	-1.25
278.563	-1.29
278.777	-0.6
278.991	0.09
279.205	0.28
279.419	0.43
279.633	0.47
279.847	0.49
280.061	-0.25
280.275	0.02
280.489	0.14
280.703	0.57
280.917	0.42
281.131	0.1
281.344	-0.22
281.558	-0.63
281.772	-0.56
281.986	-0.43
282.2	-0.51
282.414	-0.16
282.627	0.2
282.841	-0.17
283.055	-0.43
283.269	-0.6
283.482	-0.42
283.696	-0.41
283.91	-0.51
284.123	-0.48
284.337	-0.15
284.551	0.14
284.764	0.26
284.978	-0.16
285.192	-0.03
285.405	-0.02
285.619	-0.02
285.833	-0.01
286.046	-0.19
286.26	-0.05
286.473	-0.06
286.687	-0.29
286.9	-0.57
287.114	-0.78
287.327	-0.56
287.541	-0.7
287.754	-0.85
287.968	-0.71
288.181	-0.83
288.395	-0.52
288.608	-0.32
288.822	-0.29
289.035	-0.4
289.248	-0.47
289.462	0.02
289.675	-0
289.889	0.47
290.102	0.7
290.315	0.86
290.529	1.05
290.742	1.03
290.955	0.89
291.169	1.14
291.382	1.15
291.595	1.37
291.808	1.19
292.022	1.2
292.235	0.81
292.448	0.92
292.661	0.76
292.875	0.37
293.088	0.68
293.301	0.27
293.514	0.08
293.727	0.6
293.94	0.54
294.153	0.28
294.367	0.26
294.58	0.46
294.793	0.12
295.006	0.33
295.219	0.53
295.432	0.15
295.645	0.61
295.858	0.52
296.071	0.39
296.284	0.38
296.497	0.45
296.71	0.64
296.923	0.88
297.136	1.07
297.349	0.89
297.562	1
297.775	1.15
297.988	1.34
298.201	1.48
298.414	1.31
298.626	1.32
298.839	1.39
299.052	1.29
299.265	0.79
299.478	1.04
299.691	1.14
299.903	1.17
300.116	1.11
300.329	0.54
300.542	0.79
300.755	0.56
300.967	0.56
301.18	0.41
301.393	0.45
301.605	0.74
301.818	0.46
302.031	0.54
302.243	0.36
302.456	0.32
302.669	0.48
302.881	0.21
303.094	0.08
303.307	0.22
303.519	0.19
303.732	0.27
303.944	0.13
304.157	0.01
304.37	0.13
304.582	-0.1
304.795	-0.04
305.007	-0.08
305.22	-0.36
305.432	-0.19
305.645	-0.38
305.857	0.14
306.069	0.29
306.282	0.43
306.494	0.46
306.707	-0.15
306.919	0.11
307.132	0.12
307.344	0.44
307.556	0.84
307.769	0.97
307.981	1.12
308.193	0.79
308.406	0.81
308.618	0.76
308.83	0.67
309.043	1.13
309.255	1.11
309.467	1.17
309.679	0.89
309.892	0.59
310.104	1.02
310.316	0.6
310.528	0.63
310.74	0.76
310.953	0.66
311.165	0.92
311.377	0.63
311.589	0.89
311.801	0.82
312.013	1.12
312.225	1.3
312.437	1.15
312.649	1.54
312.862	1.69
313.074	1.12
313.286	1.62
313.498	1.34
313.71	1.63
313.922	1.54
314.134	1.53
314.346	1.17
314.558	1.38
314.77	1
314.982	1.02
315.193	1.26
315.405	1.66
315.617	1.47
315.829	1.46
316.041	1.5
316.253	1.03
316.465	1.14
316.677	1.16
316.888	1.14
317.1	1.34
317.312	1.45
317.524	0.88
317.736	0.59
317.947	0.25
318.159	0.95
318.371	1.17
318.583	1.53
318.794	1.68
319.006	2.02
319.218	1.51
319.43	1.16
319.641	1.43
319.853	1.66
320.064	1.88
320.276	1.95
320.488	1.37
320.699	0.94
320.911	0.91
321.123	0.21
321.334	-0.42
321.546	-0.18
321.757	0.06
321.969	-0.66
322.18	-0.33
322.392	0.05
322.603	0.13
322.815	0.32
323.026	0.9
323.238	0.85
323.449	0.98
323.661	1.07
323.872	1.36
324.083	1.33
324.295	1.64
324.506	1.44
324.718	1.14
324.929	1.03
325.14	1.03
325.352	0.77
325.563	0.74
325.774	0.78
325.986	1.05
326.197	0.97
326.408	1.4
326.62	1.25
326.831	1.34
327.042	1.48
327.253	1.56
327.464	1.68
327.676	1.97
327.887	2.02
328.098	2.56
328.309	2.65
328.52	3.15
328.732	3.25
328.943	3.7
329.154	3.61
329.365	3.59
329.576	3.64
329.787	4.13
329.998	3.82
330.209	4.22
330.42	4.26
330.631	4.49
330.842	4.32
331.053	4.23
331.264	4.1
331.475	4.09
331.686	4.5
331.897	4.86
332.108	4.77
332.319	5.11
332.53	4.94
332.741	5.36
332.952	5.28
333.163	5.1
333.374	4.78
333.585	5.01
333.795	5.34
334.006	5.2
334.217	5.63
334.428	5.4
334.639	5.37
334.849	5.35
335.06	4.79
335.271	4.99
335.482	5.33
335.692	5.79
335.903	5.87
336.114	6.09
336.325	5.93
336.535	5.3
336.746	5.38
336.957	5.19
337.167	5.47
337.378	5.7
337.589	5.88
337.799	5.81
338.01	5.62
338.22	5.63
338.431	5.21
338.642	5.53
338.852	5.87
339.063	6.14
339.273	6.44
339.484	6.67
339.694	6.47
339.905	6.4
340.115	6.33
340.326	6.51
340.536	6.42
340.746	6.7
340.957	6.93
341.167	6.75
341.378	6.59
341.588	6.56
341.799	6.47
342.009	6.55
342.219	6.63
342.43	6.5
342.64	6.81
342.85	6.81
343.061	6.81
343.271	6.4
343.481	6.35
343.691	6.2
343.902	6.17
344.112	6.29
344.322	6.41
344.532	6.4
344.743	6.73
344.953	6.68
345.163	6.53
345.373	6.41
345.583	6.68
345.793	6.83
346.004	7.1
346.214	7.13
346.424	6.92
346.634	7.1
346.844	6.87
347.054	6.54
347.264	6.09
347.474	6.35
347.684	6.44
347.894	6.43
348.104	6.8
348.314	6.71
348.524	6.59
348.734	6.47
348.944	6.31
349.154	6.55
349.364	6.69
349.574	6.96
349.784	6.99
349.994	7.1
350.204	7
350.413	6.81
350.623	6.84
350.833	6.88
351.043	6.82
351.253	6.76
351.463	6.89
351.672	6.77
351.882	7.12
352.092	7.06
352.302	7
352.511	7.07
352.721	6.99
352.931	7.03
353.141	6.85
353.35	7.17
353.56	7.03
353.77	6.99
353.979	6.9
354.189	6.53
354.399	6.57
354.608	6.32
354.818	6.13
355.027	6.17
355.237	6.16
355.447	6.6
355.656	6.34
355.866	6.5
356.075	6.21
356.285	6.36
356.494	6.26
356.704	6
356.913	6.24
357.123	6.38
357.332	6.26
357.542	6.32
357.751	6.18
357.96	6.18
358.17	5.99
358.379	6.07
358.589	6.06
358.798	6.22
359.007	6.27
359.217	6.37
359.426	6.38
359.635	6.39
359.845	6.24
360.054	6.13
360.263	6.31
360.472	6.38
360.682	6.43
360.891	6.3
361.1	6.17
361.309	6.41
361.519	6.27
361.728	6.28
361.937	6.29
362.146	6.26
362.355	6.41
362.564	6.42
362.774	6.45
362.983	6.37
363.192	6.53
363.401	6.62
363.61	6.5
363.819	6.49
364.028	6.22
364.237	6.2
364.446	6.21
364.655	5.99
364.864	5.7
365.073	5.6
365.282	5.75
365.491	5.67
365.7	5.75
365.909	5.75
366.118	5.94
366.327	6.09
366.536	6.25
366.745	6.35
366.954	6.19
367.162	6.36
367.371	6.43
367.58	6.28
367.789	6.02
367.998	5.74
368.207	5.69
368.415	5.41
368.624	5.37
368.833	5.06
369.042	4.88
369.25	5.2
369.459	5.13
369.668	5.02
369.877	4.99
370.085	5.29
370.294	5.58
370.503	5.71
370.711	5.89
370.92	6.01
371.129	6.05
371.337	6.18
371.546	6.04
371.754	6.18
371.963	6.28
372.171	6.48
372.38	6.62
372.589	6.41
372.797	6.36
373.006	6.15
373.214	5.96
373.423	6.09
373.631	6.06
373.84	6.11
374.048	6.16
374.256	6.22
374.465	6.09
374.673	5.86
374.882	6.09
375.09	6.15
375.298	6.56
375.507	6.59
375.715	6.48
375.923	6.5
376.132	6.46
376.34	6.19
376.548	6.3
376.757	6.29
376.965	6.36
377.173	6.19
377.381	6.15
377.59	5.98
377.798	6.21
378.006	6.18
378.214	6.04
378.423	5.88
378.631	6.03
378.839	5.9
379.047	5.85
379.255	5.99
379.463	6.13
379.671	5.96
379.879	6.01
380.088	5.88
380.296	5.94
380.504	5.99
380.712	6.3
380.92	6.34
381.128	6.41
381.336	6.37
381.544	6.23
381.752	6.02
381.96	6.16
382.168	6.2
382.376	6.21
382.584	6.28
382.791	6.25
382.999	6.14
383.207	6.17
383.415	6.1
383.623	5.96
383.831	5.86
384.039	5.91
384.247	5.85
384.454	5.71
384.662	5.72
384.87	5.53
385.078	5.58
385.285	5.44
385.493	5.31
385.701	5.21
385.909	5.38
386.116	5.44
386.324	5.46
386.532	5.42
386.739	5.27
386.947	5.28
387.155	5.44
387.362	5.5
387.57	5.58
387.778	5.92
387.985	6.08
388.193	6.15
388.4	6.17
388.608	6.26
388.816	6.36
389.023	6.43
389.231	6.32
389.438	6.36
389.646	6.37
389.853	6.49
390.061	6.39
390.268	6.27
390.475	6.09
390.683	6.05
390.89	5.88
391.098	5.89
391.305	5.89
391.512	5.87
391.72	5.85
391.927	5.81
392.135	5.73
392.342	5.47
392.549	5.55
392.756	5.57
392.964	5.5
393.171	5.58
393.378	5.29
393.586	5.33
393.793	5.41
394	5.41
394.207	5.39
394.414	5.56
394.622	5.53
394.829	5.46
395.036	5.6
395.243	5.66
395.45	5.61
395.657	5.83
395.864	5.79
396.072	5.87
396.279	5.93
396.486	5.77
396.693	5.7
396.9	5.9
397.107	5.98
397.314	5.94
397.521	5.94
397.728	5.96
397.935	6.03
398.142	6.19
398.349	6.14
398.556	5.89
398.763	5.88
398.97	5.68
399.177	5.42
399.383	5.32
399.59	5.38
399.797	5.28
400.004	5.31
400.211	5.16
400.418	5.08
400.625	5.12
400.831	5.22
401.038	5.49
401.245	5.65
401.452	5.89
401.658	5.95
401.865	5.89
402.072	6.15
402.279	5.94
402.485	6.06
402.692	6.11
402.899	6.15
403.105	6.22
403.312	5.97
403.519	5.86
403.725	5.89
403.932	5.87
404.138	5.96
404.345	5.84
404.552	5.97
404.758	5.86
404.965	5.67
405.171	5.61
405.378	5.58
405.584	5.76
405.791	5.82
405.997	5.67
406.204	5.64
406.41	5.72
406.617	5.78
406.823	5.99
407.029	6.18
407.236	6.26
407.442	6.23
407.649	6.3
407.855	6.16
408.061	6.06
408.268	6.01
408.474	5.99
408.68	5.78
408.887	5.77
409.093	5.66
409.299	5.48
409.505	5.46
409.712	5.51
409.918	5.46
410.124	5.48
410.33	5.77
410.537	5.84
410.743	5.88
410.949	5.92
411.155	5.89
411.361	5.74
411.567	5.95
411.773	5.92
411.98	5.77
412.186	5.74
412.392	5.81
412.598	5.62
412.804	5.64
413.01	5.59
413.216	5.45
413.422	5.32
413.628	5.7
413.834	5.51
414.04	5.58
414.246	5.7
414.452	5.65
414.658	5.73
414.864	5.67
415.07	5.68
415.275	5.64
415.481	5.72
415.687	5.81
415.893	5.55
416.099	5.43
416.305	5.36
416.511	5.36
416.716	5.45
416.922	5.3
417.128	5.27
417.334	5.16
417.539	5.12
417.745	5.23
417.951	5.15
418.157	5.1
418.362	5.19
418.568	5.24
418.774	5.16
418.979	5.17
419.185	5.29
419.391	5.29
419.596	5.42
419.802	5.45
420.008	5.36
420.213	5.42
420.419	5.47
420.624	5.47
420.83	5.5
421.035	5.55
421.241	5.49
421.446	5.41
421.652	5.41
421.857	5.38
422.063	5.41
422.268	5.43
422.474	5.45
422.679	5.45
422.885	5.45
423.09	5.39
423.295	5.34
423.501	5.36
423.706	5.42
423.911	5.4
424.117	5.34
424.322	5.35
424.527	5.31
424.733	5.25
424.938	5.22
425.143	5.24
425.349	5.25
425.554	5.3
425.759	5.18
425.964	5.18
426.169	5.27
426.375	5.35
426.58	5.29
426.785	5.3
426.99	5.33
427.195	5.42
427.4	5.33
427.605	5.42
427.811	5.36
428.016	5.47
428.221	5.43
428.426	5.32
428.631	5.23
428.836	5.36
429.041	5.32
429.246	5.21
429.451	5.17
429.656	5.17
429.861	5.13
430.066	5.12
430.271	5.15
430.476	5.06
430.681	5.16
430.886	5.19
431.09	5.09
431.295	5.25
431.5	5.42
431.705	5.39
431.91	5.47
432.115	5.39
432.32	5.48
432.524	5.48
432.729	5.54
432.934	5.47
433.139	5.39
433.343	5.37
433.548	5.35
433.753	5.36
433.958	5.34
434.162	5.38
434.367	5.47
434.572	5.37
434.776	5.41
434.981	5.45
435.186	5.56
435.39	5.65
435.595	5.7
435.799	5.62
436.004	5.53
436.209	5.61
436.413	5.72
436.618	5.66
436.822	5.73
437.027	5.63
437.231	5.49
437.436	5.51
437.64	5.55
437.845	5.58
438.049	5.62
438.253	5.58
438.458	5.48
438.662	5.29
438.867	5.33
439.071	5.32
439.275	5.39
439.48	5.45
439.684	5.35
439.888	5.27
440.093	5.18
440.297	5.09
440.501	5.12
440.706	5.18
440.91	5.27
441.114	5.24
441.318	5.23
441.523	5.2
441.727	5.28
441.931	5.31
442.135	5.37
442.339	5.52
442.543	5.64
442.748	5.61
442.952	5.55
443.156	5.52
443.36	5.56
443.564	5.56
443.768	5.65
443.972	5.48
444.176	5.4
444.38	5.31
444.584	5.28
444.788	5.24
444.992	5.24
445.196	5.21
445.4	5.28
445.604	5.3
445.808	5.3
446.012	5.17
446.216	5.26
446.42	5.28
446.624	5.25
446.828	5.29
447.032	5.22
447.235	5.25
447.439	5.3
447.643	5.25
447.847	5.19
448.051	5.18
448.254	5.26
448.458	5.31
448.662	5.36
448.866	5.54
449.069	5.54
449.273	5.59
449.477	5.65
449.681	5.64
449.884	5.59
450.088	5.65
450.292	5.71
450.495	5.73
450.699	5.59
450.902	5.57
451.106	5.33
451.31	5.36
451.513	5.4
451.717	5.31
451.92	5.29
452.124	5.31
452.327	5.29
452.531	5.31
452.734	5.3
452.938	5.37
453.141	5.36
453.345	5.47
453.548	5.41
453.752	5.41
453.955	5.5
454.158	5.57
454.362	5.58
454.565	5.59
454.769	5.47
454.972	5.38
455.175	5.43
455.379	5.5
455.582	5.55
455.785	5.48
455.988	5.33
456.192	5.4
456.395	5.33
456.598	5.31
456.801	5.31
457.005	5.39
457.208	5.42
457.411	5.35
457.614	5.25
457.817	5.12
458.021	5.1
458.224	5.19
458.427	5.12
458.63	5.08
458.833	5.07
459.036	4.98
459.239	4.98
459.442	5.01
459.645	5.01
459.848	4.98
460.051	5.04
460.254	5.1
460.457	5.12
460.66	5.18
460.863	5.22
461.066	5.31
461.269	5.44
461.472	5.5
461.675	5.49
461.878	5.55
462.081	5.64
462.284	5.66
462.486	5.7
462.689	5.75
462.892	5.62
463.095	5.57
463.298	5.52
463.5	5.42
463.703	5.38
463.906	5.38
464.109	5.36
464.311	5.33
464.514	5.35
464.717	5.23
464.92	5.26
465.122	5.28
465.325	5.37
465.528	5.33
465.73	5.4
465.933	5.42
466.135	5.42
466.338	5.48
466.541	5.56
466.743	5.53
466.946	5.61
467.148	5.57
467.351	5.63
467.553	5.73
467.756	5.78
467.958	5.68
468.161	5.64
468.363	5.66
468.566	5.53
468.768	5.44
468.971	5.39
469.173	5.3
469.375	5.36
469.578	5.33
469.78	5.28
469.983	5.25
470.185	5.2
470.387	5.27
470.59	5.24
470.792	5.23
470.994	5.28
471.196	5.35
471.399	5.44
471.601	5.49
471.803	5.54
472.005	5.51
472.208	5.56
472.41	5.72
472.612	5.64
472.814	5.63
473.016	5.63
473.218	5.65
473.421	5.56
473.623	5.55
473.825	5.47
474.027	5.49
474.229	5.41
474.431	5.44
474.633	5.44
474.835	5.45
475.037	5.58
475.239	5.64
475.441	5.65
475.643	5.74
475.845	5.74
476.047	5.71
476.249	5.68
476.451	5.78
476.653	5.76
476.855	5.67
477.057	5.7
477.258	5.72
477.46	5.65
477.662	5.76
477.864	5.77
478.066	5.76
478.268	5.72
478.469	5.73
478.671	5.73
478.873	5.7
479.075	5.69
479.276	5.7
479.478	5.61
479.68	5.69
479.882	5.6
480.083	5.6
480.285	5.58
480.487	5.64
480.688	5.55
480.89	5.55
481.091	5.47
481.293	5.51
481.495	5.43
481.696	5.34
481.898	5.27
482.099	5.19
482.301	5.11
482.502	5.07
482.704	5.03
482.905	5.04
483.107	4.98
483.308	4.98
483.51	4.98
483.711	4.99
483.913	5.02
484.114	5.05
484.315	5.08
484.517	5.14
484.718	5.2
484.92	5.27
485.121	5.32
485.322	5.4
485.524	5.46
485.725	5.44
485.926	5.47
486.127	5.46
486.329	5.44
486.53	5.43
486.731	5.4
486.932	5.34
487.134	5.33
487.335	5.33
487.536	5.3
487.737	5.26
487.938	5.31
488.139	5.35
488.341	5.41
488.542	5.47
488.743	5.53
488.944	5.6
489.145	5.64
489.346	5.67
489.547	5.69
489.748	5.74
489.949	5.77
490.15	5.73
490.351	5.69
490.552	5.65
490.753	5.66
490.954	5.62
491.155	5.56
491.356	5.57
491.557	5.55
491.758	5.54
491.959	5.51
492.159	5.55
492.36	5.6
492.561	5.67
492.762	5.69
492.963	5.7
493.164	5.78
493.364	5.79
493.565	5.8
493.766	5.85
493.967	5.9
494.167	5.9
494.368	5.91
494.569	5.97
494.769	5.88
494.97	5.92
495.171	5.84
495.371	5.75
495.572	5.81
495.773	5.8
495.973	5.75
496.174	5.68
496.375	5.72
496.575	5.77
496.776	5.75
496.976	5.78
497.177	5.74
497.377	5.83
497.578	5.83
497.778	5.89
497.979	5.91
498.179	5.98
498.38	6.01
498.58	6.04
498.78	6.04
498.981	5.99
499.181	5.97
499.382	6
499.582	5.95
499.782	5.97
499.983	5.95
500.183	5.95
500.383	5.8
500.584	5.83
500.784	5.77
500.984	5.75
501.184	5.84
501.385	5.81
501.585	5.87
501.785	5.88
501.985	5.97
502.185	6.03
502.386	6.18
502.586	6.3
502.786	6.21
502.986	6.25
503.186	6.29
503.386	6.25
503.586	6.31
503.786	6.28
503.987	6.35
504.187	6.26
504.387	6.2
504.587	6.03
504.787	6.07
504.987	6.18
505.187	6.27
505.387	6.28
505.587	6.36
505.786	6.45
505.986	6.44
506.186	6.4
506.386	6.45
506.586	6.49
506.786	6.48
506.986	6.53
507.186	6.43
507.386	6.41
507.585	6.39
507.785	6.35
507.985	6.31
508.185	6.33
508.384	6.32
508.584	6.37
508.784	6.35
508.984	6.46
509.183	6.39
509.383	6.55
509.583	6.63
509.782	6.58
509.982	6.6
510.182	6.61
510.381	6.67
510.581	6.68
510.781	6.67
510.98	6.67
511.18	6.66
511.379	6.74
511.579	6.71
511.778	6.68
511.978	6.77
512.177	6.76
512.377	6.78
512.576	6.71
512.776	6.73
512.975	6.72
513.175	6.84
513.374	6.82
513.573	6.79
513.773	6.83
513.972	6.84
514.172	6.85
514.371	6.95
514.57	6.95
514.77	6.95
514.969	6.98
515.168	7.09
515.367	6.99
515.567	7.07
515.766	7.03
515.965	6.96
516.164	6.91
516.364	6.87
516.563	6.76
516.762	6.74
516.961	6.8
517.16	6.8
517.359	6.71
517.559	6.76
517.758	6.73
517.957	6.81
518.156	6.83
518.355	6.87
518.554	6.93
518.753	7.01
518.952	7.11
519.151	7.14
519.35	7.17
519.549	7.29
519.748	7.32
519.947	7.33
520.146	7.37
520.345	7.42
520.544	7.5
520.743	7.53
520.942	7.61
521.141	7.62
521.339	7.68
521.538	7.75
521.737	7.8
521.936	7.82
522.135	7.84
522.333	7.86
522.532	7.84
522.731	7.73
522.93	7.73
523.129	7.65
523.327	7.69
523.526	7.56
523.725	7.47
523.923	7.43
524.122	7.42
524.321	7.45
524.519	7.37
524.718	7.39
524.917	7.41
525.115	7.41
525.314	7.45
525.512	7.38
525.711	7.47
525.909	7.51
526.108	7.5
526.306	7.42
526.505	7.39
526.703	7.34
526.902	7.29
527.1	7.24
527.299	7.21
527.497	7.22
527.696	7.2
527.894	7.15
528.092	7.13
528.291	7.11
528.489	7.16
528.688	7.2
528.886	7.28
529.084	7.37
529.283	7.49
529.481	7.55
529.679	7.57
529.877	7.68
530.076	7.79
530.274	7.93
530.472	8.02
530.67	8.14
530.869	8.2
531.067	8.27
531.265	8.19
531.463	8.11
531.661	8.11
531.859	8.07
532.057	8
532.255	7.96
532.454	7.89
532.652	7.86
532.85	7.79
533.048	7.79
533.246	7.72
533.444	7.79
533.642	7.88
533.84	7.9
534.038	7.99
534.236	8.05
534.434	8.08
534.632	8.08
534.83	8.15
535.027	8.22
535.225	8.22
535.423	8.35
535.621	8.37
535.819	8.38
536.017	8.39
536.215	8.35
536.412	8.37
536.61	8.41
536.808	8.43
537.006	8.47
537.203	8.48
537.401	8.49
537.599	8.45
537.797	8.5
537.994	8.54
538.192	8.61
538.39	8.65
538.587	8.7
538.785	8.66
538.983	8.65
539.18	8.6
539.378	8.5
539.575	8.45
539.773	8.42
539.97	8.36
540.168	8.32
540.366	8.26
540.563	8.23
540.761	8.18
540.958	8.2
541.155	8.22
541.353	8.21
541.55	8.34
541.748	8.41
541.945	8.46
542.143	8.53
542.34	8.58
542.537	8.7
542.735	8.82
542.932	8.89
543.129	9.02
543.327	9.12
543.524	9.21
543.721	9.28
543.919	9.41
544.116	9.52
544.313	9.63
544.51	9.73
544.708	9.77
544.905	9.79
545.102	9.9
545.299	9.94
545.496	10.04
545.693	10.12
545.891	10.13
546.088	10.05
546.285	10.05
546.482	10.02
546.679	10
546.876	9.94
547.073	9.93
547.27	9.92
547.467	9.87
547.664	9.86
547.861	9.85
548.058	9.87
548.255	9.92
548.452	9.94
548.649	9.89
548.846	9.87
549.043	9.86
549.24	9.88
549.437	9.89
549.633	9.87
549.83	9.7
550.027	9.66
550.224	9.63
550.421	9.58
550.618	9.44
550.814	9.44
551.011	9.39
551.208	9.43
551.405	9.29
551.601	9.15
551.798	9.14
551.995	9.13
552.191	9.06
552.388	8.93
552.585	8.95
552.781	8.99
552.978	8.95
553.175	9
553.371	8.93
553.568	8.99
553.764	9.07
553.961	9.05
554.157	9.02
554.354	9.12
554.55	9.21
554.747	9.26
554.943	9.24
555.14	9.19
555.336	9.11
555.533	9.19
555.729	9.25
555.926	9.18
556.122	9.23
556.318	9.29
556.515	9.18
556.711	9.09
556.907	8.88
557.104	8.88
557.3	8.93
557.496	8.84
557.693	8.76
557.889	8.68
558.085	8.67
558.281	8.63
558.478	8.77
558.674	8.79
558.87	8.88
559.066	8.98
559.262	8.99
559.459	9
559.655	8.98
559.851	9.06
560.047	9.05
560.243	9.06
560.439	9.02
560.635	8.88
560.831	8.95
561.027	8.9
561.223	8.87
561.419	8.87
561.615	8.93
561.811	8.99
562.007	8.85
562.203	8.88
562.399	8.93
562.595	8.97
562.791	9
562.987	8.93
563.183	9.07
563.379	9.05
563.575	9.04
563.771	8.99
563.966	8.96
564.162	9.03
564.358	9.04
564.554	8.9
564.75	8.81
564.945	8.82
565.141	8.71
565.337	8.59
565.533	8.73
565.728	8.76
565.924	8.76
566.12	8.84
566.315	8.92
566.511	9.02
566.707	9.13
566.902	9.25
567.098	9.22
567.293	9.33
567.489	9.34
567.684	9.25
567.88	9.23
568.076	9.19
568.271	9.4
568.467	9.23
568.662	9.11
568.858	9.02
569.053	8.98
569.248	8.98
569.444	8.98
569.639	9.02
569.835	9.02
570.03	8.99
570.225	8.97
570.421	8.68
570.616	8.76
570.812	8.77
571.007	8.91
571.202	8.94
571.397	8.99
571.593	8.96
571.788	9.02
571.983	9.01
572.178	9.1
572.374	9.2
572.569	9.23
572.764	9.36
572.959	9.35
573.154	9.3
573.35	9.28
573.545	9.24
573.74	9.32
573.935	9.17
574.13	9.11
574.325	9.03
574.52	9.01
574.715	9.06
574.91	8.91
575.105	8.93
575.3	8.92
575.495	8.98
575.69	9.04
575.885	9.05
576.08	9.27
576.275	9.36
576.47	9.45
576.665	9.52
576.86	9.6
577.055	9.66
577.25	9.66
577.444	9.81
577.639	9.77
577.834	9.88
578.029	9.95
578.224	9.86
578.418	10
578.613	10.14
578.808	9.98
579.003	9.94
579.197	9.92
579.392	9.94
579.587	9.81
579.781	9.9
579.976	9.89
580.171	9.77
580.365	9.69
580.56	9.57
580.755	9.45
580.949	9.53
581.144	9.62
581.338	9.73
581.533	9.81
581.727	9.91
581.922	9.77
582.116	9.61
582.311	9.67
582.505	9.79
582.7	9.75
582.894	9.74
583.089	9.82
583.283	9.91
583.478	9.92
583.672	9.87
583.866	9.78
584.061	9.9
584.255	9.99
584.449	10
584.644	9.95
584.838	10.14
585.032	10.23
585.226	10.17
585.421	10.1
585.615	10.16
585.809	10.27
586.003	10.4
586.198	10.31
586.392	10.38
586.586	10.38
586.78	10.4
586.974	10.26
587.168	10.13
587.363	10.1
587.557	10.01
587.751	9.8
587.945	9.87
588.139	9.77
588.333	9.89
588.527	9.85
588.721	9.83
588.915	9.77
589.109	9.7
589.303	9.67
589.497	9.79
589.691	9.78
589.885	9.95
590.079	9.84
590.273	9.8
590.466	9.79
590.66	9.82
590.854	9.79
591.048	9.89
591.242	9.99
591.436	10.17
591.629	10.18
591.823	10.13
592.017	10.1
592.211	10.12
592.404	10.15
592.598	10.08
592.792	9.96
592.986	9.99
593.179	10.02
593.373	10.03
593.567	9.92
593.76	9.8
593.954	9.81
594.147	9.76
594.341	9.64
594.535	9.72
594.728	9.62
594.922	9.71
595.115	9.66
595.309	9.63
595.502	9.48
595.696	9.41
595.889	9.38
596.083	9.45
596.276	9.37
596.47	9.37
596.663	9.3
596.856	9.22
597.05	9.19
597.243	9.22
597.437	9.19
597.63	9.4
597.823	9.46
598.017	9.57
598.21	9.56
598.403	9.63
598.596	9.73
598.79	9.88
598.983	10.16
599.176	10.14
599.369	10.24
599.563	10.23
599.756	10.23
599.949	10.25
600.142	10.18
600.335	10.21
600.528	10.32
600.722	10.34
600.915	10.21
601.108	10.19
601.301	10.34
601.494	10.13
601.687	10.16
601.88	10
602.073	10.02
602.266	10.02
602.459	9.9
602.652	9.68
602.845	9.44
603.038	9.45
603.231	9.21
603.424	9.03
603.617	9.14
603.809	9.08
604.002	9.09
604.195	9.04
604.388	9.02
604.581	9.04
604.774	9.25
604.966	9.33
605.159	9.39
605.352	9.59
605.545	9.84
605.737	9.93
605.93	10.02
606.123	10.03
606.316	10.07
606.508	10.22
606.701	10.3
606.894	10.27
607.086	10.36
607.279	10.34
607.471	10.29
607.664	10.18
607.857	10.12
608.049	10.19
608.242	10.3
608.434	10.36
608.627	10.51
608.819	10.73
609.012	10.85
609.204	11.09
609.397	11.42
609.589	11.72
609.782	12.12
609.974	12.52
610.166	12.93
610.359	13.33
610.551	13.73
610.743	14.04
610.936	14.46
611.128	14.96
611.32	15.25
611.513	15.65
611.705	15.89
611.897	16.08
612.09	16.13
612.282	16.19
612.474	16.15
612.666	16.1
612.858	16.09
613.051	15.84
613.243	15.53
613.435	15.31
613.627	14.78
613.819	14.39
614.011	13.87
614.203	13.55
614.395	13.29
614.588	13.16
614.78	12.81
614.972	12.55
615.164	12.27
615.356	12.12
615.548	11.97
615.74	11.98
615.932	12.16
616.124	11.93
616.315	11.96
616.507	11.78
616.699	11.53
616.891	11.4
617.083	11.26
617.275	11.32
617.467	11.31
617.659	11.32
617.85	11.15
618.042	10.95
618.234	11.33
618.426	11.33
618.618	11.26
618.809	11.33
619.001	11.53
619.193	11.48
619.384	11.32
619.576	11.08
619.768	10.96
619.959	10.95
620.151	10.84
620.343	10.77
620.534	10.58
620.726	10.68
620.917	10.62
621.109	10.82
621.301	10.83
621.492	10.74
621.684	10.72
621.875	10.87
622.067	10.8
622.258	10.96
622.45	10.79
622.641	10.81
622.832	10.87
623.024	11.01
623.215	10.74
623.407	10.72
623.598	10.85
623.789	10.95
623.981	10.89
624.172	10.98
624.363	11.03
624.555	10.85
624.746	10.97
624.937	10.79
625.129	10.67
625.32	10.65
625.511	10.61
625.702	10.69
625.893	10.73
626.085	10.63
626.276	10.54
626.467	10.47
626.658	10.51
626.849	10.35
627.04	10.41
627.231	10.53
627.422	10.5
627.614	10.63
627.805	10.57
627.996	10.66
628.187	10.91
628.378	11.06
628.569	11.11
628.76	11.12
628.951	11.33
629.142	11.32
629.332	11.35
629.523	11.41
629.714	11.43
629.905	11.43
630.096	11.32
630.287	11.22
630.478	11.18
630.669	11.22
630.859	11.55
631.05	11.49
631.241	11.57
631.432	11.38
631.623	11.47
631.813	11.48
632.004	11.42
632.195	11.41
632.385	11.36
632.576	11.28
632.767	11.02
632.957	10.7
633.148	10.66
633.339	10.66
633.529	10.69
633.72	10.63
633.91	10.45
634.101	10.46
634.292	10.34
634.482	10.32
634.673	10.22
634.863	10.35
635.054	10.48
635.244	10.42
635.435	10.34
635.625	10.22
635.815	10.18
636.006	10.26
636.196	10.22
636.387	10.28
636.577	10.2
636.767	10.28
636.958	10.2
637.148	10.24
637.338	10.32
637.529	10.38
637.719	10.45
637.909	10.55
638.099	10.51
638.29	10.63
638.48	10.64
638.67	10.78
638.86	10.75
639.05	10.82
639.241	10.73
639.431	10.9
639.621	10.77
639.811	10.88
640.001	10.96
640.191	11.11
640.381	11.14
640.571	11.16
640.761	11.01
640.951	10.95
641.141	11.15
641.331	11.16
641.521	10.95
641.711	11.16
641.901	11.03
642.091	10.88
642.281	10.67
642.471	10.72
642.661	10.74
642.851	10.87
643.041	11.06
643.231	10.95
643.42	10.96
643.61	10.84
643.8	10.87
643.99	11.04
644.18	10.99
644.369	11.14
644.559	11.08
644.749	11.08
644.939	11.02
645.128	11.04
645.318	10.94
645.508	10.91
645.697	11.11
645.887	10.87
646.076	10.95
646.266	10.87
646.456	10.65
646.645	10.63
646.835	10.83
647.024	10.72
647.214	10.49
647.403	10.58
647.593	10.45
647.782	10.36
647.972	10.33
648.161	10.14
648.351	10.19
648.54	10.46
648.73	10.45
648.919	10.2
649.108	10.12
649.298	10.28
649.487	10.33
649.677	10.41
649.866	10.25
650.055	10.45
650.244	10.45
650.434	10.28
650.623	10.14
650.812	10.08
651.002	10.06
651.191	10.31
651.38	10.17
651.569	10.15
651.758	10.21
651.947	10.52
652.137	10.38
652.326	10.41
652.515	10.81
652.704	10.83
652.893	11.03
653.082	11.13
653.271	11.05
653.46	11.15
653.649	11.17
653.838	11.19
654.027	11.14
654.216	11.03
654.405	10.99
654.594	10.83
654.783	10.76
654.972	10.59
655.161	10.64
655.35	10.47
655.539	10.55
655.728	10.38
655.916	10.45
656.105	10.04
656.294	10.11
656.483	10.05
656.672	9.79
656.86	9.51
657.049	9.48
657.238	9.3
657.427	9.35
657.615	9.19
657.804	9.21
657.993	8.79
658.181	8.97
658.37	9.06
658.559	9.09
658.747	9.35
658.936	9.46
659.125	9.64
659.313	9.74
659.502	9.89
659.69	9.91
659.879	9.96
660.067	10.49
660.256	10.56
660.444	10.57
660.633	10.7
660.821	10.73
661.01	10.91
661.198	10.8
661.387	10.97
661.575	11.06
661.763	11.24
661.952	11.34
662.14	11.29
662.328	11.52
662.517	11.56
662.705	11.56
662.893	11.43
663.082	11.49
663.27	11.46
663.458	11.6
663.646	11.51
663.834	11.53
664.023	11.58
664.211	11.38
664.399	11.15
664.587	10.92
664.775	10.98
664.963	11.03
665.152	10.84
665.34	10.95
665.528	10.66
665.716	10.89
665.904	11
666.092	10.8
666.28	10.83
666.468	10.91
666.656	11.29
666.844	11.12
667.032	11.3
667.22	11.5
667.408	11.41
667.596	11.24
667.784	10.88
667.971	10.69
668.159	10.72
668.347	10.63
668.535	10.67
668.723	10.53
668.911	10.41
669.098	10.18
669.286	10.2
669.474	10.36
669.662	10.6
669.849	10.71
670.037	10.79
670.225	10.67
670.413	10.58
670.6	10.72
670.788	10.7
670.976	10.73
671.163	10.8
671.351	10.82
671.538	10.52
671.726	10.33
671.913	10.23
672.101	10.28
672.289	10.53
672.476	10.75
672.664	10.74
672.851	10.68
673.039	10.9
673.226	10.99
673.413	11.01
673.601	11.13
673.788	11.25
673.976	11.37
674.163	11.22
674.35	11.32
674.538	11
674.725	10.98
674.912	10.88
675.1	10.73
675.287	10.89
675.474	10.64
675.662	10.61
675.849	10.3
676.036	10.14
676.223	10.15
676.411	9.87
676.598	10.09
676.785	9.77
676.972	9.78
677.159	9.99
677.346	9.81
677.533	9.93
677.721	9.89
677.908	9.88
678.095	9.8
678.282	9.64
678.469	9.45
678.656	9.36
678.843	9.46
679.03	9.51
679.217	9.26
679.404	9.38
679.591	9.39
679.778	9.62
679.964	9.75
680.151	9.92
680.338	10.05
680.525	10.28
680.712	10.36
680.899	10.45
681.086	10.65
681.272	10.66
681.459	10.57
681.646	10.64
681.833	10.58
682.02	10.48
682.206	10.52
682.393	10.61
682.58	10.52
682.766	10.47
682.953	10.64
683.14	10.63
683.326	10.85
683.513	10.92
683.7	10.98
683.886	11.03
684.073	11.48
684.259	11.47
684.446	11.57
684.632	11.75
684.819	11.96
685.005	11.89
685.192	12
685.378	12.02
685.565	12.05
685.751	11.99
685.938	11.82
686.124	11.92
686.31	11.77
686.497	11.65
686.683	11.7
686.87	11.56
687.056	11.62
687.242	11.24
687.429	11.1
687.615	11
687.801	10.75
687.987	10.75
688.174	10.59
688.36	10.92
688.546	10.88
688.732	10.79
688.918	10.81
689.105	10.47
689.291	10.63
689.477	10.78
689.663	10.61
689.849	10.58
690.035	10.88
690.221	10.85
690.407	10.68
690.593	10.89
690.779	10.82
690.965	10.82
691.151	11.18
691.337	11.14
691.523	11.05
691.709	11.68
691.895	12.22
692.081	11.82
692.267	11.8
692.453	11.81
692.639	11.37
692.825	11.33
693.011	11.49
693.196	11.6
693.382	11.57
693.568	11.63
693.754	11.37
693.94	11.2
694.125	11.15
694.311	11.08
694.497	10.93
694.682	10.97
694.868	11.14
695.054	10.98
695.239	10.48
695.425	10.67
695.611	10.61
695.796	9.99
695.982	9.8
696.168	9.86
696.353	9.7
696.539	9.9
696.724	10.05
696.91	9.79
697.095	9.73
697.281	9.88
697.466	10.08
697.652	9.92
697.837	10.3
698.023	10.25
698.208	10.25
698.393	10.33
698.579	10.23
698.764	10.54
698.949	10.61
699.135	10.57
699.32	10.69
699.505	10.55
699.691	10.61
699.876	10.52
700.061	10.71
700.246	10.63
700.432	10.84
700.617	10.76
700.802	10.63
700.987	10.84
701.172	10.91
701.358	10.71
701.543	10.75
701.728	11.04
701.913	11.11
702.098	11.02
702.283	11.39
702.468	11.02
702.653	11.18
702.838	11.08
703.023	10.99
703.208	11.1
703.393	10.95
703.578	10.87
703.763	10.55
703.948	10.5
704.133	10.44
704.318	10.68
704.503	10.81
704.688	11.11
704.873	11.23
705.057	11.34
705.242	11.82
705.427	12.06
705.612	11.69
705.797	12.28
705.981	12.48
706.166	12.77
706.351	12.59
706.536	12.78
706.72	12.58
706.905	12.43
707.09	12.42
707.274	12.12
707.459	12.05
707.644	12.38
707.828	12.05
708.013	11.89
708.197	11.79
708.382	11.92
708.567	11.82
708.751	11.8
708.936	11.7
709.12	11.74
709.305	12.06
709.489	12.06
709.673	11.87
709.858	11.78
710.042	11.82
710.227	11.87
710.411	11.78
710.596	11.49
710.78	11.69
710.964	11.78
711.149	11.69
711.333	11.18
711.517	11.21
711.702	11.57
711.886	11.69
712.07	11.84
712.254	11.92
712.438	11.77
712.623	12.08
712.807	11.77
712.991	12.03
713.175	12.12
713.359	12.22
713.544	12.35
713.728	12.16
713.912	12.08
714.096	11.86
714.28	11.68
714.464	11.78
714.648	11.47
714.832	11.56
715.016	10.78
715.2	10.39
715.384	10.47
715.568	10.28
715.752	10.27
715.936	10.3
716.12	10.17
716.304	10.18
716.488	10.23
716.671	10.46
716.855	10.05
717.039	10.4
717.223	10.83
717.407	10.92
717.59	11.01
717.774	10.44
717.958	10.53
718.142	10.49
718.325	10.67
718.509	10.7
718.693	10.62
718.877	10.41
719.06	10.64
719.244	10.43
719.428	10.63
719.611	10.58
719.795	11.51
719.978	10.84
720.162	11.31
720.345	10.68
720.529	10.37
720.713	10.6
720.896	11.7
721.08	11.74
721.263	12.08
721.446	11.77
721.63	12.26
721.813	12.09
721.997	12.28
722.18	12.01
722.364	12.33
722.547	12.26
722.73	11.94
722.914	11.64
723.097	11.41
723.28	10.98
723.464	10.29
723.647	9.8
723.83	9.27
724.013	10.07
724.197	9.98
724.38	10.42
724.563	10.88
724.746	10.77
724.929	10.53
725.112	11.08
725.296	11.18
725.479	11.55
725.662	11.57
725.845	11.71
726.028	11.26
726.211	11.51
726.394	10.91
726.577	10.18
726.76	10.28
726.943	10.45
727.126	9.6
727.309	9.91
727.492	9.91
727.675	9.93
727.858	10.06
728.041	10.09
728.224	9.99
728.407	10.12
728.589	10.81
728.772	10.94
728.955	10.92
729.138	10.91
729.321	10.4
729.503	10.8
729.686	10.46
729.869	10.75
730.052	10.47
730.234	10.28
730.417	10.24
730.6	9.71
730.782	9.68
730.965	9.42
731.148	9.54
731.33	9.73
731.513	9.29
731.695	9.79
731.878	9.48
732.061	9.47
732.243	10.03
732.426	10.06
732.608	10.4
732.791	10.72
732.973	11.01
733.156	11
733.338	10.84
733.52	11.03
733.703	10.82
733.885	11.36
734.068	11.55
734.25	10.97
734.432	11.4
734.615	11.51
734.797	11.46
734.979	11.27
735.162	11.23
735.344	11.39
735.526	11.52
735.708	11.53
735.891	11.02
736.073	11.33
736.255	11.62
736.437	11.45
736.619	11.09
736.802	10.86
736.984	10.86
737.166	11.46
737.348	11.96
737.53	11.61
737.712	11.66
737.894	11.53
738.076	11.12
738.258	10.83
738.44	10.24
738.622	10.24
738.804	10.48
738.986	10.22
739.168	9.94
739.35	9.23
739.532	9.43
739.714	9.92
739.896	10.42
740.078	10.62
740.259	10.36
740.441	10.96
740.623	10.93
740.805	10.65
740.987	10.66
741.168	10.06
741.35	10.26
741.532	10.55
741.714	10.4
741.895	10.15
742.077	10.12
742.259	10.26
742.44	10.05
742.622	10.06
742.804	10.05
742.985	10.57
743.167	11.55
743.348	11.82
743.53	11.32
743.711	11.1
743.893	11.16
744.075	11.38
744.256	11.9
744.438	12.33
744.619	12.17
744.8	12.26
744.982	11.93
745.163	11.96
745.345	12.01
745.526	12.47
745.707	12.52
745.889	12.46
746.07	11.99
746.252	11.39
746.433	10.86
746.614	11.33
746.795	11.65
746.977	11.72
747.158	11.19
747.339	11.25
747.52	11.77
747.702	11.42
747.883	11.28
748.064	11.63
748.245	11.73
748.426	11.72
748.607	11.25
748.788	10.86
748.97	11.29
749.151	10.84
749.332	10.84
749.513	10.07
749.694	10.68
749.875	10.48
750.056	9.64
750.237	10.04
750.418	10.13
750.599	10.79
750.78	10.83
750.96	9.87
751.141	11.01
751.322	10.76
751.503	10.54
751.684	9.45
751.865	10.21
752.046	10.41
752.226	10.51
752.407	10.12
752.588	9.05
752.769	8.98
752.949	9.63
753.13	9.08
753.311	8.37
753.492	8.29
753.672	8.79
753.853	8.02
754.034	8.82
754.214	8.17
754.395	8.32
754.575	8.92
754.756	8.86
754.937	8.1
755.117	8.18
755.298	9.05
755.478	8.89
755.659	9.1
755.839	9.37
756.02	9.37
756.2	9.22
756.381	9.65
756.561	9.46
756.741	9.53
756.922	10.14
757.102	9.68
757.283	9.48
757.463	9.39
757.643	9.59
757.823	9.74
758.004	9.71
758.184	10.12
758.364	9.45
758.545	9.74
758.725	9.68
758.905	9.6
759.085	9.51
759.265	9.05
759.446	9.22
759.626	8.29
759.806	8.19
759.986	7.82
760.166	7.65
760.346	8.08
760.526	8.25
760.706	7.84
760.886	7.94
761.066	8.21
761.246	9.06
761.426	8.89
761.606	9.31
761.786	8.44
761.966	8.4
762.146	8.43
762.326	8.57
762.506	8.64
762.686	8.68
762.866	8.79
763.046	8.62
763.225	8.54
763.405	8.61
763.585	8.63
763.765	9.14
763.945	9.6
764.124	10.01
764.304	10.08
764.484	9.76
764.664	10.14
764.843	10.43
765.023	10.71
765.203	10.2
765.382	10.62
765.562	10.42
765.741	9.98
765.921	9.49
766.101	8.82
766.28	8.39
766.46	8.75
766.639	8.62
766.819	8.66
766.998	8.45
767.178	9.21
767.357	9.01
767.537	9.73
767.716	10.55
767.896	11.03
768.075	11.59
768.254	11.31
768.434	10.96
768.613	11.17
768.792	10.3
768.972	10.75
769.151	10.26
769.33	10.5
769.51	11.02
769.689	10.87
769.868	11.05
770.047	10.46
770.226	11.38
770.406	10.72
770.585	10.22
770.764	10.56
770.943	9.91
771.122	9.98
771.301	10.22
771.48	9.82
771.66	9.42
771.839	8.4
772.018	9.41
772.197	9.46
772.376	9.87
772.555	10.24
772.734	10.65
772.913	10.69
773.092	11.37
773.271	10.28
773.449	10.37
773.628	10.71
773.807	10.67
773.986	10.43
774.165	9.56
774.344	10.04
774.523	9.77
774.701	9.53
774.88	9.65
775.059	8.64
775.238	8.84
775.417	8.07
775.595	7.94
775.774	8.66
775.953	7.85
776.131	7.92
776.31	7.42
776.489	7.21
776.667	6.48
776.846	7.38
777.025	7.92
777.203	8.7
777.382	9.36
777.56	9.48
777.739	9.65
777.917	10.12
778.096	10.24
778.274	10.66
778.453	10.95
778.631	11.11
778.81	9.92
778.988	10.39
779.166	10.12
779.345	9.66
779.523	9.37
779.702	8.39
779.88	8.09
780.058	8.75
780.237	8.05
780.415	8.33
780.593	8.67
780.771	8.41
780.95	7.94
781.128	8.51
781.306	8.47
781.484	9.04
781.662	9.94
781.841	10.25
782.019	9.88
782.197	10.43
782.375	10.1
782.553	10.93
782.731	12.71
782.909	12.59
783.087	12.61
783.265	12.98
783.443	12.97
783.621	12.77
783.799	13.33
783.977	13.42
784.155	13.22
784.333	14.16
784.511	12.51
784.689	11.73
784.867	12.01
785.045	10.87
785.223	9.72
785.4	9.04
785.578	9.94
785.756	9.88
785.934	10.29
786.112	10.17
786.289	10.31
786.467	11.92
786.645	12.4
786.823	11.04
787	11.59
787.178	12.59
787.356	12.69
787.533	11.88
787.711	11.75
787.889	11.71
788.066	11.49
788.244	10.21
788.421	8.78
788.599	8.38
788.776	9.42
788.954	9.99
789.131	9.55
789.309	9.83
789.486	9.83
789.664	9.52
789.841	9.57
790.019	9.97
790.196	10.26
790.373	11.49
790.551	11.88
790.728	12.42
790.906	11.79
791.083	12.75
791.26	12.64
791.437	11.67
791.615	11.58
791.792	10.89
791.969	11.38
792.146	11.36
792.324	11.41
792.501	11.18
792.678	10.36
792.855	10
793.032	8.76
793.209	8.94
793.387	10.01
793.564	8.93
793.741	8.76
793.918	7.17
794.095	6.84
794.272	6.02
794.449	4.86
794.626	5.62
794.803	5.86
794.98	5.55
795.157	4.68
795.334	5.33
795.511	5.61
795.688	6.28
795.864	7.82
796.041	8.79
796.218	9.38
796.395	10
796.572	9.4
796.749	9.91
796.925	10.57
797.102	10.25
797.279	8.7
797.456	9.56
797.632	9.11
797.809	8.52
797.986	7.95
798.162	6.82
798.339	7.01
798.516	6.87
798.692	7.23
798.869	7.18
799.046	6.69
799.222	7.37
799.399	7.72
799.575	7.13
799.752	8.51
799.928	9.37
800.105	10.27
800.281	9.72
800.458	10.67
800.634	10.06
800.811	10.31
800.987	12.89
801.163	12.78
801.34	12.46
801.516	13.15
801.692	12.23
801.869	11.87
802.045	10.63
802.221	11.08
802.398	9.53
802.574	9.55
802.75	9.35
802.926	6.57
803.103	8.55
803.279	9.19
803.455	8.46
803.631	7.53
803.807	6.46
803.983	9.88
804.16	9.36
804.336	10.49
804.512	10.39
804.688	10.71
804.864	12.23
805.04	10.68
805.216	10.46
805.392	10.75
805.568	11.31
805.744	11.83
805.92	9.9
806.096	9.38
806.272	9.64
806.448	9.8
806.623	10.49
806.799	9.41
806.975	9.32
807.151	9.56
807.327	8.94
807.503	9.05
807.678	9.17
807.854	8.81
808.03	11.63
808.206	12.19
808.381	14.1
808.557	12.5
808.733	13.77
808.908	14.37
809.084	13.13
809.26	15.05
809.435	15.44
809.611	16.32
809.787	17.15
809.962	14.96
810.138	13.95
810.313	11.23
810.489	11.6
810.664	10.74
810.84	10.34
811.015	11.49
811.191	10.64
811.366	10.08
811.542	9.36
811.717	7.85
811.892	8.37
812.068	8.9
812.243	9.31
812.419	9.91
812.594	9.13
812.769	8.43
812.944	7.14
813.12	8.3
813.295	9.31
813.47	7.86
813.645	7.58
813.821	7.58
813.996	8.19
814.171	7.7
814.346	8.46
814.521	9.72
814.697	9.84
814.872	9.78
815.047	7.41
815.222	6.82
815.397	7.31
815.572	8.28
815.747	7.95
815.922	8.26
816.097	10.18
816.272	8.89
816.447	9.17
816.622	10.96
816.797	11.69
816.972	12.77
817.147	12.22
817.322	12.18
817.496	12.52
817.671	12.4
817.846	10.01
818.021	8.48
818.196	9.51
818.371	8.67
818.545	7.17
818.72	7.37
818.895	6.87
819.069	7
819.244	7.12
819.419	6.52
819.594	6.47
819.768	7.96
819.943	8.91
820.117	8.1
820.292	7.75
820.467	7.79
820.641	7.81
820.816	7.87
820.99	7.51
821.165	7.17
821.339	7.04
821.514	6.88
821.688	6.75
821.863	6.58
822.037	6.65
822.212	6.79
822.386	6.73
822.56	6.51
822.735	6.64
822.909	6.68
823.084	7.11
823.258	7.37
823.432	7.8
823.606	7.96
823.781	8.24
823.955	8.31
824.129	8.34
824.303	8.78
824.478	9.27
824.652	9.66
824.826	10.28
825	9.86
825.174	9.6
825.348	9.46
825.523	8.99
825.697	8.7
825.871	9.03
826.045	9.47
826.219	9.12
826.393	8.35
826.567	7.59
826.741	7.29
826.915	7.61
827.089	8.05
827.263	7.8
827.437	7.8
827.611	8.06
827.784	7.23
827.958	7.05
828.132	7.34
828.306	7.99
828.48	8.24
828.654	8.33
828.827	8.13
829.001	7.94
829.175	8.26
829.349	8.29
829.522	7.74
829.696	8.81
829.87	9.7
830.044	9.53
830.217	9.39
830.391	9.66
830.565	9.85
830.738	10.31
830.912	9.67
831.085	8.07
831.259	10.95
831.432	9.87
831.606	9.9
831.779	9.3
831.953	9.24
832.126	8.62
832.3	8.24
832.473	7.42
832.647	7.04
832.82	7.34
832.994	8.2
833.167	6.66
833.34	6.72
833.514	5.92
833.687	5.91
833.86	5.72
834.034	6.39
834.207	6.32
834.38	7.36
834.553	7.54
834.727	7.94
834.9	7.26
835.073	7.15
835.246	7.67
835.419	8.63
835.593	8.48
835.766	9.03
835.939	9.45
836.112	10.76
836.285	9.85
836.458	9.99
836.631	9.05
836.804	10.46
836.977	11.18
837.15	11.82
837.323	12.18
837.496	12.6
837.669	12.87
837.842	11.91
838.015	9.78
838.188	10.33
838.361	8.85
838.533	10.55
838.706	11.19
838.879	8.78
839.052	7.05
839.225	5.07
839.398	5.11
839.57	3.72
839.743	4.24
839.916	5.07
840.088	4.9
840.261	6.26
840.434	5.7
840.607	5.87
840.779	6.69
840.952	7.45
841.124	7.72
841.297	6.27
841.47	5.85
841.642	4.47
841.815	4.31
841.987	4.32
842.16	2.52
842.332	0.16
842.505	-0.22
842.677	2.58
842.85	3.46
843.022	4.38
843.194	7.19
843.367	7.53
843.539	7.2
843.712	6.89
843.884	8.75
844.056	10.14
844.229	10.98
844.401	9.62
844.573	6.01
844.745	6.63
844.918	5.47
845.09	3.33
845.262	3.18
845.434	4.94
845.606	5.38
845.779	0.63
845.951	3.28
846.123	7.98
846.295	9.69
846.467	9.79
846.639	8.3
846.811	9.73
846.983	10.84
847.155	10.88
847.327	8.74
847.499	4.69
847.671	11.37
847.843	9.57
848.015	4.73
848.187	2.9
848.359	0.59
848.531	0.34
848.703	-1.63
848.875	-2.37
849.047	-4.33
849.218	-2.14
849.39	2.55
849.562	-3.49
849.734	-4.33
849.905	0.71
850.077	4.79
850.249	6.6
850.421	7.89
850.592	9.42
850.764	9.81
850.936	11.42
851.107	6.86
851.279	5.44
851.451	9.43
851.622	10.21
851.794	6.86
851.965	2.95
852.137	-1.7
852.308	-2.71
852.48	-4.11
852.651	-1.91
852.823	-0.19
852.994	6.36
853.166	6.17
853.337	3.07
853.509	3.26
853.68	0.91
853.851	1.65
854.023	8.02
854.194	8.14
854.365	9.56
854.537	9.15
854.708	10.13
854.879	7.77
855.05	4.11
855.222	4.59
855.393	2.03
855.564	9.23
855.735	8.58
855.906	6.49
856.078	10.01
856.249	7.39
856.42	6.34
856.591	5.71
856.762	7.94
856.933	9.22
857.104	10.85
857.275	15.69
857.446	15.31
857.617	14.3
857.788	15.91
857.959	14.51
858.13	15.94
858.301	13.32
858.472	9.39
858.643	6.27
858.814	9.45
858.985	12.11
859.155	10.93
859.326	11.03
859.497	10.36
859.668	13.59
859.839	15.98
860.009	17.56
860.18	22.7
860.351	24.9
860.522	26.5
860.692	27.41
860.863	23.29
861.034	21.46
861.204	17.96
861.375	20.67
861.546	15.15
861.716	10.86
861.887	11.27
862.057	10.33
862.228	7.84
862.398	8.48
862.569	6.26
862.739	4.2
862.91	1.49
863.08	-0.85
863.251	1.09
863.421	5.27
863.592	7.98
863.762	4.55
863.932	5.27
864.103	4.08
864.273	-0.44
864.443	-3.12
864.614	3.14
864.784	7.12
864.954	9.28
865.125	9.34
865.295	11.49
865.465	10.08
865.635	12.04
865.805	7.67
865.976	12.06
866.146	17.65
866.316	20.42
866.486	19.07
866.656	16.46
866.826	18.11
866.996	11.37
867.166	8.1
867.336	9.67
867.506	4.55
867.676	4.36
867.846	3.69
868.016	4.29
868.186	-0.32
868.356	-2.95
868.526	-0.06
868.696	-2.7
868.866	-1.02
869.036	-1.54
869.206	-0.77
869.376	6.17
869.545	8.46
869.715	11.11
869.885	10.12
870.055	14.58
870.224	18.18
870.394	14.78
870.564	21.17
870.734	24.56
870.903	24.86
871.073	19.98
871.243	17.7
871.412	14.97
871.582	14.19
871.751	13.59
871.921	11.6
872.091	10.25
872.26	10.88
872.43	7.9
872.599	6.08
872.769	3.76
872.938	10.4
873.108	11.38
873.277	12.6
873.446	13.22
873.616	12.11
873.785	12.48
873.955	8.89
874.124	8.51
874.293	8.26
874.463	7.56
874.632	10.56
874.801	8.67
874.971	5.57
875.14	4.57
875.309	0.79
875.478	2.75
875.647	2.69
875.817	4.09
875.986	11.8
876.155	5.38
876.324	9.03
876.493	11.76
876.662	8.51
876.831	8.03
877	7.2
877.17	4.92
877.339	4.27
877.508	4.91
877.677	10.67
877.846	4.42
878.015	6.31
878.184	4.63
878.352	0.59
878.521	1.74
878.69	6.94
878.859	9.92
879.028	15.22
879.197	13.71
879.366	14.6
879.534	11.67
879.703	10.18
879.872	11.32
880.041	11.38
880.21	11.54
880.378	13.24
880.547	10.19
880.716	9.08
880.884	7.81
881.053	6.88
881.222	6.56
881.39	6
881.559	6.73
881.727	6.75
881.896	6.98
882.065	6.49
882.233	6.83
882.402	7.98
882.57	8.05
882.739	8.24
882.907	9.1
883.076	9.12
883.244	9.51
883.412	9.51
883.581	9.46
883.749	8.72
883.918	9.36
884.086	7.76
884.254	7.42
884.423	7.65
884.591	7.09
884.759	5.61
884.927	6.91
885.096	6.72
885.264	7.16
885.432	6.93
885.6	8.29
885.769	8.22
885.937	8.97
886.105	9.21
886.273	8.87
886.441	10.29
886.609	13.64
886.777	11.19
886.945	12.59
887.113	13.03
887.281	14.03
887.449	16.56
887.617	14.29
887.785	13.17
887.953	13.09
888.121	13.72
888.289	12.05
888.457	11.76
888.625	11.81
888.793	13.36
888.961	6.02
889.129	6.07
889.296	1.53
889.464	4.07
889.632	8.01
889.8	7.49
889.967	7.21
890.135	9.03
