Data from 2938801__Reflection_02.txt Node
Date: Thu Mar 12 22:45:54 EDT 2015
User: robert
Spectrometer: USB4E03002
Autoset integration time: false
Trigger mode: 4
Integration Time (sec): 1.000000E-1
Scans to average: 10
Electric dark correction enabled: false
Nonlinearity correction enabled: false
Boxcar width: 5
Stray light correction enabled: false
XAxis mode: Wavelengths
Stop averaging: false
Number of Pixels in Spectrum: 3648
>>>>>Begin Spectral Data<<<<<
177.575	720.56
177.794	1827.78
178.014	635.26
178.233	697.33
178.452	344.95
178.672	350.85
178.891	367.7
179.11	337.72
179.33	308.89
179.549	325.41
179.768	223.84
179.987	179.55
180.207	189.82
180.426	180.14
180.645	188.61
180.864	185.13
181.084	201.23
181.303	132.97
181.522	125.16
181.741	113.76
181.96	119.27
182.179	132.02
182.398	147.99
182.618	139.75
182.837	130.41
183.056	138.72
183.275	129.43
183.494	126.17
183.713	137.76
183.932	138.77
184.151	152.62
184.37	138.01
184.589	134.68
184.808	131.29
185.027	134.97
185.246	148.4
185.465	133.26
185.684	146.93
185.903	136.34
186.122	140.59
186.341	147.58
186.56	136.34
186.779	127.59
186.998	142.06
187.216	144.24
187.435	134.87
187.654	124.94
187.873	126.96
188.092	131.94
188.311	149.12
188.53	139.95
188.748	126.85
188.967	128.87
189.186	135.64
189.405	122.64
189.623	112.28
189.842	106.32
190.061	112.19
190.28	111.62
190.498	106.39
190.717	89.31
190.936	94.95
191.154	89.5
191.373	92.75
191.592	91.3
191.81	91.13
192.029	91.02
192.248	95.58
192.466	87.93
192.685	86.34
192.904	89.78
193.122	96.18
193.341	109.02
193.559	140.62
193.778	136.3
193.996	142.17
194.215	136.82
194.433	165.11
194.652	183.15
194.87	205.11
195.089	228.95
195.307	189.47
195.526	166.67
195.744	171.95
195.963	155.71
196.181	164.57
196.399	167.35
196.618	148.85
196.836	131.41
197.055	121.95
197.273	126.12
197.491	117.24
197.71	130.75
197.928	154.37
198.146	144.17
198.365	126.89
198.583	123.35
198.801	123.56
199.019	154.77
199.238	156.85
199.456	157.02
199.674	151.02
199.892	149.37
200.111	145.33
200.329	146.91
200.547	160.35
200.765	165.72
200.983	149.87
201.202	138.37
201.42	122.35
201.638	124.89
201.856	128.94
202.074	136.08
202.292	135.69
202.51	124.54
202.728	122.63
202.946	101.63
203.165	107.75
203.383	117.38
203.601	130.89
203.819	137.49
204.037	133.5
204.255	143.81
204.473	133.51
204.691	129.05
204.909	129.32
205.127	119.43
205.345	131.34
205.562	116.36
205.78	114.21
205.998	120.66
206.216	115.18
206.434	120.95
206.652	112.28
206.87	109.43
207.088	100.97
207.306	105.77
207.523	102.34
207.741	105.6
207.959	117.81
208.177	117.22
208.395	95.41
208.612	99.44
208.83	95.55
209.048	96.32
209.266	100.95
209.483	121.51
209.701	109.15
209.919	106.6
210.136	109.31
210.354	107.6
210.572	111.68
210.79	122.81
211.007	122.17
211.225	124.2
211.442	123.13
211.66	117.32
211.878	99.33
212.095	102.54
212.313	101.54
212.53	94.03
212.748	92.91
212.966	86.16
213.183	85.39
213.401	90.02
213.618	83.73
213.836	86.24
214.053	87.08
214.271	93.15
214.488	95.32
214.705	102.38
214.923	111.83
215.14	109.5
215.358	120.86
215.575	130.88
215.793	112.57
216.01	111.17
216.227	100.38
216.445	103.85
216.662	114.62
216.879	110.62
217.097	112.08
217.314	94.52
217.531	96.31
217.749	94.77
217.966	90.52
218.183	98.43
218.4	96.9
218.618	100.85
218.835	92.8
219.052	91.61
219.269	89.07
219.487	84.42
219.704	87.51
219.921	84.87
220.138	75.25
220.355	72.64
220.572	69.45
220.79	64.71
221.007	60.77
221.224	62.85
221.441	58.66
221.658	55.64
221.875	53.68
222.092	51.77
222.309	53.4
222.526	56
222.743	54.48
222.96	53.74
223.177	53.54
223.394	57.25
223.611	60.21
223.828	61.23
224.045	60.29
224.262	59.65
224.479	55.11
224.696	51.73
224.913	49.07
225.13	48.72
225.347	45.87
225.564	42.92
225.781	40.09
225.997	36.13
226.214	32.72
226.431	30.21
226.648	26.92
226.865	25.13
227.082	23.55
227.298	20.47
227.515	18.27
227.732	16.4
227.949	16.57
228.165	15.49
228.382	13.68
228.599	13.43
228.816	12.86
229.032	12.56
229.249	12.36
229.466	11.21
229.682	11.59
229.899	12.13
230.116	12.61
230.332	12.09
230.549	11.6
230.765	13.15
230.982	14.41
231.199	15.15
231.415	15.87
231.632	16.78
231.848	18.76
232.065	19.76
232.281	19.66
232.498	20.06
232.714	20.82
232.931	22.59
233.147	21.98
233.364	21.03
233.58	21.16
233.797	21.81
234.013	21.33
234.23	20.04
234.446	20.51
234.662	19.53
234.879	20.06
235.095	20.04
235.312	18.94
235.528	20.4
235.744	20.76
235.961	20.53
236.177	19.55
236.393	20.6
236.61	22.83
236.826	23.5
237.042	24.55
237.258	23.33
237.475	23.18
237.691	24.79
237.907	23.48
238.123	22.54
238.339	21.27
238.556	20.62
238.772	20.16
238.988	19.24
239.204	18.06
239.42	17.9
239.636	17.3
239.853	16.84
240.069	14.94
240.285	14.54
240.501	13.86
240.717	13.98
240.933	13.51
241.149	12.15
241.365	11.1
241.581	10.64
241.797	9.82
242.013	9.59
242.229	9.75
242.445	10.16
242.661	10.35
242.877	10.36
243.093	10.46
243.309	10.96
243.525	11.23
243.741	11.61
243.957	11.59
244.173	11.99
244.388	12.91
244.604	12.35
244.82	11.84
245.036	11.19
245.252	11.26
245.468	10.74
245.683	10.78
245.899	11.09
246.115	10.75
246.331	10.49
246.547	10.24
246.762	9.69
246.978	9.48
247.194	9.44
247.409	9.3
247.625	9.11
247.841	9.1
248.057	8.68
248.272	8.08
248.488	7.97
248.703	8.16
248.919	7.97
249.135	8.24
249.35	8.75
249.566	9.2
249.782	9.55
249.997	10.18
250.213	10.46
250.428	11.15
250.644	12.33
250.859	12.42
251.075	12.1
251.29	11.98
251.506	12.12
251.721	11.88
251.937	11.41
252.152	11.48
252.368	10.73
252.583	10.96
252.798	10.99
253.014	10.55
253.229	11.03
253.445	11.16
253.66	11.72
253.875	10.88
254.091	10.59
254.306	10.89
254.521	10.73
254.737	11.47
254.952	10.96
255.167	10.46
255.383	10.44
255.598	9.53
255.813	10.05
256.028	10.18
256.244	10.97
256.459	11.08
256.674	11.15
256.889	11.18
257.104	10.86
257.32	10.76
257.535	9.95
257.75	10.15
257.965	10.29
258.18	9.7
258.395	9.17
258.61	8.38
258.826	8
259.041	7.38
259.256	6.97
259.471	6.9
259.686	6.88
259.901	6.95
260.116	6.66
260.331	6.44
260.546	6.53
260.761	6.6
260.976	7.12
261.191	7.16
261.406	7.25
261.621	7.5
261.836	7.43
262.05	7.59
262.265	7.77
262.48	7.98
262.695	8.22
262.91	8.23
263.125	8.51
263.34	8.18
263.555	8.72
263.769	8.77
263.984	8.66
264.199	8.63
264.414	8.96
264.629	8.78
264.843	9.42
265.058	8.87
265.273	8.09
265.488	7.97
265.702	7.92
265.917	7.73
266.132	8.12
266.346	8.14
266.561	8.37
266.776	8.23
266.99	8.21
267.205	7.68
267.42	7.83
267.634	7.94
267.849	7.98
268.063	7.78
268.278	7.75
268.492	7.87
268.707	7.86
268.922	8.26
269.136	7.87
269.351	8.05
269.565	8.02
269.78	8.37
269.994	8.69
270.209	8.49
270.423	8.33
270.637	7.97
270.852	7.48
271.066	7.15
271.281	6.47
271.495	6.52
271.709	6.46
271.924	6.25
272.138	6.01
272.353	5.8
272.567	5.99
272.781	6.14
272.996	6.3
273.21	6.55
273.424	6.75
273.638	7.11
273.853	7.07
274.067	7.2
274.281	7.6
274.495	7.53
274.71	7.61
274.924	7.34
275.138	7.39
275.352	7.33
275.566	7.07
275.781	7.46
275.995	7.12
276.209	7.3
276.423	7.49
276.637	7.48
276.851	7.9
277.065	8.14
277.279	8.38
277.493	8.24
277.707	8.23
277.921	8.68
278.135	8.48
278.349	8.66
278.563	8.9
278.777	8.65
278.991	8.18
279.205	8.1
279.419	7.58
279.633	7.51
279.847	7.55
280.061	7.65
280.275	7.27
280.489	7.19
280.703	7.31
280.917	6.86
281.131	6.64
281.344	6.7
281.558	6.41
281.772	6.5
281.986	6.03
282.2	5.92
282.414	5.75
282.627	5.82
282.841	5.78
283.055	5.55
283.269	5.71
283.482	6.07
283.696	6.21
283.91	6.34
284.123	6.68
284.337	6.99
284.551	6.91
284.764	7.21
284.978	6.85
285.192	6.77
285.405	6.97
285.619	6.9
285.833	6.65
286.046	6.47
286.26	6.38
286.473	6.21
286.687	6.02
286.9	6.05
287.114	5.95
287.327	6.43
287.541	6.46
287.754	6.66
287.968	6.85
288.181	6.72
288.395	6.78
288.608	6.96
288.822	7.11
289.035	7.33
289.248	7.55
289.462	7.35
289.675	7.07
289.889	7.01
290.102	6.46
290.315	6.24
290.529	6.52
290.742	6.6
290.955	6.52
291.169	6.09
291.382	6.22
291.595	6.23
291.808	6.36
292.022	6.6
292.235	6.84
292.448	7.02
292.661	6.78
292.875	6.7
293.088	7.19
293.301	7.39
293.514	7.43
293.727	7.07
293.94	7.22
294.153	7.04
294.367	6.83
294.58	6.74
294.793	7.09
295.006	7.49
295.219	7.55
295.432	7.17
295.645	6.99
295.858	7.37
296.071	7.45
296.284	7.41
296.497	7.63
296.71	7.67
296.923	7.69
297.136	7.34
297.349	7.02
297.562	7
297.775	7.11
297.988	7.04
298.201	6.95
298.414	6.81
298.626	6.62
298.839	6.44
299.052	6.37
299.265	6.46
299.478	6.58
299.691	6.91
299.903	6.82
300.116	6.63
300.329	7.01
300.542	7.11
300.755	7.65
300.967	8.08
301.18	8.21
301.393	8.58
301.605	8.32
301.818	8.59
302.031	8.75
302.243	9.22
302.456	9.83
302.669	9.54
302.881	9.64
303.094	9.28
303.307	9.14
303.519	9.02
303.732	8.77
303.944	8.9
304.157	9.03
304.37	8.93
304.582	8.85
304.795	8.62
305.007	9.12
305.22	8.9
305.432	9.24
305.645	9.1
305.857	9.22
306.069	9.22
306.282	9.26
306.494	9.06
306.707	9.24
306.919	9.19
307.132	9.1
307.344	8.88
307.556	8.6
307.769	8.77
307.981	8.81
308.193	8.9
308.406	8.84
308.618	8.68
308.83	8.41
309.043	8.24
309.255	8.21
309.467	8
309.679	8.05
309.892	8.33
310.104	7.94
310.316	7.91
310.528	7.87
310.74	7.83
310.953	8.11
311.165	8.4
311.377	8.43
311.589	8.26
311.801	8.24
312.013	8.34
312.225	8.49
312.437	9.09
312.649	9.11
312.862	9.17
313.074	9.41
313.286	9.66
313.498	9.58
313.71	9.79
313.922	10.09
314.134	10.53
314.346	10.47
314.558	10.57
314.77	10.13
314.982	10.1
315.193	10.18
315.405	10.08
315.617	9.74
315.829	9.68
316.041	9.71
316.253	9.43
316.465	9.57
316.677	9.75
316.888	9.79
317.1	9.62
317.312	9.76
317.524	9.54
317.736	9.91
317.947	10.02
318.159	10.25
318.371	10.39
318.583	11.13
318.794	11.12
319.006	11
319.218	11.07
319.43	11.55
319.641	12.08
319.853	12.55
320.064	12.35
320.276	12.49
320.488	12.95
320.699	13.28
320.911	13.05
321.123	12.82
321.334	12.92
321.546	12.96
321.757	12.85
321.969	12.74
322.18	12.56
322.392	12.47
322.603	12.73
322.815	12.47
323.026	11.81
323.238	11.64
323.449	11.84
323.661	11.63
323.872	11.4
324.083	11.36
324.295	11.32
324.506	11.26
324.718	11.44
324.929	11.46
325.14	11.66
325.352	12.1
325.563	12.2
325.774	12.38
325.986	12.41
326.197	12.77
326.408	12.98
326.62	12.99
326.831	13.49
327.042	13.47
327.253	13.54
327.464	13.41
327.676	13.67
327.887	13.78
328.098	13.87
328.309	14.2
328.52	14.4
328.732	14.58
328.943	14.65
329.154	14.65
329.365	15.1
329.576	15.16
329.787	15.43
329.998	15.57
330.209	16.12
330.42	16.5
330.631	16.83
330.842	16.77
331.053	17.1
331.264	17.21
331.475	17.17
331.686	17.33
331.897	17.41
332.108	17.38
332.319	17.32
332.53	17.26
332.741	17.1
332.952	16.94
333.163	16.74
333.374	16.72
333.585	16.95
333.795	17.26
334.006	17.38
334.217	17.61
334.428	17.73
334.639	17.6
334.849	17.66
335.06	18.03
335.271	18.17
335.482	18.41
335.692	18.35
335.903	18.22
336.114	17.99
336.325	18.25
336.535	18.24
336.746	18.23
336.957	18.36
337.167	18.29
337.378	18.24
337.589	18.3
337.799	18.59
338.01	18.85
338.22	18.99
338.431	18.98
338.642	18.5
338.852	18.4
339.063	18.5
339.273	18.6
339.484	18.45
339.694	18.2
339.905	18.13
340.115	17.74
340.326	17.4
340.536	17.43
340.746	17.35
340.957	17.36
341.167	17.42
341.378	17.77
341.588	17.6
341.799	17.5
342.009	17.34
342.219	17.38
342.43	17.74
342.64	17.94
342.85	18.07
343.061	18.27
343.271	18.43
343.481	18.33
343.691	17.91
343.902	17.84
344.112	17.98
344.322	18.34
344.532	18.12
344.743	17.9
344.953	17.57
345.163	17.4
345.373	17.52
345.583	17.33
345.793	17.2
346.004	17.06
346.214	17.36
346.424	17.42
346.634	17.08
346.844	17.43
347.054	17.38
347.264	17.66
347.474	17.47
347.684	17.11
347.894	17.2
348.104	17.16
348.314	17.42
348.524	17.06
348.734	17.11
348.944	17.13
349.154	16.79
349.364	16.91
349.574	16.62
349.784	16.6
349.994	16.92
350.204	16.98
350.413	17.05
350.623	16.89
350.833	17.03
351.043	16.94
351.253	17.32
351.463	17.49
351.672	17.26
351.882	17.42
352.092	17.37
352.302	17.21
352.511	17
352.721	17.2
352.931	17.38
353.141	17.08
353.35	16.88
353.56	16.62
353.77	16.56
353.979	16.51
354.189	16.53
354.399	16.68
354.608	16.6
354.818	16.55
355.027	16.33
355.237	16.06
355.447	16.19
355.656	16.3
355.866	16.18
356.075	16
356.285	16.08
356.494	15.95
356.704	15.8
356.913	15.81
357.123	15.87
357.332	15.75
357.542	15.61
357.751	15.62
357.96	15.5
358.17	15.38
358.379	15.53
358.589	15.49
358.798	15.49
359.007	15.68
359.217	15.7
359.426	15.67
359.635	15.73
359.845	15.82
360.054	15.63
360.263	15.61
360.472	15.48
360.682	15.33
360.891	15.31
361.1	15.11
361.309	15
361.519	14.9
361.728	14.81
361.937	14.8
362.146	14.74
362.355	14.95
362.564	14.94
362.774	15.16
362.983	15.16
363.192	15.26
363.401	15.29
363.61	15.09
363.819	15.05
364.028	15.04
364.237	14.89
364.446	14.88
364.655	14.63
364.864	14.62
365.073	14.5
365.282	14.43
365.491	14.38
365.7	14.49
365.909	14.76
366.118	14.97
366.327	15
366.536	14.89
366.745	15.3
366.954	15.32
367.162	15.46
367.371	15.44
367.58	15.62
367.789	15.76
367.998	15.62
368.207	15.65
368.415	15.63
368.624	15.47
368.833	15.77
369.042	15.36
369.25	15.4
369.459	15.33
369.668	15.42
369.877	15.35
370.085	15.34
370.294	15.6
370.503	15.55
370.711	15.35
370.92	15.59
371.129	15.52
371.337	15.52
371.546	15.5
371.754	15.54
371.963	15.33
372.171	15.24
372.38	15.03
372.589	14.93
372.797	14.86
373.006	14.88
373.214	14.71
373.423	14.55
373.631	14.57
373.84	14.61
374.048	14.44
374.256	14.47
374.465	14.39
374.673	14.26
374.882	14.14
375.09	14.05
375.298	14.12
375.507	14.23
375.715	14.18
375.923	14.2
376.132	13.93
376.34	13.82
376.548	13.81
376.757	14.05
376.965	14.03
377.173	14.02
377.381	13.84
377.59	13.59
377.798	13.45
378.006	13.67
378.214	13.69
378.423	13.62
378.631	13.71
378.839	13.47
379.047	13.21
379.255	13.4
379.463	13.46
379.671	13.61
379.879	13.65
380.088	13.79
380.296	13.75
380.504	13.5
380.712	13.53
380.92	13.38
381.128	13.55
381.336	13.81
381.544	13.71
381.752	13.62
381.96	13.61
382.168	13.55
382.376	13.49
382.584	13.4
382.791	13.6
382.999	13.74
383.207	13.7
383.415	13.67
383.623	13.47
383.831	13.29
384.039	13.58
384.247	13.65
384.454	13.72
384.662	13.63
384.87	13.71
385.078	13.62
385.285	13.59
385.493	13.83
385.701	13.72
385.909	13.61
386.116	13.64
386.324	13.4
386.532	13.5
386.739	13.61
386.947	13.57
387.155	13.58
387.362	13.61
387.57	13.66
387.778	13.64
387.985	13.75
388.193	13.83
388.4	13.74
388.608	13.92
388.816	13.79
389.023	13.82
389.231	13.89
389.438	13.73
389.646	13.57
389.853	13.47
390.061	13.39
390.268	13.42
390.475	13.35
390.683	13.54
390.89	13.33
391.098	13.21
391.305	13.06
391.512	13.02
391.72	12.93
391.927	12.89
392.135	13.04
392.342	13.05
392.549	12.93
392.756	12.83
392.964	12.64
393.171	12.67
393.378	12.57
393.586	12.51
393.793	12.41
394	12.42
394.207	12.58
394.414	12.51
394.622	12.51
394.829	12.63
395.036	12.66
395.243	12.81
395.45	13.1
395.657	13.32
395.864	13.4
396.072	13.64
396.279	13.67
396.486	13.54
396.693	13.55
396.9	13.42
397.107	13.33
397.314	13.23
397.521	13.17
397.728	12.73
397.935	12.67
398.142	12.53
398.349	12.36
398.556	12.36
398.763	12.57
398.97	12.46
399.177	12.51
399.383	12.64
399.59	12.67
399.797	12.81
400.004	12.84
400.211	12.95
400.418	13.23
400.625	13.17
400.831	13.04
401.038	12.93
401.245	12.82
401.452	12.83
401.658	12.82
401.865	12.9
402.072	12.71
402.279	12.75
402.485	12.57
402.692	12.31
402.899	12.36
403.105	12.46
403.312	12.35
403.519	12.51
403.725	12.43
403.932	12.28
404.138	12.34
404.345	12.33
404.552	12.39
404.758	12.41
404.965	12.5
405.171	12.61
405.378	12.61
405.584	12.72
405.791	12.54
405.997	12.71
406.204	12.89
406.41	12.96
406.617	13.04
406.823	13.11
407.029	13.22
407.236	13.24
407.442	13.09
407.649	13.21
407.855	13.17
408.061	13.31
408.268	13.12
408.474	13.13
408.68	12.95
408.887	12.72
409.093	12.58
409.299	12.55
409.505	12.43
409.712	12.5
409.918	12.42
410.124	12.44
410.33	12.5
410.537	12.45
410.743	12.33
410.949	12.25
411.155	12.36
411.361	12.25
411.567	12.18
411.773	12.12
411.98	12.06
412.186	12.23
412.392	12.14
412.598	12
412.804	12.13
413.01	12.06
413.216	12.15
413.422	12.26
413.628	12.44
413.834	12.51
414.04	12.69
414.246	12.59
414.452	12.44
414.658	12.61
414.864	12.68
415.07	12.74
415.275	12.68
415.481	12.66
415.687	12.6
415.893	12.48
416.099	12.46
416.305	12.42
416.511	12.41
416.716	12.38
416.922	12.3
417.128	12.27
417.334	12.24
417.539	12.3
417.745	12.31
417.951	12.29
418.157	12.27
418.362	12.23
418.568	12.16
418.774	12.14
418.979	12.02
419.185	11.97
419.391	11.93
419.596	11.88
419.802	11.8
420.008	11.78
420.213	11.77
420.419	11.73
420.624	11.69
420.83	11.71
421.035	11.75
421.241	11.76
421.446	11.75
421.652	11.67
421.857	11.66
422.063	11.66
422.268	11.71
422.474	11.75
422.679	11.75
422.885	11.75
423.09	11.69
423.295	11.68
423.501	11.8
423.706	11.82
423.911	11.93
424.117	11.93
424.322	11.94
424.527	11.82
424.733	11.73
424.938	11.72
425.143	11.77
425.349	11.83
425.554	11.85
425.759	11.8
425.964	11.85
426.169	11.9
426.375	11.89
426.58	11.91
426.785	12.01
426.99	12.19
427.195	12.27
427.4	12.24
427.605	12.34
427.811	12.35
428.016	12.35
428.221	12.35
428.426	12.29
428.631	12.41
428.836	12.4
429.041	12.51
429.246	12.46
429.451	12.48
429.656	12.42
429.861	12.4
430.066	12.46
430.271	12.42
430.476	12.39
430.681	12.38
430.886	12.31
431.09	12.34
431.295	12.15
431.5	12.05
431.705	12.06
431.91	12.07
432.115	12.03
432.32	12.05
432.524	12.04
432.729	12.07
432.934	11.97
433.139	11.92
433.343	11.91
433.548	12.04
433.753	12.02
433.958	11.95
434.162	12
434.367	11.96
434.572	11.86
434.776	11.84
434.981	11.82
435.186	11.94
435.39	12.03
435.595	11.98
435.799	11.99
436.004	12.04
436.209	12.04
436.413	11.96
436.618	11.91
436.822	11.95
437.027	12.01
437.231	12
437.436	11.97
437.64	11.98
437.845	12.06
438.049	12.03
438.253	12.01
438.458	12.09
438.662	12.13
438.867	12.17
439.071	12.26
439.275	12.25
439.48	12.22
439.684	12.12
439.888	12.13
440.093	12.02
440.297	11.94
440.501	11.99
440.706	11.91
440.91	11.92
441.114	11.9
441.318	11.88
441.523	11.89
441.727	11.96
441.931	12.05
442.135	11.98
442.339	12.1
442.543	12.12
442.748	12.11
442.952	12.17
443.156	12.24
443.36	12.22
443.564	12.15
443.768	12.17
443.972	12.02
444.176	11.99
444.38	11.97
444.584	11.92
444.788	11.88
444.992	11.82
445.196	11.74
445.4	11.7
445.604	11.75
445.808	11.73
446.012	11.68
446.216	11.78
446.42	11.71
446.624	11.72
446.828	11.71
447.032	11.76
447.235	11.78
447.439	11.83
447.643	11.85
447.847	11.87
448.051	11.86
448.254	11.84
448.458	11.76
448.662	11.84
448.866	11.81
449.069	11.78
449.273	11.83
449.477	11.96
449.681	11.98
449.884	12.08
450.088	12.08
450.292	12.14
450.495	12.12
450.699	12.21
450.902	12.29
451.106	12.32
451.31	12.45
451.513	12.35
451.717	12.19
451.92	12.27
452.124	12.24
452.327	12.18
452.531	12.25
452.734	12.3
452.938	12.26
453.141	12.21
453.345	12.24
453.548	12.24
453.752	12.26
453.955	12.36
454.158	12.25
454.362	12.13
454.565	12.11
454.769	12.08
454.972	12.15
455.175	12.25
455.379	12.25
455.582	12.32
455.785	12.24
455.988	12.27
456.192	12.23
456.395	12.24
456.598	12.3
456.801	12.45
457.005	12.41
457.208	12.42
457.411	12.36
457.614	12.27
457.817	12.08
458.021	12.01
458.224	12.02
458.427	11.9
458.63	11.9
458.833	11.81
459.036	11.75
459.239	11.73
459.442	11.66
459.645	11.53
459.848	11.6
460.051	11.65
460.254	11.74
460.457	11.72
460.66	11.79
460.863	11.8
461.066	11.82
461.269	11.8
461.472	11.87
461.675	11.95
461.878	12.09
462.081	12.13
462.284	12.14
462.486	12.05
462.689	12.11
462.892	12.08
463.095	12.08
463.298	12.18
463.5	12.26
463.703	12.25
463.906	12.2
464.109	12.25
464.311	12.25
464.514	12.31
464.717	12.34
464.92	12.3
465.122	12.31
465.325	12.36
465.528	12.35
465.73	12.28
465.933	12.26
466.135	12.25
466.338	12.12
466.541	12.12
466.743	12.08
466.946	12.12
467.148	12.04
467.351	12.06
467.553	12.02
467.756	11.93
467.958	11.94
468.161	11.89
468.363	12
468.566	12.09
468.768	12.04
468.971	12.09
469.173	12.04
469.375	12.16
469.578	12.24
469.78	12.22
469.983	12.33
470.185	12.34
470.387	12.3
470.59	12.31
470.792	12.38
470.994	12.37
471.196	12.27
471.399	12.31
471.601	12.3
471.803	12.08
472.005	12.09
472.208	12.02
472.41	12.06
472.612	12.11
472.814	12.03
473.016	11.94
473.218	11.96
473.421	12
473.623	12.04
473.825	12.02
474.027	12.2
474.229	12.22
474.431	12.32
474.633	12.32
474.835	12.42
475.037	12.39
475.239	12.43
475.441	12.41
475.643	12.45
475.845	12.35
476.047	12.41
476.249	12.42
476.451	12.42
476.653	12.42
476.855	12.44
477.057	12.34
477.258	12.32
477.46	12.26
477.662	12.39
477.864	12.36
478.066	12.46
478.268	12.34
478.469	12.32
478.671	12.39
478.873	12.39
479.075	12.33
479.276	12.37
479.478	12.43
479.68	12.55
479.882	12.37
480.083	12.43
480.285	12.32
480.487	12.38
480.688	12.34
480.89	12.23
481.091	12.13
481.293	12.15
481.495	12.03
481.696	11.97
481.898	11.84
482.099	11.77
482.301	11.75
482.502	11.74
482.704	11.64
482.905	11.58
483.107	11.54
483.308	11.52
483.51	11.47
483.711	11.47
483.913	11.45
484.114	11.43
484.315	11.43
484.517	11.4
484.718	11.39
484.92	11.42
485.121	11.4
485.322	11.4
485.524	11.42
485.725	11.43
485.926	11.43
486.127	11.43
486.329	11.44
486.53	11.45
486.731	11.46
486.932	11.43
487.134	11.42
487.335	11.46
487.536	11.47
487.737	11.47
487.938	11.42
488.139	11.45
488.341	11.45
488.542	11.49
488.743	11.52
488.944	11.54
489.145	11.58
489.346	11.63
489.547	11.65
489.748	11.66
489.949	11.69
490.15	11.73
490.351	11.73
490.552	11.71
490.753	11.64
490.954	11.64
491.155	11.63
491.356	11.66
491.557	11.6
491.758	11.62
491.959	11.64
492.159	11.65
492.36	11.65
492.561	11.67
492.762	11.78
492.963	11.89
493.164	11.9
493.364	11.95
493.565	12.05
493.766	12.17
493.967	12.16
494.167	12.19
494.368	12.22
494.569	12.31
494.769	12.28
494.97	12.21
495.171	12.13
495.371	12.23
495.572	12.19
495.773	12.1
495.973	12.03
496.174	12.11
496.375	12.06
496.575	12.05
496.776	12.09
496.976	12.1
497.177	12.06
497.377	12.1
497.578	12.04
497.778	12.06
497.979	12.07
498.179	12.21
498.38	12.2
498.58	12.29
498.78	12.33
498.981	12.27
499.181	12.27
499.382	12.33
499.582	12.33
499.782	12.33
499.983	12.37
500.183	12.38
500.383	12.37
500.584	12.35
500.784	12.33
500.984	12.31
501.184	12.45
501.385	12.53
501.585	12.6
501.785	12.61
501.985	12.62
502.185	12.61
502.386	12.61
502.586	12.53
502.786	12.59
502.986	12.64
503.186	12.74
503.386	12.65
503.586	12.63
503.786	12.61
503.987	12.6
504.187	12.64
504.387	12.69
504.587	12.76
504.787	12.73
504.987	12.7
505.187	12.68
505.387	12.63
505.587	12.64
505.786	12.7
505.986	12.71
506.186	12.82
506.386	12.85
506.586	12.77
506.786	12.76
506.986	12.82
507.186	12.88
507.386	12.89
507.585	12.82
507.785	12.87
507.985	12.87
508.185	12.89
508.384	12.86
508.584	12.94
508.784	13.04
508.984	13.05
509.183	13.08
509.383	13.05
509.583	13.11
509.782	13.18
509.982	13.24
510.182	13.29
510.381	13.33
510.581	13.32
510.781	13.32
510.98	13.33
511.18	13.4
511.379	13.47
511.579	13.5
511.778	13.48
511.978	13.54
512.177	13.55
512.377	13.5
512.576	13.51
512.776	13.58
512.975	13.59
513.175	13.63
513.374	13.59
513.573	13.63
513.773	13.67
513.972	13.69
514.172	13.72
514.371	13.7
514.57	13.8
514.77	13.9
514.969	13.91
515.168	14.01
515.367	14.02
515.567	14.1
515.766	14.22
515.965	14.27
516.164	14.36
516.364	14.37
516.563	14.39
516.762	14.31
516.961	14.33
517.16	14.43
517.359	14.43
517.559	14.47
517.758	14.5
517.957	14.48
518.156	14.5
518.355	14.5
518.554	14.55
518.753	14.55
518.952	14.62
519.151	14.63
519.35	14.55
519.549	14.57
519.748	14.55
519.947	14.65
520.146	14.66
520.345	14.77
520.544	14.83
520.743	14.93
520.942	15.02
521.141	15.08
521.339	15.18
521.538	15.34
521.737	15.43
521.936	15.5
522.135	15.46
522.333	15.53
522.532	15.52
522.731	15.58
522.93	15.54
523.129	15.53
523.327	15.65
523.526	15.67
523.725	15.74
523.923	15.73
524.122	15.82
524.321	15.85
524.519	15.85
524.718	15.85
524.917	15.88
525.115	15.91
525.314	16
525.512	16.02
525.711	16
525.909	15.95
526.108	16.01
526.306	16.02
526.505	16.06
526.703	16.06
526.902	16.13
527.1	16.14
527.299	16.19
527.497	16.19
527.696	16.18
527.894	16.23
528.092	16.26
528.291	16.26
528.489	16.27
528.688	16.27
528.886	16.3
529.084	16.31
529.283	16.34
529.481	16.37
529.679	16.41
529.877	16.5
530.076	16.55
530.274	16.65
530.472	16.69
530.67	16.8
530.869	16.93
531.067	17
531.265	17.02
531.463	17.12
531.661	17.19
531.859	17.24
532.057	17.24
532.255	17.27
532.454	17.29
532.652	17.34
532.85	17.35
533.048	17.35
533.246	17.44
533.444	17.5
533.642	17.51
533.84	17.57
534.038	17.59
534.236	17.64
534.434	17.66
534.632	17.71
534.83	17.77
535.027	17.78
535.225	17.86
535.423	17.85
535.621	17.94
535.819	17.93
536.017	17.96
536.215	18.05
536.412	18.08
536.61	18.14
536.808	18.17
537.006	18.21
537.203	18.26
537.401	18.33
537.599	18.42
537.797	18.41
537.994	18.52
538.192	18.59
538.39	18.69
538.587	18.79
538.785	18.85
538.983	18.91
539.18	18.94
539.378	19
539.575	19.04
539.773	19.02
539.97	19
540.168	18.95
540.366	18.95
540.563	18.94
540.761	18.89
540.958	18.9
541.155	18.81
541.353	18.78
541.55	18.79
541.748	18.74
541.945	18.77
542.143	18.78
542.34	18.83
542.537	18.84
542.735	18.81
542.932	18.88
543.129	18.92
543.327	19.01
543.524	19.11
543.721	19.15
543.919	19.28
544.116	19.36
544.313	19.48
544.51	19.5
544.708	19.55
544.905	19.56
545.102	19.53
545.299	19.58
545.496	19.67
545.693	19.67
545.891	19.66
546.088	19.64
546.285	19.64
546.482	19.61
546.679	19.67
546.876	19.69
547.073	19.74
547.27	19.86
547.467	19.92
547.664	19.89
547.861	19.84
548.058	19.97
548.255	20
548.452	20.02
548.649	20.11
548.846	20.16
549.043	20.17
549.24	20.31
549.437	20.26
549.633	20.22
549.83	20.23
550.027	20.23
550.224	20.1
550.421	20.11
550.618	20.18
550.814	20.22
551.011	20.18
551.208	20.15
551.405	20.09
551.601	20.04
551.798	20.05
551.995	20.13
552.191	20.33
552.388	20.3
552.585	20.33
552.781	20.3
552.978	20.37
553.175	20.36
553.371	20.42
553.568	20.4
553.764	20.42
553.961	20.44
554.157	20.41
554.354	20.35
554.55	20.44
554.747	20.45
554.943	20.53
555.14	20.41
555.336	20.61
555.533	20.68
555.729	20.79
555.926	20.82
556.122	20.79
556.318	20.78
556.515	20.83
556.711	20.8
556.907	20.79
557.104	20.87
557.3	20.94
557.496	20.93
557.693	20.86
557.889	20.86
558.085	20.94
558.281	21.04
558.478	21.05
558.674	21.1
558.87	21.12
559.066	21.01
559.262	20.89
559.459	20.83
559.655	20.72
559.851	20.8
560.047	20.71
560.243	20.72
560.439	20.58
560.635	20.65
560.831	20.67
561.027	20.8
561.223	20.96
561.419	20.84
561.615	20.83
561.811	20.85
562.007	20.86
562.203	20.85
562.399	20.88
562.595	20.91
562.791	20.96
562.987	20.91
563.183	20.86
563.379	20.82
563.575	21.07
563.771	21.11
563.966	21
564.162	20.92
564.358	21.07
564.554	20.87
564.75	20.85
564.945	20.83
565.141	20.81
565.337	20.81
565.533	20.85
565.728	20.74
565.924	20.76
566.12	20.85
566.315	20.94
566.511	20.86
566.707	21.02
566.902	21.05
567.098	20.98
567.293	20.96
567.489	20.93
567.684	20.87
567.88	20.84
568.076	20.83
568.271	20.91
568.467	20.81
568.662	20.86
568.858	20.89
569.053	20.99
569.248	21.03
569.444	21.09
569.639	21.14
569.835	21.11
570.03	21.11
570.225	21.14
570.421	21.11
570.616	21.07
570.812	21.06
571.007	20.97
571.202	20.98
571.397	21.04
571.593	21.01
571.788	21
571.983	21.01
572.178	21.05
572.374	21.08
572.569	20.95
572.764	21.08
572.959	21.08
573.154	21.13
573.35	21.1
573.545	21.08
573.74	21.04
573.935	20.98
574.13	20.95
574.325	20.88
574.52	20.92
574.715	21
574.91	21.04
575.105	21.04
575.3	21.1
575.495	21.01
575.69	21
575.885	21.09
576.08	21.23
576.275	21.36
576.47	21.45
576.665	21.46
576.86	21.54
577.055	21.55
577.25	21.62
577.444	21.57
577.639	21.89
577.834	21.96
578.029	22.09
578.224	22.03
578.418	22.16
578.613	22.13
578.808	22
579.003	21.89
579.197	21.83
579.392	21.84
579.587	21.88
579.781	21.66
579.976	21.6
580.171	21.39
580.365	21.33
580.56	21.17
580.755	21.29
580.949	21.31
581.144	21.38
581.338	21.43
581.533	21.42
581.727	21.34
581.922	21.34
582.116	21.42
582.311	21.53
582.505	21.61
582.7	21.74
582.894	21.82
583.089	21.83
583.283	21.75
583.478	21.86
583.672	21.79
583.866	21.9
584.061	21.91
584.255	22.02
584.449	22.02
584.644	22.03
584.838	22.02
585.032	21.9
585.226	21.91
585.421	22.06
585.615	21.8
585.809	21.96
586.003	21.94
586.198	22.09
586.392	22.12
586.586	22.17
586.78	22.13
586.974	22.09
587.168	22.04
587.363	22.07
587.557	22.13
587.751	22.29
587.945	22.24
588.139	22.43
588.333	22.37
588.527	22.29
588.721	22.29
588.915	22.38
589.109	22.13
589.303	22.24
589.497	22.3
589.691	22.28
589.885	22.36
590.079	22.29
590.273	22.17
590.466	22.11
590.66	22.12
590.854	22.07
591.048	22.09
591.242	22.21
591.436	22.07
591.629	21.96
591.823	21.96
592.017	21.88
592.211	21.97
592.404	21.97
592.598	21.96
592.792	21.97
592.986	22.05
593.179	21.95
593.373	22.09
593.567	22.37
593.76	22.54
593.954	22.43
594.147	22.44
594.341	22.37
594.535	22.21
594.728	22.34
594.922	22.32
595.115	22.25
595.309	22.32
595.502	22.2
595.696	21.99
595.889	21.91
596.083	21.98
596.276	21.93
596.47	21.88
596.663	22
596.856	21.88
597.05	21.8
597.243	21.77
597.437	21.75
597.63	21.83
597.823	21.91
598.017	21.96
598.21	22.12
598.403	22.26
598.596	22.43
598.79	22.48
598.983	22.52
599.176	22.72
599.369	22.83
599.563	23.01
599.756	23.1
599.949	23.08
600.142	23.13
600.335	23
600.528	22.9
600.722	22.85
600.915	22.94
601.108	22.99
601.301	22.92
601.494	22.9
601.687	22.72
601.88	22.62
602.073	22.63
602.266	22.5
602.459	22.5
602.652	22.57
602.845	22.54
603.038	22.51
603.231	22.56
603.424	22.38
603.617	22.39
603.809	22.4
604.002	22.48
604.195	22.35
604.388	22.42
604.581	22.43
604.774	22.33
604.966	22.43
605.159	22.44
605.352	22.4
605.545	22.48
605.737	22.47
605.93	22.52
606.123	22.59
606.316	22.91
606.508	22.96
606.701	23.11
606.894	23.28
607.086	23.36
607.279	23.34
607.471	23.23
607.664	23.43
607.857	23.58
608.049	23.69
608.242	23.77
608.434	23.86
608.627	24.02
608.819	24.19
609.012	24.46
609.204	24.67
609.397	25.03
609.589	25.55
609.782	26
609.974	26.52
610.166	26.99
610.359	27.41
610.551	27.72
610.743	28.16
610.936	28.46
611.128	28.66
611.32	28.81
611.513	28.94
611.705	29.01
611.897	28.96
612.09	28.81
612.282	28.75
612.474	28.6
612.666	28.51
612.858	28.18
613.051	27.91
613.243	27.81
613.435	27.73
613.627	27.47
613.819	27.31
614.011	27.14
614.203	26.83
614.395	26.38
614.588	26.17
614.78	26
614.972	25.91
615.164	25.86
615.356	25.43
615.548	25.14
615.74	25.35
615.932	25.3
616.124	25
616.315	24.92
616.507	25.19
616.699	25.02
616.891	24.9
617.083	24.98
617.275	24.86
617.467	24.72
617.659	24.82
617.85	24.52
618.042	24.5
618.234	24.56
618.426	24.75
618.618	24.57
618.809	24.48
619.001	24.49
619.193	24.47
619.384	24.44
619.576	24.67
619.768	24.77
619.959	24.83
620.151	24.72
620.343	24.65
620.534	24.41
620.726	24.26
620.917	24.36
621.109	24.39
621.301	24.41
621.492	24.48
621.684	24.59
621.875	24.31
622.067	24.24
622.258	24.14
622.45	24.22
622.641	24.37
622.832	24.52
623.024	24.56
623.215	24.58
623.407	24.51
623.598	24.46
623.789	24.34
623.981	24.52
624.172	24.68
624.363	24.7
624.555	24.77
624.746	24.69
624.937	24.79
625.129	24.75
625.32	24.56
625.511	24.61
625.702	24.75
625.893	24.76
626.085	24.66
626.276	24.44
626.467	24.52
626.658	24.49
626.849	24.39
627.04	24.26
627.231	24.3
627.422	24.39
627.614	24.26
627.805	24.08
627.996	24.2
628.187	24.19
628.378	24.38
628.569	24.38
628.76	24.44
628.951	24.67
629.142	24.65
629.332	24.84
629.523	24.85
629.714	25
629.905	25.24
630.096	25.4
630.287	25.61
630.478	25.66
630.669	25.92
630.859	25.93
631.05	25.75
631.241	25.87
631.432	25.69
631.623	25.68
631.813	25.58
632.004	25.32
632.195	25.15
632.385	24.9
632.576	24.61
632.767	24.43
632.957	24.13
633.148	24.22
633.339	24.03
633.529	23.96
633.72	24.07
633.91	24.09
634.101	24.08
634.292	23.94
634.482	24.05
634.673	24.19
634.863	24
635.054	24.18
635.244	24.15
635.435	24.11
635.625	24.06
635.815	23.93
636.006	23.81
636.196	23.74
636.387	23.9
636.577	23.8
636.767	23.88
636.958	23.92
637.148	24.06
637.338	23.99
637.529	24.05
637.719	24.12
637.909	24.28
638.099	24.33
638.29	24.43
638.48	24.44
638.67	24.38
638.86	24.34
639.05	24.32
639.241	24.16
639.431	24.24
639.621	24.24
639.811	24.19
640.001	23.88
640.191	23.82
640.381	23.91
640.571	23.81
640.761	23.91
640.951	23.94
641.141	23.98
641.331	24.04
641.521	24.17
641.711	24.24
641.901	24.3
642.091	24.53
642.281	24.67
642.471	24.7
642.661	24.64
642.851	24.87
643.041	24.87
643.231	25.09
643.42	25.2
643.61	25.04
643.8	25.14
643.99	25.13
644.18	25.11
644.369	25.06
644.559	24.82
644.749	24.84
644.939	24.66
645.128	24.5
645.318	24.45
645.508	24.22
645.697	24.11
645.887	24.22
646.076	24.22
646.266	24.3
646.456	24.49
646.645	24.8
646.835	25
647.024	25.18
647.214	25.31
647.403	25.42
647.593	25.36
647.782	25.41
647.972	25.28
648.161	25.48
648.351	25.45
648.54	25.31
648.73	25.47
648.919	25.62
649.108	25.56
649.298	25.58
649.487	25.45
649.677	25.77
649.866	26.01
650.055	26.11
650.244	25.98
650.434	25.93
650.623	25.77
650.812	25.47
651.002	25.28
651.191	25.15
651.38	25.54
651.569	25.65
651.758	25.45
651.947	25.29
652.137	25.2
652.326	25.16
652.515	25.36
652.704	25.58
652.893	25.74
653.082	25.56
653.271	25.76
653.46	25.4
653.649	25.22
653.838	25.18
654.027	25.35
654.216	25.43
654.405	25.48
654.594	25
654.783	24.84
654.972	24.7
655.161	24.99
655.35	24.88
655.539	25.04
655.728	25.25
655.916	25.44
656.105	25.44
656.294	25.33
656.483	25.37
656.672	25.7
656.86	25.96
657.049	26.03
657.238	25.8
657.427	25.7
657.615	25.41
657.804	25.11
657.993	24.92
658.181	24.75
658.37	24.77
658.559	24.81
658.747	24.71
658.936	24.67
659.125	24.52
659.313	24.57
659.502	24.59
659.69	24.69
659.879	24.92
660.067	25.02
660.256	24.98
660.444	25.06
660.633	25.1
660.821	25.06
661.01	24.93
661.198	24.91
661.387	25.02
661.575	25.21
661.763	25.16
661.952	25.22
662.14	25.25
662.328	25.58
662.517	25.67
662.705	25.81
662.893	25.94
663.082	26.07
663.27	26.31
663.458	26.24
663.646	26.42
663.834	26.55
664.023	26.47
664.211	26.56
664.399	26.36
664.587	26.26
664.775	26.13
664.963	26.21
665.152	26.42
665.34	26.73
665.528	26.74
665.716	26.53
665.904	26.6
666.092	26.79
666.28	26.91
666.468	27.03
666.656	27.19
666.844	27.02
667.032	26.76
667.22	26.49
667.408	26.38
667.596	26.41
667.784	26.29
667.971	26.19
668.159	25.95
668.347	26.01
668.535	26.19
668.723	26.12
668.911	26.28
669.098	26.61
669.286	26.6
669.474	26.55
669.662	26.51
669.849	26.54
670.037	26.71
670.225	26.97
670.413	26.83
670.6	26.79
670.788	26.71
670.976	26.76
671.163	26.8
671.351	27.12
671.538	27.03
671.726	27.16
671.913	27.09
672.101	26.77
672.289	26.4
672.476	26.53
672.664	26.65
672.851	26.79
673.039	26.9
673.226	26.76
673.413	26.58
673.601	26.52
673.788	26.34
673.976	26.48
674.163	26.59
674.35	26.75
674.538	26.74
674.725	26.62
674.912	26.61
675.1	26.57
675.287	26.74
675.474	26.61
675.662	26.86
675.849	27.06
676.036	27.12
676.223	27.02
676.411	27.1
676.598	26.86
676.785	26.66
676.972	26.86
677.159	26.7
677.346	26.74
677.533	27.14
677.721	26.85
677.908	26.64
678.095	26.68
678.282	26.94
678.469	26.96
678.656	27.29
678.843	27.22
679.03	26.84
679.217	26.96
679.404	26.89
679.591	26.57
679.778	26.69
679.964	26.84
680.151	26.86
680.338	26.8
680.525	26.76
680.712	26.57
680.899	26.83
681.086	27
681.272	26.81
681.459	27.05
681.646	27.11
681.833	27.17
682.02	27.01
682.206	27.08
682.393	27.34
682.58	27.57
682.766	27.72
682.953	27.79
683.14	27.92
683.326	28.36
683.513	28.11
683.7	28.21
683.886	28.36
684.073	28.66
684.259	28.44
684.446	28.45
684.632	28.36
684.819	28.23
685.005	28.08
685.192	28.09
685.378	27.91
685.565	27.96
685.751	27.83
685.938	27.86
686.124	27.81
686.31	28.13
686.497	27.88
686.683	27.91
686.87	28.13
687.056	28.1
687.242	27.8
687.429	27.87
687.615	27.91
687.801	28.05
687.987	27.79
688.174	27.9
688.36	28.06
688.546	28.32
688.732	28.4
688.918	28.37
689.105	28.61
689.291	28.94
689.477	28.92
689.663	28.97
689.849	28.88
690.035	28.87
690.221	28.82
690.407	28.77
690.593	28.69
690.779	28.75
690.965	28.57
691.151	28.35
691.337	28.48
691.523	28.66
691.709	28.75
691.895	28.77
692.081	28.85
692.267	28.97
692.453	28.64
692.639	28.62
692.825	28.33
693.011	28.41
693.196	28.46
693.382	28.04
693.568	27.92
693.754	28.05
693.94	28.18
694.125	28.45
694.311	28.45
694.497	28.57
694.682	28.55
694.868	28.74
695.054	28.76
695.239	28.64
695.425	28.61
695.611	28.4
695.796	28.05
695.982	28.07
696.168	28.02
696.353	28.25
696.539	28.21
696.724	28.14
696.91	28.08
697.095	28.04
697.281	28.2
697.466	28.24
697.652	28.3
697.837	28.23
698.023	28.3
698.208	28.21
698.393	27.94
698.579	27.98
698.764	27.97
698.949	27.89
699.135	27.75
699.32	27.62
699.505	27.6
699.691	27.62
699.876	27.7
700.061	27.73
700.246	27.73
700.432	27.82
700.617	27.77
700.802	27.89
700.987	27.93
701.172	28.27
701.358	28.69
701.543	28.84
701.728	28.84
701.913	28.84
702.098	28.86
702.283	28.67
702.468	28.52
702.653	28.67
702.838	28.86
703.023	29.28
703.208	29.21
703.393	28.91
703.578	29.19
703.763	29.44
703.948	29.73
704.133	30.44
704.318	30.8
704.503	31.1
704.688	31.1
704.873	31.11
705.057	31.1
705.242	31.2
705.427	31.49
705.612	31.44
705.797	31.31
705.981	31.82
706.166	31.26
706.351	31.64
706.536	31.9
706.72	32.4
706.905	32.59
707.09	32.56
707.274	32.83
707.459	32.75
707.644	32.79
707.828	33.09
708.013	32.86
708.197	33.19
708.382	33.08
708.567	32.88
708.751	32.28
708.936	31.98
709.12	32.24
709.305	31.97
709.489	31.74
709.673	32.06
709.858	31.88
710.042	32
710.227	31.65
710.411	31.43
710.596	31.42
710.78	31.52
710.964	31.72
711.149	31.53
711.333	31.75
711.517	32.05
711.702	31.69
711.886	31.69
712.07	31.45
712.254	31.34
712.438	31.38
712.623	31.27
712.807	31.43
712.991	30.93
713.175	30.95
713.359	30.72
713.544	30.39
713.728	30.41
713.912	30.27
714.096	29.8
714.28	29.68
714.464	29.66
714.648	29.65
714.832	29.57
715.016	29.97
715.2	29.51
715.384	29.33
715.568	29.31
715.752	29.26
715.936	29.19
716.12	29.54
716.304	29.64
716.488	29.66
716.671	29.46
716.855	29.6
717.039	29.5
717.223	29.36
717.407	29.36
717.59	29.72
717.774	29.51
717.958	30.09
718.142	29.97
718.325	29.97
718.509	30.07
718.693	30.51
718.877	30
719.06	29.68
719.244	30.01
719.428	30.37
719.611	30
719.795	30.26
719.978	30.2
720.162	30.39
720.345	30.54
720.529	30.59
720.713	30.5
720.896	30.71
721.08	31.07
721.263	30.96
721.446	31.03
721.63	31.12
721.813	31.53
721.997	31.37
722.18	31.34
722.364	31.2
722.547	30.85
722.73	30.62
722.914	30.7
723.097	30.8
723.28	31.11
723.464	30.73
723.647	31.08
723.83	30.66
724.013	30.44
724.197	30.71
724.38	30.96
724.563	31.09
724.746	30.99
724.929	30.92
725.112	30.89
725.296	30.89
725.479	31.02
725.662	31.13
725.845	31.02
726.028	30.86
726.211	30.43
726.394	30.12
726.577	30.18
726.76	30.51
726.943	30.78
727.126	30.87
727.309	30.82
727.492	30.95
727.675	30.77
727.858	30.78
728.041	31.1
728.224	31.39
728.407	31.36
728.589	31.88
728.772	31.81
728.955	31.79
729.138	31.68
729.321	31.68
729.503	31.58
729.686	31.84
729.869	31.87
730.052	31.37
730.234	31.51
730.417	31.15
730.6	30.67
730.782	30.6
730.965	30.77
731.148	30.77
731.33	30.82
731.513	31.02
731.695	30.92
731.878	31.23
732.061	31.42
732.243	31.36
732.426	31.92
732.608	32.15
732.791	32.35
732.973	32.29
733.156	32.17
733.338	32.1
733.52	31.97
733.703	31.47
733.885	30.97
734.068	31.36
734.25	30.93
734.432	30.81
734.615	30.73
734.797	30.52
734.979	30.34
735.162	30.6
735.344	30.69
735.526	30.55
735.708	31.2
735.891	31.1
736.073	31.05
736.255	31.62
736.437	31.19
736.619	31.31
736.802	31.42
736.984	31.39
737.166	31.49
737.348	31.47
737.53	31.48
737.712	31.26
737.894	32.22
738.076	32.1
738.258	32
738.44	32.37
738.622	32.17
738.804	32.36
738.986	32.31
739.168	32.24
739.35	31.97
739.532	32.11
739.714	31.95
739.896	31.66
740.078	31.24
740.259	31.32
740.441	31.82
740.623	32.02
740.805	31.94
740.987	32.2
741.168	31.98
741.35	32.05
741.532	31.96
741.714	32.16
741.895	31.73
742.077	31.9
742.259	31.82
742.44	31.2
742.622	30.42
742.804	30.17
742.985	29.79
743.167	29.94
743.348	30.76
743.53	30.45
743.711	30.53
743.893	30.68
744.075	30.54
744.256	30.05
744.438	30.6
744.619	31.23
744.8	31.54
744.982	32.11
745.163	32.25
745.345	31.91
745.526	32.88
745.707	32.47
745.889	32.51
746.07	32.89
746.252	34.28
746.433	34.01
746.614	34.18
746.795	33.74
746.977	33.5
747.158	33.16
747.339	32.65
747.52	32.37
747.702	32.54
747.883	32.64
748.064	33.37
748.245	32.29
748.426	31.94
748.607	31.66
748.788	32.21
748.97	32.2
749.151	32.4
749.332	33.3
749.513	32.9
749.694	33.23
749.875	33.75
750.056	33.39
750.237	34.09
750.418	34.59
750.599	34.44
750.78	33.91
750.96	33.43
751.141	33.47
751.322	33.28
751.503	33.42
751.684	33.68
751.865	33.23
752.046	32.43
752.226	32.01
752.407	32.09
752.588	32.34
752.769	32.73
752.949	33.24
753.13	33.14
753.311	32.67
753.492	33.24
753.672	32.62
753.853	33.17
754.034	34
754.214	33.99
754.395	33.56
754.575	33.79
754.756	34.46
754.937	34.59
755.117	34.36
755.298	34.95
755.478	35.13
755.659	35.7
755.839	35.11
756.02	34.67
756.2	34.43
756.381	34.89
756.561	34.67
756.741	34.41
756.922	34.46
757.102	34.82
757.283	34.64
757.463	34.52
757.643	34.56
757.823	34.81
758.004	35.27
758.184	35.86
758.364	36.3
758.545	36.55
758.725	36.36
758.905	36.22
759.085	36.05
759.265	35.8
759.446	35.59
759.626	35.01
759.806	34.74
759.986	34.5
760.166	33.91
760.346	33.49
760.526	33.47
760.706	33.11
760.886	33.22
761.066	33.67
761.246	33.72
761.426	33.48
761.606	33.51
761.786	33.69
761.966	33.46
762.146	33.05
762.326	33.16
762.506	32.92
762.686	33.11
762.866	33.25
763.046	32.8
763.225	32.75
763.405	32.87
763.585	33.1
763.765	32.91
763.945	33.01
764.124	33.19
764.304	33.08
764.484	33.19
764.664	33.32
764.843	33.19
765.023	33.36
765.203	33.53
765.382	33.47
765.562	33.5
765.741	33.31
765.921	33.57
766.101	33.93
766.28	33.92
766.46	34.1
766.639	34.14
766.819	33.74
766.998	33.54
767.178	33.76
767.357	34.21
767.537	34.17
767.716	34.96
767.896	34.58
768.075	34.91
768.254	34.08
768.434	34.49
768.613	34.61
768.792	34.91
768.972	35.7
769.151	34.83
769.33	34.44
769.51	34.4
769.689	34.4
769.868	34.81
770.047	34.61
770.226	36.01
770.406	35.3
770.585	35.08
770.764	35.35
770.943	34.91
771.122	35.16
771.301	35.94
771.48	36.11
771.66	35.39
771.839	35.68
772.018	35.25
772.197	34.53
772.376	35.32
772.555	35.41
772.734	35.2
772.913	35
773.092	35.79
773.271	35.42
773.449	35.46
773.628	35.67
773.807	35.33
773.986	35.31
774.165	35.85
774.344	34.83
774.523	34.87
774.701	35
774.88	35.4
775.059	35.52
775.238	34.13
775.417	34.68
775.595	34.57
775.774	34.31
775.953	34.35
776.131	34.17
776.31	34.47
776.489	33.58
776.667	34.13
776.846	33.75
777.025	33.37
777.203	34.66
777.382	34.12
777.56	33.63
777.739	33.51
777.917	34.25
778.096	34.11
778.274	33.8
778.453	34.96
778.631	34.63
778.81	34.45
778.988	34.03
779.166	34.08
779.345	34.15
779.523	34.76
779.702	35.5
779.88	35.39
780.058	35.31
780.237	35.97
780.415	35.64
780.593	35.42
780.771	36.86
780.95	38.08
781.128	38.4
781.306	38.72
781.484	38.71
781.662	38.57
781.841	38.33
782.019	39.26
782.197	39.2
782.375	38.52
782.553	38.16
782.731	37.48
782.909	36.45
783.087	36.2
783.265	36.32
783.443	36.43
783.621	36.05
783.799	35.99
783.977	35.13
784.155	35.08
784.333	35.71
784.511	35.87
784.689	35.49
784.867	35.96
785.045	35.95
785.223	34.74
785.4	35.15
785.578	35.91
785.756	35.86
785.934	36.37
786.112	35.88
786.289	36.13
786.467	36.76
786.645	36.72
786.823	37.08
787	36.29
787.178	36
787.356	35.85
787.533	35.7
787.711	35.29
787.889	35.6
788.066	35.98
788.244	35.67
788.421	36.17
788.599	36.45
788.776	36.14
788.954	35.93
789.131	36.07
789.309	36.11
789.486	35.72
789.664	36.87
789.841	36.97
790.019	35.91
790.196	35.91
790.373	34.32
790.551	34.19
790.728	34.43
790.906	35.7
791.083	38.49
791.26	38.81
791.437	39.36
791.615	39.54
791.792	39.91
791.969	41.55
792.146	41.46
792.324	42.68
792.501	42.57
792.678	42.88
792.855	42.86
793.032	40.69
793.209	40.61
793.387	39.93
793.564	39.86
793.741	38.34
793.918	39.04
794.095	40.1
794.272	40.13
794.449	40.62
794.626	38.86
794.803	37.58
794.98	37.65
795.157	36.95
795.334	36.89
795.511	35.85
795.688	36.77
795.864	34.74
796.041	33.99
796.218	34.01
796.395	33.08
796.572	33.66
796.749	33.92
796.925	34.33
797.102	34.88
797.279	34.93
797.456	34.75
797.632	34.14
797.809	35.38
797.986	35.74
798.162	34.71
798.339	35.26
798.516	36.38
798.692	37.27
798.869	36.74
799.046	37.29
799.222	37.34
799.399	37.77
799.575	38.65
799.752	38.36
799.928	37.45
800.105	38.19
800.281	37.51
800.458	36.88
800.634	35.99
800.811	35.57
800.987	34.98
801.163	36.12
801.34	36.29
801.516	35.69
801.692	36.4
801.869	36.22
802.045	36.65
802.221	37.73
802.398	37.51
802.574	38.35
802.75	39.13
802.926	39.61
803.103	38.78
803.279	38.84
803.455	38.48
803.631	38.23
803.807	40.08
803.983	39.92
804.16	39.47
804.336	39.45
804.512	39.86
804.688	40.16
804.864	40.07
805.04	39.98
805.216	39.42
805.392	41.24
805.568	41.22
805.744	41.64
805.92	41.69
806.096	42.8
806.272	42.67
806.448	41.26
806.623	40.19
806.799	40.59
806.975	40.7
807.151	40.25
807.327	38.03
807.503	38.4
807.678	36.94
807.854	37.13
808.03	37.75
808.206	38.08
808.381	39.78
808.557	40.15
808.733	39.7
808.908	41.04
809.084	42.59
809.26	43.16
809.435	41.74
809.611	41.28
809.787	41.33
809.962	39.84
810.138	39.5
810.313	39.1
810.489	40.01
810.664	39.37
810.84	37.95
811.015	36.63
811.191	36.9
811.366	38.65
811.542	40.09
811.717	40.73
811.892	40.35
812.068	40.67
812.243	40.59
812.419	39.29
812.594	39.94
812.769	40.05
812.944	40.7
813.12	39.5
813.295	38.78
813.47	38.02
813.645	36.61
813.821	36.97
813.996	37.43
814.171	36.97
814.346	37.44
814.521	37.41
814.697	36.85
814.872	37.17
815.047	37.9
815.222	37.89
815.397	37.88
815.572	38.15
815.747	37.55
815.922	37.27
816.097	36.81
816.272	38.27
816.447	37.58
816.622	38.09
816.797	37.82
816.972	38.12
817.147	39.32
817.322	38.22
817.496	38.7
817.671	39.17
817.846	37.96
818.021	38.33
818.196	36.78
818.371	37.55
818.545	37.42
818.72	37.37
818.895	37.15
819.069	35.7
819.244	36.38
819.419	35.48
819.594	35.2
819.768	35.48
819.943	34.78
820.117	34.21
820.292	32.85
820.467	32.59
820.641	32.04
820.816	31.07
820.99	30.47
821.165	29.85
821.339	29.65
821.514	29.28
821.688	28.77
821.863	28.72
822.037	28.38
822.212	28.21
822.386	27.96
822.56	27.74
822.735	27.88
822.909	27.87
823.084	27.87
823.258	27.73
823.432	27.78
823.606	28.1
823.781	28.04
823.955	28.38
824.129	28.88
824.303	28.96
824.478	29.27
824.652	29.3
824.826	29.4
825	29.97
825.174	30.62
825.348	30.8
825.523	30.8
825.697	30.6
825.871	30.46
826.045	30.48
826.219	31
826.393	30.94
826.567	31.08
826.741	31.15
826.915	30.56
827.089	30.24
827.263	30.13
827.437	30.58
827.611	31.01
827.784	31.04
827.958	31.28
828.132	30.88
828.306	31.25
828.48	31.78
828.654	32.38
828.827	32.81
829.001	33.25
829.175	33.58
829.349	33.57
829.522	33.78
829.696	34.43
829.87	34.71
830.044	34.82
830.217	34.98
830.391	34.95
830.565	34.38
830.738	34.97
830.912	34.46
831.085	35.74
831.259	35.77
831.432	36.4
831.606	37.55
831.779	35.86
831.953	37.12
832.126	37.09
832.3	36.22
832.473	35.17
832.647	35.08
832.82	34.97
832.994	33.39
833.167	32.98
833.34	33.03
833.514	31.97
833.687	32.47
833.86	31.93
834.034	31.01
834.207	31.42
834.38	31.35
834.553	30.87
834.727	31.66
834.9	32.22
835.073	32.63
835.246	32.29
835.419	32.57
835.593	33.36
835.766	33.72
835.939	35.03
836.112	34.99
836.285	35.88
836.458	36.24
836.631	35.54
836.804	35.89
836.977	33.86
837.15	34.29
837.323	34.53
837.496	33.88
837.669	34.59
837.842	34.08
838.015	33.77
838.188	33.51
838.361	35.48
838.533	36.96
838.706	35.21
838.879	37.64
839.052	36.9
839.225	37.29
839.398	37.31
839.57	36.79
839.743	37.78
839.916	39.06
840.088	39.03
840.261	37.48
840.434	36.68
840.607	40.36
840.779	39.9
840.952	40.43
841.124	39.22
841.297	38.32
841.47	38
841.642	38.2
841.815	37.43
841.987	38.81
842.16	39.25
842.332	40.85
842.505	38.46
842.677	41.09
842.85	41.88
843.022	42.71
843.194	44.85
843.367	47.21
843.539	44.48
843.712	47.02
843.884	47.27
844.056	48.26
844.229	47.91
844.401	49.28
844.573	48.11
844.745	47.44
844.918	49.37
845.09	50.2
845.262	48.74
845.434	48.9
845.606	46.28
845.779	47.82
845.951	47.9
846.123	46.9
846.295	45.8
846.467	45.5
846.639	47.77
846.811	46.44
846.983	44.62
847.155	44.71
847.327	47.77
847.499	49.11
847.671	48.4
847.843	47.75
848.015	48.77
848.187	48.43
848.359	49.82
848.531	49.24
848.703	49.81
848.875	53.09
849.047	49.61
849.218	47.64
849.39	46.68
849.562	46.11
849.734	44.69
849.905	46.3
850.077	49.1
850.249	50.51
850.421	50.92
850.592	48.96
850.764	46.83
850.936	53.08
851.107	53.65
851.279	53.13
851.451	53.61
851.622	58.28
851.794	58.38
851.965	59.12
852.137	56.91
852.308	53.74
852.48	57.19
852.651	56.31
852.823	53.85
852.994	53.87
853.166	55.82
853.337	53.76
853.509	51.07
853.68	49.9
853.851	48.61
854.023	47.96
854.194	49.93
854.365	45.91
854.537	46.58
854.708	45.65
854.879	46.06
855.05	44.27
855.222	45.7
855.393	47.63
855.564	48.05
855.735	45
855.906	44.68
856.078	42.22
856.249	47.08
856.42	46.86
856.591	46.6
856.762	47.15
856.933	48.65
857.104	48.85
857.275	49.78
857.446	47.46
857.617	50.23
857.788	51.78
857.959	55.47
858.13	52.58
858.301	51.73
858.472	51.52
858.643	52.02
858.814	52.56
858.985	50.44
859.155	48.95
859.326	52.16
859.497	52.73
859.668	52.57
859.839	50.04
860.009	51.43
860.18	54.54
860.351	57.07
860.522	54.56
860.692	55.1
860.863	58.04
861.034	60.74
861.204	60.41
861.375	65.34
861.546	63.41
861.716	63.77
861.887	59.95
862.057	58.62
862.228	60.34
862.398	63.62
862.569	60.96
862.739	61.43
862.91	58.96
863.08	57.95
863.251	53.89
863.421	55.03
863.592	53.88
863.762	56.37
863.932	53.76
864.103	52.72
864.273	53.55
864.443	55.5
864.614	54.54
864.784	53.65
864.954	50.38
865.125	51.28
865.295	53.07
865.465	57.63
865.635	58.6
865.805	61.57
865.976	62.53
866.146	59.39
866.316	60.73
866.486	59.56
866.656	60.36
866.826	60.61
866.996	60.27
867.166	58.66
867.336	58.81
867.506	57.54
867.676	57.27
867.846	56.65
868.016	59.12
868.186	54.88
868.356	55.27
868.526	57.45
868.696	59.32
868.866	54.29
869.036	57.39
869.206	55.99
869.376	60.31
869.545	59.97
869.715	60.89
869.885	59.32
870.055	60.23
870.224	61.51
870.394	55.4
870.564	55.66
870.734	58.28
870.903	57.35
871.073	54.19
871.243	51.25
871.412	50.87
871.582	47.19
871.751	49.35
871.921	52.81
872.091	51.87
872.26	55.95
872.43	53.55
872.599	54.73
872.769	55.64
872.938	55.37
873.108	56.92
873.277	58.14
873.446	63.39
873.616	60.85
873.785	60.23
873.955	63.01
874.124	63.01
874.293	68.72
874.463	65.43
874.632	64.52
874.801	66.3
874.971	64.09
875.14	62.62
875.309	59.87
875.478	58.83
875.647	57.44
875.817	56.35
875.986	55.79
876.155	52.93
876.324	54.05
876.493	53.96
876.662	57.03
876.831	56.94
877	56.25
877.17	60.77
877.339	63.36
877.508	62.95
877.677	61.16
877.846	60.8
878.015	59.59
878.184	60.12
878.352	58.87
878.521	55.64
878.69	55.82
878.859	56.41
879.028	52.44
879.197	50.05
879.366	48.88
879.534	46.8
879.703	45.14
879.872	43.91
880.041	41.77
880.21	38.99
880.378	36.19
880.547	35.03
880.716	32.07
880.884	30.29
881.053	29.87
881.222	29.54
881.39	28.72
881.559	28.49
881.727	27.84
881.896	27.76
882.065	28.13
882.233	28.22
882.402	27.4
882.57	27.56
882.739	27.43
882.907	27.06
883.076	27.11
883.244	27.37
883.412	27.52
883.581	28.02
883.749	28.14
883.918	28.33
884.086	28.87
884.254	29.32
884.423	30.36
884.591	30.65
884.759	32.27
884.927	32.54
885.096	34.48
885.264	35.06
885.432	36.14
885.6	36.12
885.769	36.78
885.937	35.81
886.105	39.39
886.273	41.3
886.441	43.49
886.609	43.35
886.777	43.14
886.945	43.64
887.113	45.3
887.281	46.36
887.449	49.84
887.617	49.66
887.785	53.72
887.953	52.93
888.121	49.92
888.289	48.78
888.457	49.24
888.625	53.05
888.793	52.58
888.961	52.9
889.129	52.65
889.296	52.92
889.464	53.7
889.632	52.87
889.8	53.45
889.967	57.48
890.135	63.1
