Data from 2938800__Reflection_02.txt Node
Date: Thu Mar 12 22:53:06 EDT 2015
User: robert
Spectrometer: USB4E03002
Autoset integration time: false
Trigger mode: 4
Integration Time (sec): 1.000000E-1
Scans to average: 10
Electric dark correction enabled: false
Nonlinearity correction enabled: false
Boxcar width: 5
Stray light correction enabled: false
XAxis mode: Wavelengths
Stop averaging: false
Number of Pixels in Spectrum: 3648
>>>>>Begin Spectral Data<<<<<
177.575	642.99
177.794	1844.44
178.014	551.92
178.233	672
178.452	347.87
178.672	375.06
178.891	476.97
179.11	439.75
179.33	409.56
179.549	435.2
179.768	327.05
179.987	260.6
180.207	254.15
180.426	273.38
180.645	284.87
180.864	261.97
181.084	275.88
181.303	185.67
181.522	168.36
181.741	141.29
181.96	148.68
182.179	162.67
182.398	169.4
182.618	150.24
182.837	151.96
183.056	161.51
183.275	175.1
183.494	154.37
183.713	152.27
183.932	153.27
184.151	175.3
184.37	161.82
184.589	160.11
184.808	163.95
185.027	168.6
185.246	170.76
185.465	146.31
185.684	156.96
185.903	157.08
186.122	155.8
186.341	171.8
186.56	169.44
186.779	165.92
186.998	180.37
187.216	177.91
187.435	174.42
187.654	169.32
187.873	179.87
188.092	178.34
188.311	202.84
188.53	200.6
188.748	184.72
188.967	187.91
189.186	193.16
189.405	180.27
189.623	178.29
189.842	174.16
190.061	165.88
190.28	169.87
190.498	158.78
190.717	145.98
190.936	150.54
191.154	135.39
191.373	124.57
191.592	121.7
191.81	123.79
192.029	121.52
192.248	119.83
192.466	110.68
192.685	99.41
192.904	111.61
193.122	114.5
193.341	122.8
193.559	151.2
193.778	160.19
193.996	162.81
194.215	160.56
194.433	189.12
194.652	233.57
194.87	288.26
195.089	331.61
195.307	263.43
195.526	234.07
195.744	227.42
195.963	191.67
196.181	208.34
196.399	218.95
196.618	192.61
196.836	164.97
197.055	150.04
197.273	147.08
197.491	138.6
197.71	149.69
197.928	157.48
198.146	155.67
198.365	149.69
198.583	146.48
198.801	139.85
199.019	168.4
199.238	157.15
199.456	142.59
199.674	146.53
199.892	137.21
200.111	135.03
200.329	140.96
200.547	163.13
200.765	187.73
200.983	162.79
201.202	144.97
201.42	127.08
201.638	144.51
201.856	160.19
202.074	156.17
202.292	162.02
202.51	145.85
202.728	155.44
202.946	130.98
203.165	127.05
203.383	147.18
203.601	152.44
203.819	174.47
204.037	181.47
204.255	192.02
204.473	174.63
204.691	167.36
204.909	169.39
205.127	151.72
205.345	164.46
205.562	145.02
205.78	138.12
205.998	154.04
206.216	134.67
206.434	143.64
206.652	125.53
206.87	125.69
207.088	120.34
207.306	125.44
207.523	123.82
207.741	118.51
207.959	140.04
208.177	133.54
208.395	130.42
208.612	136.55
208.83	121.41
209.048	131.54
209.266	133.79
209.483	142.45
209.701	141.17
209.919	140.51
210.136	144.67
210.354	136.44
210.572	135.61
210.79	130.88
211.007	126.28
211.225	127.23
211.442	114.91
211.66	113.08
211.878	113.24
212.095	65.73
212.313	65.59
212.53	62.46
212.748	56.07
212.966	60.67
213.183	55.26
213.401	60.23
213.618	56.17
213.836	57.22
214.053	55.01
214.271	46.28
214.488	107.06
214.705	110.64
214.923	114.22
215.14	121.79
215.358	117.63
215.575	135.52
215.793	127.5
216.01	118.28
216.227	117.95
216.445	124.09
216.662	148.11
216.879	129.6
217.097	136.38
217.314	121.51
217.531	119.98
217.749	127.96
217.966	123.1
218.183	127.51
218.4	129.04
218.618	137.75
218.835	130.88
219.052	119.07
219.269	122.02
219.487	118.17
219.704	116.04
219.921	108.77
220.138	104.17
220.355	96.55
220.572	95.15
220.79	92.06
221.007	84.33
221.224	80.43
221.441	77.92
221.658	74.93
221.875	67.53
222.092	66.78
222.309	68.13
222.526	65.4
222.743	65.14
222.96	61.3
223.177	57.35
223.394	59.87
223.611	61.64
223.828	60.43
224.045	57.85
224.262	53.95
224.479	54.84
224.696	53.3
224.913	52.1
225.13	51.1
225.347	49.93
225.564	48.09
225.781	44.44
225.997	40.11
226.214	36.96
226.431	34.8
226.648	31.78
226.865	27.52
227.082	24.39
227.298	19.9
227.515	17.44
227.732	16.5
227.949	15.72
228.165	13.83
228.382	13.11
228.599	12.77
228.816	12.67
229.032	13.04
229.249	12.74
229.466	12.19
229.682	12.77
229.899	13.17
230.116	12.72
230.332	12.97
230.549	14.1
230.765	15.3
230.982	16.3
231.199	16.49
231.415	16.62
231.632	17.97
231.848	19.29
232.065	19.99
232.281	20.93
232.498	21.32
232.714	22.25
232.931	23.2
233.147	21.54
233.364	21.08
233.58	21.08
233.797	21.96
234.013	21.68
234.23	22.41
234.446	23.02
234.662	22.71
234.879	22.49
235.095	22.46
235.312	21.55
235.528	23.67
235.744	23.72
235.961	24.25
236.177	23.64
236.393	23.56
236.61	23.94
236.826	23.86
237.042	22.49
237.258	23.46
237.475	22.72
237.691	24.02
237.907	22.34
238.123	21.44
238.339	19.97
238.556	19.3
238.772	19.95
238.988	18.25
239.204	17.63
239.42	18.76
239.636	18.26
239.853	18.44
240.069	17.12
240.285	16.85
240.501	15.9
240.717	15.53
240.933	14.89
241.149	13.47
241.365	13.18
241.581	12.77
241.797	12.24
242.013	12.07
242.229	11.87
242.445	11.61
242.661	11.52
242.877	11.68
243.093	11.94
243.309	12.13
243.525	12.12
243.741	12.06
243.957	12.18
244.173	11.84
244.388	11.67
244.604	11.23
244.82	11.25
245.036	10.62
245.252	10.84
245.468	10.06
245.683	10.11
245.899	10.39
246.115	10.29
246.331	9.93
246.547	9.89
246.762	9.36
246.978	9.29
247.194	8.98
247.409	9.01
247.625	8.93
247.841	8.93
248.057	8.77
248.272	8.44
248.488	8.39
248.703	8.58
248.919	8.55
249.135	9.62
249.35	9.84
249.566	10.78
249.782	11.14
249.997	11.5
250.213	12.54
250.428	12.87
250.644	13.12
250.859	13.02
251.075	12.46
251.29	12.91
251.506	12.19
251.721	12.07
251.937	11.72
252.152	12.16
252.368	11.85
252.583	11.78
252.798	11.86
253.014	11.96
253.229	12.42
253.445	13.07
253.66	13.01
253.875	12.99
254.091	13.36
254.306	13.22
254.521	12.32
254.737	12.11
254.952	10.83
255.167	10.88
255.383	10.67
255.598	10.22
255.813	10.23
256.028	10.25
256.244	10.76
256.459	11.06
256.674	11.47
256.889	11.79
257.104	12.19
257.32	12.46
257.535	11.43
257.75	11.69
257.965	11.7
258.18	10.71
258.395	10.43
258.61	9.72
258.826	8.97
259.041	8.19
259.256	7.83
259.471	7.39
259.686	7.16
259.901	7.41
260.116	7.11
260.331	6.88
260.546	7.01
260.761	6.86
260.976	6.81
261.191	6.89
261.406	7.15
261.621	7.49
261.836	7.97
262.05	8.42
262.265	8.32
262.48	8.42
262.695	8.8
262.91	9.39
263.125	9.96
263.34	10.6
263.555	11.05
263.769	11.12
263.984	11.19
264.199	11.01
264.414	11.16
264.629	11.62
264.843	12.25
265.058	11.57
265.273	10.87
265.488	10.53
265.702	10.46
265.917	10.38
266.132	10.86
266.346	10.34
266.561	10.42
266.776	10.29
266.99	9.76
267.205	9.45
267.42	9.22
267.634	9.47
267.849	9.32
268.063	9.02
268.278	8.77
268.492	8.05
268.707	8.04
268.922	8.48
269.136	7.9
269.351	8.27
269.565	8.16
269.78	8.48
269.994	8.27
270.209	8.25
270.423	7.98
270.637	7.68
270.852	7.55
271.066	7.49
271.281	6.79
271.495	7.14
271.709	7
271.924	6.91
272.138	6.92
272.353	6.86
272.567	6.83
272.781	6.92
272.996	6.89
273.21	7.22
273.424	7.51
273.638	8.09
273.853	7.87
274.067	7.95
274.281	8.37
274.495	8.5
274.71	8.59
274.924	9.08
275.138	8.77
275.352	9.25
275.566	9.35
275.781	9.36
275.995	8.82
276.209	9.37
276.423	9.44
276.637	9.13
276.851	9.06
277.065	9.37
277.279	9.1
277.493	9.89
277.707	9.59
277.921	9.63
278.135	9.73
278.349	9.91
278.563	9.46
278.777	9.54
278.991	9.49
279.205	9.42
279.419	8.92
279.633	8.96
279.847	8.69
280.061	9.15
280.275	8.91
280.489	8.55
280.703	7.94
280.917	7.89
281.131	7.52
281.344	7.26
281.558	7.12
281.772	7.19
281.986	6.55
282.2	6.39
282.414	5.88
282.627	5.77
282.841	5.89
283.055	6.3
283.269	6.16
283.482	6.33
283.696	6.68
283.91	6.51
284.123	6.69
284.337	7.18
284.551	6.93
284.764	7.2
284.978	7.32
285.192	7.03
285.405	7.01
285.619	6.93
285.833	6.84
286.046	6.62
286.26	6.7
286.473	6.66
286.687	6.54
286.9	6.61
287.114	6.52
287.327	6.61
287.541	6.6
287.754	6.84
287.968	6.9
288.181	6.79
288.395	6.79
288.608	6.99
288.822	7
289.035	6.8
289.248	7.17
289.462	6.92
289.675	6.95
289.889	6.87
290.102	6.31
290.315	6.6
290.529	6.86
290.742	6.94
290.955	6.97
291.169	6.82
291.382	7.07
291.595	6.96
291.808	7.44
292.022	7.2
292.235	7.59
292.448	7.66
292.661	7.06
292.875	6.72
293.088	6.88
293.301	6.92
293.514	6.78
293.727	6.67
293.94	6.9
294.153	6.5
294.367	6.62
294.58	6.25
294.793	6.52
295.006	7.33
295.219	7.42
295.432	7.15
295.645	7.1
295.858	7.19
296.071	7.12
296.284	6.78
296.497	6.84
296.71	6.74
296.923	6.94
297.136	6.72
297.349	6.18
297.562	6.2
297.775	6.43
297.988	6.22
298.201	6.33
298.414	6.46
298.626	6.24
298.839	6.21
299.052	5.98
299.265	5.91
299.478	6.16
299.691	6.48
299.903	6.61
300.116	6.69
300.329	7.04
300.542	7.07
300.755	7
300.967	7.53
301.18	7.63
301.393	8.03
301.605	8.04
301.818	8.04
302.031	8.24
302.243	8.01
302.456	8.13
302.669	8.19
302.881	8.17
303.094	8.06
303.307	8
303.519	7.95
303.732	7.87
303.944	8.1
304.157	8.23
304.37	8.16
304.582	8.31
304.795	8
305.007	7.94
305.22	8.1
305.432	8.12
305.645	8.15
305.857	8.28
306.069	8.23
306.282	8.04
306.494	7.78
306.707	7.52
306.919	7.62
307.132	7.9
307.344	7.81
307.556	7.35
307.769	7.75
307.981	7.44
308.193	7.29
308.406	7.25
308.618	7.49
308.83	7.49
309.043	7.46
309.255	7.39
309.467	6.98
309.679	6.94
309.892	7.1
310.104	6.72
310.316	6.92
310.528	7.12
310.74	6.82
310.953	6.72
311.165	6.86
311.377	7.11
311.589	7.07
311.801	7.07
312.013	7.25
312.225	7.21
312.437	7.89
312.649	8.08
312.862	8.01
313.074	8.69
313.286	9.18
313.498	9.05
313.71	9.03
313.922	9.2
314.134	9.59
314.346	9.37
314.558	9.77
314.77	9.05
314.982	8.87
315.193	9.12
315.405	9.01
315.617	8.66
315.829	8.51
316.041	8.46
316.253	8.38
316.465	8.63
316.677	8.91
316.888	9.1
317.1	9.35
317.312	9.52
317.524	9
317.736	8.87
317.947	8.53
318.159	9.3
318.371	9.57
318.583	9.81
318.794	9.68
319.006	9.78
319.218	9.79
319.43	9.96
319.641	10.3
319.853	10.72
320.064	11.23
320.276	11.58
320.488	11.58
320.699	11.85
320.911	11.68
321.123	11.38
321.334	11.68
321.546	11.86
321.757	11.72
321.969	11.6
322.18	11.64
322.392	11.29
322.603	11.96
322.815	11.93
323.026	11.58
323.238	11.77
323.449	11.9
323.661	11.53
323.872	11.24
324.083	11.43
324.295	11.34
324.506	11.32
324.718	11.57
324.929	11.59
325.14	11.6
325.352	11.82
325.563	12.04
325.774	12.69
325.986	13.1
326.197	13.54
326.408	13.91
326.62	14.2
326.831	14.42
327.042	14.65
327.253	14.68
327.464	15.21
327.676	15.56
327.887	15.54
328.098	15.16
328.309	15.16
328.52	15.05
328.732	15.05
328.943	15.5
329.154	15.93
329.365	16.36
329.576	16.58
329.787	16.38
329.998	16.54
330.209	17.08
330.42	17.5
330.631	17.98
330.842	18.13
331.053	18.55
331.264	18.53
331.475	18.77
331.686	18.78
331.897	18.46
332.108	18.53
332.319	18.82
332.53	19.1
332.741	19.26
332.952	19.16
333.163	19.36
333.374	19.38
333.585	19.36
333.795	19.5
334.006	19.48
334.217	20.11
334.428	20.39
334.639	20.32
334.849	19.8
335.06	20.11
335.271	20.25
335.482	20.38
335.692	20.15
335.903	20.17
336.114	19.93
336.325	20.27
336.535	20.31
336.746	20.55
336.957	20.31
337.167	20.8
337.378	20.69
337.589	20.79
337.799	20.99
338.01	21.14
338.22	21.05
338.431	21.24
338.642	20.81
338.852	20.75
339.063	20.31
339.273	20.62
339.484	20.8
339.694	20.85
339.905	20.5
340.115	20
340.326	20.02
340.536	20.25
340.746	20.12
340.957	20.5
341.167	20.29
341.378	20.61
341.588	20.33
341.799	19.77
342.009	19.23
342.219	19.37
342.43	19.59
342.64	19.49
342.85	19.33
343.061	19.35
343.271	19.08
343.481	19.09
343.691	18.7
343.902	19.03
344.112	19.36
344.322	19.91
344.532	19.61
344.743	19.8
344.953	19.5
345.163	19.36
345.373	19.34
345.583	19.1
345.793	19.01
346.004	18.7
346.214	18.63
346.424	18.56
346.634	18.5
346.844	19.03
347.054	18.96
347.264	19.44
347.474	19.47
347.684	19.32
347.894	19.61
348.104	19.7
348.314	20.52
348.524	20.42
348.734	20.47
348.944	20.43
349.154	19.92
349.364	19.9
349.574	19.6
349.784	19.64
349.994	19.74
350.204	19.58
350.413	19.55
350.623	18.85
350.833	18.85
351.043	18.85
351.253	18.68
351.463	19.05
351.672	18.91
351.882	18.84
352.092	18.71
352.302	18.7
352.511	19.07
352.721	18.94
352.931	19.12
353.141	18.88
353.35	18.64
353.56	18.6
353.77	18.56
353.979	18.48
354.189	18.76
354.399	18.64
354.608	18.7
354.818	18.46
355.027	18.38
355.237	18.22
355.447	18.39
355.656	18.61
355.866	18.58
356.075	18.46
356.285	18.37
356.494	18.15
356.704	18.35
356.913	18.31
357.123	18.32
357.332	18.25
357.542	18.3
357.751	18.17
357.96	17.86
358.17	17.62
358.379	17.39
358.589	17.25
358.798	17.19
359.007	17.12
359.217	16.92
359.426	16.62
359.635	16.68
359.845	16.71
360.054	16.77
360.263	16.72
360.472	16.94
360.682	16.92
360.891	17.03
361.1	16.94
361.309	16.99
361.519	17.11
361.728	17.31
361.937	17.31
362.146	17.35
362.355	17.45
362.564	17.67
362.774	17.5
362.983	17.57
363.192	17.61
363.401	17.74
363.61	17.68
363.819	17.69
364.028	17.56
364.237	17.51
364.446	17.33
364.655	17.15
364.864	17.11
365.073	17.33
365.282	17.37
365.491	17.25
365.7	17.21
365.909	17.31
366.118	17.37
366.327	17.47
366.536	17.59
366.745	17.91
366.954	17.98
367.162	17.86
367.371	17.81
367.58	17.96
367.789	18.12
367.998	18.03
368.207	18.04
368.415	18.18
368.624	18.11
368.833	18.12
369.042	17.8
369.25	17.72
369.459	18.02
369.668	18.2
369.877	17.86
370.085	17.77
370.294	17.83
370.503	17.75
370.711	17.41
370.92	17.4
371.129	17.48
371.337	17.65
371.546	17.53
371.754	17.32
371.963	17.08
372.171	17.11
372.38	17.06
372.589	17.19
372.797	17.02
373.006	17.02
373.214	16.84
373.423	16.4
373.631	16.45
373.84	16.45
374.048	16.3
374.256	16.25
374.465	16.32
374.673	16.32
374.882	16.17
375.09	16.36
375.298	16.33
375.507	16.59
375.715	16.78
375.923	16.72
376.132	16.9
376.34	16.71
376.548	16.61
376.757	16.56
376.965	16.51
377.173	16.46
377.381	16.27
377.59	16.04
377.798	15.8
378.006	15.73
378.214	15.78
378.423	15.51
378.631	15.73
378.839	15.73
379.047	15.68
379.255	15.81
379.463	16.07
379.671	16.19
379.879	16.49
380.088	16.87
380.296	16.93
380.504	16.81
380.712	16.88
380.92	16.63
381.128	16.75
381.336	16.8
381.544	16.48
381.752	16.29
381.96	16.01
382.168	15.91
382.376	15.56
382.584	15.55
382.791	15.58
382.999	15.66
383.207	15.65
383.415	15.41
383.623	15.61
383.831	15.76
384.039	15.63
384.247	15.85
384.454	15.84
384.662	16.05
384.87	16.04
385.078	15.96
385.285	15.94
385.493	16.22
385.701	16.37
385.909	16.09
386.116	16.12
386.324	16.28
386.532	16.25
386.739	16.26
386.947	15.99
387.155	15.95
387.362	15.88
387.57	15.86
387.778	15.83
387.985	15.98
388.193	16.04
388.4	15.9
388.608	16
388.816	16
389.023	15.9
389.231	15.9
389.438	15.98
389.646	15.89
389.853	15.74
390.061	15.65
390.268	15.72
390.475	15.57
390.683	15.58
390.89	15.41
391.098	15.35
391.305	15.56
391.512	15.58
391.72	15.46
391.927	15.35
392.135	15.47
392.342	15.44
392.549	15.16
392.756	15.24
392.964	15.2
393.171	15.25
393.378	15.1
393.586	14.87
393.793	14.71
394	14.61
394.207	14.73
394.414	14.75
394.622	14.69
394.829	14.76
395.036	14.75
395.243	15.07
395.45	15.17
395.657	15.34
395.864	15.42
396.072	15.72
396.279	15.92
396.486	16.03
396.693	15.97
396.9	15.92
397.107	15.82
397.314	15.84
397.521	15.6
397.728	15.33
397.935	15.45
398.142	15.48
398.349	15.33
398.556	15.4
398.763	15.34
398.97	15.39
399.177	15.41
399.383	15.45
399.59	15.52
399.797	15.67
400.004	15.6
400.211	15.55
400.418	15.54
400.625	15.68
400.831	15.56
401.038	15.45
401.245	15.3
401.452	15.4
401.658	15.36
401.865	15.33
402.072	15.24
402.279	15.33
402.485	15.37
402.692	15.23
402.899	15.13
403.105	15.09
403.312	15.14
403.519	15.29
403.725	15.17
403.932	15.25
404.138	15.3
404.345	15.17
404.552	15.22
404.758	14.98
404.965	15.08
405.171	15.01
405.378	14.89
405.584	14.96
405.791	14.72
405.997	14.92
406.204	14.99
406.41	14.9
406.617	14.97
406.823	15.06
407.029	15.23
407.236	15.31
407.442	15.23
407.649	15.37
407.855	15.32
408.061	15.43
408.268	15.22
408.474	15.3
408.68	15.4
408.887	15.23
409.093	15.16
409.299	15.23
409.505	15.06
409.712	15.17
409.918	15.19
410.124	15.27
410.33	15.36
410.537	15.32
410.743	15.22
410.949	15.1
411.155	15.3
411.361	15.09
411.567	14.97
411.773	15.01
411.98	14.97
412.186	14.97
412.392	14.89
412.598	14.88
412.804	14.95
413.01	14.79
413.216	14.76
413.422	14.57
413.628	14.7
413.834	14.65
414.04	14.71
414.246	14.64
414.452	14.67
414.658	14.83
414.864	14.69
415.07	14.77
415.275	14.81
415.481	14.84
415.687	14.88
415.893	14.98
416.099	15.11
416.305	15.03
416.511	15.01
416.716	14.92
416.922	14.74
417.128	14.83
417.334	14.81
417.539	14.82
417.745	14.82
417.951	14.9
418.157	14.72
418.362	14.6
418.568	14.59
418.774	14.61
418.979	14.65
419.185	14.64
419.391	14.56
419.596	14.46
419.802	14.41
420.008	14.4
420.213	14.38
420.419	14.45
420.624	14.41
420.83	14.39
421.035	14.38
421.241	14.28
421.446	14.3
421.652	14.23
421.857	14.19
422.063	14.18
422.268	14.12
422.474	14.1
422.679	14.06
422.885	14.02
423.09	14.02
423.295	13.95
423.501	14
423.706	13.98
423.911	14.01
424.117	14.1
424.322	14.09
424.527	14.04
424.733	13.99
424.938	13.99
425.143	14.06
425.349	14.06
425.554	14.16
425.759	14.13
425.964	14.19
426.169	14.27
426.375	14.27
426.58	14.28
426.785	14.37
426.99	14.42
427.195	14.48
427.4	14.5
427.605	14.58
427.811	14.59
428.016	14.59
428.221	14.59
428.426	14.62
428.631	14.67
428.836	14.76
429.041	14.86
429.246	14.87
429.451	14.85
429.656	14.86
429.861	14.87
430.066	14.89
430.271	14.87
430.476	14.71
430.681	14.67
430.886	14.6
431.09	14.63
431.295	14.53
431.5	14.56
431.705	14.53
431.91	14.52
432.115	14.51
432.32	14.49
432.524	14.58
432.729	14.69
432.934	14.64
433.139	14.65
433.343	14.56
433.548	14.58
433.753	14.64
433.958	14.82
434.162	14.91
434.367	14.84
434.572	14.87
434.776	14.85
434.981	15
435.186	15.12
435.39	15.22
435.595	15.3
435.799	15.38
436.004	15.26
436.209	15.04
436.413	15
436.618	15.01
436.822	15
437.027	14.96
437.231	14.8
437.436	14.73
437.64	14.71
437.845	14.71
438.049	14.69
438.253	14.78
438.458	14.85
438.662	14.83
438.867	14.95
439.071	14.94
439.275	14.87
439.48	14.86
439.684	14.8
439.888	14.78
440.093	14.71
440.297	14.68
440.501	14.7
440.706	14.72
440.91	14.67
441.114	14.52
441.318	14.57
441.523	14.61
441.727	14.61
441.931	14.7
442.135	14.74
442.339	14.77
442.543	14.67
442.748	14.58
442.952	14.58
443.156	14.57
443.36	14.64
443.564	14.57
443.768	14.57
443.972	14.59
444.176	14.63
444.38	14.55
444.584	14.51
444.788	14.56
444.992	14.58
445.196	14.51
445.4	14.59
445.604	14.56
445.808	14.5
446.012	14.57
446.216	14.52
446.42	14.46
446.624	14.45
446.828	14.46
447.032	14.48
447.235	14.46
447.439	14.46
447.643	14.44
447.847	14.5
448.051	14.49
448.254	14.46
448.458	14.49
448.662	14.46
448.866	14.39
449.069	14.39
449.273	14.38
449.477	14.37
449.681	14.38
449.884	14.45
450.088	14.43
450.292	14.47
450.495	14.4
450.699	14.38
450.902	14.47
451.106	14.55
451.31	14.66
451.513	14.68
451.717	14.68
451.92	14.71
452.124	14.58
452.327	14.56
452.531	14.6
452.734	14.59
452.938	14.67
453.141	14.61
453.345	14.65
453.548	14.65
453.752	14.66
453.955	14.8
454.158	14.78
454.362	14.84
454.565	14.78
454.769	14.76
454.972	14.82
455.175	14.82
455.379	14.85
455.582	14.99
455.785	14.93
455.988	14.84
456.192	14.74
456.395	14.79
456.598	14.79
456.801	14.91
457.005	14.99
457.208	15.01
457.411	14.95
457.614	14.88
457.817	14.64
458.021	14.55
458.224	14.65
458.427	14.65
458.63	14.61
458.833	14.59
459.036	14.56
459.239	14.48
459.442	14.46
459.645	14.39
459.848	14.42
460.051	14.53
460.254	14.56
460.457	14.49
460.66	14.5
460.863	14.51
461.066	14.44
461.269	14.39
461.472	14.46
461.675	14.48
461.878	14.54
462.081	14.58
462.284	14.48
462.486	14.52
462.689	14.57
462.892	14.56
463.095	14.69
463.298	14.75
463.5	14.75
463.703	14.8
463.906	14.83
464.109	14.91
464.311	14.93
464.514	15.06
464.717	15.14
464.92	15.1
465.122	15.07
465.325	14.99
465.528	14.99
465.73	15.06
465.933	15.03
466.135	14.92
466.338	14.84
466.541	14.86
466.743	14.73
466.946	14.7
467.148	14.71
467.351	14.69
467.553	14.64
467.756	14.6
467.958	14.68
468.161	14.62
468.363	14.76
468.566	14.79
468.768	14.64
468.971	14.64
469.173	14.57
469.375	14.59
469.578	14.72
469.78	14.66
469.983	14.76
470.185	14.7
470.387	14.68
470.59	14.65
470.792	14.74
470.994	14.75
471.196	14.78
471.399	14.85
471.601	14.82
471.803	14.65
472.005	14.68
472.208	14.65
472.41	14.67
472.612	14.72
472.814	14.73
473.016	14.71
473.218	14.8
473.421	14.78
473.623	14.83
473.825	14.9
474.027	14.96
474.229	15.04
474.431	15.05
474.633	15.07
474.835	15.11
475.037	15.05
475.239	14.98
475.441	14.98
475.643	15
475.845	14.89
476.047	14.87
476.249	15.01
476.451	14.94
476.653	14.91
476.855	14.91
477.057	14.83
477.258	14.88
477.46	14.86
477.662	14.88
477.864	14.87
478.066	14.88
478.268	14.93
478.469	14.79
478.671	14.81
478.873	14.83
479.075	14.77
479.276	14.84
479.478	14.8
479.68	14.79
479.882	14.72
480.083	14.75
480.285	14.7
480.487	14.62
480.688	14.61
480.89	14.59
481.091	14.51
481.293	14.5
481.495	14.39
481.696	14.37
481.898	14.34
482.099	14.32
482.301	14.3
482.502	14.32
482.704	14.25
482.905	14.21
483.107	14.17
483.308	14.19
483.51	14.16
483.711	14.17
483.913	14.15
484.114	14.12
484.315	14.13
484.517	14.12
484.718	14.09
484.92	14.14
485.121	14.14
485.322	14.18
485.524	14.16
485.725	14.21
485.926	14.19
486.127	14.23
486.329	14.26
486.53	14.27
486.731	14.29
486.932	14.3
487.134	14.26
487.335	14.28
487.536	14.24
487.737	14.24
487.938	14.21
488.139	14.24
488.341	14.27
488.542	14.3
488.743	14.33
488.944	14.34
489.145	14.35
489.346	14.42
489.547	14.47
489.748	14.48
489.949	14.54
490.15	14.56
490.351	14.55
490.552	14.54
490.753	14.53
490.954	14.51
491.155	14.52
491.356	14.55
491.557	14.47
491.758	14.44
491.959	14.47
492.159	14.46
492.36	14.47
492.561	14.5
492.762	14.52
492.963	14.54
493.164	14.58
493.364	14.63
493.565	14.64
493.766	14.77
493.967	14.82
494.167	14.87
494.368	14.92
494.569	15.11
494.769	15.11
494.97	15.09
495.171	15.13
495.371	15.12
495.572	15.16
495.773	15.14
495.973	15.15
496.174	15.21
496.375	15.24
496.575	15.21
496.776	15.14
496.976	15.17
497.177	15.23
497.377	15.15
497.578	15.16
497.778	15.07
497.979	15.09
498.179	15.14
498.38	15.12
498.58	15.11
498.78	15.16
498.981	15.15
499.181	15.18
499.382	15.15
499.582	15.3
499.782	15.3
499.983	15.41
500.183	15.42
500.383	15.43
500.584	15.41
500.784	15.4
500.984	15.36
501.184	15.48
501.385	15.45
501.585	15.53
501.785	15.49
501.985	15.57
502.185	15.5
502.386	15.49
502.586	15.43
502.786	15.52
502.986	15.54
503.186	15.68
503.386	15.52
503.586	15.54
503.786	15.5
503.987	15.5
504.187	15.44
504.387	15.55
504.587	15.69
504.787	15.74
504.987	15.69
505.187	15.76
505.387	15.72
505.587	15.83
505.786	15.88
505.986	15.93
506.186	16.02
506.386	16.04
506.586	16.01
506.786	15.95
506.986	16
507.186	16.03
507.386	16.04
507.585	16.04
507.785	16.07
507.985	16.08
508.185	16.07
508.384	16.03
508.584	16.1
508.784	16.15
508.984	16.15
509.183	16.13
509.383	16.15
509.583	16.13
509.782	16.17
509.982	16.18
510.182	16.2
510.381	16.22
510.581	16.24
510.781	16.27
510.98	16.24
511.18	16.31
511.379	16.35
511.579	16.38
511.778	16.45
511.978	16.42
512.177	16.38
512.377	16.38
512.576	16.47
512.776	16.52
512.975	16.51
513.175	16.57
513.374	16.59
513.573	16.6
513.773	16.66
513.972	16.66
514.172	16.78
514.371	16.91
514.57	16.93
514.77	16.91
514.969	16.98
515.168	17.03
515.367	17.06
515.567	17.1
515.766	17.14
515.965	17.2
516.164	17.35
516.364	17.26
516.563	17.31
516.762	17.37
516.961	17.5
517.16	17.62
517.359	17.65
517.559	17.69
517.758	17.72
517.957	17.85
518.156	17.87
518.355	17.81
518.554	17.92
518.753	17.97
518.952	17.99
519.151	17.96
519.35	17.82
519.549	17.85
519.748	17.89
519.947	17.97
520.146	17.92
520.345	17.97
520.544	18.02
520.743	18.04
520.942	18.04
521.141	18.14
521.339	18.24
521.538	18.43
521.737	18.54
521.936	18.55
522.135	18.54
522.333	18.6
522.532	18.67
522.731	18.69
522.93	18.68
523.129	18.69
523.327	18.69
523.526	18.72
523.725	18.8
523.923	18.78
524.122	18.85
524.321	18.92
524.519	18.94
524.718	19
524.917	19.06
525.115	19.16
525.314	19.28
525.512	19.39
525.711	19.42
525.909	19.45
526.108	19.51
526.306	19.56
526.505	19.63
526.703	19.7
526.902	19.74
527.1	19.79
527.299	19.79
527.497	19.83
527.696	19.81
527.894	19.79
528.092	19.77
528.291	19.81
528.489	19.86
528.688	19.87
528.886	19.86
529.084	19.86
529.283	19.88
529.481	19.94
529.679	19.94
529.877	20
530.076	20.09
530.274	20.19
530.472	20.23
530.67	20.3
530.869	20.38
531.067	20.51
531.265	20.57
531.463	20.7
531.661	20.77
531.859	20.88
532.057	21
532.255	21.04
532.454	21.12
532.652	21.22
532.85	21.31
533.048	21.36
533.246	21.44
533.444	21.52
533.642	21.52
533.84	21.6
534.038	21.65
534.236	21.59
534.434	21.71
534.632	21.73
534.83	21.81
535.027	21.81
535.225	21.88
535.423	21.95
535.621	22.07
535.819	22.18
536.017	22.28
536.215	22.31
536.412	22.45
536.61	22.48
536.808	22.54
537.006	22.55
537.203	22.65
537.401	22.79
537.599	22.86
537.797	22.83
537.994	22.91
538.192	22.98
538.39	23.14
538.587	23.32
538.785	23.44
538.983	23.56
539.18	23.7
539.378	23.8
539.575	23.88
539.773	23.99
539.97	24.17
540.168	24.25
540.366	24.36
540.563	24.33
540.761	24.34
540.958	24.41
541.155	24.45
541.353	24.48
541.55	24.52
541.748	24.52
541.945	24.56
542.143	24.56
542.34	24.58
542.537	24.59
542.735	24.72
542.932	24.8
543.129	24.84
543.327	24.98
543.524	25.14
543.721	25.3
543.919	25.57
544.116	25.76
544.313	26.06
544.51	26.3
544.708	26.55
544.905	26.69
545.102	26.89
545.299	27.2
545.496	27.42
545.693	27.49
545.891	27.52
546.088	27.5
546.285	27.45
546.482	27.37
546.679	27.32
546.876	27.23
547.073	27.21
547.27	27.13
547.467	26.96
547.664	26.8
547.861	26.67
548.058	26.72
548.255	26.63
548.452	26.54
548.649	26.49
548.846	26.5
549.043	26.51
549.24	26.57
549.437	26.65
549.633	26.55
549.83	26.52
550.027	26.5
550.224	26.34
550.421	26.36
550.618	26.39
550.814	26.37
551.011	26.28
551.208	26.11
551.405	26.06
551.601	25.75
551.798	25.73
551.995	25.65
552.191	25.69
552.388	25.68
552.585	25.6
552.781	25.63
552.978	25.69
553.175	25.7
553.371	25.74
553.568	25.76
553.764	25.91
553.961	25.9
554.157	25.95
554.354	25.92
554.55	26.06
554.747	26.09
554.943	26.15
555.14	26.16
555.336	26.27
555.533	26.34
555.729	26.32
555.926	26.35
556.122	26.47
556.318	26.61
556.515	26.68
556.711	26.59
556.907	26.56
557.104	26.58
557.3	26.65
557.496	26.47
557.693	26.4
557.889	26.43
558.085	26.5
558.281	26.56
558.478	26.53
558.674	26.53
558.87	26.53
559.066	26.58
559.262	26.58
559.459	26.47
559.655	26.59
559.851	26.63
560.047	26.53
560.243	26.6
560.439	26.49
560.635	26.47
560.831	26.5
561.027	26.6
561.223	26.5
561.419	26.43
561.615	26.56
561.811	26.56
562.007	26.57
562.203	26.63
562.399	26.6
562.595	26.56
562.791	26.6
562.987	26.52
563.183	26.48
563.379	26.6
563.575	26.69
563.771	26.55
563.966	26.51
564.162	26.53
564.358	26.56
564.554	26.43
564.75	26.52
564.945	26.49
565.141	26.7
565.337	26.71
565.533	26.74
565.728	26.67
565.924	26.82
566.12	26.91
566.315	26.88
566.511	26.83
566.707	26.89
566.902	26.9
567.098	26.96
567.293	26.76
567.489	26.78
567.684	26.66
567.88	26.7
568.076	26.55
568.271	26.54
568.467	26.64
568.662	26.84
568.858	26.77
569.053	26.94
569.248	26.87
569.444	27.04
569.639	27.05
569.835	27.14
570.03	27.11
570.225	27.15
570.421	27.15
570.616	27.05
570.812	26.98
571.007	27.19
571.202	27.04
571.397	27.12
571.593	27.04
571.788	27.11
571.983	27.05
572.178	27.08
572.374	27.17
572.569	27.13
572.764	27.17
572.959	27.1
573.154	26.97
573.35	26.94
573.545	26.9
573.74	26.99
573.935	26.91
574.13	27.01
574.325	27.03
574.52	27.03
574.715	27.06
574.91	27.18
575.105	27.33
575.3	27.4
575.495	27.49
575.69	27.53
575.885	27.57
576.08	27.7
576.275	27.88
576.47	28.03
576.665	28.21
576.86	28.42
577.055	28.5
577.25	28.52
577.444	28.62
577.639	28.85
577.834	28.88
578.029	28.92
578.224	28.83
578.418	28.77
578.613	28.64
578.808	28.51
579.003	28.32
579.197	28.23
579.392	28.27
579.587	28.2
579.781	28.04
579.976	28.15
580.171	28.17
580.365	28.29
580.56	28.29
580.755	28.45
580.949	28.52
581.144	28.65
581.338	28.81
581.533	28.87
581.727	28.9
581.922	28.98
582.116	29.02
582.311	28.99
582.505	28.99
582.7	29.16
582.894	29.25
583.089	29.28
583.283	29.32
583.478	29.24
583.672	29.12
583.866	29.19
584.061	29.14
584.255	29.3
584.449	29.31
584.644	29.36
584.838	29.22
585.032	29.2
585.226	29.25
585.421	29.27
585.615	29.3
585.809	29.54
586.003	29.65
586.198	29.78
586.392	29.76
586.586	29.83
586.78	29.85
586.974	29.94
587.168	29.96
587.363	29.87
587.557	29.8
587.751	29.85
587.945	29.71
588.139	29.68
588.333	29.57
588.527	29.47
588.721	29.41
588.915	29.42
589.109	29.33
589.303	29.21
589.497	29.26
589.691	29.39
589.885	29.39
590.079	29.41
590.273	29.39
590.466	29.42
590.66	29.44
590.854	29.62
591.048	29.77
591.242	29.75
591.436	29.8
591.629	29.92
591.823	29.99
592.017	29.97
592.211	30.08
592.404	30.1
592.598	30.01
592.792	30.02
592.986	29.91
593.179	29.71
593.373	29.69
593.567	29.73
593.76	29.56
593.954	29.46
594.147	29.45
594.341	29.22
594.535	29.08
594.728	29.19
594.922	29.16
595.115	29.03
595.309	29.05
595.502	29.09
595.696	29.05
595.889	29.04
596.083	28.92
596.276	28.89
596.47	28.98
596.663	28.96
596.856	28.89
597.05	28.78
597.243	28.81
597.437	28.85
597.63	28.85
597.823	28.91
598.017	29.04
598.21	29.28
598.403	29.38
598.596	29.46
598.79	29.7
598.983	29.7
599.176	29.86
599.369	29.98
599.563	30.05
599.756	30.13
599.949	30.13
600.142	30.16
600.335	30.08
600.528	29.99
600.722	29.84
600.915	29.62
601.108	29.65
601.301	29.62
601.494	29.54
601.687	29.48
601.88	29.32
602.073	29.17
602.266	28.98
602.459	28.93
602.652	29.01
602.845	29.13
603.038	29.15
603.231	29.19
603.424	29.11
603.617	29.09
603.809	29.11
604.002	29.15
604.195	29.14
604.388	29.15
604.581	29.17
604.774	29.07
604.966	29.01
605.159	29.02
605.352	29.02
605.545	29.06
605.737	29.09
605.93	29.04
606.123	29.14
606.316	29.28
606.508	29.41
606.701	29.44
606.894	29.71
607.086	29.99
607.279	30.18
607.471	30.31
607.664	30.54
607.857	30.7
608.049	31.11
608.242	31.48
608.434	31.91
608.627	32.63
608.819	33.49
609.012	34.26
609.204	35.05
609.397	36.1
609.589	37.24
609.782	38.31
609.974	39.71
610.166	40.97
610.359	42.12
610.551	43.3
610.743	44.12
610.936	44.8
611.128	45.41
611.32	45.9
611.513	46.01
611.705	46.02
611.897	46.16
612.09	45.82
612.282	45.25
612.474	44.67
612.666	44.05
612.858	43.37
613.051	42.79
613.243	42.17
613.435	41.5
613.627	40.98
613.819	40.4
614.011	39.82
614.203	39.28
614.395	38.65
614.588	38.29
614.78	37.74
614.972	37.15
615.164	36.71
615.356	36.11
615.548	35.73
615.74	35.71
615.932	35.45
616.124	34.83
616.315	34.42
616.507	34.32
616.699	33.86
616.891	33.77
617.083	33.47
617.275	33.16
617.467	32.85
617.659	32.55
617.85	32.02
618.042	31.73
618.234	31.83
618.426	31.69
618.618	31.52
618.809	31.4
619.001	31.08
619.193	31.31
619.384	31.24
619.576	31.41
619.768	31.44
619.959	31.49
620.151	31.6
620.343	31.45
620.534	31.58
620.726	31.51
620.917	31.53
621.109	31.77
621.301	31.81
621.492	31.74
621.684	31.68
621.875	31.64
622.067	31.69
622.258	31.68
622.45	31.86
622.641	31.99
622.832	32.11
623.024	32.4
623.215	32.34
623.407	32.22
623.598	32.27
623.789	32.26
623.981	32.41
624.172	32.62
624.363	32.59
624.555	32.5
624.746	32.23
624.937	32.13
625.129	31.79
625.32	31.72
625.511	31.68
625.702	31.77
625.893	31.77
626.085	31.74
626.276	31.47
626.467	31.49
626.658	31.45
626.849	31.58
627.04	31.57
627.231	31.67
627.422	31.67
627.614	31.78
627.805	31.74
627.996	31.93
628.187	31.95
628.378	32.27
628.569	32.38
628.76	32.47
628.951	32.46
629.142	32.61
629.332	32.82
629.523	32.94
629.714	33.07
629.905	33.36
630.096	33.53
630.287	33.63
630.478	33.54
630.669	33.66
630.859	33.6
631.05	33.52
631.241	33.53
631.432	33.32
631.623	33.39
631.813	33.04
632.004	32.64
632.195	32.26
632.385	32.17
632.576	31.82
632.767	31.42
632.957	31.34
633.148	31.3
633.339	31.05
633.529	30.89
633.72	30.62
633.91	30.78
634.101	30.79
634.292	30.55
634.482	30.4
634.673	30.38
634.863	30.45
635.054	30.45
635.244	30.56
635.435	30.64
635.625	30.65
635.815	30.67
636.006	30.43
636.196	30.5
636.387	30.85
636.577	30.71
636.767	30.87
636.958	30.76
637.148	30.85
637.338	30.83
637.529	30.83
637.719	30.9
637.909	31.07
638.099	31.21
638.29	31.2
638.48	31.02
638.67	31.13
638.86	31
639.05	31.17
639.241	30.99
639.431	30.83
639.621	30.82
639.811	30.82
640.001	30.65
640.191	30.47
640.381	30.35
640.571	30.44
640.761	30.39
640.951	30.41
641.141	30.28
641.331	30.5
641.521	30.39
641.711	30.47
641.901	30.28
642.091	30.35
642.281	30.54
642.471	30.7
642.661	30.69
642.851	30.92
643.041	31.12
643.231	31.16
643.42	31.29
643.61	31.49
643.8	31.25
643.99	31.25
644.18	31.05
644.369	31.14
644.559	31.04
644.749	31.08
644.939	30.97
645.128	30.78
645.318	30.97
645.508	30.68
645.697	30.6
645.887	30.81
646.076	30.98
646.266	31.15
646.456	31.25
646.645	31.32
646.835	31.24
647.024	31.17
647.214	31.29
647.403	31.18
647.593	31.2
647.782	31.26
647.972	31.22
648.161	31.39
648.351	31.48
648.54	31.33
648.73	31.38
648.919	31.55
649.108	31.72
649.298	31.74
649.487	31.95
649.677	32.05
649.866	32.09
650.055	32.3
650.244	32.13
650.434	32.16
650.623	32.13
650.812	32.02
651.002	31.89
651.191	31.76
651.38	31.99
651.569	31.88
651.758	31.74
651.947	31.82
652.137	31.78
652.326	31.78
652.515	31.76
652.704	31.64
652.893	31.79
653.082	31.8
653.271	32.05
653.46	31.77
653.649	31.66
653.838	31.72
654.027	31.75
654.216	31.72
654.405	31.7
654.594	31.51
654.783	31.68
654.972	31.52
655.161	31.67
655.35	31.56
655.539	31.65
655.728	31.62
655.916	31.75
656.105	31.58
656.294	31.73
656.483	31.63
656.672	31.66
656.86	31.82
657.049	31.79
657.238	31.61
657.427	31.57
657.615	31.43
657.804	31.37
657.993	31.29
658.181	31.19
658.37	30.92
658.559	31.07
658.747	31
658.936	30.98
659.125	30.93
659.313	30.9
659.502	30.82
659.69	30.7
659.879	30.73
660.067	30.76
660.256	30.87
660.444	31.15
660.633	31.25
660.821	31.43
661.01	31.39
661.198	31.39
661.387	31.55
661.575	31.67
661.763	31.91
661.952	32.1
662.14	31.98
662.328	31.97
662.517	31.76
662.705	31.73
662.893	31.66
663.082	31.85
663.27	31.91
663.458	31.8
663.646	31.77
663.834	31.71
664.023	31.76
664.211	31.8
664.399	31.68
664.587	31.64
664.775	31.7
664.963	31.85
665.152	31.61
665.34	31.98
665.528	32.23
665.716	32.26
665.904	32.43
666.092	32.18
666.28	32.44
666.468	32.56
666.656	32.6
666.844	32.53
667.032	32.34
667.22	32.3
667.408	32.17
667.596	32.02
667.784	31.8
667.971	31.68
668.159	31.67
668.347	31.7
668.535	31.86
668.723	31.82
668.911	31.79
669.098	31.92
669.286	31.82
669.474	31.68
669.662	31.73
669.849	32.01
670.037	32.12
670.225	32.49
670.413	32.34
670.6	32.24
670.788	32.34
670.976	32.32
671.163	32.43
671.351	32.8
671.538	32.86
671.726	32.96
671.913	32.79
672.101	32.5
672.289	32.04
672.476	32.17
672.664	32.43
672.851	32.46
673.039	32.27
673.226	32.08
673.413	31.83
673.601	31.98
673.788	31.95
673.976	32.1
674.163	32.25
674.35	32.42
674.538	32.34
674.725	32.15
674.912	32.22
675.1	32.19
675.287	32.3
675.474	32.47
675.662	32.45
675.849	32.14
676.036	32.06
676.223	32.31
676.411	32.43
676.598	32.39
676.785	32.36
676.972	32.23
677.159	32.41
677.346	32.1
677.533	31.94
677.721	31.79
677.908	32.02
678.095	31.9
678.282	31.79
678.469	31.79
678.656	31.79
678.843	31.74
679.03	31.82
679.217	32
679.404	32.13
679.591	32.15
679.778	32.12
679.964	32.18
680.151	32.16
680.338	32.04
680.525	32.14
680.712	32.04
680.899	32.04
681.086	31.96
681.272	31.76
681.459	31.91
681.646	32.03
681.833	32.12
682.02	32.24
682.206	32.44
682.393	32.65
682.58	32.48
682.766	32.85
682.953	32.93
683.14	32.74
683.326	33.05
683.513	33.06
683.7	33.07
683.886	33.05
684.073	32.83
684.259	32.7
684.446	32.79
684.632	32.92
684.819	32.54
685.005	32.48
685.192	32.93
685.378	32.75
685.565	32.89
685.751	32.77
685.938	32.77
686.124	32.94
686.31	33.25
686.497	32.95
686.683	33.1
686.87	33.32
687.056	33.48
687.242	33.21
687.429	33.22
687.615	33.01
687.801	32.96
687.987	32.99
688.174	32.97
688.36	32.66
688.546	32.71
688.732	32.58
688.918	32.69
689.105	32.63
689.291	32.86
689.477	32.99
689.663	33.35
689.849	33.25
690.035	33.32
690.221	33.08
690.407	33.29
690.593	33.37
690.779	33.41
690.965	33.36
691.151	33.31
691.337	33.45
691.523	33.5
691.709	33.42
691.895	33.57
692.081	33.94
692.267	34.03
692.453	33.98
692.639	34.21
692.825	34.18
693.011	34.23
693.196	34.31
693.382	34.17
693.568	34.18
693.754	34.27
693.94	34.09
694.125	33.98
694.311	34.5
694.497	34.57
694.682	34.54
694.868	34.64
695.054	34.8
695.239	34.7
695.425	34.68
695.611	34.62
695.796	34.04
695.982	34.19
696.168	33.93
696.353	33.44
696.539	33.36
696.724	33.16
696.91	33.06
697.095	32.57
697.281	32.63
697.466	32.38
697.652	32.18
697.837	32.34
698.023	32.13
698.208	32.13
698.393	32
698.579	32.03
698.764	31.94
698.949	31.72
699.135	31.62
699.32	31.4
699.505	31.44
699.691	31.52
699.876	31.47
700.061	31.61
700.246	31.57
700.432	31.65
700.617	31.42
700.802	31.45
700.987	31.77
701.172	31.85
701.358	32.04
701.543	32.21
701.728	32.72
701.913	32.73
702.098	32.93
702.283	32.78
702.468	33
702.653	33.33
702.838	33.68
703.023	33.67
703.208	34.06
703.393	34.13
703.578	34.2
703.763	33.79
703.948	34.11
704.133	34.49
704.318	35.04
704.503	35.12
704.688	35.39
704.873	35.36
705.057	35.58
705.242	36.07
705.427	36.45
705.612	36.65
705.797	36.78
705.981	37.22
706.166	37.24
706.351	37.23
706.536	37.75
706.72	37.84
706.905	38.42
707.09	38.64
707.274	38.67
707.459	38.95
707.644	39.09
707.828	39.62
708.013	39.4
708.197	39.39
708.382	39.73
708.567	39.53
708.751	39.37
708.936	38.85
709.12	38.66
709.305	37.97
709.489	37.78
709.673	37.89
709.858	37.29
710.042	37.25
710.227	37.3
710.411	36.85
710.596	36.7
710.78	36.6
710.964	36.68
711.149	36.64
711.333	36.89
711.517	36.73
711.702	36.29
711.886	36.47
712.07	36.42
712.254	35.91
712.438	35.88
712.623	35.14
712.807	35.22
712.991	34.8
713.175	34.76
713.359	34.43
713.544	34.1
713.728	34.13
713.912	33.69
714.096	33.52
714.28	33.67
714.464	33.3
714.648	33.74
714.832	33.46
715.016	33.58
715.2	33.19
715.384	33.36
715.568	33.48
715.752	33.36
715.936	33.39
716.12	33.37
716.304	33.22
716.488	33.29
716.671	33.04
716.855	33.39
717.039	33.37
717.223	33.43
717.407	33.29
717.59	33.49
717.774	33.39
717.958	33.56
718.142	33.49
718.325	33.55
718.509	33.65
718.693	33.96
718.877	33.15
719.06	32.97
719.244	32.66
719.428	33.03
719.611	32.66
719.795	32.81
719.978	32.88
720.162	32.99
720.345	33.23
720.529	33.41
720.713	33.58
720.896	34.4
721.08	34.14
721.263	34.44
721.446	34.01
721.63	34.27
721.813	34.69
721.997	34.63
722.18	34.68
722.364	34.38
722.547	34.35
722.73	34.38
722.914	34.32
723.097	35.07
723.28	35.39
723.464	35.57
723.647	35.41
723.83	34.93
724.013	34.77
724.197	34.65
724.38	34.78
724.563	34.63
724.746	34.06
724.929	33.97
725.112	33.47
725.296	33.2
725.479	33.25
725.662	33.46
725.845	33.6
726.028	33.7
726.211	33.79
726.394	33.92
726.577	33.88
726.76	34.69
726.943	34.29
727.126	34.63
727.309	34.76
727.492	35.11
727.675	35.06
727.858	34.91
728.041	34.78
728.224	34.63
728.407	34.13
728.589	34.62
728.772	34.24
728.955	34.49
729.138	35.04
729.321	34.81
729.503	34.59
729.686	34.55
729.869	34.31
730.052	34.68
730.234	35.09
730.417	35.31
730.6	35.23
730.782	35.27
730.965	35.45
731.148	34.86
731.33	35.06
731.513	35.13
731.695	35.26
731.878	35.55
732.061	35.32
732.243	35.25
732.426	35.31
732.608	35.01
732.791	34.47
732.973	34.24
733.156	34.17
733.338	34.08
733.52	33.85
733.703	33.24
733.885	33.4
734.068	33.41
734.25	33.13
734.432	33.31
734.615	33.81
734.797	34.45
734.979	34.68
735.162	35.06
735.344	34.98
735.526	35.1
735.708	35.85
735.891	35.41
736.073	35.37
736.255	35.46
736.437	34.91
736.619	34.99
736.802	34.94
736.984	34.76
737.166	34.6
737.348	34.47
737.53	34.33
737.712	34.07
737.894	34.34
738.076	34.82
738.258	35.25
738.44	35.23
738.622	34.49
738.804	34.69
738.986	34.91
739.168	34.92
739.35	35.08
739.532	35.27
739.714	35.22
739.896	35.63
740.078	35.18
740.259	35.11
740.441	35.7
740.623	35.71
740.805	35.83
740.987	35.27
741.168	35
741.35	35.13
741.532	35.71
741.714	36.12
741.895	35.67
742.077	35.62
742.259	34.97
742.44	35.16
742.622	35.72
742.804	35.4
742.985	35.95
743.167	35.91
743.348	35.94
743.53	35
743.711	34.78
743.893	34.56
744.075	34.88
744.256	35.29
744.438	35.08
744.619	35.15
744.8	35.55
744.982	36
745.163	36.39
745.345	36.81
745.526	37.6
745.707	37.46
745.889	38.15
746.07	38.25
746.252	38.72
746.433	38.59
746.614	37.9
746.795	37.59
746.977	37.5
747.158	37.27
747.339	37.24
747.52	37.54
747.702	37.62
747.883	37.14
748.064	37.04
748.245	36.5
748.426	36.64
748.607	37.35
748.788	37.53
748.97	37.23
749.151	37.15
749.332	37.69
749.513	37.29
749.694	37.14
749.875	37.89
750.056	37.73
750.237	38.1
750.418	38.34
750.599	38.16
750.78	37.55
750.96	37.51
751.141	37.63
751.322	36.5
751.503	36.83
751.684	37.12
751.865	36.63
752.046	36.88
752.226	36.5
752.407	37.1
752.588	37.32
752.769	37.64
752.949	37.11
753.13	37.26
753.311	37.99
753.492	37.46
753.672	37.34
753.853	37.13
754.034	37
754.214	37.75
754.395	37
754.575	37.24
754.756	37.42
754.937	38.46
755.117	38.23
755.298	38.18
755.478	38.35
755.659	38.81
755.839	38.91
756.02	38.82
756.2	38.41
756.381	38.25
756.561	37.65
756.741	37.35
756.922	37.14
757.102	36.9
757.283	36.99
757.463	37.3
757.643	37.07
757.823	37
758.004	37.19
758.184	37.39
758.364	38.03
758.545	38.23
758.725	38.6
758.905	38.44
759.085	39.21
759.265	38.46
759.446	38.45
759.626	38.06
759.806	38.47
759.986	38.65
760.166	38.13
760.346	37.49
760.526	37.52
760.706	37.31
760.886	37.11
761.066	36.46
761.246	37.07
761.426	36.2
761.606	36.1
761.786	35.96
761.966	35.55
762.146	35.61
762.326	36.16
762.506	36.07
762.686	36.14
762.866	36.54
763.046	36.43
763.225	36.28
763.405	36.36
763.585	36.06
763.765	35.66
763.945	35.43
764.124	35.22
764.304	34.73
764.484	34.34
764.664	34.47
764.843	34.38
765.023	34.53
765.203	34.22
765.382	34.43
765.562	35.11
765.741	35.11
765.921	35.64
766.101	35.7
766.28	36.01
766.46	36.58
766.639	36.37
766.819	35.97
766.998	35.84
767.178	36.15
767.357	36.19
767.537	35.95
767.716	36.51
767.896	36.02
768.075	36.04
768.254	35.56
768.434	35.29
768.613	35.97
768.792	36.22
768.972	36.57
769.151	36.9
769.33	37.09
769.51	36.72
769.689	36.52
769.868	36.53
770.047	36.89
770.226	37.24
770.406	36.88
770.585	36.26
770.764	36.07
770.943	36.5
771.122	36.41
771.301	36.5
771.48	37.63
771.66	38.02
771.839	38.66
772.018	38.48
772.197	38.06
772.376	38.71
772.555	39.19
772.734	39.22
772.913	38.76
773.092	38.46
773.271	38.5
773.449	37.71
773.628	37.64
773.807	37.38
773.986	36.97
774.165	37.03
774.344	36.91
774.523	36.19
774.701	36.93
774.88	37.04
775.059	37.39
775.238	37.18
775.417	36.38
775.595	36.29
775.774	36.48
775.953	37.2
776.131	37.87
776.31	37.67
776.489	38.67
776.667	38.48
776.846	38.46
777.025	38.18
777.203	37.82
777.382	38.93
777.56	38.96
777.739	38.78
777.917	38.32
778.096	38.18
778.274	38.04
778.453	37.92
778.631	37.2
778.81	37.32
778.988	37.3
779.166	37.5
779.345	38.02
779.523	37.89
779.702	38.61
779.88	39.17
780.058	39.13
780.237	40.09
780.415	38.88
780.593	39.36
780.771	39.54
780.95	40.2
781.128	40.62
781.306	41
781.484	40.61
781.662	40.69
781.841	40.74
782.019	41.09
782.197	40.98
782.375	40.72
782.553	40.93
782.731	40.79
782.909	40.48
783.087	40.69
783.265	40.28
783.443	41.13
783.621	41.5
783.799	41.29
783.977	40.65
784.155	40.11
784.333	41.44
784.511	41.56
784.689	40.65
784.867	41.3
785.045	40.65
785.223	40.26
785.4	40.17
785.578	39.55
785.756	40.01
785.934	41.08
786.112	42.07
786.289	41.92
786.467	41.58
786.645	42.91
786.823	42.5
787	42.14
787.178	41.94
787.356	41.79
787.533	41.64
787.711	41.07
787.889	40.33
788.066	39.24
788.244	38.34
788.421	38.2
788.599	38.22
788.776	38.22
788.954	38.25
789.131	38.39
789.309	38.57
789.486	38.13
789.664	37.78
789.841	38.13
790.019	37.92
790.196	38.74
790.373	38.17
790.551	36.85
790.728	36.17
790.906	36.73
791.083	37.82
791.26	36.77
791.437	36.79
791.615	37.58
791.792	37.8
791.969	39.01
792.146	38.96
792.324	39.57
792.501	40.93
792.678	40.86
792.855	41.33
793.032	40
793.209	41.77
793.387	42.26
793.564	42.83
793.741	42.09
793.918	41.91
794.095	41.86
794.272	42.19
794.449	42.12
794.626	42.13
794.803	41.57
794.98	41.17
795.157	40.47
795.334	39.5
795.511	38.52
795.688	39.02
795.864	38.4
796.041	38.9
796.218	38.54
796.395	37.31
796.572	37.28
796.749	36.83
796.925	37.1
797.102	36.98
797.279	38.02
797.456	38.86
797.632	38.46
797.809	38.99
797.986	38.99
798.162	38.04
798.339	38.96
798.516	39.89
798.692	40.21
798.869	40
799.046	40.46
799.222	39.09
799.399	39.09
799.575	39.05
799.752	38.52
799.928	38.54
800.105	39.71
800.281	39.71
800.458	39.8
800.634	39.81
800.811	40.17
800.987	39.9
801.163	41.08
801.34	40.33
801.516	39.94
801.692	40.84
801.869	40.7
802.045	41.07
802.221	40.73
802.398	40.29
802.574	41.15
802.75	41.43
802.926	41.7
803.103	42.39
803.279	42.51
803.455	43.04
803.631	42.45
803.807	43
803.983	43.54
804.16	44.76
804.336	43.73
804.512	44
804.688	43.52
804.864	43.34
805.04	42.97
805.216	43.33
805.392	44.21
805.568	45
805.744	44.46
805.92	43.91
806.096	43.81
806.272	45.19
806.448	44.63
806.623	44.83
806.799	45.68
806.975	46.22
807.151	45.55
807.327	45
807.503	44.09
807.678	43.39
807.854	44.22
808.03	44.31
808.206	44.36
808.381	43.82
808.557	44.7
808.733	44.87
808.908	44.33
809.084	45.42
809.26	45.74
809.435	46.8
809.611	47.38
809.787	46.32
809.962	45.34
810.138	43.78
810.313	41.65
810.489	40.4
810.664	39.59
810.84	38.68
811.015	38.36
811.191	38.15
811.366	37.44
811.542	37.88
811.717	38.67
811.892	38.87
812.068	39.88
812.243	41.98
812.419	41.98
812.594	40.87
812.769	41.81
812.944	41.41
813.12	41.09
813.295	41.48
813.47	40.61
813.645	39.62
813.821	39.38
813.996	39.51
814.171	41.47
814.346	42.26
814.521	43.7
814.697	44
814.872	42.38
815.047	42.02
815.222	41.65
815.397	42.14
815.572	42.97
815.747	42.06
815.922	41.25
816.097	41.14
816.272	40.36
816.447	39.92
816.622	38.94
816.797	39.97
816.972	39.5
817.147	39.26
817.322	37.05
817.496	36.22
817.671	37.5
817.846	38.76
818.021	38.96
818.196	39.35
818.371	39.42
818.545	39.34
818.72	40.15
818.895	40.48
819.069	40.55
819.244	40.97
819.419	40.93
819.594	40.06
819.768	39.29
819.943	37.78
820.117	37.36
820.292	35.77
820.467	35.1
820.641	34.36
820.816	33.56
820.99	33.44
821.165	33.07
821.339	32.48
821.514	31.88
821.688	31.66
821.863	31.31
822.037	31.17
822.212	31.03
822.386	30.89
822.56	30.75
822.735	30.64
822.909	30.14
823.084	30.27
823.258	30.25
823.432	30.37
823.606	30.13
823.781	30.22
823.955	30.08
824.129	30.3
824.303	30.11
824.478	30.31
824.652	30.53
824.826	30.4
825	30.38
825.174	30.04
825.348	30.11
825.523	30.43
825.697	30.25
825.871	30.76
826.045	30.9
826.219	31.76
826.393	31.37
826.567	31.83
826.741	32.34
826.915	32.21
827.089	32.5
827.263	32.72
827.437	32.84
827.611	33.2
827.784	32.67
827.958	32.77
828.132	32.04
828.306	32.21
828.48	31.79
828.654	32.41
828.827	32.44
829.001	32.88
829.175	33.18
829.349	33.4
829.522	33.34
829.696	33.52
829.87	33.95
830.044	35.29
830.217	35.98
830.391	37.4
830.565	37.13
830.738	38.01
830.912	38.05
831.085	38.99
831.259	39.14
831.432	41.17
831.606	42.72
831.779	41.71
831.953	41.37
832.126	40.17
832.3	39.85
832.473	39.37
832.647	38.75
832.82	38.82
832.994	37.35
833.167	37.39
833.34	36.52
833.514	36.04
833.687	35.76
833.86	35.89
834.034	35.21
834.207	35.04
834.38	34.83
834.553	34.24
834.727	34.23
834.9	34.51
835.073	34.83
835.246	35.15
835.419	35.18
835.593	36.28
835.766	36.05
835.939	38.02
836.112	38.14
836.285	38.83
836.458	40.17
836.631	40.53
836.804	42.09
836.977	41.54
837.15	40.95
837.323	42.09
837.496	43.72
837.669	44.54
837.842	46.23
838.015	46.88
838.188	46.23
838.361	48.39
838.533	49.05
838.706	45.18
838.879	46.62
839.052	47.72
839.225	47.87
839.398	47.4
839.57	48.12
839.743	46.81
839.916	46.44
840.088	47.01
840.261	46.11
840.434	45.2
840.607	48.47
840.779	47.33
840.952	45.98
841.124	46.23
841.297	44.63
841.47	42.8
841.642	42.58
841.815	42.14
841.987	43.82
842.16	45.48
842.332	47.9
842.505	48.11
842.677	51.91
842.85	51.89
843.022	51.52
843.194	53.55
843.367	56.62
843.539	58.56
843.712	58.69
843.884	57.5
844.056	57.41
844.229	55.3
844.401	55.32
844.573	50.59
844.745	53.04
844.918	53.78
845.09	53.89
845.262	53.6
845.434	51.05
845.606	53.77
845.779	54.93
845.951	53.4
846.123	54.31
846.295	52.57
846.467	53.38
846.639	53.46
846.811	51.02
846.983	48.02
847.155	46.74
847.327	49.19
847.499	47.38
847.671	48.61
847.843	47.71
848.015	47.52
848.187	47.66
848.359	47.82
848.531	50.77
848.703	51.71
848.875	58.68
849.047	60.95
849.218	60.7
849.39	61.24
849.562	61.23
849.734	61.53
849.905	64.76
850.077	65.43
850.249	67.48
850.421	64.18
850.592	64.12
850.764	58.72
850.936	59.51
851.107	58.19
851.279	59.28
851.451	58.15
851.622	58.74
851.794	57.81
851.965	60.09
852.137	59.54
852.308	58.51
852.48	60.13
852.651	61.98
852.823	59.15
852.994	58.82
853.166	60.27
853.337	59.27
853.509	61.74
853.68	60.86
853.851	57.99
854.023	55.43
854.194	56.17
854.365	56.53
854.537	56.13
854.708	57.8
854.879	57.84
855.05	56.85
855.222	54.79
855.393	56.61
855.564	57.18
855.735	57.03
855.906	54.95
856.078	55.19
856.249	58.49
856.42	59.53
856.591	59.34
856.762	60.92
856.933	62.77
857.104	63.95
857.275	60.7
857.446	60.83
857.617	62.02
857.788	65.71
857.959	64.99
858.13	62.32
858.301	59.89
858.472	62.29
858.643	62.51
858.814	58.19
858.985	61.02
859.155	61.82
859.326	62.78
859.497	62.56
859.668	63.56
859.839	63.5
860.009	63.44
860.18	66.5
860.351	64.6
860.522	65.55
860.692	70.08
860.863	69.19
861.034	71.3
861.204	70.46
861.375	74.4
861.546	76.58
861.716	79.12
861.887	75.84
862.057	73.46
862.228	76.97
862.398	74.57
862.569	72.18
862.739	71.03
862.91	67.04
863.08	70.18
863.251	66.47
863.421	63.97
863.592	63.04
863.762	69.07
863.932	66.15
864.103	65.24
864.273	64.63
864.443	62.73
864.614	64.28
864.784	65.49
864.954	62.72
865.125	63.41
865.295	66.39
865.465	67.73
865.635	64.57
865.805	68.91
865.976	71.67
866.146	72.79
866.316	76.38
866.486	76.22
866.656	74.09
866.826	72.48
866.996	75.65
867.166	72.09
867.336	71.67
867.506	72.24
867.676	69.64
867.846	69.41
868.016	70.66
868.186	67.18
868.356	69.37
868.526	72.98
868.696	77.6
868.866	75.52
869.036	76.59
869.206	76.37
869.376	79.04
869.545	82.65
869.715	79.01
869.885	72.67
870.055	75.87
870.224	72.75
870.394	70.47
870.564	66.68
870.734	66.02
870.903	65.93
871.073	62.89
871.243	56.96
871.412	53.85
871.582	56.37
871.751	59.7
871.921	58.56
872.091	61.41
872.26	62.01
872.43	61.01
872.599	63.21
872.769	63.67
872.938	64.8
873.108	71.27
873.277	74.01
873.446	71.25
873.616	73.9
873.785	73.05
873.955	70.31
874.124	68.67
874.293	72.53
874.463	70.83
874.632	69.55
874.801	68.53
874.971	63.6
875.14	60.89
875.309	59.68
875.478	57.44
875.647	57.91
875.817	58.27
875.986	59.49
876.155	54.95
876.324	53.37
876.493	54.89
876.662	55.34
876.831	56.71
877	57.63
877.17	62.2
877.339	62.42
877.508	61.97
877.677	60.03
877.846	62.46
878.015	62.79
878.184	61.53
878.352	60.34
878.521	59.78
878.69	58.82
878.859	59.13
879.028	55.95
879.197	53.91
879.366	54.1
879.534	51.96
879.703	49.02
879.872	48.87
880.041	48.37
880.21	46.02
880.378	44.29
880.547	42.81
880.716	40.65
880.884	39.05
881.053	37.71
881.222	36.87
881.39	36.28
881.559	34.86
881.727	33.99
881.896	33.18
882.065	32.72
882.233	32.73
882.402	32.81
882.57	32.46
882.739	31.87
882.907	31.98
883.076	31.41
883.244	31.69
883.412	32.41
883.581	32.21
883.749	31.8
883.918	32.64
884.086	32.74
884.254	32.34
884.423	33.66
884.591	34.47
884.759	35.46
884.927	36.1
885.096	36.89
885.264	37.82
885.432	39.59
885.6	41.74
885.769	40.2
885.937	40.38
886.105	42.09
886.273	45.28
886.441	48.85
886.609	50.08
886.777	50.61
886.945	50.27
887.113	48.79
887.281	48.96
887.449	51.22
887.617	54.25
887.785	56.46
887.953	59.6
888.121	56.07
888.289	51.52
888.457	51.06
888.625	53.9
888.793	55.47
888.961	56.41
889.129	55.08
889.296	53.42
889.464	53.77
889.632	53.06
889.8	50.41
889.967	49.8
890.135	52.91
