Data from 2938848__Reflection_06.txt Node
Date: Wed Mar 11 13:46:17 EDT 2015
User: robert
Spectrometer: USB4E03002
Autoset integration time: false
Trigger mode: 4
Integration Time (sec): 1.000000E-1
Scans to average: 10
Electric dark correction enabled: false
Nonlinearity correction enabled: false
Boxcar width: 5
Stray light correction enabled: false
XAxis mode: Wavelengths
Stop averaging: false
Number of Pixels in Spectrum: 3648
>>>>>Begin Spectral Data<<<<<
177.575	-496.3
177.794	339.58
178.014	121.23
178.233	210.29
178.452	97.81
178.672	64.94
178.891	33.91
179.11	79.52
179.33	40.22
179.549	36.25
179.768	105.29
179.987	93.15
180.207	135.43
180.426	163.68
180.645	214.83
180.864	186.39
181.084	221.81
181.303	966.67
181.522	129.2
181.741	107.1
181.96	82.27
182.179	-177.59
182.398	-115.29
182.618	363.74
182.837	575.38
183.056	1210.64
183.275	225.71
183.494	183.33
183.713	324.24
183.932	115.1
184.151	96.88
184.37	44.56
184.589	37.75
184.808	108.03
185.027	-7.14
185.246	201.11
185.465	140.22
185.684	98.77
185.903	123.79
186.122	133.9
186.341	81.38
186.56	73.58
186.779	23.04
186.998	34.85
187.216	47.06
187.435	28.02
187.654	15.24
187.873	-0.49
188.092	-8.25
188.311	-4.7
188.53	1.38
188.748	5.17
188.967	9.69
189.186	29.95
189.405	27.32
189.623	28.51
189.842	41.26
190.061	53.31
190.28	53.56
190.498	52.23
190.717	51.19
190.936	43.05
191.154	43.5
191.373	32.01
191.592	9.17
191.81	11.29
192.029	-0.48
192.248	-23.89
192.466	-67.85
192.685	-79.33
192.904	-109.38
193.122	-90.26
193.341	-218.88
193.559	-239.33
193.778	-366.67
193.996	-147.01
194.215	-168.9
194.433	-95.79
194.652	-64.8
194.87	-76.71
195.089	-71.55
195.307	-65.49
195.526	-98.46
195.744	-25.46
195.963	-11.48
196.181	4.92
196.399	16.48
196.618	9.4
196.836	47.54
197.055	58.16
197.273	59.34
197.491	65.08
197.71	58.7
197.928	41.23
198.146	35.5
198.365	36.37
198.583	18.34
198.801	21.63
199.019	26.88
199.238	14.97
199.456	-5.88
199.674	-19.89
199.892	13
200.111	18.1
200.329	14.27
200.547	3.07
200.765	-11.31
200.983	-30.28
201.202	-52.77
201.42	-23.47
201.638	-14.91
201.856	-6.34
202.074	-29.14
202.292	-43.48
202.51	-60.16
202.728	-97.09
202.946	-62.69
203.165	-79.17
203.383	-38.18
203.601	-61.58
203.819	-118.82
204.037	-76.62
204.255	-48.71
204.473	-42.49
204.691	-26.81
204.909	-28.66
205.127	2.88
205.345	-42.86
205.562	5.45
205.78	4.83
205.998	3.66
206.216	-1.71
206.434	-8.89
206.652	-25.34
206.87	7.26
207.088	6.75
207.306	-11.06
207.523	-20.05
207.741	-7.17
207.959	-37.53
208.177	-45.72
208.395	-29.57
208.612	-22.25
208.83	-42.17
209.048	-20.47
209.266	-21.36
209.483	-51.92
209.701	-40.43
209.919	-6.82
210.136	6.31
210.354	50.71
210.572	37.99
210.79	32.8
211.007	5.21
211.225	7.75
211.442	-21.17
211.66	-62.81
211.878	-32.23
212.095	2.57
212.313	-21.22
212.53	-28.85
212.748	-30.66
212.966	-34.84
213.183	-30.92
213.401	4.34
213.618	-3.65
213.836	16.59
214.053	19.61
214.271	10.79
214.488	-2.38
214.705	-1.37
214.923	-6.28
215.14	-16.11
215.358	-14.59
215.575	-2.02
215.793	-20.13
216.01	-28.48
216.227	-6.35
216.445	7.08
216.662	17.27
216.879	17.01
217.097	21.74
217.314	20.6
217.531	21.88
217.749	19.14
217.966	17.54
218.183	24.19
218.4	26.06
218.618	11.43
218.835	5.69
219.052	0.19
219.269	0.4
219.487	-0.19
219.704	3.06
219.921	-0.33
220.138	2.91
220.355	1.63
220.572	-1.95
220.79	1.2
221.007	-3.84
221.224	-1.26
221.441	-5.48
221.658	2.61
221.875	-0.49
222.092	4.98
222.309	5.1
222.526	5.99
222.743	7.17
222.96	3.85
223.177	3.71
223.394	2.97
223.611	0.07
223.828	7.26
224.045	2.32
224.262	0.64
224.479	-2.33
224.696	2.54
224.913	7.5
225.13	6.74
225.347	4.8
225.564	4.65
225.781	6.92
225.997	10.33
226.214	9.65
226.431	12.18
226.648	11.99
226.865	11.69
227.082	11.36
227.298	9.98
227.515	8.34
227.732	8.06
227.949	8
228.165	7.64
228.382	6.14
228.599	5.92
228.816	5.71
229.032	6.53
229.249	6.54
229.466	6.03
229.682	5.1
229.899	5.87
230.116	6.27
230.332	5.91
230.549	5.84
230.765	6.21
230.982	6.27
231.199	5.44
231.415	3.73
231.632	2.76
231.848	2.16
232.065	4.02
232.281	3.17
232.498	3.14
232.714	2.41
232.931	1.32
233.147	0.62
233.364	0.87
233.58	1.02
233.797	3.02
234.013	4.16
234.23	4.02
234.446	3.67
234.662	2.7
234.879	1.29
235.095	2.21
235.312	4.02
235.528	3.58
235.744	3.27
235.961	2.89
236.177	2.95
236.393	3.25
236.61	2.61
236.826	3.24
237.042	3.27
237.258	3.06
237.475	2.96
237.691	2.07
237.907	4.12
238.123	3
238.339	5.8
238.556	4.88
238.772	4.45
238.988	6.93
239.204	6.71
239.42	7.66
239.636	9.05
239.853	8.73
240.069	8.28
240.285	7.59
240.501	9.03
240.717	8.11
240.933	7.38
241.149	7.21
241.365	6.42
241.581	6.05
241.797	5.77
242.013	5.81
242.229	6.26
242.445	5.94
242.661	5.75
242.877	5.06
243.093	4.76
243.309	5.31
243.525	5.52
243.741	5.72
243.957	5.5
244.173	5.66
244.388	5.43
244.604	4.83
244.82	4.88
245.036	4.75
245.252	4.64
245.468	5.01
245.683	5.46
245.899	5.35
246.115	5.26
246.331	5.45
246.547	5.28
246.762	5.31
246.978	5.36
247.194	5.67
247.409	6.05
247.625	6.35
247.841	6.12
248.057	5.77
248.272	5.81
248.488	5.79
248.703	6.01
248.919	6.12
249.135	6.01
249.35	6.01
249.566	5.64
249.782	5.26
249.997	4.89
250.213	5.14
250.428	5.3
250.644	4.9
250.859	4.79
251.075	4.26
251.29	4.63
251.506	4.76
251.721	5.47
251.937	6.01
252.152	6.19
252.368	6.25
252.583	5.76
252.798	5.26
253.014	5.6
253.229	6.43
253.445	6.99
253.66	6.55
253.875	6.9
254.091	5.94
254.306	5.71
254.521	5.66
254.737	5.78
254.952	6.31
255.167	7.47
255.383	6.92
255.598	5.66
255.813	5.28
256.028	6.26
256.244	6.66
256.459	7.4
256.674	7.63
256.889	7.1
257.104	6.65
257.32	6.54
257.535	5.6
257.75	5.96
257.965	6.12
258.18	5.75
258.395	5.69
258.61	5.38
258.826	4.85
259.041	4.64
259.256	4.88
259.471	4.88
259.686	4.84
259.901	4.97
260.116	4.92
260.331	4.76
260.546	4.9
260.761	4.64
260.976	4.32
261.191	4.4
261.406	4.43
261.621	4.27
261.836	4.23
262.05	3.92
262.265	3.84
262.48	3.5
262.695	3.31
262.91	2.69
263.125	2.66
263.34	2.93
263.555	2.86
263.769	2.74
263.984	2.26
264.199	1.98
264.414	2.8
264.629	2.58
264.843	3.05
265.058	3.38
265.273	3.51
265.488	3.06
265.702	3.22
265.917	3.72
266.132	3.34
266.346	3.99
266.561	4.44
266.776	4.18
266.99	4.36
267.205	3.9
267.42	3.94
267.634	3.83
267.849	4.13
268.063	3.79
268.278	3.7
268.492	4.19
268.707	3.66
268.922	3.3
269.136	3.34
269.351	3.2
269.565	3.74
269.78	3.61
269.994	3.52
270.209	3.7
270.423	3.63
270.637	3.54
270.852	3.32
271.066	3.51
271.281	3.82
271.495	3.65
271.709	3.38
271.924	3.34
272.138	3.17
272.353	3.45
272.567	3.15
272.781	3.16
272.996	2.9
273.21	3
273.424	3.22
273.638	2.91
273.853	2.72
274.067	3.14
274.281	3.29
274.495	3.53
274.71	3.25
274.924	3.43
275.138	3.76
275.352	3.89
275.566	4.13
275.781	3.86
275.995	3.99
276.209	4.45
276.423	4.3
276.637	3.67
276.851	3.86
277.065	4
277.279	3.75
277.493	3.8
277.707	4.31
277.921	4.19
278.135	4.4
278.349	4.62
278.563	4.13
278.777	4.35
278.991	4.31
279.205	3.96
279.419	4.46
279.633	4.87
279.847	4.98
280.061	4.85
280.275	4.95
280.489	4.56
280.703	4.41
280.917	4.96
281.131	4.84
281.344	5.04
281.558	5.11
281.772	4.54
281.986	4.42
282.2	4.32
282.414	3.97
282.627	3.6
282.841	3.83
283.055	3.82
283.269	3.8
283.482	3.76
283.696	3.79
283.91	3.69
284.123	3.68
284.337	3.55
284.551	3.58
284.764	3.45
284.978	3.41
285.192	3.43
285.405	3.17
285.619	2.88
285.833	2.86
286.046	2.95
286.26	3.1
286.473	3.29
286.687	3.42
286.9	3.45
287.114	3.66
287.327	3.7
287.541	3.62
287.754	3.84
287.968	3.64
288.181	3.84
288.395	3.71
288.608	3.65
288.822	3.41
289.035	3.29
289.248	3.21
289.462	3.36
289.675	3.59
289.889	3.4
290.102	3.37
290.315	3.71
290.529	3.54
290.742	3.67
290.955	3.59
291.169	3.82
291.382	4.16
291.595	4.16
291.808	4.19
292.022	4.12
292.235	3.99
292.448	4.21
292.661	4.1
292.875	4.15
293.088	4.35
293.301	4.5
293.514	4.35
293.727	4.07
293.94	4
294.153	3.81
294.367	3.9
294.58	4.32
294.793	4.53
295.006	4.79
295.219	4.75
295.432	4.69
295.645	4.66
295.858	4.8
296.071	4.64
296.284	4.87
296.497	4.93
296.71	4.93
296.923	5.14
297.136	4.86
297.349	4.75
297.562	4.94
297.775	5.07
297.988	5.16
298.201	5.11
298.414	5.42
298.626	5.41
298.839	5.44
299.052	5.46
299.265	5.29
299.478	5.51
299.691	5.79
299.903	5.69
300.116	5.48
300.329	5.49
300.542	5.69
300.755	5.66
300.967	5.61
301.18	5.74
301.393	5.86
301.605	6.18
301.818	6.15
302.031	6.04
302.243	6.18
302.456	6.31
302.669	6.06
302.881	6.01
303.094	6.18
303.307	6.16
303.519	6.12
303.732	6.04
303.944	5.9
304.157	6.05
304.37	6.07
304.582	5.8
304.795	5.6
305.007	5.96
305.22	5.98
305.432	5.7
305.645	5.9
305.857	5.95
306.069	5.8
306.282	5.76
306.494	5.78
306.707	5.71
306.919	6.45
307.132	6.66
307.344	6.94
307.556	7.11
307.769	7.46
307.981	7.52
308.193	7.5
308.406	7.76
308.618	7.7
308.83	7.72
309.043	7.98
309.255	7.69
309.467	7.68
309.679	7.38
309.892	7.41
310.104	7.43
310.316	7.36
310.528	7.5
310.74	7.62
310.953	7.8
311.165	7.76
311.377	7.81
311.589	7.59
311.801	7.43
312.013	7.6
312.225	7.58
312.437	7.44
312.649	7.63
312.862	7.58
313.074	7.86
313.286	7.77
313.498	8.09
313.71	7.9
313.922	8.16
314.134	8.31
314.346	8.25
314.558	8.56
314.77	8.48
314.982	8.47
315.193	8.49
315.405	7.85
315.617	7.72
315.829	7.24
316.041	7.52
316.253	7.44
316.465	7.61
316.677	7.66
316.888	7.38
317.1	7.57
317.312	7.28
317.524	7.51
317.736	7.08
317.947	7.32
318.159	7.63
318.371	7.47
318.583	7.6
318.794	7.93
319.006	8.16
319.218	8.25
319.43	8.58
319.641	8.9
319.853	8.62
320.064	9.32
320.276	9.15
320.488	8.91
320.699	8.76
320.911	9.19
321.123	9.24
321.334	8.97
321.546	8.95
321.757	8.86
321.969	8.35
322.18	8.58
322.392	8.87
322.603	8.7
322.815	8.86
323.026	9.16
323.238	8.53
323.449	8.3
323.661	8.58
323.872	8.68
324.083	8.6
324.295	9
324.506	8.82
324.718	8.58
324.929	8.68
325.14	8.59
325.352	8.51
325.563	8.93
325.774	8.62
325.986	8.14
326.197	8.19
326.408	7.98
326.62	8.05
326.831	8.36
327.042	8.32
327.253	8.54
327.464	8.81
327.676	8.86
327.887	8.8
328.098	9.29
328.309	9.39
328.52	8.96
328.732	9.11
328.943	9.16
329.154	9.23
329.365	9.65
329.576	9.71
329.787	9.56
329.998	9.68
330.209	9.79
330.42	9.91
330.631	10.1
330.842	10.55
331.053	10.62
331.264	10.37
331.475	10.37
331.686	10.3
331.897	10.15
332.108	10.05
332.319	9.9
332.53	9.88
332.741	9.46
332.952	9.65
333.163	9.71
333.374	9.69
333.585	9.59
333.795	9.86
334.006	9.5
334.217	9.49
334.428	9.82
334.639	9.61
334.849	9.45
335.06	9.65
335.271	9.27
335.482	9.33
335.692	9.24
335.903	9.45
336.114	9.21
336.325	9.41
336.535	9.71
336.746	9.55
336.957	9.72
337.167	9.65
337.378	9.61
337.589	10.02
337.799	9.77
338.01	9.8
338.22	9.78
338.431	9.31
338.642	9.26
338.852	9.06
339.063	8.96
339.273	8.86
339.484	8.87
339.694	8.84
339.905	8.81
340.115	8.97
340.326	8.91
340.536	8.75
340.746	9.21
340.957	9.07
341.167	8.88
341.378	8.94
341.588	9.02
341.799	8.94
342.009	8.97
342.219	8.77
342.43	8.82
342.64	8.87
342.85	8.71
343.061	8.74
343.271	8.78
343.481	8.58
343.691	8.43
343.902	8.66
344.112	8.78
344.322	8.67
344.532	8.73
344.743	8.67
344.953	8.61
345.163	8.83
345.373	8.55
345.583	8.58
345.793	8.73
346.004	8.91
346.214	8.52
346.424	8.69
346.634	8.81
346.844	8.83
347.054	8.69
347.264	8.65
347.474	8.76
347.684	8.79
347.894	8.69
348.104	8.82
348.314	8.46
348.524	8.59
348.734	8.52
348.944	8.28
349.154	8.15
349.364	7.99
349.574	8.12
349.784	7.93
349.994	7.73
350.204	7.93
350.413	7.89
350.623	8.05
350.833	8.12
351.043	7.96
351.253	8
351.463	8.22
351.672	8.37
351.882	8.34
352.092	8.33
352.302	8.46
352.511	8.45
352.721	8.23
352.931	8.31
353.141	8.07
353.35	8.1
353.56	8.11
353.77	8.06
353.979	7.96
354.189	7.97
354.399	7.93
354.608	8.2
354.818	7.93
355.027	8.43
355.237	8.21
355.447	8.34
355.656	8.3
355.866	8.07
356.075	7.97
356.285	8.05
356.494	8
356.704	8.18
356.913	8.01
357.123	8.02
357.332	7.88
357.542	8.05
357.751	8.03
357.96	7.93
358.17	8.08
358.379	8.25
358.589	8.09
358.798	8.01
359.007	7.8
359.217	7.84
359.426	8.02
359.635	7.85
359.845	7.79
360.054	7.87
360.263	8.19
360.472	8.26
360.682	8.09
360.891	8.09
361.1	8.12
361.309	8.2
361.519	8.15
361.728	8
361.937	8.02
362.146	7.97
362.355	7.87
362.564	7.72
362.774	7.78
362.983	7.76
363.192	7.95
363.401	8.15
363.61	8.13
363.819	8.14
364.028	8.2
364.237	8.15
364.446	8.29
364.655	8.35
364.864	8.34
365.073	8.17
365.282	8.19
365.491	8.16
365.7	7.93
365.909	7.83
366.118	7.72
366.327	7.88
366.536	7.88
366.745	7.8
366.954	7.78
367.162	7.89
367.371	7.89
367.58	7.73
367.789	7.79
367.998	7.59
368.207	7.38
368.415	7.28
368.624	7.14
368.833	7.05
369.042	7.12
369.25	7.13
369.459	6.82
369.668	7.02
369.877	6.95
370.085	6.64
370.294	6.94
370.503	7.35
370.711	7.29
370.92	7.2
371.129	7.43
371.337	7.35
371.546	7.37
371.754	7.57
371.963	7.36
372.171	7.56
372.38	7.56
372.589	7.31
372.797	6.95
373.006	7.12
373.214	7.27
373.423	6.98
373.631	6.84
373.84	6.96
374.048	6.86
374.256	7
374.465	6.74
374.673	6.92
374.882	7.06
375.09	7.27
375.298	7.06
375.507	6.93
375.715	6.94
375.923	6.61
376.132	6.36
376.34	6.4
376.548	6.17
376.757	6.43
376.965	6.29
377.173	6.39
377.381	6.43
377.59	6.6
377.798	6.61
378.006	6.66
378.214	7.07
378.423	7.11
378.631	6.97
378.839	6.92
379.047	6.71
379.255	6.79
379.463	6.66
379.671	6.72
379.879	6.66
380.088	6.62
380.296	6.57
380.504	6.54
380.712	6.43
380.92	6.33
381.128	6.44
381.336	6.68
381.544	6.72
381.752	6.74
381.96	6.58
382.168	6.5
382.376	6.38
382.584	6.31
382.791	6.35
382.999	6.09
383.207	6.13
383.415	5.97
383.623	5.68
383.831	5.66
384.039	5.75
384.247	5.64
384.454	5.78
384.662	5.81
384.87	5.75
385.078	5.64
385.285	5.84
385.493	5.95
385.701	6.04
385.909	6.33
386.116	6.26
386.324	6.33
386.532	6.46
386.739	6.33
386.947	6.29
387.155	6.51
387.362	6.46
387.57	6.27
387.778	5.96
387.985	5.78
388.193	5.73
388.4	5.58
388.608	5.27
388.816	5.12
389.023	4.9
389.231	5
389.438	4.73
389.646	4.83
389.853	4.98
390.061	5.22
390.268	5.34
390.475	5.17
390.683	5.19
390.89	5.34
391.098	5.25
391.305	5.33
391.512	5.26
391.72	5.3
391.927	5.09
392.135	5.08
392.342	5
392.549	5.01
392.756	4.9
392.964	4.95
393.171	4.94
393.378	4.95
393.586	5.04
393.793	4.93
394	5.01
394.207	5.15
394.414	5.28
394.622	5.18
394.829	5.15
395.036	5.25
395.243	5.25
395.45	5.19
395.657	5.24
395.864	5.3
396.072	5.37
396.279	5.32
396.486	5.12
396.693	4.98
396.9	4.96
397.107	5.05
397.314	5.06
397.521	4.81
397.728	4.71
397.935	4.58
398.142	4.44
398.349	4.42
398.556	4.28
398.763	4.24
398.97	4.23
399.177	4.38
399.383	4.37
399.59	4.38
399.797	4.56
400.004	4.61
400.211	4.71
400.418	4.76
400.625	4.91
400.831	5.08
401.038	5.12
401.245	5.12
401.452	4.95
401.658	4.97
401.865	4.83
402.072	4.8
402.279	4.74
402.485	4.55
402.692	4.45
402.899	4.21
403.105	4.26
403.312	4.28
403.519	4.31
403.725	4.26
403.932	4.06
404.138	3.96
404.345	3.96
404.552	4.09
404.758	4.21
404.965	4.22
405.171	4.33
405.378	4.3
405.584	4.23
405.791	4.23
405.997	4.28
406.204	4.28
406.41	4.31
406.617	4.26
406.823	4.09
407.029	4.21
407.236	4.26
407.442	4.2
407.649	4.15
407.855	4.14
408.061	4.02
408.268	4.1
408.474	4.06
408.68	4.16
408.887	4.03
409.093	3.96
409.299	3.86
409.505	3.75
409.712	3.63
409.918	3.64
410.124	3.8
410.33	3.79
410.537	3.73
410.743	3.79
410.949	3.77
411.155	3.81
411.361	3.88
411.567	3.87
411.773	3.98
411.98	4.14
412.186	4.11
412.392	4.04
412.598	4.19
412.804	4.11
413.01	4.08
413.216	4.14
413.422	4.25
413.628	4.1
413.834	3.96
414.04	3.9
414.246	3.77
414.452	3.72
414.658	3.71
414.864	3.71
415.07	3.8
415.275	3.94
415.481	3.9
415.687	3.94
415.893	3.98
416.099	4.04
416.305	3.99
416.511	4.02
416.716	3.98
416.922	4.01
417.128	3.81
417.334	3.79
417.539	3.75
417.745	3.85
417.951	3.81
418.157	3.81
418.362	3.83
418.568	3.78
418.774	3.82
418.979	3.85
419.185	3.82
419.391	3.9
419.596	3.97
419.802	3.97
420.008	3.88
420.213	3.89
420.419	3.9
420.624	3.89
420.83	3.83
421.035	3.79
421.241	3.76
421.446	3.76
421.652	3.78
421.857	3.72
422.063	3.62
422.268	3.6
422.474	3.58
422.679	3.65
422.885	3.5
423.09	3.59
423.295	3.59
423.501	3.55
423.706	3.52
423.911	3.47
424.117	3.48
424.322	3.53
424.527	3.6
424.733	3.65
424.938	3.62
425.143	3.71
425.349	3.7
425.554	3.76
425.759	3.87
425.964	3.87
426.169	3.92
426.375	3.8
426.58	3.79
426.785	3.69
426.99	3.67
427.195	3.69
427.4	3.73
427.605	3.72
427.811	3.63
428.016	3.59
428.221	3.68
428.426	3.73
428.631	3.91
428.836	3.91
429.041	3.96
429.246	3.86
429.451	3.85
429.656	3.93
429.861	3.94
430.066	3.96
430.271	3.96
430.476	3.94
430.681	3.77
430.886	3.73
431.09	3.68
431.295	3.58
431.5	3.63
431.705	3.61
431.91	3.6
432.115	3.68
432.32	3.68
432.524	3.62
432.729	3.55
432.934	3.61
433.139	3.64
433.343	3.73
433.548	3.81
433.753	3.78
433.958	3.72
434.162	3.71
434.367	3.69
434.572	3.73
434.776	3.8
434.981	3.81
435.186	3.85
435.39	3.84
435.595	3.82
435.799	3.73
436.004	3.75
436.209	3.77
436.413	3.77
436.618	3.68
436.822	3.73
437.027	3.59
437.231	3.7
437.436	3.7
437.64	3.63
437.845	3.58
438.049	3.6
438.253	3.57
438.458	3.47
438.662	3.46
438.867	3.47
439.071	3.45
439.275	3.53
439.48	3.45
439.684	3.4
439.888	3.42
440.093	3.47
440.297	3.52
440.501	3.55
440.706	3.63
440.91	3.65
441.114	3.63
441.318	3.54
441.523	3.56
441.727	3.63
441.931	3.65
442.135	3.61
442.339	3.6
442.543	3.59
442.748	3.51
442.952	3.46
443.156	3.39
443.36	3.51
443.564	3.5
443.768	3.52
443.972	3.52
444.176	3.58
444.38	3.57
444.584	3.6
444.788	3.56
444.992	3.65
445.196	3.69
445.4	3.66
445.604	3.66
445.808	3.71
446.012	3.67
446.216	3.59
446.42	3.56
446.624	3.62
446.828	3.55
447.032	3.53
447.235	3.52
447.439	3.55
447.643	3.61
447.847	3.61
448.051	3.63
448.254	3.63
448.458	3.6
448.662	3.54
448.866	3.54
449.069	3.6
449.273	3.64
449.477	3.62
449.681	3.6
449.884	3.61
450.088	3.54
450.292	3.55
450.495	3.53
450.699	3.61
450.902	3.76
451.106	3.81
451.31	3.78
451.513	3.78
451.717	3.77
451.92	3.75
452.124	3.7
452.327	3.65
452.531	3.63
452.734	3.6
452.938	3.6
453.141	3.49
453.345	3.47
453.548	3.45
453.752	3.44
453.955	3.39
454.158	3.39
454.362	3.38
454.565	3.45
454.769	3.39
454.972	3.54
455.175	3.59
455.379	3.66
455.582	3.61
455.785	3.73
455.988	3.69
456.192	3.78
456.395	3.74
456.598	3.75
456.801	3.74
457.005	3.79
457.208	3.73
457.411	3.64
457.614	3.68
457.817	3.74
458.021	3.67
458.224	3.72
458.427	3.66
458.63	3.62
458.833	3.6
459.036	3.61
459.239	3.53
459.442	3.57
459.645	3.54
459.848	3.53
460.051	3.45
460.254	3.48
460.457	3.41
460.66	3.39
460.863	3.45
461.066	3.51
461.269	3.52
461.472	3.62
461.675	3.51
461.878	3.45
462.081	3.46
462.284	3.54
462.486	3.53
462.689	3.7
462.892	3.75
463.095	3.64
463.298	3.63
463.5	3.61
463.703	3.55
463.906	3.53
464.109	3.57
464.311	3.44
464.514	3.41
464.717	3.35
464.92	3.27
465.122	3.31
465.325	3.45
465.528	3.4
465.73	3.36
465.933	3.37
466.135	3.36
466.338	3.4
466.541	3.43
466.743	3.38
466.946	3.36
467.148	3.33
467.351	3.32
467.553	3.28
467.756	3.38
467.958	3.45
468.161	3.38
468.363	3.32
468.566	3.36
468.768	3.38
468.971	3.46
469.173	3.48
469.375	3.47
469.578	3.49
469.78	3.55
469.983	3.56
470.185	3.49
470.387	3.55
470.59	3.75
470.792	3.71
470.994	3.67
471.196	3.71
471.399	3.7
471.601	3.73
471.803	3.7
472.005	3.57
472.208	3.52
472.41	3.59
472.612	3.56
472.814	3.57
473.016	3.69
473.218	3.66
473.421	3.64
473.623	3.65
473.825	3.68
474.027	3.7
474.229	3.65
474.431	3.62
474.633	3.56
474.835	3.63
475.037	3.56
475.239	3.5
475.441	3.53
475.643	3.46
475.845	3.44
476.047	3.45
476.249	3.48
476.451	3.61
476.653	3.64
476.855	3.66
477.057	3.61
477.258	3.6
477.46	3.62
477.662	3.68
477.864	3.71
478.066	3.78
478.268	3.77
478.469	3.68
478.671	3.71
478.873	3.68
479.075	3.64
479.276	3.64
479.478	3.59
479.68	3.56
479.882	3.55
480.083	3.55
480.285	3.51
480.487	3.47
480.688	3.52
480.89	3.48
481.091	3.51
481.293	3.54
481.495	3.56
481.696	3.62
481.898	3.63
482.099	3.59
482.301	3.58
482.502	3.58
482.704	3.61
482.905	3.61
483.107	3.58
483.308	3.57
483.51	3.57
483.711	3.55
483.913	3.55
484.114	3.55
484.315	3.55
484.517	3.54
484.718	3.55
484.92	3.52
485.121	3.5
485.322	3.5
485.524	3.52
485.725	3.52
485.926	3.51
486.127	3.49
486.329	3.48
486.53	3.47
486.731	3.49
486.932	3.47
487.134	3.46
487.335	3.48
487.536	3.48
487.737	3.46
487.938	3.42
488.139	3.42
488.341	3.42
488.542	3.42
488.743	3.43
488.944	3.44
489.145	3.45
489.346	3.5
489.547	3.49
489.748	3.54
489.949	3.55
490.15	3.62
490.351	3.64
490.552	3.66
490.753	3.71
490.954	3.71
491.155	3.69
491.356	3.67
491.557	3.68
491.758	3.71
491.959	3.65
492.159	3.66
492.36	3.62
492.561	3.63
492.762	3.6
492.963	3.52
493.164	3.54
493.364	3.61
493.565	3.65
493.766	3.57
493.967	3.59
494.167	3.66
494.368	3.64
494.569	3.67
494.769	3.75
494.97	3.78
495.171	3.79
495.371	3.8
495.572	3.79
495.773	3.77
495.973	3.84
496.174	3.81
496.375	3.84
496.575	3.87
496.776	3.83
496.976	3.79
497.177	3.84
497.377	3.93
497.578	3.81
497.778	3.81
497.979	3.78
498.179	3.76
498.38	3.79
498.58	3.73
498.78	3.67
498.981	3.65
499.181	3.6
499.382	3.59
499.582	3.48
499.782	3.58
499.983	3.53
500.183	3.6
500.383	3.56
500.584	3.56
500.784	3.61
500.984	3.69
501.184	3.84
501.385	3.95
501.585	4.05
501.785	4.09
501.985	4.12
502.185	4.15
502.386	4.22
502.586	4.33
502.786	4.35
502.986	4.38
503.186	4.4
503.386	4.35
503.586	4.38
503.786	4.24
503.987	4.3
504.187	4.32
504.387	4.37
504.587	4.3
504.787	4.33
504.987	4.39
505.187	4.42
505.387	4.45
505.587	4.47
505.786	4.45
505.986	4.56
506.186	4.6
506.386	4.58
506.586	4.58
506.786	4.6
506.986	4.55
507.186	4.51
507.386	4.52
507.585	4.51
507.785	4.57
507.985	4.64
508.185	4.68
508.384	4.71
508.584	4.77
508.784	4.78
508.984	4.89
509.183	4.97
509.383	4.94
509.583	4.94
509.782	4.99
509.982	4.99
510.182	4.94
510.381	4.9
510.581	4.9
510.781	4.9
510.98	4.91
511.18	4.91
511.379	4.87
511.579	4.94
511.778	5.02
511.978	5.04
512.177	5.07
512.377	5.19
512.576	5.27
512.776	5.3
512.975	5.44
513.175	5.51
513.374	5.52
513.573	5.58
513.773	5.66
513.972	5.69
514.172	5.71
514.371	5.75
514.57	5.69
514.77	5.74
514.969	5.75
515.168	5.7
515.367	5.75
515.567	5.9
515.766	5.97
515.965	5.96
516.164	6.03
516.364	6.13
516.563	6.18
516.762	6.32
516.961	6.41
517.16	6.44
517.359	6.51
517.559	6.54
517.758	6.51
517.957	6.51
518.156	6.56
518.355	6.59
518.554	6.63
518.753	6.68
518.952	6.71
519.151	6.72
519.35	6.84
519.549	6.89
519.748	6.92
519.947	7.01
520.146	7.12
520.345	7.22
520.544	7.34
520.743	7.42
520.942	7.57
521.141	7.62
521.339	7.7
521.538	7.72
521.737	7.85
521.936	7.93
522.135	7.91
522.333	7.99
522.532	8.03
522.731	8.09
522.93	8.17
523.129	8.17
523.327	8.25
523.526	8.33
523.725	8.32
523.923	8.35
524.122	8.45
524.321	8.55
524.519	8.57
524.718	8.68
524.917	8.68
525.115	8.67
525.314	8.73
525.512	8.77
525.711	8.77
525.909	8.91
526.108	9
526.306	9.06
526.505	9.15
526.703	9.3
526.902	9.37
527.1	9.46
527.299	9.57
527.497	9.64
527.696	9.72
527.894	9.78
528.092	9.84
528.291	9.87
528.489	9.92
528.688	9.98
528.886	10
529.084	10.05
529.283	10.09
529.481	10.16
529.679	10.22
529.877	10.3
530.076	10.41
530.274	10.45
530.472	10.53
530.67	10.68
530.869	10.75
531.067	10.83
531.265	10.9
531.463	11.01
531.661	11.07
531.859	11.18
532.057	11.25
532.255	11.33
532.454	11.47
532.652	11.51
532.85	11.53
533.048	11.63
533.246	11.71
533.444	11.76
533.642	11.85
533.84	11.86
534.038	11.9
534.236	11.91
534.434	11.96
534.632	12.02
534.83	12.09
535.027	12.14
535.225	12.16
535.423	12.18
535.621	12.29
535.819	12.35
536.017	12.48
536.215	12.48
536.412	12.6
536.61	12.66
536.808	12.71
537.006	12.72
537.203	12.81
537.401	12.82
537.599	12.89
537.797	12.98
537.994	13.03
538.192	13.09
538.39	13.24
538.587	13.36
538.785	13.39
538.983	13.49
539.18	13.63
539.378	13.72
539.575	13.91
539.773	14.01
539.97	14
540.168	14.04
540.366	14.1
540.563	14.16
540.761	14.22
540.958	14.32
541.155	14.35
541.353	14.4
541.55	14.44
541.748	14.41
541.945	14.43
542.143	14.53
542.34	14.6
542.537	14.65
542.735	14.7
542.932	14.74
543.129	14.75
543.327	14.79
543.524	14.9
543.721	15.02
543.919	15.15
544.116	15.3
544.313	15.34
544.51	15.45
544.708	15.62
544.905	15.74
545.102	15.86
545.299	15.9
545.496	16.06
545.693	16.07
545.891	16.03
546.088	16.08
546.285	16.1
546.482	16.22
546.679	16.24
546.876	16.16
547.073	16.2
547.27	16.19
547.467	16.24
547.664	16.16
547.861	16.2
548.058	16.3
548.255	16.42
548.452	16.4
548.649	16.37
548.846	16.4
549.043	16.44
549.24	16.38
549.437	16.45
549.633	16.52
549.83	16.65
550.027	16.7
550.224	16.78
550.421	16.76
550.618	16.8
550.814	16.84
551.011	16.87
551.208	16.95
551.405	17.04
551.601	17.11
551.798	17.14
551.995	17.15
552.191	17.28
552.388	17.26
552.585	17.23
552.781	17.32
552.978	17.41
553.175	17.52
553.371	17.52
553.568	17.63
553.764	17.6
553.961	17.57
554.157	17.63
554.354	17.51
554.55	17.58
554.747	17.68
554.943	17.7
555.14	17.66
555.336	17.63
555.533	17.65
555.729	17.62
555.926	17.64
556.122	17.7
556.318	17.69
556.515	17.84
556.711	17.86
556.907	18
557.104	17.88
557.3	17.9
557.496	17.99
557.693	18.17
557.889	18.26
558.085	18.34
558.281	18.54
558.478	18.71
558.674	18.7
558.87	18.75
559.066	18.59
559.262	18.76
559.459	18.78
559.655	18.81
559.851	18.85
560.047	18.9
560.243	18.97
560.439	18.87
560.635	18.77
560.831	18.83
561.027	18.91
561.223	19.18
561.419	19.14
561.615	19.19
561.811	19.23
562.007	19.23
562.203	19.22
562.399	19.25
562.595	19.25
562.791	19.37
562.987	19.31
563.183	19.25
563.379	19.1
563.575	19.15
563.771	19.18
563.966	19.21
564.162	19.27
564.358	19.25
564.554	19.28
564.75	19.43
564.945	19.46
565.141	19.52
565.337	19.55
565.533	19.66
565.728	19.79
565.924	19.83
566.12	19.85
566.315	19.79
566.511	19.87
566.707	19.9
566.902	19.83
567.098	19.88
567.293	19.89
567.489	19.9
567.684	19.96
567.88	20.01
568.076	20.03
568.271	20.19
568.467	20.26
568.662	20.29
568.858	20.3
569.053	20.33
569.248	20.4
569.444	20.55
569.639	20.65
569.835	20.62
570.03	20.61
570.225	20.75
570.421	20.67
570.616	20.7
570.812	20.74
571.007	20.79
571.202	20.8
571.397	20.71
571.593	20.64
571.788	20.65
571.983	20.67
572.178	20.71
572.374	20.71
572.569	20.71
572.764	20.63
572.959	20.66
573.154	20.73
573.35	20.75
573.545	20.85
573.74	20.98
573.935	21.07
574.13	21.07
574.325	21.07
574.52	21.08
574.715	21.08
574.91	21.22
575.105	21.21
575.3	21.18
575.495	21.19
575.69	21.15
575.885	21
576.08	20.92
576.275	21.02
576.47	20.99
576.665	21.06
576.86	21.09
577.055	21.11
577.25	21.2
577.444	21.24
577.639	21.41
577.834	21.43
578.029	21.6
578.224	21.74
578.418	21.71
578.613	21.82
578.808	21.71
579.003	21.85
579.197	21.93
579.392	21.85
579.587	21.82
579.781	21.86
579.976	22
580.171	22.16
580.365	22.1
580.56	22.11
580.755	22.09
580.949	22.24
581.144	22.15
581.338	22.1
581.533	22.22
581.727	22.23
581.922	22.11
582.116	22.08
582.311	21.95
582.505	21.97
582.7	21.96
582.894	22.06
583.089	21.97
583.283	21.95
583.478	21.91
583.672	21.87
583.866	21.89
584.061	21.95
584.255	21.89
584.449	21.91
584.644	21.92
584.838	22.06
585.032	21.96
585.226	22.06
585.421	22.1
585.615	22.12
585.809	22.2
586.003	22.27
586.198	22.24
586.392	22.31
586.586	22.44
586.78	22.5
586.974	22.55
587.168	22.49
587.363	22.36
587.557	22.44
587.751	22.54
587.945	22.51
588.139	22.5
588.333	22.5
588.527	22.36
588.721	22.36
588.915	22.41
589.109	22.27
589.303	22.33
589.497	22.41
589.691	22.39
589.885	22.33
590.079	22.24
590.273	22.3
590.466	22.37
590.66	22.52
590.854	22.44
591.048	22.47
591.242	22.43
591.436	22.46
591.629	22.49
591.823	22.55
592.017	22.65
592.211	22.85
592.404	22.76
592.598	22.75
592.792	22.74
592.986	22.8
593.179	22.59
593.373	22.74
593.567	22.77
593.76	22.62
593.954	22.65
594.147	22.58
594.341	22.47
594.535	22.55
594.728	22.56
594.922	22.53
595.115	22.46
595.309	22.58
595.502	22.49
595.696	22.49
595.889	22.55
596.083	22.48
596.276	22.55
596.47	22.59
596.663	22.6
596.856	22.53
597.05	22.5
597.243	22.53
597.437	22.58
597.63	22.68
597.823	22.7
598.017	22.84
598.21	22.95
598.403	22.99
598.596	23
598.79	23.06
598.983	23.26
599.176	23.41
599.369	23.46
599.563	23.42
599.756	23.45
599.949	23.61
600.142	23.63
600.335	23.5
600.528	23.4
600.722	23.36
600.915	23.37
601.108	23.18
601.301	23.22
601.494	23.19
601.687	23.22
601.88	23.12
602.073	22.88
602.266	22.77
602.459	22.82
602.652	22.91
602.845	22.97
603.038	22.93
603.231	23.07
603.424	22.98
603.617	22.94
603.809	22.86
604.002	22.88
604.195	22.95
604.388	22.99
604.581	23.07
604.774	23.07
604.966	23.02
605.159	23.05
605.352	23.09
605.545	23.18
605.737	23.31
605.93	23.33
606.123	23.37
606.316	23.49
606.508	23.49
606.701	23.48
606.894	23.6
607.086	23.75
607.279	23.89
607.471	23.84
607.664	23.8
607.857	23.74
608.049	24.03
608.242	24.22
608.434	24.29
608.627	24.62
608.819	24.86
609.012	24.96
609.204	25.32
609.397	25.61
609.589	25.92
609.782	26.41
609.974	26.93
610.166	27.15
610.359	27.45
610.551	27.93
610.743	28.2
610.936	28.35
611.128	28.59
611.32	28.61
611.513	28.58
611.705	28.72
611.897	28.62
612.09	28.37
612.282	28.17
612.474	28.16
612.666	27.8
612.858	27.45
613.051	27.32
613.243	27.24
613.435	27
613.627	26.87
613.819	26.78
614.011	26.68
614.203	26.57
614.395	26.64
614.588	26.42
614.78	26.34
614.972	26.25
615.164	26.17
615.356	25.95
615.548	25.93
615.74	25.79
615.932	25.49
616.124	25.33
616.315	25.33
616.507	25.34
616.699	25.24
616.891	25.21
617.083	25.25
617.275	25.34
617.467	25.25
617.659	25.16
617.85	25.29
618.042	25.36
618.234	25.24
618.426	25.19
618.618	25.02
618.809	24.95
619.001	24.88
619.193	24.78
619.384	24.55
619.576	24.72
619.768	24.84
619.959	24.64
620.151	24.68
620.343	24.86
620.534	24.99
620.726	25.12
620.917	25.08
621.109	25.18
621.301	25.38
621.492	25.38
621.684	25.13
621.875	25.09
622.067	25.1
622.258	24.97
622.45	25.02
622.641	24.94
622.832	24.73
623.024	25
623.215	25
623.407	24.71
623.598	24.74
623.789	24.73
623.981	24.55
624.172	24.48
624.363	24.48
624.555	24.36
624.746	24.27
624.937	24.31
625.129	24
625.32	23.93
625.511	24.07
625.702	24.04
625.893	24.18
626.085	24.27
626.276	24.37
626.467	24.4
626.658	24.41
626.849	24.49
627.04	24.6
627.231	24.77
627.422	24.9
627.614	24.88
627.805	24.99
627.996	24.99
628.187	25.09
628.378	25.26
628.569	25.3
628.76	25.33
628.951	25.37
629.142	25.45
629.332	25.45
629.523	25.39
629.714	25.25
629.905	25.32
630.096	25.44
630.287	25.51
630.478	25.38
630.669	25.43
630.859	25.46
631.05	25.49
631.241	25.69
631.432	25.58
631.623	25.51
631.813	25.69
632.004	25.71
632.195	25.6
632.385	25.44
632.576	25.46
632.767	25.51
632.957	25.49
633.148	25.5
633.339	25.16
633.529	25.12
633.72	25.19
633.91	25.15
634.101	25.03
634.292	25.02
634.482	24.99
634.673	24.91
634.863	24.82
635.054	24.79
635.244	24.71
635.435	24.75
635.625	24.83
635.815	24.77
636.006	24.78
636.196	24.75
636.387	24.75
636.577	24.8
636.767	24.65
636.958	24.61
637.148	24.52
637.338	24.45
637.529	24.47
637.719	24.39
637.909	24.5
638.099	24.64
638.29	24.59
638.48	24.55
638.67	24.65
638.86	24.84
639.05	24.86
639.241	24.86
639.431	25
639.621	24.89
639.811	25.12
640.001	25.05
640.191	24.92
640.381	25.01
640.571	25.14
640.761	25.12
640.951	24.99
641.141	25.16
641.331	25.42
641.521	25.39
641.711	25.44
641.901	25.37
642.091	25.43
642.281	25.52
642.471	25.51
642.661	25.66
642.851	25.74
643.041	25.99
643.231	25.93
643.42	25.8
643.61	25.8
643.8	25.89
643.99	25.84
644.18	25.83
644.369	26.04
644.559	26.17
644.749	26.04
644.939	25.77
645.128	25.61
645.318	25.76
645.508	25.7
645.697	25.6
645.887	25.4
646.076	25.51
646.266	25.31
646.456	25.02
646.645	24.88
646.835	24.8
647.024	24.97
647.214	25.03
647.403	24.73
647.593	24.78
647.782	24.75
647.972	25.1
648.161	24.85
648.351	25.09
648.54	24.96
648.73	25.1
648.919	25.36
649.108	25.38
649.298	25.28
649.487	25.53
649.677	25.74
649.866	25.64
650.055	25.58
650.244	25.7
650.434	25.7
650.623	26.11
650.812	26.05
651.002	25.87
651.191	25.86
651.38	25.79
651.569	25.72
651.758	25.66
651.947	25.89
652.137	25.98
652.326	26.11
652.515	25.97
652.704	25.75
652.893	25.9
653.082	26.02
653.271	25.91
653.46	26.13
653.649	26.29
653.838	26.2
654.027	26.2
654.216	26.15
654.405	26.09
654.594	26.04
654.783	26.25
654.972	26.22
655.161	26.14
655.35	26.42
655.539	26.41
655.728	26.19
655.916	26.1
656.105	25.95
656.294	25.79
656.483	25.79
656.672	25.79
656.86	25.48
657.049	25.36
657.238	25.36
657.427	25.02
657.615	24.88
657.804	24.77
657.993	24.92
658.181	25.13
658.37	25.26
658.559	25.34
658.747	25.5
658.936	25.45
659.125	25.07
659.313	24.98
659.502	25.07
659.69	25.16
659.879	25.33
660.067	25.29
660.256	25.23
660.444	25.05
660.633	25.02
660.821	24.94
661.01	25.17
661.198	25.65
661.387	25.74
661.575	26
661.763	25.98
661.952	25.88
662.14	25.94
662.328	26.13
662.517	26.36
662.705	26.25
662.893	26.38
663.082	26.61
663.27	26.69
663.458	26.53
663.646	26.25
663.834	26.41
664.023	26.38
664.211	26.15
664.399	25.9
664.587	25.47
664.775	25.83
664.963	25.68
665.152	25.4
665.34	25.54
665.528	25.88
665.716	25.78
665.904	25.68
666.092	25.99
666.28	26.24
666.468	26.36
666.656	26.59
666.844	26.22
667.032	26.44
667.22	26.58
667.408	26.36
667.596	26.29
667.784	26.57
667.971	26.7
668.159	26.43
668.347	26.38
668.535	26.21
668.723	26.43
668.911	26.68
669.098	26.59
669.286	26.33
669.474	26.32
669.662	26.4
669.849	26.33
670.037	26.35
670.225	26.37
670.413	26.35
670.6	26.63
670.788	26.33
670.976	26.34
671.163	26.29
671.351	26.57
671.538	26.54
671.726	26.35
671.913	26.46
672.101	26.54
672.289	26.82
672.476	26.83
672.664	26.6
672.851	26.93
673.039	26.86
673.226	26.77
673.413	26.75
673.601	26.61
673.788	26.64
673.976	26.41
674.163	26.41
674.35	26.31
674.538	26.26
674.725	26.31
674.912	26.15
675.1	26.31
675.287	26.47
675.474	26.36
675.662	26.61
675.849	26.52
676.036	26.54
676.223	26.37
676.411	26.52
676.598	26.6
676.785	26.61
676.972	26.59
677.159	26.49
677.346	26.62
677.533	26.84
677.721	26.72
677.908	27.13
678.095	27.33
678.282	27.36
678.469	27.2
678.656	27.34
678.843	27.5
679.03	27.47
679.217	27.37
679.404	27.15
679.591	27.06
679.778	27.33
679.964	27.23
680.151	27.07
680.338	27.09
680.525	27
680.712	26.83
680.899	26.81
681.086	26.98
681.272	27.06
681.459	27.14
681.646	27.24
681.833	27.03
682.02	26.85
682.206	26.92
682.393	26.97
682.58	26.97
682.766	26.98
682.953	26.89
683.14	27.04
683.326	27.01
683.513	27.35
683.7	27.25
683.886	27.31
684.073	27.51
684.259	27.58
684.446	27.36
684.632	27.51
684.819	27.59
685.005	27.69
685.192	27.42
685.378	27.49
685.565	27.23
685.751	27.22
685.938	27.16
686.124	26.95
686.31	26.98
686.497	27.32
686.683	27.23
686.87	27.32
687.056	27.38
687.242	27.49
687.429	27.33
687.615	27.44
687.801	27.52
687.987	27.71
688.174	27.73
688.36	27.87
688.546	27.71
688.732	27.69
688.918	27.41
689.105	27.33
689.291	27.49
689.477	27.51
689.663	27.35
689.849	27.59
690.035	27.27
690.221	27.34
690.407	27.16
690.593	27.06
690.779	27.17
690.965	27.3
691.151	27.11
691.337	26.99
691.523	27.24
691.709	27.25
691.895	27.21
692.081	27.19
692.267	27.29
692.453	27.21
692.639	27.21
692.825	26.88
693.011	26.87
693.196	27.1
693.382	26.9
693.568	26.92
693.754	27.2
693.94	26.79
694.125	26.79
694.311	26.9
694.497	27.01
694.682	27.15
694.868	27.47
695.054	27.68
695.239	27.52
695.425	27.5
695.611	27.19
695.796	26.85
695.982	27.04
696.168	27.1
696.353	26.91
696.539	26.68
696.724	26.89
696.91	27.07
697.095	26.87
697.281	26.91
697.466	26.89
697.652	26.96
697.837	27.04
698.023	26.74
698.208	26.87
698.393	26.92
698.579	27.01
698.764	26.92
698.949	26.86
699.135	26.93
699.32	27.14
699.505	27.2
699.691	27.26
699.876	27.31
700.061	27.54
700.246	27.58
700.432	27.69
700.617	27.99
700.802	27.89
700.987	28.09
701.172	28.39
701.358	28.13
701.543	28.42
701.728	28.66
701.913	28.68
702.098	28.65
702.283	28.95
702.468	28.75
702.653	28.48
702.838	28.4
703.023	27.98
703.208	27.83
703.393	28.26
703.578	27.94
703.763	28.21
703.948	28.32
704.133	29.19
704.318	29
704.503	29.24
704.688	29.32
704.873	29.79
705.057	30.22
705.242	30.31
705.427	30.04
705.612	30.62
705.797	30.2
705.981	30.28
706.166	29.85
706.351	29.95
706.536	29.86
706.72	29.9
706.905	29.79
707.09	29.73
707.274	29.63
707.459	29.84
707.644	29.9
707.828	30.21
708.013	30.37
708.197	30.16
708.382	30.41
708.567	30.67
708.751	30.86
708.936	30.56
709.12	30.54
709.305	30.54
709.489	30.53
709.673	30.22
709.858	30.15
710.042	29.85
710.227	29.76
710.411	29.47
710.596	29.25
710.78	29.13
710.964	29.6
711.149	29.65
711.333	29.71
711.517	29.6
711.702	29.62
711.886	29.44
712.07	29.47
712.254	29.36
712.438	29.54
712.623	29.76
712.807	29.69
712.991	29.53
713.175	29.6
713.359	29.54
713.544	29.65
713.728	29.23
713.912	29.07
714.096	29.22
714.28	29.15
714.464	28.95
714.648	28.98
714.832	29.09
715.016	29.21
715.2	28.95
715.384	28.71
715.568	28.55
715.752	28.71
715.936	28.62
716.12	28.38
716.304	28.61
716.488	28.4
716.671	27.86
716.855	27.65
717.039	27.37
717.223	27.06
717.407	27.28
717.59	27.34
717.774	27.2
717.958	27.35
718.142	27.3
718.325	27.3
718.509	27.39
718.693	27.94
718.877	27.68
719.06	27.68
719.244	27.8
719.428	27.74
719.611	27.52
719.795	27.39
719.978	27.59
720.162	27.46
720.345	27.25
720.529	27.27
720.713	26.89
720.896	27.3
721.08	27.15
721.263	27.24
721.446	26.95
721.63	26.85
721.813	27.12
721.997	27.33
722.18	27.54
722.364	27.7
722.547	27.89
722.73	28.08
722.914	27.79
723.097	27.78
723.28	27.87
723.464	28.04
723.647	28.5
723.83	28.9
724.013	28.56
724.197	28.39
724.38	28.8
724.563	28.41
724.746	28.16
724.929	28.43
725.112	28.56
725.296	28.83
725.479	28.89
725.662	28.71
725.845	28.44
726.028	28.4
726.211	28.41
726.394	28.02
726.577	28.55
726.76	28.64
726.943	28.65
727.126	28.47
727.309	27.98
727.492	28.04
727.675	27.84
727.858	27.7
728.041	27.73
728.224	27.61
728.407	27.69
728.589	27.52
728.772	27.45
728.955	27.72
729.138	28.05
729.321	28.24
729.503	28.08
729.686	28.22
729.869	28.31
730.052	28.25
730.234	28.77
730.417	28.64
730.6	28.62
730.782	28.91
730.965	28.9
731.148	29.14
731.33	29.02
731.513	28.96
731.695	28.77
731.878	28.4
732.061	28.86
732.243	28.56
732.426	28.81
732.608	29.24
732.791	29.26
732.973	29.33
733.156	28.99
733.338	28.95
733.52	28.79
733.703	29
733.885	29.71
734.068	29.88
734.25	30.15
734.432	30.14
734.615	29.78
734.797	29.56
734.979	29.02
735.162	28.73
735.344	29.05
735.526	29.7
735.708	29.72
735.891	29.34
736.073	28.89
736.255	28.43
736.437	28.51
736.619	28.73
736.802	28.78
736.984	28.82
737.166	29.35
737.348	29.36
737.53	29.74
737.712	30
737.894	30.29
738.076	30.02
738.258	30.33
738.44	30.35
738.622	29.81
738.804	30.08
738.986	29.86
739.168	30.17
739.35	30.44
739.532	29.92
739.714	29.47
739.896	29.24
740.078	28.87
740.259	28.88
740.441	28.59
740.623	28.64
740.805	28.84
740.987	28.83
741.168	28.77
741.35	28.31
741.532	27.93
741.714	27.96
741.895	27.87
742.077	28.85
742.259	29.16
742.44	29.51
742.622	29.53
742.804	29.57
742.985	30.04
743.167	29.61
743.348	29.81
743.53	30.36
743.711	30.61
743.893	30.9
744.075	30.38
744.256	29.94
744.438	29.45
744.619	29.63
744.8	28.94
744.982	28.92
745.163	29.05
745.345	28.96
745.526	29.28
745.707	29.72
745.889	29.96
746.07	30.23
746.252	30.87
746.433	31.74
746.614	32.07
746.795	32.69
746.977	32.77
747.158	33.19
747.339	33.03
747.52	32.85
747.702	32.43
747.883	31.7
748.064	31.37
748.245	30.72
748.426	30.28
748.607	30.53
748.788	30.06
748.97	29.68
749.151	29.31
749.332	30.24
749.513	30.09
749.694	30.29
749.875	30.65
750.056	30.8
750.237	31.3
750.418	31.43
750.599	30.39
750.78	30.55
750.96	30.61
751.141	30.35
751.322	30.49
751.503	30.5
751.684	30.34
751.865	30.77
752.046	30.76
752.226	30.33
752.407	30.74
752.588	31.17
752.769	31.38
752.949	31.78
753.13	31.66
753.311	31.03
753.492	31.01
753.672	31.24
753.853	31.25
754.034	31.14
754.214	31.64
754.395	31.43
754.575	31.72
754.756	31.74
754.937	31.88
755.117	32.52
755.298	32.78
755.478	32.74
755.659	32.74
755.839	32.44
756.02	32.87
756.2	32.55
756.381	32.53
756.561	32.45
756.741	31.94
756.922	32.19
757.102	31.99
757.283	31.68
757.463	32.23
757.643	31.92
757.823	32.09
758.004	31.39
758.184	31.01
758.364	30.41
758.545	30.4
758.725	29.66
758.905	28.86
759.085	28.73
759.265	28.34
759.446	27.59
759.626	27.15
759.806	26.58
759.986	26.69
760.166	26.72
760.346	26.32
760.526	25.79
760.706	26.7
760.886	26.93
761.066	26.5
761.246	26.75
761.426	27.33
761.606	27.72
761.786	27.73
761.966	28.08
762.146	28.05
762.326	28.14
762.506	28.42
762.686	28.24
762.866	28.1
763.046	28.66
763.225	28.9
763.405	28.69
763.585	28.44
763.765	28.68
763.945	28.47
764.124	28.68
764.304	28.86
764.484	28.91
764.664	29.12
764.843	29.42
765.023	29.06
765.203	28.75
765.382	28.91
765.562	29.11
765.741	29.43
765.921	29.4
766.101	29.16
766.28	29.32
766.46	29.61
766.639	29.9
766.819	30.28
766.998	30.72
767.178	31.27
767.357	31.29
767.537	31.31
767.716	30.89
767.896	31.24
768.075	31.73
768.254	32.29
768.434	31.96
768.613	31.85
768.792	31.35
768.972	31.05
769.151	30.63
769.33	30.36
769.51	30.99
769.689	31.22
769.868	31.45
770.047	31
770.226	30.33
770.406	30.57
770.585	30.64
770.764	30.58
770.943	30.79
771.122	30.87
771.301	30.63
771.48	30.4
771.66	30.52
771.839	30.33
772.018	31.3
772.197	31.79
772.376	31.97
772.555	31.56
772.734	32.68
772.913	32.39
773.092	32.98
773.271	33.51
773.449	33.82
773.628	33.82
773.807	34.33
773.986	33.24
774.165	32.87
774.344	32.94
774.523	33.01
774.701	32.37
774.88	33.1
775.059	31.82
775.238	31.64
775.417	31.29
775.595	31.24
775.774	30.81
775.953	31.15
776.131	31.62
776.31	31.51
776.489	30.93
776.667	30.4
776.846	29.4
777.025	30.13
777.203	30.21
777.382	30.65
777.56	30.17
777.739	30.38
777.917	30.56
778.096	30.33
778.274	30.07
778.453	32.13
778.631	33.14
778.81	34.03
778.988	33.74
779.166	34.44
779.345	34.53
779.523	35.48
779.702	35.29
779.88	35.37
780.058	34.84
780.237	34.48
780.415	33.21
780.593	32.92
780.771	32.94
780.95	34.17
781.128	33.26
781.306	32.74
781.484	31.46
781.662	31.28
781.841	31.25
782.019	31.12
782.197	31.35
782.375	31.28
782.553	29.78
782.731	29.72
782.909	28.67
783.087	28.69
783.265	29.34
783.443	30.62
783.621	30.93
783.799	31.68
783.977	32.46
784.155	32.93
784.333	33.27
784.511	34.4
784.689	33.9
784.867	34.57
785.045	34.79
785.223	33.44
785.4	32.41
785.578	32.64
785.756	32.31
785.934	31.85
786.112	31.71
786.289	30.34
786.467	30.55
786.645	30.65
786.823	30.18
787	30.2
787.178	30.51
787.356	30.99
787.533	30.16
787.711	29.66
787.889	29.58
788.066	30.39
788.244	30.47
788.421	30.29
788.599	30.55
788.776	30.04
788.954	29.57
789.131	30.36
789.309	30.23
789.486	31.15
789.664	31.45
789.841	31.47
790.019	30.47
790.196	30.83
790.373	31.23
790.551	31.71
790.728	32.31
790.906	32.89
791.083	32.4
791.26	32.82
791.437	32.92
791.615	33.01
791.792	33.17
791.969	33.19
792.146	33.38
792.324	32.83
792.501	31.82
792.678	31.77
792.855	32.6
793.032	32.65
793.209	32.62
793.387	31.62
793.564	30.59
793.741	30.83
793.918	30.24
794.095	31.43
794.272	32.26
794.449	31.91
794.626	31.87
794.803	31.14
794.98	31.17
795.157	30.67
795.334	31.39
795.511	32.64
795.688	33
795.864	33.24
796.041	32.21
796.218	31.23
796.395	32.92
796.572	32.55
796.749	32.16
796.925	32.12
797.102	32.85
797.279	32.67
797.456	32.4
797.632	31.89
797.809	31.83
797.986	32.4
798.162	32.64
798.339	31.53
798.516	32.34
798.692	32.16
798.869	32.25
799.046	31.85
799.222	31.32
799.399	31.3
799.575	30.81
799.752	31.5
799.928	31.26
800.105	32.15
800.281	32.65
800.458	32.58
800.634	33.33
800.811	33.58
800.987	32.6
801.163	33.24
801.34	32.59
801.516	32.65
801.692	32.58
801.869	31.72
802.045	31.24
802.221	30.79
802.398	31.41
802.574	32.3
802.75	32.59
802.926	33.65
803.103	32.81
803.279	34.03
803.455	34.28
803.631	33.98
803.807	35.39
803.983	34.94
804.16	35.54
804.336	34.82
804.512	34.03
804.688	32.88
804.864	32.39
805.04	31.47
805.216	30.27
805.392	30.79
805.568	31.13
805.744	29.51
805.92	30.39
806.096	29.65
806.272	28.63
806.448	28.02
806.623	28.97
806.799	30.94
806.975	32.18
807.151	32.63
807.327	33.04
807.503	32.04
807.678	33.73
807.854	32.53
808.03	32.44
808.206	32.64
808.381	32.62
808.557	32.47
808.733	30.76
808.908	32.38
809.084	32.48
809.26	32.39
809.435	33.69
809.611	31.89
809.787	32.8
809.962	32.89
810.138	34.75
810.313	34.99
810.489	34.66
810.664	35.23
810.84	33.64
811.015	33.59
811.191	33.01
811.366	32.82
811.542	34.29
811.717	33.8
811.892	34.18
812.068	33.17
812.243	32.85
812.419	32.6
812.594	31.9
812.769	32.1
812.944	30.34
813.12	29.05
813.295	29.5
813.47	28.36
813.645	27.62
813.821	27.44
813.996	26.75
814.171	25.8
814.346	26.66
814.521	27.14
814.697	27.14
814.872	28.12
815.047	29.69
815.222	28.13
815.397	27.59
815.572	27.61
815.747	26.08
815.922	25.92
816.097	26.11
816.272	25.24
816.447	25.03
816.622	25.7
816.797	25.46
816.972	25.82
817.147	25.4
817.322	26.77
817.496	27.59
817.671	28.69
817.846	28.21
818.021	29.09
818.196	28.77
818.371	29.16
818.545	28.15
818.72	28.4
818.895	28.45
819.069	28.86
819.244	29.14
819.419	29.26
819.594	30.16
819.768	30.72
819.943	29.88
820.117	30.02
820.292	30.34
820.467	30.56
820.641	30.47
820.816	29.47
820.99	29.4
821.165	29.26
821.339	29.22
821.514	28.87
821.688	28.61
821.863	28.67
822.037	28.34
822.212	27.87
822.386	27.9
822.56	28.08
822.735	28.29
822.909	28.25
823.084	28.04
823.258	27.56
823.432	27.36
823.606	27.48
823.781	27.69
823.955	28.27
824.129	28.53
824.303	28.4
824.478	28.36
824.652	28.27
824.826	28.46
825	28.74
825.174	29.3
825.348	29.03
825.523	28.8
825.697	28.57
825.871	28.05
826.045	27.8
826.219	27.93
826.393	27.95
826.567	28.09
826.741	28.1
826.915	28.16
827.089	28.22
827.263	28.59
827.437	28.79
827.611	28.62
827.784	28.51
827.958	28.72
828.132	28.36
828.306	28.27
828.48	28.33
828.654	27.83
828.827	27.44
829.001	27.12
829.175	27.71
829.349	27.63
829.522	28.29
829.696	28.02
829.87	27.91
830.044	28.35
830.217	28.83
830.391	28.49
830.565	29.01
830.738	29.58
830.912	30.88
831.085	30.16
831.259	29.58
831.432	28.34
831.606	29.68
831.779	28.98
831.953	29.39
832.126	27.76
832.3	27.39
832.473	28.53
832.647	28.91
832.82	28.31
832.994	28.53
833.167	28.71
833.34	28.58
833.514	28.69
833.687	28.99
833.86	28.94
834.034	29.15
834.207	29.31
834.38	28.85
834.553	28.29
834.727	28.81
834.9	28.53
835.073	28.45
835.246	28.22
835.419	27.23
835.593	27.17
835.766	26.27
835.939	26.64
836.112	26.59
836.285	25.88
836.458	26.82
836.631	25.57
836.804	24.82
836.977	25.24
837.15	25.71
837.323	26.89
837.496	27.98
837.669	28.09
837.842	27.57
838.015	29.09
838.188	29.61
838.361	28.05
838.533	29.23
838.706	32.33
838.879	32.99
839.052	34.17
839.225	32.45
839.398	31.91
839.57	33.92
839.743	34.89
839.916	32.71
840.088	34.42
840.261	34.31
840.434	35.64
840.607	34.03
840.779	33.66
840.952	33.55
841.124	34.7
841.297	33.92
841.47	34
841.642	33.29
841.815	34.13
841.987	33.12
842.16	33.18
842.332	32.87
842.505	33.52
842.677	33.43
842.85	32.04
843.022	32.81
843.194	33.56
843.367	31.26
843.539	32.36
843.712	31.76
843.884	31.48
844.056	33
844.229	31.4
844.401	29.68
844.573	29.89
844.745	31.65
844.918	29.67
845.09	28.21
845.262	30.01
845.434	28.75
845.606	28.22
845.779	31.38
845.951	32.77
846.123	34.98
846.295	34.92
846.467	34.33
846.639	33.53
846.811	32.73
846.983	33.66
847.155	34.71
847.327	34.03
847.499	33.04
847.671	31.69
847.843	30.05
848.015	27.42
848.187	26.59
848.359	28.64
848.531	28.82
848.703	28.92
848.875	27.45
849.047	26.58
849.218	26.8
849.39	29.59
849.562	27.82
849.734	27.09
849.905	26.49
850.077	28.49
850.249	28.2
850.421	27.53
850.592	29.14
850.764	28.93
850.936	30.71
851.107	31
851.279	31.4
851.451	31.29
851.622	29.24
851.794	29.78
851.965	29.32
852.137	29.29
852.308	27.49
852.48	30.02
852.651	31.71
852.823	29.41
852.994	28.89
853.166	33.36
853.337	34.55
853.509	36.24
853.68	40.08
853.851	38.75
854.023	34.14
854.194	38.29
854.365	33.65
854.537	35.91
854.708	36.48
854.879	36.99
855.05	32.2
855.222	31.01
855.393	32.31
855.564	27.12
855.735	27.56
855.906	30.93
856.078	28.78
856.249	29.66
856.42	30.31
856.591	30.45
856.762	31.76
856.933	35.16
857.104	36.11
857.275	37.86
857.446	39.61
857.617	37.99
857.788	37.86
857.959	39.02
858.13	39.08
858.301	37.7
858.472	33.92
858.643	31.29
858.814	31.61
858.985	29.9
859.155	30.94
859.326	32.02
859.497	36.14
859.668	35.77
859.839	35.42
860.009	36.86
860.18	35.46
860.351	38.08
860.522	38
860.692	31.8
860.863	31.29
861.034	26.51
861.204	22.13
861.375	20.6
861.546	23.71
861.716	26.85
861.887	25.45
862.057	26.51
862.228	26.32
862.398	24.64
862.569	25.03
862.739	24.73
862.91	27.6
863.08	25.91
863.251	24.63
863.421	20.15
863.592	18.45
863.762	22.54
863.932	22
864.103	22.16
864.273	23.48
864.443	23.96
864.614	25.22
864.784	20.79
864.954	21.85
865.125	23.05
865.295	30.1
865.465	29.67
865.635	28.46
865.805	25.1
865.976	28.88
866.146	31.2
866.316	31.97
866.486	30.52
866.656	31.85
866.826	36.26
866.996	36.89
867.166	35.39
867.336	30
867.506	27.39
867.676	30.8
867.846	27.83
868.016	27.33
868.186	26.94
868.356	31.91
868.526	34.15
868.696	33.13
868.866	34.18
869.036	28.81
869.206	32.17
869.376	30.43
869.545	30.65
869.715	30.88
869.885	29.33
870.055	32.3
870.224	26.98
870.394	23.97
870.564	24.05
870.734	24.45
870.903	27.39
871.073	27.94
871.243	25.5
871.412	24.06
871.582	23.15
871.751	23.42
871.921	19.22
872.091	20.17
872.26	18.72
872.43	20.98
872.599	18.92
872.769	20.77
872.938	20.24
873.108	25.75
873.277	26.66
873.446	27.33
873.616	28.48
873.785	34.14
873.955	35.58
874.124	41.53
874.293	37.65
874.463	39.15
874.632	35.68
874.801	37.79
874.971	36.32
875.14	35.54
875.309	38.21
875.478	38.69
875.647	37.47
875.817	38.47
875.986	33.91
876.155	33.83
876.324	33.16
876.493	35.15
876.662	35.32
876.831	36.11
877	36.49
877.17	33.02
877.339	33.87
877.508	34.04
877.677	31.74
877.846	31.79
878.015	32.11
878.184	31.04
878.352	29.71
878.521	27.41
878.69	25.9
878.859	25.45
879.028	24.09
879.197	20.74
879.366	19.48
879.534	21.68
879.703	24.33
879.872	26.4
880.041	28.17
880.21	28.57
880.378	28.63
880.547	29.27
880.716	29.5
880.884	30.49
881.053	30.73
881.222	30
881.39	29.63
881.559	29.04
881.727	28.86
881.896	28.31
882.065	28.3
882.233	28.47
882.402	27.5
882.57	27.19
882.739	26.82
882.907	26.75
883.076	27.25
883.244	27.13
883.412	26.52
883.581	26.7
883.749	26.75
883.918	26.42
884.086	25.74
884.254	26.71
884.423	26.64
884.591	26.84
884.759	27.46
884.927	27.57
885.096	26.82
885.264	27.9
885.432	26.44
885.6	25.26
885.769	25.19
885.937	25.68
886.105	25.48
886.273	26.58
886.441	25.42
886.609	26.27
886.777	26.16
886.945	25.84
887.113	25.38
887.281	25.92
887.449	27.82
887.617	28.8
887.785	28.83
887.953	29.83
888.121	29.15
888.289	30.1
888.457	29
888.625	27.17
888.793	28.53
888.961	28.61
889.129	31.92
889.296	30.47
889.464	30.18
889.632	31.24
889.8	27.81
889.967	26.59
890.135	26.78
