Data from 2938754__Reflection_02.txt Node
Date: Sat Mar 14 14:22:01 EDT 2015
User: robert
Spectrometer: USB4E03002
Autoset integration time: false
Trigger mode: 4
Integration Time (sec): 1.000000E-1
Scans to average: 10
Electric dark correction enabled: false
Nonlinearity correction enabled: false
Boxcar width: 5
Stray light correction enabled: false
XAxis mode: Wavelengths
Stop averaging: false
Number of Pixels in Spectrum: 3648
>>>>>Begin Spectral Data<<<<<
177.575	129.59
177.794	196.98
178.014	184.25
178.233	184.89
178.452	198.71
178.672	238.3
178.891	385.63
179.11	518.85
179.33	838.24
179.549	337.98
179.768	368.56
179.987	310.88
180.207	478.02
180.426	3403.85
180.645	1702.04
180.864	1660
181.084	405.36
181.303	309.57
181.522	561.54
181.741	607.94
181.96	-146.81
182.179	-200
182.398	-106.31
182.618	-96.95
182.837	296.83
183.056	178.01
183.275	371.7
183.494	1127.5
183.713	367.21
183.932	269.46
184.151	327.14
184.37	201.25
184.589	142.94
184.808	157.02
185.027	118.62
185.246	111.77
185.465	186.39
185.684	167.53
185.903	316.06
186.122	1850
186.341	-1888.89
186.56	-461.16
186.779	-290.34
186.998	-430.71
187.216	-3637.5
187.435	-716.49
187.654	-5250
187.873	1205.13
188.092	-420
188.311	730.43
188.53	432.88
188.748	684.81
188.967	745.77
189.186	933.01
189.405	567.46
189.623	558.87
189.842	346.2
190.061	2604.35
190.28	-3288.24
190.498	218.1
190.717	701.12
190.936	-17566.67
191.154	190.67
191.373	154.45
191.592	151.15
191.81	142.93
192.029	175.31
192.248	148.04
192.466	142.24
192.685	109.27
192.904	103.58
193.122	102.01
193.341	90.13
193.559	113.22
193.778	119.11
193.996	141.57
194.215	157.16
194.433	195.24
194.652	228.24
194.87	235.17
195.089	257.81
195.307	229.55
195.526	214.19
195.744	254.92
195.963	226.55
196.181	215.81
196.399	239.42
196.618	234.59
196.836	185.63
197.055	190.72
197.273	201.43
197.491	283.76
197.71	494.16
197.928	348.31
198.146	235.95
198.365	291.35
198.583	481.31
198.801	579.71
199.019	394.44
199.238	2995.65
199.456	710.53
199.674	845.07
199.892	273.15
200.111	546.55
200.329	-295.73
200.547	-540.32
200.765	-123.91
200.983	-354.84
201.202	-274.53
201.42	-387.04
201.638	-3950
201.856	1714.29
202.074	244.26
202.292	411.57
202.51	526.88
202.728	467.18
202.946	303.06
203.165	269.2
203.383	195.86
203.601	154.29
203.819	125.34
204.037	137.84
204.255	125.92
204.473	122.95
204.691	125.55
204.909	203.38
205.127	195.68
205.345	271.78
205.562	178.15
205.78	191.06
205.998	301.7
206.216	452.94
206.434	826.37
206.652	1145.21
206.87	5400
207.088	875.49
207.306	289.46
207.523	193.99
207.741	242.52
207.959	254.25
208.177	359.92
208.395	346.98
208.612	282.56
208.83	257.36
209.048	236.73
209.266	211.05
209.483	175.26
209.701	149.58
209.919	200
210.136	133.27
210.354	114.72
210.572	100.64
210.79	95.05
211.007	87.57
211.225	90.97
211.442	103.76
211.66	105.55
211.878	68.29
212.095	162.89
212.313	150.76
212.53	187.96
212.748	221.59
212.966	343.5
213.183	369.36
213.401	742.11
213.618	229.14
213.836	138.48
214.053	135.36
214.271	232.75
214.488	89.42
214.705	85.56
214.923	85.56
215.14	84.07
215.358	72.06
215.575	66.58
215.793	51.84
216.01	50.7
216.227	57.47
216.445	63.71
216.662	38.36
216.879	38.86
217.097	46.06
217.314	43.65
217.531	54.96
217.749	52.41
217.966	62.25
218.183	80.55
218.4	81.67
218.618	82.71
218.835	82.28
219.052	83.03
219.269	71.25
219.487	67.94
219.704	60.6
219.921	66.63
220.138	71.1
220.355	59.6
220.572	52.07
220.79	43.86
221.007	36.31
221.224	24.78
221.441	23.73
221.658	24.43
221.875	5.01
222.092	6.66
222.309	-4.89
222.526	-13.4
222.743	-13.97
222.96	-6.78
223.177	-2.79
223.394	-2.45
223.611	10.96
223.828	15.79
224.045	15.51
224.262	18.5
224.479	22.94
224.696	19.16
224.913	19.11
225.13	25.01
225.347	23.93
225.564	27.55
225.781	25.92
225.997	20.02
226.214	21.65
226.431	19.21
226.648	17.14
226.865	14.7
227.082	14.53
227.298	14.29
227.515	10.27
227.732	7.8
227.949	7.36
228.165	7.53
228.382	8.24
228.599	6.65
228.816	6.76
229.032	5.84
229.249	4.34
229.466	3.8
229.682	2.84
229.899	2.14
230.116	3.28
230.332	2.84
230.549	2.06
230.765	-0.09
230.982	-1.29
231.199	-1.34
231.415	1.11
231.632	1.91
231.848	3.46
232.065	4.84
232.281	5.84
232.498	4.7
232.714	5.42
232.931	5.42
233.147	7.28
233.364	6.63
233.58	6.69
233.797	6.54
234.013	6.2
234.23	4.5
234.446	4.96
234.662	6.31
234.879	6.49
235.095	7.22
235.312	8.19
235.528	8.27
235.744	10.96
235.961	10.85
236.177	9.56
236.393	10.3
236.61	10.35
236.826	11.04
237.042	11.87
237.258	12.07
237.475	10.24
237.691	10.23
237.907	9.99
238.123	10.55
238.339	7.01
238.556	4.84
238.772	4.01
238.988	3.25
239.204	1.89
239.42	0.6
239.636	-1.32
239.853	0.75
240.069	1.68
240.285	1.79
240.501	1.03
240.717	1.59
240.933	2.96
241.149	2.5
241.365	3
241.581	2.69
241.797	3.09
242.013	3.38
242.229	2.37
242.445	2.01
242.661	1.83
242.877	1.49
243.093	1.96
243.309	1.98
243.525	2.99
243.741	3.07
243.957	3.34
244.173	2.42
244.388	3.07
244.604	3.74
244.82	3.39
245.036	3.93
245.252	4.57
245.468	4.51
245.683	4.51
245.899	3.87
246.115	3.27
246.331	3.44
246.547	4.17
246.762	3.97
246.978	3.98
247.194	4.42
247.409	4.11
247.625	4.1
247.841	4.22
248.057	3.89
248.272	3.98
248.488	4.56
248.703	4.83
248.919	4.69
249.135	4.58
249.35	4.79
249.566	3.94
249.782	3.88
249.997	3.44
250.213	3.01
250.428	4.47
250.644	4.61
250.859	3.5
251.075	2.9
251.29	2.03
251.506	2.39
251.721	2.29
251.937	3.19
252.152	4.07
252.368	4.09
252.583	4.93
252.798	3.74
253.014	2.83
253.229	3.57
253.445	2.95
253.66	3.56
253.875	3.79
254.091	3.41
254.306	2.24
254.521	1.48
254.737	1.77
254.952	1.32
255.167	2.02
255.383	2.61
255.598	3.04
255.813	4.2
256.028	4.66
256.244	4.79
256.459	5.39
256.674	6.62
256.889	5.92
257.104	6.03
257.32	6.59
257.535	5.77
257.75	5.95
257.965	5.25
258.18	4.99
258.395	4.75
258.61	4.39
258.826	4.02
259.041	3.87
259.256	3.73
259.471	3.43
259.686	3.39
259.901	3.52
260.116	3.46
260.331	3.8
260.546	3.61
260.761	3.52
260.976	3.62
261.191	3.44
261.406	3.12
261.621	3.29
261.836	3.26
262.05	2.73
262.265	2.85
262.48	2.17
262.695	0.94
262.91	1.08
263.125	0.83
263.34	0.53
263.555	0.31
263.769	0.18
263.984	-0.18
264.199	-0.65
264.414	-0.83
264.629	-0.88
264.843	0.85
265.058	1.98
265.273	1.93
265.488	2.02
265.702	1.54
265.917	1.92
266.132	2.64
266.346	2.52
266.561	3.11
266.776	3.21
266.99	2.92
267.205	2.4
267.42	2.66
267.634	2.2
267.849	2.06
268.063	2.96
268.278	3.23
268.492	2.87
268.707	3.24
268.922	3.55
269.136	3.53
269.351	3.75
269.565	3.47
269.78	2.47
269.994	3.02
270.209	3.36
270.423	2.75
270.637	2.68
270.852	2.92
271.066	3.04
271.281	2.54
271.495	2.73
271.709	2.4
271.924	2.38
272.138	2.78
272.353	2.77
272.567	2.29
272.781	2.15
272.996	2.16
273.21	2.36
273.424	2
273.638	2.49
273.853	2.26
274.067	3.06
274.281	3.36
274.495	3.08
274.71	3.04
274.924	3.05
275.138	3.48
275.352	3.7
275.566	3.19
275.781	3.44
275.995	3.37
276.209	3.84
276.423	3.43
276.637	2.76
276.851	2.95
277.065	3.56
277.279	4.13
277.493	4.45
277.707	4.89
277.921	4.61
278.135	4.4
278.349	3.99
278.563	3.78
278.777	3.71
278.991	4.21
279.205	4.26
279.419	3.32
279.633	2.97
279.847	2.86
280.061	2.43
280.275	2.59
280.489	2.94
280.703	3.2
280.917	2.72
281.131	2.13
281.344	2.33
281.558	2.15
281.772	2.56
281.986	2.63
282.2	2.44
282.414	2.08
282.627	2.28
282.841	1.9
283.055	2.05
283.269	2.11
283.482	2.64
283.696	2.65
283.91	2.7
284.123	2.14
284.337	2.13
284.551	2
284.764	2
284.978	2.07
285.192	2.6
285.405	2.14
285.619	2.21
285.833	2.37
286.046	2.15
286.26	2.2
286.473	2.57
286.687	2.43
286.9	2.37
287.114	2.37
287.327	2.33
287.541	1.93
287.754	1.73
287.968	1.8
288.181	1.64
288.395	1.76
288.608	1.73
288.822	1.64
289.035	1.89
289.248	1.98
289.462	2.18
289.675	1.64
289.889	1.75
290.102	2.07
290.315	2.3
290.529	1.76
290.742	1.82
290.955	1.99
291.169	1.92
291.382	1.78
291.595	1.79
291.808	1.74
292.022	2.58
292.235	2.69
292.448	2.78
292.661	2.91
292.875	3.16
293.088	3.17
293.301	2.94
293.514	2.92
293.727	3.28
293.94	3.58
294.153	3.91
294.367	3.65
294.58	3.46
294.793	3.67
295.006	3.28
295.219	3.37
295.432	3.15
295.645	3.12
295.858	3.32
296.071	2.87
296.284	2.71
296.497	2.48
296.71	2.42
296.923	2.66
297.136	2.61
297.349	2.92
297.562	2.98
297.775	3.24
297.988	3.38
298.201	3.12
298.414	3.05
298.626	3.05
298.839	3.03
299.052	2.93
299.265	2.95
299.478	2.92
299.691	2.57
299.903	2.5
300.116	2.1
300.329	2.11
300.542	2.64
300.755	3.22
300.967	3.12
301.18	2.98
301.393	3.26
301.605	3.05
301.818	2.61
302.031	2.79
302.243	3.2
302.456	3.74
302.669	3.59
302.881	3.41
303.094	3
303.307	2.97
303.519	2.81
303.732	2.66
303.944	2.47
304.157	3
304.37	2.76
304.582	2.27
304.795	1.95
305.007	2.19
305.22	1.77
305.432	1.89
305.645	2.39
305.857	2.78
306.069	2.89
306.282	2.91
306.494	2.78
306.707	2.98
306.919	3.3
307.132	3.17
307.344	3.02
307.556	3.15
307.769	2.94
307.981	2.52
308.193	2.43
308.406	2.61
308.618	3.11
308.83	2.96
309.043	3.05
309.255	2.9
309.467	3.25
309.679	3.34
309.892	3.69
310.104	3.78
310.316	3.83
310.528	3.95
310.74	3.75
310.953	3.46
311.165	3.63
311.377	3.61
311.589	3.73
311.801	3.53
312.013	3.49
312.225	3.15
312.437	3.47
312.649	3.78
312.862	3.55
313.074	3.53
313.286	4
313.498	4.17
313.71	4.21
313.922	4.3
314.134	4.16
314.346	4.19
314.558	4.5
314.77	4.61
314.982	4.38
315.193	4.42
315.405	4.85
315.617	4.2
315.829	3.73
316.041	3.94
316.253	3.79
316.465	3.97
316.677	3.66
316.888	3.81
317.1	3.37
317.312	3.42
317.524	3.93
317.736	4.1
317.947	4.46
318.159	4.58
318.371	4.52
318.583	4.48
318.794	5.12
319.006	5.53
319.218	5.03
319.43	5.23
319.641	5
319.853	4.58
320.064	4.25
320.276	4.15
320.488	4.8
320.699	5.18
320.911	5.33
321.123	5.52
321.334	5.81
321.546	6.64
321.757	7
321.969	7.16
322.18	7.05
322.392	7.71
322.603	7.96
322.815	7.82
323.026	7.98
323.238	8.08
323.449	7.67
323.661	7.67
323.872	7.58
324.083	7.42
324.295	7.79
324.506	8.4
324.718	8.02
324.929	8.24
325.14	7.97
325.352	8.03
325.563	8.41
325.774	8.66
325.986	8.93
326.197	9.36
326.408	9.66
326.62	9.84
326.831	9.9
327.042	10.17
327.253	10.72
327.464	11.26
327.676	11.17
327.887	11.39
328.098	11.49
328.309	11.73
328.52	11.79
328.732	12.21
328.943	12.01
329.154	12.73
329.365	13.5
329.576	13.68
329.787	14.6
329.998	15.32
330.209	15.58
330.42	16.14
330.631	16.42
330.842	16.55
331.053	16.73
331.264	17.24
331.475	16.92
331.686	16.69
331.897	16.64
332.108	16.38
332.319	16.27
332.53	16.77
332.741	17.23
332.952	17.18
333.163	17
333.374	17.5
333.585	17.55
333.795	18.33
334.006	18.2
334.217	18.26
334.428	18.6
334.639	18.82
334.849	18.47
335.06	18
335.271	18.41
335.482	18.92
335.692	18.64
335.903	19.29
336.114	19.05
336.325	19.6
336.535	19.82
336.746	19.85
336.957	19.74
337.167	20
337.378	20.31
337.589	20.43
337.799	20.48
338.01	20.86
338.22	20.7
338.431	20.87
338.642	21.07
338.852	20.89
339.063	20.82
339.273	21.32
339.484	22.01
339.694	22.26
339.905	21.99
340.115	21.86
340.326	21.66
340.536	21.65
340.746	21.38
340.957	21.02
341.167	21.05
341.378	21.07
341.588	21.07
341.799	20.78
342.009	20.41
342.219	20.64
342.43	20.88
342.64	21.19
342.85	20.87
343.061	21.24
343.271	21.34
343.481	21.42
343.691	21.04
343.902	20.67
344.112	20.41
344.322	20.74
344.532	20.33
344.743	20.26
344.953	19.86
345.163	20.24
345.373	20
345.583	19.75
345.793	19.79
346.004	20.17
346.214	20.41
346.424	20.42
346.634	20.26
346.844	20.79
347.054	20.77
347.264	21.04
347.474	21.14
347.684	20.95
347.894	21.12
348.104	21.04
348.314	20.76
348.524	20.54
348.734	20.4
348.944	20.22
349.154	19.98
349.364	19.99
349.574	19.37
349.784	19.28
349.994	19.56
350.204	19.55
350.413	19.63
350.623	19.76
350.833	19.68
351.043	20.04
351.253	19.93
351.463	19.5
351.672	19.45
351.882	19.87
352.092	19.52
352.302	19.34
352.511	19.33
352.721	19.19
352.931	19.17
353.141	19.21
353.35	18.93
353.56	19.08
353.77	19.38
353.979	19.5
354.189	19.45
354.399	19.55
354.608	19.47
354.818	19.29
355.027	19.61
355.237	19.64
355.447	19.87
355.656	19.88
355.866	19.74
356.075	19.89
356.285	19.67
356.494	19.52
356.704	19.56
356.913	19.41
357.123	19.47
357.332	19.11
357.542	19.16
357.751	18.83
357.96	18.49
358.17	18.41
358.379	18.37
358.589	18.51
358.798	18.53
359.007	18.69
359.217	19.13
359.426	19.04
359.635	19.02
359.845	18.89
360.054	18.92
360.263	19.1
360.472	19.06
360.682	19.03
360.891	18.95
361.1	19.17
361.309	19.13
361.519	18.91
361.728	18.86
361.937	18.99
362.146	19.01
362.355	18.93
362.564	18.83
362.774	19.01
362.983	18.82
363.192	18.8
363.401	18.55
363.61	18.41
363.819	18.33
364.028	18.5
364.237	18.25
364.446	18.09
364.655	18.29
364.864	18.34
365.073	18.19
365.282	18.14
365.491	18.1
365.7	18.28
365.909	18.44
366.118	18.49
366.327	18.35
366.536	18.48
366.745	18.54
366.954	18.47
367.162	18.44
367.371	18.7
367.58	18.97
367.789	18.83
367.998	18.56
368.207	18.4
368.415	18.59
368.624	18.88
368.833	18.83
369.042	18.68
369.25	18.65
369.459	18.67
369.668	18.56
369.877	18.4
370.085	18.66
370.294	18.84
370.503	18.55
370.711	18.49
370.92	18.33
371.129	18.51
371.337	18.66
371.546	18.53
371.754	18.48
371.963	18.37
372.171	18.31
372.38	18.4
372.589	18.32
372.797	18.53
373.006	18.27
373.214	18.25
373.423	18.23
373.631	18.29
373.84	18.29
374.048	18.11
374.256	18.05
374.465	18.22
374.673	17.91
374.882	17.69
375.09	17.66
375.298	17.89
375.507	17.87
375.715	17.7
375.923	17.59
376.132	17.8
376.34	18.15
376.548	18.45
376.757	18.31
376.965	18.43
377.173	18.78
377.381	18.63
377.59	18.66
377.798	18.8
378.006	18.78
378.214	18.71
378.423	18.55
378.631	18.61
378.839	18.19
379.047	18.11
379.255	17.85
379.463	17.86
379.671	18.26
379.879	18.22
380.088	18.02
380.296	18.15
380.504	18.08
380.712	18.25
380.92	18.09
381.128	18.17
381.336	18.4
381.544	18.69
381.752	18.51
381.96	18.23
382.168	17.96
382.376	18.32
382.584	18.13
382.791	18.41
382.999	18.4
383.207	18.38
383.415	18.5
383.623	18.4
383.831	18.3
384.039	18.26
384.247	18.21
384.454	18.32
384.662	18.04
384.87	18.15
385.078	17.97
385.285	17.86
385.493	18.08
385.701	18.25
385.909	18.28
386.116	18.28
386.324	18.37
386.532	18.5
386.739	18.7
386.947	18.72
387.155	18.69
387.362	18.79
387.57	18.71
387.778	18.56
387.985	18.35
388.193	18.37
388.4	18.4
388.608	18.22
388.816	18.18
389.023	18.14
389.231	18.22
389.438	18.37
389.646	18.24
389.853	18.71
390.061	18.57
390.268	18.46
390.475	18.54
390.683	18.37
390.89	18.65
391.098	18.59
391.305	18.61
391.512	18.74
391.72	18.72
391.927	18.83
392.135	18.62
392.342	18.74
392.549	19.03
392.756	18.97
392.964	19.37
393.171	19.29
393.378	19.4
393.586	19.31
393.793	19.25
394	19.37
394.207	19.58
394.414	19.6
394.622	19.61
394.829	19.55
395.036	19.63
395.243	19.39
395.45	19.55
395.657	19.74
395.864	19.85
396.072	19.65
396.279	19.77
396.486	19.79
396.693	19.47
396.9	19.34
397.107	19.41
397.314	19.23
397.521	19.3
397.728	19.12
397.935	19.05
398.142	19.08
398.349	19.23
398.556	18.92
398.763	18.69
398.97	19
399.177	19.31
399.383	19.49
399.59	19.65
399.797	19.57
400.004	19.74
400.211	19.61
400.418	19.52
400.625	19.54
400.831	19.68
401.038	19.83
401.245	19.88
401.452	19.71
401.658	19.49
401.865	19.51
402.072	19.72
402.279	19.69
402.485	20.03
402.692	20.07
402.899	20.15
403.105	20
403.312	20.13
403.519	19.89
403.725	19.93
403.932	19.91
404.138	19.87
404.345	19.64
404.552	19.55
404.758	19.39
404.965	19.23
405.171	19.18
405.378	19.3
405.584	18.98
405.791	19.05
405.997	19.03
406.204	19.02
406.41	18.92
406.617	19.08
406.823	19.01
407.029	19.02
407.236	19.22
407.442	19.01
407.649	19.02
407.855	19.22
408.061	19.22
408.268	19.31
408.474	19.3
408.68	19.36
408.887	19.39
409.093	19.54
409.299	19.52
409.505	19.66
409.712	19.87
409.918	19.86
410.124	19.89
410.33	20.09
410.537	20.05
410.743	20.1
410.949	20.04
411.155	20.01
411.361	19.95
411.567	19.76
411.773	19.56
411.98	19.53
412.186	19.53
412.392	19.42
412.598	19.48
412.804	19.54
413.01	19.56
413.216	19.65
413.422	19.75
413.628	19.69
413.834	19.99
414.04	19.97
414.246	20
414.452	19.94
414.658	20.11
414.864	19.83
415.07	19.8
415.275	19.79
415.481	19.75
415.687	19.6
415.893	19.67
416.099	19.54
416.305	19.52
416.511	19.58
416.716	19.76
416.922	19.76
417.128	19.85
417.334	19.83
417.539	19.92
417.745	19.97
417.951	20.02
418.157	20.07
418.362	20.14
418.568	20.16
418.774	20.15
418.979	20.02
419.185	20.04
419.391	19.98
419.596	20.02
419.802	19.91
420.008	19.91
420.213	19.98
420.419	19.98
420.624	19.96
420.83	19.98
421.035	19.99
421.241	19.97
421.446	19.87
421.652	19.93
421.857	19.83
422.063	19.87
422.268	19.88
422.474	19.78
422.679	19.76
422.885	19.73
423.09	19.79
423.295	19.81
423.501	19.86
423.706	19.8
423.911	19.78
424.117	19.83
424.322	19.76
424.527	19.66
424.733	19.8
424.938	19.74
425.143	19.78
425.349	19.67
425.554	19.57
425.759	19.55
425.964	19.64
426.169	19.59
426.375	19.49
426.58	19.53
426.785	19.57
426.99	19.41
427.195	19.43
427.4	19.32
427.605	19.3
427.811	19.36
428.016	19.39
428.221	19.32
428.426	19.43
428.631	19.58
428.836	19.62
429.041	19.69
429.246	19.73
429.451	19.76
429.656	19.81
429.861	19.92
430.066	19.92
430.271	19.97
430.476	20.08
430.681	20.11
430.886	20.21
431.09	20.3
431.295	20.33
431.5	20.39
431.705	20.38
431.91	20.41
432.115	20.41
432.32	20.39
432.524	20.34
432.729	20.35
432.934	20.37
433.139	20.38
433.343	20.34
433.548	20.34
433.753	20.26
433.958	20.27
434.162	20.34
434.367	20.32
434.572	20.41
434.776	20.39
434.981	20.41
435.186	20.29
435.39	20.24
435.595	20.31
435.799	20.34
436.004	20.52
436.209	20.54
436.413	20.55
436.618	20.56
436.822	20.45
437.027	20.42
437.231	20.43
437.436	20.53
437.64	20.52
437.845	20.48
438.049	20.44
438.253	20.37
438.458	20.32
438.662	20.26
438.867	20.31
439.071	20.36
439.275	20.47
439.48	20.45
439.684	20.48
439.888	20.44
440.093	20.42
440.297	20.41
440.501	20.38
440.706	20.5
440.91	20.43
441.114	20.47
441.318	20.4
441.523	20.38
441.727	20.33
441.931	20.28
442.135	20.29
442.339	20.31
442.543	20.34
442.748	20.3
442.952	20.24
443.156	20.28
443.36	20.19
443.564	20.33
443.768	20.29
443.972	20.36
444.176	20.33
444.38	20.38
444.584	20.38
444.788	20.45
444.992	20.51
445.196	20.47
445.4	20.64
445.604	20.64
445.808	20.62
446.012	20.65
446.216	20.61
446.42	20.71
446.624	20.67
446.828	20.66
447.032	20.65
447.235	20.63
447.439	20.67
447.643	20.52
447.847	20.58
448.051	20.56
448.254	20.59
448.458	20.66
448.662	20.61
448.866	20.71
449.069	20.73
449.273	20.67
449.477	20.74
449.681	20.76
449.884	20.82
450.088	20.72
450.292	20.74
450.495	20.77
450.699	20.78
450.902	20.8
451.106	20.81
451.31	20.92
451.513	20.98
451.717	20.87
451.92	20.91
452.124	20.96
452.327	21.03
452.531	21.14
452.734	21.06
452.938	21.01
453.141	20.9
453.345	20.82
453.548	20.84
453.752	20.81
453.955	20.93
454.158	20.87
454.362	20.89
454.565	20.85
454.769	20.59
454.972	20.62
455.175	20.64
455.379	20.65
455.582	20.69
455.785	20.67
455.988	20.72
456.192	20.66
456.395	20.61
456.598	20.58
456.801	20.59
457.005	20.76
457.208	20.75
457.411	20.77
457.614	20.77
457.817	20.73
458.021	20.66
458.224	20.66
458.427	20.67
458.63	20.8
458.833	20.76
459.036	20.81
459.239	20.73
459.442	20.75
459.645	20.74
459.848	20.82
460.051	20.79
460.254	20.84
460.457	20.83
460.66	20.82
460.863	20.77
461.066	20.79
461.269	20.75
461.472	20.8
461.675	20.83
461.878	20.81
462.081	20.92
462.284	20.98
462.486	20.92
462.689	20.95
462.892	21.08
463.095	21.09
463.298	21.21
463.5	21.21
463.703	21.31
463.906	21.29
464.109	21.31
464.311	21.24
464.514	21.26
464.717	21.38
464.92	21.35
465.122	21.36
465.325	21.46
465.528	21.5
465.73	21.63
465.933	21.57
466.135	21.53
466.338	21.55
466.541	21.59
466.743	21.6
466.946	21.63
467.148	21.61
467.351	21.52
467.553	21.42
467.756	21.21
467.958	21.14
468.161	21.09
468.363	21.09
468.566	21.04
468.768	20.89
468.971	20.81
469.173	20.73
469.375	20.78
469.578	20.72
469.78	20.76
469.983	20.89
470.185	20.96
470.387	21.06
470.59	21.07
470.792	21.16
470.994	21.15
471.196	21.27
471.399	21.17
471.601	21.11
471.803	21.13
472.005	20.98
472.208	20.99
472.41	20.95
472.612	20.85
472.814	20.93
473.016	21.01
473.218	20.99
473.421	20.85
473.623	20.99
473.825	21.1
474.027	21.14
474.229	21.22
474.431	21.27
474.633	21.18
474.835	21.19
475.037	21.15
475.239	20.97
475.441	21.1
475.643	21.17
475.845	21.08
476.047	21.09
476.249	21.07
476.451	21.13
476.653	21.08
476.855	21.04
477.057	21.09
477.258	21.02
477.46	21.08
477.662	21.07
477.864	21.13
478.066	21.07
478.268	20.9
478.469	20.91
478.671	20.83
478.873	20.91
479.075	20.95
479.276	20.97
479.478	21.06
479.68	21.09
479.882	21.11
480.083	21.04
480.285	21.05
480.487	21.22
480.688	21.22
480.89	21.23
481.091	21.19
481.293	21.21
481.495	21.14
481.696	21.07
481.898	21.14
482.099	21.16
482.301	21.18
482.502	21.24
482.704	21.22
482.905	21.18
483.107	21.14
483.308	21.09
483.51	21.13
483.711	21.12
483.913	21.11
484.114	21.06
484.315	21.05
484.517	21.02
484.718	20.99
484.92	20.94
485.121	20.92
485.322	20.93
485.524	20.96
485.725	20.95
485.926	20.96
486.127	20.98
486.329	21
486.53	21.01
486.731	21
486.932	21.01
487.134	21.01
487.335	21.03
487.536	21.03
487.737	21.01
487.938	20.95
488.139	20.91
488.341	20.92
488.542	20.87
488.743	20.8
488.944	20.8
489.145	20.77
489.346	20.82
489.547	20.83
489.748	20.9
489.949	20.9
490.15	20.95
490.351	21
490.552	21.02
490.753	21.06
490.954	21.11
491.155	21.18
491.356	21.23
491.557	21.24
491.758	21.25
491.959	21.2
492.159	21.23
492.36	21.24
492.561	21.28
492.762	21.27
492.963	21.26
493.164	21.22
493.364	21.17
493.565	21.11
493.766	21.1
493.967	21.1
494.167	21.17
494.368	21.1
494.569	21.08
494.769	21.06
494.97	21.1
495.171	21.13
495.371	21.24
495.572	21.34
495.773	21.39
495.973	21.46
496.174	21.45
496.375	21.44
496.575	21.53
496.776	21.58
496.976	21.66
497.177	21.66
497.377	21.64
497.578	21.6
497.778	21.51
497.979	21.51
498.179	21.48
498.38	21.52
498.58	21.51
498.78	21.53
498.981	21.52
499.181	21.43
499.382	21.46
499.582	21.5
499.782	21.55
499.983	21.65
500.183	21.61
500.383	21.63
500.584	21.59
500.784	21.52
500.984	21.49
501.184	21.52
501.385	21.6
501.585	21.65
501.785	21.68
501.985	21.65
502.185	21.55
502.386	21.7
502.586	21.8
502.786	21.92
502.986	22.02
503.186	22
503.386	21.93
503.586	21.88
503.786	21.88
503.987	21.87
504.187	21.87
504.387	21.93
504.587	21.87
504.787	21.75
504.987	21.67
505.187	21.63
505.387	21.8
505.587	21.81
505.786	21.86
505.986	21.95
506.186	21.94
506.386	22.03
506.586	22.11
506.786	22.05
506.986	22.11
507.186	22.16
507.386	22.23
507.585	22.16
507.785	22.19
507.985	22.16
508.185	22
508.384	22.02
508.584	21.97
508.784	21.91
508.984	21.99
509.183	22.03
509.383	22.01
509.583	22
509.782	21.97
509.982	21.99
510.182	22.06
510.381	22.16
510.581	22.17
510.781	22.17
510.98	22.27
511.18	22.29
511.379	22.25
511.579	22.25
511.778	22.24
511.978	22.32
512.177	22.3
512.377	22.28
512.576	22.26
512.776	22.26
512.975	22.28
513.175	22.24
513.374	22.17
513.573	22.19
513.773	22.16
513.972	22.2
514.172	22.09
514.371	22.18
514.57	22.2
514.77	22.24
514.969	22.42
515.168	22.46
515.367	22.47
515.567	22.55
515.766	22.59
515.965	22.65
516.164	22.67
516.364	22.78
516.563	22.72
516.762	22.81
516.961	22.8
517.16	22.65
517.359	22.69
517.559	22.72
517.758	22.75
517.957	22.69
518.156	22.64
518.355	22.69
518.554	22.58
518.753	22.57
518.952	22.45
519.151	22.39
519.35	22.51
519.549	22.44
519.748	22.33
519.947	22.29
520.146	22.32
520.345	22.35
520.544	22.26
520.743	22.38
520.942	22.38
521.141	22.44
521.339	22.53
521.538	22.44
521.737	22.5
521.936	22.62
522.135	22.62
522.333	22.64
522.532	22.66
522.731	22.68
522.93	22.6
523.129	22.7
523.327	22.67
523.526	22.61
523.725	22.63
523.923	22.59
524.122	22.57
524.321	22.55
524.519	22.56
524.718	22.62
524.917	22.66
525.115	22.68
525.314	22.64
525.512	22.63
525.711	22.62
525.909	22.63
526.108	22.62
526.306	22.65
526.505	22.72
526.703	22.72
526.902	22.68
527.1	22.65
527.299	22.67
527.497	22.68
527.696	22.68
527.894	22.7
528.092	22.63
528.291	22.62
528.489	22.59
528.688	22.55
528.886	22.54
529.084	22.52
529.283	22.51
529.481	22.43
529.679	22.37
529.877	22.39
530.076	22.38
530.274	22.44
530.472	22.4
530.67	22.42
530.869	22.45
531.067	22.41
531.265	22.43
531.463	22.47
531.661	22.54
531.859	22.55
532.057	22.62
532.255	22.6
532.454	22.61
532.652	22.64
532.85	22.62
533.048	22.59
533.246	22.61
533.444	22.6
533.642	22.6
533.84	22.52
534.038	22.55
534.236	22.41
534.434	22.4
534.632	22.37
534.83	22.44
535.027	22.4
535.225	22.46
535.423	22.51
535.621	22.56
535.819	22.57
536.017	22.67
536.215	22.67
536.412	22.78
536.61	22.85
536.808	22.77
537.006	22.73
537.203	22.8
537.401	22.76
537.599	22.71
537.797	22.67
537.994	22.65
538.192	22.75
538.39	22.82
538.587	22.83
538.785	22.84
538.983	23.02
539.18	23.11
539.378	23.16
539.575	23.22
539.773	23.27
539.97	23.38
540.168	23.43
540.366	23.45
540.563	23.52
540.761	23.54
540.958	23.48
541.155	23.46
541.353	23.46
541.55	23.48
541.748	23.43
541.945	23.39
542.143	23.3
542.34	23.3
542.537	23.29
542.735	23.2
542.932	23.2
543.129	23.25
543.327	23.33
543.524	23.28
543.721	23.27
543.919	23.34
544.116	23.43
544.313	23.54
544.51	23.61
544.708	23.63
544.905	23.73
545.102	23.86
545.299	23.89
545.496	23.85
545.693	23.96
545.891	23.98
546.088	24.04
546.285	24.09
546.482	24.1
546.679	24.04
546.876	24.04
547.073	23.98
547.27	23.87
547.467	23.85
547.664	23.81
547.861	23.76
548.058	23.81
548.255	23.7
548.452	23.57
548.649	23.45
548.846	23.39
549.043	23.29
549.24	23.27
549.437	23.27
549.633	23.3
549.83	23.37
550.027	23.31
550.224	23.2
550.421	23.34
550.618	23.39
550.814	23.46
551.011	23.49
551.208	23.56
551.405	23.58
551.601	23.62
551.798	23.53
551.995	23.55
552.191	23.64
552.388	23.63
552.585	23.59
552.781	23.63
552.978	23.72
553.175	23.82
553.371	23.75
553.568	23.76
553.764	23.69
553.961	23.69
554.157	23.63
554.354	23.58
554.55	23.7
554.747	23.73
554.943	23.82
555.14	23.71
555.336	23.57
555.533	23.65
555.729	23.7
555.926	23.65
556.122	23.71
556.318	23.8
556.515	23.76
556.711	23.69
556.907	23.61
557.104	23.41
557.3	23.52
557.496	23.46
557.693	23.34
557.889	23.45
558.085	23.51
558.281	23.57
558.478	23.49
558.674	23.49
558.87	23.42
559.066	23.41
559.262	23.51
559.459	23.59
559.655	23.87
559.851	24
560.047	23.86
560.243	23.94
560.439	23.92
560.635	23.96
560.831	24.14
561.027	24.29
561.223	24.33
561.419	24.39
561.615	24.25
561.811	24.16
562.007	24.17
562.203	24.1
562.399	24.12
562.595	24.08
562.791	23.99
562.987	23.87
563.183	23.77
563.379	23.77
563.575	23.72
563.771	23.8
563.966	23.81
564.162	23.74
564.358	23.88
564.554	23.84
564.75	23.84
564.945	23.84
565.141	23.92
565.337	23.91
565.533	23.81
565.728	23.86
565.924	23.86
566.12	23.89
566.315	24.01
566.511	23.93
566.707	23.92
566.902	23.91
567.098	23.97
567.293	23.9
567.489	23.94
567.684	24.09
567.88	24.06
568.076	24.08
568.271	24.07
568.467	24.1
568.662	24.21
568.858	24.21
569.053	24.29
569.248	24.39
569.444	24.38
569.639	24.47
569.835	24.46
570.03	24.5
570.225	24.42
570.421	24.41
570.616	24.42
570.812	24.45
571.007	24.42
571.202	24.38
571.397	24.35
571.593	24.4
571.788	24.34
571.983	24.27
572.178	24.32
572.374	24.38
572.569	24.29
572.764	24.18
572.959	24.08
573.154	24.14
573.35	24.19
573.545	24.29
573.74	24.33
573.935	24.32
574.13	24.42
574.325	24.35
574.52	24.38
574.715	24.47
574.91	24.49
575.105	24.54
575.3	24.65
575.495	24.71
575.69	24.64
575.885	24.6
576.08	24.74
576.275	24.83
576.47	24.89
576.665	24.9
576.86	24.98
577.055	25.07
577.25	25.1
577.444	25.06
577.639	25.06
577.834	25.02
578.029	24.98
578.224	24.88
578.418	24.89
578.613	24.85
578.808	24.96
579.003	24.89
579.197	24.78
579.392	24.67
579.587	24.73
579.781	24.75
579.976	24.92
580.171	25.06
580.365	25.13
580.56	25.1
580.755	25.12
580.949	25.03
581.144	25
581.338	25.26
581.533	25.41
581.727	25.37
581.922	25.41
582.116	25.21
582.311	25.2
582.505	25.34
582.7	25.41
582.894	25.47
583.089	25.69
583.283	25.97
583.478	25.91
583.672	26.04
583.866	26.18
584.061	26.36
584.255	26.55
584.449	26.59
584.644	26.62
584.838	26.6
585.032	26.72
585.226	26.69
585.421	26.64
585.615	26.72
585.809	26.89
586.003	26.85
586.198	26.76
586.392	26.66
586.586	26.77
586.78	26.77
586.974	26.84
587.168	26.8
587.363	26.81
587.557	26.74
587.751	26.61
587.945	26.35
588.139	26.32
588.333	26.33
588.527	26.47
588.721	26.5
588.915	26.42
589.109	26.29
589.303	26.36
589.497	26.27
589.691	26.18
589.885	26.3
590.079	26.44
590.273	26.49
590.466	26.58
590.66	26.47
590.854	26.46
591.048	26.51
591.242	26.57
591.436	26.65
591.629	26.75
591.823	27.05
592.017	27.22
592.211	27.33
592.404	27.27
592.598	27.14
592.792	27.23
592.986	27.25
593.179	27.21
593.373	27.29
593.567	27.19
593.76	27.32
593.954	27.22
594.147	27.13
594.341	27.01
594.535	27.07
594.728	27.21
594.922	27.32
595.115	27.28
595.309	27.41
595.502	27.49
595.696	27.6
595.889	27.48
596.083	27.51
596.276	27.43
596.47	27.52
596.663	27.61
596.856	27.6
597.05	27.63
597.243	27.67
597.437	27.66
597.63	27.66
597.823	27.55
598.017	27.7
598.21	27.69
598.403	27.85
598.596	27.95
598.79	27.93
598.983	27.96
599.176	27.8
599.369	27.76
599.563	27.7
599.756	27.62
599.949	27.79
600.142	27.68
600.335	27.78
600.528	27.75
600.722	27.6
600.915	27.72
601.108	27.67
601.301	28.02
601.494	28.19
601.687	28.38
601.88	28.55
602.073	28.65
602.266	28.76
602.459	28.9
602.652	28.9
602.845	29.03
603.038	28.96
603.231	28.91
603.424	28.81
603.617	28.78
603.809	28.7
604.002	28.69
604.195	28.61
604.388	28.52
604.581	28.32
604.774	28.29
604.966	28.27
605.159	28.3
605.352	28.37
605.545	28.28
605.737	28.24
605.93	28.13
606.123	28.15
606.316	28.19
606.508	28.2
606.701	28.27
606.894	28.47
607.086	28.44
607.279	28.55
607.471	28.82
607.664	28.94
607.857	29.17
608.049	29.49
608.242	29.71
608.434	29.92
608.627	30.38
608.819	30.72
609.012	31.17
609.204	31.61
609.397	32.06
609.589	32.54
609.782	33.13
609.974	33.63
610.166	34.07
610.359	34.49
610.551	34.87
610.743	35.22
610.936	35.53
611.128	35.74
611.32	36.05
611.513	36.04
611.705	35.91
611.897	35.88
612.09	35.71
612.282	35.64
612.474	35.43
612.666	35.45
612.858	35.32
613.051	35.33
613.243	35.12
613.435	34.8
613.627	34.76
613.819	34.59
614.011	34.61
614.203	34.41
614.395	34.22
614.588	34.29
614.78	33.98
614.972	33.56
615.164	33.15
615.356	32.93
615.548	32.78
615.74	32.45
615.932	32.23
616.124	31.89
616.315	31.92
616.507	31.61
616.699	31.33
616.891	31.3
617.083	31.31
617.275	31.34
617.467	31.15
617.659	31.07
617.85	31.36
618.042	31.56
618.234	31.47
618.426	31.3
618.618	31.58
618.809	31.46
619.001	31.54
619.193	31.56
619.384	31.56
619.576	31.73
619.768	31.85
619.959	31.54
620.151	31.46
620.343	31.59
620.534	31.73
620.726	31.78
620.917	31.78
621.109	31.61
621.301	31.61
621.492	31.61
621.684	31.66
621.875	31.63
622.067	31.89
622.258	31.91
622.45	31.95
622.641	32.05
622.832	32.14
623.024	32.35
623.215	32.62
623.407	32.53
623.598	32.8
623.789	32.93
623.981	32.99
624.172	32.89
624.363	32.97
624.555	32.81
624.746	32.82
624.937	32.67
625.129	32.6
625.32	32.5
625.511	32.67
625.702	32.49
625.893	32.29
626.085	32.19
626.276	32.16
626.467	32.07
626.658	32.23
626.849	32.16
627.04	32.17
627.231	32.28
627.422	32.2
627.614	32.1
627.805	32.01
627.996	32.01
628.187	32.05
628.378	32.22
628.569	32.3
628.76	32.19
628.951	32.22
629.142	32.41
629.332	32.43
629.523	32.63
629.714	32.83
629.905	33.05
630.096	33.08
630.287	33.21
630.478	33.15
630.669	33.02
630.859	33.21
631.05	33.19
631.241	33.1
631.432	33.16
631.623	32.99
631.813	32.93
632.004	32.99
632.195	33.11
632.385	32.8
632.576	32.8
632.767	32.89
632.957	32.99
633.148	33
633.339	32.83
633.529	32.71
633.72	32.69
633.91	32.48
634.101	32.27
634.292	32.17
634.482	32.39
634.673	32.19
634.863	32.21
635.054	31.93
635.244	31.98
635.435	32.07
635.625	32.04
635.815	32
636.006	32.26
636.196	32.47
636.387	32.48
636.577	32.65
636.767	32.78
636.958	32.73
637.148	32.85
637.338	32.65
637.529	32.67
637.719	32.68
637.909	32.7
638.099	32.73
638.29	32.54
638.48	32.59
638.67	32.27
638.86	32.24
639.05	32.31
639.241	32.24
639.431	32.65
639.621	32.65
639.811	32.69
640.001	32.77
640.191	32.83
640.381	33.05
640.571	33.21
640.761	33.32
640.951	33.45
641.141	33.45
641.331	33.55
641.521	33.19
641.711	33.13
641.901	33.11
642.091	33.03
642.281	32.9
642.471	32.71
642.661	32.66
642.851	32.79
643.041	32.82
643.231	33.01
643.42	33.15
643.61	33.58
643.8	33.62
643.99	33.98
644.18	34.12
644.369	34.11
644.559	34.26
644.749	33.99
644.939	33.82
645.128	33.97
645.318	33.81
645.508	33.71
645.697	33.48
645.887	33.45
646.076	32.97
646.266	33.1
646.456	33.05
646.645	33.09
646.835	33.39
647.024	33.5
647.214	33.52
647.403	33.65
647.593	33.83
647.782	33.95
647.972	34.22
648.161	34.53
648.351	34.52
648.54	34.78
648.73	34.66
648.919	34.36
649.108	34.35
649.298	34.45
649.487	34.56
649.677	34.27
649.866	34.09
650.055	33.97
650.244	33.82
650.434	33.86
650.623	33.73
650.812	33.9
651.002	33.88
651.191	33.99
651.38	33.79
651.569	33.76
651.758	33.86
651.947	33.71
652.137	33.6
652.326	33.96
652.515	33.87
652.704	34.01
652.893	33.97
653.082	34.22
653.271	34.25
653.46	34.27
653.649	34.42
653.838	34.75
654.027	35.03
654.216	35.15
654.405	35.04
654.594	35.16
654.783	35.15
654.972	35.19
655.161	35.18
655.35	35.1
655.539	35.11
655.728	34.89
655.916	34.62
656.105	34.73
656.294	34.98
656.483	34.67
656.672	34.74
656.86	34.55
657.049	34.69
657.238	34.86
657.427	35.13
657.615	35.08
657.804	35.17
657.993	35.47
658.181	35.46
658.37	35.26
658.559	35.49
658.747	35.37
658.936	35.63
659.125	35.39
659.313	35.29
659.502	35.2
659.69	35.37
659.879	35.41
660.067	35.04
660.256	35.06
660.444	35.21
660.633	35.22
660.821	35.21
661.01	34.94
661.198	35.23
661.387	35.17
661.575	34.99
661.763	34.89
661.952	34.85
662.14	35.12
662.328	35.25
662.517	35.2
662.705	35.25
662.893	35.2
663.082	35.52
663.27	35.39
663.458	35.49
663.646	35.93
663.834	36
664.023	35.97
664.211	35.93
664.399	35.97
664.587	36.23
664.775	36.26
664.963	36.5
665.152	36.26
665.34	36.29
665.528	36.57
665.716	36.45
665.904	36.48
666.092	36.37
666.28	36.65
666.468	36.41
666.656	35.93
666.844	36.07
667.032	35.83
667.22	35.94
667.408	36.15
667.596	35.96
667.784	35.65
667.971	35.62
668.159	35.68
668.347	35.5
668.535	35.48
668.723	35.82
668.911	35.9
669.098	36.24
669.286	36.44
669.474	36.06
669.662	36.07
669.849	36.29
670.037	36.27
670.225	36.16
670.413	36.05
670.6	36.13
670.788	35.85
670.976	35.52
671.163	35.43
671.351	35.19
671.538	35.53
671.726	35.73
671.913	35.68
672.101	35.58
672.289	35.96
672.476	36.08
672.664	36.24
672.851	36.61
673.039	36.95
673.226	37.12
673.413	37.06
673.601	36.9
673.788	36.97
673.976	37.21
674.163	37.54
674.35	37.26
674.538	37.02
674.725	37.07
674.912	36.98
675.1	36.54
675.287	36.32
675.474	36.52
675.662	36.75
675.849	36.46
676.036	36.43
676.223	36.36
676.411	36.32
676.598	36.77
676.785	36.24
676.972	36.12
677.159	36.34
677.346	36.27
677.533	36.38
677.721	36.22
677.908	36.4
678.095	36.2
678.282	36.44
678.469	36.5
678.656	36.5
678.843	36.95
679.03	37.1
679.217	37.14
679.404	37.11
679.591	37.19
679.778	37.23
679.964	37.26
680.151	37.31
680.338	37.12
680.525	37.07
680.712	36.83
680.899	36.89
681.086	36.88
681.272	36.96
681.459	37.11
681.646	36.75
681.833	36.94
682.02	36.96
682.206	36.87
682.393	36.77
682.58	37.14
682.766	37.43
682.953	37.42
683.14	37.54
683.326	37.51
683.513	37.49
683.7	37.63
683.886	37.47
684.073	37.18
684.259	37.36
684.446	37.53
684.632	37.52
684.819	37.32
685.005	37.45
685.192	37.64
685.378	37.55
685.565	37.77
685.751	37.7
685.938	37.47
686.124	37.77
686.31	38.1
686.497	38.07
686.683	38.11
686.87	38.22
687.056	37.89
687.242	37.71
687.429	37.75
687.615	37.62
687.801	37.82
687.987	38.07
688.174	38.09
688.36	37.95
688.546	38.07
688.732	37.81
688.918	38.06
689.105	38.26
689.291	38.2
689.477	37.96
689.663	37.86
689.849	37.85
690.035	37.73
690.221	37.6
690.407	37.36
690.593	36.95
690.779	37.33
690.965	36.77
691.151	36.86
691.337	37.01
691.523	37.72
691.709	37.96
691.895	38.43
692.081	38.65
692.267	38.83
692.453	39.07
692.639	39.57
692.825	39.49
693.011	39.72
693.196	39.51
693.382	39.43
693.568	39.06
693.754	39.06
693.94	38.07
694.125	38.32
694.311	38.25
694.497	38.09
694.682	37.93
694.868	37.78
695.054	37.87
695.239	38.15
695.425	38.07
695.611	38.01
695.796	38.09
695.982	38.49
696.168	38.18
696.353	38.24
696.539	38.31
696.724	38.15
696.91	38.36
697.095	38.54
697.281	38.26
697.466	38.54
697.652	38.67
697.837	38.72
698.023	38.72
698.208	38.51
698.393	38.65
698.579	38.82
698.764	38.99
698.949	38.91
699.135	38.76
699.32	38.79
699.505	38.46
699.691	38.37
699.876	38.02
700.061	38.14
700.246	38.49
700.432	38.3
700.617	38.18
700.802	37.73
700.987	37.64
701.172	37.54
701.358	37.7
701.543	37.82
701.728	37.85
701.913	37.81
702.098	37.65
702.283	37.58
702.468	37.41
702.653	37.26
702.838	37.91
703.023	38.06
703.208	38.34
703.393	38.18
703.578	38.59
703.763	38.59
703.948	39.29
704.133	39.61
704.318	39.79
704.503	40.5
704.688	40.8
704.873	41.07
705.057	41.22
705.242	41.56
705.427	41.89
705.612	41.55
705.797	42.03
705.981	41.74
706.166	42.16
706.351	42.41
706.536	42.51
706.72	42.71
706.905	42.62
707.09	42.43
707.274	41.99
707.459	42.13
707.644	42.22
707.828	41.88
708.013	42.27
708.197	41.81
708.382	41.61
708.567	40.97
708.751	40.3
708.936	40.08
709.12	40.48
709.305	40.38
709.489	40.32
709.673	40.44
709.858	40.36
710.042	40.31
710.227	40.49
710.411	40.3
710.596	40.56
710.78	41.07
710.964	41.06
711.149	40.9
711.333	41.15
711.517	41.1
711.702	41.04
711.886	41.45
712.07	41.61
712.254	41.5
712.438	41.27
712.623	41.24
712.807	40.99
712.991	40.95
713.175	41.06
713.359	40.66
713.544	40.4
713.728	40.17
713.912	39.9
714.096	39.52
714.28	39.42
714.464	39.73
714.648	39.72
714.832	39.84
715.016	39.89
715.2	39.6
715.384	39.93
715.568	39.83
715.752	40.08
715.936	40.1
716.12	39.8
716.304	40.1
716.488	39.79
716.671	39.62
716.855	39.73
717.039	39.56
717.223	39.25
717.407	39.21
717.59	39.02
717.774	38.99
717.958	38.93
718.142	38.95
718.325	38.54
718.509	38.8
718.693	39.29
718.877	39.1
719.06	39.07
719.244	38.97
719.428	39.07
719.611	39.88
719.795	39.92
719.978	39.59
720.162	39.97
720.345	39.95
720.529	39.72
720.713	39.09
720.896	39.4
721.08	39.55
721.263	39.65
721.446	39.87
721.63	39.17
721.813	38.39
721.997	38.4
722.18	38.29
722.364	38.22
722.547	38.47
722.73	38.95
722.914	38.57
723.097	39.04
723.28	39.42
723.464	39.33
723.647	40.11
723.83	40.81
724.013	40.93
724.197	40.96
724.38	41.12
724.563	40.72
724.746	40.55
724.929	40.68
725.112	39.95
725.296	40.08
725.479	39.97
725.662	39.44
725.845	39.25
726.028	39.5
726.211	39.39
726.394	39.06
726.577	39.2
726.76	39.4
726.943	39.43
727.126	39.26
727.309	38.71
727.492	38.77
727.675	39
727.858	39.04
728.041	38.96
728.224	39.13
728.407	39.51
728.589	39.53
728.772	39.05
728.955	39.03
729.138	39.25
729.321	39.55
729.503	39.26
729.686	39.09
729.869	39.23
730.052	39.2
730.234	39.22
730.417	39.24
730.6	39.28
730.782	39.59
730.965	39.87
731.148	39.85
731.33	40.37
731.513	40.19
731.695	40.16
731.878	40.42
732.061	40.34
732.243	40.48
732.426	40.7
732.608	40.7
732.791	40.58
732.973	40.33
733.156	40.5
733.338	40.11
733.52	40.26
733.703	40.26
733.885	40.15
734.068	40.15
734.25	40.34
734.432	40.2
734.615	40.73
734.797	40.78
734.979	41.16
735.162	40.63
735.344	40.56
735.526	41.07
735.708	41.05
735.891	41.14
736.073	41.06
736.255	40.88
736.437	40.6
736.619	40
736.802	40.25
736.984	39.83
737.166	40.52
737.348	40.47
737.53	40.11
737.712	40.43
737.894	39.86
738.076	39.49
738.258	39.3
738.44	39.18
738.622	39.34
738.804	39.44
738.986	39.33
739.168	39.58
739.35	39.52
739.532	39.64
739.714	39.79
739.896	40.61
740.078	41.23
740.259	41
740.441	41.25
740.623	41.56
740.805	41.43
740.987	41.54
741.168	41.68
741.35	41.92
741.532	41.9
741.714	41.36
741.895	40.89
742.077	41.3
742.259	41.49
742.44	41.86
742.622	41.69
742.804	41.29
742.985	40.82
743.167	40.56
743.348	40.56
743.53	40.33
743.711	40.55
743.893	40.08
744.075	39.13
744.256	39.2
744.438	39.46
744.619	39.29
744.8	39.43
744.982	39.85
745.163	39.61
745.345	39.98
745.526	40.26
745.707	40.25
745.889	40.74
746.07	40.79
746.252	40.9
746.433	39.44
746.614	39.24
746.795	38.94
746.977	39.25
747.158	39.64
747.339	39.41
747.52	39.38
747.702	39.93
747.883	39.74
748.064	40.01
748.245	39.82
748.426	40.87
748.607	40.72
748.788	41.03
748.97	40.82
749.151	39.97
749.332	39.71
749.513	39.48
749.694	38.47
749.875	37.89
750.056	38.51
750.237	38.68
750.418	38.81
750.599	39.22
750.78	38.71
750.96	39.4
751.141	39.27
751.322	39.39
751.503	39.32
751.684	39.86
751.865	41.26
752.046	41.39
752.226	41.69
752.407	41.76
752.588	42.1
752.769	42.72
752.949	42.15
753.13	42.9
753.311	42.47
753.492	42.38
753.672	42.41
753.853	41
754.034	40.47
754.214	40.08
754.395	40.12
754.575	39.72
754.756	39.74
754.937	39.59
755.117	39.78
755.298	39.57
755.478	40.43
755.659	40.75
755.839	41.15
756.02	41.26
756.2	41.23
756.381	41.24
756.561	41.03
756.741	41.17
756.922	41.17
757.102	40.09
757.283	40.06
757.463	39.93
757.643	39.54
757.823	40.24
758.004	40.09
758.184	39.66
758.364	38.88
758.545	38.89
758.725	38.65
758.905	38.77
759.085	38.93
759.265	39.16
759.446	38.98
759.626	38.97
759.806	38.61
759.986	38.64
760.166	38.39
760.346	38.41
760.526	38.54
760.706	37.93
760.886	37.41
761.066	37.85
761.246	38.62
761.426	37.99
761.606	37.46
761.786	37.24
761.966	37.03
762.146	36.97
762.326	37.65
762.506	37.74
762.686	38.1
762.866	37.72
763.046	37.89
763.225	37.36
763.405	37.49
763.585	37.93
763.765	38.01
763.945	37.93
764.124	38.37
764.304	38.24
764.484	37.78
764.664	37.67
764.843	38.09
765.023	37.55
765.203	37.62
765.382	37.37
765.562	37.51
765.741	37.45
765.921	37.46
766.101	37.58
766.28	36.84
766.46	36.94
766.639	37.48
766.819	37.78
766.998	38.44
767.178	38.34
767.357	38.56
767.537	38.1
767.716	38.2
767.896	37.92
768.075	38.24
768.254	39.14
768.434	39.8
768.613	39.27
768.792	39.32
768.972	38.78
769.151	39
769.33	39.39
769.51	39.87
769.689	39.11
769.868	39.31
770.047	38.75
770.226	38.23
770.406	38.68
770.585	38.72
770.764	38.05
770.943	38.26
771.122	38.5
771.301	38.64
771.48	38.46
771.66	39.37
771.839	39.47
772.018	39.07
772.197	39.48
772.376	38.81
772.555	39.1
772.734	39.55
772.913	40.23
773.092	39.19
773.271	38.66
773.449	38.06
773.628	38.43
773.807	39.31
773.986	40.22
774.165	40.53
774.344	40.64
774.523	40.32
774.701	40.32
774.88	40.93
775.059	41.75
775.238	42.18
775.417	42.56
775.595	42.16
775.774	41.71
775.953	41.44
776.131	41.35
776.31	41.56
776.489	41.01
776.667	41.68
776.846	40.18
777.025	39.84
777.203	38.56
777.382	40.11
777.56	40.66
777.739	40.82
777.917	39.66
778.096	39.5
778.274	38.79
778.453	39.89
778.631	38.56
778.81	37.79
778.988	38.95
779.166	41
779.345	39.68
779.523	39.42
779.702	38.77
779.88	40.23
780.058	39.52
780.237	40.69
780.415	41.03
780.593	41.11
780.771	42.08
780.95	41.77
781.128	40.11
781.306	39.48
781.484	39.27
781.662	40.04
781.841	41.04
782.019	40.95
782.197	39.07
782.375	38.15
782.553	39.24
782.731	39.6
782.909	38.88
783.087	40.11
783.265	40.92
783.443	41.39
783.621	41.27
783.799	40.21
783.977	41.26
784.155	42.16
784.333	42.64
784.511	42.01
784.689	41.13
784.867	41.34
785.045	40.17
785.223	39.03
785.4	37.51
785.578	37.77
785.756	37.71
785.934	37.78
786.112	37.8
786.289	37.97
786.467	38.17
786.645	39.51
786.823	39.39
787	39.58
787.178	39.53
787.356	39.67
787.533	38.03
787.711	37.91
787.889	36.31
788.066	36.5
788.244	35.38
788.421	35.35
788.599	34.81
788.776	34.32
788.954	34.26
789.131	36.07
789.309	36.97
789.486	37.73
789.664	37.5
789.841	38.23
790.019	37.77
790.196	38.63
790.373	38.69
790.551	38.9
790.728	40.46
790.906	40.75
791.083	39.47
791.26	39.54
791.437	39.98
791.615	40.12
791.792	40.38
791.969	40.97
792.146	40.54
792.324	40.48
792.501	39.8
792.678	38.92
792.855	39.01
793.032	38.95
793.209	37.37
793.387	37.15
793.564	36.77
793.741	36.71
793.918	36.64
794.095	36.36
794.272	37.07
794.449	37.41
794.626	37.26
794.803	38.45
794.98	37.92
795.157	38.74
795.334	37.78
795.511	37.68
795.688	37.88
795.864	37.68
796.041	38.52
796.218	38.19
796.395	38.29
796.572	38.58
796.749	36.72
796.925	37.33
797.102	37.32
797.279	37.81
797.456	38.15
797.632	37.57
797.809	37.12
797.986	36.96
798.162	36.66
798.339	36.25
798.516	35.63
798.692	35.75
798.869	34.65
799.046	35.35
799.222	35.05
799.399	35.64
799.575	35.56
799.752	36.69
799.928	36
800.105	35.99
800.281	36.67
800.458	36.98
800.634	37.22
800.811	37.58
800.987	36.61
801.163	36.82
801.34	36.27
801.516	36.96
801.692	36.99
801.869	37.78
802.045	38.16
802.221	37.27
802.398	37.8
802.574	39.38
802.75	40.5
802.926	41.01
803.103	41.33
803.279	40.3
803.455	40.83
803.631	40.9
803.807	40.64
803.983	40.11
804.16	40.62
804.336	39.19
804.512	37.85
804.688	37.65
804.864	37.35
805.04	39.26
805.216	41.17
805.392	40.45
805.568	39.12
805.744	39.18
805.92	39.06
806.096	39.23
806.272	39.91
806.448	39.78
806.623	40.44
806.799	40.82
806.975	40.12
807.151	40.69
807.327	40.22
807.503	41.17
807.678	41.64
807.854	41.53
808.03	42.47
808.206	42.52
808.381	42.52
808.557	41.06
808.733	40.34
808.908	39.13
809.084	38.18
809.26	37.34
809.435	37.28
809.611	35.97
809.787	36.91
809.962	35.44
810.138	35.38
810.313	34.61
810.489	34.97
810.664	35.04
810.84	34.19
811.015	33.58
811.191	36.42
811.366	36.02
811.542	37.49
811.717	37.21
811.892	37.36
812.068	37.9
812.243	39.38
812.419	38.55
812.594	38.41
812.769	39.85
812.944	40.25
813.12	37.35
813.295	37.93
813.47	37.1
813.645	35.9
813.821	35.02
813.996	34.51
814.171	32.21
814.346	33.02
814.521	33.16
814.697	31.82
814.872	30.6
815.047	31.41
815.222	30.3
815.397	30.4
815.572	30.9
815.747	32.15
815.922	31.46
816.097	32.66
816.272	32.67
816.447	33.74
816.622	34.77
816.797	34.93
816.972	35.96
817.147	35.43
817.322	34.78
817.496	35.55
817.671	35.06
817.846	34.9
818.021	34.87
818.196	34.68
818.371	33.01
818.545	32.45
818.72	33.37
818.895	33.09
819.069	34.34
819.244	34.38
819.419	32.64
819.594	32.38
819.768	32.17
819.943	31.65
820.117	31.87
820.292	32.35
820.467	32.73
820.641	32.28
820.816	31.59
820.99	31.31
821.165	31.51
821.339	31.51
821.514	31.5
821.688	31.39
821.863	31.18
822.037	30.95
822.212	30.72
822.386	30.23
822.56	29.85
822.735	29.93
822.909	29.89
823.084	29.71
823.258	29.61
823.432	29.51
823.606	29.2
823.781	29.24
823.955	29.21
824.129	29.23
824.303	29.3
824.478	29.52
824.652	29.53
824.826	29.62
825	29.16
825.174	29.75
825.348	29.8
825.523	30.03
825.697	30.13
825.871	30.15
826.045	30.47
826.219	30.84
826.393	30.46
826.567	30.68
826.741	30.6
826.915	30.49
827.089	29.92
827.263	29.88
827.437	30.02
827.611	29.8
827.784	30.28
827.958	30.03
828.132	29.95
828.306	30.41
828.48	30.43
828.654	30.07
828.827	30.87
829.001	30.87
829.175	30.79
829.349	31.2
829.522	31.82
829.696	31.49
829.87	31.23
830.044	30.49
830.217	30.28
830.391	28.12
830.565	27.95
830.738	27.86
830.912	27.39
831.085	27.24
831.259	27.52
831.432	26.64
831.606	26.2
831.779	26.71
831.953	28.32
832.126	29.9
832.3	31.1
832.473	31.84
832.647	30.69
832.82	31.07
832.994	31.3
833.167	31.25
833.34	31.82
833.514	31.6
833.687	32
833.86	31.52
834.034	31.19
834.207	31.59
834.38	30.98
834.553	30.98
834.727	30.14
834.9	30.04
835.073	29.54
835.246	29
835.419	29.09
835.593	27.75
835.766	27.5
835.939	26.82
836.112	25.84
836.285	25.32
836.458	27.46
836.631	28.77
836.804	29.17
836.977	29.6
837.15	30.87
837.323	30.79
837.496	32.16
837.669	34.04
837.842	34.89
838.015	35.68
838.188	36.63
838.361	33.02
838.533	33.45
838.706	32.19
838.879	32.98
839.052	31.84
839.225	31.79
839.398	31.81
839.57	30.72
839.743	31.49
839.916	34.08
840.088	35.12
840.261	37.28
840.434	38.54
840.607	38.65
840.779	37.08
840.952	38.03
841.124	38.78
841.297	38.82
841.47	38.65
841.642	38.85
841.815	36.55
841.987	35.53
842.16	35.17
842.332	34.19
842.505	37.32
842.677	38.84
842.85	37.41
843.022	35.67
843.194	36.41
843.367	39.77
843.539	39.37
843.712	40.87
843.884	39.91
844.056	41.09
844.229	41.57
844.401	38.55
844.573	38.4
844.745	39.27
844.918	38.11
845.09	38.25
845.262	33.33
845.434	32.37
845.606	33.66
845.779	34.65
845.951	34.73
846.123	34.8
846.295	37.91
846.467	39.29
846.639	38.13
846.811	42.96
846.983	45.89
847.155	50.38
847.327	47.65
847.499	42.04
847.671	45.45
847.843	43.94
848.015	43.51
848.187	38.55
848.359	40.39
848.531	42.92
848.703	43.79
848.875	43.21
849.047	38.26
849.218	38.85
849.39	44.57
849.562	43.46
849.734	42.07
849.905	42.21
850.077	44.06
850.249	41.41
850.421	39.72
850.592	39.86
850.764	36.32
850.936	40.37
851.107	42.98
851.279	42.73
851.451	44.87
851.622	47.59
851.794	46.07
851.965	46.35
852.137	47
852.308	44.34
852.48	43.88
852.651	45.7
852.823	44.85
852.994	42.01
853.166	38.15
853.337	35.56
853.509	32.02
853.68	34.32
853.851	33.48
854.023	31.38
854.194	36.12
854.365	35.51
854.537	31.96
854.708	31.58
854.879	34.92
855.05	37.05
855.222	37.89
855.393	40.33
855.564	39.94
855.735	40.42
855.906	44.71
856.078	42.82
856.249	43.36
856.42	47.96
856.591	45.36
856.762	41.76
856.933	41.47
857.104	39.02
857.275	40.11
857.446	40.62
857.617	42.13
857.788	41.25
857.959	45.38
858.13	45.86
858.301	42.51
858.472	49.16
858.643	53.68
858.814	56.26
858.985	57.11
859.155	55.37
859.326	55.46
859.497	50.29
859.668	50.27
859.839	45.15
860.009	45.44
860.18	45.01
860.351	37.11
860.522	38.32
860.692	37.12
860.863	35.56
861.034	32.24
861.204	32.64
861.375	30.81
861.546	29.11
861.716	29.61
861.887	25.81
862.057	31.23
862.228	35.62
862.398	33.26
862.569	32.43
862.739	31.55
862.91	32.52
863.08	31.15
863.251	36.88
863.421	35.37
863.592	39.15
863.762	41.09
863.932	37.86
864.103	37.2
864.273	41.59
864.443	39.61
864.614	36.84
864.784	37.04
864.954	39.05
865.125	42.73
865.295	39.39
865.465	37.45
865.635	41.04
865.805	42.33
865.976	42.68
866.146	39.96
866.316	41.26
866.486	52.33
866.656	52.38
866.826	49.1
866.996	44.08
867.166	46.62
867.336	53.02
867.506	45.91
867.676	42.29
867.846	47.46
868.016	47.15
868.186	49.42
868.356	48.21
868.526	48.04
868.696	50.57
868.866	52.14
869.036	54.72
869.206	49.23
869.376	52.31
869.545	57.52
869.715	57.09
869.885	59.46
870.055	58.37
870.224	54
870.394	51.19
870.564	50.61
870.734	50.1
870.903	46.66
871.073	41.2
871.243	46.13
871.412	50.39
871.582	45.43
871.751	38.29
871.921	36.89
872.091	35.16
872.26	39.57
872.43	39.29
872.599	38.88
872.769	39.74
872.938	43.8
873.108	36.33
873.277	31.13
873.446	31.24
873.616	33.15
873.785	35.33
873.955	38.98
874.124	39.13
874.293	38.97
874.463	34.47
874.632	37.94
874.801	37.58
874.971	42.16
875.14	42.78
875.309	38.61
875.478	40.14
875.647	40.37
875.817	41.54
875.986	39.61
876.155	36.87
876.324	38.3
876.493	35.78
876.662	37.58
876.831	36.36
877	37.28
877.17	45.33
877.339	43.99
877.508	39.12
877.677	34.65
877.846	37.77
878.015	39.04
878.184	40.64
878.352	40.67
878.521	37.73
878.69	36.63
878.859	31.56
879.028	25.79
879.197	23.28
879.366	28.79
879.534	30.69
879.703	31.24
879.872	30.37
880.041	30.89
880.21	27.63
880.378	27.41
880.547	28.38
880.716	28
880.884	28.32
881.053	28.92
881.222	27.05
881.39	25.9
881.559	24.71
881.727	25.17
881.896	23.98
882.065	24.21
882.233	24.15
882.402	23.18
882.57	24.1
882.739	23.37
882.907	22.78
883.076	22.95
883.244	22.85
883.412	22.81
883.581	22.79
883.749	22.58
883.918	22.8
884.086	22.58
884.254	22.18
884.423	20.97
884.591	21.22
884.759	21.55
884.927	21.13
885.096	21.82
885.264	23.49
885.432	22.38
885.6	25.48
885.769	25.28
885.937	27.32
886.105	30.2
886.273	32.22
886.441	34
886.609	35.83
886.777	38.44
886.945	40.19
887.113	38.84
887.281	39.62
887.449	37.91
887.617	37.56
887.785	35.1
887.953	35.67
888.121	35.55
888.289	37.33
888.457	35.35
888.625	36.63
888.793	37.55
888.961	36.56
889.129	38.2
889.296	35.96
889.464	40.1
889.632	42.64
889.8	41.42
889.967	41.07
890.135	36.07
