Data from 2938812__Reflection_05.txt Node
Date: Thu Mar 12 16:51:52 EDT 2015
User: robert
Spectrometer: USB4E03002
Autoset integration time: false
Trigger mode: 4
Integration Time (sec): 1.000000E-1
Scans to average: 10
Electric dark correction enabled: false
Nonlinearity correction enabled: false
Boxcar width: 5
Stray light correction enabled: false
XAxis mode: Wavelengths
Stop averaging: false
Number of Pixels in Spectrum: 3648
>>>>>Begin Spectral Data<<<<<
177.575	-135.9
177.794	-416.05
178.014	1016.67
178.233	-1966.67
178.452	-9450
178.672	-1038.46
178.891	301.43
179.11	-61.11
179.33	-196.33
179.549	-289.13
179.768	-44.08
179.987	46.6
180.207	-55.56
180.426	-576.67
180.645	-173.49
180.864	-68.99
181.084	-2
181.303	45.95
181.522	115.48
181.741	252
181.96	666.67
182.179	185.19
182.398	-35.09
182.618	70.13
182.837	416.33
183.056	161.26
183.275	228.49
183.494	1012.82
183.713	-22800
183.932	189.74
184.151	95.75
184.37	65.9
184.589	93.6
184.808	65.02
185.027	59.07
185.246	29.06
185.465	19.59
185.684	-99.18
185.903	-53.66
186.122	-39.29
186.341	427.12
186.56	4160
186.779	23.94
186.998	12.02
187.216	14.65
187.435	7.54
187.654	-30.08
187.873	-40.52
188.092	-88.39
188.311	-92.89
188.53	-31.57
188.748	-65.21
188.967	-46.85
189.186	-174.69
189.405	-764.86
189.623	518.52
189.842	82.28
190.061	59.48
190.28	73.31
190.498	59.5
190.717	39.82
190.936	84.77
191.154	81.62
191.373	74.66
191.592	76.94
191.81	64.71
192.029	41.88
192.248	80.94
192.466	65.63
192.685	42.68
192.904	87.89
193.122	101
193.341	75.99
193.559	51.58
193.778	57.57
193.996	74.56
194.215	76.76
194.433	98.73
194.652	105.48
194.87	97.42
195.089	91.73
195.307	71.74
195.526	52.57
195.744	36.67
195.963	32.18
196.181	78.86
196.399	50.15
196.618	52.99
196.836	2.74
197.055	-32.18
197.273	28.64
197.491	-16.73
197.71	31.17
197.928	95.42
198.146	94.78
198.365	23.15
198.583	-235.11
198.801	-203.76
199.019	-8.13
199.238	-20.36
199.456	-15.56
199.674	35.9
199.892	300
200.111	123.81
200.329	156.68
200.547	100.63
200.765	119.69
200.983	114.11
201.202	83.81
201.42	444.83
201.638	23100
201.856	380.77
202.074	-246.67
202.292	314.06
202.51	126.62
202.728	64.1
202.946	147.73
203.165	182.48
203.383	115.51
203.601	184.18
203.819	144.87
204.037	152.08
204.255	123.2
204.473	152.43
204.691	135.42
204.909	146.75
205.127	226.23
205.345	197.88
205.562	247.28
205.78	430.29
205.998	613.28
206.216	615.38
206.434	381.6
206.652	-1795.65
206.87	-769.77
207.088	-45.02
207.306	-157.31
207.523	-335.48
207.741	-412
207.959	128.85
208.177	97.17
208.395	96.17
208.612	88.62
208.83	78.23
209.048	94.82
209.266	74.85
209.483	64.11
209.701	51.64
209.919	35.54
210.136	39.13
210.354	36.21
210.572	27.27
210.79	17.05
211.007	15.32
211.225	-8.4
211.442	-18.25
211.66	8.59
211.878	26.09
212.095	42.94
212.313	50.19
212.53	41.63
212.748	37.12
212.966	30.86
213.183	26.51
213.401	31.28
213.618	36.88
213.836	38.77
214.053	28.99
214.271	14.94
214.488	11.28
214.705	16.2
214.923	-5.64
215.14	10.35
215.358	20.05
215.575	37.06
215.793	25.71
216.01	16.77
216.227	4.51
216.445	-1.63
216.662	-18.34
216.879	-43.25
217.097	-58.27
217.314	-24.9
217.531	-11.88
217.749	-6.42
217.966	-22.48
218.183	-7.77
218.4	-3.63
218.618	5.18
218.835	2.96
219.052	11.99
219.269	20.3
219.487	26.67
219.704	30.14
219.921	27.09
220.138	19.36
220.355	27.81
220.572	29.28
220.79	32.3
221.007	31.87
221.224	21.42
221.441	23.86
221.658	26.48
221.875	20.75
222.092	18.36
222.309	25.09
222.526	21.85
222.743	18.01
222.96	17.22
223.177	13.83
223.394	19.23
223.611	18.09
223.828	16.97
224.045	11.47
224.262	7.54
224.479	5.14
224.696	-1.8
224.913	-8.81
225.13	-5.66
225.347	-2.4
225.564	-3.19
225.781	-7.05
225.997	-1.59
226.214	0.29
226.431	1.06
226.648	3.95
226.865	7.26
227.082	7.48
227.298	7.6
227.515	8
227.732	6.58
227.949	7.12
228.165	7.97
228.382	8.19
228.599	8.01
228.816	7.88
229.032	7.53
229.249	6.9
229.466	6.86
229.682	7.38
229.899	7.24
230.116	6.76
230.332	6.05
230.549	5.13
230.765	4.62
230.982	4.79
231.199	4.58
231.415	4.81
231.632	5.78
231.848	4.76
232.065	5.02
232.281	4.66
232.498	6.09
232.714	6.73
232.931	8.02
233.147	7.91
233.364	7.01
233.58	7.53
233.797	6.64
234.013	5.87
234.23	8.54
234.446	8.47
234.662	9.27
234.879	7.39
235.095	7.1
235.312	5.49
235.528	6.87
235.744	7.78
235.961	8.62
236.177	9.32
236.393	9.25
236.61	8.67
236.826	8.29
237.042	5.27
237.258	6.25
237.475	7.68
237.691	9.19
237.907	7.43
238.123	7.35
238.339	7.34
238.556	5.58
238.772	4.93
238.988	4.2
239.204	4.95
239.42	6.87
239.636	8.02
239.853	6.98
240.069	5.59
240.285	6.34
240.501	5.72
240.717	5.27
240.933	5.75
241.149	6
241.365	5.95
241.581	5.58
241.797	5.19
242.013	4.83
242.229	4.55
242.445	5.62
242.661	5.59
242.877	5.27
243.093	5.67
243.309	5.84
243.525	5.35
243.741	5.35
243.957	5.62
244.173	5.63
244.388	6.24
244.604	6.86
244.82	5.52
245.036	5.52
245.252	6.26
245.468	5.85
245.683	5.99
245.899	6
246.115	5.41
246.331	5.33
246.547	5.04
246.762	4.68
246.978	4.48
247.194	4.82
247.409	4.85
247.625	4.49
247.841	4.46
248.057	3.98
248.272	4.05
248.488	4.38
248.703	4.19
248.919	4.17
249.135	4.4
249.35	4.32
249.566	3.83
249.782	3.56
249.997	4.31
250.213	3.79
250.428	4.35
250.644	4.31
250.859	4.6
251.075	4.25
251.29	4.83
251.506	4.41
251.721	4.97
251.937	4.53
252.152	4.73
252.368	3.98
252.583	4.32
252.798	4.25
253.014	4.25
253.229	4.14
253.445	4.49
253.66	4.33
253.875	4.47
254.091	4.2
254.306	4.67
254.521	3.29
254.737	3.54
254.952	3.34
255.167	2.84
255.383	3.18
255.598	2.73
255.813	3.17
256.028	2.65
256.244	2.72
256.459	3.92
256.674	4.38
256.889	4.27
257.104	3.96
257.32	3.92
257.535	4.29
257.75	3.64
257.965	3.34
258.18	2.77
258.395	2.96
258.61	2.73
258.826	1.78
259.041	1.74
259.256	1.85
259.471	2.15
259.686	2.07
259.901	2.16
260.116	2.38
260.331	2.46
260.546	2.59
260.761	2.85
260.976	2.73
261.191	2.92
261.406	2.89
261.621	3.1
261.836	3.03
262.05	3.16
262.265	3.32
262.48	3.11
262.695	3.19
262.91	3.43
263.125	2.65
263.34	3.41
263.555	3.36
263.769	3.04
263.984	3.41
264.199	3.68
264.414	3.62
264.629	3.22
264.843	3.08
265.058	2.68
265.273	2.31
265.488	3.2
265.702	2.72
265.917	2.91
266.132	3.36
266.346	3
266.561	2.78
266.776	2.71
266.99	2.78
267.205	2.8
267.42	3.68
267.634	4.04
267.849	4.02
268.063	4.4
268.278	4.5
268.492	4.05
268.707	4.45
268.922	4.43
269.136	4.33
269.351	4.03
269.565	4.58
269.78	4.41
269.994	4.55
270.209	4.26
270.423	3.95
270.637	3.66
270.852	3.81
271.066	3.31
271.281	3.1
271.495	3.42
271.709	3.58
271.924	3.34
272.138	2.96
272.353	2.79
272.567	2.63
272.781	2.85
272.996	2.62
273.21	2.93
273.424	3.05
273.638	3.25
273.853	3.46
274.067	3.37
274.281	3.28
274.495	3.35
274.71	2.62
274.924	2.59
275.138	2.23
275.352	2.73
275.566	2.27
275.781	2.11
275.995	2.26
276.209	1.59
276.423	1.78
276.637	1.87
276.851	1.96
277.065	2.24
277.279	2.49
277.493	2.63
277.707	2.91
277.921	2.97
278.135	3.12
278.349	3.1
278.563	3.9
278.777	4.32
278.991	3.96
279.205	3.86
279.419	3.96
279.633	4.09
279.847	3.77
280.061	3.89
280.275	4.31
280.489	4.81
280.703	4.36
280.917	3.8
281.131	3.5
281.344	3.75
281.558	3.12
281.772	3.25
281.986	3.06
282.2	3.44
282.414	2.97
282.627	2.66
282.841	2.17
283.055	2.49
283.269	2.27
283.482	2.02
283.696	2.07
283.91	2.47
284.123	2.39
284.337	2.33
284.551	2.16
284.764	2.58
284.978	2.63
285.192	2.57
285.405	2.84
285.619	3.24
285.833	3.3
286.046	3.2
286.26	3.54
286.473	3.84
286.687	3.96
286.9	4.2
287.114	3.97
287.327	3.94
287.541	4.14
287.754	4.06
287.968	4.25
288.181	4.03
288.395	4
288.608	3.7
288.822	3.81
289.035	3.64
289.248	3.3
289.462	3.34
289.675	3.39
289.889	3.29
290.102	3.11
290.315	2.82
290.529	3.38
290.742	3.29
290.955	3.58
291.169	3.64
291.382	3.75
291.595	3.85
291.808	3.85
292.022	3.97
292.235	4.12
292.448	4.37
292.661	4.59
292.875	4.64
293.088	5.06
293.301	4.85
293.514	4.51
293.727	4.47
293.94	5.01
294.153	5.21
294.367	5.28
294.58	5.28
294.793	5.03
295.006	5.17
295.219	4.79
295.432	4.63
295.645	4.77
295.858	5.04
296.071	4.99
296.284	4.79
296.497	4.79
296.71	4.88
296.923	4.99
297.136	5.2
297.349	4.82
297.562	4.82
297.775	5.26
297.988	5.32
298.201	5.2
298.414	5.36
298.626	5.48
298.839	5.56
299.052	5.39
299.265	5.64
299.478	5.8
299.691	6.27
299.903	6.71
300.116	6.49
300.329	6.57
300.542	6.62
300.755	7.12
300.967	7.02
301.18	7.03
301.393	7.15
301.605	7.01
301.818	6.91
302.031	6.76
302.243	6.56
302.456	6.7
302.669	6.54
302.881	6.67
303.094	6.43
303.307	6.26
303.519	6.36
303.732	6.7
303.944	6.48
304.157	6.71
304.37	6.86
304.582	6.72
304.795	6.38
305.007	6.52
305.22	6.73
305.432	6.82
305.645	7.18
305.857	7.43
306.069	7.26
306.282	7.54
306.494	7.41
306.707	7.48
306.919	8.09
307.132	8.61
307.344	8.66
307.556	8.46
307.769	8.52
307.981	8.41
308.193	8.34
308.406	8.51
308.618	8.68
308.83	8.38
309.043	8.13
309.255	8.44
309.467	8.1
309.679	8.06
309.892	8.24
310.104	8.39
310.316	8.68
310.528	8.58
310.74	8.61
310.953	8.58
311.165	9.02
311.377	9.23
311.589	8.89
311.801	8.81
312.013	9.04
312.225	8.85
312.437	8.93
312.649	8.78
312.862	8.82
313.074	8.29
313.286	8.24
313.498	8.21
313.71	8.79
313.922	8.9
314.134	8.52
314.346	8.75
314.558	9.15
314.77	8.65
314.982	8.88
315.193	8.98
315.405	9.55
315.617	9.77
315.829	9.69
316.041	9.49
316.253	9.35
316.465	10.55
316.677	10.08
316.888	10.11
317.1	10.28
317.312	10.36
317.524	10.31
317.736	10.23
317.947	10.02
318.159	10.12
318.371	10.01
318.583	10.22
318.794	10.33
319.006	10.71
319.218	10.67
319.43	11.15
319.641	11.21
319.853	11.4
320.064	11.88
320.276	12.41
320.488	12.42
320.699	12.59
320.911	12.61
321.123	12.44
321.334	11.85
321.546	12.14
321.757	11.92
321.969	11.82
322.18	11.74
322.392	11.08
322.603	10.68
322.815	10.93
323.026	11.05
323.238	11.12
323.449	11.52
323.661	12.11
323.872	12.16
324.083	12.41
324.295	12.18
324.506	12.33
324.718	12.74
324.929	13.06
325.14	13.09
325.352	12.98
325.563	13.14
325.774	12.69
325.986	12.72
326.197	13.11
326.408	13.23
326.62	13.76
326.831	13.91
327.042	14.24
327.253	14.32
327.464	14.37
327.676	14.63
327.887	15.06
328.098	15.28
328.309	15.46
328.52	15.45
328.732	15.62
328.943	15.89
329.154	16.09
329.365	16.06
329.576	16.46
329.787	17.09
329.998	17.89
330.209	17.82
330.42	18.09
330.631	18.64
330.842	18.31
331.053	18.75
331.264	18.53
331.475	18.6
331.686	19.02
331.897	18.93
332.108	19.21
332.319	19.06
332.53	19.1
332.741	19.67
332.952	19.75
333.163	20.47
333.374	20.62
333.585	20.87
333.795	20.9
334.006	20.87
334.217	20.82
334.428	20.41
334.639	20.29
334.849	20.59
335.06	20.42
335.271	20.59
335.482	20.37
335.692	20.19
335.903	20.64
336.114	20.83
336.325	20.84
336.535	21.17
336.746	21.21
336.957	21.28
337.167	21.16
337.378	21.18
337.589	21.39
337.799	21.31
338.01	21.44
338.22	20.93
338.431	20.79
338.642	20.77
338.852	20.76
339.063	20.81
339.273	20.55
339.484	20.77
339.694	20.78
339.905	20.39
340.115	20.47
340.326	20.58
340.536	20.99
340.746	21.46
340.957	21.56
341.167	21.27
341.378	21.61
341.588	21.78
341.799	21.85
342.009	22.03
342.219	21.99
342.43	22.1
342.64	21.7
342.85	21.31
343.061	20.99
343.271	20.93
343.481	21.34
343.691	21.02
343.902	20.95
344.112	21.05
344.322	20.87
344.532	20.65
344.743	20.33
344.953	20.63
345.163	20.93
345.373	20.96
345.583	21.19
345.793	21.1
346.004	21.04
346.214	21.27
346.424	20.9
346.634	20.87
346.844	21.05
347.054	21.29
347.264	20.83
347.474	20.26
347.684	20.3
347.894	19.96
348.104	19.94
348.314	19.93
348.524	19.64
348.734	19.63
348.944	19.45
349.154	19.29
349.364	19.35
349.574	19.43
349.784	19.82
349.994	19.76
350.204	19.66
350.413	19.34
350.623	19.31
350.833	19.26
351.043	19.02
351.253	19.16
351.463	19.43
351.672	19.42
351.882	19.54
352.092	19.37
352.302	19.04
352.511	19.23
352.721	19.47
352.931	19.6
353.141	19.64
353.35	19.55
353.56	19.26
353.77	19.01
353.979	18.8
354.189	18.71
354.399	19.13
354.608	19.51
354.818	19.26
355.027	18.97
355.237	18.98
355.447	19.23
355.656	19.46
355.866	19.88
356.075	20.21
356.285	20.57
356.494	20.63
356.704	20.54
356.913	20.49
357.123	20.64
357.332	20.92
357.542	20.94
357.751	20.78
357.96	20.77
358.17	20.57
358.379	20.26
358.589	19.99
358.798	19.95
359.007	19.69
359.217	19.92
359.426	20.12
359.635	20.22
359.845	19.93
360.054	19.9
360.263	19.91
360.472	19.92
360.682	20.04
360.891	20.11
361.1	20.16
361.309	20.12
361.519	19.74
361.728	19.6
361.937	19.33
362.146	19.53
362.355	19.41
362.564	19.55
362.774	19.65
362.983	19.45
363.192	19.23
363.401	19.22
363.61	19.2
363.819	19.49
364.028	19.61
364.237	19.72
364.446	19.8
364.655	19.88
364.864	19.64
365.073	19.39
365.282	19.57
365.491	19.84
365.7	19.64
365.909	19.64
366.118	19.39
366.327	19.24
366.536	19.1
366.745	18.96
366.954	18.73
367.162	18.42
367.371	18.41
367.58	18.4
367.789	18.14
367.998	18.07
368.207	17.98
368.415	18.03
368.624	17.78
368.833	17.97
369.042	17.51
369.25	17.96
369.459	18.34
369.668	18.15
369.877	18.01
370.085	17.99
370.294	17.97
370.503	18.04
370.711	18.05
370.92	18.2
371.129	17.77
371.337	17.96
371.546	17.75
371.754	17.65
371.963	17.94
372.171	17.67
372.38	17.79
372.589	17.63
372.797	17.73
373.006	17.57
373.214	17.51
373.423	17.5
373.631	17.62
373.84	17.39
374.048	17.35
374.256	17.14
374.465	17.25
374.673	16.97
374.882	16.88
375.09	16.47
375.298	16.75
375.507	16.73
375.715	17.01
375.923	16.8
376.132	16.77
376.34	16.59
376.548	16.5
376.757	16.46
376.965	16.43
377.173	16.54
377.381	16.52
377.59	16.26
377.798	16.16
378.006	15.8
378.214	15.75
378.423	15.72
378.631	15.79
378.839	15.7
379.047	15.77
379.255	15.95
379.463	15.75
379.671	15.77
379.879	15.57
380.088	15.38
380.296	15.45
380.504	15.32
380.712	15.3
380.92	14.94
381.128	14.89
381.336	14.72
381.544	14.55
381.752	14.77
381.96	14.74
382.168	14.71
382.376	14.84
382.584	14.76
382.791	15.03
382.999	15.08
383.207	15.41
383.415	15.46
383.623	15.37
383.831	15.26
384.039	15.01
384.247	15.25
384.454	15.3
384.662	15.14
384.87	15.22
385.078	14.97
385.285	14.93
385.493	14.98
385.701	14.87
385.909	14.61
386.116	14.75
386.324	14.75
386.532	14.6
386.739	14.49
386.947	14.62
387.155	14.76
387.362	14.82
387.57	14.84
387.778	14.73
387.985	14.8
388.193	14.95
388.4	14.85
388.608	14.78
388.816	14.69
389.023	14.72
389.231	14.47
389.438	14.23
389.646	13.95
389.853	13.95
390.061	13.86
390.268	13.76
390.475	14.12
390.683	14.08
390.89	14.11
391.098	13.97
391.305	13.91
391.512	14
391.72	13.83
391.927	14.06
392.135	13.85
392.342	13.82
392.549	13.74
392.756	13.43
392.964	13.31
393.171	13.39
393.378	13.37
393.586	13.3
393.793	13.36
394	13.43
394.207	13.42
394.414	13.33
394.622	13.17
394.829	13.58
395.036	13.47
395.243	13.42
395.45	13.43
395.657	13.28
395.864	13.27
396.072	13.18
396.279	13.21
396.486	13.28
396.693	13.52
396.9	13.59
397.107	13.33
397.314	13.55
397.521	13.65
397.728	13.31
397.935	13.66
398.142	13.86
398.349	13.99
398.556	14.06
398.763	14.09
398.97	13.9
399.177	13.84
399.383	13.71
399.59	13.54
399.797	13.42
400.004	13.78
400.211	13.54
400.418	13.2
400.625	13.17
400.831	13.13
401.038	12.86
401.245	12.99
401.452	13.03
401.658	13.01
401.865	12.99
402.072	12.96
402.279	12.87
402.485	12.78
402.692	12.85
402.899	12.9
403.105	12.88
403.312	12.92
403.519	12.94
403.725	12.8
403.932	12.85
404.138	12.78
404.345	12.88
404.552	12.82
404.758	12.86
404.965	12.94
405.171	12.58
405.378	12.31
405.584	12.21
405.791	11.98
405.997	12.02
406.204	11.79
406.41	11.81
406.617	11.76
406.823	11.71
407.029	11.73
407.236	11.62
407.442	11.69
407.649	12.01
407.855	12.11
408.061	12.25
408.268	12.29
408.474	12.43
408.68	12.52
408.887	12.36
409.093	12.41
409.299	12.54
409.505	12.53
409.712	12.56
409.918	12.37
410.124	12.18
410.33	12.13
410.537	12.13
410.743	12.09
410.949	12.07
411.155	12.09
411.361	12.09
411.567	11.98
411.773	12.08
411.98	12.14
412.186	12.03
412.392	12.17
412.598	12.19
412.804	12.14
413.01	12.08
413.216	12.11
413.422	12.07
413.628	12.15
413.834	12.13
414.04	12.03
414.246	12.01
414.452	12.12
414.658	12.17
414.864	12.18
415.07	12.12
415.275	12.05
415.481	11.9
415.687	11.99
415.893	11.89
416.099	11.84
416.305	11.86
416.511	11.92
416.716	11.96
416.922	11.88
417.128	11.96
417.334	12.08
417.539	12.17
417.745	12.27
417.951	12.11
418.157	12.08
418.362	12.11
418.568	12.11
418.774	12.09
418.979	12.06
419.185	12.06
419.391	11.97
419.596	11.84
419.802	11.75
420.008	11.68
420.213	11.05
420.419	11
420.624	10.95
420.83	10.94
421.035	10.95
421.241	10.96
421.446	10.95
421.652	10.98
421.857	11.05
422.063	11.07
422.268	11.12
422.474	11.85
422.679	11.88
422.885	12.14
423.09	12.18
423.295	12.11
423.501	12.06
423.706	12
423.911	11.94
424.117	11.93
424.322	11.95
424.527	11.88
424.733	11.85
424.938	11.84
425.143	11.58
425.349	11.5
425.554	11.55
425.759	11.57
425.964	11.6
426.169	11.67
426.375	11.67
426.58	11.65
426.785	11.6
426.99	11.58
427.195	11.68
427.4	11.68
427.605	11.72
427.811	11.73
428.016	11.76
428.221	11.96
428.426	11.84
428.631	11.77
428.836	11.75
429.041	11.86
429.246	11.98
429.451	11.84
429.656	11.85
429.861	11.73
430.066	11.75
430.271	11.77
430.476	11.66
430.681	11.66
430.886	11.71
431.09	11.74
431.295	11.68
431.5	11.57
431.705	11.53
431.91	11.56
432.115	11.63
432.32	11.57
432.524	11.48
432.729	11.51
432.934	11.57
433.139	11.45
433.343	11.38
433.548	11.37
433.753	11.3
433.958	11.43
434.162	11.45
434.367	11.45
434.572	11.5
434.776	11.58
434.981	11.45
435.186	11.47
435.39	11.57
435.595	11.74
435.799	11.8
436.004	11.88
436.209	11.82
436.413	11.87
436.618	11.97
436.822	11.89
437.027	11.81
437.231	11.91
437.436	11.85
437.64	11.87
437.845	11.82
438.049	11.79
438.253	11.84
438.458	11.87
438.662	11.84
438.867	11.69
439.071	11.69
439.275	11.64
439.48	11.47
439.684	11.42
439.888	11.44
440.093	11.35
440.297	11.31
440.501	11.32
440.706	11.23
440.91	11.17
441.114	11.29
441.318	11.33
441.523	11.38
441.727	11.5
441.931	11.53
442.135	11.62
442.339	11.64
442.543	11.69
442.748	11.66
442.952	11.77
443.156	11.84
443.36	11.78
443.564	11.69
443.768	11.68
443.972	11.76
444.176	11.81
444.38	11.71
444.584	11.73
444.788	11.72
444.992	11.71
445.196	11.61
445.4	11.6
445.604	11.61
445.808	11.6
446.012	11.53
446.216	11.41
446.42	11.39
446.624	11.41
446.828	11.38
447.032	11.42
447.235	11.37
447.439	11.37
447.643	11.34
447.847	11.3
448.051	11.38
448.254	11.44
448.458	11.44
448.662	11.46
448.866	11.46
449.069	11.42
449.273	11.39
449.477	11.36
449.681	11.38
449.884	11.44
450.088	11.52
450.292	11.46
450.495	11.39
450.699	11.41
450.902	11.44
451.106	11.35
451.31	11.45
451.513	11.39
451.717	11.38
451.92	11.34
452.124	11.19
452.327	11.18
452.531	11.09
452.734	11.06
452.938	11.03
453.141	10.99
453.345	10.9
453.548	10.81
453.752	11
453.955	11.05
454.158	11.08
454.362	11.13
454.565	11.08
454.769	11.18
454.972	11.22
455.175	11.15
455.379	11.19
455.582	11.21
455.785	11.21
455.988	11.04
456.192	11.07
456.395	11.09
456.598	11.01
456.801	10.91
457.005	10.85
457.208	10.83
457.411	10.85
457.614	10.84
457.817	10.94
458.021	10.97
458.224	10.96
458.427	10.95
458.63	10.89
458.833	10.97
459.036	11.03
459.239	11.06
459.442	11.05
459.645	11.06
459.848	10.96
460.051	11.04
460.254	11.11
460.457	11.17
460.66	11.21
460.863	11.24
461.066	11.2
461.269	11.16
461.472	11.15
461.675	11.23
461.878	11.3
462.081	11.39
462.284	11.3
462.486	11.27
462.689	11.29
462.892	11.26
463.095	11.23
463.298	11.25
463.5	11.48
463.703	11.4
463.906	11.44
464.109	11.48
464.311	11.45
464.514	11.44
464.717	11.42
464.92	11.33
465.122	11.37
465.325	11.41
465.528	11.4
465.73	11.19
465.933	11.28
466.135	11.21
466.338	11.15
466.541	11.24
466.743	11.26
466.946	11.34
467.148	11.4
467.351	11.4
467.553	11.48
467.756	11.54
467.958	11.48
468.161	11.49
468.363	11.57
468.566	11.6
468.768	11.7
468.971	11.7
469.173	11.64
469.375	11.57
469.578	11.55
469.78	11.5
469.983	11.57
470.185	11.68
470.387	11.68
470.59	11.54
470.792	11.49
470.994	11.42
471.196	11.43
471.399	11.48
471.601	11.62
471.803	11.64
472.005	11.67
472.208	11.56
472.41	11.76
472.612	11.8
472.814	11.9
473.016	11.95
473.218	11.92
473.421	11.84
473.623	11.76
473.825	11.64
474.027	11.58
474.229	11.59
474.431	11.6
474.633	11.47
474.835	11.46
475.037	11.56
475.239	11.61
475.441	11.68
475.643	11.71
475.845	11.74
476.047	11.8
476.249	11.84
476.451	11.87
476.653	11.92
476.855	11.91
477.057	11.85
477.258	11.81
477.46	11.67
477.662	11.66
477.864	11.65
478.066	11.67
478.268	11.64
478.469	11.64
478.671	11.61
478.873	11.61
479.075	11.55
479.276	11.68
479.478	11.62
479.68	11.62
479.882	11.55
480.083	11.61
480.285	11.57
480.487	11.57
480.688	11.6
480.89	11.58
481.091	11.55
481.293	11.65
481.495	11.55
481.696	11.46
481.898	11.46
482.099	11.39
482.301	11.37
482.502	11.34
482.704	11.32
482.905	11.29
483.107	11.25
483.308	11.27
483.51	11.23
483.711	11.24
483.913	11.28
484.114	11.26
484.315	11.29
484.517	11.29
484.718	11.29
484.92	11.29
485.121	11.24
485.322	11.24
485.524	11.23
485.725	11.21
485.926	11.22
486.127	11.25
486.329	11.26
486.53	11.28
486.731	11.28
486.932	11.3
487.134	11.31
487.335	11.32
487.536	11.34
487.737	11.32
487.938	11.31
488.139	11.29
488.341	11.26
488.542	11.29
488.743	11.28
488.944	11.29
489.145	11.27
489.346	11.25
489.547	11.31
489.748	11.35
489.949	11.33
490.15	11.35
490.351	11.33
490.552	11.33
490.753	11.4
490.954	11.43
491.155	11.41
491.356	11.44
491.557	11.44
491.758	11.42
491.959	11.38
492.159	11.47
492.36	11.51
492.561	11.56
492.762	11.62
492.963	11.61
493.164	11.56
493.364	11.57
493.565	11.52
493.766	11.59
493.967	11.69
494.167	11.73
494.368	11.66
494.569	11.74
494.769	11.72
494.97	11.69
495.171	11.61
495.371	11.68
495.572	11.75
495.773	11.85
495.973	11.76
496.174	11.8
496.375	11.85
496.575	11.85
496.776	11.85
496.976	11.88
497.177	11.9
497.377	11.96
497.578	11.95
497.778	11.93
497.979	11.9
498.179	11.97
498.38	11.95
498.58	11.91
498.78	11.96
498.981	11.94
499.181	11.97
499.382	11.95
499.582	11.98
499.782	12.06
499.983	12.16
500.183	12.23
500.383	12.28
500.584	12.23
500.784	12.32
500.984	12.42
501.184	12.55
501.385	12.68
501.585	12.81
501.785	12.9
501.985	12.88
502.185	12.91
502.386	12.97
502.586	13
502.786	13
502.986	13.09
503.186	13.17
503.386	13.13
503.586	13.08
503.786	13.05
503.987	13.03
504.187	13.1
504.387	13.06
504.587	13.1
504.787	13.11
504.987	13.25
505.187	13.31
505.387	13.25
505.587	13.32
505.786	13.43
505.986	13.6
506.186	13.65
506.386	13.75
506.586	13.82
506.786	13.91
506.986	14.17
507.186	14.27
507.386	14.27
507.585	14.37
507.785	14.37
507.985	14.31
508.185	14.28
508.384	14.32
508.584	14.38
508.784	14.53
508.984	14.61
509.183	14.49
509.383	14.6
509.583	14.63
509.782	14.78
509.982	14.85
510.182	15
510.381	15.12
510.581	15.19
510.781	15.26
510.98	15.31
511.18	15.34
511.379	15.46
511.579	15.52
511.778	15.63
511.978	15.62
512.177	15.7
512.377	15.78
512.576	15.91
512.776	16.01
512.975	16.1
513.175	16.22
513.374	16.31
513.573	16.33
513.773	16.32
513.972	16.38
514.172	16.51
514.371	16.6
514.57	16.73
514.77	16.76
514.969	16.9
515.168	17.09
515.367	17.17
515.567	17.43
515.766	17.63
515.965	17.76
516.164	17.87
516.364	17.9
516.563	18.05
516.762	18.22
516.961	18.32
517.16	18.42
517.359	18.43
517.559	18.54
517.758	18.54
517.957	18.6
518.156	18.68
518.355	18.77
518.554	18.82
518.753	18.96
518.952	18.89
519.151	18.94
519.35	19.02
519.549	19.15
519.748	19.22
519.947	19.27
520.146	19.37
520.345	19.51
520.544	19.63
520.743	19.77
520.942	19.87
521.141	20.06
521.339	20.16
521.538	20.19
521.737	20.3
521.936	20.39
522.135	20.52
522.333	20.64
522.532	20.73
522.731	20.82
522.93	20.94
523.129	20.9
523.327	21.02
523.526	21.1
523.725	21.26
523.923	21.34
524.122	21.32
524.321	21.38
524.519	21.52
524.718	21.64
524.917	21.72
525.115	21.82
525.314	21.95
525.512	22.05
525.711	22.18
525.909	22.26
526.108	22.27
526.306	22.4
526.505	22.52
526.703	22.59
526.902	22.73
527.1	22.81
527.299	22.85
527.497	22.89
527.696	22.95
527.894	23.01
528.092	23.03
528.291	23.13
528.489	23.26
528.688	23.3
528.886	23.35
529.084	23.33
529.283	23.4
529.481	23.47
529.679	23.51
529.877	23.56
530.076	23.64
530.274	23.8
530.472	23.82
530.67	23.83
530.869	23.92
531.067	24.01
531.265	24.1
531.463	24.17
531.661	24.26
531.859	24.37
532.057	24.43
532.255	24.5
532.454	24.52
532.652	24.6
532.85	24.61
533.048	24.65
533.246	24.72
533.444	24.79
533.642	24.79
533.84	24.83
534.038	24.84
534.236	24.97
534.434	25.05
534.632	25.14
534.83	25.22
535.027	25.34
535.225	25.34
535.423	25.4
535.621	25.5
535.819	25.63
536.017	25.71
536.215	25.85
536.412	25.82
536.61	25.87
536.808	25.85
537.006	25.93
537.203	25.94
537.401	26.09
537.599	26.23
537.797	26.26
537.994	26.32
538.192	26.42
538.39	26.46
538.587	26.58
538.785	26.55
538.983	26.61
539.18	26.68
539.378	26.79
539.575	26.78
539.773	26.65
539.97	26.69
540.168	26.68
540.366	26.64
540.563	26.62
540.761	26.64
540.958	26.68
541.155	26.71
541.353	26.73
541.55	26.72
541.748	26.74
541.945	26.87
542.143	26.87
542.34	26.99
542.537	27.09
542.735	27.14
542.932	27.18
543.129	27.2
543.327	27.25
543.524	27.26
543.721	27.34
543.919	27.43
544.116	27.43
544.313	27.51
544.51	27.46
544.708	27.54
544.905	27.56
545.102	27.59
545.299	27.66
545.496	27.67
545.693	27.7
545.891	27.69
546.088	27.64
546.285	27.69
546.482	27.71
546.679	27.7
546.876	27.63
547.073	27.77
547.27	27.79
547.467	27.89
547.664	27.96
547.861	27.98
548.058	28.04
548.255	28.16
548.452	28.04
548.649	27.97
548.846	28.07
549.043	28.04
549.24	28.01
549.437	27.92
549.633	27.83
549.83	27.8
550.027	27.89
550.224	27.9
550.421	27.9
550.618	27.87
550.814	27.95
551.011	27.87
551.208	27.96
551.405	27.89
551.601	28.01
551.798	28.01
551.995	28.06
552.191	28.08
552.388	28.07
552.585	28.03
552.781	28.11
552.978	28.03
553.175	28.18
553.371	28.27
553.568	28.27
553.764	28.25
553.961	28.39
554.157	28.35
554.354	28.27
554.55	28.33
554.747	28.36
554.943	28.29
555.14	28.48
555.336	28.47
555.533	28.29
555.729	28.35
555.926	28.38
556.122	28.18
556.318	28.21
556.515	28.22
556.711	28.3
556.907	28.36
557.104	28.42
557.3	28.32
557.496	28.33
557.693	28.46
557.889	28.5
558.085	28.57
558.281	28.69
558.478	28.66
558.674	28.7
558.87	28.55
559.066	28.48
559.262	28.48
559.459	28.51
559.655	28.41
559.851	28.34
560.047	28.32
560.243	28.35
560.439	28.23
560.635	28.42
560.831	28.44
561.027	28.51
561.223	28.54
561.419	28.68
561.615	28.69
561.811	28.78
562.007	28.82
562.203	28.8
562.399	28.72
562.595	28.87
562.791	28.64
562.987	28.56
563.183	28.44
563.379	28.5
563.575	28.4
563.771	28.43
563.966	28.34
564.162	28.38
564.358	28.37
564.554	28.32
564.75	28.34
564.945	28.48
565.141	28.59
565.337	28.75
565.533	28.71
565.728	28.68
565.924	28.77
566.12	28.78
566.315	28.75
566.511	28.79
566.707	28.87
566.902	28.82
567.098	28.8
567.293	28.81
567.489	28.75
567.684	28.7
567.88	28.81
568.076	28.78
568.271	28.91
568.467	28.99
568.662	28.93
568.858	28.9
569.053	28.83
569.248	28.69
569.444	28.6
569.639	28.63
569.835	28.64
570.03	28.5
570.225	28.45
570.421	28.53
570.616	28.51
570.812	28.55
571.007	28.56
571.202	28.75
571.397	28.82
571.593	28.95
571.788	28.96
571.983	29.02
572.178	28.99
572.374	28.89
572.569	28.72
572.764	28.7
572.959	28.69
573.154	28.66
573.35	28.56
573.545	28.66
573.74	28.66
573.935	28.63
574.13	28.68
574.325	28.87
574.52	28.97
574.715	28.95
574.91	28.88
575.105	29
575.3	29.07
575.495	29.01
575.69	28.91
575.885	28.87
576.08	28.9
576.275	28.95
576.47	28.89
576.665	28.89
576.86	29.03
577.055	29.07
577.25	29
577.444	29.11
577.639	29.24
577.834	29.39
578.029	29.44
578.224	29.31
578.418	29.15
578.613	29.2
578.808	29.07
579.003	29.04
579.197	29.12
579.392	29.05
579.587	28.87
579.781	28.86
579.976	28.65
580.171	28.73
580.365	28.95
580.56	29.07
580.755	28.99
580.949	29.17
581.144	29.14
581.338	29.06
581.533	29.24
581.727	29.17
581.922	29.15
582.116	29.4
582.311	29.24
582.505	29.12
582.7	29.06
582.894	29.19
583.089	29.32
583.283	29.36
583.478	29.41
583.672	29.38
583.866	29.48
584.061	29.4
584.255	29.27
584.449	29.4
584.644	29.31
584.838	29.41
585.032	29.4
585.226	29.41
585.421	29.46
585.615	29.49
585.809	29.59
586.003	29.82
586.198	29.92
586.392	30
586.586	29.91
586.78	30.01
586.974	29.92
587.168	29.87
587.363	29.71
587.557	29.65
587.751	29.65
587.945	29.59
588.139	29.31
588.333	29.32
588.527	29.33
588.721	29.47
588.915	29.58
589.109	29.79
589.303	29.77
589.497	29.73
589.691	29.82
589.885	29.84
590.079	29.94
590.273	30.12
590.466	30.35
590.66	30.38
590.854	30.32
591.048	30.34
591.242	30.23
591.436	30.42
591.629	30.58
591.823	30.5
592.017	30.46
592.211	30.37
592.404	30.27
592.598	29.95
592.792	29.89
592.986	29.93
593.179	29.81
593.373	29.7
593.567	29.65
593.76	29.64
593.954	29.58
594.147	29.65
594.341	29.59
594.535	29.68
594.728	29.83
594.922	29.92
595.115	29.81
595.309	29.85
595.502	29.84
595.696	29.83
595.889	29.87
596.083	29.94
596.276	29.94
596.47	29.94
596.663	29.86
596.856	29.84
597.05	29.79
597.243	29.83
597.437	29.91
597.63	30.07
597.823	30.1
598.017	30.05
598.21	29.97
598.403	30.01
598.596	30.25
598.79	30.34
598.983	30.36
599.176	30.38
599.369	30.39
599.563	30.45
599.756	30.53
599.949	30.49
600.142	30.6
600.335	30.78
600.528	30.78
600.722	30.65
600.915	30.7
601.108	30.76
601.301	30.74
601.494	30.76
601.687	30.6
601.88	30.5
602.073	30.52
602.266	30.39
602.459	30.43
602.652	30.38
602.845	30.39
603.038	30.35
603.231	30.39
603.424	30.39
603.617	30.37
603.809	30.44
604.002	30.46
604.195	30.39
604.388	30.35
604.581	30.27
604.774	30.17
604.966	30.1
605.159	30.15
605.352	30.13
605.545	30.13
605.737	30.27
605.93	30.24
606.123	30.25
606.316	30.32
606.508	30.43
606.701	30.54
606.894	30.79
607.086	30.95
607.279	31.01
607.471	31
607.664	31.21
607.857	31.22
608.049	31.29
608.242	31.27
608.434	31.55
608.627	31.75
608.819	32.05
609.012	32.44
609.204	32.77
609.397	33.19
609.589	33.69
609.782	34.24
609.974	34.74
610.166	35.34
610.359	35.99
610.551	36.47
610.743	37.12
610.936	37.42
611.128	37.59
611.32	37.83
611.513	37.97
611.705	37.85
611.897	37.54
612.09	37.44
612.282	37.26
612.474	36.92
612.666	36.46
612.858	36.03
613.051	35.96
613.243	35.65
613.435	35.29
613.627	35
613.819	34.92
614.011	34.83
614.203	34.67
614.395	34.44
614.588	34.36
614.78	34.39
614.972	34.22
615.164	33.85
615.356	33.73
615.548	33.68
615.74	33.52
615.932	33.11
616.124	32.87
616.315	32.64
616.507	32.39
616.699	32.1
616.891	31.92
617.083	31.8
617.275	31.8
617.467	31.79
617.659	31.76
617.85	31.76
618.042	31.95
618.234	31.91
618.426	32.06
618.618	32.07
618.809	32.26
619.001	32.43
619.193	32.71
619.384	32.6
619.576	32.61
619.768	32.62
619.959	32.42
620.151	32.32
620.343	32.45
620.534	32.3
620.726	32.32
620.917	32.24
621.109	32.1
621.301	32
621.492	32.11
621.684	32.03
621.875	31.86
622.067	32.11
622.258	31.94
622.45	31.87
622.641	32.09
622.832	32.15
623.024	32.34
623.215	32.27
623.407	32.04
623.598	32.08
623.789	31.92
623.981	32.12
624.172	31.97
624.363	32.19
624.555	32.1
624.746	31.9
624.937	31.89
625.129	31.62
625.32	31.71
625.511	31.58
625.702	31.47
625.893	31.56
626.085	31.44
626.276	31.47
626.467	31.58
626.658	31.76
626.849	31.73
627.04	31.65
627.231	31.72
627.422	31.72
627.614	31.89
627.805	31.94
627.996	32.19
628.187	32.16
628.378	32.19
628.569	32.14
628.76	32.1
628.951	32.18
629.142	32.4
629.332	32.58
629.523	32.48
629.714	32.65
629.905	32.8
630.096	32.58
630.287	32.81
630.478	32.9
630.669	32.88
630.859	32.94
631.05	32.82
631.241	32.63
631.432	32.42
631.623	32.5
631.813	32.25
632.004	32.1
632.195	31.96
632.385	31.64
632.576	31.39
632.767	31.25
632.957	31.12
633.148	31.14
633.339	31.16
633.529	31.08
633.72	31.03
633.91	31.06
634.101	30.86
634.292	30.9
634.482	31.01
634.673	31.12
634.863	31.15
635.054	31.09
635.244	31.04
635.435	30.88
635.625	31.04
635.815	31.04
636.006	30.85
636.196	30.93
636.387	31.1
636.577	31.22
636.767	31.14
636.958	31.25
637.148	31.27
637.338	31.54
637.529	31.76
637.719	31.87
637.909	31.9
638.099	32.17
638.29	32.17
638.48	32.11
638.67	32.1
638.86	32.25
639.05	32.12
639.241	32.07
639.431	31.58
639.621	31.53
639.811	31.2
640.001	31.01
640.191	30.95
640.381	31
640.571	30.94
640.761	30.98
640.951	30.98
641.141	31.03
641.331	31.18
641.521	31.44
641.711	31.74
641.901	31.81
642.091	31.97
642.281	31.66
642.471	31.48
642.661	31.48
642.851	31.41
643.041	31.28
643.231	31.32
643.42	31.24
643.61	31.26
643.8	31
643.99	31.15
644.18	31.13
644.369	31.4
644.559	31.69
644.749	31.95
644.939	32.05
645.128	32.14
645.318	32.19
645.508	32.22
645.697	32.11
645.887	32.07
646.076	32.02
646.266	31.94
646.456	31.85
646.645	31.94
646.835	31.74
647.024	31.54
647.214	31.7
647.403	31.82
647.593	31.85
647.782	31.96
647.972	32.14
648.161	32.35
648.351	32.41
648.54	32.53
648.73	32.49
648.919	32.59
649.108	32.7
649.298	32.33
649.487	32.26
649.677	32.19
649.866	31.93
650.055	31.94
650.244	31.9
650.434	31.92
650.623	32.05
650.812	32.09
651.002	31.93
651.191	31.9
651.38	32.08
651.569	32.14
651.758	32.19
651.947	32.69
652.137	32.49
652.326	32.2
652.515	32.24
652.704	32.12
652.893	32.13
653.082	32.29
653.271	32.5
653.46	32.62
653.649	32.31
653.838	32.16
654.027	32.13
654.216	32.32
654.405	32.33
654.594	32.28
654.783	32.23
654.972	32.11
655.161	32.09
655.35	31.78
655.539	31.8
655.728	32.26
655.916	32.07
656.105	31.95
656.294	31.92
656.483	32.1
656.672	32.18
656.86	32.16
657.049	32.15
657.238	32.02
657.427	32.29
657.615	32.27
657.804	31.95
657.993	32.25
658.181	32.22
658.37	32.12
658.559	32.17
658.747	32.1
658.936	32.34
659.125	32.53
659.313	32.77
659.502	32.61
659.69	32.38
659.879	32.51
660.067	32.31
660.256	32.3
660.444	32.36
660.633	32.41
660.821	32.75
661.01	32.74
661.198	32.59
661.387	32.54
661.575	32.65
661.763	32.88
661.952	32.89
662.14	33.21
662.328	33.3
662.517	33.2
662.705	33.01
662.893	32.73
663.082	32.49
663.27	32.68
663.458	32.36
663.646	32.56
663.834	32.61
664.023	32.73
664.211	32.72
664.399	32.79
664.587	32.96
664.775	32.88
664.963	32.93
665.152	33.02
665.34	32.84
665.528	33.04
665.716	33.01
665.904	33.09
666.092	33.03
666.28	33.02
666.468	32.93
666.656	33
666.844	33.2
667.032	33.3
667.22	33.54
667.408	33.65
667.596	33.65
667.784	33.44
667.971	33.28
668.159	33.33
668.347	33.43
668.535	33.4
668.723	33.36
668.911	33.36
669.098	33.06
669.286	32.94
669.474	32.95
669.662	33.14
669.849	33.22
670.037	33.44
670.225	33.41
670.413	33.4
670.6	33.45
670.788	33.26
670.976	33.26
671.163	33.41
671.351	33.45
671.538	33.46
671.726	33.24
671.913	33.25
672.101	33.05
672.289	32.98
672.476	32.86
672.664	32.91
672.851	33.11
673.039	33.05
673.226	33.29
673.413	33.15
673.601	32.86
673.788	33.16
673.976	33.28
674.163	33.38
674.35	33.62
674.538	33.59
674.725	33.62
674.912	33.64
675.1	33.7
675.287	33.74
675.474	34.08
675.662	34.23
675.849	34.2
676.036	34
676.223	33.9
676.411	33.84
676.598	34.03
676.785	33.98
676.972	34.13
677.159	33.83
677.346	33.61
677.533	33.04
677.721	33.12
677.908	33
678.095	33.3
678.282	33.49
678.469	33.32
678.656	33.09
678.843	32.92
679.03	32.68
679.217	33.04
679.404	32.88
679.591	33.08
679.778	33.19
679.964	32.9
680.151	32.57
680.338	32.47
680.525	32.39
680.712	32.43
680.899	32.62
681.086	32.61
681.272	32.47
681.459	32.81
681.646	32.69
681.833	32.64
682.02	33.07
682.206	33.24
682.393	33.38
682.58	33.62
682.766	33.79
682.953	33.77
683.14	33.75
683.326	34.08
683.513	33.77
683.7	33.7
683.886	33.58
684.073	33.4
684.259	33.23
684.446	32.97
684.632	33
684.819	32.9
685.005	32.83
685.192	33.18
685.378	32.8
685.565	33.15
685.751	33.63
685.938	33.61
686.124	33.82
686.31	33.96
686.497	34.18
686.683	34.18
686.87	34.01
687.056	33.95
687.242	33.63
687.429	33.87
687.615	33.85
687.801	33.73
687.987	33.83
688.174	33.52
688.36	33.35
688.546	33.43
688.732	33.38
688.918	33.59
689.105	33.84
689.291	33.99
689.477	33.99
689.663	33.84
689.849	33.61
690.035	33.68
690.221	33.71
690.407	33.95
690.593	33.78
690.779	33.69
690.965	33.55
691.151	33.55
691.337	33.64
691.523	33.49
691.709	33.68
691.895	33.95
692.081	33.79
692.267	33.96
692.453	33.96
692.639	34.07
692.825	34.2
693.011	34.22
693.196	34.42
693.382	34.58
693.568	34.97
693.754	34.68
693.94	34.53
694.125	34.49
694.311	34.15
694.497	34.36
694.682	33.95
694.868	34.08
695.054	34.23
695.239	34.15
695.425	34.08
695.611	33.7
695.796	33.81
695.982	33.84
696.168	34.21
696.353	34.9
696.539	34.54
696.724	34.5
696.91	34.53
697.095	34.47
697.281	34.22
697.466	34.3
697.652	34.44
697.837	34.62
698.023	34.41
698.208	34.22
698.393	33.96
698.579	33.98
698.764	33.94
698.949	33.87
699.135	33.88
699.32	33.85
699.505	33.66
699.691	33.95
699.876	33.91
700.061	34.08
700.246	34.1
700.432	34
700.617	34.32
700.802	34.75
700.987	34.56
701.172	34.66
701.358	34.84
701.543	35.17
701.728	34.88
701.913	35.17
702.098	35.44
702.283	35.42
702.468	35.09
702.653	34.91
702.838	35
703.023	35.21
703.208	35.13
703.393	34.99
703.578	34.75
703.763	34.83
703.948	34.3
704.133	34.26
704.318	34.49
704.503	35.18
704.688	35.37
704.873	35.35
705.057	35.83
705.242	36.2
705.427	36.46
705.612	36.6
705.797	36.72
705.981	37.12
706.166	37.65
706.351	38.25
706.536	37.99
706.72	38.05
706.905	38.61
707.09	38.36
707.274	38.28
707.459	38.5
707.644	39.03
707.828	38.89
708.013	38.58
708.197	38.18
708.382	37.68
708.567	37.82
708.751	37.73
708.936	37.25
709.12	37.27
709.305	37.52
709.489	36.95
709.673	36.41
709.858	36.44
710.042	36.95
710.227	36.78
710.411	37.04
710.596	37.21
710.78	37.12
710.964	37.07
711.149	36.87
711.333	36.88
711.517	37.29
711.702	37.21
711.886	37.18
712.07	37.03
712.254	37.07
712.438	36.78
712.623	36.48
712.807	36.56
712.991	36.33
713.175	36.78
713.359	36.57
713.544	36.82
713.728	36.8
713.912	36.59
714.096	36.26
714.28	36.13
714.464	36.03
714.648	36.19
714.832	36.07
715.016	36.24
715.2	35.52
715.384	35.15
715.568	34.98
715.752	34.75
715.936	34.85
716.12	34.88
716.304	34.8
716.488	34.91
716.671	34.55
716.855	34.66
717.039	34.74
717.223	35.36
717.407	35.15
717.59	34.72
717.774	35
717.958	34.61
718.142	34.52
718.325	34.16
718.509	33.86
718.693	33.73
718.877	33.81
719.06	33.33
719.244	33.21
719.428	33.13
719.611	33.59
719.795	33.49
719.978	33.63
720.162	33.7
720.345	34.37
720.529	34.63
720.713	35.05
720.896	34.99
721.08	35.49
721.263	35.17
721.446	36.05
721.63	35.87
721.813	35.75
721.997	35.65
722.18	35.81
722.364	35.33
722.547	35.03
722.73	35.22
722.914	34.8
723.097	34.87
723.28	34.83
723.464	34.52
723.647	34.67
723.83	35.16
724.013	35.65
724.197	35.76
724.38	36.14
724.563	36.12
724.746	35.99
724.929	36.06
725.112	35.81
725.296	36.02
725.479	35.87
725.662	35.6
725.845	35.38
726.028	35.12
726.211	34.58
726.394	34.19
726.577	34.59
726.76	34.5
726.943	34.78
727.126	34.86
727.309	34.52
727.492	34.54
727.675	34.6
727.858	34.63
728.041	34.48
728.224	34.89
728.407	35.18
728.589	34.9
728.772	35.03
728.955	34.72
729.138	34.55
729.321	35.24
729.503	35.36
729.686	35.34
729.869	35.29
730.052	35.09
730.234	34.89
730.417	35.01
730.6	35.06
730.782	35.11
730.965	35.78
731.148	36.01
731.33	35.47
731.513	34.98
731.695	35.28
731.878	34.84
732.061	35.15
732.243	35.39
732.426	35.21
732.608	35.48
732.791	35.2
732.973	34.79
733.156	34.99
733.338	35.11
733.52	35.79
733.703	35.52
733.885	35.95
734.068	36.23
734.25	36.31
734.432	36.58
734.615	36.13
734.797	36.55
734.979	35.84
735.162	35.48
735.344	35.65
735.526	35.94
735.708	36.12
735.891	36.02
736.073	35.73
736.255	35.14
736.437	35.31
736.619	36.01
736.802	35.63
736.984	35.87
737.166	35.97
737.348	36.1
737.53	35.12
737.712	35.36
737.894	35.06
738.076	35.46
738.258	36.03
738.44	35.98
738.622	35.42
738.804	35.43
738.986	35.9
739.168	35.52
739.35	35.21
739.532	35.51
739.714	35.07
739.896	35.44
740.078	35.38
740.259	35.18
740.441	35.06
740.623	34.96
740.805	34.88
740.987	34.97
741.168	35.95
741.35	36.52
741.532	36.86
741.714	36.75
741.895	37.05
742.077	37.16
742.259	37.19
742.44	36.95
742.622	37.68
742.804	38.26
742.985	38.02
743.167	37.63
743.348	37.45
743.53	37.14
743.711	37.49
743.893	37.66
744.075	37.26
744.256	36.91
744.438	37.34
744.619	37.31
744.8	36.86
744.982	36.67
745.163	36.57
745.345	36.03
745.526	36.59
745.707	36.98
745.889	36.54
746.07	36.12
746.252	36.94
746.433	37.45
746.614	37.29
746.795	37.77
746.977	38.83
747.158	38.84
747.339	39.05
747.52	38.3
747.702	37.27
747.883	37.31
748.064	37.75
748.245	37.14
748.426	36.8
748.607	36.03
748.788	35.3
748.97	35.06
749.151	34.3
749.332	34.63
749.513	34.95
749.694	35.83
749.875	35.19
750.056	35.43
750.237	35.54
750.418	35.59
750.599	36.11
750.78	36.65
750.96	35.68
751.141	36
751.322	35.65
751.503	35.78
751.684	35.2
751.865	36.22
752.046	36.95
752.226	37.09
752.407	36.47
752.588	36.87
752.769	36.55
752.949	36.69
753.13	36.55
753.311	36.84
753.492	36.68
753.672	36.97
753.853	36.47
754.034	35.82
754.214	35.34
754.395	35.14
754.575	34.85
754.756	35.4
754.937	36
755.117	35.67
755.298	35.55
755.478	35.65
755.659	35.51
755.839	35.65
756.02	34.68
756.2	35.33
756.381	35.77
756.561	35.92
756.741	35.29
756.922	34.82
757.102	35.44
757.283	34.61
757.463	34.89
757.643	34.75
757.823	34.58
758.004	35.21
758.184	35.06
758.364	34.87
758.545	35.03
758.725	34.74
758.905	35.74
759.085	35.95
759.265	36.38
759.446	35.78
759.626	35.96
759.806	36.04
759.986	35.9
760.166	35.4
760.346	35.29
760.526	34.68
760.706	34.83
760.886	34.54
761.066	34.6
761.246	34.83
761.426	34.81
761.606	34.75
761.786	34.8
761.966	34.89
762.146	34.74
762.326	35.15
762.506	35.39
762.686	35.86
762.866	36.01
763.046	35.53
763.225	35.49
763.405	35.61
763.585	35.69
763.765	35.47
763.945	35.47
764.124	35.78
764.304	35.8
764.484	36.04
764.664	35.91
764.843	35.42
765.023	35.91
765.203	35.37
765.382	35.59
765.562	35.12
765.741	35.07
765.921	35.67
766.101	35.89
766.28	35.24
766.46	35.18
766.639	34.98
766.819	35.09
766.998	34.4
767.178	35.05
767.357	34.8
767.537	35.14
767.716	35.09
767.896	33.81
768.075	33.1
768.254	33.21
768.434	31.93
768.613	31.74
768.792	31.72
768.972	32.5
769.151	32.75
769.33	32.51
769.51	31.92
769.689	32.13
769.868	32.93
770.047	33.84
770.226	33.74
770.406	34.6
770.585	34.24
770.764	34.1
770.943	33.17
771.122	33.41
771.301	33.73
771.48	33.78
771.66	33.55
771.839	33.62
772.018	33.27
772.197	33.88
772.376	34.12
772.555	35.18
772.734	35.06
772.913	35.83
773.092	35.05
773.271	34.81
773.449	35.5
773.628	36.29
773.807	36.11
773.986	36.48
774.165	36.25
774.344	35.85
774.523	35.64
774.701	36.71
774.88	36.19
775.059	36.57
775.238	36.96
775.417	37.42
775.595	37.44
775.774	37.35
775.953	36.62
776.131	36.97
776.31	37.14
776.489	36.8
776.667	36.51
776.846	37.06
777.025	36.59
777.203	36.27
777.382	36.52
777.56	36.39
777.739	37.14
777.917	37.18
778.096	37.01
778.274	37.24
778.453	37.29
778.631	36.75
778.81	36.73
778.988	36.61
779.166	37.24
779.345	37.14
779.523	36.97
779.702	36.44
779.88	35.71
780.058	36.61
780.237	37.27
780.415	37.98
780.593	37.46
780.771	37.53
780.95	38.42
781.128	37.7
781.306	36.86
781.484	37.57
781.662	37.16
781.841	37.75
782.019	36.52
782.197	35.68
782.375	34.96
782.553	35.32
782.731	34.06
782.909	34.01
783.087	35.05
783.265	35.02
783.443	34.3
783.621	35.18
783.799	34.91
783.977	36.13
784.155	36.21
784.333	35.5
784.511	35.7
784.689	35.98
784.867	35.12
785.045	34.43
785.223	35.04
785.4	35.56
785.578	35.12
785.756	35.68
785.934	34.48
786.112	34.43
786.289	35.23
786.467	34.62
786.645	35.66
786.823	36.67
787	36.18
787.178	35.96
787.356	35.98
787.533	35.1
787.711	35.35
787.889	35.26
788.066	34.89
788.244	35.6
788.421	36.35
788.599	36.69
788.776	35.64
788.954	34.91
789.131	35.19
789.309	34.14
789.486	34.32
789.664	34.39
789.841	34.73
790.019	35.14
790.196	34.67
790.373	34.8
790.551	34.36
790.728	34.73
790.906	35.32
791.083	36.85
791.26	37.09
791.437	37.29
791.615	36.93
791.792	36.94
791.969	37.14
792.146	36.99
792.324	36.23
792.501	35.36
792.678	34.95
792.855	34.19
793.032	32.69
793.209	32.82
793.387	33.43
793.564	35.06
793.741	35.42
793.918	35.38
794.095	35.12
794.272	35.58
794.449	35.57
794.626	35.86
794.803	38.19
794.98	37.72
795.157	38.36
795.334	38.15
795.511	37.12
795.688	37.34
795.864	37.63
796.041	36.48
796.218	36.87
796.395	37.93
796.572	37.52
796.749	35.72
796.925	35.08
797.102	34.87
797.279	34.85
797.456	34.31
797.632	33.66
797.809	33.28
797.986	34.47
798.162	33.7
798.339	33.94
798.516	35.52
798.692	35.1
798.869	36.59
799.046	36.45
799.222	37.15
799.399	36.65
799.575	36.99
799.752	36.72
799.928	35.88
800.105	35.34
800.281	35.12
800.458	33.87
800.634	34.27
800.811	34.59
800.987	34.89
801.163	34.7
801.34	35.22
801.516	35.5
801.692	35.13
801.869	35.86
802.045	36.44
802.221	35.95
802.398	35.44
802.574	36.7
802.75	35.84
802.926	36.2
803.103	35.14
803.279	35.51
803.455	35.02
803.631	35.24
803.807	35.12
803.983	35.55
804.16	36.07
804.336	36.41
804.512	35.67
804.688	34.93
804.864	35.14
805.04	35.48
805.216	35.82
805.392	34.81
805.568	34.45
805.744	33.74
805.92	33.4
806.096	33.68
806.272	34.2
806.448	34.58
806.623	35.25
806.799	34.28
806.975	34.03
807.151	32.41
807.327	32.12
807.503	32.33
807.678	33.93
807.854	34.43
808.03	33.24
808.206	33.06
808.381	31.95
808.557	31.14
808.733	30.64
808.908	30.95
809.084	32.39
809.26	33.54
809.435	32.17
809.611	31.29
809.787	30.78
809.962	31.58
810.138	30.14
810.313	32.97
810.489	34.92
810.664	34.44
810.84	35.87
811.015	34.64
811.191	34.55
811.366	35.99
811.542	35.31
811.717	36.63
811.892	36.3
812.068	37.84
812.243	35.63
812.419	33.9
812.594	33.36
812.769	31.5
812.944	32.21
813.12	32.01
813.295	31.46
813.47	32.09
813.645	30.4
813.821	31
813.996	30.49
814.171	31
814.346	30.83
814.521	31.7
814.697	32.18
814.872	32.39
815.047	33
815.222	32.52
815.397	32.42
815.572	31.75
815.747	31.04
815.922	30.8
816.097	31.84
816.272	32.8
816.447	32.24
816.622	32.67
816.797	33.89
816.972	34.26
817.147	35.38
817.322	35.49
817.496	36.83
817.671	35.85
817.846	35.99
818.021	34.45
818.196	33.16
818.371	33.71
818.545	34.61
818.72	33.3
818.895	32.02
819.069	31.15
819.244	31.84
819.419	31.9
819.594	32.75
819.768	32.88
819.943	32.75
820.117	33.04
820.292	33.22
820.467	32.01
820.641	31.86
820.816	31.78
820.99	32.29
821.165	31.42
821.339	30.57
821.514	30.25
821.688	30.01
821.863	30.27
822.037	29.93
822.212	29.53
822.386	29.36
822.56	29.18
822.735	29.31
822.909	29.17
823.084	29.4
823.258	29.61
823.432	29.76
823.606	29.93
823.781	29.9
823.955	30.27
824.129	30.61
824.303	30.97
824.478	31.45
824.652	31.02
824.826	31.16
825	30.74
825.174	30.72
825.348	30.39
825.523	30.24
825.697	29.75
825.871	29.55
826.045	29.99
826.219	29.46
826.393	28.53
826.567	29.4
826.741	29.67
826.915	29.99
827.089	29.71
827.263	30.12
827.437	30.17
827.611	30.45
827.784	30.31
827.958	30.3
828.132	30.77
828.306	31.54
828.48	31.62
828.654	31.31
828.827	31.91
829.001	31.83
829.175	32.37
829.349	32.57
829.522	32.68
829.696	33.03
829.87	31.44
830.044	30.83
830.217	31.35
830.391	31.11
830.565	30.53
830.738	29.7
830.912	30.55
831.085	30.87
831.259	30.46
831.432	31.49
831.606	31.91
831.779	32.89
831.953	32.68
832.126	31.09
832.3	29.86
832.473	30.33
832.647	30.16
832.82	30.12
832.994	28.88
833.167	28.72
833.34	28.73
833.514	27.77
833.687	27.65
833.86	28.28
834.034	28.75
834.207	29
834.38	29.17
834.553	28.75
834.727	28.93
834.9	28.3
835.073	28.79
835.246	27.99
835.419	28.89
835.593	28.64
835.766	28.51
835.939	28.17
836.112	28.46
836.285	28.11
836.458	30.75
836.631	31.89
836.804	32.34
836.977	32.52
837.15	32.87
837.323	32.37
837.496	34.91
837.669	35.51
837.842	35.05
838.015	35.59
838.188	35.38
838.361	32.46
838.533	30.68
838.706	30.6
838.879	30.2
839.052	29.75
839.225	30.19
839.398	28.13
839.57	27.12
839.743	27.62
839.916	28.86
840.088	26.58
840.261	27.07
840.434	27.8
840.607	30.4
840.779	30.11
840.952	30.16
841.124	30.47
841.297	30.97
841.47	31.45
841.642	32.49
841.815	31.15
841.987	34.08
842.16	33.09
842.332	32.79
842.505	30.67
842.677	31.63
842.85	32.2
843.022	33.74
843.194	33.31
843.367	35.3
843.539	34.5
843.712	33.11
843.884	30.53
844.056	32.66
844.229	33.09
844.401	34.79
844.573	32.73
844.745	30.16
844.918	27.66
845.09	29.95
845.262	27.37
845.434	28.48
845.606	28.14
845.779	29.79
845.951	27.59
846.123	27.43
846.295	27.89
846.467	32.26
846.639	36.7
846.811	34.2
846.983	33.41
847.155	33.83
847.327	35.6
847.499	36.55
847.671	39.69
847.843	38.4
848.015	39.02
848.187	35.83
848.359	37.38
848.531	34.47
848.703	40.04
848.875	41.22
849.047	41.29
849.218	40.63
849.39	40.5
849.562	38.4
849.734	38.51
849.905	37.14
850.077	40.14
850.249	35.44
850.421	39.24
850.592	34.4
850.764	32.69
850.936	33.44
851.107	32.03
851.279	27.92
851.451	30.44
851.622	35.1
851.794	35.71
851.965	37.62
852.137	36.26
852.308	35.85
852.48	36.14
852.651	34.78
852.823	35.17
852.994	32.8
853.166	38.43
853.337	36.48
853.509	36.16
853.68	35.1
853.851	30.65
854.023	30.66
854.194	33.21
854.365	32.84
854.537	34.05
854.708	33.29
854.879	32.81
855.05	32.08
855.222	32.5
855.393	33.52
855.564	34.75
855.735	36.79
855.906	41
856.078	37.04
856.249	40.6
856.42	39.98
856.591	42.21
856.762	44.4
856.933	45.11
857.104	48.67
857.275	46.34
857.446	44.89
857.617	46.09
857.788	44.35
857.959	42.31
858.13	42.24
858.301	40.8
858.472	37.26
858.643	35.78
858.814	30.2
858.985	27.21
859.155	22.01
859.326	26.5
859.497	28.76
859.668	25.12
859.839	25.94
860.009	24.36
860.18	27.72
860.351	27.74
860.522	26.36
860.692	27.93
860.863	31.72
861.034	35.73
861.204	33.73
861.375	29.55
861.546	34.65
861.716	34.12
861.887	32.36
862.057	27.71
862.228	27.75
862.398	28.31
862.569	30.44
862.739	28.24
862.91	29.82
863.08	26.17
863.251	31.52
863.421	29.95
863.592	34.85
863.762	32.96
863.932	36.61
864.103	37.92
864.273	42.92
864.443	43.35
864.614	44.04
864.784	45.32
864.954	48.05
865.125	44.3
865.295	45.48
865.465	40.51
865.635	42.56
865.805	41.08
865.976	42.1
866.146	41.47
866.316	41.32
866.486	40.77
866.656	35.04
866.826	31.47
866.996	34.01
867.166	32.31
867.336	35.29
867.506	38.62
867.676	37.75
867.846	36
868.016	31.51
868.186	27.88
868.356	22.33
868.526	25.32
868.696	27.93
868.866	25.37
869.036	20.28
869.206	24.04
869.376	21.17
869.545	24.71
869.715	22.38
869.885	23.79
870.055	26.53
870.224	33.32
870.394	34.88
870.564	33.68
870.734	34.87
870.903	40.36
871.073	35.64
871.243	36.37
871.412	34.16
871.582	44.23
871.751	44.21
871.921	38.57
872.091	36.64
872.26	39.62
872.43	41.18
872.599	38.33
872.769	34.23
872.938	36.34
873.108	37.33
873.277	32.38
873.446	22.6
873.616	24.33
873.785	23.05
873.955	22.69
874.124	20.49
874.293	16
874.463	16.35
874.632	17.31
874.801	16.05
874.971	15.34
875.14	18.95
875.309	21.77
875.478	22.86
875.647	27.61
875.817	23.97
875.986	25.74
876.155	28.76
876.324	29.2
876.493	28.85
876.662	29.35
876.831	26.86
877	30.54
877.17	32.08
877.339	32.5
877.508	28.86
877.677	31.91
877.846	25.75
878.015	26.15
878.184	27.46
878.352	30.99
878.521	27.57
878.69	30.14
878.859	29.2
879.028	27.96
879.197	27.46
879.366	30.34
879.534	32.83
879.703	37.36
879.872	34.85
880.041	31.64
880.21	32.03
880.378	32.06
880.547	29.73
880.716	27.77
880.884	27.83
881.053	26.55
881.222	25.79
881.39	23.77
881.559	22.99
881.727	23.37
881.896	23.69
882.065	22.49
882.233	23.26
882.402	23.43
882.57	23.64
882.739	23.35
882.907	23.97
883.076	23.8
883.244	24.33
883.412	24.52
883.581	24.08
883.749	24.11
883.918	25.74
884.086	24.3
884.254	24.44
884.423	24.76
884.591	25.64
884.759	25.37
884.927	26.03
885.096	26.12
885.264	26.71
885.432	28.52
885.6	28.07
885.769	26.16
885.937	26.3
886.105	29.3
886.273	27.71
886.441	28.69
886.609	29.6
886.777	29.13
886.945	27.37
887.113	24.61
887.281	20.87
887.449	23.9
887.617	24.61
887.785	25.76
887.953	22.62
888.121	25.44
888.289	22.7
888.457	19.48
888.625	22.79
888.793	25.61
888.961	28.13
889.129	29.6
889.296	24.91
889.464	23.69
889.632	23.02
889.8	21.44
889.967	19.29
890.135	16.39
