Data from 2938780__Reflection_03.txt Node
Date: Fri Mar 13 13:01:36 EDT 2015
User: robert
Spectrometer: USB4E03002
Autoset integration time: false
Trigger mode: 4
Integration Time (sec): 1.000000E-1
Scans to average: 10
Electric dark correction enabled: false
Nonlinearity correction enabled: false
Boxcar width: 5
Stray light correction enabled: false
XAxis mode: Wavelengths
Stop averaging: false
Number of Pixels in Spectrum: 3648
>>>>>Begin Spectral Data<<<<<
177.575	97.02
177.794	98.37
178.014	94.9
178.233	88.37
178.452	90.99
178.672	87.45
178.891	90.28
179.11	88.05
179.33	92.89
179.549	89.32
179.768	91.16
179.987	93.63
180.207	93.66
180.426	90.88
180.645	95.23
180.864	90.86
181.084	87.01
181.303	84.63
181.522	83.9
181.741	80.73
181.96	81.05
182.179	77.03
182.398	72.49
182.618	71.29
182.837	75.06
183.056	75.6
183.275	77.49
183.494	82.8
183.713	85.08
183.932	91.2
184.151	88.35
184.37	89.12
184.589	92.34
184.808	95.31
185.027	95.43
185.246	96.74
185.465	94.45
185.684	99.64
185.903	100.36
186.122	98.28
186.341	90.87
186.56	92.87
186.779	94
186.998	95.04
187.216	95.55
187.435	94.58
187.654	86.04
187.873	84.18
188.092	80.89
188.311	78.91
188.53	77.4
188.748	80.28
188.967	79.65
189.186	77.19
189.405	79.3
189.623	81.55
189.842	83.78
190.061	90.39
190.28	97.31
190.498	95.55
190.717	98.27
190.936	101.72
191.154	101.37
191.373	100.98
191.592	101.58
191.81	95.99
192.029	94.64
192.248	92.54
192.466	91.47
192.685	85
192.904	87.34
193.122	83.01
193.341	83.38
193.559	80.93
193.778	79.68
193.996	82.41
194.215	80.67
194.433	80
194.652	80.66
194.87	78.1
195.089	79.99
195.307	78.76
195.526	79.84
195.744	79.19
195.963	81.94
196.181	81.05
196.399	77.85
196.618	79.69
196.836	82.14
197.055	83.2
197.273	86.14
197.491	86.48
197.71	88.48
197.928	89.22
198.146	90.25
198.365	88.68
198.583	90.39
198.801	92.76
199.019	94.4
199.238	92.51
199.456	94.76
199.674	92.64
199.892	89.14
200.111	86.32
200.329	91.67
200.547	88.12
200.765	92.97
200.983	92.1
201.202	90.88
201.42	94.05
201.638	90.57
201.856	84.09
202.074	85.87
202.292	87.14
202.51	84.19
202.728	77.24
202.946	77.92
203.165	75.48
203.383	78.81
203.601	78.13
203.819	74.6
204.037	77.97
204.255	82.14
204.473	81.89
204.691	83.6
204.909	87.63
205.127	88.66
205.345	88.33
205.562	84.94
205.78	85.76
205.998	86.65
206.216	87.64
206.434	85.85
206.652	88.93
206.87	87.78
207.088	85.92
207.306	86.73
207.523	87.62
207.741	85.91
207.959	85.21
208.177	82.38
208.395	83.72
208.612	81.82
208.83	82.26
209.048	76.64
209.266	77.1
209.483	75.48
209.701	72.79
209.919	68.78
210.136	72.07
210.354	72.81
210.572	72.59
210.79	68.89
211.007	71.82
211.225	70.59
211.442	68.08
211.66	70.9
211.878	74.58
212.095	75.86
212.313	81.21
212.53	77.32
212.748	74.4
212.966	75.9
213.183	74.78
213.401	74.59
213.618	73.98
213.836	76.85
214.053	74.42
214.271	74.63
214.488	76.63
214.705	73.81
214.923	73.01
215.14	74.88
215.358	71.33
215.575	76.42
215.793	75.9
216.01	77.7
216.227	79.6
216.445	75.61
216.662	77.99
216.879	76.19
217.097	76.45
217.314	75.88
217.531	75.7
217.749	78.26
217.966	75.34
218.183	76.14
218.4	71.94
218.618	71.28
218.835	69.68
219.052	65.53
219.269	66.39
219.487	66.67
219.704	72.13
219.921	72.37
220.138	72.32
220.355	70.78
220.572	68.99
220.79	67.81
221.007	67.2
221.224	69.7
221.441	68.58
221.658	68.44
221.875	67.97
222.092	64.16
222.309	63.78
222.526	61.44
222.743	60.57
222.96	57.61
223.177	59.91
223.394	56.36
223.611	55.87
223.828	56.98
224.045	54.24
224.262	48.96
224.479	45.7
224.696	45.88
224.913	43.22
225.13	42.66
225.347	43.04
225.564	42.06
225.781	40.97
225.997	39.25
226.214	35.49
226.431	34.21
226.648	33.5
226.865	32.59
227.082	28.73
227.298	26.64
227.515	23.87
227.732	20.96
227.949	18.98
228.165	17.7
228.382	16.64
228.599	16.74
228.816	15.58
229.032	15.21
229.249	14.06
229.466	14.34
229.682	14.98
229.899	15.37
230.116	15.22
230.332	15.9
230.549	16.53
230.765	17.11
230.982	17.34
231.199	18.22
231.415	20.43
231.632	23.14
231.848	24.97
232.065	25.85
232.281	26.84
232.498	27.82
232.714	27.99
232.931	28.65
233.147	29.01
233.364	28.34
233.58	28.65
233.797	27.6
234.013	25.99
234.23	24.98
234.446	23.81
234.662	23.58
234.879	23.68
235.095	23.1
235.312	23.45
235.528	23.05
235.744	23.21
235.961	22.65
236.177	22.7
236.393	23.96
236.61	24.53
236.826	24.78
237.042	23.79
237.258	24.36
237.475	25.19
237.691	25.43
237.907	26.02
238.123	27.05
238.339	27.78
238.556	27.12
238.772	25.16
238.988	23.11
239.204	22.99
239.42	23.6
239.636	23.21
239.853	22.07
240.069	19.98
240.285	19.39
240.501	17.38
240.717	16.29
240.933	15.29
241.149	15.14
241.365	14.73
241.581	14.2
241.797	13.73
242.013	13.19
242.229	13.2
242.445	13.04
242.661	13.1
242.877	13.22
243.093	13.38
243.309	13.79
243.525	13.86
243.741	13.84
243.957	13.93
244.173	14.69
244.388	14.75
244.604	14.7
244.82	15.04
245.036	14.12
245.252	13.46
245.468	12.99
245.683	12.33
245.899	11.64
246.115	11.35
246.331	10.76
246.547	10.17
246.762	9.75
246.978	9.24
247.194	9.2
247.409	9.07
247.625	9.01
247.841	8.77
248.057	8.71
248.272	9.02
248.488	9.03
248.703	9.2
248.919	9.36
249.135	9.66
249.35	10.77
249.566	10.73
249.782	11.42
249.997	12.07
250.213	12.18
250.428	12.68
250.644	12.86
250.859	12.9
251.075	12.66
251.29	13.2
251.506	13.05
251.721	12.15
251.937	12.24
252.152	12.23
252.368	12.21
252.583	12.31
252.798	12.87
253.014	12.96
253.229	13.35
253.445	14.43
253.66	13.92
253.875	14.92
254.091	15.88
254.306	16.28
254.521	16.97
254.737	18.29
254.952	18.54
255.167	17.94
255.383	17.96
255.598	17.73
255.813	17.05
256.028	16.97
256.244	15.86
256.459	15.76
256.674	15.3
256.889	14.1
257.104	13.17
257.32	12.79
257.535	11.95
257.75	10.81
257.965	10.43
258.18	9.82
258.395	9.02
258.61	8.53
258.826	7.57
259.041	7.41
259.256	7.07
259.471	6.37
259.686	6.29
259.901	6.22
260.116	6.27
260.331	6.13
260.546	6.35
260.761	6.58
260.976	6.77
261.191	6.79
261.406	6.64
261.621	7.03
261.836	7.31
262.05	7.74
262.265	7.95
262.48	8.46
262.695	8.91
262.91	9.12
263.125	9.11
263.34	9.14
263.555	10.27
263.769	11.04
263.984	11.02
264.199	11.54
264.414	10.89
264.629	11.33
264.843	11.66
265.058	11.87
265.273	11.43
265.488	11.28
265.702	11.18
265.917	10.9
266.132	10.63
266.346	10.26
266.561	10.25
266.776	10.93
266.99	10.62
267.205	10.32
267.42	9.87
267.634	9.13
267.849	9.38
268.063	9.6
268.278	9.42
268.492	9.76
268.707	9.92
268.922	9.48
269.136	9.11
269.351	8.87
269.565	8.29
269.78	8.31
269.994	8.58
270.209	8.01
270.423	7.32
270.637	7.01
270.852	6.38
271.066	6.21
271.281	6.61
271.495	6.58
271.709	6.75
271.924	6.89
272.138	6.78
272.353	6.95
272.567	7.4
272.781	7.76
272.996	7.64
273.21	7.91
273.424	8.08
273.638	7.78
273.853	7.77
274.067	7.99
274.281	8.31
274.495	8.43
274.71	8.95
274.924	9.02
275.138	9.2
275.352	9.37
275.566	9.53
275.781	9.51
275.995	10.12
276.209	10.07
276.423	10.06
276.637	9.97
276.851	10.26
277.065	9.8
277.279	9.72
277.493	9.64
277.707	10.04
277.921	9.55
278.135	9.39
278.349	8.85
278.563	9
278.777	8.89
278.991	8.44
279.205	8.74
279.419	9.11
279.633	8.66
279.847	8.56
280.061	8.33
280.275	8.1
280.489	8.46
280.703	8.85
280.917	8.88
281.131	8.82
281.344	8.81
281.558	8.11
281.772	7.97
281.986	8.08
282.2	7.87
282.414	8.06
282.627	8.06
282.841	7.93
283.055	7.73
283.269	7.5
283.482	7.26
283.696	7.48
283.91	7.68
284.123	7.13
284.337	6.96
284.551	6.91
284.764	6.62
284.978	6.59
285.192	6.28
285.405	6.28
285.619	6.17
285.833	6.52
286.046	6.21
286.26	6.29
286.473	6.61
286.687	6.55
286.9	6.6
287.114	6.32
287.327	6.63
287.541	6.96
287.754	6.79
287.968	7.29
288.181	7.04
288.395	7.47
288.608	7.49
288.822	7.31
289.035	7.26
289.248	7.22
289.462	7.49
289.675	7.2
289.889	7.14
290.102	6.96
290.315	6.38
290.529	6.42
290.742	6.26
290.955	6.24
291.169	6.54
291.382	6.68
291.595	6.91
291.808	7.01
292.022	7.58
292.235	7.65
292.448	7.84
292.661	8.18
292.875	8.14
293.088	8.15
293.301	7.93
293.514	7.84
293.727	8.02
293.94	7.99
294.153	7.69
294.367	7.08
294.58	7.04
294.793	7.26
295.006	6.87
295.219	6.66
295.432	6.9
295.645	6.81
295.858	6.43
296.071	6.08
296.284	5.87
296.497	5.87
296.71	5.63
296.923	5.6
297.136	5.42
297.349	5.51
297.562	5.56
297.775	5.45
297.988	5.46
298.201	5.69
298.414	5.77
298.626	5.88
298.839	5.84
299.052	6.16
299.265	6.43
299.478	6.46
299.691	6.86
299.903	7
300.116	7.28
300.329	7.47
300.542	7.54
300.755	8.06
300.967	7.99
301.18	8.12
301.393	8.28
301.605	8.15
301.818	8.17
302.031	8.05
302.243	7.79
302.456	7.48
302.669	7.71
302.881	7.83
303.094	7.96
303.307	8.01
303.519	8.03
303.732	8.26
303.944	8.24
304.157	8.54
304.37	8.33
304.582	8.6
304.795	8.63
305.007	8.25
305.22	8.34
305.432	7.86
305.645	8.03
305.857	8.53
306.069	8.35
306.282	8.23
306.494	8.17
306.707	8.27
306.919	8.57
307.132	8.45
307.344	8.56
307.556	8.36
307.769	8.6
307.981	8.4
308.193	7.84
308.406	7.72
308.618	7.79
308.83	7.8
309.043	7.77
309.255	7.38
309.467	7.4
309.679	7.17
309.892	7.15
310.104	6.86
310.316	6.84
310.528	7
310.74	6.91
310.953	6.62
311.165	6.61
311.377	6.82
311.589	7.08
311.801	7.09
312.013	7.25
312.225	7.17
312.437	7.45
312.649	7.59
312.862	7.91
313.074	8.35
313.286	8.53
313.498	8.88
313.71	8.93
313.922	9.07
314.134	9.29
314.346	9.78
314.558	10.01
314.77	10.15
314.982	10.35
315.193	10.42
315.405	10.42
315.617	10.73
315.829	10.59
316.041	10.58
316.253	10.54
316.465	10.57
316.677	10.43
316.888	10.2
317.1	10.38
317.312	10.5
317.524	10.46
317.736	10.44
317.947	10.85
318.159	10.83
318.371	10.99
318.583	11.23
318.794	11.3
319.006	11.31
319.218	11.7
319.43	11.67
319.641	11.91
319.853	11.79
320.064	11.93
320.276	11.47
320.488	11.78
320.699	12.12
320.911	12.32
321.123	12.53
321.334	12.57
321.546	12.84
321.757	13.05
321.969	12.96
322.18	13.04
322.392	13.06
322.603	13.83
322.815	13.65
323.026	13.49
323.238	13.48
323.449	13.39
323.661	13.71
323.872	13.8
324.083	13.72
324.295	13.48
324.506	13.72
324.718	13.77
324.929	13.87
325.14	14.18
325.352	14.16
325.563	14.42
325.774	14.85
325.986	14.9
326.197	14.85
326.408	15.24
326.62	15.94
326.831	16.23
327.042	16.6
327.253	17.06
327.464	17.57
327.676	17.91
327.887	18.27
328.098	18.37
328.309	18.91
328.52	19.55
328.732	19.81
328.943	20.28
329.154	20.79
329.365	21.15
329.576	21.26
329.787	21.43
329.998	21.84
330.209	21.96
330.42	22.73
330.631	23.15
330.842	23.24
331.053	23.99
331.264	23.75
331.475	23.74
331.686	23.92
331.897	23.97
332.108	24.1
332.319	24.39
332.53	24.55
332.741	24.45
332.952	24.22
333.163	24.52
333.374	24.66
333.585	25.09
333.795	25.62
334.006	25.99
334.217	25.94
334.428	25.96
334.639	26.07
334.849	25.97
335.06	26.31
335.271	26.49
335.482	26.85
335.692	26.43
335.903	26.64
336.114	26.15
336.325	26.12
336.535	26.44
336.746	26.37
336.957	26.6
337.167	27.03
337.378	26.96
337.589	27.26
337.799	26.9
338.01	27.27
338.22	27.05
338.431	27.17
338.642	27.42
338.852	27.03
339.063	27.2
339.273	26.8
339.484	26.61
339.694	26.27
339.905	26.29
340.115	26.6
340.326	26.52
340.536	26.39
340.746	26.53
340.957	26.37
341.167	26.64
341.378	26.65
341.588	26.84
341.799	26.77
342.009	26.93
342.219	26.79
342.43	26.8
342.64	26.45
342.85	26.58
343.061	26.62
343.271	26.73
343.481	26.61
343.691	26.48
343.902	26.88
344.112	26.9
344.322	26.75
344.532	26.96
344.743	26.6
344.953	26.71
345.163	26.68
345.373	26.39
345.583	26.04
345.793	26.27
346.004	26.31
346.214	26.11
346.424	26.22
346.634	26.53
346.844	26.48
347.054	26.73
347.264	26.69
347.474	26.46
347.684	26.58
347.894	26.86
348.104	26.72
348.314	26.81
348.524	26.74
348.734	26.77
348.944	27.03
349.154	26.71
349.364	26.39
349.574	26.51
349.784	26.54
349.994	26.48
350.204	26.34
350.413	26.23
350.623	26.17
350.833	25.83
351.043	25.68
351.253	25.18
351.463	25.24
351.672	25.34
351.882	25.31
352.092	25.37
352.302	25.45
352.511	25.21
352.721	25.37
352.931	25.38
353.141	25.37
353.35	25.21
353.56	25.02
353.77	24.89
353.979	24.76
354.189	24.77
354.399	24.62
354.608	24.7
354.818	24.7
355.027	24.71
355.237	24.66
355.447	25.07
355.656	25.02
355.866	25.02
356.075	25.2
356.285	25.29
356.494	25.08
356.704	25.28
356.913	25.05
357.123	25.07
357.332	24.82
357.542	24.61
357.751	24.41
357.96	24.4
358.17	24.37
358.379	24.15
358.589	24.09
358.798	24.22
359.007	24.14
359.217	24.22
359.426	24.06
359.635	24.08
359.845	24.31
360.054	24.07
360.263	24.12
360.472	24.11
360.682	24.14
360.891	24.05
361.1	23.78
361.309	23.6
361.519	23.6
361.728	23.59
361.937	23.61
362.146	23.46
362.355	23.46
362.564	23.59
362.774	23.66
362.983	23.47
363.192	23.45
363.401	23.48
363.61	23.49
363.819	23.54
364.028	23.71
364.237	23.79
364.446	23.8
364.655	23.87
364.864	23.35
365.073	23.28
365.282	23.46
365.491	23.39
365.7	23.45
365.909	23.29
366.118	23.2
366.327	23.15
366.536	23.12
366.745	23.13
366.954	23.15
367.162	23.55
367.371	23.7
367.58	23.75
367.789	23.81
367.998	23.85
368.207	24.22
368.415	24.36
368.624	24.46
368.833	24.28
369.042	24.3
369.25	24.31
369.459	24.18
369.668	24.02
369.877	23.95
370.085	23.69
370.294	23.63
370.503	23.46
370.711	23.3
370.92	23.16
371.129	23.25
371.337	22.98
371.546	22.83
371.754	22.88
371.963	22.82
372.171	22.76
372.38	23.13
372.589	23.07
372.797	23.02
373.006	23.05
373.214	23.13
373.423	23.08
373.631	23.35
373.84	23.29
374.048	23.23
374.256	23.08
374.465	22.99
374.673	22.96
374.882	23.2
375.09	23.42
375.298	23.12
375.507	23.06
375.715	23.16
375.923	23.01
376.132	23.03
376.34	23.15
376.548	23.24
376.757	23.17
376.965	23.31
377.173	23.18
377.381	22.88
377.59	23.29
377.798	23.12
378.006	22.95
378.214	22.83
378.423	22.92
378.631	22.79
378.839	22.89
379.047	22.79
379.255	22.53
379.463	22.63
379.671	22.71
379.879	22.44
380.088	22.48
380.296	22.52
380.504	22.52
380.712	22.31
380.92	22.39
381.128	22.32
381.336	22.39
381.544	22.23
381.752	22.13
381.96	22.07
382.168	22.14
382.376	22.29
382.584	22.47
382.791	22.5
382.999	22.45
383.207	22.28
383.415	22.22
383.623	22.33
383.831	22.41
384.039	22.23
384.247	22.34
384.454	22.31
384.662	22.14
384.87	22.01
385.078	22.08
385.285	22.18
385.493	22.03
385.701	21.93
385.909	22
386.116	22.13
386.324	22.07
386.532	22.07
386.739	22.02
386.947	22.14
387.155	22.16
387.362	22.23
387.57	22.21
387.778	22.28
387.985	22.31
388.193	22.32
388.4	22.15
388.608	22.44
388.816	22.3
389.023	22.22
389.231	22.09
389.438	21.88
389.646	21.76
389.853	21.67
390.061	21.61
390.268	21.68
390.475	21.6
390.683	21.6
390.89	21.4
391.098	21.44
391.305	21.53
391.512	21.47
391.72	21.44
391.927	21.4
392.135	21.55
392.342	21.65
392.549	21.66
392.756	21.52
392.964	21.48
393.171	21.7
393.378	21.61
393.586	21.42
393.793	21.28
394	21.33
394.207	21.42
394.414	21.39
394.622	21.36
394.829	21.39
395.036	21.5
395.243	21.56
395.45	21.25
395.657	21.33
395.864	21.44
396.072	21.62
396.279	21.73
396.486	21.7
396.693	21.56
396.9	21.58
397.107	21.55
397.314	21.64
397.521	21.63
397.728	21.79
397.935	21.88
398.142	21.83
398.349	22
398.556	21.89
398.763	21.86
398.97	21.91
399.177	21.8
399.383	21.75
399.59	21.59
399.797	21.63
400.004	21.68
400.211	21.72
400.418	21.82
400.625	21.84
400.831	21.79
401.038	21.91
401.245	21.78
401.452	22.06
401.658	22
401.865	22.03
402.072	22.09
402.279	22.09
402.485	21.9
402.692	21.82
402.899	21.71
403.105	21.71
403.312	21.6
403.519	21.64
403.725	21.45
403.932	21.38
404.138	21.37
404.345	21.32
404.552	21.19
404.758	21.32
404.965	21.29
405.171	21.33
405.378	21.35
405.584	21.42
405.791	21.52
405.997	21.61
406.204	21.81
406.41	21.75
406.617	21.73
406.823	21.8
407.029	21.81
407.236	21.97
407.442	22.04
407.649	22.19
407.855	22.23
408.061	22.27
408.268	22.17
408.474	22.14
408.68	22.19
408.887	22.21
409.093	22.15
409.299	22.03
409.505	21.88
409.712	21.74
409.918	21.63
410.124	21.53
410.33	21.48
410.537	21.55
410.743	21.52
410.949	21.68
411.155	21.64
411.361	21.71
411.567	21.76
411.773	21.8
411.98	21.79
412.186	21.75
412.392	21.73
412.598	21.77
412.804	21.72
413.01	21.7
413.216	21.75
413.422	21.72
413.628	21.76
413.834	21.73
414.04	21.64
414.246	21.7
414.452	21.66
414.658	21.69
414.864	21.62
415.07	21.79
415.275	21.73
415.481	21.66
415.687	21.61
415.893	21.48
416.099	21.57
416.305	21.67
416.511	21.76
416.716	21.8
416.922	21.74
417.128	21.7
417.334	21.43
417.539	21.49
417.745	21.39
417.951	21.43
418.157	21.51
418.362	21.39
418.568	21.29
418.774	21.12
418.979	21.1
419.185	21.09
419.391	21.13
419.596	21.13
419.802	21.05
420.008	21.02
420.213	21.03
420.419	20.97
420.624	20.99
420.83	21.06
421.035	21.09
421.241	21.02
421.446	21.05
421.652	21
421.857	21.05
422.063	21.09
422.268	21.07
422.474	21.04
422.679	21.06
422.885	21.03
423.09	20.95
423.295	20.9
423.501	20.99
423.706	20.94
423.911	20.97
424.117	20.99
424.322	20.95
424.527	21.02
424.733	21.03
424.938	21.05
425.143	21.01
425.349	21.03
425.554	21.04
425.759	21.05
425.964	21.14
426.169	21.18
426.375	21.17
426.58	21.27
426.785	21.27
426.99	21.31
427.195	21.38
427.4	21.46
427.605	21.58
427.811	21.68
428.016	21.69
428.221	21.71
428.426	21.79
428.631	21.82
428.836	21.79
429.041	21.79
429.246	21.67
429.451	21.7
429.656	21.73
429.861	21.77
430.066	21.73
430.271	21.76
430.476	21.75
430.681	21.74
430.886	21.76
431.09	21.81
431.295	21.88
431.5	22.08
431.705	21.99
431.91	22.07
432.115	22.04
432.32	22.12
432.524	21.96
432.729	22.07
432.934	22.02
433.139	22.03
433.343	22.1
433.548	22.05
433.753	22.04
433.958	22.05
434.162	22.04
434.367	22.06
434.572	22.05
434.776	22.17
434.981	22.06
435.186	22.12
435.39	22.24
435.595	22.22
435.799	22.22
436.004	22.25
436.209	22.29
436.413	22.28
436.618	22.33
436.822	22.33
437.027	22.34
437.231	22.36
437.436	22.41
437.64	22.35
437.845	22.29
438.049	22.42
438.253	22.46
438.458	22.46
438.662	22.44
438.867	22.4
439.071	22.45
439.275	22.38
439.48	22.42
439.684	22.38
439.888	22.41
440.093	22.37
440.297	22.36
440.501	22.3
440.706	22.3
440.91	22.33
441.114	22.38
441.318	22.36
441.523	22.46
441.727	22.49
441.931	22.57
442.135	22.56
442.339	22.62
442.543	22.68
442.748	22.63
442.952	22.73
443.156	22.75
443.36	22.66
443.564	22.62
443.768	22.71
443.972	22.59
444.176	22.56
444.38	22.57
444.584	22.56
444.788	22.41
444.992	22.42
445.196	22.33
445.4	22.35
445.604	22.37
445.808	22.45
446.012	22.36
446.216	22.41
446.42	22.32
446.624	22.27
446.828	22.23
447.032	22.21
447.235	22.27
447.439	22.25
447.643	22.29
447.847	22.33
448.051	22.31
448.254	22.31
448.458	22.37
448.662	22.38
448.866	22.35
449.069	22.48
449.273	22.58
449.477	22.43
449.681	22.53
449.884	22.55
450.088	22.6
450.292	22.57
450.495	22.54
450.699	22.58
450.902	22.57
451.106	22.61
451.31	22.57
451.513	22.61
451.717	22.73
451.92	22.76
452.124	22.63
452.327	22.56
452.531	22.55
452.734	22.59
452.938	22.52
453.141	22.71
453.345	22.89
453.548	22.85
453.752	22.84
453.955	22.92
454.158	22.84
454.362	22.81
454.565	22.75
454.769	22.74
454.972	22.73
455.175	22.77
455.379	22.63
455.582	22.58
455.785	22.6
455.988	22.55
456.192	22.42
456.395	22.42
456.598	22.43
456.801	22.47
457.005	22.51
457.208	22.56
457.411	22.55
457.614	22.5
457.817	22.38
458.021	22.21
458.224	22.26
458.427	22.28
458.63	22.32
458.833	22.29
459.036	22.24
459.239	22.17
459.442	22.07
459.645	21.99
459.848	22.05
460.051	22.07
460.254	22.21
460.457	22.18
460.66	22.19
460.863	22.19
461.066	22.19
461.269	22.18
461.472	22.28
461.675	22.28
461.878	22.38
462.081	22.4
462.284	22.45
462.486	22.46
462.689	22.53
462.892	22.55
463.095	22.56
463.298	22.6
463.5	22.75
463.703	22.73
463.906	22.87
464.109	22.94
464.311	22.95
464.514	22.9
464.717	22.96
464.92	22.99
465.122	22.96
465.325	22.95
465.528	23.02
465.73	23.07
465.933	23
466.135	23.03
466.338	22.82
466.541	22.85
466.743	22.83
466.946	22.76
467.148	22.71
467.351	22.78
467.553	22.88
467.756	22.87
467.958	22.71
468.161	22.91
468.363	22.81
468.566	22.88
468.768	22.87
468.971	22.91
469.173	22.98
469.375	23.03
469.578	23.01
469.78	22.89
469.983	22.95
470.185	23.06
470.387	22.98
470.59	23.03
470.792	23.1
470.994	23.03
471.196	23.01
471.399	22.94
471.601	22.84
471.803	22.79
472.005	22.78
472.208	22.84
472.41	22.77
472.612	22.79
472.814	22.81
473.016	22.84
473.218	22.93
473.421	22.95
473.623	22.97
473.825	23.09
474.027	23.14
474.229	23.2
474.431	23.11
474.633	23.18
474.835	23.13
475.037	23.19
475.239	23.2
475.441	23.2
475.643	23.26
475.845	23.2
476.047	23.18
476.249	23.2
476.451	23.25
476.653	23.3
476.855	23.29
477.057	23.26
477.258	23.17
477.46	23.16
477.662	23.1
477.864	23.05
478.066	23.19
478.268	23.25
478.469	23.21
478.671	23.18
478.873	23.2
479.075	23.11
479.276	23.12
479.478	23.24
479.68	23.19
479.882	23.2
480.083	23.09
480.285	23.03
480.487	23
480.688	22.95
480.89	22.87
481.091	22.8
481.293	22.81
481.495	22.72
481.696	22.6
481.898	22.56
482.099	22.48
482.301	22.44
482.502	22.39
482.704	22.3
482.905	22.29
483.107	22.28
483.308	22.25
483.51	22.25
483.711	22.26
483.913	22.23
484.114	22.27
484.315	22.28
484.517	22.34
484.718	22.3
484.92	22.31
485.121	22.31
485.322	22.32
485.524	22.32
485.725	22.31
485.926	22.31
486.127	22.37
486.329	22.33
486.53	22.29
486.731	22.23
486.932	22.25
487.134	22.28
487.335	22.25
487.536	22.27
487.737	22.29
487.938	22.33
488.139	22.35
488.341	22.34
488.542	22.38
488.743	22.44
488.944	22.49
489.145	22.52
489.346	22.51
489.547	22.57
489.748	22.56
489.949	22.56
490.15	22.5
490.351	22.53
490.552	22.54
490.753	22.52
490.954	22.52
491.155	22.49
491.356	22.51
491.557	22.59
491.758	22.62
491.959	22.63
492.159	22.67
492.36	22.76
492.561	22.77
492.762	22.82
492.963	22.9
493.164	22.91
493.364	23.01
493.565	23.06
493.766	23.01
493.967	23.04
494.167	23.12
494.368	23.16
494.569	23.22
494.769	23.27
494.97	23.38
495.171	23.44
495.371	23.56
495.572	23.64
495.773	23.68
495.973	23.8
496.174	23.81
496.375	23.89
496.575	23.95
496.776	24.01
496.976	24.08
497.177	23.97
497.377	23.93
497.578	23.86
497.778	23.91
497.979	23.92
498.179	23.87
498.38	23.93
498.58	23.95
498.78	23.97
498.981	24.01
499.181	23.98
499.382	24.08
499.582	24.15
499.782	24.33
499.983	24.39
500.183	24.57
500.383	24.65
500.584	24.72
500.784	24.68
500.984	24.66
501.184	24.66
501.385	24.74
501.585	24.75
501.785	24.78
501.985	24.78
502.185	24.72
502.386	24.65
502.586	24.73
502.786	24.81
502.986	25
503.186	25.11
503.386	25.11
503.586	25.05
503.786	25.14
503.987	25.17
504.187	25.21
504.387	25.25
504.587	25.29
504.787	25.32
504.987	25.37
505.187	25.31
505.387	25.27
505.587	25.3
505.786	25.43
505.986	25.38
506.186	25.47
506.386	25.51
506.586	25.62
506.786	25.62
506.986	25.63
507.186	25.58
507.386	25.6
507.585	25.74
507.785	25.82
507.985	25.84
508.185	25.95
508.384	25.99
508.584	25.97
508.784	25.95
508.984	26.15
509.183	26.2
509.383	26.2
509.583	26.36
509.782	26.38
509.982	26.44
510.182	26.49
510.381	26.6
510.581	26.63
510.781	26.75
510.98	26.78
511.18	26.67
511.379	26.74
511.579	26.83
511.778	26.8
511.978	26.82
512.177	26.85
512.377	26.87
512.576	26.77
512.776	26.79
512.975	26.82
513.175	26.94
513.374	27.03
513.573	27.09
513.773	27.23
513.972	27.34
514.172	27.43
514.371	27.54
514.57	27.66
514.77	27.77
514.969	27.82
515.168	27.83
515.367	27.87
515.567	27.98
515.766	28.02
515.965	28.01
516.164	27.99
516.364	28.06
516.563	28.01
516.762	28
516.961	28.01
517.16	28.03
517.359	28.09
517.559	28.13
517.758	28.18
517.957	28.21
518.156	28.23
518.355	28.28
518.554	28.22
518.753	28.32
518.952	28.36
519.151	28.41
519.35	28.52
519.549	28.64
519.748	28.67
519.947	28.68
520.146	28.72
520.345	28.75
520.544	28.8
520.743	28.91
520.942	28.88
521.141	28.88
521.339	29.04
521.538	29.05
521.737	28.98
521.936	29.02
522.135	29.08
522.333	29.2
522.532	29.33
522.731	29.39
522.93	29.39
523.129	29.54
523.327	29.65
523.526	29.61
523.725	29.61
523.923	29.66
524.122	29.67
524.321	29.64
524.519	29.62
524.718	29.57
524.917	29.57
525.115	29.65
525.314	29.62
525.512	29.62
525.711	29.63
525.909	29.72
526.108	29.75
526.306	29.74
526.505	29.75
526.703	29.72
526.902	29.77
527.1	29.75
527.299	29.75
527.497	29.8
527.696	29.86
527.894	29.89
528.092	29.88
528.291	29.89
528.489	29.92
528.688	30
528.886	30.07
529.084	30.11
529.283	30.16
529.481	30.18
529.679	30.2
529.877	30.29
530.076	30.29
530.274	30.33
530.472	30.39
530.67	30.47
530.869	30.51
531.067	30.49
531.265	30.53
531.463	30.59
531.661	30.66
531.859	30.67
532.057	30.6
532.255	30.7
532.454	30.78
532.652	30.75
532.85	30.79
533.048	30.82
533.246	30.87
533.444	30.92
533.642	30.97
533.84	30.99
534.038	31.03
534.236	31.13
534.434	31.14
534.632	31.13
534.83	31.25
535.027	31.27
535.225	31.21
535.423	31.33
535.621	31.38
535.819	31.36
536.017	31.47
536.215	31.52
536.412	31.5
536.61	31.52
536.808	31.62
537.006	31.68
537.203	31.75
537.401	31.99
537.599	32.03
537.797	32.09
537.994	32.23
538.192	32.24
538.39	32.27
538.587	32.42
538.785	32.46
538.983	32.47
539.18	32.5
539.378	32.59
539.575	32.59
539.773	32.61
539.97	32.68
540.168	32.77
540.366	32.8
540.563	32.87
540.761	32.88
540.958	32.97
541.155	33.02
541.353	33.05
541.55	33.04
541.748	33.07
541.945	33.1
542.143	33.12
542.34	33.12
542.537	33.18
542.735	33.24
542.932	33.25
543.129	33.36
543.327	33.39
543.524	33.53
543.721	33.66
543.919	33.77
544.116	33.94
544.313	34.05
544.51	34.2
544.708	34.27
544.905	34.4
545.102	34.58
545.299	34.59
545.496	34.76
545.693	34.82
545.891	34.9
546.088	34.99
546.285	34.98
546.482	34.97
546.679	34.93
546.876	34.98
547.073	35.06
547.27	35.09
547.467	35.11
547.664	35.08
547.861	35.05
548.058	35.07
548.255	35.01
548.452	35.03
548.649	35.15
548.846	35.24
549.043	35.28
549.24	35.12
549.437	35.05
549.633	35.13
549.83	35.08
550.027	35.18
550.224	35.14
550.421	35.15
550.618	35.12
550.814	35.1
551.011	35.08
551.208	35.11
551.405	35.12
551.601	35.3
551.798	35.31
551.995	35.36
552.191	35.35
552.388	35.34
552.585	35.38
552.781	35.31
552.978	35.39
553.175	35.46
553.371	35.5
553.568	35.58
553.764	35.58
553.961	35.71
554.157	35.67
554.354	35.71
554.55	35.79
554.747	35.81
554.943	35.97
555.14	35.88
555.336	35.92
555.533	35.95
555.729	36.07
555.926	36.07
556.122	35.98
556.318	36.17
556.515	36.14
556.711	36.14
556.907	36.3
557.104	36.33
557.3	36.41
557.496	36.36
557.693	36.48
557.889	36.53
558.085	36.54
558.281	36.67
558.478	36.75
558.674	36.84
558.87	37.05
559.066	37.04
559.262	37.14
559.459	37.15
559.655	37.25
559.851	37.22
560.047	37.11
560.243	37.06
560.439	36.98
560.635	36.96
560.831	36.98
561.027	36.99
561.223	37.04
561.419	37.03
561.615	37.08
561.811	37.18
562.007	37.18
562.203	37.42
562.399	37.57
562.595	37.6
562.791	37.76
562.987	37.83
563.183	37.82
563.379	37.8
563.575	37.8
563.771	38.03
563.966	37.95
564.162	38.05
564.358	37.98
564.554	37.89
564.75	37.98
564.945	37.95
565.141	37.92
565.337	37.96
565.533	37.97
565.728	38.06
565.924	38.02
566.12	38.14
566.315	38.12
566.511	38.19
566.707	38.36
566.902	38.38
567.098	38.46
567.293	38.48
567.489	38.56
567.684	38.63
567.88	38.62
568.076	38.56
568.271	38.64
568.467	38.71
568.662	38.67
568.858	38.68
569.053	38.73
569.248	38.71
569.444	38.89
569.639	38.85
569.835	38.94
570.03	39.06
570.225	39.03
570.421	39.02
570.616	38.99
570.812	39.13
571.007	39.15
571.202	39.14
571.397	39.24
571.593	39.14
571.788	39.2
571.983	39.17
572.178	39.16
572.374	39.27
572.569	39.28
572.764	39.31
572.959	39.29
573.154	39.37
573.35	39.51
573.545	39.51
573.74	39.61
573.935	39.69
574.13	39.67
574.325	39.66
574.52	39.74
574.715	39.75
574.91	39.76
575.105	39.86
575.3	39.93
575.495	40.03
575.69	40.05
575.885	40.14
576.08	40.13
576.275	40.28
576.47	40.34
576.665	40.41
576.86	40.42
577.055	40.53
577.25	40.63
577.444	40.72
577.639	40.71
577.834	40.66
578.029	40.74
578.224	40.85
578.418	40.81
578.613	40.98
578.808	41.02
579.003	41.22
579.197	41.32
579.392	41.25
579.587	41.21
579.781	41.26
579.976	41.34
580.171	41.3
580.365	41.27
580.56	41.42
580.755	41.42
580.949	41.54
581.144	41.57
581.338	41.62
581.533	41.68
581.727	41.87
581.922	41.75
582.116	42.01
582.311	42.17
582.505	42.28
582.7	42.27
582.894	42.32
583.089	42.41
583.283	42.52
583.478	42.44
583.672	42.54
583.866	42.44
584.061	42.63
584.255	42.54
584.449	42.5
584.644	42.56
584.838	42.85
585.032	42.95
585.226	42.89
585.421	42.97
585.615	43.2
585.809	43.25
586.003	43.31
586.198	43.4
586.392	43.37
586.586	43.35
586.78	43.34
586.974	43.16
587.168	43.02
587.363	43.06
587.557	42.88
587.751	42.85
587.945	42.75
588.139	42.73
588.333	42.6
588.527	42.76
588.721	42.8
588.915	42.93
589.109	42.83
589.303	42.84
589.497	42.76
589.691	42.8
589.885	42.83
590.079	42.97
590.273	42.86
590.466	42.91
590.66	42.98
590.854	43.05
591.048	43.02
591.242	43.18
591.436	43.26
591.629	43.43
591.823	43.67
592.017	43.82
592.211	43.75
592.404	43.93
592.598	44.09
592.792	44.05
592.986	44.19
593.179	44.13
593.373	44.07
593.567	44.16
593.76	44.03
593.954	43.89
594.147	43.8
594.341	43.83
594.535	43.76
594.728	43.64
594.922	43.53
595.115	43.47
595.309	43.5
595.502	43.54
595.696	43.51
595.889	43.52
596.083	43.48
596.276	43.46
596.47	43.48
596.663	43.6
596.856	43.64
597.05	43.85
597.243	43.85
597.437	43.86
597.63	43.97
597.823	44.05
598.017	44.23
598.21	44.39
598.403	44.45
598.596	44.51
598.79	44.64
598.983	44.83
599.176	44.85
599.369	44.82
599.563	44.87
599.756	44.91
599.949	44.93
600.142	44.79
600.335	44.94
600.528	45.01
600.722	45.16
600.915	45.02
601.108	44.87
601.301	44.73
601.494	44.73
601.687	44.88
601.88	44.8
602.073	44.82
602.266	44.92
602.459	44.72
602.652	44.7
602.845	44.59
603.038	44.49
603.231	44.67
603.424	44.67
603.617	44.72
603.809	44.62
604.002	44.62
604.195	44.47
604.388	44.46
604.581	44.54
604.774	44.46
604.966	44.41
605.159	44.49
605.352	44.39
605.545	44.53
605.737	44.6
605.93	44.73
606.123	44.91
606.316	45.14
606.508	45.31
606.701	45.42
606.894	45.8
607.086	46.06
607.279	46.34
607.471	46.39
607.664	46.42
607.857	46.69
608.049	46.88
608.242	47.1
608.434	47.37
608.627	47.72
608.819	48.18
609.012	48.52
609.204	49.08
609.397	49.71
609.589	50.34
609.782	51.12
609.974	51.85
610.166	52.74
610.359	53.42
610.551	54.18
610.743	54.84
610.936	55.18
611.128	55.6
611.32	55.98
611.513	56.15
611.705	56.41
611.897	56.34
612.09	56.15
612.282	55.67
612.474	55.34
612.666	55.09
612.858	54.62
613.051	54.44
613.243	54.11
613.435	53.71
613.627	53.33
613.819	52.81
614.011	52.83
614.203	52.51
614.395	52.26
614.588	51.96
614.78	51.54
614.972	51.33
615.164	51.09
615.356	50.69
615.548	50.37
615.74	50.19
615.932	50.05
616.124	49.55
616.315	49.38
616.507	49.2
616.699	48.99
616.891	48.96
617.083	48.9
617.275	48.69
617.467	48.8
617.659	48.88
617.85	48.73
618.042	48.63
618.234	48.5
618.426	48.24
618.618	48.11
618.809	48.06
619.001	47.9
619.193	47.82
619.384	47.92
619.576	48.09
619.768	48.01
619.959	48.02
620.151	48.28
620.343	48.29
620.534	48.45
620.726	48.48
620.917	48.54
621.109	48.74
621.301	48.83
621.492	48.76
621.684	48.55
621.875	48.32
622.067	48.38
622.258	48.35
622.45	48.44
622.641	48.49
622.832	48.73
623.024	48.82
623.215	48.67
623.407	48.6
623.598	48.65
623.789	48.68
623.981	48.94
624.172	48.89
624.363	48.93
624.555	48.8
624.746	48.71
624.937	48.63
625.129	48.65
625.32	48.51
625.511	48.54
625.702	48.47
625.893	48.57
626.085	48.53
626.276	48.59
626.467	48.36
626.658	48.55
626.849	48.6
627.04	48.58
627.231	48.58
627.422	48.79
627.614	48.81
627.805	48.8
627.996	48.64
628.187	48.73
628.378	48.67
628.569	48.87
628.76	49.03
628.951	49.03
629.142	49.23
629.332	49.29
629.523	49.51
629.714	49.49
629.905	49.67
630.096	49.91
630.287	50.03
630.478	50.13
630.669	50.15
630.859	49.82
631.05	49.92
631.241	49.88
631.432	49.8
631.623	49.48
631.813	49.47
632.004	49.25
632.195	48.97
632.385	48.62
632.576	48.59
632.767	48.55
632.957	48.73
633.148	48.54
633.339	48.23
633.529	48.11
633.72	48.22
633.91	48.24
634.101	48.27
634.292	48.27
634.482	48.39
634.673	48.3
634.863	48.35
635.054	48.19
635.244	48.2
635.435	48.44
635.625	48.52
635.815	48.48
636.006	48.64
636.196	48.61
636.387	48.62
636.577	48.54
636.767	48.6
636.958	48.55
637.148	48.57
637.338	48.72
637.529	48.65
637.719	48.71
637.909	48.66
638.099	48.36
638.29	48.25
638.48	48.68
638.67	48.91
638.86	49.04
639.05	49.24
639.241	49.34
639.431	49.25
639.621	49.33
639.811	49.45
640.001	49.58
640.191	49.73
640.381	50.03
640.571	49.75
640.761	49.72
640.951	49.64
641.141	49.49
641.331	49.66
641.521	49.68
641.711	49.48
641.901	49.54
642.091	49.53
642.281	49.62
642.471	49.7
642.661	49.57
642.851	49.26
643.041	49.49
643.231	49.49
643.42	49.15
643.61	49.17
643.8	49.36
643.99	49.24
644.18	49.12
644.369	49.05
644.559	49.06
644.749	49.49
644.939	49.76
645.128	49.52
645.318	49.32
645.508	49.49
645.697	49.51
645.887	49.58
646.076	49.6
646.266	49.7
646.456	49.79
646.645	49.73
646.835	49.49
647.024	49.62
647.214	49.73
647.403	49.96
647.593	49.95
647.782	50.16
647.972	50.35
648.161	50.52
648.351	50.69
648.54	50.8
648.73	50.96
648.919	51.14
649.108	51.1
649.298	51.27
649.487	51.35
649.677	51.56
649.866	51.39
650.055	51.2
650.244	51.22
650.434	51.06
650.623	50.91
650.812	50.73
651.002	50.64
651.191	50.62
651.38	50.44
651.569	50.4
651.758	50.16
651.947	50.18
652.137	50.17
652.326	50.06
652.515	50.15
652.704	50.42
652.893	50.3
653.082	50.23
653.271	50.12
653.46	50.14
653.649	50.3
653.838	50.46
654.027	50.55
654.216	50.38
654.405	50.45
654.594	50.5
654.783	50.23
654.972	50.25
655.161	50.38
655.35	50.32
655.539	50.05
655.728	50.03
655.916	50.03
656.105	50.02
656.294	50.31
656.483	50.46
656.672	50.47
656.86	50.58
657.049	50.78
657.238	50.71
657.427	50.9
657.615	51.23
657.804	51.17
657.993	51.08
658.181	51.07
658.37	50.86
658.559	50.55
658.747	50.44
658.936	50.5
659.125	50.23
659.313	50.35
659.502	50.24
659.69	50.17
659.879	50.19
660.067	50.26
660.256	50.4
660.444	50.37
660.633	50.49
660.821	50.62
661.01	50.67
661.198	50.74
661.387	50.69
661.575	50.77
661.763	50.91
661.952	50.82
662.14	50.86
662.328	50.62
662.517	50.9
662.705	50.97
662.893	51.07
663.082	51.12
663.27	51.29
663.458	51.37
663.646	51.77
663.834	51.66
664.023	51.79
664.211	51.71
664.399	52.11
664.587	52.12
664.775	52.05
664.963	52.06
665.152	51.81
665.34	51.88
665.528	51.69
665.716	51.48
665.904	51.47
666.092	51.53
666.28	51.56
666.468	51.25
666.656	51.36
666.844	51.5
667.032	51.49
667.22	51.87
667.408	52.08
667.596	52.28
667.784	52.34
667.971	52.38
668.159	52.29
668.347	52.48
668.535	52.52
668.723	52.56
668.911	52.63
669.098	52.63
669.286	52.29
669.474	51.93
669.662	51.86
669.849	51.68
670.037	51.84
670.225	51.9
670.413	51.98
670.6	52.28
670.788	52.04
670.976	51.76
671.163	51.56
671.351	51.81
671.538	52.22
671.726	52.26
671.913	52.23
672.101	52.19
672.289	52.19
672.476	52.01
672.664	51.79
672.851	51.9
673.039	52.03
673.226	52.35
673.413	52.24
673.601	51.85
673.788	52
673.976	52.1
674.163	52
674.35	52.01
674.538	52.28
674.725	52.65
674.912	52.72
675.1	52.97
675.287	52.76
675.474	52.47
675.662	52.83
675.849	52.66
676.036	52.67
676.223	52.76
676.411	52.71
676.598	52.62
676.785	52.42
676.972	52.43
677.159	51.99
677.346	51.95
677.533	52.13
677.721	52.02
677.908	52.05
678.095	51.96
678.282	52.13
678.469	52.14
678.656	51.87
678.843	51.47
679.03	51.29
679.217	51.61
679.404	51.68
679.591	51.63
679.778	51.44
679.964	51.54
680.151	51.34
680.338	51.31
680.525	51.4
680.712	51.55
680.899	51.89
681.086	51.97
681.272	51.79
681.459	51.61
681.646	51.82
681.833	52.12
682.02	52.07
682.206	52.5
682.393	52.44
682.58	52.46
682.766	52.61
682.953	52.4
683.14	52.29
683.326	52.64
683.513	52.94
683.7	52.86
683.886	52.62
684.073	52.48
684.259	52.11
684.446	52.21
684.632	52.27
684.819	51.83
685.005	52.1
685.192	52.31
685.378	52.17
685.565	51.96
685.751	51.87
685.938	51.94
686.124	51.99
686.31	52.36
686.497	52.29
686.683	52.19
686.87	52.59
687.056	52.37
687.242	52.26
687.429	52.37
687.615	52.65
687.801	53.01
687.987	53.27
688.174	53.48
688.36	53.37
688.546	53.56
688.732	53.61
688.918	53.42
689.105	53.51
689.291	53.57
689.477	53.44
689.663	53.39
689.849	53.35
690.035	53.37
690.221	53.27
690.407	53.1
690.593	52.9
690.779	53.24
690.965	53.3
691.151	53.26
691.337	53.24
691.523	53.39
691.709	53.34
691.895	53.24
692.081	53.44
692.267	53.54
692.453	53.87
692.639	53.75
692.825	53.43
693.011	53.55
693.196	53.9
693.382	53.89
693.568	53.96
693.754	54.27
693.94	54.35
694.125	53.89
694.311	53.76
694.497	53.72
694.682	54.09
694.868	54.04
695.054	53.9
695.239	53.59
695.425	53.75
695.611	53.63
695.796	53.09
695.982	52.92
696.168	53.07
696.353	53.3
696.539	53.25
696.724	52.85
696.91	52.76
697.095	52.88
697.281	52.84
697.466	52.71
697.652	52.65
697.837	52.68
698.023	52.6
698.208	52.63
698.393	52.42
698.579	52.41
698.764	52.38
698.949	52.3
699.135	52.24
699.32	52.2
699.505	52.06
699.691	52.01
699.876	51.98
700.061	52.27
700.246	52.26
700.432	52.28
700.617	52.22
700.802	52.18
700.987	52.38
701.172	52.46
701.358	52.53
701.543	52.97
701.728	53.01
701.913	53.22
702.098	53.03
702.283	53.05
702.468	53.3
702.653	53.55
702.838	54.1
703.023	53.96
703.208	54.16
703.393	54.58
703.578	54.55
703.763	55.22
703.948	55.76
704.133	55.88
704.318	56.19
704.503	56.4
704.688	56.66
704.873	56.79
705.057	57.32
705.242	57.48
705.427	57.59
705.612	57.74
705.797	57.5
705.981	57.15
706.166	57.32
706.351	57.25
706.536	57.15
706.72	56.89
706.905	56.97
707.09	57.07
707.274	56.9
707.459	56.84
707.644	56.89
707.828	57.16
708.013	57.26
708.197	57.54
708.382	57.53
708.567	57.68
708.751	57.8
708.936	57.5
709.12	57.51
709.305	57.24
709.489	57.24
709.673	57.31
709.858	57.07
710.042	57.26
710.227	57.27
710.411	57.08
710.596	56.99
710.78	57.33
710.964	57.4
711.149	57.32
711.333	57.6
711.517	57.75
711.702	57.66
711.886	57.61
712.07	57.16
712.254	56.99
712.438	57.36
712.623	57.12
712.807	56.61
712.991	56.94
713.175	56.89
713.359	56.81
713.544	56.34
713.728	56.3
713.912	55.87
714.096	55.78
714.28	55.12
714.464	54.78
714.648	54.67
714.832	54.68
715.016	53.93
715.2	53.67
715.384	53.49
715.568	53.66
715.752	53.33
715.936	53.63
716.12	53.63
716.304	53.91
716.488	53.87
716.671	54.14
716.855	54.21
717.039	54.39
717.223	54.38
717.407	54.14
717.59	53.84
717.774	53.91
717.958	53.73
718.142	54.03
718.325	53.91
718.509	53.88
718.693	53.59
718.877	53.62
719.06	53.46
719.244	53.4
719.428	53.85
719.611	54.14
719.795	54.27
719.978	54.4
720.162	54.09
720.345	54.35
720.529	54.65
720.713	55
720.896	54.53
721.08	55.18
721.263	55.46
721.446	55.68
721.63	55.55
721.813	55.58
721.997	55.69
722.18	56.09
722.364	56.54
722.547	55.91
722.73	55.55
722.914	56.25
723.097	55.49
723.28	55.01
723.464	54.71
723.647	55.23
723.83	54.97
724.013	54.83
724.197	54.66
724.38	54.01
724.563	54.18
724.746	54.12
724.929	53.65
725.112	54.04
725.296	53.99
725.479	54.31
725.662	54.05
725.845	54.29
726.028	54.48
726.211	54.27
726.394	54.29
726.577	54.54
726.76	54.91
726.943	54.75
727.126	54.23
727.309	54.71
727.492	54.28
727.675	53.77
727.858	53.19
728.041	52.91
728.224	52.98
728.407	53.18
728.589	52.57
728.772	52.28
728.955	52.42
729.138	52.78
729.321	52.56
729.503	52.69
729.686	52.49
729.869	52.91
730.052	52.95
730.234	53.07
730.417	53.31
730.6	53.79
730.782	54.25
730.965	54.54
731.148	54.44
731.33	54.74
731.513	54.97
731.695	55.3
731.878	55.47
732.061	55.52
732.243	55.58
732.426	55.35
732.608	55.29
732.791	54.9
732.973	54.48
733.156	54.53
733.338	54.05
733.52	53.77
733.703	53.97
733.885	53.94
734.068	54.09
734.25	54.18
734.432	54.01
734.615	54.43
734.797	54.18
734.979	54.36
735.162	54.59
735.344	54.6
735.526	55.15
735.708	55.55
735.891	55.57
736.073	55.47
736.255	55.53
736.437	55.5
736.619	55.65
736.802	55.78
736.984	55.88
737.166	56.15
737.348	56.72
737.53	56.33
737.712	55.64
737.894	55.55
738.076	55.55
738.258	55.19
738.44	55.54
738.622	55.04
738.804	55.23
738.986	55.35
739.168	54.82
739.35	54.95
739.532	55.19
739.714	55.61
739.896	55.65
740.078	55.66
740.259	55.72
740.441	55.56
740.623	55.62
740.805	55.17
740.987	55.07
741.168	55.66
741.35	54.94
741.532	54.54
741.714	54.3
741.895	54.58
742.077	54.81
742.259	55.07
742.44	54.91
742.622	54.96
742.804	55.85
742.985	56.12
743.167	55.63
743.348	55.96
743.53	56.28
743.711	56.78
743.893	56.48
744.075	56.46
744.256	56.29
744.438	56.29
744.619	56.51
744.8	56.26
744.982	56.25
745.163	56.94
745.345	56.82
745.526	56.66
745.707	56.23
745.889	56.41
746.07	56.58
746.252	56.52
746.433	56.44
746.614	56.13
746.795	55.51
746.977	55.46
747.158	55.3
747.339	55.57
747.52	56.01
747.702	56.54
747.883	56.79
748.064	56.35
748.245	56.46
748.426	56.46
748.607	56.36
748.788	57.13
748.97	56.94
749.151	56.81
749.332	56.75
749.513	56.79
749.694	56.29
749.875	55.91
750.056	56.19
750.237	56.25
750.418	56.5
750.599	56.65
750.78	56.64
750.96	56.94
751.141	57.03
751.322	56.64
751.503	56.1
751.684	56.7
751.865	56.81
752.046	56.83
752.226	56.87
752.407	56.62
752.588	56.48
752.769	56.13
752.949	55.83
753.13	55.54
753.311	56.56
753.492	57.12
753.672	56.97
753.853	56.67
754.034	56.94
754.214	56.95
754.395	57.15
754.575	57.56
754.756	57.28
754.937	57.14
755.117	57.13
755.298	56.61
755.478	56.53
755.659	55.82
755.839	56.09
756.02	55.63
756.2	55.2
756.381	54.9
756.561	54.79
756.741	54.83
756.922	55.17
757.102	55.49
757.283	55.02
757.463	54.45
757.643	54.99
757.823	54.69
758.004	54.9
758.184	54.95
758.364	54.76
758.545	54.09
758.725	54.43
758.905	54.04
759.085	53.64
759.265	53.89
759.446	53.63
759.626	53.34
759.806	52.91
759.986	52.75
760.166	52.94
760.346	53
760.526	53.05
760.706	52.78
760.886	52.79
761.066	52.68
761.246	52.65
761.426	52.7
761.606	52.32
761.786	52.29
761.966	51.8
762.146	51.38
762.326	51.4
762.506	51.15
762.686	51.12
762.866	50.71
763.046	50.43
763.225	49.78
763.405	49.62
763.585	49.62
763.765	49.89
763.945	49.92
764.124	50.11
764.304	49.96
764.484	50.58
764.664	50.46
764.843	51.01
765.023	51.5
765.203	52.09
765.382	52.16
765.562	52.26
765.741	52.15
765.921	52.73
766.101	52.63
766.28	52.93
766.46	52.39
766.639	52.68
766.819	52.92
766.998	52.9
767.178	53.21
767.357	53.82
767.537	54.22
767.716	55.11
767.896	54.95
768.075	55.3
768.254	55.69
768.434	56.17
768.613	56.7
768.792	56.47
768.972	57.28
769.151	57.27
769.33	56.83
769.51	56.08
769.689	55.19
769.868	55.14
770.047	56.04
770.226	55.63
770.406	55.42
770.585	55.21
770.764	55.2
770.943	54.49
771.122	54.77
771.301	55.17
771.48	56.25
771.66	56.46
771.839	56.21
772.018	55.59
772.197	55.84
772.376	56.34
772.555	57.1
772.734	56.68
772.913	56.99
773.092	57.18
773.271	57.31
773.449	57.37
773.628	58.06
773.807	58.43
773.986	58.49
774.165	58.93
774.344	58.61
774.523	58.35
774.701	58.94
774.88	58.56
775.059	58.37
775.238	58.84
775.417	58.99
775.595	58.75
775.774	58.72
775.953	57.88
776.131	57.55
776.31	57.93
776.489	57.66
776.667	57.88
776.846	57.77
777.025	57.46
777.203	57.44
777.382	57.08
777.56	57.32
777.739	57.58
777.917	57.38
778.096	57.47
778.274	57.43
778.453	57.3
778.631	57.7
778.81	57.62
778.988	57.36
779.166	56.75
779.345	57.12
779.523	56.7
779.702	56.3
779.88	56.93
780.058	57.34
780.237	57.61
780.415	58.21
780.593	57.95
780.771	58.96
780.95	59.18
781.128	58.78
781.306	58.86
781.484	59.59
781.662	59.59
781.841	59.67
782.019	59.59
782.197	58.72
782.375	58.2
782.553	58.15
782.731	57.88
782.909	58.22
783.087	58.48
783.265	57.78
783.443	56.89
783.621	56.7
783.799	57.09
783.977	57.06
784.155	57.52
784.333	57.72
784.511	57.57
784.689	56.8
784.867	57.26
785.045	57.77
785.223	58.53
785.4	59.3
785.578	59.49
785.756	58.56
785.934	57.88
786.112	58.68
786.289	58.33
786.467	57.05
786.645	57.19
786.823	56.8
787	56.44
787.178	55.45
787.356	54.69
787.533	55.04
787.711	55.51
787.889	56.16
788.066	55.03
788.244	54.25
788.421	54.64
788.599	54.49
788.776	54.3
788.954	54.74
789.131	54.12
789.309	54.57
789.486	54.6
789.664	54.78
789.841	54.41
790.019	54.89
790.196	55.55
790.373	55.64
790.551	56.06
790.728	55.66
790.906	55.12
791.083	56.59
791.26	56.55
791.437	57.5
791.615	57.95
791.792	58.04
791.969	58.15
792.146	58.26
792.324	59.04
792.501	58.88
792.678	59.9
792.855	59.85
793.032	59.57
793.209	59.56
793.387	59.19
793.564	58.69
793.741	58.72
793.918	58.02
794.095	57.74
794.272	57.32
794.449	57.29
794.626	56.87
794.803	56.65
794.98	57.42
795.157	57.69
795.334	57.2
795.511	56.93
795.688	56.2
795.864	56.37
796.041	56.18
796.218	56.05
796.395	55.7
796.572	55.04
796.749	55.04
796.925	54.04
797.102	53.72
797.279	53.77
797.456	53.86
797.632	54.31
797.809	54.76
797.986	54.84
798.162	55.59
798.339	54.69
798.516	55.45
798.692	56.58
798.869	56.99
799.046	56.24
799.222	56.98
799.399	57.27
799.575	57.31
799.752	56.74
799.928	56.48
800.105	56.17
800.281	57.62
800.458	57.31
800.634	56.75
800.811	57.01
800.987	58.12
801.163	57.62
801.34	57.88
801.516	57.62
801.692	57.46
801.869	57.11
802.045	57.41
802.221	57.02
802.398	57.29
802.574	57.2
802.75	57.27
802.926	57.38
803.103	56.85
803.279	56.41
803.455	56.06
803.631	57.52
803.807	59.23
803.983	58.5
804.16	58.73
804.336	58.39
804.512	58.39
804.688	57.86
804.864	56.77
805.04	56.47
805.216	55.89
805.392	57
805.568	56.65
805.744	56.16
805.92	56.44
806.096	54.96
806.272	54.96
806.448	54.8
806.623	54.69
806.799	55.13
806.975	55.25
807.151	55.44
807.327	55.95
807.503	55.54
807.678	55.59
807.854	55.25
808.03	56.44
808.206	54.95
808.381	54.92
808.557	54.8
808.733	54.37
808.908	53.93
809.084	54.33
809.26	53.67
809.435	52.92
809.611	51.69
809.787	52.04
809.962	52.65
810.138	54.28
810.313	54.49
810.489	55.32
810.664	55.95
810.84	56.05
811.015	56.01
811.191	57.06
811.366	57.61
811.542	59.27
811.717	58.87
811.892	58.92
812.068	58.97
812.243	58.63
812.419	56.97
812.594	56.6
812.769	57.43
812.944	57.4
813.12	55.94
813.295	56.22
813.47	55.79
813.645	55.83
813.821	55.08
813.996	55.13
814.171	54.74
814.346	55.67
814.521	56.01
814.697	56.12
814.872	55.45
815.047	56.05
815.222	55.32
815.397	53.86
815.572	54.65
815.747	54.04
815.922	53.35
816.097	53.87
816.272	53.6
816.447	53.51
816.622	52.94
816.797	53.26
816.972	52.85
817.147	52.37
817.322	53.82
817.496	53.38
817.671	54.46
817.846	55.17
818.021	55.01
818.196	55.27
818.371	55.59
818.545	55.55
818.72	55.08
818.895	54.69
819.069	54.48
819.244	53.53
819.419	52.41
819.594	51.62
819.768	50.54
819.943	50.24
820.117	49.58
820.292	48.56
820.467	47.05
820.641	46.76
820.816	45.81
820.99	45.64
821.165	44.26
821.339	44.03
821.514	43.65
821.688	43.12
821.863	42.47
822.037	42.18
822.212	41.68
822.386	41.83
822.56	41.69
822.735	41.64
822.909	41.45
823.084	41.75
823.258	41.65
823.432	41.48
823.606	41.48
823.781	41.85
823.955	41.72
824.129	41.92
824.303	42.09
824.478	41.76
824.652	41.85
824.826	41.89
825	42.04
825.174	42.34
825.348	42.36
825.523	42.59
825.697	42.61
825.871	43.25
826.045	43.38
826.219	43.21
826.393	43.68
826.567	43.87
826.741	44.27
826.915	44.3
827.089	43.97
827.263	44.45
827.437	44.83
827.611	44.87
827.784	44.84
827.958	45.24
828.132	45.18
828.306	45.41
828.48	45.39
828.654	45.13
828.827	45.73
829.001	46.42
829.175	47.11
829.349	47.76
829.522	47.94
829.696	48.34
829.87	49.06
830.044	49.64
830.217	50.3
830.391	51.02
830.565	51.34
830.738	50.94
830.912	50.66
831.085	50.14
831.259	50.43
831.432	50.79
831.606	50.89
831.779	49.84
831.953	50
832.126	49.19
832.3	47.62
832.473	47.68
832.647	46.81
832.82	47.26
832.994	46.53
833.167	46.27
833.34	45.85
833.514	45.39
833.687	45.37
833.86	44.89
834.034	44.73
834.207	45.4
834.38	45.62
834.553	46.85
834.727	46.48
834.9	46.55
835.073	46.12
835.246	46.28
835.419	46.73
835.593	47.31
835.766	48.46
835.939	49.14
836.112	49.9
836.285	50.89
836.458	50.31
836.631	51.1
836.804	51.96
836.977	53
837.15	54.05
837.323	54.7
837.496	54.72
837.669	55.04
837.842	54.92
838.015	55.64
838.188	55.99
838.361	56.89
838.533	55.73
838.706	56.21
838.879	56.21
839.052	55.54
839.225	56
839.398	55.75
839.57	55.04
839.743	55.55
839.916	54.78
840.088	54.62
840.261	55.51
840.434	57.53
840.607	57.67
840.779	57.16
840.952	58.2
841.124	58.7
841.297	58.24
841.47	58.88
841.642	58.98
841.815	59.08
841.987	59.27
842.16	59.39
842.332	58.75
842.505	58.79
842.677	58.18
842.85	57.39
843.022	56.29
843.194	59.18
843.367	60.06
843.539	61.12
843.712	60.75
843.884	61.06
844.056	59.64
844.229	60.47
844.401	60.72
844.573	62.08
844.745	64
844.918	65.56
845.09	63.48
845.262	62.2
845.434	64.36
845.606	67.44
845.779	68.36
845.951	68.75
846.123	67.87
846.295	67.2
846.467	67.91
846.639	65.49
846.811	64.03
846.983	64.83
847.155	65.39
847.327	64.68
847.499	62.78
847.671	62.5
847.843	62.43
848.015	62.84
848.187	61.42
848.359	62.35
848.531	63.85
848.703	63.57
848.875	65.38
849.047	67.02
849.218	66.81
849.39	66.95
849.562	64.64
849.734	66.32
849.905	68.07
850.077	70.26
850.249	70.52
850.421	69.37
850.592	70.56
850.764	68.07
850.936	66.27
851.107	66.85
851.279	68.36
851.451	69.45
851.622	68.84
851.794	68.32
851.965	70.11
852.137	69.28
852.308	69.22
852.48	68.15
852.651	69.7
852.823	68.67
852.994	68.06
853.166	67.96
853.337	68.94
853.509	68.13
853.68	69.26
853.851	66.74
854.023	65.67
854.194	67.95
854.365	68.07
854.537	66.55
854.708	65.63
854.879	66.62
855.05	67.17
855.222	66.95
855.393	68.53
855.564	69.08
855.735	72.32
855.906	73.48
856.078	72.88
856.249	70.16
856.42	73.04
856.591	74.06
856.762	74.44
856.933	72.67
857.104	71.62
857.275	70.15
857.446	68.74
857.617	64.94
857.788	65.44
857.959	65.14
858.13	68.24
858.301	66.2
858.472	66.75
858.643	62.56
858.814	62.92
858.985	62.22
859.155	63.44
859.326	62.75
859.497	63.23
859.668	62.83
859.839	61.3
860.009	61.3
860.18	61.54
860.351	60.03
860.522	61.51
860.692	62
860.863	63.02
861.034	65.14
861.204	66.43
861.375	69.96
861.546	70.94
861.716	72.4
861.887	72.92
862.057	69.95
862.228	72.65
862.398	72.35
862.569	71.28
862.739	72.25
862.91	69.92
863.08	68.43
863.251	67.82
863.421	65.77
863.592	64.16
863.762	63.29
863.932	64.11
864.103	63
864.273	63.41
864.443	62.3
864.614	60.5
864.784	61.16
864.954	62.06
865.125	61.11
865.295	64.21
865.465	64.63
865.635	64.36
865.805	67.91
865.976	67.8
866.146	67
866.316	67.78
866.486	68.87
866.656	68.35
866.826	67.22
866.996	64.43
867.166	61.93
867.336	64.17
867.506	64.05
867.676	62.78
867.846	63.2
868.016	63.61
868.186	64.33
868.356	63.62
868.526	62.34
868.696	63.8
868.866	65.38
869.036	64.45
869.206	63.98
869.376	64.15
869.545	64.1
869.715	67.1
869.885	68.58
870.055	69.48
870.224	66.85
870.394	67.85
870.564	67.16
870.734	68.53
870.903	70.15
871.073	70.7
871.243	70.03
871.412	67.83
871.582	66.01
871.751	66.02
871.921	64.25
872.091	67.52
872.26	65.98
872.43	65.05
872.599	63.44
872.769	65.52
872.938	64.52
873.108	65.44
873.277	67.25
873.446	67.59
873.616	67.92
873.785	69.07
873.955	69.09
874.124	70.22
874.293	70.11
874.463	70.04
874.632	66.57
874.801	65.02
874.971	63.58
875.14	61.26
875.309	61.05
875.478	58.26
875.647	57.09
875.817	56.27
875.986	57.09
876.155	58.35
876.324	58.24
876.493	58.36
876.662	60.03
876.831	60.69
877	62.19
877.17	59.28
877.339	59.79
877.508	61.36
877.677	63.88
877.846	63.26
878.015	61.75
878.184	61.9
878.352	61.68
878.521	60.65
878.69	59.56
878.859	58.41
879.028	57.9
879.197	58.33
879.366	56.14
879.534	54.62
879.703	52.66
879.872	51.88
880.041	49.98
880.21	49.1
880.378	48.99
880.547	48.48
880.716	46.71
880.884	45.97
881.053	44.86
881.222	44
881.39	43.08
881.559	42.51
881.727	41.45
881.896	41.66
882.065	41.67
882.233	40.5
882.402	40.18
882.57	40.66
882.739	41.21
882.907	41.01
883.076	41.56
883.244	41.39
883.412	40.86
883.581	41.11
883.749	41.21
883.918	40.83
884.086	41.72
884.254	42.5
884.423	42.05
884.591	42.13
884.759	42.49
884.927	42.62
885.096	42.88
885.264	44.17
885.432	45.79
885.6	46.08
885.769	47.04
885.937	47.4
886.105	47.96
886.273	50.07
886.441	51.03
886.609	51.29
886.777	53.31
886.945	54.34
887.113	55.45
887.281	55.77
887.449	56.99
887.617	57.96
887.785	57.74
887.953	57.9
888.121	59.4
888.289	57.61
888.457	60.82
888.625	59.32
888.793	59.3
888.961	61.39
889.129	61.03
889.296	61
889.464	61.16
889.632	62.85
889.8	62.57
889.967	61.97
890.135	65.48
