Data from 2938832__Reflection_01.txt Node
Date: Thu Mar 12 12:00:56 EDT 2015
User: robert
Spectrometer: USB4E03002
Autoset integration time: false
Trigger mode: 4
Integration Time (sec): 1.000000E-1
Scans to average: 10
Electric dark correction enabled: false
Nonlinearity correction enabled: false
Boxcar width: 5
Stray light correction enabled: false
XAxis mode: Wavelengths
Stop averaging: false
Number of Pixels in Spectrum: 3648
>>>>>Begin Spectral Data<<<<<
177.575	66.06
177.794	73.75
178.014	65.84
178.233	66.61
178.452	63.11
178.672	64.42
178.891	59.44
179.11	30.36
179.33	-5.81
179.549	-5.8
179.768	21.55
179.987	15.44
180.207	-24.42
180.426	-20.65
180.645	-116.41
180.864	1461.9
181.084	-510.45
181.303	-71.76
181.522	-10.37
181.741	-30.24
181.96	-61.98
182.179	-209.55
182.398	-153.42
182.618	-81.41
182.837	-255
183.056	-12.89
183.275	-7.87
183.494	33.85
183.713	13.78
183.932	12.64
184.151	51.57
184.37	65.42
184.589	83.17
184.808	76.27
185.027	117.21
185.246	109.89
185.465	103.35
185.684	112.8
185.903	89.85
186.122	87.97
186.341	81.21
186.56	51.83
186.779	52.17
186.998	21.48
187.216	13.46
187.435	-21.2
187.654	-25.67
187.873	-85.5
188.092	-82.37
188.311	-49.88
188.53	-81.76
188.748	-33.76
188.967	11.39
189.186	-42.89
189.405	-1.43
189.623	16.76
189.842	13.67
190.061	16.95
190.28	0.89
190.498	20.31
190.717	11.06
190.936	13.38
191.154	1.68
191.373	0
191.592	21.37
191.81	14.54
192.029	-33.33
192.248	15.44
192.466	-10.92
192.685	-0.48
192.904	-34.65
193.122	-42.51
193.341	-37.03
193.559	-44.55
193.778	-14.9
193.996	18.74
194.215	10.43
194.433	11.38
194.652	5.11
194.87	15.17
195.089	20.47
195.307	19.83
195.526	39.06
195.744	44.48
195.963	80.06
196.181	91.99
196.399	92.7
196.618	131.16
196.836	-228.79
197.055	145.45
197.273	18.35
197.491	159.26
197.71	117.22
197.928	53.81
198.146	52.91
198.365	7.46
198.583	16.94
198.801	12.05
199.019	22.6
199.238	30.15
199.456	29.96
199.674	44.98
199.892	42
200.111	39.76
200.329	38.34
200.547	28.8
200.765	40.03
200.983	39.41
201.202	20.96
201.42	31.35
201.638	30.84
201.856	20.21
202.074	30.52
202.292	16.58
202.51	-111.35
202.728	-18.01
202.946	23.84
203.165	-13.6
203.383	22.6
203.601	60.51
203.819	29.76
204.037	11.33
204.255	36.59
204.473	20.15
204.691	24.77
204.909	39.98
205.127	47.23
205.345	42.12
205.562	37.13
205.78	9.54
205.998	-8.24
206.216	-0.26
206.434	-4.75
206.652	-13.68
206.87	-22.39
207.088	-34.37
207.306	-24.89
207.523	-37.5
207.741	-40.1
207.959	-20.65
208.177	-19.87
208.395	-12.5
208.612	-2.88
208.83	12.64
209.048	18.04
209.266	33.2
209.483	62.83
209.701	63.22
209.919	58.03
210.136	58.41
210.354	67.57
210.572	76.06
210.79	77.49
211.007	67.73
211.225	63.44
211.442	95.04
211.66	70.19
211.878	55.69
212.095	148.33
212.313	133.11
212.53	131
212.748	120.15
212.966	118.7
213.183	120.85
213.401	128.22
213.618	128.63
213.836	112.14
214.053	119.94
214.271	117.5
214.488	48.66
214.705	51.14
214.923	39.94
215.14	52.35
215.358	46.86
215.575	55.4
215.793	30.69
216.01	30.05
216.227	20.95
216.445	6.15
216.662	-2.48
216.879	-14.29
217.097	-16.98
217.314	3.37
217.531	1.98
217.749	13.77
217.966	-1.52
218.183	18.39
218.4	13.5
218.618	23.65
218.835	33.97
219.052	26.18
219.269	11.15
219.487	3.44
219.704	3.46
219.921	-20.38
220.138	-16.18
220.355	-15.27
220.572	-9.98
220.79	5.31
221.007	0.52
221.224	-3.5
221.441	8.51
221.658	19.13
221.875	18.14
222.092	13.88
222.309	24.42
222.526	23
222.743	23.88
222.96	19.28
223.177	15.88
223.394	18.54
223.611	20.77
223.828	19.57
224.045	14.5
224.262	16.11
224.479	17.76
224.696	10.72
224.913	15.31
225.13	16.67
225.347	18.98
225.564	15.31
225.781	11.13
225.997	9.58
226.214	6.92
226.431	8.38
226.648	10.1
226.865	7.73
227.082	11.03
227.298	8.54
227.515	6.28
227.732	5.75
227.949	6.32
228.165	5.41
228.382	5.52
228.599	5.04
228.816	4.26
229.032	3.95
229.249	4.38
229.466	3.31
229.682	3.28
229.899	3.53
230.116	4.45
230.332	4.28
230.549	4.43
230.765	4.6
230.982	6.14
231.199	6.67
231.415	5.85
231.632	7.08
231.848	7.23
232.065	6.38
232.281	6
232.498	3.48
232.714	2.97
232.931	3.85
233.147	4.24
233.364	1.63
233.58	1.76
233.797	0.06
234.013	-1.84
234.23	-2.74
234.446	2.59
234.662	3.13
234.879	4
235.095	4.6
235.312	5.16
235.528	3.37
235.744	4.66
235.961	6.99
236.177	8.24
236.393	8.42
236.61	8.58
236.826	6.11
237.042	5.28
237.258	6.47
237.475	7.29
237.691	5.96
237.907	6.76
238.123	5.66
238.339	4.85
238.556	7.2
238.772	7.73
238.988	9.18
239.204	8.33
239.42	7.86
239.636	5.36
239.853	3.56
240.069	5.03
240.285	4.86
240.501	5.64
240.717	5.56
240.933	4.36
241.149	4.38
241.365	5.21
241.581	4.95
241.797	5.17
242.013	5.65
242.229	5.79
242.445	5.53
242.661	5.88
242.877	5.81
243.093	5.15
243.309	5.72
243.525	6.24
243.741	4.97
243.957	5.06
244.173	5.43
244.388	4.59
244.604	4.64
244.82	4.75
245.036	4.15
245.252	4.99
245.468	5.5
245.683	5.02
245.899	4.46
246.115	4.6
246.331	4.77
246.547	4.5
246.762	5.01
246.978	5.21
247.194	5.24
247.409	5.23
247.625	4.66
247.841	4.6
248.057	4.68
248.272	4.63
248.488	4.9
248.703	4.69
248.919	5.1
249.135	4.85
249.35	4.87
249.566	4.43
249.782	4.59
249.997	4.95
250.213	5.14
250.428	4.52
250.644	4.36
250.859	4.86
251.075	5.41
251.29	5.05
251.506	5.19
251.721	5
251.937	5.12
252.152	5.05
252.368	5.3
252.583	5.29
252.798	5.49
253.014	5.81
253.229	4.88
253.445	4.21
253.66	4.43
253.875	3.94
254.091	3.25
254.306	2.99
254.521	3.97
254.737	3.32
254.952	2.65
255.167	2.86
255.383	2.51
255.598	2.46
255.813	2.97
256.028	1.03
256.244	1.79
256.459	2.79
256.674	2.69
256.889	2.46
257.104	2.6
257.32	3.1
257.535	3.75
257.75	3.53
257.965	3.62
258.18	3.42
258.395	4
258.61	3.76
258.826	3.71
259.041	3.72
259.256	3.4
259.471	3.24
259.686	2.99
259.901	2.86
260.116	2.9
260.331	2.78
260.546	2.88
260.761	2.76
260.976	2.61
261.191	2.42
261.406	2.36
261.621	2.3
261.836	2.8
262.05	2.82
262.265	2.39
262.48	2.46
262.695	2.65
262.91	2.42
263.125	3.04
263.34	3.51
263.555	3.14
263.769	2.95
263.984	2.89
264.199	2.07
264.414	2.26
264.629	3.01
264.843	2.79
265.058	2.62
265.273	2.74
265.488	2.56
265.702	2.61
265.917	2.26
266.132	2.51
266.346	2.8
266.561	2.92
266.776	2.62
266.99	2.3
267.205	2.84
267.42	3.06
267.634	2.92
267.849	2.97
268.063	3.05
268.278	3.45
268.492	3.64
268.707	3.16
268.922	3
269.136	3.3
269.351	3.47
269.565	3.4
269.78	2.88
269.994	3.04
270.209	3.26
270.423	2.89
270.637	2.56
270.852	2.25
271.066	2.6
271.281	2.92
271.495	2.77
271.709	2.51
271.924	2.42
272.138	2.73
272.353	2.43
272.567	2.16
272.781	2.15
272.996	2.75
273.21	2.89
273.424	2.99
273.638	2.54
273.853	2.43
274.067	2.6
274.281	2.25
274.495	1.83
274.71	2.7
274.924	2.23
275.138	2.7
275.352	1.9
275.566	1.81
275.781	1.14
275.995	1.64
276.209	1.95
276.423	2.04
276.637	2.01
276.851	2.24
277.065	1.67
277.279	1.96
277.493	1.7
277.707	2.04
277.921	1.78
278.135	1.84
278.349	1.52
278.563	1.65
278.777	1.56
278.991	1.7
279.205	1.72
279.419	1.44
279.633	1.28
279.847	0.94
280.061	0.79
280.275	0.8
280.489	1.08
280.703	1.5
280.917	1.46
281.131	1.74
281.344	1.63
281.558	2.06
281.772	1.86
281.986	2.33
282.2	2.08
282.414	2.43
282.627	2.71
282.841	2.66
283.055	2.4
283.269	2.21
283.482	1.96
283.696	1.86
283.91	1.81
284.123	2.65
284.337	2.55
284.551	3
284.764	2.97
284.978	2.99
285.192	2.81
285.405	2.87
285.619	3.21
285.833	3.05
286.046	3.27
286.26	3.19
286.473	2.6
286.687	2.31
286.9	2.3
287.114	2.21
287.327	2.15
287.541	2.38
287.754	2.15
287.968	2.33
288.181	2.54
288.395	2.45
288.608	2.36
288.822	2.71
289.035	3.02
289.248	2.85
289.462	2.94
289.675	2.95
289.889	3.39
290.102	3.49
290.315	3.11
290.529	3.36
290.742	3.22
290.955	3.33
291.169	3.07
291.382	3.22
291.595	3.46
291.808	3.56
292.022	3.94
292.235	3.55
292.448	3.89
292.661	4.08
292.875	3.86
293.088	4.35
293.301	4.75
293.514	5.21
293.727	5.31
293.94	5.17
294.153	5.03
294.367	4.46
294.58	4.71
294.793	4.47
295.006	4.34
295.219	4.19
295.432	4.05
295.645	3.79
295.858	3.72
296.071	3.73
296.284	3.99
296.497	4.23
296.71	4.61
296.923	4.36
297.136	4.58
297.349	4.43
297.562	4.47
297.775	4.53
297.988	4.59
298.201	4.52
298.414	4.4
298.626	4.35
298.839	4.41
299.052	4.43
299.265	4.69
299.478	4.44
299.691	4.78
299.903	5.27
300.116	5.27
300.329	5.28
300.542	5.3
300.755	5.83
300.967	5.91
301.18	5.76
301.393	5.75
301.605	5.84
301.818	6.06
302.031	5.95
302.243	5.97
302.456	5.8
302.669	5.83
302.881	6.08
303.094	6.08
303.307	6.08
303.519	6.18
303.732	5.92
303.944	5.76
304.157	5.66
304.37	5.5
304.582	5.47
304.795	5.74
305.007	5.8
305.22	5.8
305.432	5.49
305.645	5.91
305.857	5.77
306.069	6.15
306.282	6.42
306.494	6.71
306.707	7.1
306.919	6.94
307.132	7.17
307.344	7.47
307.556	7.63
307.769	7.35
307.981	7.01
308.193	7.01
308.406	7.09
308.618	7.24
308.83	7.13
309.043	7.1
309.255	7.01
309.467	6.57
309.679	6.43
309.892	6.21
310.104	6.34
310.316	6.34
310.528	6.65
310.74	6.55
310.953	6.37
311.165	6.43
311.377	6.46
311.589	6.55
311.801	6.96
312.013	6.86
312.225	7.13
312.437	7.29
312.649	7.54
312.862	7.58
313.074	7.77
313.286	7.95
313.498	8.12
313.71	8.14
313.922	8.1
314.134	8.17
314.346	8.71
314.558	8.54
314.77	8.31
314.982	8.06
315.193	7.79
315.405	7.66
315.617	7.51
315.829	7.3
316.041	7.74
316.253	7.85
316.465	7.73
316.677	7.42
316.888	7.64
317.1	7.9
317.312	7.98
317.524	8.11
317.736	8.19
317.947	8.41
318.159	8.66
318.371	8.43
318.583	8.52
318.794	8.25
319.006	8.13
319.218	8.09
319.43	8.04
319.641	7.89
319.853	7.94
320.064	7.99
320.276	7.91
320.488	7.75
320.699	7.6
320.911	7.76
321.123	7.91
321.334	7.54
321.546	7.38
321.757	7.54
321.969	7.37
322.18	7.35
322.392	7.68
322.603	7.73
322.815	7.69
323.026	7.91
323.238	7.83
323.449	8.27
323.661	8.79
323.872	8.95
324.083	8.86
324.295	9.61
324.506	9.98
324.718	10.05
324.929	9.92
325.14	10.34
325.352	10.26
325.563	10.44
325.774	10.77
325.986	10.75
326.197	11.02
326.408	11.31
326.62	10.99
326.831	11.3
327.042	11.4
327.253	11.72
327.464	12.02
327.676	12.48
327.887	12.67
328.098	12.31
328.309	12.79
328.52	13.04
328.732	13.37
328.943	14.1
329.154	13.95
329.365	14.29
329.576	14.81
329.787	14.84
329.998	14.99
330.209	15.38
330.42	16.05
330.631	16.45
330.842	16.46
331.053	16.62
331.264	16.46
331.475	16.5
331.686	16.6
331.897	16.24
332.108	16.24
332.319	16.22
332.53	16.18
332.741	16.26
332.952	15.86
333.163	15.86
333.374	16.02
333.585	16.04
333.795	16.14
334.006	15.87
334.217	16.21
334.428	16.3
334.639	16.57
334.849	16.48
335.06	16.55
335.271	16.8
335.482	16.9
335.692	16.53
335.903	16.59
336.114	16.43
336.325	16.75
336.535	16.39
336.746	16.45
336.957	16
337.167	16.09
337.378	16.06
337.589	16.3
337.799	16.22
338.01	16.65
338.22	16.78
338.431	16.96
338.642	16.8
338.852	17.34
339.063	17.11
339.273	17.37
339.484	17.46
339.694	17.57
339.905	17.15
340.115	17.07
340.326	16.88
340.536	17.02
340.746	17.15
340.957	17.07
341.167	17.07
341.378	17.35
341.588	17.42
341.799	17.27
342.009	17.4
342.219	17.53
342.43	17.48
342.64	17.82
342.85	17.8
343.061	17.73
343.271	17.82
343.481	17.35
343.691	16.92
343.902	16.55
344.112	16.84
344.322	16.42
344.532	16.65
344.743	16.6
344.953	16.31
345.163	16.51
345.373	16.37
345.583	16.13
345.793	16.3
346.004	16.43
346.214	16.47
346.424	16.23
346.634	16.15
346.844	15.8
347.054	16.02
347.264	15.92
347.474	15.1
347.684	15.33
347.894	15.56
348.104	15.65
348.314	15.59
348.524	15.66
348.734	15.67
348.944	15.97
349.154	16.37
349.364	16.15
349.574	15.98
349.784	16.19
349.994	16.1
350.204	16.26
350.413	16.39
350.623	16.57
350.833	16.61
351.043	16.24
351.253	16.29
351.463	15.79
351.672	16.09
351.882	16.2
352.092	16.12
352.302	15.88
352.511	15.76
352.721	15.53
352.931	15.56
353.141	15.7
353.35	15.74
353.56	15.63
353.77	15.97
353.979	15.98
354.189	15.84
354.399	16.07
354.608	16.15
354.818	16.24
355.027	16.56
355.237	16.31
355.447	16.11
355.656	16.64
355.866	16.42
356.075	16.42
356.285	16.14
356.494	16.28
356.704	16.07
356.913	16.16
357.123	15.88
357.332	15.59
357.542	15.99
357.751	16.16
357.96	15.86
358.17	15.9
358.379	15.67
358.589	15.67
358.798	15.71
359.007	15.71
359.217	15.72
359.426	15.85
359.635	15.77
359.845	15.48
360.054	15.35
360.263	15.36
360.472	15.4
360.682	15.6
360.891	15.63
361.1	15.55
361.309	15.59
361.519	15.5
361.728	15.34
361.937	15.52
362.146	15.42
362.355	15.33
362.564	15.4
362.774	15.41
362.983	15.1
363.192	15
363.401	14.94
363.61	14.94
363.819	15.05
364.028	15.14
364.237	14.81
364.446	14.83
364.655	14.87
364.864	14.55
365.073	14.4
365.282	14.39
365.491	14.38
365.7	14.46
365.909	14.37
366.118	14.33
366.327	14.11
366.536	14.2
366.745	14.07
366.954	14.03
367.162	14.18
367.371	14.15
367.58	14.37
367.789	14.28
367.998	14.32
368.207	14.27
368.415	13.9
368.624	13.87
368.833	13.86
369.042	14.22
369.25	14.2
369.459	14.2
369.668	14.3
369.877	14.26
370.085	14.58
370.294	14.35
370.503	14.49
370.711	14.63
370.92	14.66
371.129	14.72
371.337	14.41
371.546	14.61
371.754	14.5
371.963	14.2
372.171	14.16
372.38	13.78
372.589	13.89
372.797	13.84
373.006	14.03
373.214	14.14
373.423	14.1
373.631	14.17
373.84	14.12
374.048	14.22
374.256	14.39
374.465	14.19
374.673	14.19
374.882	14.25
375.09	13.9
375.298	13.57
375.507	13.43
375.715	13.35
375.923	13.36
376.132	13.14
376.34	13.01
376.548	12.92
376.757	13.15
376.965	13.35
377.173	13.27
377.381	13.44
377.59	13.28
377.798	13.3
378.006	13.08
378.214	13.14
378.423	13.13
378.631	13.2
378.839	13.07
379.047	12.87
379.255	12.73
379.463	12.5
379.671	12.45
379.879	12.8
380.088	13.01
380.296	13.15
380.504	12.98
380.712	12.98
380.92	12.86
381.128	13.06
381.336	12.72
381.544	12.68
381.752	12.79
381.96	12.78
382.168	12.56
382.376	12.29
382.584	11.94
382.791	12.02
382.999	11.79
383.207	11.91
383.415	11.95
383.623	12.23
383.831	12.17
384.039	12.16
384.247	12.04
384.454	12.14
384.662	12.17
384.87	12.53
385.078	12.45
385.285	12.65
385.493	12.5
385.701	12.51
385.909	12.36
386.116	12.59
386.324	12.36
386.532	12.48
386.739	12.42
386.947	12.26
387.155	12.2
387.362	12.21
387.57	12.2
387.778	12.41
387.985	12.4
388.193	12.42
388.4	12.28
388.608	12.44
388.816	12.33
389.023	12.33
389.231	12.7
389.438	12.71
389.646	12.74
389.853	12.56
390.061	12.36
390.268	12.3
390.475	12.38
390.683	12.3
390.89	12.26
391.098	12.13
391.305	12.12
391.512	11.83
391.72	11.62
391.927	11.53
392.135	11.65
392.342	11.57
392.549	11.55
392.756	11.52
392.964	11.42
393.171	11.44
393.378	11.54
393.586	11.73
393.793	11.79
394	11.97
394.207	11.97
394.414	11.99
394.622	12.01
394.829	12.1
395.036	12.21
395.243	12.31
395.45	12.32
395.657	12.39
395.864	12.31
396.072	12.27
396.279	12.26
396.486	12.3
396.693	12.26
396.9	12.21
397.107	12.12
397.314	11.99
397.521	12.14
397.728	12.08
397.935	12
398.142	12
398.349	11.89
398.556	11.8
398.763	11.76
398.97	11.81
399.177	11.88
399.383	11.82
399.59	11.73
399.797	11.67
400.004	11.61
400.211	11.47
400.418	11.31
400.625	11.42
400.831	11.49
401.038	11.56
401.245	11.42
401.452	11.5
401.658	11.41
401.865	11.44
402.072	11.19
402.279	11.42
402.485	11.59
402.692	11.65
402.899	11.78
403.105	11.76
403.312	11.6
403.519	11.76
403.725	11.71
403.932	11.82
404.138	11.72
404.345	11.75
404.552	11.72
404.758	11.57
404.965	11.53
405.171	11.38
405.378	11.29
405.584	11.38
405.791	11.38
405.997	11.41
406.204	11.34
406.41	11.62
406.617	11.71
406.823	11.57
407.029	11.76
407.236	11.68
407.442	11.76
407.649	11.86
407.855	11.9
408.061	11.88
408.268	11.75
408.474	11.86
408.68	11.7
408.887	11.77
409.093	11.88
409.299	11.69
409.505	11.85
409.712	11.78
409.918	11.8
410.124	11.88
410.33	11.81
410.537	11.81
410.743	11.71
410.949	11.61
411.155	11.53
411.361	11.51
411.567	11.57
411.773	11.48
411.98	11.52
412.186	11.28
412.392	11.12
412.598	11.16
412.804	11.23
413.01	11.36
413.216	11.57
413.422	11.62
413.628	11.77
413.834	11.85
414.04	12.06
414.246	12.09
414.452	12.36
414.658	12.43
414.864	12.36
415.07	12.33
415.275	12.37
415.481	12.29
415.687	12.4
415.893	12.35
416.099	12.36
416.305	12.19
416.511	12.25
416.716	12.2
416.922	12.18
417.128	12.3
417.334	12.29
417.539	12.21
417.745	12.22
417.951	12.04
418.157	12.1
418.362	12.29
418.568	12.4
418.774	12.39
418.979	12.39
419.185	12.33
419.391	12.39
419.596	12.45
419.802	12.45
420.008	12.49
420.213	12.61
420.419	12.58
420.624	12.48
420.83	12.46
421.035	12.4
421.241	12.44
421.446	12.53
421.652	12.36
421.857	12.43
422.063	12.5
422.268	12.48
422.474	12.46
422.679	12.43
422.885	12.42
423.09	12.39
423.295	12.52
423.501	12.5
423.706	12.53
423.911	12.57
424.117	12.51
424.322	12.55
424.527	12.62
424.733	12.66
424.938	12.69
425.143	12.68
425.349	12.73
425.554	12.61
425.759	12.61
425.964	12.6
426.169	12.62
426.375	12.6
426.58	12.42
426.785	12.27
426.99	12.15
427.195	12.1
427.4	12.06
427.605	12.01
427.811	12.03
428.016	11.94
428.221	12.07
428.426	12.04
428.631	12.1
428.836	12.21
429.041	12.38
429.246	12.36
429.451	12.51
429.656	12.6
429.861	12.57
430.066	12.64
430.271	12.74
430.476	12.61
430.681	12.65
430.886	12.64
431.09	12.59
431.295	12.55
431.5	12.69
431.705	12.67
431.91	12.62
432.115	12.54
432.32	12.5
432.524	12.5
432.729	12.46
432.934	12.54
433.139	12.58
433.343	12.68
433.548	12.72
433.753	12.72
433.958	12.71
434.162	12.69
434.367	12.73
434.572	12.8
434.776	12.94
434.981	12.94
435.186	12.93
435.39	12.92
435.595	12.77
435.799	12.72
436.004	12.71
436.209	12.64
436.413	12.7
436.618	12.72
436.822	12.63
437.027	12.48
437.231	12.6
437.436	12.65
437.64	12.7
437.845	12.82
438.049	12.79
438.253	12.84
438.458	12.79
438.662	12.84
438.867	12.91
439.071	13.02
439.275	13.04
439.48	12.97
439.684	12.9
439.888	12.87
440.093	12.89
440.297	12.97
440.501	12.98
440.706	13.03
440.91	13
441.114	13.03
441.318	12.94
441.523	13
441.727	13.04
441.931	12.99
442.135	12.93
442.339	12.85
442.543	12.9
442.748	12.86
442.952	12.84
443.156	12.86
443.36	12.87
443.564	12.9
443.768	12.82
443.972	12.85
444.176	12.88
444.38	12.91
444.584	12.94
444.788	12.92
444.992	13
445.196	13.02
445.4	13.02
445.604	13.04
445.808	13.03
446.012	13.04
446.216	13.03
446.42	13.07
446.624	13.08
446.828	13.05
447.032	13.06
447.235	13
447.439	13.01
447.643	13.09
447.847	13.11
448.051	13.13
448.254	13.11
448.458	13.13
448.662	13.14
448.866	13.09
449.069	13.15
449.273	13.1
449.477	13.12
449.681	13.07
449.884	12.88
450.088	12.75
450.292	12.74
450.495	12.83
450.699	12.73
450.902	12.6
451.106	12.67
451.31	12.64
451.513	12.65
451.717	12.55
451.92	12.72
452.124	12.72
452.327	12.73
452.531	12.7
452.734	12.65
452.938	12.83
453.141	12.94
453.345	12.92
453.548	12.9
453.752	12.85
453.955	12.84
454.158	12.75
454.362	12.82
454.565	12.8
454.769	12.87
454.972	12.85
455.175	12.63
455.379	12.61
455.582	12.59
455.785	12.63
455.988	12.7
456.192	12.77
456.395	12.72
456.598	12.75
456.801	12.71
457.005	12.64
457.208	12.67
457.411	12.74
457.614	12.76
457.817	12.82
458.021	12.94
458.224	12.9
458.427	12.86
458.63	12.92
458.833	12.84
459.036	12.92
459.239	12.92
459.442	12.96
459.645	12.96
459.848	12.96
460.051	12.97
460.254	12.93
460.457	12.9
460.66	12.92
460.863	12.82
461.066	12.86
461.269	12.86
461.472	12.87
461.675	12.86
461.878	12.91
462.081	12.91
462.284	12.85
462.486	12.72
462.689	12.75
462.892	12.85
463.095	12.99
463.298	12.97
463.5	13.02
463.703	13.11
463.906	13
464.109	13.03
464.311	12.96
464.514	13.08
464.717	13.15
464.92	13.07
465.122	13
465.325	12.98
465.528	13.01
465.73	12.94
465.933	12.86
466.135	12.84
466.338	12.82
466.541	12.93
466.743	12.96
466.946	12.94
467.148	13.05
467.351	12.98
467.553	13.04
467.756	13
467.958	12.97
468.161	13.02
468.363	13.1
468.566	13.09
468.768	13.08
468.971	12.93
469.173	13.06
469.375	13.07
469.578	13.22
469.78	13.09
469.983	13.24
470.185	13.39
470.387	13.4
470.59	13.43
470.792	13.55
470.994	13.43
471.196	13.52
471.399	13.4
471.601	13.34
471.803	13.25
472.005	13.29
472.208	13.25
472.41	13.19
472.612	13.12
472.814	13.03
473.016	12.83
473.218	13
473.421	12.91
473.623	12.91
473.825	13
474.027	12.99
474.229	12.97
474.431	12.86
474.633	12.85
474.835	12.94
475.037	13.03
475.239	13.1
475.441	13.1
475.643	13.17
475.845	13.25
476.047	13.22
476.249	13.31
476.451	13.37
476.653	13.48
476.855	13.56
477.057	13.49
477.258	13.52
477.46	13.56
477.662	13.46
477.864	13.52
478.066	13.58
478.268	13.57
478.469	13.45
478.671	13.44
478.873	13.42
479.075	13.34
479.276	13.37
479.478	13.46
479.68	13.44
479.882	13.49
480.083	13.52
480.285	13.38
480.487	13.51
480.688	13.6
480.89	13.64
481.091	13.64
481.293	13.74
481.495	13.71
481.696	13.65
481.898	13.67
482.099	13.67
482.301	13.69
482.502	13.76
482.704	13.7
482.905	13.69
483.107	13.68
483.308	13.69
483.51	13.7
483.711	13.73
483.913	13.71
484.114	13.74
484.315	13.76
484.517	13.72
484.718	13.7
484.92	13.7
485.121	13.71
485.322	13.72
485.524	13.74
485.725	13.7
485.926	13.72
486.127	13.72
486.329	13.68
486.53	13.65
486.731	13.64
486.932	13.65
487.134	13.63
487.335	13.62
487.536	13.61
487.737	13.55
487.938	13.56
488.139	13.54
488.341	13.53
488.542	13.52
488.743	13.55
488.944	13.57
489.145	13.57
489.346	13.61
489.547	13.62
489.748	13.59
489.949	13.71
490.15	13.71
490.351	13.7
490.552	13.77
490.753	13.78
490.954	13.74
491.155	13.79
491.356	13.77
491.557	13.77
491.758	13.79
491.959	13.79
492.159	13.74
492.36	13.75
492.561	13.7
492.762	13.66
492.963	13.63
493.164	13.63
493.364	13.61
493.565	13.63
493.766	13.62
493.967	13.62
494.167	13.67
494.368	13.63
494.569	13.6
494.769	13.69
494.97	13.73
495.171	13.72
495.371	13.7
495.572	13.73
495.773	13.69
495.973	13.72
496.174	13.68
496.375	13.66
496.575	13.75
496.776	13.74
496.976	13.72
497.177	13.72
497.377	13.76
497.578	13.83
497.778	13.75
497.979	13.86
498.179	13.83
498.38	13.87
498.58	13.86
498.78	13.88
498.981	13.87
499.181	13.85
499.382	13.87
499.582	13.9
499.782	13.95
499.983	14.01
500.183	13.99
500.383	14.06
500.584	14.1
500.784	14.26
500.984	14.19
501.184	14.21
501.385	14.4
501.585	14.45
501.785	14.51
501.985	14.52
502.185	14.49
502.386	14.52
502.586	14.56
502.786	14.57
502.986	14.51
503.186	14.58
503.386	14.68
503.586	14.7
503.786	14.65
503.987	14.68
504.187	14.71
504.387	14.77
504.587	14.7
504.787	14.67
504.987	14.61
505.187	14.6
505.387	14.57
505.587	14.66
505.786	14.67
505.986	14.77
506.186	14.77
506.386	14.8
506.586	14.78
506.786	14.9
506.986	14.89
507.186	15.03
507.386	15.09
507.585	15.21
507.785	15.17
507.985	15.1
508.185	15.13
508.384	15.2
508.584	15.24
508.784	15.34
508.984	15.4
509.183	15.44
509.383	15.44
509.583	15.45
509.782	15.43
509.982	15.5
510.182	15.58
510.381	15.59
510.581	15.56
510.781	15.63
510.98	15.64
511.18	15.64
511.379	15.69
511.579	15.75
511.778	15.81
511.978	15.87
512.177	15.86
512.377	15.88
512.576	15.94
512.776	16.05
512.975	16.05
513.175	16.09
513.374	16.17
513.573	16.22
513.773	16.24
513.972	16.34
514.172	16.38
514.371	16.52
514.57	16.6
514.77	16.62
514.969	16.67
515.168	16.73
515.367	16.84
515.567	16.88
515.766	16.9
515.965	16.91
516.164	16.98
516.364	17.11
516.563	17.12
516.762	17.22
516.961	17.28
517.16	17.25
517.359	17.31
517.559	17.33
517.758	17.39
517.957	17.47
518.156	17.5
518.355	17.5
518.554	17.48
518.753	17.54
518.952	17.52
519.151	17.66
519.35	17.8
519.549	17.81
519.748	17.83
519.947	17.9
520.146	17.92
520.345	18.03
520.544	18.05
520.743	18.09
520.942	18.16
521.141	18.22
521.339	18.11
521.538	18.09
521.737	18.12
521.936	18.2
522.135	18.25
522.333	18.33
522.532	18.37
522.731	18.45
522.93	18.53
523.129	18.62
523.327	18.65
523.526	18.77
523.725	18.84
523.923	18.9
524.122	18.97
524.321	18.98
524.519	19.08
524.718	19.09
524.917	19.18
525.115	19.22
525.314	19.28
525.512	19.38
525.711	19.43
525.909	19.52
526.108	19.56
526.306	19.58
526.505	19.69
526.703	19.72
526.902	19.81
527.1	19.87
527.299	19.94
527.497	19.98
527.696	20.02
527.894	20.11
528.092	20.14
528.291	20.18
528.489	20.27
528.688	20.29
528.886	20.34
529.084	20.4
529.283	20.42
529.481	20.46
529.679	20.49
529.877	20.49
530.076	20.49
530.274	20.5
530.472	20.57
530.67	20.59
530.869	20.62
531.067	20.67
531.265	20.72
531.463	20.84
531.661	20.89
531.859	20.94
532.057	21.01
532.255	21.03
532.454	21.1
532.652	21.1
532.85	21.15
533.048	21.23
533.246	21.25
533.444	21.25
533.642	21.24
533.84	21.27
534.038	21.37
534.236	21.38
534.434	21.46
534.632	21.51
534.83	21.59
535.027	21.59
535.225	21.66
535.423	21.73
535.621	21.82
535.819	21.86
536.017	21.93
536.215	21.91
536.412	22.02
536.61	22.02
536.808	22.08
537.006	22.13
537.203	22.11
537.401	22.05
537.599	22.04
537.797	22.02
537.994	22.04
538.192	22.04
538.39	22.07
538.587	22.11
538.785	22.18
538.983	22.25
539.18	22.3
539.378	22.5
539.575	22.57
539.773	22.72
539.97	22.8
540.168	22.87
540.366	22.92
540.563	22.99
540.761	23.03
540.958	23.07
541.155	23.09
541.353	23.15
541.55	23.16
541.748	23.18
541.945	23.22
542.143	23.26
542.34	23.26
542.537	23.29
542.735	23.3
542.932	23.32
543.129	23.38
543.327	23.46
543.524	23.5
543.721	23.67
543.919	23.81
544.116	23.9
544.313	23.95
544.51	24.1
544.708	24.27
544.905	24.39
545.102	24.51
545.299	24.55
545.496	24.58
545.693	24.62
545.891	24.5
546.088	24.43
546.285	24.39
546.482	24.4
546.679	24.33
546.876	24.28
547.073	24.27
547.27	24.18
547.467	24.2
547.664	24.13
547.861	24.12
548.058	24.17
548.255	24.25
548.452	24.22
548.649	24.25
548.846	24.38
549.043	24.29
549.24	24.26
549.437	24.37
549.633	24.36
549.83	24.5
550.027	24.47
550.224	24.43
550.421	24.41
550.618	24.32
550.814	24.33
551.011	24.11
551.208	24.19
551.405	24.07
551.601	24.02
551.798	23.87
551.995	23.74
552.191	23.68
552.388	23.65
552.585	23.63
552.781	23.69
552.978	23.68
553.175	23.7
553.371	23.65
553.568	23.82
553.764	23.79
553.961	23.92
554.157	23.88
554.354	23.98
554.55	24.02
554.747	24.08
554.943	24.01
555.14	23.96
555.336	24.07
555.533	24.17
555.729	24.04
555.926	24.1
556.122	24.13
556.318	24.2
556.515	24.07
556.711	24.14
556.907	24.06
557.104	24.13
557.3	24
557.496	23.99
557.693	23.91
557.889	23.98
558.085	23.94
558.281	23.85
558.478	23.95
558.674	24.1
558.87	24.07
559.066	24.18
559.262	24.21
559.459	24.27
559.655	24.3
559.851	24.27
560.047	24.41
560.243	24.47
560.439	24.5
560.635	24.47
560.831	24.43
561.027	24.36
561.223	24.32
561.419	24.35
561.615	24.48
561.811	24.5
562.007	24.6
562.203	24.54
562.399	24.57
562.595	24.46
562.791	24.41
562.987	24.35
563.183	24.37
563.379	24.34
563.575	24.32
563.771	24.26
563.966	24.17
564.162	24.16
564.358	24.04
564.554	24.03
564.75	24.18
564.945	24.29
565.141	24.31
565.337	24.42
565.533	24.46
565.728	24.38
565.924	24.39
566.12	24.55
566.315	24.53
566.511	24.68
566.707	24.65
566.902	24.67
567.098	24.65
567.293	24.71
567.489	24.74
567.684	24.67
567.88	24.71
568.076	24.81
568.271	24.61
568.467	24.57
568.662	24.51
568.858	24.42
569.053	24.42
569.248	24.36
569.444	24.3
569.639	24.13
569.835	24.15
570.03	24.13
570.225	24.1
570.421	24.16
570.616	24.12
570.812	23.98
571.007	24.03
571.202	24.04
571.397	23.98
571.593	23.94
571.788	24.02
571.983	24.11
572.178	24.2
572.374	24.12
572.569	24.13
572.764	24.22
572.959	24.29
573.154	24.29
573.35	24.2
573.545	24.36
573.74	24.45
573.935	24.38
574.13	24.36
574.325	24.31
574.52	24.41
574.715	24.46
574.91	24.53
575.105	24.63
575.3	24.56
575.495	24.77
575.69	24.79
575.885	24.84
576.08	24.95
576.275	24.96
576.47	25.02
576.665	25.14
576.86	25.23
577.055	25.21
577.25	25.27
577.444	25.48
577.639	25.46
577.834	25.45
578.029	25.59
578.224	25.63
578.418	25.74
578.613	25.74
578.808	25.6
579.003	25.5
579.197	25.46
579.392	25.42
579.587	25.32
579.781	25.24
579.976	25.29
580.171	25.15
580.365	25.08
580.56	25.08
580.755	25.04
580.949	25.13
581.144	25.22
581.338	25.31
581.533	25.3
581.727	25.37
581.922	25.44
582.116	25.46
582.311	25.59
582.505	25.79
582.7	25.87
582.894	26.07
583.089	26.06
583.283	26.09
583.478	26.21
583.672	26.16
583.866	26.32
584.061	26.39
584.255	26.4
584.449	26.35
584.644	26.25
584.838	26.33
585.032	26.25
585.226	26.31
585.421	26.28
585.615	26.18
585.809	26.27
586.003	26.31
586.198	26.32
586.392	26.44
586.586	26.4
586.78	26.32
586.974	26.16
587.168	26.12
587.363	26.17
587.557	26.21
587.751	26.26
587.945	26.33
588.139	26.36
588.333	26.31
588.527	26.19
588.721	26.28
588.915	26.45
589.109	26.5
589.303	26.47
589.497	26.55
589.691	26.47
589.885	26.24
590.079	26.26
590.273	26.14
590.466	26.05
590.66	26.08
590.854	26.18
591.048	26.17
591.242	26.11
591.436	26.29
591.629	26.21
591.823	26.29
592.017	26.54
592.211	26.55
592.404	26.67
592.598	26.74
592.792	26.78
592.986	26.61
593.179	26.53
593.373	26.64
593.567	26.45
593.76	26.45
593.954	26.46
594.147	26.36
594.341	26.34
594.535	26.17
594.728	26.17
594.922	26.2
595.115	26.19
595.309	26.14
595.502	26.11
595.696	26.3
595.889	26.37
596.083	26.4
596.276	26.53
596.47	26.5
596.663	26.55
596.856	26.56
597.05	26.54
597.243	26.75
597.437	26.83
597.63	26.93
597.823	26.96
598.017	26.93
598.21	27.04
598.403	27.02
598.596	27.09
598.79	27.21
598.983	27.27
599.176	27.32
599.369	27.09
599.563	27.19
599.756	27.08
599.949	27.08
600.142	27.16
600.335	27.12
600.528	27.12
600.722	27.14
600.915	27.15
601.108	27.32
601.301	27.36
601.494	27.46
601.687	27.44
601.88	27.48
602.073	27.51
602.266	27.5
602.459	27.42
602.652	27.45
602.845	27.54
603.038	27.47
603.231	27.43
603.424	27.32
603.617	27.28
603.809	27.24
604.002	27.25
604.195	27.07
604.388	27.03
604.581	26.96
604.774	27.01
604.966	26.88
605.159	26.86
605.352	27.02
605.545	27.12
605.737	27.13
605.93	27.17
606.123	27.29
606.316	27.51
606.508	27.56
606.701	27.76
606.894	27.83
607.086	28.04
607.279	28.41
607.471	28.28
607.664	28.5
607.857	28.75
608.049	28.97
608.242	29.04
608.434	29.5
608.627	29.93
608.819	30.42
609.012	31.01
609.204	31.65
609.397	32.37
609.589	32.98
609.782	33.66
609.974	34.54
610.166	35.42
610.359	36.39
610.551	36.98
610.743	37.71
610.936	38.32
611.128	38.75
611.32	39.02
611.513	38.93
611.705	39.06
611.897	38.87
612.09	38.58
612.282	38.14
612.474	37.75
612.666	37.54
612.858	37.09
613.051	36.46
613.243	36.03
613.435	35.65
613.627	35.32
613.819	34.94
614.011	35.01
614.203	34.6
614.395	34.36
614.588	33.94
614.78	33.45
614.972	33.17
615.164	32.94
615.356	32.52
615.548	32.19
615.74	31.94
615.932	31.96
616.124	31.31
616.315	31.19
616.507	31.1
616.699	30.79
616.891	30.67
617.083	30.49
617.275	30.31
617.467	30.35
617.659	30.24
617.85	30.18
618.042	29.76
618.234	29.9
618.426	29.82
618.618	29.72
618.809	29.92
619.001	29.87
619.193	29.87
619.384	29.89
619.576	29.95
619.768	29.99
619.959	29.95
620.151	30.15
620.343	30.12
620.534	30.16
620.726	30.2
620.917	30.26
621.109	30.37
621.301	30.43
621.492	30.58
621.684	30.61
621.875	30.78
622.067	30.84
622.258	30.91
622.45	31.1
622.641	31.33
622.832	31.35
623.024	31.23
623.215	31.21
623.407	31.34
623.598	31.27
623.789	31.31
623.981	31.2
624.172	31.34
624.363	31.25
624.555	31.16
624.746	31
624.937	30.94
625.129	30.99
625.32	31.01
625.511	30.74
625.702	30.66
625.893	30.55
626.085	30.67
626.276	30.43
626.467	30.47
626.658	30.42
626.849	30.15
627.04	30.13
627.231	30.14
627.422	30.16
627.614	30.33
627.805	30.43
627.996	30.54
628.187	30.47
628.378	30.67
628.569	30.8
628.76	30.96
628.951	31.32
629.142	31.37
629.332	31.55
629.523	31.58
629.714	31.65
629.905	31.7
630.096	31.77
630.287	31.88
630.478	32
630.669	31.95
630.859	31.91
631.05	31.87
631.241	31.92
631.432	31.71
631.623	31.56
631.813	31.52
632.004	31.53
632.195	31.3
632.385	31.14
632.576	30.9
632.767	30.71
632.957	30.57
633.148	30.33
633.339	30.26
633.529	30.31
633.72	30.23
633.91	30.1
634.101	29.97
634.292	29.77
634.482	29.9
634.673	29.96
634.863	30.03
635.054	30.02
635.244	30.24
635.435	30.31
635.625	30.38
635.815	30.43
636.006	30.24
636.196	30.35
636.387	30.52
636.577	30.44
636.767	30.41
636.958	30.38
637.148	30.44
637.338	30.45
637.529	30.29
637.719	30.2
637.909	30.38
638.099	30.71
638.29	30.61
638.48	30.63
638.67	30.64
638.86	30.55
639.05	30.71
639.241	30.64
639.431	30.37
639.621	30.52
639.811	30.58
640.001	30.48
640.191	30.46
640.381	30.58
640.571	30.63
640.761	30.57
640.951	30.45
641.141	30.45
641.331	30.42
641.521	30.71
641.711	30.81
641.901	30.71
642.091	30.72
642.281	30.56
642.471	30.53
642.661	30.66
642.851	30.96
643.041	31.09
643.231	30.86
643.42	30.98
643.61	30.95
643.8	30.95
643.99	31.06
644.18	31.09
644.369	31.3
644.559	31.37
644.749	31.46
644.939	31.26
645.128	31.55
645.318	31.74
645.508	31.47
645.697	31.47
645.887	31.47
646.076	31.44
646.266	31.55
646.456	31.4
646.645	31.28
646.835	31.25
647.024	31.11
647.214	30.89
647.403	30.71
647.593	30.91
647.782	30.88
647.972	30.56
648.161	30.8
648.351	30.63
648.54	30.86
648.73	30.9
648.919	30.8
649.108	30.98
649.298	31.18
649.487	31.3
649.677	31.32
649.866	31.53
650.055	31.74
650.244	31.61
650.434	31.51
650.623	31.4
650.812	31.57
651.002	31.62
651.191	31.59
651.38	31.45
651.569	31.76
651.758	31.9
651.947	31.85
652.137	31.91
652.326	31.89
652.515	32.09
652.704	32.1
652.893	32.12
653.082	32.4
653.271	32.38
653.46	32.53
653.649	32.21
653.838	32.02
654.027	32.1
654.216	32.11
654.405	32
654.594	31.94
654.783	32.02
654.972	31.77
655.161	31.53
655.35	31.56
655.539	31.16
655.728	31.16
655.916	31.24
656.105	31.18
656.294	31.1
656.483	31.07
656.672	31.37
656.86	31.41
657.049	31.5
657.238	31.23
657.427	31.34
657.615	31.69
657.804	31.81
657.993	31.95
658.181	31.72
658.37	31.8
658.559	31.92
658.747	31.7
658.936	31.48
659.125	31.55
659.313	31.69
659.502	31.61
659.69	31.47
659.879	31.52
660.067	31.45
660.256	31.67
660.444	31.85
660.633	31.99
660.821	32.08
661.01	32.36
661.198	32.29
661.387	32.32
661.575	32.25
661.763	32.35
661.952	32.36
662.14	32.49
662.328	32.36
662.517	32.09
662.705	32.05
662.893	31.96
663.082	31.84
663.27	32.17
663.458	32.25
663.646	32.44
663.834	32.63
664.023	32.55
664.211	32.61
664.399	32.81
664.587	32.83
664.775	32.82
664.963	33.03
665.152	33.1
665.34	33.06
665.528	33.14
665.716	33.13
665.904	33.14
666.092	33.25
666.28	33.08
666.468	32.93
666.656	33.06
666.844	33.04
667.032	32.94
667.22	33.04
667.408	32.89
667.596	32.85
667.784	32.85
667.971	32.63
668.159	32.75
668.347	32.7
668.535	32.64
668.723	32.83
668.911	32.68
669.098	32.81
669.286	32.54
669.474	32.5
669.662	32.5
669.849	32.65
670.037	32.74
670.225	32.97
670.413	33.49
670.6	33.4
670.788	33.45
670.976	33.65
671.163	33.67
671.351	33.96
671.538	34.03
671.726	34.17
671.913	34.15
672.101	34.01
672.289	33.55
672.476	33.16
672.664	33.64
672.851	33.36
673.039	33.22
673.226	33.13
673.413	33.15
673.601	33.12
673.788	33.06
673.976	32.87
674.163	33.28
674.35	33.54
674.538	33.83
674.725	33.94
674.912	34.19
675.1	34.48
675.287	34.71
675.474	34.6
675.662	34.89
675.849	34.65
676.036	34.95
676.223	35.06
676.411	34.89
676.598	34.78
676.785	34.5
676.972	34.6
677.159	34.39
677.346	34.3
677.533	34.3
677.721	34.29
677.908	34.72
678.095	34.68
678.282	34.31
678.469	34.6
678.656	34.49
678.843	34.34
679.03	34.06
679.217	34.1
679.404	33.97
679.591	33.81
679.778	33.74
679.964	33.54
680.151	33.52
680.338	33.58
680.525	33.48
680.712	33.51
680.899	33.63
681.086	33.96
681.272	33.92
681.459	33.87
681.646	34.23
681.833	34.28
682.02	34.33
682.206	34.29
682.393	34.22
682.58	34.33
682.766	34.42
682.953	34.52
683.14	34.06
683.326	34.42
683.513	34.66
683.7	34.74
683.886	34.58
684.073	34.56
684.259	34.53
684.446	34.66
684.632	34.55
684.819	34.6
685.005	34.44
685.192	34.6
685.378	34.49
685.565	34.34
685.751	34.36
685.938	34.85
686.124	34.95
686.31	35.04
686.497	35.31
686.683	35.42
686.87	35.27
687.056	35.31
687.242	35.64
687.429	35.48
687.615	35.73
687.801	35.4
687.987	35.37
688.174	35.44
688.36	35.21
688.546	35
688.732	34.84
688.918	34.85
689.105	34.96
689.291	34.94
689.477	35.01
689.663	34.85
689.849	35.28
690.035	35.08
690.221	35.03
690.407	35.38
690.593	35.61
690.779	35.58
690.965	35.71
691.151	35.88
691.337	35.47
691.523	35.66
691.709	35.71
691.895	35.49
692.081	35.28
692.267	35.13
692.453	35
692.639	35.11
692.825	35.3
693.011	35.25
693.196	35.22
693.382	35.48
693.568	35.42
693.754	35.4
693.94	35.45
694.125	35.5
694.311	35.77
694.497	36
694.682	35.68
694.868	35.65
695.054	35.81
695.239	35.76
695.425	35.49
695.611	35.16
695.796	34.98
695.982	34.95
696.168	34.95
696.353	35
696.539	34.81
696.724	34.89
696.91	34.96
697.095	34.68
697.281	34.54
697.466	34.72
697.652	35.02
697.837	35.22
698.023	35.15
698.208	35.07
698.393	34.8
698.579	34.7
698.764	34.48
698.949	34.41
699.135	34.59
699.32	34.55
699.505	34.61
699.691	34.47
699.876	34.43
700.061	34.36
700.246	34.33
700.432	34.53
700.617	34.75
700.802	35.05
700.987	34.91
701.172	34.89
701.358	35.26
701.543	35.26
701.728	35.46
701.913	35.32
702.098	35.67
702.283	35.37
702.468	35.2
702.653	35.25
702.838	35.61
703.023	35.99
703.208	36.1
703.393	35.88
703.578	36.04
703.763	36.18
703.948	36.82
704.133	37.05
704.318	38.04
704.503	38.41
704.688	38.63
704.873	38.47
705.057	38.65
705.242	38.83
705.427	39.46
705.612	40.04
705.797	40.03
705.981	40.25
706.166	40.19
706.351	40.42
706.536	40.87
706.72	41.16
706.905	41.43
707.09	41.41
707.274	41.73
707.459	41.76
707.644	41.65
707.828	41.33
708.013	41.08
708.197	41.29
708.382	41.28
708.567	40.81
708.751	40.5
708.936	40.44
709.12	40.25
709.305	40.03
709.489	39.8
709.673	39.47
709.858	40.01
710.042	40.05
710.227	39.93
710.411	39.6
710.596	39.78
710.78	40.03
710.964	39.88
711.149	40.25
711.333	40.32
711.517	40.3
711.702	40.53
711.886	40.25
712.07	40.37
712.254	40.25
712.438	40.49
712.623	40.32
712.807	40.01
712.991	39.57
713.175	38.91
713.359	38.59
713.544	38.49
713.728	37.94
713.912	37.74
714.096	37.15
714.28	36.71
714.464	36.49
714.648	36.49
714.832	36.16
715.016	36.04
715.2	36.22
715.384	36.1
715.568	35.8
715.752	35.94
715.936	36.04
716.12	36.25
716.304	36.11
716.488	35.74
716.671	35.42
716.855	35.74
717.039	35.93
717.223	35.92
717.407	35.91
717.59	36.14
717.774	36.12
717.958	35.95
718.142	35.63
718.325	36.19
718.509	36.27
718.693	36.72
718.877	36.48
719.06	36.81
719.244	36.81
719.428	36.85
719.611	36.62
719.795	36.79
719.978	36.92
720.162	37.32
720.345	37.36
720.529	37.4
720.713	37.07
720.896	36.76
721.08	37.09
721.263	37.07
721.446	36.99
721.63	37.22
721.813	37.19
721.997	36.97
722.18	36.75
722.364	36.49
722.547	36.37
722.73	36.44
722.914	36.55
723.097	36.05
723.28	35.53
723.464	35.47
723.647	35.22
723.83	35.01
724.013	35.44
724.197	35.86
724.38	35.72
724.563	35.87
724.746	36.03
724.929	36.06
725.112	36.09
725.296	36.7
725.479	36.88
725.662	36.79
725.845	37
726.028	37.09
726.211	36.89
726.394	36.94
726.577	36.7
726.76	36.68
726.943	36.77
727.126	36.59
727.309	36.43
727.492	36.34
727.675	36.22
727.858	35.72
728.041	35.23
728.224	34.98
728.407	35.11
728.589	35.38
728.772	35.49
728.955	35.33
729.138	35.36
729.321	35.12
729.503	35.54
729.686	35.82
729.869	36.06
730.052	36.43
730.234	36.73
730.417	36.65
730.6	37.02
730.782	36.95
730.965	37.19
731.148	37.42
731.33	37.78
731.513	37.47
731.695	37.49
731.878	37.71
732.061	37.67
732.243	37.46
732.426	37.23
732.608	36.98
732.791	37.42
732.973	37.59
733.156	37.76
733.338	37.47
733.52	37.32
733.703	37.58
733.885	37.53
734.068	37.38
734.25	37.42
734.432	38.15
734.615	38.13
734.797	37.96
734.979	37.98
735.162	37.35
735.344	37.7
735.526	37.44
735.708	37.59
735.891	37.92
736.073	38.47
736.255	38.65
736.437	37.69
736.619	37.78
736.802	37.6
736.984	37.92
737.166	38.55
737.348	37.97
737.53	38.75
737.712	38.56
737.894	38.23
738.076	38.02
738.258	38.16
738.44	38.55
738.622	38.43
738.804	38.55
738.986	38.25
739.168	38.05
739.35	38.33
739.532	38.24
739.714	38.32
739.896	38.36
740.078	37.72
740.259	37.33
740.441	37.39
740.623	37.57
740.805	37.51
740.987	37.89
741.168	37.88
741.35	37.92
741.532	37.83
741.714	38.45
741.895	38.84
742.077	39.37
742.259	39.76
742.44	39.77
742.622	39.69
742.804	39.86
742.985	39.49
743.167	39.79
743.348	40.53
743.53	41.07
743.711	40.5
743.893	40.18
744.075	40.47
744.256	40.39
744.438	40.94
744.619	40.98
744.8	40.83
744.982	40.8
745.163	41.01
745.345	41.48
745.526	41.14
745.707	41.03
745.889	41.58
746.07	41.29
746.252	41.38
746.433	41.19
746.614	41.39
746.795	41.76
746.977	41.92
747.158	41.63
747.339	40.26
747.52	40.18
747.702	40.45
747.883	39.99
748.064	40.12
748.245	40.2
748.426	40.22
748.607	40.17
748.788	39.4
748.97	39.49
749.151	39.11
749.332	39.86
749.513	39.6
749.694	39.61
749.875	39.78
750.056	40.06
750.237	40.14
750.418	39.86
750.599	40.12
750.78	41.13
750.96	41.31
751.141	42.27
751.322	41.98
751.503	41.88
751.684	41.4
751.865	41.82
752.046	42.08
752.226	42.22
752.407	43.47
752.588	43.02
752.769	42.17
752.949	41.36
753.13	40.58
753.311	41.06
753.492	41.95
753.672	42.26
753.853	41.54
754.034	40.49
754.214	40.2
754.395	39.1
754.575	38.89
754.756	39.18
754.937	39.57
755.117	39.88
755.298	39.43
755.478	38.74
755.659	38.69
755.839	38.72
756.02	38.51
756.2	38.56
756.381	38.52
756.561	39.25
756.741	39.37
756.922	39.82
757.102	39.99
757.283	39.48
757.463	39.17
757.643	38.45
757.823	38.24
758.004	38.68
758.184	38.06
758.364	38.23
758.545	37.47
758.725	36.54
758.905	35.68
759.085	34.51
759.265	34.89
759.446	34.72
759.626	35
759.806	34.72
759.986	34.05
760.166	33.95
760.346	33.33
760.526	33.58
760.706	34.03
760.886	34.27
761.066	34.65
761.246	34.22
761.426	34.54
761.606	34.13
761.786	34.34
761.966	34.93
762.146	35.04
762.326	35.46
762.506	35.57
762.686	35.44
762.866	35.1
763.046	34.93
763.225	34.94
763.405	34.69
763.585	34.98
763.765	34.64
763.945	34.33
764.124	34.53
764.304	34.43
764.484	33.86
764.664	33.89
764.843	34.45
765.023	35.06
765.203	35.04
765.382	35.58
765.562	35.42
765.741	35.99
765.921	36.35
766.101	36.44
766.28	36.82
766.46	37.33
766.639	37.48
766.819	37.97
766.998	37.64
767.178	38.16
767.357	37.6
767.537	38.73
767.716	38.97
767.896	38.88
768.075	38.8
768.254	39.22
768.434	39.01
768.613	39.31
768.792	38.23
768.972	38.47
769.151	38.92
769.33	39.46
769.51	39.68
769.689	39.48
769.868	40.04
770.047	40.45
770.226	39.74
770.406	40.31
770.585	39.86
770.764	40.13
770.943	41.1
771.122	40.51
771.301	40.75
771.48	39.72
771.66	40.17
771.839	40.84
772.018	40.53
772.197	40.63
772.376	40.93
772.555	41.55
772.734	42.51
772.913	41.28
773.092	41.55
773.271	41.69
773.449	41.78
773.628	42.3
773.807	41.71
773.986	42.37
774.165	42.48
774.344	42.2
774.523	41.93
774.701	41.73
774.88	41.67
775.059	42.07
775.238	41.88
775.417	42.2
775.595	41.83
775.774	41.16
775.953	40.85
776.131	40.48
776.31	40.35
776.489	40.52
776.667	40.38
776.846	40.64
777.025	40.62
777.203	40.28
777.382	39.74
777.56	40.16
777.739	41.36
777.917	41.42
778.096	42.11
778.274	42.38
778.453	43.3
778.631	42.76
778.81	42.62
778.988	43.26
779.166	43.86
779.345	44.3
779.523	43.83
779.702	43.37
779.88	42.89
780.058	43.31
780.237	43.24
780.415	42.33
780.593	42.31
780.771	42.54
780.95	41.91
781.128	41.31
781.306	40.97
781.484	40.95
781.662	40.85
781.841	41.87
782.019	41.12
782.197	42.22
782.375	41.56
782.553	41.48
782.731	41.54
782.909	41.16
783.087	41.4
783.265	41.68
783.443	41.57
783.621	41.59
783.799	40.88
783.977	40.3
784.155	39.15
784.333	39.52
784.511	39.96
784.689	39.53
784.867	39.76
785.045	38.98
785.223	39.08
785.4	38.86
785.578	38.91
785.756	38.63
785.934	38.42
786.112	39.04
786.289	39.37
786.467	39.41
786.645	39.79
786.823	39.14
787	39.78
787.178	39.3
787.356	39.49
787.533	39.04
787.711	39.6
787.889	39.93
788.066	39.7
788.244	39.43
788.421	39.62
788.599	38.92
788.776	38.97
788.954	38.46
789.131	39.5
789.309	39.19
789.486	39.04
789.664	39.12
789.841	39.47
790.019	39.98
790.196	40.65
790.373	40.43
790.551	41.32
790.728	41.54
790.906	42.19
791.083	41.83
791.26	41.77
791.437	42.41
791.615	41.94
791.792	42.2
791.969	41.83
792.146	41.42
792.324	41.24
792.501	41.29
792.678	41.36
792.855	41.71
793.032	41.24
793.209	40.7
793.387	39.97
793.564	40.11
793.741	40.34
793.918	40.52
794.095	39.8
794.272	39.36
794.449	38.97
794.626	39.05
794.803	39.57
794.98	39.29
795.157	39.88
795.334	40.92
795.511	40.76
795.688	39.76
795.864	39.58
796.041	39.77
796.218	40.2
796.395	40.47
796.572	40.59
796.749	39.84
796.925	39.94
797.102	39.41
797.279	38.01
797.456	38.31
797.632	38.84
797.809	38.2
797.986	38.22
798.162	38.31
798.339	37.73
798.516	36.9
798.692	37.25
798.869	37.91
799.046	38.45
799.222	39.11
799.399	38.7
799.575	38.25
799.752	37.5
799.928	37.12
800.105	36.36
800.281	36.77
800.458	38.55
800.634	37.38
800.811	37.99
800.987	38.56
801.163	38.52
801.34	38.31
801.516	38.18
801.692	39.5
801.869	40.26
802.045	41.11
802.221	41.66
802.398	39.99
802.574	41.1
802.75	39.87
802.926	39.53
803.103	39.21
803.279	38.99
803.455	39.99
803.631	38.9
803.807	38.56
803.983	38.37
804.16	36.06
804.336	36.27
804.512	34.36
804.688	34.29
804.864	34.16
805.04	34.6
805.216	35.56
805.392	34.95
805.568	35.16
805.744	35.42
805.92	35.52
806.096	36.08
806.272	36.7
806.448	36.74
806.623	37.28
806.799	37.41
806.975	37.47
807.151	36.12
807.327	36.18
807.503	36.86
807.678	36.64
807.854	36.57
808.03	37.15
808.206	36.21
808.381	36.54
808.557	36.45
808.733	36.92
808.908	37.07
809.084	38.99
809.26	38.69
809.435	37.5
809.611	37.41
809.787	36.22
809.962	36.68
810.138	37.28
810.313	38.22
810.489	37.27
810.664	37.05
810.84	36.03
811.015	34.16
811.191	34.16
811.366	35.13
811.542	35.08
811.717	36.05
811.892	36.12
812.068	34.84
812.243	34.47
812.419	35.29
812.594	34.54
812.769	35.32
812.944	36.8
813.12	36.21
813.295	36.26
813.47	35.6
813.645	36.45
813.821	36.64
813.996	38.51
814.171	39.32
814.346	38.06
814.521	37.99
814.697	38.4
814.872	37.96
815.047	37.48
815.222	37.78
815.397	38
815.572	36.41
815.747	36.25
815.922	35.15
816.097	33.73
816.272	34.58
816.447	34.51
816.622	32.98
816.797	32.02
816.972	32.53
817.147	31.56
817.322	32.32
817.496	32.66
817.671	31.92
817.846	32.13
818.021	33.11
818.196	33.3
818.371	33.57
818.545	35.45
818.72	34.98
818.895	34.59
819.069	34.46
819.244	33.36
819.419	33.86
819.594	34.01
819.768	33.03
819.943	32.26
820.117	31.35
820.292	30.61
820.467	29.48
820.641	29.58
820.816	29.2
820.99	28.99
821.165	28.8
821.339	27.97
821.514	27.61
821.688	27.89
821.863	27.92
822.037	28.06
822.212	28.05
822.386	28.08
822.56	27.94
822.735	28
822.909	27.91
823.084	28.07
823.258	28.49
823.432	28.64
823.606	28.52
823.781	28.43
823.955	28.27
824.129	28.51
824.303	28.9
824.478	29.05
824.652	29.21
824.826	29.64
825	29.45
825.174	29.27
825.348	29.58
825.523	29.89
825.697	30.04
825.871	30.48
826.045	30.16
826.219	29.72
826.393	29.76
826.567	29.74
826.741	29.02
826.915	29.26
827.089	29.28
827.263	28.81
827.437	28.66
827.611	28.84
827.784	28.33
827.958	28.38
828.132	27.8
828.306	28.14
828.48	27.38
828.654	28.36
828.827	28.6
829.001	28.27
829.175	28.65
829.349	28.54
829.522	28.25
829.696	28.88
829.87	29.58
830.044	30.27
830.217	30.41
830.391	32.32
830.565	31.2
830.738	30.05
830.912	31.37
831.085	32
831.259	32.01
831.432	31.21
831.606	31.25
831.779	31.25
831.953	32.18
832.126	30.61
832.3	29.51
832.473	30.27
832.647	30.51
832.82	29.49
832.994	29.14
833.167	29.72
833.34	30.74
833.514	30.33
833.687	29.88
833.86	29.61
834.034	30.08
834.207	30.57
834.38	29.78
834.553	30.43
834.727	30.72
834.9	30.11
835.073	29.76
835.246	29.63
835.419	30.17
835.593	29.89
835.766	30.13
835.939	30.63
836.112	30.33
836.285	30.33
836.458	30.42
836.631	29.85
836.804	30.8
836.977	31.87
837.15	32.62
837.323	32.91
837.496	33.14
837.669	32.23
837.842	31.58
838.015	32.28
838.188	33.15
838.361	31.44
838.533	32.26
838.706	33.28
838.879	33.4
839.052	32.77
839.225	32.19
839.398	31.47
839.57	32.44
839.743	32.41
839.916	32.27
840.088	32.71
840.261	34.58
840.434	35.68
840.607	34.95
840.779	35.17
840.952	33.59
841.124	34.47
841.297	37.2
841.47	36.75
841.642	35.55
841.815	37.68
841.987	38.69
842.16	39.63
842.332	39.21
842.505	38.89
842.677	38.6
842.85	40.62
843.022	39.49
843.194	38.07
843.367	40.57
843.539	43.51
843.712	40.96
843.884	41.34
844.056	40.21
844.229	37.61
844.401	38.78
844.573	38.4
844.745	39.44
844.918	41.97
845.09	42.4
845.262	38.26
845.434	36.55
845.606	39.2
845.779	38.93
845.951	37.69
846.123	39.37
846.295	38.69
846.467	39.89
846.639	40.38
846.811	38.74
846.983	39.26
847.155	42.73
847.327	43.97
847.499	41.81
847.671	42.35
847.843	42.17
848.015	43.23
848.187	43.49
848.359	45.4
848.531	44.56
848.703	42.8
848.875	42.72
849.047	41.4
849.218	42.28
849.39	44.81
849.562	44.25
849.734	43.71
849.905	41.3
850.077	41.28
850.249	40.43
850.421	42.88
850.592	45.94
850.764	45.83
850.936	45.73
851.107	46.18
851.279	45.04
851.451	43.83
851.622	45.98
851.794	47.36
851.965	49.27
852.137	47.42
852.308	46.08
852.48	44.64
852.651	43.15
852.823	44
852.994	42.2
853.166	40.82
853.337	39.87
853.509	39.37
853.68	39.43
853.851	38.41
854.023	42.23
854.194	41.97
854.365	44.59
854.537	46.58
854.708	44.18
854.879	42.1
855.05	43.94
855.222	44.44
855.393	46.57
855.564	46.12
855.735	44.19
855.906	38.66
856.078	38.45
856.249	34.31
856.42	32.95
856.591	32.68
856.762	36.46
856.933	38.34
857.104	39.35
857.275	38.71
857.446	42.87
857.617	42.38
857.788	43.84
857.959	38.85
858.13	40.39
858.301	41.45
858.472	43.75
858.643	42.57
858.814	37.96
858.985	38.96
859.155	40
859.326	36.25
859.497	39.02
859.668	37.17
859.839	40.61
860.009	38.7
860.18	36.59
860.351	36.35
860.522	35.38
860.692	36.71
860.863	36.81
861.034	32.99
861.204	33.72
861.375	31.67
861.546	33.76
861.716	30.12
861.887	30.36
862.057	34.74
862.228	36.84
862.398	39.42
862.569	38.72
862.739	38.36
862.91	39.34
863.08	39.17
863.251	41.18
863.421	40.09
863.592	45.42
863.762	46.93
863.932	42.18
864.103	42.58
864.273	39.78
864.443	44.2
864.614	40.25
864.784	40.31
864.954	41.97
865.125	40.41
865.295	40.95
865.465	40
865.635	38.23
865.805	39.48
865.976	37.81
866.146	37.67
866.316	35.83
866.486	40.4
866.656	39.56
866.826	40.82
866.996	40.17
867.166	40.1
867.336	36.09
867.506	39.47
867.676	36.78
867.846	34.88
868.016	34.57
868.186	32.47
868.356	28.73
868.526	33.83
868.696	32.78
868.866	35.65
869.036	36.98
869.206	37.76
869.376	33.59
869.545	30.84
869.715	33.52
869.885	34.75
870.055	38.73
870.224	38.78
870.394	36.3
870.564	35.05
870.734	34.6
870.903	27.72
871.073	29.3
871.243	29.81
871.412	37.33
871.582	34.4
871.751	36.12
871.921	31.73
872.091	34.12
872.26	33.63
872.43	30.15
872.599	27.78
872.769	32.35
872.938	34.49
873.108	39.72
873.277	36.38
873.446	34.88
873.616	34.31
873.785	34.86
873.955	32.98
874.124	32.76
874.293	35.73
874.463	37.14
874.632	34.42
874.801	32.32
874.971	29.68
875.14	28.52
875.309	28.54
875.478	28.54
875.647	29.03
875.817	27.97
875.986	27.34
876.155	23.4
876.324	22.44
876.493	26.62
876.662	28.5
876.831	26.88
877	28.05
877.17	33.34
877.339	32.35
877.508	30.23
877.677	35.18
877.846	34.55
878.015	37.45
878.184	38.01
878.352	33.7
878.521	31.05
878.69	31.85
878.859	29.68
879.028	24.58
879.197	23.82
879.366	23.84
879.534	21.65
879.703	21.37
879.872	20.81
880.041	21.32
880.21	20.72
880.378	22.44
880.547	22.51
880.716	23.64
880.884	24.04
881.053	24.34
881.222	23.82
881.39	23.25
881.559	23.5
881.727	23.52
881.896	23.41
882.065	24.05
882.233	23.03
882.402	22.69
882.57	22.19
882.739	21.85
882.907	22.09
883.076	22.79
883.244	23.08
883.412	22.98
883.581	23.02
883.749	22.44
883.918	22.42
884.086	23.01
884.254	22.54
884.423	23.19
884.591	24.11
884.759	23.26
884.927	23.33
885.096	23.28
885.264	22.77
885.432	23.3
885.6	23.98
885.769	23.77
885.937	23.51
886.105	24.61
886.273	24.46
886.441	23.23
886.609	22.93
886.777	20.25
886.945	22.09
887.113	25.23
887.281	24.82
887.449	24.87
887.617	24.6
887.785	24.69
887.953	23.24
888.121	23.22
888.289	22.82
888.457	21.44
888.625	24.81
888.793	22.38
888.961	21.4
889.129	24.84
889.296	26.38
889.464	27.31
889.632	28.13
889.8	32.4
889.967	33.33
890.135	37.22
