Data from 2938849__Reflection_01.txt Node
Date: Wed Mar 11 13:25:03 EDT 2015
User: robert
Spectrometer: USB4E03002
Autoset integration time: false
Trigger mode: 4
Integration Time (sec): 1.000000E-1
Scans to average: 10
Electric dark correction enabled: false
Nonlinearity correction enabled: false
Boxcar width: 5
Stray light correction enabled: false
XAxis mode: Wavelengths
Stop averaging: false
Number of Pixels in Spectrum: 3648
>>>>>Begin Spectral Data<<<<<
177.575	833.33
177.794	-822.92
178.014	-294.52
178.233	-880.88
178.452	-455.47
178.672	-175.61
178.891	-118.18
179.11	-75.38
179.33	-125.14
179.549	-169.69
179.768	-297.12
179.987	-284.93
180.207	-207.48
180.426	-204.48
180.645	-136.86
180.864	-101.58
181.084	-289.36
181.303	-1411.9
181.522	-627.43
181.741	-378.11
181.96	-482.27
182.179	-1213.79
182.398	-851.76
182.618	802.2
182.837	1278.46
183.056	2080.85
183.275	358.57
183.494	297.97
183.713	499.39
183.932	255.27
184.151	239.94
184.37	219.39
184.589	402.65
184.808	472.26
185.027	-1083.33
185.246	-314.44
185.465	0
185.684	38.24
185.903	8.18
186.122	19.7
186.341	29.08
186.56	15.96
186.779	-22.03
186.998	-9.82
187.216	10.71
187.435	4.34
187.654	-3.46
187.873	-19.3
188.092	-40.46
188.311	-18.34
188.53	-7.63
188.748	-3.25
188.967	2.2
189.186	14.06
189.405	10.41
189.623	11.3
189.842	13.35
190.061	25.78
190.28	24.22
190.498	17.44
190.717	4.77
190.936	-19.4
191.154	-3.31
191.373	-3.58
191.592	-2.42
191.81	-12.52
192.029	-34.35
192.248	-123.3
192.466	-152.09
192.685	-170.33
192.904	-114.93
193.122	-63.61
193.341	-174.13
193.559	-211.33
193.778	-470.37
193.996	-352.24
194.215	-162.8
194.433	-68.28
194.652	-16.37
194.87	-48.17
195.089	-40.76
195.307	-94.73
195.526	-163.58
195.744	-46.88
195.963	-74.2
196.181	-71.58
196.399	-67.04
196.618	-102.39
196.836	-90.89
197.055	-63.26
197.273	-46.96
197.491	-84.43
197.71	-85.24
197.928	-30.37
198.146	-38.07
198.365	-33.05
198.583	-26.44
198.801	-9.41
199.019	-6.52
199.238	-10.41
199.456	-24.41
199.674	-21.52
199.892	15.37
200.111	20.74
200.329	-1.15
200.547	-17.22
200.765	-25.56
200.983	-52.68
201.202	-68.62
201.42	-28.89
201.638	-27.02
201.856	-42.41
202.074	-58.56
202.292	-95.75
202.51	-126.43
202.728	-145.39
202.946	-90.41
203.165	-118.87
203.383	-65.68
203.601	-123.41
203.819	-193.03
204.037	-230.22
204.255	-129.4
204.473	-146.09
204.691	-133.67
204.909	-130.08
205.127	-115.58
205.345	-203.79
205.562	-119.86
205.78	-127.41
205.998	-168.15
206.216	-171.46
206.434	-89.37
206.652	-56.75
206.87	-41.62
207.088	-12.69
207.306	-23.39
207.523	-15.73
207.741	-8.93
207.959	-28.18
208.177	-39.55
208.395	-36.42
208.612	-43.65
208.83	-64.7
209.048	-113.15
209.266	-71.52
209.483	-111.75
209.701	-114.47
209.919	-111.74
210.136	-112.38
210.354	-87.88
210.572	-77.56
210.79	-62.56
211.007	-56.98
211.225	-63.17
211.442	-41.26
211.66	-81.59
211.878	-88.87
212.095	-60.43
212.313	-59.88
212.53	-46.06
212.748	-25.71
212.966	-22.33
213.183	-26.42
213.401	-16.08
213.618	-17.49
213.836	-6.84
214.053	-0.25
214.271	0.6
214.488	-7.8
214.705	-13.61
214.923	-18.85
215.14	-43.85
215.358	-50.97
215.575	-30.5
215.793	-37.82
216.01	-48.26
216.227	-50.99
216.445	-44.57
216.662	-43.31
216.879	-36.49
217.097	-33.54
217.314	-31.64
217.531	-18.44
217.749	-13.29
217.966	-23.36
218.183	-15.74
218.4	-12.56
218.618	-20.22
218.835	-13.63
219.052	-12.26
219.269	-14
219.487	-11.54
219.704	-12.62
219.921	-8.59
220.138	-5.49
220.355	-3.84
220.572	-4.44
220.79	0.45
221.007	0.1
221.224	-12.3
221.441	-10.96
221.658	-3.57
221.875	-5.72
222.092	-3.68
222.309	-8.69
222.526	-7.91
222.743	-11.57
222.96	-14.06
223.177	-20.84
223.394	-22.66
223.611	-21.71
223.828	-14.3
224.045	-15.55
224.262	-11.38
224.479	-8.82
224.696	-7.88
224.913	-5.85
225.13	-2.97
225.347	-3.91
225.564	1.09
225.781	1.97
225.997	5.07
226.214	1.84
226.431	1.71
226.648	0.1
226.865	0.24
227.082	1.25
227.298	1.58
227.515	2.02
227.732	2.83
227.949	2.57
228.165	2.26
228.382	1.49
228.599	2.33
228.816	2.86
229.032	3.17
229.249	2.88
229.466	2.68
229.682	2.16
229.899	2.93
230.116	2.1
230.332	2.15
230.549	2.42
230.765	2.23
230.982	1.46
231.199	0.38
231.415	-0.35
231.632	-0.64
231.848	-0.58
232.065	0.25
232.281	-1.75
232.498	-0.13
232.714	-1.74
232.931	-1.68
233.147	-0.61
233.364	-0.33
233.58	1.89
233.797	2.27
234.013	3.03
234.23	2
234.446	1.87
234.662	2.43
234.879	1.25
235.095	2.99
235.312	4
235.528	3.25
235.744	4.31
235.961	2.3
236.177	2.36
236.393	1.9
236.61	2.86
236.826	3.47
237.042	3.54
237.258	3.43
237.475	2.39
237.691	1.49
237.907	2.8
238.123	1.89
238.339	3.04
238.556	3.18
238.772	3.1
238.988	3.73
239.204	3.25
239.42	3.6
239.636	4.19
239.853	4.67
240.069	3.91
240.285	4.03
240.501	5.07
240.717	5.02
240.933	5.02
241.149	4.85
241.365	4.56
241.581	4.64
241.797	4.37
242.013	4.78
242.229	4.89
242.445	5.02
242.661	4.59
242.877	4.02
243.093	3.92
243.309	3.86
243.525	4.23
243.741	4.08
243.957	3.83
244.173	3.8
244.388	3.29
244.604	2.71
244.82	2.5
245.036	2.75
245.252	3.06
245.468	3.45
245.683	3.85
245.899	3.74
246.115	4.33
246.331	4.69
246.547	4.82
246.762	4.96
246.978	4.78
247.194	5.21
247.409	5.42
247.625	5.62
247.841	5.39
248.057	5.38
248.272	5.46
248.488	5.09
248.703	5.07
248.919	5.13
249.135	5.05
249.35	5.42
249.566	5.23
249.782	5.17
249.997	4.4
250.213	3.98
250.428	4.24
250.644	4.06
250.859	4.04
251.075	3.6
251.29	3.96
251.506	4.11
251.721	4.12
251.937	4.15
252.152	4.56
252.368	5.4
252.583	6.13
252.798	5.52
253.014	5.49
253.229	5.81
253.445	6.16
253.66	5.11
253.875	5.3
254.091	4.53
254.306	4.45
254.521	3.11
254.737	2.8
254.952	2.33
255.167	2.6
255.383	2.82
255.598	1.69
255.813	1.53
256.028	2.39
256.244	2.56
256.459	3.76
256.674	3.59
256.889	4.46
257.104	4.11
257.32	3.79
257.535	3.31
257.75	3.28
257.965	3.73
258.18	4.2
258.395	4.24
258.61	3.89
258.826	3.75
259.041	3.73
259.256	3.62
259.471	3.43
259.686	3.55
259.901	3.71
260.116	3.78
260.331	3.94
260.546	3.86
260.761	3.61
260.976	3.74
261.191	3.72
261.406	3.7
261.621	3.53
261.836	3.66
262.05	3.47
262.265	3.3
262.48	3.05
262.695	2.55
262.91	1.86
263.125	1.92
263.34	1.75
263.555	1.53
263.769	1.35
263.984	0.37
264.199	0.06
264.414	0.51
264.629	0.72
264.843	1.14
265.058	1.62
265.273	1.31
265.488	1.4
265.702	1.21
265.917	1.93
266.132	1.92
266.346	3.27
266.561	3.48
266.776	3.39
266.99	3.17
267.205	2.54
267.42	2.45
267.634	2.8
267.849	3.17
268.063	3.2
268.278	2.86
268.492	3.27
268.707	2.55
268.922	2.61
269.136	2.63
269.351	2.76
269.565	3.28
269.78	3.12
269.994	2.92
270.209	3.11
270.423	3.1
270.637	3.25
270.852	3.45
271.066	3.83
271.281	3.99
271.495	3.82
271.709	3.49
271.924	3.62
272.138	3.79
272.353	3.95
272.567	3.58
272.781	3.83
272.996	3.48
273.21	3.07
273.424	3.22
273.638	2.68
273.853	2.84
274.067	3.56
274.281	3.74
274.495	4.03
274.71	4.23
274.924	4.39
275.138	4.33
275.352	5.2
275.566	5.52
275.781	5.35
275.995	5.57
276.209	5.48
276.423	5.04
276.637	4.06
276.851	3.79
277.065	3.68
277.279	3.54
277.493	3.33
277.707	2.68
277.921	2.63
278.135	2.35
278.349	2.69
278.563	2.17
278.777	2.53
278.991	3.08
279.205	2.71
279.419	2.72
279.633	3.12
279.847	3.9
280.061	4.14
280.275	4.43
280.489	4.42
280.703	4.47
280.917	5.26
281.131	4.82
281.344	4.77
281.558	5.04
281.772	4.95
281.986	4.81
282.2	4.14
282.414	4.04
282.627	3.75
282.841	4.11
283.055	3.86
283.269	3.58
283.482	3.76
283.696	3.84
283.91	3.61
284.123	3.34
284.337	3.39
284.551	3.47
284.764	3.43
284.978	3.5
285.192	3.59
285.405	3.6
285.619	3.32
285.833	3.31
286.046	3.4
286.26	3.69
286.473	4.01
286.687	3.83
286.9	4.04
287.114	4.06
287.327	4.13
287.541	3.91
287.754	3.91
287.968	4.16
288.181	4.22
288.395	3.84
288.608	3.65
288.822	3.47
289.035	3.42
289.248	3.29
289.462	3.52
289.675	3.73
289.889	3.82
290.102	4.02
290.315	3.88
290.529	4.08
290.742	4.38
290.955	4.21
291.169	4.26
291.382	4.57
291.595	4.62
291.808	4.47
292.022	3.94
292.235	3.65
292.448	3.52
292.661	3.67
292.875	3.51
293.088	3.55
293.301	3.75
293.514	3.84
293.727	3.72
293.94	3.83
294.153	3.68
294.367	4.11
294.58	4.32
294.793	4.52
295.006	4.36
295.219	4.48
295.432	4.6
295.645	4.69
295.858	4.87
296.071	4.91
296.284	4.95
296.497	5.05
296.71	5.11
296.923	5.27
297.136	5.36
297.349	5.76
297.562	5.69
297.775	5.82
297.988	5.96
298.201	5.94
298.414	6.1
298.626	6.1
298.839	6.17
299.052	6.21
299.265	6.08
299.478	5.92
299.691	5.86
299.903	6
300.116	5.75
300.329	5.75
300.542	5.62
300.755	5.56
300.967	5.5
301.18	5.87
301.393	5.71
301.605	6.14
301.818	6.13
302.031	6.19
302.243	6.32
302.456	6.59
302.669	6.52
302.881	6.88
303.094	6.98
303.307	7.19
303.519	6.86
303.732	6.71
303.944	6.25
304.157	6.33
304.37	6.45
304.582	6.21
304.795	6.15
305.007	6.18
305.22	6.32
305.432	6.3
305.645	6.33
305.857	6.13
306.069	6.42
306.282	6.81
306.494	6.85
306.707	6.45
306.919	6.79
307.132	6.88
307.344	7.31
307.556	6.81
307.769	6.79
307.981	6.82
308.193	7.37
308.406	7.51
308.618	7.37
308.83	7.6
309.043	7.86
309.255	7.85
309.467	7.71
309.679	7.57
309.892	7.78
310.104	8.11
310.316	8.23
310.528	8.25
310.74	8.32
310.953	8.28
311.165	8.02
311.377	7.91
311.589	7.81
311.801	7.9
312.013	7.82
312.225	7.86
312.437	7.71
312.649	7.59
312.862	7.37
313.074	7.39
313.286	7.36
313.498	7.76
313.71	8.04
313.922	8.34
314.134	8.38
314.346	8.32
314.558	8.24
314.77	7.86
314.982	7.91
315.193	7.62
315.405	7.24
315.617	7.1
315.829	6.53
316.041	6.54
316.253	6.19
316.465	6.18
316.677	6.54
316.888	6.68
317.1	6.84
317.312	6.7
317.524	7.36
317.736	7.51
317.947	7.81
318.159	8.14
318.371	8.04
318.583	8.19
318.794	8.37
319.006	8.03
319.218	8.06
319.43	8.13
319.641	8.03
319.853	7.47
320.064	7.45
320.276	7.59
320.488	7.79
320.699	7.86
320.911	7.92
321.123	8.06
321.334	8.12
321.546	8.24
321.757	8.47
321.969	8.61
322.18	9.01
322.392	9.42
322.603	9.44
322.815	9.39
323.026	9.18
323.238	9.03
323.449	8.85
323.661	8.96
323.872	8.95
324.083	9.03
324.295	9.43
324.506	9.31
324.718	9.02
324.929	9.07
325.14	8.86
325.352	9.11
325.563	9.39
325.774	9.29
325.986	9.27
326.197	9.03
326.408	8.92
326.62	8.57
326.831	8.94
327.042	9.12
327.253	9.07
327.464	9.17
327.676	9.09
327.887	9.09
328.098	9.12
328.309	9.29
328.52	9.56
328.732	9.43
328.943	9.69
329.154	9.86
329.365	9.69
329.576	9.7
329.787	9.79
329.998	9.9
330.209	10.21
330.42	10.59
330.631	10.82
330.842	10.98
331.053	11.13
331.264	11.21
331.475	11.31
331.686	11.6
331.897	11.85
332.108	11.79
332.319	11.8
332.53	11.81
332.741	11.53
332.952	11.35
333.163	11.1
333.374	11.45
333.585	11
333.795	10.77
334.006	10.69
334.217	10.51
334.428	10.92
334.639	11.14
334.849	10.84
335.06	10.94
335.271	10.99
335.482	11.14
335.692	10.64
335.903	10.91
336.114	10.95
336.325	10.94
336.535	10.98
336.746	11.02
336.957	10.89
337.167	11
337.378	11.25
337.589	11.06
337.799	11.11
338.01	11.47
338.22	11.59
338.431	11.74
338.642	11.47
338.852	11.4
339.063	11.25
339.273	10.98
339.484	10.85
339.694	10.63
339.905	10.56
340.115	10.63
340.326	10.69
340.536	10.51
340.746	10.35
340.957	10.33
341.167	10.48
341.378	10.54
341.588	10.73
341.799	11.1
342.009	10.97
342.219	11.18
342.43	11.04
342.64	10.76
342.85	10.51
343.061	10.58
343.271	10.69
343.481	10.64
343.691	10.38
343.902	10.71
344.112	10.53
344.322	10.63
344.532	10.61
344.743	10.7
344.953	10.71
345.163	11.04
345.373	10.94
345.583	11.04
345.793	10.97
346.004	11.29
346.214	10.63
346.424	10.59
346.634	10.6
346.844	10.56
347.054	10.43
347.264	10.45
347.474	10.32
347.684	10.41
347.894	10.37
348.104	10.37
348.314	9.99
348.524	10.22
348.734	10.11
348.944	10.22
349.154	10.25
349.364	10.22
349.574	10.3
349.784	10.5
349.994	10.1
350.204	10.26
350.413	10.14
350.623	10.21
350.833	10.31
351.043	10.08
351.253	9.86
351.463	10.04
351.672	10.02
351.882	10.14
352.092	10.04
352.302	10.28
352.511	10.37
352.721	10.48
352.931	10.58
353.141	10.57
353.35	10.83
353.56	10.9
353.77	10.65
353.979	10.79
354.189	10.65
354.399	10.49
354.608	10.57
354.818	10.37
355.027	10.48
355.237	10.36
355.447	10.16
355.656	10.21
355.866	9.94
356.075	10
356.285	10.11
356.494	10.14
356.704	10.39
356.913	10.46
357.123	10.41
357.332	10.32
357.542	10.32
357.751	10.39
357.96	10.35
358.17	10.56
358.379	10.6
358.589	10.38
358.798	10.36
359.007	10.04
359.217	9.77
359.426	9.7
359.635	9.67
359.845	9.71
360.054	9.86
360.263	9.92
360.472	10.05
360.682	9.83
360.891	9.84
361.1	9.75
361.309	9.77
361.519	9.88
361.728	9.9
361.937	9.95
362.146	9.95
362.355	9.93
362.564	9.96
362.774	9.95
362.983	10.05
363.192	10.07
363.401	10.24
363.61	10.35
363.819	10.18
364.028	10.25
364.237	10.2
364.446	10.3
364.655	10.33
364.864	10.1
365.073	10.03
365.282	10
365.491	9.95
365.7	9.78
365.909	9.64
366.118	9.67
366.327	9.72
366.536	9.61
366.745	9.3
366.954	9.36
367.162	9.45
367.371	9.3
367.58	9.44
367.789	9.38
367.998	9.39
368.207	9.36
368.415	9.35
368.624	9.17
368.833	9.09
369.042	9.24
369.25	9.11
369.459	9.02
369.668	9.2
369.877	9.07
370.085	9.05
370.294	9.18
370.503	9.34
370.711	9.2
370.92	9.23
371.129	9.32
371.337	9.13
371.546	8.9
371.754	8.84
371.963	8.64
372.171	8.62
372.38	8.54
372.589	8.17
372.797	7.95
373.006	7.98
373.214	8.07
373.423	7.88
373.631	8.03
373.84	8.07
374.048	8.08
374.256	8.06
374.465	7.82
374.673	7.87
374.882	8.11
375.09	8.25
375.298	8.15
375.507	7.67
375.715	7.69
375.923	7.42
376.132	7.41
376.34	7.4
376.548	7.24
376.757	7.35
376.965	7.4
377.173	7.35
377.381	7.32
377.59	7.35
377.798	7.67
378.006	7.66
378.214	8.04
378.423	7.93
378.631	7.88
378.839	7.89
379.047	7.73
379.255	7.64
379.463	7.42
379.671	7.45
379.879	7.47
380.088	7.35
380.296	7.3
380.504	7.21
380.712	7.31
380.92	7.08
381.128	7.01
381.336	7.06
381.544	7.13
381.752	7.1
381.96	6.98
382.168	6.94
382.376	6.72
382.584	6.88
382.791	6.72
382.999	6.57
383.207	6.7
383.415	6.47
383.623	6.42
383.831	6.39
384.039	6.51
384.247	6.29
384.454	6.53
384.662	6.61
384.87	6.52
385.078	6.55
385.285	6.49
385.493	6.38
385.701	6.48
385.909	6.56
386.116	6.56
386.324	6.51
386.532	6.65
386.739	6.33
386.947	6.32
387.155	6.33
387.362	6.07
387.57	5.97
387.778	6.05
387.985	6.13
388.193	6.15
388.4	5.76
388.608	5.76
388.816	5.68
389.023	5.58
389.231	5.33
389.438	5.27
389.646	5.35
389.853	5.4
390.061	5.41
390.268	5.41
390.475	5.33
390.683	5.66
390.89	5.45
391.098	5.45
391.305	5.46
391.512	5.61
391.72	5.7
391.927	5.58
392.135	5.52
392.342	5.44
392.549	5.39
392.756	5.29
392.964	5.23
393.171	5.45
393.378	5.42
393.586	5.44
393.793	5.44
394	5.27
394.207	5.47
394.414	5.58
394.622	5.42
394.829	5.42
395.036	5.31
395.243	5.31
395.45	5.18
395.657	5.25
395.864	5.38
396.072	5.4
396.279	5.45
396.486	5.18
396.693	5
396.9	5.03
397.107	4.99
397.314	5.05
397.521	4.87
397.728	4.7
397.935	4.59
398.142	4.37
398.349	4.37
398.556	4.35
398.763	4.46
398.97	4.57
399.177	4.61
399.383	4.7
399.59	4.81
399.797	4.97
400.004	5.1
400.211	5.1
400.418	5.34
400.625	5.4
400.831	5.5
401.038	5.3
401.245	5.27
401.452	5.26
401.658	5.33
401.865	5.16
402.072	5.12
402.279	5.07
402.485	5
402.692	4.88
402.899	4.81
403.105	4.71
403.312	4.76
403.519	4.79
403.725	4.77
403.932	4.51
404.138	4.47
404.345	4.32
404.552	4.25
404.758	4.24
404.965	4.28
405.171	4.33
405.378	4.25
405.584	4.4
405.791	4.37
405.997	4.48
406.204	4.49
406.41	4.54
406.617	4.6
406.823	4.67
407.029	4.75
407.236	4.68
407.442	4.63
407.649	4.59
407.855	4.51
408.061	4.51
408.268	4.37
408.474	4.36
408.68	4.39
408.887	4.3
409.093	4.3
409.299	4.24
409.505	4.17
409.712	4.04
409.918	4.11
410.124	4.23
410.33	4.26
410.537	4.37
410.743	4.48
410.949	4.51
411.155	4.45
411.361	4.41
411.567	4.52
411.773	4.65
411.98	4.66
412.186	4.62
412.392	4.52
412.598	4.68
412.804	4.55
413.01	4.61
413.216	4.69
413.422	4.81
413.628	4.78
413.834	4.58
414.04	4.5
414.246	4.55
414.452	4.71
414.658	4.66
414.864	4.39
415.07	4.45
415.275	4.44
415.481	4.42
415.687	4.42
415.893	4.57
416.099	4.54
416.305	4.48
416.511	4.39
416.716	4.23
416.922	4.17
417.128	4.23
417.334	4.24
417.539	4.24
417.745	4.24
417.951	4.36
418.157	4.25
418.362	4.38
418.568	4.44
418.774	4.46
418.979	4.46
419.185	4.53
419.391	4.55
419.596	4.56
419.802	4.57
420.008	4.55
420.213	3.81
420.419	3.78
420.624	3.7
420.83	3.6
421.035	3.64
421.241	3.68
421.446	3.69
421.652	3.7
421.857	3.68
422.063	3.65
422.268	3.56
422.474	4.18
422.679	4.29
422.885	4.29
423.09	4.36
423.295	4.37
423.501	4.3
423.706	4.24
423.911	4.18
424.117	4.17
424.322	4.18
424.527	4.3
424.733	4.38
424.938	4.33
425.143	4.32
425.349	4.29
425.554	4.35
425.759	4.36
425.964	4.39
426.169	4.38
426.375	4.3
426.58	4.28
426.785	4.22
426.99	4.14
427.195	4.15
427.4	4.19
427.605	4.11
427.811	4.01
428.016	4.09
428.221	4.05
428.426	4.17
428.631	4.31
428.836	4.31
429.041	4.3
429.246	4.25
429.451	4.2
429.656	4.26
429.861	4.3
430.066	4.23
430.271	4.11
430.476	4.15
430.681	4.08
430.886	4.05
431.09	3.99
431.295	3.93
431.5	3.89
431.705	3.92
431.91	3.84
432.115	3.99
432.32	4.09
432.524	4.13
432.729	4.1
432.934	4.06
433.139	4.05
433.343	4.15
433.548	4.08
433.753	4.15
433.958	4.14
434.162	4.15
434.367	4.1
434.572	4.05
434.776	4.1
434.981	4.13
435.186	4.19
435.39	4.25
435.595	4.23
435.799	4.37
436.004	4.37
436.209	4.35
436.413	4.32
436.618	4.27
436.822	4.31
437.027	4.28
437.231	4.28
437.436	4.28
437.64	4.22
437.845	4.22
438.049	4.17
438.253	4.2
438.458	4.21
438.662	4.27
438.867	4.31
439.071	4.31
439.275	4.34
439.48	4.37
439.684	4.34
439.888	4.35
440.093	4.3
440.297	4.34
440.501	4.3
440.706	4.3
440.91	4.25
441.114	4.26
441.318	4.21
441.523	4.13
441.727	4.12
441.931	4.14
442.135	4.12
442.339	4.16
442.543	4.06
442.748	4.01
442.952	3.97
443.156	3.96
443.36	3.91
443.564	3.9
443.768	3.99
443.972	4.01
444.176	3.98
444.38	3.95
444.584	3.96
444.788	4.06
444.992	4.13
445.196	4.18
445.4	4.16
445.604	4.23
445.808	4.28
446.012	4.28
446.216	4.24
446.42	4.26
446.624	4.27
446.828	4.17
447.032	4.14
447.235	4.11
447.439	4.12
447.643	4.16
447.847	4.14
448.051	4.05
448.254	4.01
448.458	3.99
448.662	3.97
448.866	4
449.069	4.12
449.273	4.11
449.477	4.09
449.681	4.08
449.884	4.03
450.088	4
450.292	4.12
450.495	4.1
450.699	4.14
450.902	4.19
451.106	4.3
451.31	4.28
451.513	4.33
451.717	4.3
451.92	4.28
452.124	4.43
452.327	4.38
452.531	4.41
452.734	4.38
452.938	4.32
453.141	4.2
453.345	4.13
453.548	4.18
453.752	4.14
453.955	4.06
454.158	4.06
454.362	3.88
454.565	3.92
454.769	3.91
454.972	3.95
455.175	3.98
455.379	4.06
455.582	4.03
455.785	3.83
455.988	3.92
456.192	4.09
456.395	4.07
456.598	4.15
456.801	4.16
457.005	4.13
457.208	4.13
457.411	4.12
457.614	4.09
457.817	4.1
458.021	4.14
458.224	4.06
458.427	3.96
458.63	3.99
458.833	3.94
459.036	3.9
459.239	3.89
459.442	3.94
459.645	3.93
459.848	3.98
460.051	3.96
460.254	3.99
460.457	3.98
460.66	3.98
460.863	3.97
461.066	4.06
461.269	4.05
461.472	4.04
461.675	3.98
461.878	3.97
462.081	3.87
462.284	3.85
462.486	3.84
462.689	3.86
462.892	3.93
463.095	3.92
463.298	3.86
463.5	3.95
463.703	3.97
463.906	3.99
464.109	4.03
464.311	4.03
464.514	4.07
464.717	4
464.92	4.03
465.122	4.06
465.325	4.06
465.528	4.02
465.73	4.03
465.933	3.95
466.135	3.91
466.338	3.86
466.541	3.99
466.743	3.98
466.946	4.01
467.148	4.02
467.351	4.04
467.553	4.02
467.756	4.12
467.958	4.12
468.161	4.1
468.363	4.08
468.566	4.12
468.768	4.05
468.971	3.97
469.173	4.01
469.375	3.94
469.578	3.92
469.78	4
469.983	4.02
470.185	3.95
470.387	4.04
470.59	4.15
470.792	4.09
470.994	4.13
471.196	4.15
471.399	4.15
471.601	4.19
471.803	4.1
472.005	4.06
472.208	4.03
472.41	4.06
472.612	3.98
472.814	4.03
473.016	4.15
473.218	4.05
473.421	4.06
473.623	4.04
473.825	4.12
474.027	4.18
474.229	4.11
474.431	4.08
474.633	4.04
474.835	4.1
475.037	4.02
475.239	4.05
475.441	4.11
475.643	4.2
475.845	4.27
476.047	4.22
476.249	4.3
476.451	4.35
476.653	4.43
476.855	4.42
477.057	4.4
477.258	4.36
477.46	4.26
477.662	4.2
477.864	4.11
478.066	4.13
478.268	4.11
478.469	4.08
478.671	4.1
478.873	4
479.075	4.1
479.276	4.18
479.478	4.19
479.68	4.21
479.882	4.24
480.083	4.26
480.285	4.22
480.487	4.23
480.688	4.26
480.89	4.28
481.091	4.27
481.293	4.22
481.495	4.17
481.696	4.24
481.898	4.22
482.099	4.22
482.301	4.19
482.502	4.18
482.704	4.19
482.905	4.17
483.107	4.16
483.308	4.17
483.51	4.16
483.711	4.14
483.913	4.13
484.114	4.15
484.315	4.15
484.517	4.17
484.718	4.17
484.92	4.15
485.121	4.13
485.322	4.11
485.524	4.09
485.725	4.11
485.926	4.14
486.127	4.11
486.329	4.11
486.53	4.09
486.731	4.1
486.932	4.09
487.134	4.07
487.335	4.09
487.536	4.09
487.737	4.08
487.938	4.07
488.139	4.01
488.341	4.04
488.542	4.05
488.743	4.04
488.944	4.05
489.145	4.11
489.346	4.13
489.547	4.16
489.748	4.21
489.949	4.25
490.15	4.31
490.351	4.4
490.552	4.37
490.753	4.39
490.954	4.42
491.155	4.43
491.356	4.37
491.557	4.41
491.758	4.39
491.959	4.35
492.159	4.36
492.36	4.32
492.561	4.28
492.762	4.29
492.963	4.26
493.164	4.25
493.364	4.27
493.565	4.33
493.766	4.34
493.967	4.27
494.167	4.27
494.368	4.28
494.569	4.35
494.769	4.33
494.97	4.37
495.171	4.39
495.371	4.46
495.572	4.47
495.773	4.42
495.973	4.43
496.174	4.51
496.375	4.57
496.575	4.61
496.776	4.61
496.976	4.66
497.177	4.63
497.377	4.62
497.578	4.57
497.778	4.53
497.979	4.51
498.179	4.53
498.38	4.56
498.58	4.58
498.78	4.55
498.981	4.5
499.181	4.48
499.382	4.53
499.582	4.56
499.782	4.58
499.983	4.62
500.183	4.66
500.383	4.6
500.584	4.61
500.784	4.6
500.984	4.66
501.184	4.78
501.385	4.89
501.585	5
501.785	5.03
501.985	5.06
502.185	5.12
502.386	5.13
502.586	5.29
502.786	5.31
502.986	5.4
503.186	5.38
503.386	5.37
503.586	5.35
503.786	5.31
503.987	5.36
504.187	5.34
504.387	5.34
504.587	5.33
504.787	5.34
504.987	5.42
505.187	5.38
505.387	5.41
505.587	5.41
505.786	5.47
505.986	5.54
506.186	5.6
506.386	5.67
506.586	5.68
506.786	5.77
506.986	5.72
507.186	5.68
507.386	5.8
507.585	5.87
507.785	5.95
507.985	6
508.185	5.98
508.384	6.1
508.584	6.18
508.784	6.23
508.984	6.39
509.183	6.52
509.383	6.59
509.583	6.66
509.782	6.74
509.982	6.81
510.182	6.86
510.381	6.97
510.581	6.95
510.781	6.99
510.98	7.02
511.18	7.07
511.379	7.12
511.579	7.21
511.778	7.26
511.978	7.28
512.177	7.33
512.377	7.41
512.576	7.44
512.776	7.51
512.975	7.68
513.175	7.82
513.374	7.82
513.573	7.89
513.773	7.95
513.972	8.08
514.172	8.16
514.371	8.24
514.57	8.28
514.77	8.33
514.969	8.44
515.168	8.45
515.367	8.49
515.567	8.6
515.766	8.7
515.965	8.74
516.164	8.79
516.364	8.92
516.563	9
516.762	9.12
516.961	9.25
517.16	9.29
517.359	9.38
517.559	9.48
517.758	9.55
517.957	9.59
518.156	9.68
518.355	9.67
518.554	9.72
518.753	9.81
518.952	9.86
519.151	9.92
519.35	10.06
519.549	10.12
519.748	10.17
519.947	10.29
520.146	10.43
520.345	10.52
520.544	10.69
520.743	10.75
520.942	10.86
521.141	10.98
521.339	11.07
521.538	11.06
521.737	11.23
521.936	11.33
522.135	11.39
522.333	11.46
522.532	11.52
522.731	11.66
522.93	11.83
523.129	11.93
523.327	12.02
523.526	12.14
523.725	12.25
523.923	12.27
524.122	12.38
524.321	12.53
524.519	12.57
524.718	12.71
524.917	12.73
525.115	12.75
525.314	12.81
525.512	12.89
525.711	12.94
525.909	13.05
526.108	13.14
526.306	13.21
526.505	13.27
526.703	13.39
526.902	13.5
527.1	13.62
527.299	13.7
527.497	13.78
527.696	13.87
527.894	13.95
528.092	14.03
528.291	14.09
528.489	14.17
528.688	14.22
528.886	14.3
529.084	14.35
529.283	14.4
529.481	14.5
529.679	14.57
529.877	14.59
530.076	14.68
530.274	14.75
530.472	14.81
530.67	14.89
530.869	14.97
531.067	15.01
531.265	15.07
531.463	15.16
531.661	15.2
531.859	15.26
532.057	15.36
532.255	15.43
532.454	15.53
532.652	15.6
532.85	15.63
533.048	15.68
533.246	15.73
533.444	15.79
533.642	15.83
533.84	15.87
534.038	15.94
534.236	15.92
534.434	15.93
534.632	15.94
534.83	16.02
535.027	16.14
535.225	16.23
535.423	16.26
535.621	16.3
535.819	16.42
536.017	16.48
536.215	16.49
536.412	16.62
536.61	16.69
536.808	16.75
537.006	16.72
537.203	16.76
537.401	16.77
537.599	16.84
537.797	16.94
537.994	16.93
538.192	16.98
538.39	17.06
538.587	17.13
538.785	17.21
538.983	17.29
539.18	17.38
539.378	17.44
539.575	17.48
539.773	17.52
539.97	17.53
540.168	17.59
540.366	17.66
540.563	17.67
540.761	17.72
540.958	17.79
541.155	17.77
541.353	17.78
541.55	17.84
541.748	17.89
541.945	17.93
542.143	18
542.34	18.04
542.537	18.06
542.735	18.14
542.932	18.2
543.129	18.18
543.327	18.21
543.524	18.28
543.721	18.28
543.919	18.34
544.116	18.38
544.313	18.36
544.51	18.43
544.708	18.53
544.905	18.6
545.102	18.53
545.299	18.53
545.496	18.67
545.693	18.75
545.891	18.79
546.088	18.74
546.285	18.79
546.482	18.82
546.679	18.82
546.876	18.83
547.073	18.8
547.27	18.83
547.467	18.92
547.664	18.85
547.861	18.82
548.058	18.82
548.255	18.84
548.452	18.81
548.649	18.85
548.846	18.83
549.043	18.83
549.24	18.83
549.437	18.96
549.633	18.93
549.83	18.93
550.027	18.95
550.224	19.01
550.421	19.09
550.618	19.12
550.814	19.08
551.011	19.13
551.208	19.06
551.405	19.02
551.601	19.07
551.798	19.07
551.995	19.12
552.191	19.15
552.388	19.08
552.585	19.03
552.781	19.11
552.978	19.16
553.175	19.09
553.371	19.15
553.568	19.28
553.764	19.17
553.961	19.22
554.157	19.18
554.354	19.2
554.55	19.27
554.747	19.37
554.943	19.42
555.14	19.47
555.336	19.57
555.533	19.59
555.729	19.5
555.926	19.53
556.122	19.55
556.318	19.6
556.515	19.58
556.711	19.55
556.907	19.55
557.104	19.47
557.3	19.44
557.496	19.4
557.693	19.36
557.889	19.38
558.085	19.45
558.281	19.5
558.478	19.62
558.674	19.7
558.87	19.74
559.066	19.7
559.262	19.63
559.459	19.67
559.655	19.74
559.851	19.84
560.047	19.94
560.243	19.96
560.439	19.92
560.635	19.85
560.831	19.74
561.027	19.81
561.223	19.84
561.419	19.81
561.615	19.8
561.811	19.79
562.007	19.71
562.203	19.63
562.399	19.56
562.595	19.56
562.791	19.52
562.987	19.67
563.183	19.54
563.379	19.65
563.575	19.83
563.771	19.81
563.966	19.7
564.162	19.8
564.358	19.85
564.554	19.99
564.75	19.98
564.945	20.03
565.141	19.94
565.337	20.07
565.533	19.95
565.728	19.95
565.924	19.97
566.12	20.06
566.315	19.99
566.511	20.01
566.707	20
566.902	20.02
567.098	19.99
567.293	20.03
567.489	20
567.684	20.04
567.88	20.05
568.076	20.1
568.271	20.17
568.467	20.23
568.662	20.23
568.858	20.2
569.053	20.21
569.248	20.28
569.444	20.38
569.639	20.38
569.835	20.36
570.03	20.4
570.225	20.44
570.421	20.38
570.616	20.34
570.812	20.26
571.007	20.36
571.202	20.37
571.397	20.33
571.593	20.24
571.788	20.23
571.983	20.28
572.178	20.34
572.374	20.29
572.569	20.26
572.764	20.32
572.959	20.36
573.154	20.27
573.35	20.39
573.545	20.38
573.74	20.5
573.935	20.57
574.13	20.59
574.325	20.5
574.52	20.58
574.715	20.62
574.91	20.58
575.105	20.72
575.3	20.76
575.495	20.68
575.69	20.77
575.885	20.7
576.08	20.64
576.275	20.67
576.47	20.57
576.665	20.55
576.86	20.57
577.055	20.57
577.25	20.54
577.444	20.51
577.639	20.58
577.834	20.56
578.029	20.53
578.224	20.51
578.418	20.41
578.613	20.6
578.808	20.49
579.003	20.58
579.197	20.62
579.392	20.63
579.587	20.66
579.781	20.59
579.976	20.59
580.171	20.8
580.365	20.84
580.56	20.86
580.755	20.83
580.949	21.05
581.144	21.01
581.338	21.05
581.533	21.01
581.727	20.93
581.922	21.01
582.116	20.91
582.311	20.74
582.505	20.73
582.7	20.77
582.894	20.77
583.089	20.69
583.283	20.64
583.478	20.69
583.672	20.7
583.866	20.7
584.061	20.68
584.255	20.68
584.449	20.72
584.644	20.87
584.838	20.94
585.032	20.97
585.226	20.9
585.421	20.93
585.615	20.84
585.809	20.89
586.003	21
586.198	20.9
586.392	21.01
586.586	21.09
586.78	21.08
586.974	21.13
587.168	21.08
587.363	21.12
587.557	21.24
587.751	21.26
587.945	21.24
588.139	21.31
588.333	21.33
588.527	21.25
588.721	21.19
588.915	21.22
589.109	21.1
589.303	21.18
589.497	21.19
589.691	21.06
589.885	20.97
590.079	20.99
590.273	20.85
590.466	20.95
590.66	21.05
590.854	21.09
591.048	21.01
591.242	21.1
591.436	21.06
591.629	21.12
591.823	21.13
592.017	21.27
592.211	21.38
592.404	21.44
592.598	21.36
592.792	21.31
592.986	21.21
593.179	21.28
593.373	21.24
593.567	21.2
593.76	21.15
593.954	21.2
594.147	21.17
594.341	20.98
594.535	20.97
594.728	21.05
594.922	21.11
595.115	21.2
595.309	21.21
595.502	21.28
595.696	21.38
595.889	21.33
596.083	21.25
596.276	21.29
596.47	21.33
596.663	21.31
596.856	21.28
597.05	21.28
597.243	21.22
597.437	21.22
597.63	21.13
597.823	21.12
598.017	21.2
598.21	21.39
598.403	21.42
598.596	21.48
598.79	21.52
598.983	21.52
599.176	21.53
599.369	21.51
599.563	21.45
599.756	21.45
599.949	21.56
600.142	21.48
600.335	21.28
600.528	21.2
600.722	21.15
600.915	21.18
601.108	21.08
601.301	21.09
601.494	21.13
601.687	21.16
601.88	21.2
602.073	20.91
602.266	20.94
602.459	20.96
602.652	21.03
602.845	21.12
603.038	21.08
603.231	21.18
603.424	21.23
603.617	21.22
603.809	21.2
604.002	21.21
604.195	21.25
604.388	21.26
604.581	21.47
604.774	21.43
604.966	21.37
605.159	21.44
605.352	21.49
605.545	21.46
605.737	21.52
605.93	21.54
606.123	21.5
606.316	21.61
606.508	21.57
606.701	21.43
606.894	21.66
607.086	21.68
607.279	21.71
607.471	21.8
607.664	21.7
607.857	21.73
608.049	21.85
608.242	21.99
608.434	22.17
608.627	22.41
608.819	22.44
609.012	22.33
609.204	22.62
609.397	22.76
609.589	22.83
609.782	23.09
609.974	23.24
610.166	23.39
610.359	23.47
610.551	23.52
610.743	23.54
610.936	23.67
611.128	23.83
611.32	23.66
611.513	23.74
611.705	23.76
611.897	23.71
612.09	23.74
612.282	23.57
612.474	23.72
612.666	23.62
612.858	23.6
613.051	23.34
613.243	23.28
613.435	23.2
613.627	23.14
613.819	23.2
614.011	23.12
614.203	22.94
614.395	22.99
614.588	22.75
614.78	22.75
614.972	22.72
615.164	22.82
615.356	22.65
615.548	22.63
615.74	22.51
615.932	22.2
616.124	22.26
616.315	22.27
616.507	22.31
616.699	22.36
616.891	22.39
617.083	22.32
617.275	22.26
617.467	22.37
617.659	22.37
617.85	22.27
618.042	22.3
618.234	22.2
618.426	22.16
618.618	22
618.809	21.95
619.001	21.82
619.193	21.88
619.384	21.97
619.576	21.86
619.768	21.94
619.959	22.18
620.151	22.31
620.343	22.39
620.534	22.31
620.726	22.37
620.917	22.37
621.109	22.51
621.301	22.44
621.492	22.31
621.684	22.38
621.875	22.43
622.067	22.25
622.258	22.15
622.45	22.06
622.641	22.21
622.832	22.09
623.024	22.18
623.215	22.11
623.407	22.09
623.598	22.09
623.789	21.89
623.981	21.7
624.172	21.64
624.363	21.6
624.555	21.65
624.746	21.63
624.937	21.71
625.129	21.67
625.32	21.59
625.511	21.63
625.702	21.72
625.893	21.89
626.085	21.87
626.276	22.03
626.467	22.09
626.658	22.04
626.849	21.96
627.04	22.01
627.231	21.97
627.422	22.18
627.614	22.21
627.805	22.33
627.996	22.35
628.187	22.46
628.378	22.55
628.569	22.57
628.76	22.74
628.951	22.86
629.142	22.94
629.332	22.89
629.523	22.74
629.714	22.59
629.905	22.55
630.096	22.64
630.287	22.62
630.478	22.42
630.669	22.42
630.859	22.28
631.05	22.31
631.241	22.25
631.432	22.21
631.623	22.1
631.813	22.27
632.004	22.38
632.195	22.19
632.385	22.28
632.576	22.34
632.767	22.29
632.957	22.36
633.148	22.31
633.339	22.22
633.529	22.34
633.72	22.41
633.91	22.4
634.101	22.35
634.292	22.44
634.482	22.43
634.673	22.49
634.863	22.57
635.054	22.52
635.244	22.62
635.435	22.67
635.625	22.71
635.815	22.72
636.006	22.67
636.196	22.57
636.387	22.56
636.577	22.47
636.767	22.27
636.958	22.24
637.148	22.29
637.338	22.11
637.529	22.02
637.719	22.03
637.909	22.09
638.099	22.22
638.29	22.19
638.48	22.22
638.67	22.22
638.86	22.4
639.05	22.46
639.241	22.28
639.431	22.25
639.621	22.48
639.811	22.36
640.001	22.41
640.191	22.37
640.381	22.46
640.571	22.32
640.761	22.32
640.951	22.28
641.141	22.27
641.331	22.43
641.521	22.59
641.711	22.32
641.901	22.34
642.091	22.42
642.281	22.46
642.471	22.58
642.661	22.74
642.851	22.8
643.041	22.83
643.231	22.86
643.42	22.96
643.61	23.07
643.8	23.18
643.99	23.11
644.18	22.92
644.369	22.88
644.559	22.81
644.749	22.83
644.939	22.78
645.128	22.73
645.318	22.45
645.508	22.3
645.697	22.14
645.887	22.11
646.076	22.19
646.266	22.18
646.456	22.02
646.645	21.99
646.835	21.83
647.024	21.96
647.214	22.06
647.403	22.19
647.593	22.15
647.782	22.25
647.972	22.34
648.161	22.42
648.351	22.59
648.54	22.58
648.73	22.61
648.919	22.69
649.108	22.75
649.298	22.57
649.487	22.65
649.677	22.75
649.866	22.56
650.055	22.68
650.244	22.6
650.434	22.44
650.623	22.61
650.812	22.46
651.002	22.43
651.191	22.33
651.38	22.31
651.569	22.25
651.758	22.16
651.947	22.33
652.137	22.24
652.326	22.33
652.515	22.26
652.704	22.17
652.893	22.25
653.082	22.48
653.271	22.44
653.46	22.46
653.649	22.7
653.838	22.89
654.027	22.71
654.216	22.58
654.405	22.55
654.594	22.69
654.783	22.75
654.972	22.93
655.161	22.85
655.35	22.91
655.539	23.15
655.728	22.97
655.916	22.82
656.105	22.98
656.294	23.14
656.483	23.16
656.672	22.96
656.86	22.96
657.049	22.59
657.238	22.44
657.427	22.37
657.615	22.29
657.804	22.22
657.993	22.36
658.181	22.36
658.37	22.54
658.559	22.59
658.747	22.85
658.936	22.7
659.125	22.54
659.313	22.7
659.502	22.57
659.69	22.58
659.879	22.76
660.067	22.75
660.256	22.8
660.444	22.43
660.633	22.3
660.821	22.22
661.01	22.38
661.198	22.74
661.387	22.72
661.575	23.06
661.763	23.17
661.952	22.99
662.14	22.97
662.328	23.14
662.517	23.36
662.705	23.42
662.893	23.36
663.082	23.76
663.27	23.98
663.458	24.14
663.646	24.11
663.834	23.98
664.023	24.16
664.211	24.06
664.399	23.75
664.587	23.65
664.775	23.8
664.963	23.78
665.152	23.29
665.34	23.21
665.528	23.22
665.716	23.15
665.904	23.03
666.092	22.96
666.28	22.96
666.468	23.02
666.656	23.29
666.844	23.26
667.032	23.33
667.22	23.52
667.408	23.43
667.596	23.23
667.784	23.21
667.971	23.46
668.159	23.28
668.347	23.21
668.535	23.04
668.723	23.03
668.911	22.99
669.098	22.85
669.286	22.67
669.474	22.57
669.662	22.67
669.849	22.58
670.037	22.56
670.225	22.67
670.413	22.87
670.6	23.08
670.788	22.74
670.976	22.75
671.163	22.92
671.351	22.87
671.538	23.11
671.726	23.05
671.913	23.29
672.101	23.13
672.289	23.27
672.476	22.99
672.664	22.9
672.851	23.05
673.039	22.81
673.226	22.87
673.413	23.2
673.601	22.98
673.788	22.68
673.976	22.37
674.163	22.61
674.35	22.66
674.538	22.83
674.725	23.02
674.912	22.81
675.1	23.05
675.287	23.08
675.474	22.69
675.662	22.82
675.849	22.97
676.036	22.98
676.223	22.91
676.411	23.1
676.598	23.06
676.785	23.01
676.972	23.1
677.159	23.07
677.346	23.08
677.533	23.26
677.721	23.42
677.908	23.5
678.095	23.7
678.282	23.62
678.469	23.28
678.656	23.4
678.843	23.51
679.03	23.73
679.217	23.78
679.404	23.58
679.591	23.62
679.778	23.48
679.964	23.42
680.151	23.2
680.338	23.05
680.525	23.1
680.712	22.96
680.899	22.76
681.086	22.91
681.272	22.93
681.459	23.07
681.646	23.19
681.833	23.17
682.02	23.11
682.206	23.32
682.393	23.55
682.58	23.62
682.766	23.93
682.953	24.22
683.14	24.09
683.326	23.91
683.513	24.08
683.7	23.73
683.886	23.77
684.073	23.95
684.259	24.09
684.446	24.14
684.632	24.26
684.819	24.04
685.005	23.86
685.192	23.87
685.378	24.03
685.565	23.83
685.751	24.12
685.938	23.89
686.124	23.77
686.31	23.33
686.497	23.38
686.683	23.32
686.87	23.28
687.056	23.23
687.242	23.31
687.429	23.19
687.615	23.25
687.801	23.37
687.987	23.61
688.174	23.67
688.36	23.99
688.546	23.82
688.732	23.66
688.918	23.68
689.105	23.79
689.291	23.82
689.477	23.89
689.663	23.96
689.849	23.89
690.035	23.76
690.221	23.59
690.407	23.66
690.593	23.59
690.779	23.84
690.965	23.9
691.151	23.75
691.337	23.57
691.523	23.79
691.709	23.63
691.895	23.64
692.081	23.73
692.267	23.93
692.453	24.22
692.639	24.26
692.825	24.17
693.011	24.17
693.196	24.37
693.382	24.3
693.568	24.3
693.754	24.51
693.94	24.43
694.125	24.38
694.311	24.43
694.497	24.04
694.682	24.34
694.868	24.28
695.054	24.43
695.239	24.23
695.425	24.41
695.611	24.02
695.796	23.94
695.982	24.01
696.168	24.07
696.353	23.9
696.539	23.82
696.724	24.05
696.91	23.96
697.095	23.81
697.281	23.84
697.466	23.63
697.652	23.9
697.837	23.89
698.023	23.69
698.208	23.66
698.393	24.02
698.579	23.97
698.764	23.75
698.949	23.8
699.135	23.71
699.32	23.81
699.505	23.88
699.691	23.86
699.876	23.78
700.061	24.06
700.246	24.17
700.432	23.94
700.617	24.19
700.802	24.14
700.987	24.41
701.172	24.75
701.358	24.67
701.543	24.9
701.728	25.02
701.913	25.12
702.098	25.05
702.283	25.23
702.468	25.57
702.653	25.18
702.838	25.47
703.023	25.24
703.208	25.06
703.393	25.27
703.578	25.31
703.763	25.12
703.948	25.26
704.133	25.37
704.318	25.49
704.503	25.27
704.688	25.61
704.873	25.61
705.057	25.71
705.242	26.09
705.427	25.94
705.612	25.85
705.797	25.84
705.981	25.88
706.166	25.56
706.351	25.29
706.536	25.1
706.72	25.03
706.905	24.68
707.09	24.5
707.274	24.45
707.459	24.64
707.644	24.6
707.828	24.82
708.013	24.94
708.197	25.01
708.382	24.99
708.567	25.21
708.751	25.17
708.936	24.93
709.12	24.94
709.305	24.6
709.489	24.82
709.673	24.99
709.858	24.75
710.042	24.71
710.227	24.93
710.411	25.04
710.596	25.07
710.78	25.12
710.964	25.6
711.149	25.75
711.333	25.95
711.517	25.66
711.702	25.45
711.886	25.69
712.07	25.59
712.254	25.52
712.438	25.73
712.623	25.67
712.807	25.72
712.991	25.62
713.175	25.45
713.359	25.41
713.544	25.43
713.728	25.33
713.912	25.21
714.096	25.33
714.28	25.11
714.464	24.71
714.648	24.51
714.832	24.42
715.016	24.2
715.2	24.64
715.384	24.48
715.568	24.56
715.752	24.7
715.936	24.46
716.12	24.4
716.304	24.4
716.488	24.49
716.671	24.27
716.855	24.45
717.039	24.41
717.223	23.94
717.407	23.95
717.59	23.87
717.774	23.51
717.958	23.89
718.142	23.72
718.325	23.78
718.509	23.84
718.693	24.33
718.877	23.8
719.06	24.24
719.244	24.42
719.428	24.19
719.611	24.16
719.795	24.53
719.978	24.47
720.162	24.44
720.345	24.07
720.529	24.02
720.713	24.11
720.896	24.44
721.08	24.25
721.263	24.12
721.446	24.53
721.63	24.55
721.813	23.92
721.997	23.72
722.18	23.58
722.364	23.91
722.547	24.43
722.73	24.26
722.914	24.29
723.097	23.88
723.28	24.25
723.464	24.35
723.647	24.23
723.83	24.95
724.013	25.18
724.197	25.54
724.38	25.53
724.563	24.87
724.746	24.95
724.929	25.49
725.112	25.92
725.296	25.75
725.479	25.71
725.662	25.39
725.845	24.94
726.028	24.99
726.211	24.77
726.394	24.68
726.577	24.96
726.76	25.28
726.943	24.94
727.126	24.62
727.309	24.2
727.492	23.96
727.675	24.31
727.858	24.41
728.041	24.3
728.224	24.2
728.407	24.23
728.589	24.04
728.772	23.43
728.955	23.46
729.138	23.85
729.321	24.17
729.503	24.34
729.686	23.93
729.869	24.07
730.052	23.72
730.234	23.56
730.417	23.67
730.6	23.55
730.782	23.72
730.965	23.61
731.148	23.83
731.33	23.78
731.513	23.44
731.695	23.89
731.878	23.77
732.061	24.5
732.243	24.96
732.426	25.03
732.608	25.11
732.791	25.02
732.973	24.94
733.156	24.81
733.338	24.68
733.52	24.8
733.703	24.78
733.885	25.14
734.068	24.96
734.25	24.86
734.432	24.96
734.615	25.09
734.797	25.03
734.979	25.2
735.162	25.07
735.344	25.08
735.526	25.28
735.708	25.23
735.891	25.1
736.073	24.8
736.255	24.88
736.437	24.91
736.619	24.89
736.802	25.11
736.984	24.81
737.166	24.74
737.348	25.13
737.53	25.52
737.712	25.86
737.894	25.53
738.076	25.5
738.258	25.51
738.44	25.63
738.622	25.21
738.804	25.53
738.986	25.54
739.168	25.9
739.35	25.83
739.532	25.64
739.714	25.33
739.896	25.83
740.078	25.69
740.259	25.92
740.441	25.84
740.623	25.96
740.805	25.67
740.987	26.04
741.168	25.68
741.35	25.34
741.532	24.92
741.714	24.65
741.895	24.36
742.077	24.75
742.259	24.26
742.44	23.98
742.622	23.91
742.804	23.97
742.985	23.46
743.167	22.82
743.348	23.09
743.53	23.11
743.711	23.72
743.893	24.05
744.075	23.96
744.256	24.03
744.438	24.03
744.619	24.3
744.8	24.22
744.982	24.75
745.163	25.02
745.345	25.09
745.526	25.94
745.707	26.12
745.889	25.83
746.07	25.89
746.252	25.9
746.433	26.35
746.614	26.48
746.795	26.99
746.977	26.52
747.158	27.33
747.339	27.48
747.52	26.82
747.702	26.27
747.883	26.85
748.064	26.59
748.245	26.85
748.426	26.58
748.607	26.57
748.788	25.63
748.97	26.03
749.151	25.57
749.332	25.18
749.513	25.6
749.694	26.08
749.875	25.55
750.056	25.83
750.237	25.49
750.418	25.28
750.599	24.91
750.78	25.75
750.96	25.74
751.141	25.77
751.322	26.26
751.503	25.77
751.684	25.3
751.865	25.34
752.046	24.69
752.226	24.76
752.407	25.47
752.588	25.54
752.769	25.13
752.949	25.14
753.13	24.16
753.311	23.5
753.492	23.58
753.672	23.42
753.853	23.12
754.034	23.62
754.214	23.92
754.395	23.36
754.575	24.19
754.756	24.12
754.937	24.32
755.117	25.88
755.298	26.35
755.478	26.48
755.659	26.56
755.839	26.99
756.02	26.68
756.2	26.44
756.381	26.45
756.561	25.24
756.741	25.48
756.922	25.57
757.102	25.3
757.283	25.27
757.463	25.09
757.643	25.31
757.823	25.6
758.004	25.61
758.184	25.22
758.364	25.21
758.545	25.35
758.725	25.58
758.905	24.74
759.085	24.71
759.265	24.92
759.446	24.98
759.626	24.56
759.806	23.85
759.986	23.55
760.166	24.04
760.346	23.81
760.526	23.68
760.706	23.51
760.886	23.55
761.066	23
761.246	22.36
761.426	22.48
761.606	22.12
761.786	21.95
761.966	22.53
762.146	22.24
762.326	22.34
762.506	23.08
762.686	22.75
762.866	22.89
763.046	23.31
763.225	23.52
763.405	23.32
763.585	23.66
763.765	24.06
763.945	24.3
764.124	24.33
764.304	24.62
764.484	24.17
764.664	24.28
764.843	24.54
765.023	24.46
765.203	24.59
765.382	24.76
765.562	24.93
765.741	24.91
765.921	24.72
766.101	24.93
766.28	24.73
766.46	25.46
766.639	25.74
766.819	26.09
766.998	26.42
767.178	26.82
767.357	26.98
767.537	27.05
767.716	27.29
767.896	27.33
768.075	27.55
768.254	27.68
768.434	27.52
768.613	27.39
768.792	27
768.972	26.56
769.151	26.09
769.33	25.53
769.51	25.38
769.689	24.9
769.868	24.49
770.047	24.19
770.226	24.1
770.406	23.51
770.585	23.41
770.764	23.06
770.943	22.82
771.122	23.06
771.301	24.01
771.48	23.84
771.66	24.22
771.839	23.94
772.018	24.44
772.197	24.31
772.376	24.78
772.555	24.76
772.734	24.74
772.913	24.65
773.092	24.75
773.271	24.17
773.449	24.45
773.628	24.68
773.807	25.38
773.986	24.91
774.165	25.23
774.344	25.49
774.523	25.67
774.701	25.5
774.88	26.7
775.059	26.34
775.238	26.42
775.417	27.27
775.595	27.15
775.774	26.71
775.953	26.57
776.131	26.55
776.31	26.06
776.489	25.88
776.667	26.32
776.846	26.1
777.025	26.04
777.203	26.4
777.382	25.09
777.56	25.54
777.739	26.46
777.917	26.42
778.096	26.8
778.274	26.69
778.453	26.92
778.631	27.21
778.81	26.99
778.988	27.04
779.166	27.5
779.345	28.3
779.523	27.98
779.702	26.83
779.88	27.26
780.058	27.15
780.237	27.57
780.415	27.34
780.593	27.51
780.771	26.42
780.95	27.14
781.128	26.01
781.306	26.9
781.484	26.73
781.662	27.07
781.841	27.15
782.019	26.01
782.197	26.4
782.375	26.3
782.553	25.51
782.731	26.71
782.909	26.27
783.087	26.04
783.265	24.93
783.443	25.53
783.621	26.01
783.799	25.17
783.977	25.73
784.155	25.12
784.333	25.45
784.511	26.11
784.689	25.22
784.867	25.54
785.045	26.11
785.223	26.02
785.4	24.93
785.578	25.43
785.756	25.89
785.934	26.05
786.112	26.98
786.289	26.71
786.467	27.54
786.645	28.38
786.823	27.81
787	28.17
787.178	28.34
787.356	28.59
787.533	27.72
787.711	27.07
787.889	27.2
788.066	26.16
788.244	25.14
788.421	24.49
788.599	23.72
788.776	23.39
788.954	23.03
789.131	23.29
789.309	22.81
789.486	23.68
789.664	25.06
789.841	24.79
790.019	24.71
790.196	25.84
790.373	25.55
790.551	26.59
790.728	26.76
790.906	26.69
791.083	24.95
791.26	25.89
791.437	25.16
791.615	24.54
791.792	24.6
791.969	24.72
792.146	24.38
792.324	24.23
792.501	23.88
792.678	24.29
792.855	24.69
793.032	26.49
793.209	26
793.387	26.35
793.564	26.64
793.741	26.95
793.918	26.53
794.095	27.6
794.272	28.28
794.449	27.57
794.626	26.46
794.803	26.42
794.98	25.74
795.157	24.85
795.334	25.35
795.511	25.15
795.688	25.71
795.864	25.99
796.041	26.04
796.218	25.25
796.395	25.6
796.572	26.33
796.749	26.47
796.925	26.11
797.102	26.83
797.279	26.37
797.456	26.54
797.632	26.29
797.809	26.71
797.986	26
798.162	26.52
798.339	27.49
798.516	27.2
798.692	27.25
798.869	27.88
799.046	28.69
799.222	28
799.399	27.52
799.575	26.2
799.752	26.34
799.928	26.22
800.105	25.96
800.281	25.87
800.458	26.69
800.634	25.59
800.811	25.58
800.987	24.7
801.163	25.18
801.34	25.51
801.516	25.77
801.692	25.87
801.869	25.98
802.045	25.3
802.221	24.5
802.398	23.61
802.574	24.95
802.75	24.87
802.926	25.09
803.103	25.3
803.279	24.55
803.455	25.13
803.631	24.15
803.807	25.12
803.983	25.52
804.16	26.34
804.336	27.41
804.512	27.22
804.688	27.23
804.864	27.41
805.04	26.36
805.216	26.68
805.392	27.7
805.568	28.13
805.744	25.41
805.92	25.6
806.096	23.73
806.272	22.72
806.448	21.89
806.623	22.41
806.799	21.99
806.975	21.89
807.151	22.2
807.327	21.65
807.503	20.9
807.678	22.98
807.854	21.17
808.03	22.18
808.206	21.77
808.381	23.21
808.557	22.78
808.733	23.68
808.908	23.75
809.084	21.8
809.26	22.25
809.435	23.23
809.611	21.89
809.787	23.02
809.962	22.39
810.138	23.81
810.313	23.64
810.489	23.56
810.664	22.84
810.84	22.56
811.015	23.79
811.191	22.94
811.366	21.66
811.542	22.12
811.717	21.28
811.892	22.37
812.068	21.93
812.243	22.43
812.419	22.14
812.594	21.55
812.769	22.38
812.944	22.61
813.12	21.71
813.295	21.97
813.47	21.97
813.645	22.95
813.821	22.59
813.996	22.38
814.171	20.5
814.346	20.18
814.521	20.08
814.697	19.36
814.872	17.98
815.047	18.65
815.222	20.04
815.397	19.83
815.572	19.46
815.747	18.8
815.922	18.56
816.097	17.82
816.272	17.92
816.447	18.86
816.622	20.8
816.797	21.67
816.972	21.83
817.147	20.56
817.322	21.49
817.496	22.29
817.671	22.6
817.846	21.77
818.021	22.38
818.196	22.13
818.371	22.8
818.545	21.12
818.72	21.88
818.895	22.55
819.069	22.39
819.244	21.89
819.419	22.47
819.594	22.73
819.768	23.42
819.943	23.1
820.117	24.14
820.292	23.45
820.467	23.14
820.641	22.89
820.816	22.23
820.99	22.93
821.165	23.25
821.339	23.04
821.514	22.89
821.688	22.87
821.863	22.85
822.037	22.71
822.212	22.61
822.386	22.9
822.56	23.25
822.735	23.48
822.909	23.35
823.084	23.59
823.258	23.39
823.432	23.48
823.606	23.7
823.781	23.81
823.955	23.98
824.129	24.19
824.303	24.12
824.478	24.21
824.652	23.99
824.826	23.96
825	23.55
825.174	23.31
825.348	23.22
825.523	22.48
825.697	22.38
825.871	21.71
826.045	21.03
826.219	20.96
826.393	20.73
826.567	20.79
826.741	20.42
826.915	20.48
827.089	21.11
827.263	20.84
827.437	21.26
827.611	21.43
827.784	21.69
827.958	22.54
828.132	22.68
828.306	22.31
828.48	23.01
828.654	23.77
828.827	23.52
829.001	23.84
829.175	24.22
829.349	24.06
829.522	24.61
829.696	24.68
829.87	23.96
830.044	23.77
830.217	24.26
830.391	23.83
830.565	22.53
830.738	23.83
830.912	23.03
831.085	22.63
831.259	22.59
831.432	21.73
831.606	21.35
831.779	20.5
831.953	20.6
832.126	19.6
832.3	18.83
832.473	19.71
832.647	19.44
832.82	20.1
832.994	20.82
833.167	21.54
833.34	21.31
833.514	21.56
833.687	22.41
833.86	22.55
834.034	22.94
834.207	23.23
834.38	23.81
834.553	23.31
834.727	23.66
834.9	22.99
835.073	22.74
835.246	23.34
835.419	23.74
835.593	23.3
835.766	23.75
835.939	23.99
836.112	23.86
836.285	23.33
836.458	23.42
836.631	22.05
836.804	22.55
836.977	22.87
837.15	22.61
837.323	22.36
837.496	22.28
837.669	19.87
837.842	18.7
838.015	20.12
838.188	20.13
838.361	20.24
838.533	21.88
838.706	23.18
838.879	22.09
839.052	22.28
839.225	23.44
839.398	24.65
839.57	25.65
839.743	27.17
839.916	25.05
840.088	27.33
840.261	26.86
840.434	26.87
840.607	24.78
840.779	26.09
840.952	26.19
841.124	24.3
841.297	23.58
841.47	24.65
841.642	24.77
841.815	25.19
841.987	22.5
842.16	22.27
842.332	22.92
842.505	24.97
842.677	24.94
842.85	25.57
843.022	26.06
843.194	24.65
843.367	24.26
843.539	22.39
843.712	21.48
843.884	20.54
844.056	21.32
844.229	20.22
844.401	18.87
844.573	18.86
844.745	17.23
844.918	16.95
845.09	17.1
845.262	18.32
845.434	18.03
845.606	19.01
845.779	20.65
845.951	22.37
846.123	24.27
846.295	24.4
846.467	23.52
846.639	24
846.811	24.94
846.983	27.61
847.155	29.77
847.327	28.19
847.499	26.38
847.671	24.84
847.843	24.54
848.015	19.55
848.187	21.64
848.359	21.86
848.531	19.98
848.703	18.49
848.875	14.82
849.047	9.45
849.218	9.41
849.39	12.83
849.562	12.24
849.734	12.78
849.905	15.3
850.077	13.43
850.249	14.32
850.421	13.28
850.592	16.34
850.764	19.62
850.936	22.93
851.107	25.49
851.279	26.93
851.451	27.47
851.622	25.04
851.794	24.42
851.965	24.69
852.137	23.5
852.308	24.84
852.48	24.37
852.651	22.23
852.823	21.52
852.994	17.94
853.166	18.85
853.337	19.8
853.509	22.55
853.68	25.61
853.851	27.83
854.023	26.48
854.194	28.57
854.365	27.93
854.537	31.67
854.708	28.6
854.879	32.07
855.05	26.44
855.222	28.97
855.393	27
855.564	24.61
855.735	19.49
855.906	19.43
856.078	18.2
856.249	14.72
856.42	11.63
856.591	15.13
856.762	17.41
856.933	18.93
857.104	15.36
857.275	17.99
857.446	17.57
857.617	16.83
857.788	14.77
857.959	15.19
858.13	17.39
858.301	18.66
858.472	15.54
858.643	10.97
858.814	14.29
858.985	11.61
859.155	8.42
859.326	7.59
859.497	14.95
859.668	20.44
859.839	19.22
860.009	19.42
860.18	18.14
860.351	20.28
860.522	22.93
860.692	19.2
860.863	24.34
861.034	25.75
861.204	26.56
861.375	24.51
861.546	21.77
861.716	22.67
861.887	21.74
862.057	22.84
862.228	21.01
862.398	17.63
862.569	19.13
862.739	17.17
862.91	17.17
863.08	14.99
863.251	10.96
863.421	9.02
863.592	9.67
863.762	11.65
863.932	12.03
864.103	9.97
864.273	15.35
864.443	12.94
864.614	10.51
864.784	7.76
864.954	8.07
865.125	15
865.295	18.08
865.465	14.83
865.635	14.01
865.805	10.34
865.976	14.61
866.146	12.56
866.316	10.75
866.486	12.14
866.656	11.67
866.826	15.86
866.996	8.4
867.166	8
867.336	6.54
867.506	3.51
867.676	7.3
867.846	4.6
868.016	4.02
868.186	6.13
868.356	6.08
868.526	6.84
868.696	6.31
868.866	8.97
869.036	7.64
869.206	7.34
869.376	11.39
869.545	14.47
869.715	15.64
869.885	18.12
870.055	21.46
870.224	21.59
870.394	22.74
870.564	20.96
870.734	16.79
870.903	21.53
871.073	26.53
871.243	24.09
871.412	18.03
871.582	19.9
871.751	18.36
871.921	12.47
872.091	13.89
872.26	13.73
872.43	11.93
872.599	16.21
872.769	14.03
872.938	11.26
873.108	11.55
873.277	14.37
873.446	12.33
873.616	9.36
873.785	10.6
873.955	11.09
874.124	13.88
874.293	15.61
874.463	17.2
874.632	17.76
874.801	20
874.971	20.86
875.14	19.25
875.309	20.4
875.478	23.58
875.647	24.06
875.817	24.01
875.986	19.5
876.155	22.3
876.324	21.84
876.493	20.61
876.662	17.97
876.831	15.11
877	16.98
877.17	15.36
877.339	13.5
877.508	12.32
877.677	11.5
877.846	13.41
878.015	9.44
878.184	9.23
878.352	9
878.521	9.96
878.69	12.7
878.859	10.89
879.028	10.9
879.197	12.95
879.366	13.51
879.534	13.71
879.703	15.68
879.872	21.22
880.041	22.18
880.21	20.86
880.378	20.62
880.547	20.19
880.716	22.42
880.884	22.86
881.053	22.31
881.222	22.83
881.39	22.83
881.559	23.05
881.727	22.25
881.896	22.26
882.065	23.09
882.233	23.3
882.402	23.11
882.57	22.75
882.739	22.62
882.907	22.97
883.076	22.82
883.244	22.26
883.412	21.75
883.581	22.15
883.749	21.9
883.918	21.01
884.086	20.06
884.254	20.86
884.423	20.17
884.591	20.12
884.759	19.78
884.927	20.5
885.096	20.36
885.264	20.94
885.432	20.06
885.6	19.35
885.769	19.32
885.937	20.97
886.105	19.44
886.273	20.67
886.441	20.32
886.609	20.55
886.777	20.18
886.945	22.4
887.113	19.81
887.281	17.3
887.449	16.92
887.617	17.28
887.785	14.42
887.953	16.2
888.121	13.28
888.289	11.55
888.457	11.19
888.625	12.48
888.793	9.67
888.961	11.3
889.129	12.84
889.296	12.36
889.464	12.23
889.632	15.43
889.8	11.89
889.967	11.92
890.135	17.13
