Data from 2938826__Reflection_05.txt Node
Date: Thu Mar 12 13:43:53 EDT 2015
User: robert
Spectrometer: USB4E03002
Autoset integration time: false
Trigger mode: 4
Integration Time (sec): 1.000000E-1
Scans to average: 10
Electric dark correction enabled: false
Nonlinearity correction enabled: false
Boxcar width: 5
Stray light correction enabled: false
XAxis mode: Wavelengths
Stop averaging: false
Number of Pixels in Spectrum: 3648
>>>>>Begin Spectral Data<<<<<
177.575	-15.68
177.794	5.17
178.014	4.62
178.233	22.38
178.452	28.01
178.672	54.63
178.891	53.45
179.11	84.65
179.33	81.41
179.549	97.42
179.768	161.08
179.987	272.62
180.207	267.11
180.426	210.98
180.645	255.74
180.864	250.54
181.084	131.37
181.303	213.46
181.522	134.89
181.741	214.1
181.96	176.8
182.179	115.15
182.398	82.09
182.618	64.59
182.837	67.48
183.056	56.71
183.275	110.43
183.494	88.95
183.713	72.45
183.932	91.22
184.151	85.34
184.37	95.65
184.589	97.75
184.808	59.51
185.027	122.1
185.246	136.42
185.465	122.67
185.684	91.99
185.903	119.53
186.122	63.97
186.341	49.59
186.56	65.12
186.779	116.09
186.998	82.18
187.216	96.91
187.435	40.14
187.654	-5.78
187.873	12.5
188.092	-91.37
188.311	-1331.58
188.53	1114.29
188.748	1016.13
188.967	6475
189.186	-228.93
189.405	-127.01
189.623	-183.51
189.842	27.45
190.061	29.41
190.28	79.41
190.498	-3000
190.717	13.99
190.936	-5660
191.154	-237.1
191.373	-170.87
191.592	558.33
191.81	-44.22
192.029	-153.33
192.248	-304.51
192.466	-112.94
192.685	-45.42
192.904	-9.13
193.122	-5.33
193.341	67.16
193.559	58.83
193.778	38.89
193.996	43.48
194.215	6.4
194.433	7.6
194.652	17.51
194.87	-14.36
195.089	-27.36
195.307	-24.48
195.526	-62.54
195.744	-53.78
195.963	-155.34
196.181	7860
196.399	-211.59
196.618	-173.2
196.836	-188.64
197.055	-3008.33
197.273	-18.83
197.491	10.99
197.71	19.82
197.928	13.48
198.146	44.29
198.365	22.07
198.583	79.89
198.801	74.59
199.019	144.36
199.238	96.12
199.456	77.31
199.674	47.7
199.892	-5.42
200.111	-23
200.329	3.35
200.547	0.61
200.765	21.56
200.983	12.87
201.202	-4.98
201.42	-5.16
201.638	14.17
201.856	-1.47
202.074	17.97
202.292	16.79
202.51	45.01
202.728	52.97
202.946	38.11
203.165	11.11
203.383	9.91
203.601	37.39
203.819	10.66
204.037	-47.79
204.255	-34.76
204.473	-15.93
204.691	9.13
204.909	-7.24
205.127	-23.25
205.345	-30.86
205.562	-39.16
205.78	-22.57
205.998	-32.89
206.216	-10.37
206.434	12.21
206.652	20.35
206.87	13.5
207.088	15.18
207.306	13.98
207.523	6.17
207.741	29.61
207.959	37.15
208.177	30.02
208.395	35.94
208.612	49.76
208.83	32.46
209.048	43.71
209.266	45
209.483	46.97
209.701	52.4
209.919	73.38
210.136	73.4
210.354	49.65
210.572	66.46
210.79	70.01
211.007	53.5
211.225	56.42
211.442	57.26
211.66	44.29
211.878	49.17
212.095	54.8
212.313	40.87
212.53	6.36
212.748	26.19
212.966	12.26
213.183	-4.01
213.401	-8.96
213.618	-17.14
213.836	-17.06
214.053	-9.8
214.271	-2.33
214.488	-10.96
214.705	2.38
214.923	19.75
215.14	25.84
215.358	24.46
215.575	23.39
215.793	11.2
216.01	10.44
216.227	12.79
216.445	13.71
216.662	16.27
216.879	22.29
217.097	9.8
217.314	14.19
217.531	11.47
217.749	-2.5
217.966	-6.48
218.183	14.65
218.4	14.97
218.618	9.22
218.835	8.6
219.052	3.3
219.269	-3.4
219.487	0.37
219.704	-6.05
219.921	-9.49
220.138	8.22
220.355	2.78
220.572	-2.62
220.79	-1.05
221.007	7.44
221.224	10.94
221.441	14.56
221.658	10.96
221.875	8.1
222.092	13.29
222.309	10.4
222.526	6.26
222.743	9.02
222.96	10.99
223.177	9.81
223.394	7.46
223.611	3.47
223.828	5.74
224.045	9.98
224.262	11.19
224.479	9.22
224.696	8.75
224.913	9.48
225.13	11.32
225.347	10.74
225.564	11.38
225.781	11.17
225.997	7.39
226.214	4.35
226.431	3.58
226.648	6.51
226.865	6.16
227.082	6.45
227.298	6.21
227.515	6.14
227.732	5.1
227.949	5.99
228.165	5.56
228.382	6.41
228.599	6.41
228.816	6.58
229.032	6.46
229.249	6.91
229.466	6.5
229.682	6.59
229.899	7
230.116	8.02
230.332	7.57
230.549	6.85
230.765	7.01
230.982	7.1
231.199	6.23
231.415	6.1
231.632	4.38
231.848	5.37
232.065	5.59
232.281	5.49
232.498	3.22
232.714	2.2
232.931	3.22
233.147	3.5
233.364	3.56
233.58	2.46
233.797	0.55
234.013	2
234.23	0.77
234.446	0.69
234.662	-1.02
234.879	0.81
235.095	2.76
235.312	2.92
235.528	3.69
235.744	3.87
235.961	6.07
236.177	7.41
236.393	7.21
236.61	7.74
236.826	7.53
237.042	7.52
237.258	6.9
237.475	6.82
237.691	5.45
237.907	5.36
238.123	5.3
238.339	4.75
238.556	5.44
238.772	5.56
238.988	7.64
239.204	9.06
239.42	8.75
239.636	8.86
239.853	8.17
240.069	10.07
240.285	9.19
240.501	8.49
240.717	8.61
240.933	7.89
241.149	7.06
241.365	6.92
241.581	7.05
241.797	7.15
242.013	6.61
242.229	7.32
242.445	7.13
242.661	8.15
242.877	8.31
243.093	7.88
243.309	7.91
243.525	8.15
243.741	7.76
243.957	7.41
244.173	7.65
244.388	8.49
244.604	7.79
244.82	8.03
245.036	7.26
245.252	7.1
245.468	7.78
245.683	8.06
245.899	7.89
246.115	7.48
246.331	7.57
246.547	7.72
246.762	7.48
246.978	7.39
247.194	7.13
247.409	6.99
247.625	7.22
247.841	7.41
248.057	7.29
248.272	7.41
248.488	7.59
248.703	7.2
248.919	7.14
249.135	7.04
249.35	6.93
249.566	6.89
249.782	6.79
249.997	6.69
250.213	5.87
250.428	6.27
250.644	5.9
250.859	6.21
251.075	6.09
251.29	6.47
251.506	7.19
251.721	7.4
251.937	6.9
252.152	6.52
252.368	6.43
252.583	6.07
252.798	5.41
253.014	6.03
253.229	5.81
253.445	5.98
253.66	4.67
253.875	3.83
254.091	3.83
254.306	4.41
254.521	5.27
254.737	4.63
254.952	5.03
255.167	4.82
255.383	4.43
255.598	4.21
255.813	4.22
256.028	5.19
256.244	5.02
256.459	4.47
256.674	3.56
256.889	3.82
257.104	3.93
257.32	3.55
257.535	4.22
257.75	4.68
257.965	4.66
258.18	4.59
258.395	4.61
258.61	4.52
258.826	4.8
259.041	4.88
259.256	4.79
259.471	4.96
259.686	5.07
259.901	5.17
260.116	4.96
260.331	5.08
260.546	5.32
260.761	5.2
260.976	5.07
261.191	4.74
261.406	4.96
261.621	4.74
261.836	4.67
262.05	4.88
262.265	4.59
262.48	4.53
262.695	4.16
262.91	4.02
263.125	3.81
263.34	3.71
263.555	4.43
263.769	4.56
263.984	4.76
264.199	4.92
264.414	5.01
264.629	5.43
264.843	5.42
265.058	5.96
265.273	6
265.488	6.32
265.702	6.84
265.917	6.98
266.132	6.65
266.346	6.61
266.561	6.42
266.776	6.24
266.99	5.88
267.205	5.76
267.42	5.7
267.634	5.38
267.849	5.19
268.063	5.03
268.278	4.37
268.492	4.55
268.707	4.42
268.922	4.65
269.136	3.98
269.351	3.71
269.565	3.82
269.78	3.65
269.994	3.43
270.209	3.33
270.423	3.64
270.637	3.69
270.852	3.75
271.066	3.77
271.281	3.56
271.495	4.06
271.709	4.31
271.924	4.47
272.138	4.56
272.353	4.78
272.567	4.93
272.781	4.89
272.996	5.06
273.21	4.75
273.424	4.84
273.638	4.87
273.853	4.77
274.067	4.59
274.281	4.48
274.495	3.91
274.71	4.11
274.924	4.19
275.138	4.15
275.352	4.31
275.566	4.55
275.781	4.71
275.995	4.47
276.209	4.15
276.423	4.37
276.637	4.38
276.851	4.76
277.065	4.76
277.279	4.48
277.493	4.3
277.707	4.08
277.921	3.87
278.135	3.55
278.349	3.7
278.563	4.02
278.777	3.49
278.991	2.95
279.205	3.07
279.419	2.93
279.633	3.98
279.847	3.92
280.061	4.23
280.275	4.47
280.489	4.51
280.703	4.69
280.917	4.77
281.131	5.11
281.344	5.67
281.558	5.49
281.772	5.48
281.986	4.82
282.2	4.94
282.414	4.58
282.627	4.76
282.841	4.85
283.055	4.51
283.269	4.52
283.482	4.69
283.696	4.35
283.91	4.5
284.123	4.42
284.337	4.81
284.551	4.93
284.764	4.83
284.978	4.67
285.192	4.55
285.405	4.62
285.619	5.01
285.833	4.85
286.046	4.97
286.26	4.95
286.473	4.92
286.687	4.95
286.9	4.89
287.114	4.99
287.327	5.28
287.541	5.53
287.754	5.76
287.968	5.23
288.181	5.2
288.395	4.86
288.608	4.91
288.822	5.25
289.035	5.01
289.248	5.17
289.462	5.3
289.675	4.77
289.889	4.53
290.102	4.49
290.315	4.67
290.529	4.88
290.742	5.23
290.955	5.21
291.169	5.16
291.382	4.88
291.595	4.99
291.808	5.02
292.022	5.58
292.235	5.97
292.448	6.4
292.661	6.59
292.875	6.63
293.088	6.75
293.301	6.66
293.514	6.56
293.727	7.08
293.94	6.78
294.153	6.64
294.367	6.27
294.58	5.84
294.793	5.64
295.006	5.59
295.219	5.21
295.432	5.14
295.645	5.51
295.858	5.55
296.071	5.61
296.284	5.65
296.497	5.94
296.71	6.03
296.923	6.42
297.136	6.47
297.349	6.4
297.562	6.6
297.775	6.54
297.988	6.31
298.201	6.26
298.414	6.13
298.626	6.31
298.839	6.03
299.052	6.27
299.265	6.07
299.478	6.2
299.691	6.18
299.903	6.48
300.116	6.75
300.329	6.98
300.542	6.97
300.755	6.9
300.967	6.57
301.18	7.13
301.393	7.12
301.605	7.16
301.818	6.63
302.031	6.49
302.243	6.13
302.456	6.06
302.669	6.32
302.881	6.37
303.094	6.62
303.307	6.74
303.519	6.3
303.732	6.31
303.944	6.42
304.157	7.03
304.37	7.29
304.582	7.63
304.795	7.68
305.007	7.6
305.22	7.87
305.432	8.1
305.645	7.93
305.857	8.14
306.069	8.59
306.282	8.62
306.494	8.48
306.707	8.68
306.919	8.97
307.132	8.79
307.344	8.89
307.556	9
307.769	8.61
307.981	8.87
308.193	8.8
308.406	8.5
308.618	8.41
308.83	8.26
309.043	8.13
309.255	7.77
309.467	7.92
309.679	7.81
309.892	7.53
310.104	7.69
310.316	7.82
310.528	7.45
310.74	7.18
310.953	7.27
311.165	7.22
311.377	7.16
311.589	7.29
311.801	7.26
312.013	7.15
312.225	7.43
312.437	7.34
312.649	6.94
312.862	7.4
313.074	7.52
313.286	7.62
313.498	7.8
313.71	7.85
313.922	8.01
314.134	8.08
314.346	8.04
314.558	7.81
314.77	8
314.982	8.43
315.193	8.42
315.405	8.41
315.617	8.45
315.829	8.46
316.041	8.49
316.253	8.39
316.465	8.65
316.677	8.76
316.888	8.72
317.1	8.95
317.312	8.88
317.524	9.21
317.736	9.02
317.947	8.8
318.159	8.34
318.371	8.55
318.583	8.7
318.794	8.52
319.006	8.6
319.218	8.55
319.43	8.45
319.641	8.62
319.853	8.51
320.064	8.33
320.276	8.36
320.488	8.64
320.699	8.49
320.911	8.28
321.123	8.32
321.334	8.24
321.546	8.07
321.757	8.22
321.969	8.26
322.18	8.01
322.392	8.15
322.603	7.86
322.815	7.95
323.026	8.03
323.238	7.61
323.449	7.41
323.661	7.17
323.872	7.59
324.083	7.28
324.295	7.04
324.506	7.33
324.718	7.9
324.929	7.87
325.14	7.69
325.352	7.77
325.563	7.78
325.774	7.85
325.986	8.14
326.197	8.23
326.408	8.36
326.62	8.54
326.831	8.25
327.042	7.94
327.253	7.96
327.464	8.09
327.676	7.64
327.887	7.95
328.098	8.5
328.309	8.54
328.52	8.04
328.732	7.74
328.943	7.86
329.154	8.1
329.365	8.34
329.576	8.5
329.787	8.74
329.998	9.03
330.209	8.86
330.42	8.12
330.631	8.15
330.842	8.39
331.053	8.47
331.264	8.65
331.475	8.75
331.686	8.73
331.897	8.74
332.108	8.65
332.319	9
332.53	9.05
332.741	9.43
332.952	9.47
333.163	9.74
333.374	9.91
333.585	9.46
333.795	9.48
334.006	9.54
334.217	9.56
334.428	9.6
334.639	9.48
334.849	9.81
335.06	9.56
335.271	9.69
335.482	9.67
335.692	9.26
335.903	9.38
336.114	9.06
336.325	9.06
336.535	9.1
336.746	9.35
336.957	9.3
337.167	9.33
337.378	9.3
337.589	8.95
337.799	8.79
338.01	8.63
338.22	8.56
338.431	9.07
338.642	8.84
338.852	9.04
339.063	8.89
339.273	8.76
339.484	8.73
339.694	9.02
339.905	8.95
340.115	9.07
340.326	9.15
340.536	9.19
340.746	8.85
340.957	9.1
341.167	8.87
341.378	8.78
341.588	8.94
341.799	9.07
342.009	8.82
342.219	8.91
342.43	8.96
342.64	9.43
342.85	9.45
343.061	9.61
343.271	9.44
343.481	9.63
343.691	9.69
343.902	9.62
344.112	9.2
344.322	9.08
344.532	9.06
344.743	8.84
344.953	8.76
345.163	8.89
345.373	8.92
345.583	9.11
345.793	8.54
346.004	8.34
346.214	8.47
346.424	8.72
346.634	8.65
346.844	8.62
347.054	8.68
347.264	8.5
347.474	8.42
347.684	8.04
347.894	7.76
348.104	8.42
348.314	8.62
348.524	8.4
348.734	8.36
348.944	8.47
349.154	8.55
349.364	8.39
349.574	8.47
349.784	8.41
349.994	8.33
350.204	8.35
350.413	8.34
350.623	8.22
350.833	8.35
351.043	8.3
351.253	8.59
351.463	8.56
351.672	8.86
351.882	9.16
352.092	9.14
352.302	9.47
352.511	9.62
352.721	9.3
352.931	9.47
353.141	9.52
353.35	9.49
353.56	9.47
353.77	9.46
353.979	9.36
354.189	9.14
354.399	9.13
354.608	9.04
354.818	9.1
355.027	9.11
355.237	9.2
355.447	8.89
355.656	8.97
355.866	8.67
356.075	8.72
356.285	8.68
356.494	8.44
356.704	8.58
356.913	8.49
357.123	8.24
357.332	8.49
357.542	8.48
357.751	8.84
357.96	8.81
358.17	9.08
358.379	9.22
358.589	9.16
358.798	9.47
359.007	9.46
359.217	9.58
359.426	9.65
359.635	9.51
359.845	9.51
360.054	9.16
360.263	8.88
360.472	8.5
360.682	8.34
360.891	8.27
361.1	8.07
361.309	7.84
361.519	7.67
361.728	7.64
361.937	7.59
362.146	7.42
362.355	7.32
362.564	7.52
362.774	7.56
362.983	7.66
363.192	7.82
363.401	7.85
363.61	8.03
363.819	8.09
364.028	7.8
364.237	7.81
364.446	7.47
364.655	7.66
364.864	7.38
365.073	7.66
365.282	7.4
365.491	7.47
365.7	7.6
365.909	7.42
366.118	7.48
366.327	7.72
366.536	7.66
366.745	8.1
366.954	8.05
367.162	8.11
367.371	7.92
367.58	7.97
367.789	7.83
367.998	7.97
368.207	7.98
368.415	7.88
368.624	7.98
368.833	8.04
369.042	7.86
369.25	8.03
369.459	8.12
369.668	8.1
369.877	8.23
370.085	8.1
370.294	7.69
370.503	7.5
370.711	7.57
370.92	7.51
371.129	7.37
371.337	7.49
371.546	7.25
371.754	7.04
371.963	6.85
372.171	6.77
372.38	6.76
372.589	6.7
372.797	6.75
373.006	6.49
373.214	6.5
373.423	6.37
373.631	5.99
373.84	6.11
374.048	6
374.256	5.98
374.465	5.91
374.673	5.79
374.882	6.04
375.09	6.16
375.298	6.17
375.507	6.06
375.715	6.17
375.923	6.31
376.132	6
376.34	6.26
376.548	6.29
376.757	6.16
376.965	6.35
377.173	6.24
377.381	6.24
377.59	6.35
377.798	6.34
378.006	6.41
378.214	6.3
378.423	6.48
378.631	6.41
378.839	6.47
379.047	6.59
379.255	6.39
379.463	6.5
379.671	6.4
379.879	6.39
380.088	6.29
380.296	6.19
380.504	6.15
380.712	6.21
380.92	6.2
381.128	6.14
381.336	5.97
381.544	6.16
381.752	6.16
381.96	6.2
382.168	6.17
382.376	6.14
382.584	6.13
382.791	6.14
382.999	6.2
383.207	5.98
383.415	5.92
383.623	6.16
383.831	5.85
384.039	5.56
384.247	5.56
384.454	5.51
384.662	5.36
384.87	5.4
385.078	5.49
385.285	5.42
385.493	5.55
385.701	5.7
385.909	5.56
386.116	5.58
386.324	5.59
386.532	5.46
386.739	5.36
386.947	5.36
387.155	5.29
387.362	5.3
387.57	5.26
387.778	5.27
387.985	5.16
388.193	5.04
388.4	4.95
388.608	4.99
388.816	5.15
389.023	5.21
389.231	5.44
389.438	5.51
389.646	5.39
389.853	5.5
390.061	5.41
390.268	5.37
390.475	5.42
390.683	5.5
390.89	5.41
391.098	5.25
391.305	5.35
391.512	5.18
391.72	5.04
391.927	5.15
392.135	4.89
392.342	4.97
392.549	5.09
392.756	5.07
392.964	5.11
393.171	5.15
393.378	5.13
393.586	5.02
393.793	4.95
394	5.16
394.207	5.14
394.414	5.19
394.622	5.15
394.829	5.01
395.036	5.01
395.243	5
395.45	5.05
395.657	5.05
395.864	4.96
396.072	5.07
396.279	4.83
396.486	4.86
396.693	5.05
396.9	5.05
397.107	5.1
397.314	4.98
397.521	5.02
397.728	4.88
397.935	4.77
398.142	4.65
398.349	4.64
398.556	4.71
398.763	4.57
398.97	4.39
399.177	4.32
399.383	4.23
399.59	4.45
399.797	4.22
400.004	4.29
400.211	4.34
400.418	4.41
400.625	4.55
400.831	4.38
401.038	4.24
401.245	4.25
401.452	4.31
401.658	4.35
401.865	4.19
402.072	4.17
402.279	4.01
402.485	3.94
402.692	3.91
402.899	3.68
403.105	3.86
403.312	4.05
403.519	3.9
403.725	3.73
403.932	3.65
404.138	3.55
404.345	3.74
404.552	3.84
404.758	3.92
404.965	4.11
405.171	4.2
405.378	4.08
405.584	3.97
405.791	4.04
405.997	4.18
406.204	4.34
406.41	4.4
406.617	4.25
406.823	4.22
407.029	4.34
407.236	4.24
407.442	4.35
407.649	4.51
407.855	4.54
408.061	4.52
408.268	4.46
408.474	4.51
408.68	4.37
408.887	4.47
409.093	4.76
409.299	4.71
409.505	4.75
409.712	4.74
409.918	4.67
410.124	4.77
410.33	4.85
410.537	4.92
410.743	4.78
410.949	4.91
411.155	4.77
411.361	4.6
411.567	4.51
411.773	4.48
411.98	4.38
412.186	4.21
412.392	3.99
412.598	4.07
412.804	3.88
413.01	3.8
413.216	3.83
413.422	4
413.628	4.01
413.834	4.08
414.04	4.04
414.246	3.89
414.452	3.95
414.658	4.05
414.864	3.95
415.07	3.94
415.275	4.01
415.481	3.92
415.687	4.03
415.893	3.95
416.099	3.76
416.305	3.61
416.511	3.8
416.716	3.78
416.922	3.74
417.128	3.75
417.334	3.8
417.539	3.74
417.745	3.81
417.951	3.6
418.157	3.57
418.362	3.65
418.568	3.75
418.774	3.7
418.979	3.68
419.185	3.67
419.391	3.7
419.596	3.69
419.802	3.74
420.008	3.75
420.213	3.83
420.419	3.78
420.624	3.74
420.83	3.74
421.035	3.7
421.241	3.76
421.446	3.71
421.652	3.64
421.857	3.67
422.063	3.56
422.268	3.53
422.474	3.55
422.679	3.6
422.885	3.64
423.09	3.6
423.295	3.65
423.501	3.6
423.706	3.66
423.911	3.64
424.117	3.56
424.322	3.61
424.527	3.62
424.733	3.55
424.938	3.49
425.143	3.52
425.349	3.49
425.554	3.49
425.759	3.55
425.964	3.53
426.169	3.58
426.375	3.71
426.58	3.73
426.785	3.61
426.99	3.6
427.195	3.73
427.4	3.68
427.605	3.73
427.811	3.55
428.016	3.51
428.221	3.59
428.426	3.58
428.631	3.47
428.836	3.48
429.041	3.65
429.246	3.76
429.451	3.7
429.656	3.7
429.861	3.65
430.066	3.81
430.271	3.84
430.476	3.8
430.681	3.74
430.886	3.82
431.09	3.73
431.295	3.79
431.5	3.68
431.705	3.62
431.91	3.64
432.115	3.65
432.32	3.63
432.524	3.56
432.729	3.58
432.934	3.55
433.139	3.49
433.343	3.64
433.548	3.5
433.753	3.53
433.958	3.45
434.162	3.51
434.367	3.53
434.572	3.49
434.776	3.47
434.981	3.39
435.186	3.42
435.39	3.46
435.595	3.39
435.799	3.53
436.004	3.53
436.209	3.59
436.413	3.43
436.618	3.48
436.822	3.47
437.027	3.5
437.231	3.57
437.436	3.65
437.64	3.6
437.845	3.55
438.049	3.45
438.253	3.47
438.458	3.51
438.662	3.59
438.867	3.55
439.071	3.58
439.275	3.53
439.48	3.46
439.684	3.45
439.888	3.43
440.093	3.44
440.297	3.46
440.501	3.45
440.706	3.43
440.91	3.39
441.114	3.35
441.318	3.35
441.523	3.33
441.727	3.34
441.931	3.24
442.135	3.25
442.339	3.19
442.543	3.09
442.748	3.17
442.952	3.16
443.156	3.13
443.36	3.12
443.564	3.19
443.768	3.34
443.972	3.35
444.176	3.42
444.38	3.49
444.584	3.53
444.788	3.61
444.992	3.5
445.196	3.59
445.4	3.53
445.604	3.5
445.808	3.44
446.012	3.31
446.216	3.24
446.42	3.2
446.624	3.15
446.828	3.12
447.032	3.14
447.235	3.13
447.439	3.02
447.643	3.11
447.847	3.09
448.051	3.15
448.254	3.24
448.458	3.32
448.662	3.3
448.866	3.29
449.069	3.32
449.273	3.26
449.477	3.23
449.681	3.25
449.884	3.21
450.088	3.36
450.292	3.4
450.495	3.32
450.699	3.32
450.902	3.37
451.106	3.34
451.31	3.45
451.513	3.43
451.717	3.47
451.92	3.5
452.124	3.46
452.327	3.34
452.531	3.16
452.734	3.23
452.938	3.17
453.141	3.13
453.345	3.11
453.548	3
453.752	3.01
453.955	2.93
454.158	2.95
454.362	3
454.565	2.98
454.769	3.09
454.972	3.02
455.175	3.01
455.379	3.04
455.582	3.08
455.785	3.05
455.988	3.07
456.192	3.12
456.395	2.99
456.598	3.04
456.801	3.1
457.005	3
457.208	2.98
457.411	3
457.614	3.01
457.817	3.03
458.021	3.02
458.224	3.04
458.427	3.06
458.63	3.08
458.833	2.95
459.036	2.99
459.239	2.96
459.442	3.04
459.645	3
459.848	2.91
460.051	2.91
460.254	2.92
460.457	2.91
460.66	2.91
460.863	2.89
461.066	2.99
461.269	2.94
461.472	3
461.675	2.96
461.878	3.05
462.081	3.11
462.284	3.07
462.486	3
462.689	2.99
462.892	2.84
463.095	2.97
463.298	2.93
463.5	3
463.703	2.99
463.906	3.08
464.109	3.11
464.311	3.15
464.514	3.28
464.717	3.29
464.92	3.38
465.122	3.49
465.325	3.35
465.528	3.3
465.73	3.29
465.933	3.33
466.135	3.16
466.338	3.07
466.541	3.04
466.743	3.05
466.946	3.11
467.148	3.15
467.351	3.09
467.553	3.14
467.756	3.22
467.958	3.15
468.161	3.1
468.363	3.2
468.566	3.28
468.768	3.25
468.971	3.14
469.173	3.13
469.375	2.95
469.578	3.11
469.78	3.18
469.983	3.14
470.185	3.1
470.387	3.15
470.59	3.11
470.792	3.12
470.994	3.17
471.196	3.17
471.399	3.33
471.601	3.48
471.803	3.39
472.005	3.3
472.208	3.28
472.41	3.31
472.612	3.31
472.814	3.23
473.016	3.17
473.218	3.17
473.421	3.25
473.623	3.12
473.825	2.95
474.027	3
474.229	3.07
474.431	3.03
474.633	3.09
474.835	3.04
475.037	3.09
475.239	3.15
475.441	3.22
475.643	3.06
475.845	3.13
476.047	3.18
476.249	3.2
476.451	3.17
476.653	3.15
476.855	3.16
477.057	3.22
477.258	3.16
477.46	2.98
477.662	2.86
477.864	3.05
478.066	3.01
478.268	2.98
478.469	2.96
478.671	3.02
478.873	3.04
479.075	2.95
479.276	2.87
479.478	2.83
479.68	2.95
479.882	2.97
480.083	2.82
480.285	2.82
480.487	2.86
480.688	2.86
480.89	2.81
481.091	2.83
481.293	2.78
481.495	2.75
481.696	2.75
481.898	2.73
482.099	2.74
482.301	2.74
482.502	2.75
482.704	2.77
482.905	2.78
483.107	2.79
483.308	2.77
483.51	2.8
483.711	2.81
483.913	2.83
484.114	2.84
484.315	2.83
484.517	2.87
484.718	2.87
484.92	2.84
485.121	2.81
485.322	2.8
485.524	2.78
485.725	2.8
485.926	2.8
486.127	2.82
486.329	2.86
486.53	2.85
486.731	2.81
486.932	2.8
487.134	2.82
487.335	2.83
487.536	2.84
487.737	2.89
487.938	2.87
488.139	2.87
488.341	2.84
488.542	2.84
488.743	2.87
488.944	2.86
489.145	2.87
489.346	2.9
489.547	2.91
489.748	2.87
489.949	2.87
490.15	2.83
490.351	2.81
490.552	2.79
490.753	2.8
490.954	2.79
491.155	2.77
491.356	2.76
491.557	2.71
491.758	2.68
491.959	2.68
492.159	2.65
492.36	2.71
492.561	2.76
492.762	2.77
492.963	2.75
493.164	2.79
493.364	2.86
493.565	2.86
493.766	2.91
493.967	2.96
494.167	3.02
494.368	3.14
494.569	3.15
494.769	3.12
494.97	3.16
495.171	3.11
495.371	3.02
495.572	3.01
495.773	3
495.973	2.97
496.174	3.04
496.375	3
496.575	2.95
496.776	2.92
496.976	2.96
497.177	2.95
497.377	2.96
497.578	3.06
497.778	3.09
497.979	3.12
498.179	3.11
498.38	3.09
498.58	3.16
498.78	3.11
498.981	3.06
499.181	3.06
499.382	3.06
499.582	3.09
499.782	3.07
499.983	3.09
500.183	3.09
500.383	3.1
500.584	3.14
500.784	3.04
500.984	3.1
501.184	3.13
501.385	3.18
501.585	3.32
501.785	3.35
501.985	3.38
502.185	3.38
502.386	3.4
502.586	3.45
502.786	3.32
502.986	3.42
503.186	3.4
503.386	3.46
503.586	3.57
503.786	3.47
503.987	3.5
504.187	3.64
504.387	3.65
504.587	3.75
504.787	3.78
504.987	3.98
505.187	3.99
505.387	3.99
505.587	3.92
505.786	3.86
505.986	3.93
506.186	3.94
506.386	3.82
506.586	3.86
506.786	3.84
506.986	3.81
507.186	3.75
507.386	3.75
507.585	3.81
507.785	3.9
507.985	3.92
508.185	3.91
508.384	3.94
508.584	3.98
508.784	4.02
508.984	4.06
509.183	4.1
509.383	4.17
509.583	4.25
509.782	4.25
509.982	4.37
510.182	4.45
510.381	4.43
510.581	4.41
510.781	4.47
510.98	4.46
511.18	4.46
511.379	4.53
511.579	4.57
511.778	4.62
511.978	4.66
512.177	4.62
512.377	4.55
512.576	4.7
512.776	4.79
512.975	4.75
513.175	4.82
513.374	4.83
513.573	4.89
513.773	4.89
513.972	4.94
514.172	5.07
514.371	5.11
514.57	5.26
514.77	5.27
514.969	5.32
515.168	5.47
515.367	5.58
515.567	5.7
515.766	5.77
515.965	5.83
516.164	5.91
516.364	6.02
516.563	6.09
516.762	6.15
516.961	6.22
517.16	6.31
517.359	6.37
517.559	6.43
517.758	6.47
517.957	6.48
518.156	6.49
518.355	6.57
518.554	6.65
518.753	6.75
518.952	6.78
519.151	6.81
519.35	6.82
519.549	6.9
519.748	6.99
519.947	7.04
520.146	7.12
520.345	7.23
520.544	7.24
520.743	7.18
520.942	7.22
521.141	7.35
521.339	7.39
521.538	7.5
521.737	7.49
521.936	7.53
522.135	7.62
522.333	7.69
522.532	7.87
522.731	7.96
522.93	8.18
523.129	8.27
523.327	8.42
523.526	8.54
523.725	8.6
523.923	8.71
524.122	8.83
524.321	8.95
524.519	8.97
524.718	8.97
524.917	9.07
525.115	9.06
525.314	9.16
525.512	9.21
525.711	9.31
525.909	9.35
526.108	9.38
526.306	9.38
526.505	9.4
526.703	9.59
526.902	9.69
527.1	9.78
527.299	9.9
527.497	9.98
527.696	10.04
527.894	10.09
528.092	10.17
528.291	10.28
528.489	10.34
528.688	10.41
528.886	10.46
529.084	10.51
529.283	10.55
529.481	10.56
529.679	10.58
529.877	10.64
530.076	10.69
530.274	10.78
530.472	10.8
530.67	10.89
530.869	10.98
531.067	11.04
531.265	11.08
531.463	11.16
531.661	11.32
531.859	11.38
532.057	11.46
532.255	11.57
532.454	11.63
532.652	11.71
532.85	11.76
533.048	11.84
533.246	11.9
533.444	12.04
533.642	12.11
533.84	12.2
534.038	12.32
534.236	12.38
534.434	12.45
534.632	12.55
534.83	12.65
535.027	12.77
535.225	12.8
535.423	12.86
535.621	12.86
535.819	12.93
536.017	12.89
536.215	12.91
536.412	12.96
536.61	13.01
536.808	13.02
537.006	13.03
537.203	13.06
537.401	13.16
537.599	13.21
537.797	13.27
537.994	13.32
538.192	13.45
538.39	13.59
538.587	13.63
538.785	13.68
538.983	13.8
539.18	13.89
539.378	14.06
539.575	14.11
539.773	14.23
539.97	14.39
540.168	14.44
540.366	14.48
540.563	14.54
540.761	14.63
540.958	14.71
541.155	14.74
541.353	14.8
541.55	14.8
541.748	14.86
541.945	14.87
542.143	14.87
542.34	14.91
542.537	14.97
542.735	15.02
542.932	15.05
543.129	15.05
543.327	15.16
543.524	15.24
543.721	15.34
543.919	15.45
544.116	15.57
544.313	15.64
544.51	15.8
544.708	15.89
544.905	15.94
545.102	16
545.299	16.1
545.496	16.09
545.693	16.15
545.891	16.17
546.088	16.15
546.285	16.12
546.482	16.09
546.679	16.06
546.876	16.12
547.073	16.12
547.27	16.18
547.467	16.19
547.664	16.23
547.861	16.24
548.058	16.2
548.255	16.22
548.452	16.22
548.649	16.3
548.846	16.28
549.043	16.15
549.24	16.21
549.437	16.15
549.633	16.24
549.83	16.26
550.027	16.24
550.224	16.22
550.421	16.24
550.618	16.19
550.814	16.22
551.011	16.23
551.208	16.24
551.405	16.26
551.601	16.29
551.798	16.15
551.995	16.04
552.191	16.06
552.388	15.98
552.585	16.01
552.781	16.16
552.978	16.17
553.175	16.27
553.371	16.26
553.568	16.24
553.764	16.21
553.961	16.35
554.157	16.41
554.354	16.41
554.55	16.57
554.747	16.57
554.943	16.6
555.14	16.63
555.336	16.66
555.533	16.71
555.729	16.67
555.926	16.71
556.122	16.65
556.318	16.72
556.515	16.83
556.711	16.82
556.907	16.73
557.104	16.69
557.3	16.68
557.496	16.66
557.693	16.67
557.889	16.78
558.085	16.79
558.281	16.7
558.478	16.54
558.674	16.58
558.87	16.62
559.066	16.75
559.262	16.68
559.459	16.73
559.655	16.57
559.851	16.63
560.047	16.65
560.243	16.75
560.439	16.82
560.635	17.02
560.831	16.93
561.027	16.96
561.223	16.99
561.419	17.02
561.615	17.1
561.811	17.29
562.007	17.29
562.203	17.21
562.399	17.14
562.595	17.19
562.791	17.13
562.987	17.04
563.183	17.06
563.379	16.94
563.575	16.94
563.771	16.84
563.966	16.84
564.162	16.86
564.358	16.8
564.554	16.73
564.75	16.77
564.945	16.84
565.141	16.97
565.337	17
565.533	17.04
565.728	17.02
565.924	16.92
566.12	16.99
566.315	16.96
566.511	17.02
566.707	17.09
566.902	16.99
567.098	16.93
567.293	16.86
567.489	16.71
567.684	16.74
567.88	16.81
568.076	16.91
568.271	16.74
568.467	16.84
568.662	16.86
568.858	16.78
569.053	16.91
569.248	16.86
569.444	16.88
569.639	16.97
569.835	16.98
570.03	16.88
570.225	16.92
570.421	17.04
570.616	16.96
570.812	17.01
571.007	17.16
571.202	17.08
571.397	17.15
571.593	17.19
571.788	17.25
571.983	17.15
572.178	17.31
572.374	17.32
572.569	17.33
572.764	17.29
572.959	17.26
573.154	17.26
573.35	17.33
573.545	17.34
573.74	17.27
573.935	17.24
574.13	17.36
574.325	17.3
574.52	17.31
574.715	17.25
574.91	17.22
575.105	17.32
575.3	17.24
575.495	17.27
575.69	17.28
575.885	17.29
576.08	17.35
576.275	17.29
576.47	17.43
576.665	17.5
576.86	17.68
577.055	17.73
577.25	17.69
577.444	17.87
577.639	17.95
577.834	17.96
578.029	18.03
578.224	17.96
578.418	18.2
578.613	18
578.808	17.93
579.003	17.85
579.197	18
579.392	17.99
579.587	17.99
579.781	17.95
579.976	18
580.171	17.98
580.365	18.15
580.56	18.08
580.755	18.21
580.949	18.29
581.144	18.47
581.338	18.39
581.533	18.47
581.727	18.3
581.922	18.19
582.116	18.26
582.311	18.24
582.505	18.2
582.7	18.17
582.894	18.21
583.089	18.22
583.283	18.1
583.478	18.14
583.672	18.05
583.866	18.1
584.061	18.17
584.255	18.07
584.449	18.25
584.644	18.13
584.838	18.11
585.032	18.08
585.226	18.09
585.421	18.13
585.615	18.09
585.809	18.22
586.003	18.42
586.198	18.46
586.392	18.63
586.586	18.6
586.78	18.69
586.974	18.81
587.168	18.83
587.363	18.82
587.557	18.72
587.751	18.83
587.945	18.74
588.139	18.66
588.333	18.66
588.527	18.56
588.721	18.51
588.915	18.49
589.109	18.29
589.303	18.31
589.497	18.25
589.691	18.21
589.885	18.08
590.079	18.02
590.273	17.91
590.466	17.88
590.66	17.83
590.854	18.03
591.048	18.1
591.242	18.23
591.436	18.23
591.629	18.36
591.823	18.51
592.017	18.61
592.211	18.71
592.404	18.85
592.598	19.09
592.792	19.2
592.986	19.02
593.179	18.89
593.373	18.87
593.567	18.72
593.76	18.68
593.954	18.64
594.147	18.7
594.341	18.67
594.535	18.61
594.728	18.39
594.922	18.34
595.115	18.31
595.309	18.45
595.502	18.54
595.696	18.61
595.889	18.54
596.083	18.49
596.276	18.42
596.47	18.46
596.663	18.46
596.856	18.51
597.05	18.54
597.243	18.58
597.437	18.56
597.63	18.55
597.823	18.66
598.017	18.69
598.21	18.74
598.403	18.78
598.596	18.88
598.79	18.85
598.983	18.89
599.176	18.86
599.369	18.9
599.563	18.93
599.756	18.86
599.949	18.84
600.142	18.72
600.335	18.79
600.528	18.72
600.722	18.59
600.915	18.55
601.108	18.63
601.301	18.69
601.494	18.81
601.687	18.76
601.88	18.68
602.073	18.53
602.266	18.65
602.459	18.53
602.652	18.58
602.845	18.59
603.038	18.67
603.231	18.57
603.424	18.59
603.617	18.48
603.809	18.57
604.002	18.66
604.195	18.76
604.388	18.76
604.581	18.76
604.774	18.81
604.966	18.85
605.159	18.89
605.352	18.89
605.545	18.83
605.737	18.85
605.93	18.81
606.123	18.85
606.316	18.86
606.508	18.9
606.701	19.04
606.894	19.09
607.086	19.14
607.279	19.08
607.471	19.11
607.664	19.35
607.857	19.47
608.049	19.6
608.242	19.63
608.434	19.8
608.627	19.93
608.819	20.26
609.012	20.53
609.204	20.81
609.397	21.24
609.589	21.72
609.782	22.08
609.974	22.5
610.166	22.9
610.359	23.42
610.551	23.89
610.743	24.44
610.936	24.57
611.128	24.76
611.32	24.86
611.513	24.94
611.705	24.78
611.897	24.62
612.09	24.48
612.282	24.32
612.474	24.25
612.666	23.97
612.858	23.63
613.051	23.47
613.243	23.25
613.435	23.11
613.627	22.95
613.819	22.87
614.011	22.88
614.203	22.69
614.395	22.38
614.588	22.13
614.78	22.03
614.972	21.87
615.164	21.52
615.356	21.48
615.548	21.33
615.74	21.06
615.932	20.97
616.124	20.64
616.315	20.51
616.507	20.57
616.699	20.36
616.891	20.19
617.083	20.09
617.275	20.05
617.467	19.71
617.659	19.62
617.85	19.75
618.042	19.75
618.234	19.7
618.426	19.51
618.618	19.42
618.809	19.33
619.001	19.24
619.193	19.13
619.384	19.23
619.576	19.44
619.768	19.46
619.959	19.35
620.151	19.36
620.343	19.45
620.534	19.5
620.726	19.72
620.917	19.7
621.109	19.87
621.301	19.91
621.492	19.91
621.684	20.03
621.875	20.18
622.067	20.11
622.258	20.13
622.45	20.1
622.641	20.39
622.832	20.24
623.024	20.49
623.215	20.31
623.407	20.35
623.598	20.39
623.789	20.22
623.981	20.07
624.172	20.15
624.363	20.08
624.555	20.1
624.746	20.01
624.937	20.02
625.129	19.77
625.32	19.89
625.511	19.8
625.702	19.81
625.893	19.82
626.085	19.8
626.276	19.67
626.467	19.67
626.658	19.65
626.849	19.66
627.04	19.83
627.231	19.96
627.422	19.99
627.614	20.01
627.805	20.14
627.996	20.09
628.187	20.23
628.378	20.34
628.569	20.4
628.76	20.43
628.951	20.47
629.142	20.27
629.332	20.34
629.523	20.44
629.714	20.54
629.905	20.55
630.096	20.72
630.287	20.79
630.478	20.88
630.669	20.74
630.859	20.89
631.05	20.82
631.241	20.77
631.432	20.78
631.623	20.43
631.813	20.25
632.004	20.04
632.195	20.03
632.385	19.89
632.576	19.81
632.767	19.96
632.957	19.66
633.148	19.56
633.339	19.42
633.529	19.06
633.72	19.15
633.91	19.27
634.101	19.12
634.292	19.03
634.482	18.97
634.673	18.97
634.863	18.95
635.054	19.05
635.244	19.02
635.435	19.24
635.625	19.49
635.815	19.37
636.006	19.24
636.196	19.49
636.387	19.38
636.577	19.48
636.767	19.32
636.958	19.04
637.148	18.94
637.338	18.89
637.529	18.75
637.719	18.79
637.909	18.84
638.099	18.99
638.29	18.87
638.48	19.11
638.67	18.85
638.86	18.91
639.05	18.98
639.241	19.05
639.431	19.22
639.621	19.12
639.811	19.01
640.001	19.05
640.191	19.16
640.381	19.34
640.571	19.16
640.761	19.09
640.951	19.17
641.141	19.33
641.331	19.36
641.521	19.36
641.711	19.5
641.901	19.47
642.091	19.54
642.281	19.35
642.471	19.27
642.661	19.18
642.851	19.63
643.041	19.81
643.231	19.83
643.42	19.81
643.61	19.73
643.8	19.79
643.99	19.82
644.18	19.83
644.369	19.94
644.559	20.03
644.749	20.08
644.939	19.78
645.128	19.65
645.318	19.58
645.508	19.53
645.697	19.5
645.887	19.57
646.076	19.48
646.266	19.44
646.456	19.28
646.645	18.99
646.835	19.02
647.024	18.96
647.214	18.87
647.403	18.87
647.593	18.97
647.782	18.98
647.972	18.83
648.161	18.92
648.351	18.99
648.54	19.22
648.73	19.36
648.919	19.45
649.108	19.64
649.298	19.61
649.487	19.62
649.677	19.54
649.866	19.65
650.055	19.71
650.244	19.64
650.434	19.69
650.623	19.42
650.812	19.68
651.002	19.76
651.191	19.87
651.38	19.89
651.569	19.86
651.758	19.75
651.947	19.8
652.137	19.83
652.326	19.93
652.515	19.73
652.704	19.75
652.893	19.49
653.082	19.43
653.271	19.43
653.46	19.49
653.649	19.68
653.838	19.79
654.027	19.57
654.216	19.31
654.405	19.58
654.594	19.66
654.783	19.82
654.972	19.87
655.161	19.79
655.35	19.66
655.539	19.76
655.728	19.61
655.916	19.66
656.105	19.84
656.294	19.91
656.483	19.59
656.672	19.63
656.86	19.39
657.049	19.44
657.238	19.48
657.427	19.44
657.615	19.3
657.804	19.25
657.993	19.4
658.181	19.3
658.37	19.32
658.559	19.29
658.747	19.17
658.936	19.33
659.125	19.25
659.313	19.2
659.502	19.23
659.69	19.36
659.879	19.39
660.067	19.27
660.256	19.31
660.444	19.26
660.633	19.34
660.821	19.56
661.01	19.72
661.198	19.65
661.387	19.65
661.575	19.57
661.763	19.59
661.952	19.43
662.14	19.65
662.328	19.72
662.517	20.03
662.705	20.08
662.893	20.06
663.082	19.83
663.27	20
663.458	19.91
663.646	20.12
663.834	20.07
664.023	20.27
664.211	19.74
664.399	19.47
664.587	19.42
664.775	19.34
664.963	19.04
665.152	19.39
665.34	19.34
665.528	19.55
665.716	19.37
665.904	19.41
666.092	19.57
666.28	19.76
666.468	19.82
666.656	19.67
666.844	19.75
667.032	19.93
667.22	19.64
667.408	19.58
667.596	19.5
667.784	19.51
667.971	19.33
668.159	19.34
668.347	19.45
668.535	19.71
668.723	19.71
668.911	19.75
669.098	19.59
669.286	19.57
669.474	19.76
669.662	19.64
669.849	19.66
670.037	19.94
670.225	19.75
670.413	19.64
670.6	19.48
670.788	19.86
670.976	19.56
671.163	19.74
671.351	19.81
671.538	19.59
671.726	19.76
671.913	19.92
672.101	19.78
672.289	20.06
672.476	20.2
672.664	20.23
672.851	19.85
673.039	19.93
673.226	19.78
673.413	19.74
673.601	20.05
673.788	20.04
673.976	19.8
674.163	19.66
674.35	19.58
674.538	19.49
674.725	19.62
674.912	19.45
675.1	19.32
675.287	19.46
675.474	19.45
675.662	19.2
675.849	19.33
676.036	19.3
676.223	19.55
676.411	19.67
676.598	19.66
676.785	19.67
676.972	19.97
677.159	19.96
677.346	20.11
677.533	19.82
677.721	19.52
677.908	19.34
678.095	19.29
678.282	19.31
678.469	19.01
678.656	19.23
678.843	19.27
679.03	19.37
679.217	19.6
679.404	19.44
679.591	19.73
679.778	19.94
679.964	19.89
680.151	20.04
680.338	19.81
680.525	19.56
680.712	19.31
680.899	19.28
681.086	19.09
681.272	19
681.459	19.19
681.646	19.2
681.833	19.15
682.02	19.37
682.206	19.36
682.393	19.44
682.58	19.77
682.766	19.79
682.953	19.67
683.14	19.87
683.326	19.91
683.513	19.68
683.7	19.66
683.886	19.87
684.073	19.77
684.259	19.74
684.446	19.65
684.632	19.68
684.819	19.59
685.005	19.72
685.192	19.68
685.378	19.58
685.565	19.61
685.751	19.45
685.938	19.49
686.124	19.61
686.31	19.61
686.497	19.85
686.683	19.98
686.87	20.23
687.056	20.37
687.242	20.34
687.429	20.52
687.615	20.53
687.801	20.52
687.987	20.39
688.174	20.37
688.36	20.38
688.546	20.13
688.732	20.45
688.918	20.3
689.105	19.9
689.291	19.85
689.477	19.85
689.663	20.16
689.849	20.46
690.035	20.29
690.221	20.36
690.407	20.34
690.593	20.72
690.779	20.43
690.965	20.64
691.151	21.03
691.337	20.68
691.523	20.68
691.709	20.28
691.895	20.13
692.081	20.34
692.267	20.22
692.453	20.59
692.639	20.65
692.825	20.65
693.011	20.75
693.196	20.81
693.382	21
693.568	21.23
693.754	21.55
693.94	21.75
694.125	21.84
694.311	21.99
694.497	21.72
694.682	21.36
694.868	20.78
695.054	21.11
695.239	20.95
695.425	21.09
695.611	20.72
695.796	20.42
695.982	20.24
696.168	20.2
696.353	20.04
696.539	19.61
696.724	19.59
696.91	19.9
697.095	19.51
697.281	19.46
697.466	19.48
697.652	19.78
697.837	19.93
698.023	19.97
698.208	19.89
698.393	19.73
698.579	20.15
698.764	20.15
698.949	20.03
699.135	19.97
699.32	20.04
699.505	20.14
699.691	19.99
699.876	19.87
700.061	20.01
700.246	19.87
700.432	20.07
700.617	20.14
700.802	20.11
700.987	20.24
701.172	20.3
701.358	20.3
701.543	20.01
701.728	19.98
701.913	20.1
702.098	20.01
702.283	20.22
702.468	20.31
702.653	20
702.838	20.19
703.023	20.36
703.208	20.65
703.393	20.65
703.578	20.61
703.763	20.54
703.948	20.61
704.133	20.67
704.318	20.81
704.503	20.79
704.688	20.96
704.873	21.1
705.057	21.41
705.242	21.07
705.427	21.28
705.612	21.3
705.797	21.59
705.981	21.82
706.166	21.64
706.351	21.52
706.536	21.86
706.72	21.43
706.905	21.56
707.09	21.26
707.274	21.63
707.459	21.67
707.644	21.95
707.828	21.86
708.013	21.45
708.197	21.6
708.382	22.22
708.567	22.01
708.751	22.44
708.936	22.22
709.12	22.3
709.305	21.96
709.489	21.55
709.673	21.54
709.858	21.44
710.042	21.68
710.227	21.56
710.411	21.31
710.596	21.33
710.78	21.4
710.964	21.22
711.149	21.15
711.333	21.55
711.517	21.94
711.702	21.78
711.886	21.57
712.07	21.58
712.254	22.09
712.438	21.91
712.623	21.78
712.807	21.48
712.991	21.73
713.175	21.69
713.359	21.46
713.544	20.83
713.728	20.85
713.912	21.34
714.096	20.86
714.28	20.47
714.464	20.45
714.648	20.54
714.832	20.97
715.016	20.85
715.2	20.82
715.384	20.9
715.568	21.21
715.752	21.29
715.936	20.89
716.12	21.36
716.304	21.22
716.488	21.18
716.671	20.78
716.855	20.55
717.039	20.34
717.223	20.77
717.407	20.76
717.59	20.69
717.774	20.54
717.958	20.78
718.142	20.22
718.325	20.1
718.509	20.35
718.693	20.51
718.877	20.32
719.06	20.35
719.244	19.51
719.428	18.98
719.611	19.59
719.795	19.79
719.978	19.82
720.162	20.37
720.345	20.63
720.529	20.48
720.713	20.77
720.896	20.64
721.08	21.05
721.263	21.47
721.446	22.13
721.63	21.48
721.813	21.54
721.997	20.97
722.18	20.5
722.364	20.2
722.547	20.03
722.73	19.67
722.914	19.63
723.097	19.44
723.28	19.41
723.464	19.51
723.647	20.05
723.83	20.14
724.013	20.99
724.197	20.99
724.38	21.52
724.563	21.47
724.746	21.94
724.929	22.1
725.112	21.63
725.296	21.39
725.479	21.16
725.662	21.4
725.845	20.99
726.028	20.68
726.211	21.14
726.394	21.05
726.577	21
726.76	20.8
726.943	20.69
727.126	20.74
727.309	21.07
727.492	20.9
727.675	20.04
727.858	20.47
728.041	20.33
728.224	20.19
728.407	20.02
728.589	20
728.772	20
728.955	20.44
729.138	20.52
729.321	20.5
729.503	20.63
729.686	20.88
729.869	20.79
730.052	20.87
730.234	21.09
730.417	21.31
730.6	21.46
730.782	21.45
730.965	21.21
731.148	21.62
731.33	21.52
731.513	21.02
731.695	20.86
731.878	20.76
732.061	20.89
732.243	20.68
732.426	20.48
732.608	20.58
732.791	20.3
732.973	20.45
733.156	20.35
733.338	20.35
733.52	20.83
733.703	20.7
733.885	20.82
734.068	20.75
734.25	21.27
734.432	21.4
734.615	21.59
734.797	21.78
734.979	21.66
735.162	21.73
735.344	21.76
735.526	21.72
735.708	22.06
735.891	21.68
736.073	22.24
736.255	21.65
736.437	21.73
736.619	21.66
736.802	21.8
736.984	21.2
737.166	21.44
737.348	21.31
737.53	21.9
737.712	21.76
737.894	21.89
738.076	21.16
738.258	21.6
738.44	21.17
738.622	21.11
738.804	20.84
738.986	22.22
739.168	22.27
739.35	22.75
739.532	21.56
739.714	21.49
739.896	21.76
740.078	21.58
740.259	20.95
740.441	21.39
740.623	21.28
740.805	21.57
740.987	20.66
741.168	20.25
741.35	19.97
741.532	20.77
741.714	21.16
741.895	21.22
742.077	21.92
742.259	21.72
742.44	21.29
742.622	20.82
742.804	20.78
742.985	21.3
743.167	21.15
743.348	20.88
743.53	20.64
743.711	20.65
743.893	20.04
744.075	19.31
744.256	19.93
744.438	20.47
744.619	20.78
744.8	21.18
744.982	21.05
745.163	21.2
745.345	21.38
745.526	21.81
745.707	21.44
745.889	22.22
746.07	22.55
746.252	22.78
746.433	22.34
746.614	22.44
746.795	22.22
746.977	22.47
747.158	22.14
747.339	22.08
747.52	22
747.702	22.3
747.883	22.37
748.064	23.09
748.245	22.5
748.426	23.37
748.607	23.49
748.788	23.38
748.97	22.46
749.151	23.11
749.332	22.86
749.513	22.62
749.694	22.51
749.875	22.35
750.056	22.02
750.237	22.56
750.418	21.49
750.599	21.29
750.78	21.1
750.96	21.54
751.141	21.28
751.322	21.33
751.503	21.27
751.684	21.07
751.865	21.07
752.046	21.01
752.226	21.32
752.407	21.41
752.588	21.4
752.769	21.05
752.949	21.21
753.13	21.23
753.311	21.69
753.492	21.89
753.672	22.65
753.853	22.13
754.034	21.9
754.214	21.75
754.395	22.25
754.575	22.7
754.756	23.05
754.937	23.4
755.117	23.54
755.298	24.01
755.478	23.75
755.659	23.67
755.839	24.08
756.02	23.72
756.2	23.43
756.381	23.39
756.561	22.58
756.741	22.67
756.922	22.2
757.102	22.45
757.283	22.28
757.463	22.32
757.643	21.65
757.823	21.8
758.004	22.19
758.184	22.25
758.364	21.96
758.545	22.65
758.725	22.79
758.905	22.62
759.085	22.4
759.265	21.81
759.446	21.93
759.626	21.66
759.806	21.33
759.986	21.46
760.166	21.82
760.346	21.61
760.526	21.67
760.706	21.26
760.886	21.05
761.066	20.98
761.246	21.04
761.426	20.78
761.606	21.24
761.786	21.03
761.966	20.54
762.146	20.28
762.326	20.4
762.506	19.79
762.686	20.07
762.866	19.77
763.046	19.62
763.225	19.85
763.405	19.88
763.585	20.37
763.765	20.59
763.945	20.45
764.124	20.04
764.304	20.35
764.484	20.43
764.664	20.49
764.843	20.8
765.023	20.96
765.203	20.78
765.382	20.97
765.562	20.22
765.741	20.08
765.921	20.59
766.101	21.32
766.28	21.2
766.46	21.27
766.639	21.04
766.819	21.24
766.998	20.91
767.178	21.08
767.357	21.58
767.537	21.82
767.716	22.01
767.896	22.28
768.075	21.54
768.254	20.95
768.434	21.29
768.613	22.26
768.792	22.66
768.972	23.13
769.151	23.35
769.33	22.6
769.51	22.25
769.689	22.23
769.868	21.96
770.047	22.34
770.226	22.76
770.406	22.22
770.585	21.85
770.764	21.42
770.943	21.8
771.122	22.64
771.301	22.77
771.48	23.07
771.66	23.08
771.839	23.83
772.018	24.52
772.197	24.57
772.376	25.44
772.555	24.7
772.734	25
772.913	24.37
773.092	23.74
773.271	23.85
773.449	24.53
773.628	25.57
773.807	24.73
773.986	23.65
774.165	23.56
774.344	23.73
774.523	24.04
774.701	23.97
774.88	24.19
775.059	24.28
775.238	24.58
775.417	24.14
775.595	23.27
775.774	23.05
775.953	23.62
776.131	22.92
776.31	21.81
776.489	22.3
776.667	22.75
776.846	22.87
777.025	22.08
777.203	21.77
777.382	22.08
777.56	22.09
777.739	22.77
777.917	23.07
778.096	23.89
778.274	24.1
778.453	24.09
778.631	24.04
778.81	23.38
778.988	23.72
779.166	23.13
779.345	22.58
779.523	21.99
779.702	21.55
779.88	21.38
780.058	20.86
780.237	20.6
780.415	19.73
780.593	19.21
780.771	19.65
780.95	20.4
781.128	21.63
781.306	21.51
781.484	22.48
781.662	22.64
781.841	23.03
782.019	23.18
782.197	22.53
782.375	22.5
782.553	22.64
782.731	22.37
782.909	21.61
783.087	20.73
783.265	22.34
783.443	22.3
783.621	22.58
783.799	21.03
783.977	21.21
784.155	21.94
784.333	23.37
784.511	22.57
784.689	22.14
784.867	22.84
785.045	24.01
785.223	22.63
785.4	21.5
785.578	21.41
785.756	23.16
785.934	22.94
786.112	23.43
786.289	22.69
786.467	23.72
786.645	24.55
786.823	24.25
787	24.02
787.178	24.23
787.356	25.07
787.533	24.01
787.711	22.74
787.889	22.69
788.066	22.69
788.244	21.77
788.421	20.95
788.599	21.47
788.776	21.1
788.954	20.81
789.131	20.03
789.309	19.45
789.486	20.86
789.664	21.52
789.841	21.36
790.019	21.49
790.196	22.07
790.373	23.22
790.551	22.82
790.728	22.79
790.906	23
791.083	24.77
791.26	25.23
791.437	24.66
791.615	24.94
791.792	24.4
791.969	25.2
792.146	25.31
792.324	24.48
792.501	24.81
792.678	24.42
792.855	23.15
793.032	22.41
793.209	21.61
793.387	21.82
793.564	21.14
793.741	22.44
793.918	21.02
794.095	21.09
794.272	21.58
794.449	21.8
794.626	22.81
794.803	23.75
794.98	22.8
795.157	23.88
795.334	22.75
795.511	23.69
795.688	24.44
795.864	23.92
796.041	23.22
796.218	22.42
796.395	22.33
796.572	21.74
796.749	21.69
796.925	21.48
797.102	20.45
797.279	20.65
797.456	19.17
797.632	19.33
797.809	20.25
797.986	20.71
798.162	21.13
798.339	20.73
798.516	22.14
798.692	21.52
798.869	21.51
799.046	22.07
799.222	23.11
799.399	23.16
799.575	22.06
799.752	23.08
799.928	23.34
800.105	23.17
800.281	22.63
800.458	21.08
800.634	21.31
800.811	22.42
800.987	22.09
801.163	21.23
801.34	22.98
801.516	23.48
801.692	22.11
801.869	22.08
802.045	23.26
802.221	23.64
802.398	23.01
802.574	23.79
802.75	22.69
802.926	22.54
803.103	22
803.279	21.43
803.455	21.23
803.631	21.65
803.807	21.42
803.983	21
804.16	20.1
804.336	22.17
804.512	20.71
804.688	21.22
804.864	22.09
805.04	22.49
805.216	22.08
805.392	20.96
805.568	21.3
805.744	20.79
805.92	20.44
806.096	22.45
806.272	22.62
806.448	23.45
806.623	23.78
806.799	23.77
806.975	23.57
807.151	24.51
807.327	25.29
807.503	24.92
807.678	25.44
807.854	25.94
808.03	26.09
808.206	24.55
808.381	25.28
808.557	26.7
808.733	26.97
808.908	27.22
809.084	26.34
809.26	25.75
809.435	27.14
809.611	27.84
809.787	27.43
809.962	26.97
810.138	28.58
810.313	27.85
810.489	26.1
810.664	25.62
810.84	27.31
811.015	27.18
811.191	27.48
811.366	26.89
811.542	26.47
811.717	24.64
811.892	24.21
812.068	23.18
812.243	23.98
812.419	24.58
812.594	23.54
812.769	20.95
812.944	19.97
813.12	19.52
813.295	18.08
813.47	17.65
813.645	18.8
813.821	18.95
813.996	18.14
814.171	17.64
814.346	16.88
814.521	18.5
814.697	19.48
814.872	20.3
815.047	20.15
815.222	20.31
815.397	21.28
815.572	22.05
815.747	21.22
815.922	21.49
816.097	22.09
816.272	23.18
816.447	22.94
816.622	24.62
816.797	24.4
816.972	23.23
817.147	22.73
817.322	22.44
817.496	21.97
817.671	22.39
817.846	22.87
818.021	21
818.196	20.93
818.371	19.98
818.545	18
818.72	18.58
818.895	19.6
819.069	20.05
819.244	19.47
819.419	19.64
819.594	19.43
819.768	18.63
819.943	19.84
820.117	20.23
820.292	20.15
820.467	20.32
820.641	20.22
820.816	20.83
820.99	20.28
821.165	20.29
821.339	20.02
821.514	19.75
821.688	19.83
821.863	19.59
822.037	19.35
822.212	19.43
822.386	19.41
822.56	19.33
822.735	19.2
822.909	19.36
823.084	19.28
823.258	19.23
823.432	19.27
823.606	19.3
823.781	19.05
823.955	18.94
824.129	18.85
824.303	18.71
824.478	18.5
824.652	18.46
824.826	18.55
825	18.61
825.174	18.75
825.348	18.55
825.523	18.6
825.697	19.37
825.871	19.64
826.045	19.92
826.219	20.87
826.393	21.01
826.567	20.66
826.741	20.24
826.915	20.22
827.089	20.19
827.263	20.31
827.437	19.89
827.611	19.37
827.784	19.38
827.958	19.09
828.132	18.16
828.306	18.21
828.48	18.37
828.654	18.7
828.827	18.36
829.001	17.58
829.175	17.92
829.349	18.77
829.522	19.56
829.696	18.39
829.87	18.57
830.044	18.82
830.217	18.94
830.391	19.52
830.565	19.22
830.738	19.4
830.912	21.55
831.085	22.05
831.259	20.88
831.432	20.82
831.606	22.51
831.779	22.91
831.953	23
832.126	22.18
832.3	21.24
832.473	21.21
832.647	21.06
832.82	19.72
832.994	19.44
833.167	19.73
833.34	19.01
833.514	19.04
833.687	19.55
833.86	19.5
834.034	20.62
834.207	21.1
834.38	21.5
834.553	21.71
834.727	21.92
834.9	21.72
835.073	21.9
835.246	22.06
835.419	22.45
835.593	21.41
835.766	22.32
835.939	21.92
836.112	21.13
836.285	20.23
836.458	20.16
836.631	20.76
836.804	21.6
836.977	20.08
837.15	20.62
837.323	20.77
837.496	22.04
837.669	21.07
837.842	20.55
838.015	22.62
838.188	26.29
838.361	26.82
838.533	26.92
838.706	28.41
838.879	30.5
839.052	28.16
839.225	27.41
839.398	27.36
839.57	26.97
839.743	26.04
839.916	23.69
840.088	21.22
840.261	20.77
840.434	21.46
840.607	20.05
840.779	21.2
840.952	23.68
841.124	24.38
841.297	25.2
841.47	26.06
841.642	28.49
841.815	29.37
841.987	29.95
842.16	32.17
842.332	31.5
842.505	31.92
842.677	30.11
842.85	29.65
843.022	28.81
843.194	28.79
843.367	27.58
843.539	25.84
843.712	27.51
843.884	26.65
844.056	25
844.229	26.42
844.401	25.64
844.573	25.92
844.745	24.53
844.918	21.49
845.09	20.72
845.262	21.29
845.434	20.08
845.606	17.1
845.779	18.85
845.951	19.26
846.123	18.2
846.295	18.47
846.467	19.85
846.639	20.5
846.811	24.91
846.983	22.64
847.155	22.17
847.327	23.81
847.499	25.68
847.671	27.03
847.843	26.85
848.015	27.54
848.187	27.63
848.359	27.72
848.531	29.2
848.703	30.84
848.875	32.48
849.047	30.97
849.218	30.56
849.39	31.16
849.562	31.16
849.734	30.85
849.905	30.67
850.077	30.67
850.249	32.02
850.421	31.64
850.592	31.46
850.764	30.92
850.936	34.51
851.107	31.02
851.279	28.04
851.451	22.64
851.622	24.83
851.794	21.11
851.965	20.33
852.137	20.23
852.308	21.12
852.48	19.05
852.651	18.1
852.823	20.27
852.994	23.31
853.166	23.58
853.337	27.09
853.509	23.14
853.68	25.02
853.851	26.92
854.023	23.48
854.194	20.99
854.365	24.64
854.537	25.57
854.708	21.26
854.879	22.22
855.05	22
855.222	22.71
855.393	27.82
855.564	28.83
855.735	29.55
855.906	35.97
856.078	38.02
856.249	32.73
856.42	35.04
856.591	37.15
856.762	37.26
856.933	38.81
857.104	40.07
857.275	39.23
857.446	40.33
857.617	36.78
857.788	32.89
857.959	29.14
858.13	28.7
858.301	27.06
858.472	24.81
858.643	24.32
858.814	27.45
858.985	25.1
859.155	23.03
859.326	24.84
859.497	24.04
859.668	24.66
859.839	26.65
860.009	23.42
860.18	26.25
860.351	29.16
860.522	27.54
860.692	20.83
860.863	23.44
861.034	22.52
861.204	20.27
861.375	25.4
861.546	25.13
861.716	27.18
861.887	31.91
862.057	29.86
862.228	28.79
862.398	29.47
862.569	34.5
862.739	32.07
862.91	34.25
863.08	32.99
863.251	27.19
863.421	26.8
863.592	28.64
863.762	25.5
863.932	25.1
864.103	26
864.273	24.4
864.443	24.52
864.614	26.82
864.784	25.47
864.954	27.18
865.125	30.95
865.295	34.4
865.465	28.72
865.635	34.42
865.805	32.64
865.976	34.3
866.146	37.36
866.316	35.44
866.486	31.16
866.656	31.22
866.826	28.16
866.996	28.92
867.166	27.76
867.336	29.26
867.506	23.55
867.676	26.41
867.846	19.35
868.016	18.94
868.186	18.92
868.356	24.53
868.526	23.29
868.696	26.79
868.866	24.53
869.036	19.08
869.206	22.97
869.376	23.1
869.545	20.94
869.715	28.7
869.885	30.03
870.055	31.04
870.224	30.07
870.394	34.03
870.564	32.7
870.734	33.77
870.903	40.15
871.073	31.97
871.243	36.01
871.412	41.17
871.582	37.87
871.751	36.25
871.921	35.83
872.091	31.75
872.26	27.07
872.43	27.98
872.599	25.31
872.769	20.01
872.938	26.71
873.108	23.89
873.277	19.31
873.446	19.42
873.616	20.87
873.785	18.79
873.955	20.88
874.124	20.29
874.293	21.46
874.463	23.06
874.632	25.36
874.801	22.47
874.971	23.58
875.14	24.65
875.309	26.53
875.478	25.12
875.647	28.1
875.817	28.05
875.986	31.09
876.155	33.42
876.324	35.24
876.493	36.31
876.662	33.43
876.831	32.35
877	30.77
877.17	27.02
877.339	29.39
877.508	24.09
877.677	23.29
877.846	19.64
878.015	11.89
878.184	14.15
878.352	13.33
878.521	16.68
878.69	16.77
878.859	20.58
879.028	21.58
879.197	20.38
879.366	24.03
879.534	24.87
879.703	25.84
879.872	27.92
880.041	28.01
880.21	24.73
880.378	24.57
880.547	24.26
880.716	22.78
880.884	23.08
881.053	22.52
881.222	22.47
881.39	22.26
881.559	22.29
881.727	21.54
881.896	20.99
882.065	20.96
882.233	21.17
882.402	20.76
882.57	20.88
882.739	20.71
882.907	20.86
883.076	20.04
883.244	20.11
883.412	19.89
883.581	20.24
883.749	20.36
883.918	20.46
884.086	19.31
884.254	20.23
884.423	19.35
884.591	19.07
884.759	18.57
884.927	18.8
885.096	18.02
885.264	18.97
885.432	18.76
885.6	17.81
885.769	18.95
885.937	21.65
886.105	21.82
886.273	24.54
886.441	23.78
886.609	22.64
886.777	25
886.945	25.9
887.113	26.34
887.281	25.65
887.449	25.02
887.617	24.27
887.785	22.64
887.953	20.03
888.121	17.17
888.289	18.07
888.457	18.88
888.625	15.82
888.793	16.26
888.961	13.84
889.129	16.58
889.296	18.11
889.464	18.59
889.632	19.31
889.8	20.01
889.967	22.7
890.135	23.25
