Data from 2938714__Reflection_03.txt Node
Date: Tue Mar 17 19:11:28 EDT 2015
User: robert
Spectrometer: USB4E03002
Autoset integration time: false
Trigger mode: 4
Integration Time (sec): 1.000000E-1
Scans to average: 10
Electric dark correction enabled: false
Nonlinearity correction enabled: false
Boxcar width: 5
Stray light correction enabled: false
XAxis mode: Wavelengths
Stop averaging: false
Number of Pixels in Spectrum: 3648
>>>>>Begin Spectral Data<<<<<
177.575	268.75
177.794	213.84
178.014	232.42
178.233	446.7
178.452	498.74
178.672	750.31
178.891	1561.73
179.11	2127.87
179.33	2343.33
179.549	-1210.89
179.768	-1789.06
179.987	-312.06
180.207	-232.22
180.426	-202.21
180.645	-433.86
180.864	-388.54
181.084	-391.47
181.303	-611.63
181.522	-413.96
181.741	-254.91
181.96	-413.24
182.179	-416.26
182.398	-607.21
182.618	-660.29
182.837	-733.69
183.056	-516
183.275	-409.4
183.494	-1298.2
183.713	-872.05
183.932	-808.43
184.151	-859.24
184.37	-1244.04
184.589	-2490.91
184.808	2159.32
185.027	-1110.91
185.246	-1071.54
185.465	-1295.58
185.684	-1333.64
185.903	-416.21
186.122	-383.68
186.341	-367.01
186.56	-1598
186.779	-659.92
186.998	-456.43
187.216	-470.57
187.435	-892.57
187.654	-865.41
187.873	-647.3
188.092	-1442.31
188.311	1772.62
188.53	1526.04
188.748	3489.13
188.967	-618.7
189.186	-822.09
189.405	-1585.87
189.623	-1103.05
189.842	-1149.59
190.061	-409.03
190.28	-701.08
190.498	-474.65
190.717	-365.85
190.936	-335.19
191.154	-756.12
191.373	-1928
191.592	-2641.03
191.81	2587.8
192.029	1128.41
192.248	-2623.53
192.466	1375
192.685	-4935
192.904	3366.67
193.122	503.06
193.341	940.91
193.559	481.86
193.778	733.97
193.996	400.41
194.215	361.33
194.433	348.51
194.652	258.14
194.87	225.19
195.089	212.44
195.307	171.95
195.526	279.67
195.744	294.41
195.963	345.9
196.181	299.46
196.399	378.21
196.618	559.85
196.836	810.17
197.055	14925
197.273	1757.14
197.491	22050
197.71	-398.08
197.928	-127600
198.146	797.33
198.365	-2945.95
198.583	15714.29
198.801	1622.73
199.019	2166.67
199.238	2862.5
199.456	548.04
199.674	463.11
199.892	396.79
200.111	178.21
200.329	518.31
200.547	1021.05
200.765	382.61
200.983	1715
201.202	-2381.25
201.42	4288.89
201.638	683.2
201.856	-3162.5
202.074	723.89
202.292	389.53
202.51	1025.89
202.728	355.16
202.946	322.94
203.165	409.04
203.383	313.18
203.601	239.82
203.819	253.73
204.037	310.67
204.255	243.07
204.473	299.67
204.691	375.11
204.909	364.39
205.127	361.92
205.345	375.89
205.562	270.64
205.78	330.49
205.998	425.42
206.216	436.82
206.434	319.13
206.652	363.66
206.87	705.36
207.088	402.93
207.306	447.91
207.523	7400
207.741	2050.82
207.959	3770.27
208.177	730.54
208.395	589.19
208.612	476.92
208.83	1704.44
209.048	-4341.18
209.266	4732.26
209.483	-5050
209.701	1408.11
209.919	370.02
210.136	330.56
210.354	336.93
210.572	405.92
210.79	407.98
211.007	573.57
211.225	274.84
211.442	259.38
211.66	219.37
211.878	236.94
212.095	123.48
212.313	147.32
212.53	201.43
212.748	166.04
212.966	118.24
213.183	126.67
213.401	127.53
213.618	160.91
213.836	147.49
214.053	157.63
214.271	165.71
214.488	335.53
214.705	286.09
214.923	276.07
215.14	315.7
215.358	476.78
215.575	442.81
215.793	1620.97
216.01	700
216.227	366.02
216.445	311.95
216.662	238.58
216.879	221.67
217.097	248.83
217.314	224.64
217.531	178.96
217.749	169.08
217.966	142.16
218.183	123.93
218.4	117.53
218.618	108.88
218.835	108.8
219.052	105.54
219.269	97.42
219.487	97.05
219.704	96.41
219.921	100.45
220.138	94.21
220.355	110.38
220.572	106.19
220.79	94.1
221.007	89.75
221.224	81.25
221.441	85.51
221.658	87.2
221.875	77.53
222.092	76.89
222.309	68.08
222.526	70.6
222.743	62.5
222.96	60.25
223.177	63.57
223.394	57.39
223.611	57.34
223.828	54.52
224.045	51.25
224.262	41.8
224.479	40.42
224.696	42.69
224.913	40.05
225.13	42.53
225.347	35.92
225.564	28.57
225.781	27.94
225.997	25.47
226.214	20.41
226.431	18.78
226.648	18.65
226.865	15.54
227.082	13.26
227.298	12.95
227.515	11.12
227.732	10.99
227.949	11.72
228.165	11.82
228.382	10.85
228.599	10.59
228.816	10.59
229.032	10.66
229.249	10.7
229.466	9.41
229.682	9.19
229.899	8.78
230.116	9.04
230.332	8.34
230.549	8.49
230.765	8.93
230.982	9.41
231.199	10.15
231.415	11.32
231.632	11.56
231.848	12.69
232.065	12.33
232.281	13.1
232.498	12.32
232.714	14.02
232.931	15.96
233.147	14.46
233.364	14.52
233.58	14.9
233.797	15.34
234.013	14.3
234.23	15.29
234.446	15.66
234.662	13.6
234.879	14.84
235.095	12.76
235.312	9.74
235.528	10.46
235.744	11.23
235.961	11.55
236.177	9.76
236.393	11.4
236.61	11.66
236.826	13.01
237.042	15.77
237.258	15.08
237.475	16.75
237.691	18
237.907	17.06
238.123	15.87
238.339	15.94
238.556	17.48
238.772	16.83
238.988	17.95
239.204	16.97
239.42	17.06
239.636	15.74
239.853	15.15
240.069	14.55
240.285	15.77
240.501	14.52
240.717	12.44
240.933	11.83
241.149	11.4
241.365	9.9
241.581	9.64
241.797	9.06
242.013	9.22
242.229	9.15
242.445	8.93
242.661	8.02
242.877	8.3
243.093	9
243.309	9.15
243.525	9.53
243.741	10.07
243.957	9.93
244.173	9.99
244.388	10.38
244.604	10.33
244.82	10.29
245.036	9.96
245.252	10.11
245.468	9.4
245.683	8.19
245.899	7.94
246.115	7.26
246.331	7.13
246.547	6.96
246.762	6.61
246.978	6.37
247.194	6.64
247.409	6.46
247.625	6.2
247.841	6.13
248.057	6.37
248.272	6.43
248.488	6.76
248.703	6.91
248.919	7.16
249.135	7.6
249.35	7.99
249.566	7.67
249.782	8.62
249.997	9.27
250.213	9.44
250.428	9.88
250.644	8.84
250.859	8.84
251.075	8.61
251.29	8.13
251.506	8.2
251.721	8.12
251.937	7.95
252.152	7.48
252.368	6.97
252.583	6.76
252.798	5.98
253.014	6.46
253.229	6.48
253.445	6.18
253.66	6.94
253.875	6.18
254.091	5.85
254.306	6.36
254.521	6.82
254.737	7
254.952	7.5
255.167	8.27
255.383	8.38
255.598	7.87
255.813	8.56
256.028	7.59
256.244	7.29
256.459	7.48
256.674	6.26
256.889	6.23
257.104	5.83
257.32	6.03
257.535	5.55
257.75	5.51
257.965	5.29
258.18	5.49
258.395	5.64
258.61	5.54
258.826	5.2
259.041	5.09
259.256	5.06
259.471	4.96
259.686	4.85
259.901	4.67
260.116	4.59
260.331	4.7
260.546	4.4
260.761	4.5
260.976	4.6
261.191	4.73
261.406	5.29
261.621	5.45
261.836	5.65
262.05	5.66
262.265	6.14
262.48	6.37
262.695	6.47
262.91	6.79
263.125	6.18
263.34	6.4
263.555	6.23
263.769	6.33
263.984	5.58
264.199	5.67
264.414	5.27
264.629	5.49
264.843	5.43
265.058	5.38
265.273	5.19
265.488	5.35
265.702	4.98
265.917	5.46
266.132	5.01
266.346	5.05
266.561	5.24
266.776	5.77
266.99	5.67
267.205	5.7
267.42	5.63
267.634	5.77
267.849	5.9
268.063	6.37
268.278	6.24
268.492	6.42
268.707	6.49
268.922	6.23
269.136	5.88
269.351	6
269.565	6.37
269.78	6.37
269.994	6.03
270.209	5.94
270.423	5.46
270.637	5.54
270.852	5.12
271.066	5.29
271.281	5.67
271.495	5.45
271.709	5.42
271.924	4.75
272.138	5.04
272.353	5.15
272.567	4.93
272.781	4.85
272.996	4.49
273.21	4.89
273.424	4.64
273.638	4.19
273.853	4.25
274.067	4.07
274.281	4.32
274.495	4.2
274.71	3.98
274.924	4.46
275.138	4.64
275.352	4.9
275.566	4.73
275.781	5.18
275.995	5.12
276.209	5.35
276.423	5.12
276.637	5.3
276.851	5
277.065	5.36
277.279	5.04
277.493	5.01
277.707	5.1
277.921	5.24
278.135	5.09
278.349	5.27
278.563	4.9
278.777	4.93
278.991	4.72
279.205	4.66
279.419	4.64
279.633	4.65
279.847	4.64
280.061	4.21
280.275	4.11
280.489	4.29
280.703	4.43
280.917	4.73
281.131	4.91
281.344	4.79
281.558	4.91
281.772	4.7
281.986	4.58
282.2	4.26
282.414	4.84
282.627	4.58
282.841	4.56
283.055	4.32
283.269	4.37
283.482	4.46
283.696	4.6
283.91	4.44
284.123	4.52
284.337	4.61
284.551	4.72
284.764	4.41
284.978	4.3
285.192	4.04
285.405	4.2
285.619	4.17
285.833	4.02
286.046	4.1
286.26	4.14
286.473	4.11
286.687	4.09
286.9	3.94
287.114	3.92
287.327	4.03
287.541	3.96
287.754	4.15
287.968	4.45
288.181	4.72
288.395	4.87
288.608	5.07
288.822	5.14
289.035	5.32
289.248	5.6
289.462	5.36
289.675	5.34
289.889	5.53
290.102	5.18
290.315	4.85
290.529	4.64
290.742	4.33
290.955	4.45
291.169	4.42
291.382	4.34
291.595	4.47
291.808	4.53
292.022	4.91
292.235	5.17
292.448	5.37
292.661	5.35
292.875	5.38
293.088	5.4
293.301	5.63
293.514	5.8
293.727	5.61
293.94	5.5
294.153	5.41
294.367	4.91
294.58	4.7
294.793	4.66
295.006	4.7
295.219	4.66
295.432	4.61
295.645	4.27
295.858	4.08
296.071	4.21
296.284	4.43
296.497	4.58
296.71	4.58
296.923	4.42
297.136	4.2
297.349	4.09
297.562	4.08
297.775	4.17
297.988	3.98
298.201	4.26
298.414	4.44
298.626	4.34
298.839	4.34
299.052	4.86
299.265	5.05
299.478	5.53
299.691	5.74
299.903	5.8
300.116	5.68
300.329	6.06
300.542	5.88
300.755	5.88
300.967	5.79
301.18	5.84
301.393	5.56
301.605	5.81
301.818	5.53
302.031	5.76
302.243	5.78
302.456	6.1
302.669	5.82
302.881	6.04
303.094	5.91
303.307	6.02
303.519	6.21
303.732	6.18
303.944	6.18
304.157	6.37
304.37	6.49
304.582	6.85
304.795	6.84
305.007	7.24
305.22	7.22
305.432	7.36
305.645	7.47
305.857	7.6
306.069	7.84
306.282	7.86
306.494	7.77
306.707	7.54
306.919	7.47
307.132	7.47
307.344	7.57
307.556	7.76
307.769	7.96
307.981	7.89
308.193	7.63
308.406	7.52
308.618	7.34
308.83	7.7
309.043	7.58
309.255	7.64
309.467	7.53
309.679	7.36
309.892	7.11
310.104	6.93
310.316	7.21
310.528	7.49
310.74	7.59
310.953	7.66
311.165	7.53
311.377	7.7
311.589	7.68
311.801	7.68
312.013	8.05
312.225	8.23
312.437	8.62
312.649	8.71
312.862	8.68
313.074	8.56
313.286	8.47
313.498	8.57
313.71	8.73
313.922	8.61
314.134	8.75
314.346	8.09
314.558	8.1
314.77	7.82
314.982	7.68
315.193	7.53
315.405	7.69
315.617	7.85
315.829	7.53
316.041	7.5
316.253	7.46
316.465	7.56
316.677	8.11
316.888	7.88
317.1	8.02
317.312	7.94
317.524	8.23
317.736	8.35
317.947	8.78
318.159	8.95
318.371	8.79
318.583	8.92
318.794	9.11
319.006	8.94
319.218	9
319.43	8.95
319.641	9.25
319.853	9.05
320.064	9.3
320.276	9.01
320.488	9.23
320.699	9.78
320.911	9.71
321.123	9.83
321.334	10.18
321.546	10.45
321.757	10.61
321.969	10.49
322.18	10.46
322.392	10.02
322.603	10.07
322.815	10.24
323.026	10.09
323.238	10.18
323.449	10.12
323.661	10.12
323.872	9.95
324.083	9.28
324.295	9.35
324.506	9.73
324.718	9.69
324.929	9.89
325.14	9.91
325.352	9.61
325.563	9.87
325.774	9.85
325.986	9.73
326.197	9.67
326.408	10.06
326.62	9.88
326.831	9.94
327.042	10.21
327.253	10.47
327.464	10.44
327.676	10.9
327.887	10.9
328.098	10.96
328.309	11.19
328.52	11.53
328.732	12.07
328.943	12
329.154	11.83
329.365	11.74
329.576	11.6
329.787	11.8
329.998	11.75
330.209	11.59
330.42	11.86
330.631	11.53
330.842	11.48
331.053	11.28
331.264	11.48
331.475	11.76
331.686	11.95
331.897	11.85
332.108	11.97
332.319	12.39
332.53	12.68
332.741	12.32
332.952	12.69
333.163	12.95
333.374	13.06
333.585	13.03
333.795	13.05
334.006	13.24
334.217	13.25
334.428	12.86
334.639	12.5
334.849	12.31
335.06	12.53
335.271	12.36
335.482	12.28
335.692	11.73
335.903	12.1
336.114	11.86
336.325	12.07
336.535	12.16
336.746	12.67
336.957	12.69
337.167	12.92
337.378	12.88
337.589	12.81
337.799	12.87
338.01	13.22
338.22	12.98
338.431	13.19
338.642	13.06
338.852	12.85
339.063	12.46
339.273	12.42
339.484	12.49
339.694	12.75
339.905	12.94
340.115	12.76
340.326	12.8
340.536	13.27
340.746	13.05
340.957	12.99
341.167	12.97
341.378	12.97
341.588	13.01
341.799	12.95
342.009	12.78
342.219	12.62
342.43	12.77
342.64	12.68
342.85	12.19
343.061	12.46
343.271	12.29
343.481	12.65
343.691	12.56
343.902	12.44
344.112	12.33
344.322	12.17
344.532	11.99
344.743	11.9
344.953	11.94
345.163	11.91
345.373	11.72
345.583	11.66
345.793	11.59
346.004	11.99
346.214	11.93
346.424	11.78
346.634	11.91
346.844	12.03
347.054	11.87
347.264	12.2
347.474	12.25
347.684	12.57
347.894	12.8
348.104	12.49
348.314	12.18
348.524	11.85
348.734	11.9
348.944	11.86
349.154	12.07
349.364	12.23
349.574	11.9
349.784	12.01
349.994	11.79
350.204	11.98
350.413	12.23
350.623	12.12
350.833	12.35
351.043	12.43
351.253	12.33
351.463	12.16
351.672	12.14
351.882	12.01
352.092	12.32
352.302	12.29
352.511	11.99
352.721	11.86
352.931	11.94
353.141	12.2
353.35	11.87
353.56	12.08
353.77	12.13
353.979	12.19
354.189	12.43
354.399	12.05
354.608	11.94
354.818	11.75
355.027	11.55
355.237	11.5
355.447	11.34
355.656	11.39
355.866	11.11
356.075	11.17
356.285	11.13
356.494	11.28
356.704	11.22
356.913	11.22
357.123	11.23
357.332	11.3
357.542	11.21
357.751	11.16
357.96	11.5
358.17	11.56
358.379	11.55
358.589	11.66
358.798	11.41
359.007	11.42
359.217	11.35
359.426	11.4
359.635	11.39
359.845	11.52
360.054	11.58
360.263	11.4
360.472	11.45
360.682	11.43
360.891	11.27
361.1	10.98
361.309	10.92
361.519	11.04
361.728	11.02
361.937	11.11
362.146	11
362.355	10.85
362.564	10.7
362.774	10.49
362.983	10.41
363.192	10.48
363.401	10.53
363.61	10.4
363.819	10.4
364.028	10.3
364.237	9.99
364.446	10.04
364.655	10.11
364.864	10.12
365.073	10.39
365.282	10.53
365.491	10.24
365.7	10.51
365.909	10.73
366.118	10.58
366.327	10.62
366.536	10.76
366.745	10.75
366.954	10.59
367.162	10.57
367.371	10.47
367.58	10.21
367.789	10.43
367.998	10.37
368.207	10.36
368.415	10.26
368.624	10.14
368.833	10.24
369.042	10.22
369.25	10.63
369.459	10.8
369.668	10.59
369.877	10.56
370.085	10.28
370.294	10.17
370.503	10.04
370.711	9.93
370.92	9.96
371.129	9.99
371.337	9.82
371.546	9.39
371.754	9.32
371.963	9.58
372.171	9.7
372.38	9.7
372.589	9.61
372.797	9.38
373.006	9.38
373.214	9.43
373.423	9.31
373.631	9.27
373.84	9.25
374.048	9.05
374.256	8.83
374.465	8.84
374.673	8.68
374.882	8.62
375.09	8.63
375.298	8.64
375.507	8.56
375.715	8.37
375.923	8.5
376.132	8.56
376.34	8.51
376.548	8.6
376.757	8.44
376.965	8.61
377.173	8.79
377.381	8.82
377.59	8.84
377.798	8.73
378.006	8.69
378.214	8.5
378.423	8.49
378.631	8.44
378.839	8.46
379.047	8.55
379.255	8.49
379.463	8.12
379.671	7.89
379.879	7.59
380.088	7.76
380.296	7.92
380.504	7.87
380.712	7.86
380.92	8
381.128	7.88
381.336	7.63
381.544	7.5
381.752	7.72
381.96	7.98
382.168	8.16
382.376	8.04
382.584	7.86
382.791	7.92
382.999	7.81
383.207	7.61
383.415	7.51
383.623	7.56
383.831	7.4
384.039	7.32
384.247	7.24
384.454	7.43
384.662	7.47
384.87	7.43
385.078	7.46
385.285	7.26
385.493	7.38
385.701	7.33
385.909	7.19
386.116	7.39
386.324	7.34
386.532	7.27
386.739	6.99
386.947	6.93
387.155	7.01
387.362	7.04
387.57	7.13
387.778	7.05
387.985	7.24
388.193	7.34
388.4	7.15
388.608	7.1
388.816	7.24
389.023	7.29
389.231	7.05
389.438	6.8
389.646	6.64
389.853	6.54
390.061	6.52
390.268	6.23
390.475	6.05
390.683	6.24
390.89	6.18
391.098	6.1
391.305	5.98
391.512	6.17
391.72	6.29
391.927	6.18
392.135	6.31
392.342	6.35
392.549	6.49
392.756	6.47
392.964	6.31
393.171	6.16
393.378	6.09
393.586	6.32
393.793	6.25
394	6.08
394.207	6.09
394.414	6.1
394.622	6.1
394.829	5.93
395.036	5.99
395.243	6.09
395.45	6.25
395.657	6.22
395.864	5.94
396.072	5.93
396.279	5.92
396.486	6.01
396.693	6.1
396.9	5.86
397.107	5.97
397.314	5.92
397.521	5.86
397.728	5.8
397.935	5.98
398.142	6.07
398.349	5.98
398.556	6.1
398.763	6.1
398.97	5.94
399.177	6.02
399.383	5.8
399.59	6
399.797	5.97
400.004	6.11
400.211	5.92
400.418	5.88
400.625	6.06
400.831	6.12
401.038	6.18
401.245	6.05
401.452	6.13
401.658	6.17
401.865	5.96
402.072	6.1
402.279	6.06
402.485	5.92
402.692	5.95
402.899	5.78
403.105	5.77
403.312	5.46
403.519	5.41
403.725	5.28
403.932	5.49
404.138	5.43
404.345	5.25
404.552	5.18
404.758	5.25
404.965	5.3
405.171	5.31
405.378	5.31
405.584	5.47
405.791	5.52
405.997	5.53
406.204	5.42
406.41	5.36
406.617	5.28
406.823	5.21
407.029	5.21
407.236	5.14
407.442	5.11
407.649	5.22
407.855	5.18
408.061	5.32
408.268	5.36
408.474	5.38
408.68	5.51
408.887	5.6
409.093	5.61
409.299	5.65
409.505	5.51
409.712	5.44
409.918	5.13
410.124	5.18
410.33	5.12
410.537	4.98
410.743	4.99
410.949	5.12
411.155	5.06
411.361	5.04
411.567	4.93
411.773	5
411.98	5.02
412.186	5.1
412.392	4.92
412.598	4.93
412.804	5.11
413.01	5.03
413.216	4.9
413.422	4.96
413.628	4.95
413.834	5.12
414.04	5.16
414.246	5.16
414.452	5.13
414.658	5.28
414.864	5.1
415.07	4.97
415.275	4.92
415.481	4.76
415.687	4.75
415.893	4.86
416.099	4.73
416.305	4.74
416.511	4.71
416.716	4.73
416.922	4.66
417.128	4.8
417.334	4.89
417.539	4.88
417.745	4.92
417.951	4.83
418.157	4.79
418.362	4.74
418.568	4.61
418.774	4.72
418.979	4.71
419.185	4.65
419.391	4.58
419.596	4.52
419.802	4.52
420.008	4.54
420.213	3.99
420.419	3.93
420.624	3.96
420.83	4.1
421.035	4.03
421.241	4.01
421.446	4.06
421.652	4.01
421.857	3.91
422.063	3.81
422.268	3.81
422.474	4.38
422.679	4.45
422.885	4.48
423.09	4.38
423.295	4.4
423.501	4.36
423.706	4.32
423.911	4.4
424.117	4.5
424.322	4.53
424.527	4.53
424.733	4.51
424.938	4.44
425.143	4.4
425.349	4.41
425.554	4.42
425.759	4.43
425.964	4.39
426.169	4.38
426.375	4.39
426.58	4.51
426.785	4.44
426.99	4.45
427.195	4.47
427.4	4.47
427.605	4.46
427.811	4.52
428.016	4.52
428.221	4.59
428.426	4.6
428.631	4.6
428.836	4.54
429.041	4.58
429.246	4.53
429.451	4.6
429.656	4.61
429.861	4.62
430.066	4.34
430.271	4.42
430.476	4.45
430.681	4.4
430.886	4.49
431.09	4.55
431.295	4.76
431.5	4.73
431.705	4.6
431.91	4.5
432.115	4.54
432.32	4.64
432.524	4.55
432.729	4.57
432.934	4.51
433.139	4.42
433.343	4.31
433.548	4.19
433.753	4.15
433.958	4.2
434.162	4.29
434.367	4.31
434.572	4.26
434.776	4.28
434.981	4.28
435.186	4.38
435.39	4.37
435.595	4.38
435.799	4.34
436.004	4.43
436.209	4.46
436.413	4.48
436.618	4.48
436.822	4.55
437.027	4.54
437.231	4.49
437.436	4.41
437.64	4.31
437.845	4.33
438.049	4.31
438.253	4.32
438.458	4.33
438.662	4.36
438.867	4.37
439.071	4.36
439.275	4.48
439.48	4.51
439.684	4.55
439.888	4.61
440.093	4.64
440.297	4.62
440.501	4.6
440.706	4.58
440.91	4.56
441.114	4.5
441.318	4.56
441.523	4.54
441.727	4.52
441.931	4.56
442.135	4.6
442.339	4.59
442.543	4.55
442.748	4.49
442.952	4.49
443.156	4.43
443.36	4.39
443.564	4.37
443.768	4.35
443.972	4.39
444.176	4.34
444.38	4.34
444.584	4.3
444.788	4.47
444.992	4.54
445.196	4.52
445.4	4.5
445.604	4.53
445.808	4.46
446.012	4.42
446.216	4.38
446.42	4.35
446.624	4.34
446.828	4.31
447.032	4.21
447.235	4.22
447.439	4.26
447.643	4.28
447.847	4.34
448.051	4.35
448.254	4.41
448.458	4.43
448.662	4.5
448.866	4.49
449.069	4.5
449.273	4.55
449.477	4.5
449.681	4.5
449.884	4.57
450.088	4.52
450.292	4.56
450.495	4.54
450.699	4.52
450.902	4.41
451.106	4.43
451.31	4.44
451.513	4.43
451.717	4.46
451.92	4.4
452.124	4.41
452.327	4.44
452.531	4.43
452.734	4.39
452.938	4.4
453.141	4.39
453.345	4.37
453.548	4.33
453.752	4.37
453.955	4.4
454.158	4.46
454.362	4.39
454.565	4.25
454.769	4.16
454.972	4.1
455.175	4.07
455.379	4.19
455.582	4.28
455.785	4.36
455.988	4.26
456.192	4.25
456.395	4.26
456.598	4.3
456.801	4.4
457.005	4.44
457.208	4.51
457.411	4.53
457.614	4.53
457.817	4.46
458.021	4.45
458.224	4.49
458.427	4.36
458.63	4.37
458.833	4.36
459.036	4.39
459.239	4.38
459.442	4.39
459.645	4.32
459.848	4.23
460.051	4.14
460.254	4.13
460.457	4.14
460.66	4.17
460.863	4.15
461.066	4.13
461.269	4.11
461.472	4.16
461.675	4.15
461.878	4.22
462.081	4.32
462.284	4.37
462.486	4.46
462.689	4.53
462.892	4.68
463.095	4.71
463.298	4.8
463.5	4.78
463.703	4.89
463.906	4.85
464.109	4.91
464.311	4.93
464.514	4.98
464.717	5.01
464.92	4.87
465.122	4.86
465.325	4.82
465.528	4.9
465.73	5.01
465.933	4.89
466.135	4.89
466.338	4.87
466.541	4.84
466.743	4.86
466.946	4.67
467.148	4.77
467.351	4.67
467.553	4.78
467.756	4.69
467.958	4.67
468.161	4.67
468.363	4.72
468.566	4.67
468.768	4.64
468.971	4.65
469.173	4.79
469.375	4.79
469.578	4.76
469.78	4.58
469.983	4.57
470.185	4.48
470.387	4.6
470.59	4.58
470.792	4.64
470.994	4.77
471.196	4.78
471.399	4.66
471.601	4.68
471.803	4.72
472.005	4.76
472.208	4.73
472.41	4.84
472.612	4.76
472.814	4.75
473.016	4.7
473.218	4.64
473.421	4.65
473.623	4.71
473.825	4.71
474.027	4.8
474.229	4.81
474.431	4.85
474.633	4.88
474.835	4.93
475.037	4.86
475.239	4.93
475.441	4.92
475.643	4.89
475.845	4.93
476.047	4.9
476.249	4.84
476.451	4.87
476.653	4.97
476.855	4.91
477.057	4.87
477.258	4.96
477.46	4.95
477.662	4.94
477.864	4.94
478.066	4.91
478.268	4.84
478.469	4.89
478.671	4.86
478.873	4.66
479.075	4.65
479.276	4.63
479.478	4.64
479.68	4.6
479.882	4.6
480.083	4.55
480.285	4.54
480.487	4.62
480.688	4.6
480.89	4.61
481.091	4.71
481.293	4.75
481.495	4.72
481.696	4.61
481.898	4.57
482.099	4.52
482.301	4.5
482.502	4.5
482.704	4.47
482.905	4.42
483.107	4.41
483.308	4.36
483.51	4.3
483.711	4.3
483.913	4.32
484.114	4.31
484.315	4.32
484.517	4.31
484.718	4.27
484.92	4.27
485.121	4.25
485.322	4.22
485.524	4.23
485.725	4.27
485.926	4.23
486.127	4.21
486.329	4.23
486.53	4.24
486.731	4.27
486.932	4.33
487.134	4.3
487.335	4.35
487.536	4.33
487.737	4.34
487.938	4.31
488.139	4.31
488.341	4.31
488.542	4.31
488.743	4.28
488.944	4.24
489.145	4.17
489.346	4.16
489.547	4.11
489.748	4.15
489.949	4.15
490.15	4.16
490.351	4.17
490.552	4.21
490.753	4.24
490.954	4.31
491.155	4.32
491.356	4.35
491.557	4.37
491.758	4.41
491.959	4.42
492.159	4.43
492.36	4.44
492.561	4.46
492.762	4.44
492.963	4.4
493.164	4.4
493.364	4.46
493.565	4.52
493.766	4.56
493.967	4.61
494.167	4.61
494.368	4.61
494.569	4.6
494.769	4.59
494.97	4.66
495.171	4.72
495.371	4.71
495.572	4.68
495.773	4.7
495.973	4.7
496.174	4.65
496.375	4.7
496.575	4.71
496.776	4.77
496.976	4.85
497.177	4.88
497.377	4.98
497.578	5.01
497.778	5.08
497.979	5.11
498.179	5.12
498.38	5.17
498.58	5.2
498.78	5.27
498.981	5.28
499.181	5.37
499.382	5.37
499.582	5.23
499.782	5.3
499.983	5.3
500.183	5.33
500.383	5.35
500.584	5.33
500.784	5.35
500.984	5.37
501.184	5.37
501.385	5.3
501.585	5.27
501.785	5.36
501.985	5.37
502.185	5.43
502.386	5.35
502.586	5.49
502.786	5.62
502.986	5.68
503.186	5.59
503.386	5.62
503.586	5.65
503.786	5.76
503.987	5.8
504.187	5.82
504.387	5.81
504.587	5.98
504.787	6.03
504.987	6.01
505.187	6.01
505.387	6.19
505.587	6.3
505.786	6.34
505.986	6.37
506.186	6.47
506.386	6.55
506.586	6.64
506.786	6.6
506.986	6.53
507.186	6.58
507.386	6.68
507.585	6.72
507.785	6.68
507.985	6.71
508.185	6.75
508.384	6.79
508.584	6.82
508.784	6.84
508.984	6.91
509.183	7.01
509.383	7.06
509.583	7.04
509.782	7.09
509.982	7.19
510.182	7.27
510.381	7.29
510.581	7.28
510.781	7.38
510.98	7.42
511.18	7.45
511.379	7.5
511.579	7.62
511.778	7.71
511.978	7.76
512.177	7.8
512.377	7.93
512.576	8.06
512.776	8.16
512.975	8.2
513.175	8.35
513.374	8.45
513.573	8.58
513.773	8.62
513.972	8.71
514.172	8.79
514.371	8.89
514.57	8.91
514.77	9.05
514.969	9.15
515.168	9.24
515.367	9.37
515.567	9.45
515.766	9.55
515.965	9.65
516.164	9.81
516.364	9.91
516.563	10.06
516.762	10.18
516.961	10.21
517.16	10.31
517.359	10.36
517.559	10.34
517.758	10.41
517.957	10.46
518.156	10.52
518.355	10.6
518.554	10.6
518.753	10.61
518.952	10.62
519.151	10.78
519.35	10.81
519.549	10.85
519.748	10.95
519.947	11.1
520.146	11.08
520.345	11.19
520.544	11.2
520.743	11.35
520.942	11.44
521.141	11.54
521.339	11.52
521.538	11.64
521.737	11.74
521.936	11.8
522.135	11.84
522.333	12.05
522.532	12.12
522.731	12.26
522.93	12.34
523.129	12.4
523.327	12.63
523.526	12.75
523.725	12.82
523.923	13.02
524.122	13.14
524.321	13.2
524.519	13.21
524.718	13.28
524.917	13.31
525.115	13.4
525.314	13.56
525.512	13.55
525.711	13.54
525.909	13.67
526.108	13.68
526.306	13.75
526.505	13.85
526.703	13.94
526.902	14.01
527.1	14.13
527.299	14.16
527.497	14.21
527.696	14.29
527.894	14.41
528.092	14.41
528.291	14.48
528.489	14.53
528.688	14.54
528.886	14.59
529.084	14.59
529.283	14.61
529.481	14.64
529.679	14.68
529.877	14.71
530.076	14.73
530.274	14.81
530.472	14.85
530.67	14.93
530.869	15.1
531.067	15.23
531.265	15.41
531.463	15.52
531.661	15.7
531.859	15.78
532.057	15.89
532.255	15.96
532.454	16.05
532.652	16.13
532.85	16.19
533.048	16.17
533.246	16.22
533.444	16.21
533.642	16.3
533.84	16.33
534.038	16.36
534.236	16.41
534.434	16.5
534.632	16.57
534.83	16.68
535.027	16.74
535.225	16.88
535.423	16.98
535.621	17.12
535.819	17.21
536.017	17.29
536.215	17.43
536.412	17.49
536.61	17.52
536.808	17.58
537.006	17.57
537.203	17.66
537.401	17.73
537.599	17.76
537.797	17.87
537.994	17.98
538.192	18.11
538.39	18.19
538.587	18.35
538.785	18.53
538.983	18.74
539.18	18.93
539.378	19.09
539.575	19.29
539.773	19.52
539.97	19.71
540.168	19.82
540.366	19.9
540.563	20.06
540.761	20.16
540.958	20.21
541.155	20.28
541.353	20.39
541.55	20.44
541.748	20.45
541.945	20.44
542.143	20.45
542.34	20.49
542.537	20.61
542.735	20.64
542.932	20.75
543.129	20.88
543.327	20.99
543.524	21.11
543.721	21.3
543.919	21.57
544.116	21.89
544.313	22.15
544.51	22.47
544.708	22.71
544.905	23.01
545.102	23.31
545.299	23.48
545.496	23.7
545.693	23.87
545.891	23.96
546.088	23.99
546.285	23.87
546.482	23.87
546.679	23.72
546.876	23.69
547.073	23.54
547.27	23.48
547.467	23.5
547.664	23.35
547.861	23.23
548.058	23.13
548.255	23.15
548.452	23.14
548.649	23.13
548.846	23.23
549.043	23.26
549.24	23.37
549.437	23.24
549.633	23.18
549.83	23.25
550.027	23.29
550.224	23.36
550.421	23.27
550.618	23.38
550.814	23.4
551.011	23.25
551.208	23.19
551.405	23.11
551.601	23.18
551.798	23.21
551.995	23.22
552.191	23.2
552.388	23.34
552.585	23.43
552.781	23.38
552.978	23.33
553.175	23.4
553.371	23.44
553.568	23.49
553.764	23.61
553.961	23.64
554.157	23.67
554.354	23.79
554.55	23.74
554.747	23.72
554.943	23.81
555.14	23.91
555.336	24.07
555.533	24.09
555.729	24.09
555.926	24.08
556.122	24.09
556.318	24.19
556.515	24.15
556.711	24.14
556.907	24.3
557.104	24.3
557.3	24.36
557.496	24.4
557.693	24.57
557.889	24.7
558.085	24.7
558.281	24.82
558.478	24.88
558.674	24.99
558.87	25.08
559.066	25.13
559.262	25.23
559.459	25.29
559.655	25.34
559.851	25.32
560.047	25.3
560.243	25.39
560.439	25.3
560.635	25.31
560.831	25.24
561.027	25.26
561.223	25.14
561.419	25.22
561.615	25.16
561.811	25.26
562.007	25.24
562.203	25.38
562.399	25.26
562.595	25.51
562.791	25.63
562.987	25.71
563.183	25.76
563.379	25.99
563.575	25.93
563.771	26.05
563.966	26.02
564.162	26.11
564.358	26.13
564.554	26.23
564.75	26.15
564.945	26.2
565.141	26.28
565.337	26.27
565.533	26.24
565.728	26.23
565.924	26.28
566.12	26.28
566.315	26.36
566.511	26.35
566.707	26.42
566.902	26.44
567.098	26.36
567.293	26.34
567.489	26.48
567.684	26.49
567.88	26.62
568.076	26.63
568.271	26.76
568.467	26.78
568.662	26.91
568.858	26.95
569.053	26.94
569.248	26.96
569.444	27.04
569.639	27.13
569.835	27.22
570.03	27.18
570.225	27.18
570.421	27.07
570.616	27.11
570.812	27.08
571.007	27.15
571.202	27.2
571.397	27.36
571.593	27.49
571.788	27.43
571.983	27.47
572.178	27.58
572.374	27.62
572.569	27.71
572.764	27.67
572.959	27.6
573.154	27.64
573.35	27.73
573.545	27.67
573.74	27.64
573.935	27.71
574.13	27.62
574.325	27.7
574.52	27.81
574.715	27.92
574.91	28.08
575.105	28.28
575.3	28.38
575.495	28.44
575.69	28.67
575.885	28.82
576.08	28.89
576.275	29.2
576.47	29.29
576.665	29.44
576.86	29.55
577.055	29.63
577.25	29.65
577.444	29.8
577.639	30.06
577.834	30.12
578.029	30.17
578.224	30.36
578.418	30.41
578.613	30.46
578.808	30.54
579.003	30.64
579.197	30.61
579.392	30.67
579.587	30.63
579.781	30.58
579.976	30.56
580.171	30.6
580.365	30.61
580.56	30.55
580.755	30.58
580.949	30.59
581.144	30.56
581.338	30.68
581.533	30.64
581.727	30.73
581.922	30.65
582.116	30.81
582.311	30.95
582.505	30.98
582.7	31.11
582.894	31.22
583.089	31.16
583.283	31.3
583.478	31.45
583.672	31.6
583.866	31.59
584.061	31.65
584.255	31.55
584.449	31.49
584.644	31.43
584.838	31.42
585.032	31.54
585.226	31.65
585.421	31.6
585.615	31.63
585.809	31.85
586.003	31.95
586.198	32.15
586.392	32.26
586.586	32.38
586.78	32.46
586.974	32.47
587.168	32.39
587.363	32.38
587.557	32.37
587.751	32.36
587.945	32.25
588.139	32.16
588.333	32.09
588.527	32.05
588.721	31.75
588.915	31.78
589.109	31.77
589.303	31.75
589.497	31.79
589.691	31.68
589.885	31.71
590.079	31.65
590.273	31.68
590.466	31.82
590.66	31.76
590.854	31.97
591.048	31.97
591.242	32.11
591.436	32.23
591.629	32.38
591.823	32.56
592.017	32.62
592.211	32.81
592.404	32.93
592.598	32.96
592.792	32.94
592.986	33.01
593.179	33.01
593.373	32.98
593.567	32.9
593.76	32.65
593.954	32.54
594.147	32.5
594.341	32.33
594.535	32.25
594.728	32.18
594.922	32.19
595.115	32.22
595.309	32.24
595.502	32.23
595.696	32.21
595.889	32.34
596.083	32.45
596.276	32.44
596.47	32.49
596.663	32.54
596.856	32.47
597.05	32.57
597.243	32.55
597.437	32.52
597.63	32.46
597.823	32.55
598.017	32.5
598.21	32.56
598.403	32.62
598.596	32.63
598.79	32.59
598.983	32.77
599.176	32.8
599.369	32.75
599.563	32.82
599.756	32.97
599.949	32.85
600.142	32.84
600.335	32.75
600.528	32.71
600.722	32.6
600.915	32.68
601.108	32.56
601.301	32.63
601.494	32.59
601.687	32.65
601.88	32.61
602.073	32.61
602.266	32.7
602.459	32.73
602.652	32.87
602.845	32.93
603.038	32.87
603.231	32.81
603.424	32.69
603.617	32.63
603.809	32.43
604.002	32.35
604.195	32.31
604.388	32.29
604.581	32.24
604.774	32.18
604.966	32.14
605.159	32.16
605.352	32.34
605.545	32.42
605.737	32.55
605.93	32.78
606.123	32.8
606.316	32.97
606.508	33.08
606.701	33.21
606.894	33.39
607.086	33.7
607.279	33.77
607.471	33.86
607.664	34.13
607.857	34.51
608.049	34.82
608.242	35.47
608.434	36.12
608.627	36.75
608.819	37.72
609.012	38.72
609.204	39.77
609.397	41.11
609.589	42.47
609.782	43.88
609.974	45.37
610.166	47.01
610.359	48.37
610.551	49.71
610.743	51.06
610.936	52.07
611.128	52.71
611.32	53.35
611.513	53.46
611.705	53.47
611.897	53.23
612.09	52.73
612.282	52.07
612.474	51.61
612.666	50.77
612.858	50.02
613.051	49.14
613.243	48.38
613.435	47.62
613.627	47.17
613.819	46.59
614.011	46.28
614.203	45.77
614.395	45.37
614.588	44.48
614.78	43.91
614.972	43.18
615.164	42.65
615.356	42.19
615.548	41.52
615.74	41.12
615.932	40.51
616.124	39.77
616.315	39.21
616.507	38.64
616.699	38.36
616.891	38.17
617.083	37.84
617.275	37.51
617.467	37.26
617.659	37.13
617.85	36.81
618.042	36.71
618.234	36.55
618.426	36.42
618.618	36.46
618.809	36.42
619.001	36.31
619.193	36.4
619.384	36.31
619.576	36.23
619.768	36.3
619.959	36.2
620.151	36.18
620.343	36.22
620.534	36.47
620.726	36.34
620.917	36.29
621.109	36.35
621.301	36.41
621.492	36.59
621.684	36.71
621.875	36.84
622.067	36.9
622.258	37.02
622.45	37.19
622.641	36.87
622.832	36.89
623.024	37.06
623.215	37.03
623.407	37.03
623.598	37.03
623.789	37.01
623.981	37
624.172	36.95
624.363	37.03
624.555	36.85
624.746	36.97
624.937	36.98
625.129	36.92
625.32	36.78
625.511	36.68
625.702	36.59
625.893	36.72
626.085	36.64
626.276	36.86
626.467	36.77
626.658	36.74
626.849	36.71
627.04	36.78
627.231	36.92
627.422	37
627.614	36.93
627.805	36.97
627.996	36.86
628.187	36.89
628.378	36.82
628.569	36.91
628.76	37.27
628.951	37.41
629.142	37.42
629.332	37.62
629.523	37.9
629.714	38.31
629.905	38.62
630.096	38.82
630.287	39.03
630.478	39.29
630.669	39.25
630.859	39.12
631.05	38.98
631.241	39.09
631.432	38.71
631.623	38.51
631.813	38.13
632.004	37.76
632.195	37.48
632.385	37.2
632.576	36.73
632.767	36.71
632.957	36.41
633.148	36.24
633.339	35.83
633.529	35.75
633.72	35.58
633.91	35.32
634.101	35.16
634.292	35
634.482	34.89
634.673	34.94
634.863	34.73
635.054	34.77
635.244	34.92
635.435	35.06
635.625	35.03
635.815	35.09
636.006	35.2
636.196	35.38
636.387	35.55
636.577	35.63
636.767	35.44
636.958	35.45
637.148	35.46
637.338	35.22
637.529	35.32
637.719	35.39
637.909	35.25
638.099	35.28
638.29	35.21
638.48	35.14
638.67	34.99
638.86	35.16
639.05	35.15
639.241	35.1
639.431	35.43
639.621	35.24
639.811	35.01
640.001	35.2
640.191	35.34
640.381	35.49
640.571	35.29
640.761	35.4
640.951	35.37
641.141	35.53
641.331	35.58
641.521	35.25
641.711	35.32
641.901	35.58
642.091	35.38
642.281	35.45
642.471	35.28
642.661	35.6
642.851	35.76
643.041	35.82
643.231	35.8
643.42	35.9
643.61	36.12
643.8	36.2
643.99	36.16
644.18	36.21
644.369	35.93
644.559	36.31
644.749	36.28
644.939	36.2
645.128	36.28
645.318	36.05
645.508	36.07
645.697	36.03
645.887	36.12
646.076	36.12
646.266	36.3
646.456	36.56
646.645	36.32
646.835	36.29
647.024	36.24
647.214	36.39
647.403	36.58
647.593	36.47
647.782	36.59
647.972	36.58
648.161	36.65
648.351	36.75
648.54	36.73
648.73	36.7
648.919	36.75
649.108	36.76
649.298	36.68
649.487	36.73
649.677	36.88
649.866	36.86
650.055	36.88
650.244	36.99
650.434	36.98
650.623	37.02
650.812	37.11
651.002	37.36
651.191	37.59
651.38	37.68
651.569	37.57
651.758	37.49
651.947	37.55
652.137	37.53
652.326	37.25
652.515	37.27
652.704	37.3
652.893	37.27
653.082	37.15
653.271	37.2
653.46	37.01
653.649	37.06
653.838	37.28
654.027	37.32
654.216	37.18
654.405	37.48
654.594	37.35
654.783	37.37
654.972	37.32
655.161	37.26
655.35	37.02
655.539	37.05
655.728	36.83
655.916	36.45
656.105	36.33
656.294	36.6
656.483	36.44
656.672	36.5
656.86	36.25
657.049	36.18
657.238	36.27
657.427	36.32
657.615	36.36
657.804	36.58
657.993	36.7
658.181	36.77
658.37	36.73
658.559	36.86
658.747	36.67
658.936	36.86
659.125	36.66
659.313	36.6
659.502	36.53
659.69	36.4
659.879	36.27
660.067	36.42
660.256	36.41
660.444	36.49
660.633	36.53
660.821	36.7
661.01	36.8
661.198	37.22
661.387	37.22
661.575	37.56
661.763	37.66
661.952	37.89
662.14	37.78
662.328	37.68
662.517	37.45
662.705	37.48
662.893	37.48
663.082	37.33
663.27	37.45
663.458	37.47
663.646	37.35
663.834	37.34
664.023	37.42
664.211	37.74
664.399	37.98
664.587	38.23
664.775	38.03
664.963	38.07
665.152	38.16
665.34	37.98
665.528	38.09
665.716	38.03
665.904	38.3
666.092	38.4
666.28	38.21
666.468	38.17
666.656	38.29
666.844	38.39
667.032	38.36
667.22	38.39
667.408	38.33
667.596	38.11
667.784	38.17
667.971	38.06
668.159	38.04
668.347	37.99
668.535	38.23
668.723	37.86
668.911	37.91
669.098	37.84
669.286	37.91
669.474	38.03
669.662	38.12
669.849	37.97
670.037	37.99
670.225	37.86
670.413	37.65
670.6	37.55
670.788	37.79
670.976	37.77
671.163	37.95
671.351	37.81
671.538	37.64
671.726	37.99
671.913	38.1
672.101	38.18
672.289	38.13
672.476	38.34
672.664	38.34
672.851	38.37
673.039	38.36
673.226	38.09
673.413	37.94
673.601	37.72
673.788	37.48
673.976	37.4
674.163	37.38
674.35	37.54
674.538	37.78
674.725	37.5
674.912	37.23
675.1	37.23
675.287	37.6
675.474	37.66
675.662	38.11
675.849	37.99
676.036	38.08
676.223	38.02
676.411	37.92
676.598	37.65
676.785	38.01
676.972	38.27
677.159	38.14
677.346	37.97
677.533	38.04
677.721	38.21
677.908	38.41
678.095	38.25
678.282	38.27
678.469	38.36
678.656	38.45
678.843	38.49
679.03	38.31
679.217	38.36
679.404	38.37
679.591	38.34
679.778	38.3
679.964	38.22
680.151	38.11
680.338	38.1
680.525	37.98
680.712	38.06
680.899	37.94
681.086	38.05
681.272	38.35
681.459	38.57
681.646	38.51
681.833	38.27
682.02	38.24
682.206	38.46
682.393	38.62
682.58	38.75
682.766	38.83
682.953	38.84
683.14	38.64
683.326	38.52
683.513	38.33
683.7	38.47
683.886	38.47
684.073	38.84
684.259	38.82
684.446	38.83
684.632	38.56
684.819	38.53
685.005	38.34
685.192	39.04
685.378	39.04
685.565	38.96
685.751	39.12
685.938	39.34
686.124	38.81
686.31	39.2
686.497	39.21
686.683	39.57
686.87	39.69
687.056	39.89
687.242	39.49
687.429	39.45
687.615	39.46
687.801	39.25
687.987	39.35
688.174	39.75
688.36	39.86
688.546	39.79
688.732	39.86
688.918	39.49
689.105	39.32
689.291	39.31
689.477	39.67
689.663	39.49
689.849	39.72
690.035	39.66
690.221	39.43
690.407	39.36
690.593	39.15
690.779	38.92
690.965	39.29
691.151	39.58
691.337	39.63
691.523	39.23
691.709	39.7
691.895	39.76
692.081	39.78
692.267	40.31
692.453	40.15
692.639	40.59
692.825	40.73
693.011	40.52
693.196	40.54
693.382	40.38
693.568	40.37
693.754	40.24
693.94	40
694.125	39.74
694.311	39.52
694.497	39.36
694.682	39.48
694.868	39.29
695.054	39.19
695.239	39.02
695.425	39.4
695.611	39.42
695.796	39.31
695.982	39.07
696.168	39.3
696.353	38.94
696.539	38.97
696.724	38.54
696.91	38.58
697.095	38.46
697.281	38.28
697.466	37.98
697.652	38.08
697.837	38.22
698.023	38.51
698.208	38.29
698.393	38.33
698.579	38.17
698.764	38.1
698.949	38.09
699.135	38.18
699.32	38.22
699.505	38.2
699.691	38.02
699.876	37.76
700.061	37.69
700.246	37.72
700.432	37.67
700.617	37.77
700.802	37.86
700.987	37.92
701.172	37.9
701.358	37.97
701.543	38.17
701.728	38.13
701.913	38.48
702.098	38.63
702.283	38.92
702.468	38.9
702.653	38.99
702.838	39.27
703.023	39.62
703.208	39.8
703.393	40.02
703.578	39.82
703.763	40.23
703.948	40.05
704.133	40.08
704.318	39.94
704.503	40.29
704.688	40.58
704.873	40.58
705.057	40.98
705.242	41.78
705.427	42.12
705.612	42.14
705.797	42.55
705.981	43.06
706.166	43.63
706.351	44.3
706.536	44.81
706.72	44.98
706.905	45.03
707.09	44.87
707.274	44.64
707.459	45.01
707.644	45.5
707.828	45.19
708.013	44.91
708.197	44.41
708.382	44.48
708.567	43.86
708.751	43.44
708.936	43.37
709.12	43.38
709.305	43.12
709.489	42.51
709.673	42.48
709.858	42.29
710.042	42.57
710.227	42.58
710.411	42.06
710.596	42.24
710.78	42.51
710.964	42.68
711.149	42.69
711.333	42.95
711.517	43.05
711.702	43.05
711.886	43.45
712.07	43.11
712.254	43.04
712.438	42.96
712.623	42.76
712.807	42.42
712.991	41.95
713.175	41.54
713.359	40.99
713.544	40.44
713.728	40.06
713.912	39.48
714.096	39.4
714.28	39.14
714.464	39.07
714.648	38.79
714.832	38.56
715.016	38.47
715.2	38.28
715.384	38.4
715.568	38.42
715.752	38.45
715.936	38.5
716.12	38.26
716.304	38.39
716.488	38.37
716.671	38.52
716.855	39.17
717.039	39.35
717.223	39.45
717.407	39.5
717.59	39.75
717.774	39.6
717.958	39.7
718.142	39.78
718.325	39.68
718.509	39.77
718.693	39.99
718.877	39.41
719.06	39.71
719.244	39.74
719.428	39.62
719.611	39.25
719.795	39.37
719.978	39.24
720.162	39.27
720.345	39.74
720.529	39.97
720.713	39.62
720.896	39.78
721.08	39.18
721.263	39.16
721.446	39.5
721.63	39.92
721.813	39.65
721.997	39.37
722.18	39.83
722.364	39.66
722.547	39.68
722.73	40.43
722.914	40.65
723.097	40.84
723.28	40.94
723.464	40.61
723.647	40.12
723.83	40.46
724.013	40.75
724.197	40.4
724.38	40.41
724.563	40.16
724.746	39.74
724.929	39.78
725.112	39.57
725.296	39.37
725.479	39.63
725.662	40.1
725.845	40.18
726.028	40.29
726.211	40.34
726.394	39.98
726.577	40.05
726.76	40.32
726.943	40
727.126	40.44
727.309	40.16
727.492	39.68
727.675	39.6
727.858	39.43
728.041	39.1
728.224	39.11
728.407	38.99
728.589	39.11
728.772	38.76
728.955	39.1
729.138	39.14
729.321	39.33
729.503	39.53
729.686	39.47
729.869	39.6
730.052	39.63
730.234	39.28
730.417	39.83
730.6	39.33
730.782	39.1
730.965	38.57
731.148	38.42
731.33	38.31
731.513	38.37
731.695	38.47
731.878	38.65
732.061	38.75
732.243	39.65
732.426	39
732.608	39.47
732.791	39.81
732.973	40.04
733.156	39.96
733.338	40.08
733.52	40.11
733.703	40.53
733.885	40.33
734.068	40.3
734.25	39.5
734.432	40.29
734.615	40.11
734.797	39.84
734.979	39.9
735.162	40.28
735.344	40.54
735.526	40.56
735.708	40.39
735.891	40.86
736.073	40.4
736.255	41.01
736.437	40.6
736.619	40.4
736.802	40.29
736.984	40.3
737.166	39.87
737.348	39.62
737.53	39.42
737.712	39.28
737.894	38.94
738.076	39.76
738.258	39.71
738.44	39.46
738.622	39.87
738.804	40.13
738.986	40.28
739.168	40.53
739.35	40.65
739.532	41.14
739.714	40.99
739.896	40.59
740.078	40.67
740.259	40.15
740.441	40.2
740.623	40.42
740.805	40.46
740.987	40.25
741.168	40.63
741.35	40.64
741.532	40.36
741.714	40.88
741.895	41.07
742.077	40.79
742.259	41.21
742.44	41.38
742.622	40.74
742.804	40.76
742.985	40.92
743.167	40.39
743.348	40.66
743.53	40.53
743.711	40.18
743.893	40.31
744.075	40.69
744.256	40.58
744.438	40.67
744.619	40.73
744.8	40.63
744.982	40.72
745.163	41.14
745.345	41.05
745.526	41.25
745.707	41.13
745.889	41.82
746.07	41.98
746.252	42.94
746.433	43.53
746.614	43.9
746.795	43.86
746.977	43.95
747.158	43.52
747.339	43.11
747.52	42.96
747.702	42.92
747.883	42.85
748.064	42.88
748.245	42.23
748.426	41.82
748.607	41.02
748.788	41.55
748.97	41.58
749.151	41.62
749.332	41.93
749.513	42.03
749.694	41.99
749.875	41.49
750.056	40.55
750.237	39.73
750.418	39.84
750.599	40.16
750.78	40.08
750.96	39.66
751.141	39.65
751.322	39.65
751.503	40.26
751.684	39.96
751.865	39.91
752.046	40.06
752.226	40.75
752.407	40.66
752.588	41.03
752.769	41.68
752.949	42.01
753.13	42.38
753.311	42.78
753.492	42.35
753.672	42.56
753.853	42.36
754.034	43.12
754.214	43.1
754.395	42.15
754.575	41.9
754.756	41.67
754.937	41.23
755.117	41.3
755.298	40.46
755.478	40.48
755.659	40.42
755.839	40.61
756.02	40.17
756.2	39.94
756.381	40.77
756.561	40.68
756.741	40.14
756.922	40.49
757.102	40.73
757.283	40.87
757.463	40.84
757.643	41.11
757.823	40.98
758.004	40.85
758.184	40.85
758.364	41.17
758.545	42.11
758.725	42.1
758.905	42.35
759.085	42.19
759.265	42.69
759.446	42.61
759.626	42.03
759.806	42.58
759.986	43.19
760.166	43.49
760.346	42.88
760.526	41.96
760.706	41.69
760.886	41.54
761.066	41.3
761.246	41.15
761.426	40.16
761.606	40.48
761.786	39.67
761.966	39.4
762.146	39.46
762.326	40.12
762.506	40.1
762.686	40.4
762.866	40.26
763.046	40.18
763.225	40.17
763.405	40.9
763.585	40.55
763.765	40.58
763.945	40.18
764.124	40.2
764.304	39.81
764.484	40.24
764.664	40.31
764.843	40.55
765.023	40.46
765.203	40.32
765.382	40.05
765.562	40.54
765.741	40.63
765.921	41.44
766.101	41.09
766.28	40.82
766.46	40.61
766.639	40.32
766.819	39.63
766.998	40.2
767.178	39.98
767.357	40.03
767.537	40.03
767.716	40.59
767.896	40.44
768.075	40.51
768.254	41.07
768.434	41.15
768.613	40.85
768.792	41.24
768.972	41.27
769.151	42.03
769.33	42.54
769.51	42.48
769.689	42.05
769.868	41.85
770.047	43.16
770.226	43.34
770.406	43.1
770.585	43.45
770.764	43.6
770.943	43.4
771.122	43.48
771.301	43.18
771.48	43.57
771.66	44.76
771.839	44.75
772.018	43.47
772.197	42.68
772.376	42.47
772.555	43.22
772.734	43.86
772.913	43.24
773.092	42.54
773.271	42.21
773.449	41.82
773.628	41.22
773.807	41.84
773.986	42.35
774.165	42.57
774.344	42.84
774.523	41.74
774.701	41.67
774.88	42.21
775.059	42.38
775.238	42.45
775.417	43.22
775.595	43.79
775.774	43.75
775.953	42.76
776.131	43.27
776.31	43.1
776.489	43.93
776.667	42.91
776.846	42.52
777.025	43.21
777.203	42.75
777.382	42.79
777.56	41.77
777.739	41.18
777.917	41.82
778.096	41.85
778.274	41.83
778.453	41.88
778.631	42.47
778.81	42.81
778.988	41.95
779.166	42.67
779.345	41.95
779.523	41.79
779.702	41.1
779.88	41.32
780.058	41.11
780.237	41.35
780.415	41.27
780.593	40.9
780.771	41
780.95	42.28
781.128	42.37
781.306	42.84
781.484	43.1
781.662	43.87
781.841	43.83
782.019	44.04
782.197	44.78
782.375	43.96
782.553	43.74
782.731	43.37
782.909	42.7
783.087	42.46
783.265	41.83
783.443	41.21
783.621	41.4
783.799	41.62
783.977	42.45
784.155	41.9
784.333	42.73
784.511	43.44
784.689	43.29
784.867	42.82
785.045	43.31
785.223	43.08
785.4	44.32
785.578	44.88
785.756	43.39
785.934	41.86
786.112	42.15
786.289	41.79
786.467	40.9
786.645	40.61
786.823	41.06
787	40.85
787.178	41.66
787.356	41.11
787.533	39.17
787.711	40.19
787.889	40.07
788.066	39.52
788.244	39.54
788.421	39.93
788.599	40.08
788.776	40.07
788.954	41.04
789.131	41.28
789.309	41.46
789.486	42.34
789.664	42.43
789.841	42.93
790.019	42.58
790.196	42.17
790.373	42.15
790.551	43.02
790.728	42.22
790.906	40.31
791.083	39.49
791.26	39.64
791.437	39.54
791.615	39.75
791.792	39.94
791.969	40.61
792.146	40.97
792.324	41.54
792.501	41.96
792.678	43.19
792.855	44.54
793.032	45.26
793.209	45.02
793.387	45.84
793.564	45.92
793.741	45.61
793.918	46.79
794.095	47.55
794.272	47.64
794.449	45.91
794.626	45.45
794.803	45.21
794.98	44.73
795.157	44.9
795.334	44.62
795.511	44.25
795.688	44.38
795.864	43.78
796.041	42.86
796.218	43.12
796.395	44.29
796.572	44.66
796.749	44.24
796.925	43.22
797.102	42.76
797.279	43.19
797.456	43.08
797.632	43.88
797.809	42.81
797.986	43.65
798.162	42.57
798.339	42.19
798.516	42.25
798.692	42.9
798.869	44.41
799.046	45.56
799.222	44.18
799.399	44.8
799.575	44.6
799.752	44.39
799.928	44.86
800.105	44.6
800.281	44.48
800.458	44.76
800.634	44.34
800.811	44.19
800.987	42.62
801.163	43.3
801.34	43.05
801.516	42.61
801.692	43.75
801.869	42.65
802.045	43.37
802.221	43.93
802.398	43.82
802.574	43.38
802.75	43.56
802.926	44.14
803.103	44.91
803.279	45.24
803.455	45.25
803.631	44.58
803.807	44.75
803.983	45.23
804.16	44.99
804.336	44.3
804.512	44.69
804.688	44.38
804.864	43.79
805.04	42.89
805.216	42.12
805.392	41.43
805.568	41.52
805.744	42.63
805.92	42.7
806.096	43.45
806.272	43.57
806.448	44.63
806.623	44.19
806.799	44.31
806.975	45.62
807.151	45
807.327	45.71
807.503	46.74
807.678	45.34
807.854	43.05
808.03	41.99
808.206	42.37
808.381	42.18
808.557	41.73
808.733	42.16
808.908	40.64
809.084	41.61
809.26	41.93
809.435	40.81
809.611	41.85
809.787	43.99
809.962	44.47
810.138	44.16
810.313	43.57
810.489	45
810.664	45.3
810.84	45.35
811.015	47.01
811.191	47.25
811.366	47.45
811.542	46.96
811.717	47.12
811.892	46.53
812.068	47.23
812.243	46.87
812.419	47.27
812.594	47.7
812.769	47.98
812.944	45.63
813.12	44.71
813.295	45.26
813.47	44.99
813.645	45.81
813.821	45.66
813.996	44.59
814.171	45.98
814.346	45.26
814.521	45.46
814.697	46.14
814.872	45.81
815.047	46.2
815.222	45
815.397	43.72
815.572	43.2
815.747	43.25
815.922	44.65
816.097	44.49
816.272	44.61
816.447	43.6
816.622	44.16
816.797	44.18
816.972	42.72
817.147	43.71
817.322	44.99
817.496	45.36
817.671	46.67
817.846	45.96
818.021	44.38
818.196	43.99
818.371	43.77
818.545	41.21
818.72	41.87
818.895	42.29
819.069	41.05
819.244	40.51
819.419	40
819.594	38.75
819.768	37.95
819.943	38.27
820.117	37.4
820.292	37.94
820.467	38.8
820.641	37.79
820.816	37.66
820.99	37.8
821.165	37.29
821.339	37.06
821.514	36.65
821.688	36.58
821.863	36.58
822.037	36.64
822.212	36.31
822.386	36.24
822.56	36.13
822.735	36.09
822.909	35.92
823.084	35.92
823.258	35.9
823.432	35.83
823.606	35.63
823.781	35.6
823.955	35.28
824.129	35.47
824.303	35.55
824.478	35.81
824.652	35.65
824.826	36.18
825	36.48
825.174	36.29
825.348	36.41
825.523	36.59
825.697	36.72
825.871	37.54
826.045	37.53
826.219	37.1
826.393	37.5
826.567	37.74
826.741	37.39
826.915	36.92
827.089	37.01
827.263	37.58
827.437	37.94
827.611	37.58
827.784	37.61
827.958	37.32
828.132	37.25
828.306	37.05
828.48	36.93
828.654	37.44
828.827	37.99
829.001	37.65
829.175	37.65
829.349	37.33
829.522	38.22
829.696	38.32
829.87	39.13
830.044	40.22
830.217	41.2
830.391	42.32
830.565	42
830.738	42.27
830.912	43.89
831.085	43.62
831.259	44.86
831.432	44.8
831.606	44.39
831.779	43.19
831.953	42.83
832.126	42.29
832.3	41.36
832.473	41
832.647	41.85
832.82	41
832.994	41.12
833.167	40.48
833.34	40.15
833.514	40.47
833.687	39.55
833.86	39.66
834.034	39.68
834.207	39.75
834.38	39.28
834.553	39.24
834.727	39.2
834.9	39.58
835.073	39.77
835.246	39.29
835.419	39.32
835.593	40.52
835.766	40.73
835.939	40.5
836.112	40.86
836.285	41.31
836.458	40.45
836.631	40.91
836.804	40.91
836.977	41.58
837.15	43.73
837.323	43.02
837.496	43.02
837.669	42.88
837.842	42.33
838.015	42.77
838.188	43.35
838.361	45.5
838.533	44.92
838.706	44.67
838.879	43.45
839.052	42.54
839.225	43.07
839.398	43.9
839.57	44.45
839.743	46.34
839.916	46.3
840.088	48.52
840.261	47.29
840.434	47.94
840.607	47.84
840.779	48.98
840.952	49.28
841.124	49.12
841.297	50.19
841.47	50.77
841.642	49.76
841.815	51.02
841.987	49.86
842.16	50.11
842.332	50.57
842.505	51.14
842.677	51.81
842.85	50.13
843.022	51.76
843.194	52.63
843.367	52.91
843.539	53.58
843.712	52.88
843.884	52.54
844.056	54.29
844.229	56.38
844.401	56.66
844.573	55.41
844.745	57.39
844.918	58.48
845.09	57.53
845.262	57.23
845.434	55.77
845.606	54.67
845.779	55.72
845.951	56.89
846.123	54.43
846.295	57
846.467	58.72
846.639	60.88
846.811	59.21
846.983	58.85
847.155	60.09
847.327	64.87
847.499	65.33
847.671	64.25
847.843	60.93
848.015	61.16
848.187	61.8
848.359	61.7
848.531	60.81
848.703	60.89
848.875	61.45
849.047	56.97
849.218	55.11
849.39	55.78
849.562	61.34
849.734	65.89
849.905	67.33
850.077	62.75
850.249	65.38
850.421	65.13
850.592	67.05
850.764	65.6
850.936	65.87
851.107	64.55
851.279	66.55
851.451	61.6
851.622	59.35
851.794	63.83
851.965	63.68
852.137	60.84
852.308	61.66
852.48	60.58
852.651	59.51
852.823	61.75
852.994	60.24
853.166	62.91
853.337	64.76
853.509	64.74
853.68	62.72
853.851	64.28
854.023	64.24
854.194	60.3
854.365	61.07
854.537	67.74
854.708	71.25
854.879	72.77
855.05	71.05
855.222	72.31
855.393	72.23
855.564	69.74
855.735	69.45
855.906	67.78
856.078	70.38
856.249	68.19
856.42	60.46
856.591	56.59
856.762	58.91
856.933	56.43
857.104	53.79
857.275	54.93
857.446	55.81
857.617	58.75
857.788	60.01
857.959	63.6
858.13	67.03
858.301	69.38
858.472	70.68
858.643	71.34
858.814	68.56
858.985	69.17
859.155	65.14
859.326	63.39
859.497	60.33
859.668	59.91
859.839	57.49
860.009	54.92
860.18	56.63
860.351	56.82
860.522	55.66
860.692	57.92
860.863	51.9
861.034	55.38
861.204	59.17
861.375	56.27
861.546	57.94
861.716	59.35
861.887	60.73
862.057	61.11
862.228	59.84
862.398	58.77
862.569	59.75
862.739	69.38
862.91	68.7
863.08	67.33
863.251	71.77
863.421	72.74
863.592	68.85
863.762	73.19
863.932	68.64
864.103	66.32
864.273	65.74
864.443	65.49
864.614	61.23
864.784	63.14
864.954	62.69
865.125	62.17
865.295	59.7
865.465	63.1
865.635	58.1
865.805	62.52
865.976	64.53
866.146	64.25
866.316	64.7
866.486	66.05
866.656	68.66
866.826	68.55
866.996	71.45
867.166	77.21
867.336	76.56
867.506	80.09
867.676	74.76
867.846	78.01
868.016	81.66
868.186	83.55
868.356	85.77
868.526	77.81
868.696	76.52
868.866	69.9
869.036	63.9
869.206	60.96
869.376	56.93
869.545	59.8
869.715	57.51
869.885	52.45
870.055	50.47
870.224	44.22
870.394	51.46
870.564	54.59
870.734	58.38
870.903	58.95
871.073	59.02
871.243	60.83
871.412	59.01
871.582	58.93
871.751	57.37
871.921	59.56
872.091	63.85
872.26	58.15
872.43	52.07
872.599	51.67
872.769	55.17
872.938	58.28
873.108	60.97
873.277	61.19
873.446	62.4
873.616	60.23
873.785	60.56
873.955	62.49
874.124	64.72
874.293	68.26
874.463	66.18
874.632	62.79
874.801	62.32
874.971	60.57
875.14	60.81
875.309	58.11
875.478	61.94
875.647	59.64
875.817	59.74
875.986	56.99
876.155	57.28
876.324	62.35
876.493	59.26
876.662	57.8
876.831	56.07
877	56.97
877.17	56.28
877.339	60.89
877.508	59.44
877.677	58.85
877.846	60.94
878.015	58.78
878.184	52.76
878.352	53.58
878.521	51.08
878.69	48.3
878.859	48.18
879.028	52.73
879.197	50.14
879.366	49.1
879.534	48.5
879.703	45.22
879.872	45.28
880.041	45
880.21	42.5
880.378	42.44
880.547	43.49
880.716	42.33
880.884	39.85
881.053	39.34
881.222	38.72
881.39	36.74
881.559	35.97
881.727	35.41
881.896	35.15
882.065	36.16
882.233	35.94
882.402	35.37
882.57	35.33
882.739	34.68
882.907	34.38
883.076	34.42
883.244	34.62
883.412	35.48
883.581	35.28
883.749	35.33
883.918	34.41
884.086	34.87
884.254	35.85
884.423	35.56
884.591	36.07
884.759	36.28
884.927	37.69
885.096	39.21
885.264	38.22
885.432	38.88
885.6	39.26
885.769	41.17
885.937	40.45
886.105	40.01
886.273	41.36
886.441	43.88
886.609	45.93
886.777	44.13
886.945	44.11
887.113	48.56
887.281	49.68
887.449	51.2
887.617	48.32
887.785	50.49
887.953	50.94
888.121	49.54
888.289	51.89
888.457	53.23
888.625	56.4
888.793	57.21
888.961	56.99
889.129	57.65
889.296	59.18
889.464	64.71
889.632	64.7
889.8	63.42
889.967	69.33
890.135	64.92
