Data from 2938732__Reflection_03.txt Node
Date: Sun Mar 15 18:46:01 EDT 2015
User: robert
Spectrometer: USB4E03002
Autoset integration time: false
Trigger mode: 4
Integration Time (sec): 1.000000E-1
Scans to average: 10
Electric dark correction enabled: false
Nonlinearity correction enabled: false
Boxcar width: 5
Stray light correction enabled: false
XAxis mode: Wavelengths
Stop averaging: false
Number of Pixels in Spectrum: 3648
>>>>>Begin Spectral Data<<<<<
177.575	-318.07
177.794	644
178.014	771.05
178.233	-3671.43
178.452	-1473.33
178.672	-216.22
178.891	24.55
179.11	45.7
179.33	319.18
179.549	462.5
179.768	207.01
179.987	223.73
180.207	141.36
180.426	136.36
180.645	300.5
180.864	387.57
181.084	262.45
181.303	164.9
181.522	286.44
181.741	133.78
181.96	203.15
182.179	673.33
182.398	-191.84
182.618	-441.27
182.837	-164
183.056	-96.39
183.275	-288.89
183.494	-289.92
183.713	-75.27
183.932	-55.89
184.151	-24
184.37	-23.32
184.589	-157.23
184.808	-544.44
185.027	-726.83
185.246	464.44
185.465	213.06
185.684	110.34
185.903	83.33
186.122	98.33
186.341	128.26
186.56	19.77
186.779	-305.71
186.998	1197.56
187.216	391.98
187.435	311.74
187.654	240.68
187.873	204.83
188.092	226.09
188.311	291.32
188.53	317.24
188.748	427.54
188.967	251.36
189.186	271.53
189.405	131.82
189.623	223.81
189.842	-165.52
190.061	101.2
190.28	155.42
190.498	2100
190.717	-1440
190.936	7.81
191.154	71.06
191.373	63.85
191.592	76.62
191.81	59.26
192.029	72.79
192.248	221.58
192.466	300
192.685	99.61
192.904	217.81
193.122	201.81
193.341	1057.69
193.559	423.97
193.778	496.43
193.996	307.45
194.215	291.98
194.433	202.82
194.652	91.14
194.87	58.89
195.089	79.61
195.307	36.96
195.526	88.8
195.744	43.24
195.963	92.16
196.181	-49.18
196.399	-13.16
196.618	-175.71
196.836	-2233.33
197.055	-87.5
197.273	-1.39
197.491	25.67
197.71	40.61
197.928	85.57
198.146	86.45
198.365	-357.14
198.583	127.5
198.801	725.64
199.019	336.25
199.238	335.29
199.456	334.65
199.674	87.01
199.892	76.85
200.111	-3.57
200.329	201.72
200.547	-30.97
200.765	-54.35
200.983	-97.5
201.202	-92.64
201.42	-14.32
201.638	-22.73
201.856	-26.12
202.074	1.36
202.292	-1.73
202.51	43.55
202.728	45.01
202.946	58.37
203.165	85.99
203.383	99.34
203.601	107.37
203.819	105.88
204.037	75.22
204.255	97.72
204.473	113.37
204.691	230.32
204.909	172.92
205.127	-1057.14
205.345	-140
205.562	-10.22
205.78	-32.88
205.998	-13.66
206.216	-2.37
206.434	-5.99
206.652	-104.84
206.87	-106.49
207.088	36.67
207.306	-27.75
207.523	31.21
207.741	47.9
207.959	-230.68
208.177	9.09
208.395	69.86
208.612	424.56
208.83	184.93
209.048	312.82
209.266	445.28
209.483	189.16
209.701	171.28
209.919	78.63
210.136	107.46
210.354	65.26
210.572	83.24
210.79	57.88
211.007	12.66
211.225	-0.17
211.442	9.27
211.66	2.42
211.878	7.26
212.095	-120.04
212.313	-119.78
212.53	-176.65
212.748	-228.18
212.966	-161.32
213.183	-166.43
213.401	-128.63
213.618	-108.77
213.836	-183.47
214.053	-155.76
214.271	-173.71
214.488	18.37
214.705	-4.06
214.923	-10.85
215.14	-9.27
215.358	-19.39
215.575	-25.83
215.793	-35.34
216.01	-40.04
216.227	-19.83
216.445	-38.08
216.662	-5.06
216.879	-42.23
217.097	-65.55
217.314	-135.23
217.531	-56.76
217.749	-86.89
217.966	-174.43
218.183	-21.63
218.4	-43.3
218.618	-67.78
218.835	-46.02
219.052	-17.52
219.269	1.28
219.487	5.38
219.704	8.93
219.921	11.18
220.138	19.47
220.355	10.32
220.572	-8.86
220.79	-2.18
221.007	-16.85
221.224	-21.17
221.441	-47.67
221.658	-54.16
221.875	-52.94
222.092	-56.47
222.309	-63.51
222.526	-70.2
222.743	-61.55
222.96	-71.32
223.177	-109.66
223.394	-71.96
223.611	-70.19
223.828	-51.07
224.045	-44.91
224.262	-37.65
224.479	-30.56
224.696	-29.05
224.913	-30.26
225.13	-23.54
225.347	-18.92
225.564	-15.35
225.781	-14.86
225.997	-4.91
226.214	-3.71
226.431	-7.24
226.648	-13.67
226.865	-13.28
227.082	-10.55
227.298	-9.15
227.515	-8.04
227.732	-7.26
227.949	-5.33
228.165	-5.57
228.382	-7.74
228.599	-8.22
228.816	-6.33
229.032	-5.22
229.249	-4.17
229.466	-5.26
229.682	-4.43
229.899	-5.26
230.116	-5.08
230.332	-5.42
230.549	-5.7
230.765	-4.79
230.982	-6.01
231.199	-7.03
231.415	-6.09
231.632	-6.57
231.848	-7.87
232.065	-7.07
232.281	-7.55
232.498	-8.95
232.714	-8.82
232.931	-9.28
233.147	-9.19
233.364	-6.68
233.58	-10.23
233.797	-11.46
234.013	-10.49
234.23	-7.69
234.446	-10.89
234.662	-9.26
234.879	-10.44
235.095	-7.81
235.312	-7.78
235.528	-6.37
235.744	-10.6
235.961	-9.2
236.177	-9.98
236.393	-11.39
236.61	-11.03
236.826	-10.41
237.042	-11.61
237.258	-9.88
237.475	-13.46
237.691	-12.35
237.907	-12.56
238.123	-7.23
238.339	-8.25
238.556	-5.33
238.772	-5.18
238.988	-7.22
239.204	-6.1
239.42	-4.05
239.636	-5.29
239.853	-5.36
240.069	-4.92
240.285	-6.02
240.501	-5.96
240.717	-4.19
240.933	-4.85
241.149	-4.69
241.365	-4.35
241.581	-4.58
241.797	-4.25
242.013	-3.87
242.229	-3.72
242.445	-4.13
242.661	-3.61
242.877	-4.59
243.093	-4.96
243.309	-4.75
243.525	-4.8
243.741	-5.02
243.957	-4.5
244.173	-5.53
244.388	-5.2
244.604	-3.96
244.82	-2.93
245.036	-3.21
245.252	-2.38
245.468	-1.54
245.683	-1.74
245.899	-2.08
246.115	-1.54
246.331	-1.77
246.547	-1.08
246.762	-0.64
246.978	-0.83
247.194	-1
247.409	-0.97
247.625	-0.8
247.841	-1.22
248.057	-1.64
248.272	-1.36
248.488	-1.26
248.703	-1.07
248.919	-1.31
249.135	-2.12
249.35	-2.37
249.566	-2.05
249.782	-2.72
249.997	-3.21
250.213	-3.2
250.428	-2.07
250.644	-1.51
250.859	-1.42
251.075	-1.5
251.29	-2.14
251.506	-1.58
251.721	-2.54
251.937	-3.53
252.152	-2.43
252.368	-3
252.583	-2.37
252.798	-2.86
253.014	-3.17
253.229	-3.67
253.445	-4.23
253.66	-4.03
253.875	-4.76
254.091	-4.49
254.306	-3.39
254.521	-4.68
254.737	-3.46
254.952	-4.38
255.167	-5.03
255.383	-5.39
255.598	-5.48
255.813	-4.48
256.028	-4.37
256.244	-3.08
256.459	-3.54
256.674	-4.17
256.889	-4.08
257.104	-3.55
257.32	-3.06
257.535	-2.18
257.75	-1.92
257.965	-1.58
258.18	-1.57
258.395	-1.4
258.61	-1.04
258.826	-0.73
259.041	-0.84
259.256	-0.86
259.471	-0.81
259.686	-0.84
259.901	-0.99
260.116	-0.82
260.331	-0.56
260.546	-0.64
260.761	-0.48
260.976	-0.92
261.191	-1.02
261.406	-0.92
261.621	-0.7
261.836	-0.85
262.05	-0.88
262.265	-1.06
262.48	-1.95
262.695	-2.51
262.91	-2.09
263.125	-2.44
263.34	-2.49
263.555	-2.5
263.769	-2.57
263.984	-3.03
264.199	-2.85
264.414	-2.58
264.629	-2.45
264.843	-2.22
265.058	-1.51
265.273	-1.52
265.488	-2.1
265.702	-2.07
265.917	-1.6
266.132	-1.4
266.346	-1.34
266.561	-1.77
266.776	-2.06
266.99	-2.3
267.205	-2.04
267.42	-2.81
267.634	-3.45
267.849	-3.21
268.063	-3.07
268.278	-2.96
268.492	-3.29
268.707	-2.96
268.922	-2.78
269.136	-2.53
269.351	-1.78
269.565	-1.4
269.78	-0.38
269.994	-0.18
270.209	-0.31
270.423	-0.49
270.637	-0.62
270.852	-0.46
271.066	-0.66
271.281	-0.75
271.495	-0.4
271.709	-0.97
271.924	-0.95
272.138	-1.46
272.353	-1.37
272.567	-1.3
272.781	-1.07
272.996	-1.13
273.21	-0.96
273.424	-1.21
273.638	-1.02
273.853	-1.43
274.067	-0.88
274.281	-1.44
274.495	-2.1
274.71	-2.56
274.924	-2.11
275.138	-2.59
275.352	-2.16
275.566	-2.58
275.781	-2.18
275.995	-2.4
276.209	-2.88
276.423	-3.4
276.637	-2.91
276.851	-1.98
277.065	-1.42
277.279	-1.6
277.493	-0.93
277.707	-1.59
277.921	-1.53
278.135	-1.45
278.349	-1.79
278.563	-1.93
278.777	-1.39
278.991	-1.55
279.205	-2.12
279.419	-1.99
279.633	-2.45
279.847	-2.4
280.061	-1.74
280.275	-1.24
280.489	-1.37
280.703	-1.29
280.917	-0.3
281.131	-0.61
281.344	-0.24
281.558	0.42
281.772	-0.33
281.986	0.03
282.2	0.04
282.414	-0.29
282.627	-0.53
282.841	-0.58
283.055	-0.24
283.269	-0.69
283.482	-0.63
283.696	-1.17
283.91	-1.04
284.123	-0.73
284.337	-0.57
284.551	-0.52
284.764	-0.46
284.978	-0.28
285.192	-0.68
285.405	-0.6
285.619	-0.36
285.833	-0.25
286.046	-0.45
286.26	-0.71
286.473	-0.85
286.687	-0.98
286.9	-0.99
287.114	-1.13
287.327	-1.55
287.541	-1.14
287.754	-1.14
287.968	-1.44
288.181	-1.49
288.395	-1.08
288.608	-0.92
288.822	-0.74
289.035	-0.99
289.248	-1.09
289.462	-0.59
289.675	-0.52
289.889	-0.43
290.102	-0.6
290.315	-0.96
290.529	-0.66
290.742	-0.66
290.955	-0.84
291.169	-0.67
291.382	-0.59
291.595	-0.93
291.808	-1.61
292.022	-1.75
292.235	-2.13
292.448	-2.04
292.661	-1.7
292.875	-2.25
293.088	-1.96
293.301	-2
293.514	-2.1
293.727	-2.58
293.94	-2.44
294.153	-2.03
294.367	-1.77
294.58	-1.91
294.793	-2.07
295.006	-1.86
295.219	-1.85
295.432	-1.7
295.645	-1.52
295.858	-1.43
296.071	-0.86
296.284	-0.83
296.497	-0.86
296.71	-0.89
296.923	-0.19
297.136	-0.08
297.349	0.14
297.562	0.26
297.775	0.19
297.988	0.14
298.201	0.06
298.414	-0.07
298.626	0.01
298.839	0.1
299.052	0.27
299.265	-0.14
299.478	-0.15
299.691	-0.15
299.903	-0.34
300.116	-0.6
300.329	-0.92
300.542	-0.45
300.755	-0.15
300.967	0.08
301.18	0.11
301.393	0.16
301.605	0.51
301.818	0.08
302.031	0.02
302.243	0.48
302.456	0.52
302.669	0.34
302.881	0.07
303.094	-0.05
303.307	-0.09
303.519	-0.21
303.732	-0.4
303.944	-0.48
304.157	-0.17
304.37	-0.85
304.582	-0.86
304.795	-0.79
305.007	-0.18
305.22	0.02
305.432	0.02
305.645	-0.45
305.857	-0.44
306.069	-0
306.282	-0.36
306.494	-0.4
306.707	0.01
306.919	-0.3
307.132	-0.7
307.344	-0.94
307.556	-1.18
307.769	-0.74
307.981	-0.2
308.193	-0.14
308.406	-0.55
308.618	-0.38
308.83	-0.42
309.043	-0.14
309.255	-0.37
309.467	-0.2
309.679	-0.19
309.892	-0.16
310.104	-0.36
310.316	-0.37
310.528	-0.36
310.74	-0.46
310.953	-0.4
311.165	0.11
311.377	-0.09
311.589	0.11
311.801	0.47
312.013	0.43
312.225	0.47
312.437	0.17
312.649	0.03
312.862	-0.22
313.074	0.06
313.286	-0.31
313.498	-1.03
313.71	-0.96
313.922	-0.9
314.134	-1.67
314.346	-1.44
314.558	-1.32
314.77	-1.1
314.982	-1.49
315.193	-1.17
315.405	-1.23
315.617	-0.95
315.829	-0.4
316.041	-0.9
316.253	-0.8
316.465	0.17
316.677	-0.2
316.888	-0.46
317.1	-0.01
317.312	0.88
317.524	0.89
317.736	0.91
317.947	1.13
318.159	0.86
318.371	1.16
318.583	1.17
318.794	0.73
319.006	0.39
319.218	0.57
319.43	-0.06
319.641	-0.59
319.853	-0.17
320.064	0.11
320.276	0.16
320.488	0.67
320.699	1.02
320.911	1.01
321.123	1.01
321.334	1.49
321.546	1.26
321.757	1.82
321.969	1.6
322.18	0.87
322.392	0.79
322.603	0.93
322.815	0.34
323.026	0.82
323.238	1.45
323.449	1.9
323.661	2.54
323.872	2.65
324.083	2.19
324.295	2.51
324.506	2.78
324.718	2.79
324.929	2.83
325.14	3.28
325.352	3.57
325.563	3.56
325.774	3.33
325.986	3.25
326.197	3.73
326.408	4.17
326.62	4.19
326.831	4.66
327.042	4.41
327.253	4.59
327.464	4.96
327.676	4.79
327.887	5.23
328.098	5.21
328.309	4.87
328.52	5.03
328.732	5.05
328.943	5.34
329.154	5.11
329.365	5.39
329.576	5.95
329.787	5.71
329.998	6.19
330.209	5.66
330.42	6.43
330.631	6.84
330.842	6.83
331.053	7.35
331.264	8.08
331.475	8.54
331.686	9.27
331.897	8.69
332.108	9.17
332.319	8.86
332.53	8.94
332.741	8.64
332.952	9.24
333.163	8.79
333.374	8.46
333.585	8.22
333.795	7.9
334.006	7.36
334.217	7.57
334.428	7.49
334.639	7.33
334.849	7.32
335.06	7.45
335.271	6.99
335.482	7.59
335.692	7.73
335.903	7.56
336.114	7.81
336.325	8
336.535	8.34
336.746	8.52
336.957	8.27
337.167	8.54
337.378	8.3
337.589	8.13
337.799	7.87
338.01	7.84
338.22	8.21
338.431	8.36
338.642	8.48
338.852	8.21
339.063	8.15
339.273	8.18
339.484	8.18
339.694	9.06
339.905	9.06
340.115	8.57
340.326	8.71
340.536	8.6
340.746	8.52
340.957	8.46
341.167	8.67
341.378	8.73
341.588	8.87
341.799	8.87
342.009	8.01
342.219	7.92
342.43	8.65
342.64	8.49
342.85	8.23
343.061	8.23
343.271	8.11
343.481	7.78
343.691	7.73
343.902	7.64
344.112	7.39
344.322	7.82
344.532	7.74
344.743	7.62
344.953	7.9
345.163	7.99
345.373	7.84
345.583	7.87
345.793	8.1
346.004	7.97
346.214	8.33
346.424	8.66
346.634	8.73
346.844	9.29
347.054	9.57
347.264	9.68
347.474	9.35
347.684	9.51
347.894	9.43
348.104	9.21
348.314	9.29
348.524	9.37
348.734	9.45
348.944	9.26
349.154	9.37
349.364	9.34
349.574	9.32
349.784	9.52
349.994	9.46
350.204	9.99
350.413	10.18
350.623	10.11
350.833	9.74
351.043	9.62
351.253	9.63
351.463	9.37
351.672	9.22
351.882	9.09
352.092	9.04
352.302	8.69
352.511	8.16
352.721	7.8
352.931	7.83
353.141	8.3
353.35	8.18
353.56	8.24
353.77	8.37
353.979	8.27
354.189	8.1
354.399	8.31
354.608	8.05
354.818	8.5
355.027	8.85
355.237	8.79
355.447	8.52
355.656	8.53
355.866	8.4
356.075	8.68
356.285	8.52
356.494	8.67
356.704	8.68
356.913	9.54
357.123	8.96
357.332	8.85
357.542	8.69
357.751	8.92
357.96	9.01
358.17	9.13
358.379	8.74
358.589	8.98
358.798	9.05
359.007	9.08
359.217	8.57
359.426	9.03
359.635	9.11
359.845	9.35
360.054	9.08
360.263	8.94
360.472	8.8
360.682	8.96
360.891	8.83
361.1	8.56
361.309	8.61
361.519	8.93
361.728	8.74
361.937	8.72
362.146	8.7
362.355	9.02
362.564	9.11
362.774	9.28
362.983	9.19
363.192	9.21
363.401	9.57
363.61	9.65
363.819	9.5
364.028	9.83
364.237	9.83
364.446	9.64
364.655	9.26
364.864	8.93
365.073	8.59
365.282	8.58
365.491	8.4
365.7	8.05
365.909	7.79
366.118	7.96
366.327	7.69
366.536	7.94
366.745	7.9
366.954	8.04
367.162	8.27
367.371	8.65
367.58	8.82
367.789	8.9
367.998	9.16
368.207	9.31
368.415	8.87
368.624	8.62
368.833	8.08
369.042	8.04
369.25	8.03
369.459	7.92
369.668	7.74
369.877	7.43
370.085	7.54
370.294	7.5
370.503	7.44
370.711	7.23
370.92	7.4
371.129	7.84
371.337	7.98
371.546	7.63
371.754	7.83
371.963	7.95
372.171	8.21
372.38	8.36
372.589	8.34
372.797	8.15
373.006	8.36
373.214	8.46
373.423	7.93
373.631	7.99
373.84	8.43
374.048	8.05
374.256	7.75
374.465	7.63
374.673	7.38
374.882	6.95
375.09	6.99
375.298	7.08
375.507	6.84
375.715	7.15
375.923	7.14
376.132	7.17
376.34	7.38
376.548	7.51
376.757	7.18
376.965	7.25
377.173	7.76
377.381	7.8
377.59	7.9
377.798	8
378.006	7.86
378.214	7.94
378.423	7.72
378.631	7.74
378.839	7.87
379.047	8.1
379.255	8.11
379.463	7.8
379.671	7.9
379.879	7.65
380.088	7.83
380.296	7.95
380.504	7.73
380.712	7.84
380.92	7.69
381.128	7.61
381.336	7.6
381.544	7.82
381.752	7.98
381.96	7.85
382.168	8.17
382.376	7.86
382.584	7.75
382.791	7.95
382.999	7.62
383.207	7.56
383.415	7.33
383.623	7.19
383.831	6.87
384.039	6.64
384.247	6.72
384.454	6.64
384.662	6.96
384.87	6.99
385.078	6.83
385.285	7.12
385.493	7.39
385.701	7.56
385.909	7.72
386.116	7.85
386.324	8
386.532	7.96
386.739	8.01
386.947	7.89
387.155	7.74
387.362	7.94
387.57	8
387.778	8
387.985	8.1
388.193	8.14
388.4	8.25
388.608	8.33
388.816	8.15
389.023	8.23
389.231	7.97
389.438	8
389.646	7.8
389.853	7.74
390.061	7.84
390.268	7.91
390.475	7.87
390.683	7.68
390.89	7.64
391.098	7.75
391.305	7.47
391.512	7.58
391.72	7.74
391.927	7.77
392.135	7.69
392.342	7.41
392.549	7.37
392.756	7.45
392.964	7.51
393.171	7.54
393.378	7.59
393.586	7.45
393.793	7.74
394	7.59
394.207	7.6
394.414	7.63
394.622	7.63
394.829	7.55
395.036	7.27
395.243	7.35
395.45	7.23
395.657	7.12
395.864	7.33
396.072	7
396.279	7.22
396.486	7.39
396.693	7.32
396.9	7.38
397.107	7.36
397.314	7.42
397.521	7.17
397.728	7.05
397.935	7.09
398.142	7.14
398.349	7.2
398.556	7.09
398.763	6.99
398.97	7.01
399.177	7.07
399.383	6.98
399.59	6.95
399.797	7.18
400.004	7.26
400.211	7.21
400.418	7.23
400.625	7.29
400.831	7.19
401.038	7.18
401.245	7.19
401.452	7.32
401.658	7.29
401.865	7.49
402.072	7.31
402.279	7.6
402.485	7.9
402.692	7.75
402.899	7.6
403.105	7.76
403.312	7.7
403.519	7.95
403.725	7.96
403.932	8.15
404.138	8.2
404.345	8.32
404.552	8.03
404.758	7.65
404.965	7.7
405.171	7.83
405.378	7.71
405.584	7.71
405.791	7.59
405.997	7.41
406.204	7.25
406.41	7.08
406.617	7.03
406.823	7.09
407.029	7.2
407.236	7.13
407.442	7.24
407.649	7.26
407.855	7.36
408.061	7.34
408.268	7.21
408.474	7.27
408.68	7.23
408.887	7.11
409.093	6.93
409.299	7.02
409.505	7.33
409.712	7.39
409.918	7.41
410.124	7.45
410.33	7.4
410.537	7.47
410.743	7.42
410.949	7.29
411.155	7.36
411.361	7.54
411.567	7.69
411.773	7.49
411.98	7.36
412.186	7.36
412.392	7.05
412.598	6.92
412.804	7.18
413.01	7.08
413.216	7.41
413.422	7.44
413.628	7.35
413.834	7.25
414.04	7.24
414.246	7.12
414.452	7
414.658	7.21
414.864	7.32
415.07	7.3
415.275	7.3
415.481	7.39
415.687	7.49
415.893	7.67
416.099	7.73
416.305	7.76
416.511	7.78
416.716	7.86
416.922	7.96
417.128	7.95
417.334	7.81
417.539	7.9
417.745	7.77
417.951	7.79
418.157	7.78
418.362	7.78
418.568	7.89
418.774	7.98
418.979	8.06
419.185	7.91
419.391	7.99
419.596	8.05
419.802	8.11
420.008	8.13
420.213	8.9
420.419	8.87
420.624	8.87
420.83	8.81
421.035	8.83
421.241	8.83
421.446	8.9
421.652	8.91
421.857	8.94
422.063	8.92
422.268	8.97
422.474	8.14
422.679	8.15
422.885	8.19
423.09	8.08
423.295	8.16
423.501	8.12
423.706	8.08
423.911	8.03
424.117	8
424.322	7.96
424.527	7.97
424.733	8.06
424.938	8.03
425.143	7.92
425.349	7.92
425.554	7.84
425.759	7.96
425.964	8.05
426.169	8.06
426.375	8.01
426.58	8.02
426.785	7.91
426.99	7.89
427.195	7.77
427.4	7.67
427.605	7.68
427.811	7.63
428.016	7.35
428.221	7.19
428.426	7.07
428.631	7.26
428.836	7.38
429.041	7.44
429.246	7.4
429.451	7.6
429.656	7.78
429.861	7.88
430.066	7.88
430.271	7.86
430.476	7.98
430.681	7.96
430.886	7.75
431.09	7.71
431.295	7.74
431.5	7.75
431.705	7.52
431.91	7.42
432.115	7.33
432.32	7.29
432.524	7.43
432.729	7.43
432.934	7.52
433.139	7.63
433.343	7.61
433.548	7.64
433.753	7.68
433.958	8.03
434.162	8.22
434.367	8.41
434.572	8.48
434.776	8.59
434.981	8.65
435.186	8.67
435.39	8.67
435.595	8.79
435.799	8.7
436.004	8.68
436.209	8.55
436.413	8.55
436.618	8.51
436.822	8.48
437.027	8.41
437.231	8.29
437.436	8.21
437.64	8.2
437.845	7.99
438.049	8.05
438.253	8.04
438.458	8.07
438.662	7.95
438.867	7.98
439.071	7.98
439.275	7.99
439.48	7.99
439.684	8.17
439.888	8.16
440.093	8.21
440.297	8.11
440.501	8.11
440.706	7.95
440.91	8.04
441.114	7.98
441.318	7.93
441.523	7.82
441.727	7.88
441.931	7.77
442.135	7.79
442.339	7.82
442.543	7.81
442.748	7.83
442.952	8.01
443.156	8.1
443.36	8.19
443.564	8.2
443.768	8.37
443.972	8.3
444.176	8.23
444.38	8.09
444.584	8.07
444.788	8.15
444.992	8.25
445.196	8.27
445.4	8.15
445.604	8.2
445.808	8.31
446.012	8.22
446.216	8.24
446.42	8.33
446.624	8.37
446.828	8.47
447.032	8.47
447.235	8.45
447.439	8.38
447.643	8.39
447.847	8.37
448.051	8.27
448.254	8.31
448.458	8.47
448.662	8.45
448.866	8.46
449.069	8.47
449.273	8.46
449.477	8.42
449.681	8.47
449.884	8.35
450.088	8.34
450.292	8.36
450.495	8.42
450.699	8.07
450.902	8
451.106	7.91
451.31	7.78
451.513	7.74
451.717	7.67
451.92	7.54
452.124	7.56
452.327	7.52
452.531	7.53
452.734	7.46
452.938	7.69
453.141	7.69
453.345	7.74
453.548	7.84
453.752	7.97
453.955	8.08
454.158	8.11
454.362	8.15
454.565	8.09
454.769	8.06
454.972	8.13
455.175	8.2
455.379	8.24
455.582	8.37
455.785	8.38
455.988	8.22
456.192	8.06
456.395	8.1
456.598	8.13
456.801	8.2
457.005	8.32
457.208	8.17
457.411	7.93
457.614	7.93
457.817	7.84
458.021	7.87
458.224	8.02
458.427	8.1
458.63	8.22
458.833	8.26
459.036	8.25
459.239	8.17
459.442	8.26
459.645	8.35
459.848	8.32
460.051	8.25
460.254	8.16
460.457	8.16
460.66	8.26
460.863	8.22
461.066	8.24
461.269	8.15
461.472	8.25
461.675	8.17
461.878	8.1
462.081	8.17
462.284	8.2
462.486	8.2
462.689	8.22
462.892	8.14
463.095	8.09
463.298	8.03
463.5	8.07
463.703	7.99
463.906	7.93
464.109	7.9
464.311	7.86
464.514	7.98
464.717	8.13
464.92	8.04
465.122	7.89
465.325	7.95
465.528	8.05
465.73	7.99
465.933	8.11
466.135	8.19
466.338	8.27
466.541	8.33
466.743	8.29
466.946	8.08
467.148	8.19
467.351	8.21
467.553	8.14
467.756	8.11
467.958	8.21
468.161	8.23
468.363	8.25
468.566	8.15
468.768	8.01
468.971	8.09
469.173	8.28
469.375	8.13
469.578	8.24
469.78	8.3
469.983	8.18
470.185	8.18
470.387	7.98
470.59	8.04
470.792	8.11
470.994	8.21
471.196	8.19
471.399	7.92
471.601	7.93
471.803	7.78
472.005	7.69
472.208	7.74
472.41	7.68
472.612	7.7
472.814	7.57
473.016	7.64
473.218	7.6
473.421	7.52
473.623	7.74
473.825	7.77
474.027	7.83
474.229	7.99
474.431	7.92
474.633	8.06
474.835	8.22
475.037	8.28
475.239	8.34
475.441	8.39
475.643	8.39
475.845	8.43
476.047	8.41
476.249	8.43
476.451	8.29
476.653	8.42
476.855	8.42
477.057	8.46
477.258	8.55
477.46	8.46
477.662	8.49
477.864	8.53
478.066	8.5
478.268	8.51
478.469	8.56
478.671	8.58
478.873	8.62
479.075	8.61
479.276	8.43
479.478	8.46
479.68	8.5
479.882	8.55
480.083	8.54
480.285	8.52
480.487	8.57
480.688	8.59
480.89	8.57
481.091	8.51
481.293	8.47
481.495	8.49
481.696	8.46
481.898	8.48
482.099	8.52
482.301	8.48
482.502	8.51
482.704	8.54
482.905	8.55
483.107	8.58
483.308	8.58
483.51	8.59
483.711	8.61
483.913	8.63
484.114	8.64
484.315	8.62
484.517	8.65
484.718	8.68
484.92	8.63
485.121	8.61
485.322	8.64
485.524	8.64
485.725	8.64
485.926	8.65
486.127	8.64
486.329	8.65
486.53	8.63
486.731	8.63
486.932	8.59
487.134	8.64
487.335	8.64
487.536	8.67
487.737	8.67
487.938	8.7
488.139	8.64
488.341	8.65
488.542	8.65
488.743	8.65
488.944	8.64
489.145	8.66
489.346	8.59
489.547	8.63
489.748	8.55
489.949	8.53
490.15	8.5
490.351	8.54
490.552	8.52
490.753	8.51
490.954	8.54
491.155	8.57
491.356	8.53
491.557	8.61
491.758	8.6
491.959	8.6
492.159	8.65
492.36	8.64
492.561	8.6
492.762	8.6
492.963	8.59
493.164	8.56
493.364	8.56
493.565	8.52
493.766	8.5
493.967	8.48
494.167	8.43
494.368	8.31
494.569	8.4
494.769	8.53
494.97	8.57
495.171	8.58
495.371	8.61
495.572	8.65
495.773	8.78
495.973	8.82
496.174	8.83
496.375	8.93
496.575	8.93
496.776	8.88
496.976	8.82
497.177	8.73
497.377	8.72
497.578	8.71
497.778	8.63
497.979	8.53
498.179	8.47
498.38	8.39
498.58	8.38
498.78	8.49
498.981	8.45
499.181	8.51
499.382	8.49
499.582	8.47
499.782	8.52
499.983	8.47
500.183	8.44
500.383	8.45
500.584	8.43
500.784	8.42
500.984	8.35
501.184	8.4
501.385	8.34
501.585	8.49
501.785	8.53
501.985	8.5
502.185	8.6
502.386	8.67
502.586	8.67
502.786	8.73
502.986	8.73
503.186	8.7
503.386	8.74
503.586	8.69
503.786	8.7
503.987	8.68
504.187	8.76
504.387	8.74
504.587	8.72
504.787	8.64
504.987	8.59
505.187	8.65
505.387	8.72
505.587	8.66
505.786	8.73
505.986	8.7
506.186	8.67
506.386	8.58
506.586	8.56
506.786	8.63
506.986	8.64
507.186	8.83
507.386	8.92
507.585	8.87
507.785	8.76
507.985	8.83
508.185	8.79
508.384	8.84
508.584	8.86
508.784	8.94
508.984	8.99
509.183	9.04
509.383	8.99
509.583	8.93
509.782	8.95
509.982	9.15
510.182	9.05
510.381	9.16
510.581	9.2
510.781	9.27
510.98	9.28
511.18	9.19
511.379	9.26
511.579	9.24
511.778	9.23
511.978	9.13
512.177	9
512.377	9.08
512.576	9.01
512.776	8.98
512.975	8.9
513.175	8.97
513.374	8.96
513.573	8.95
513.773	8.89
513.972	8.85
514.172	8.96
514.371	9.11
514.57	9.05
514.77	9.03
514.969	9.08
515.168	9.09
515.367	9.01
515.567	9.04
515.766	9.01
515.965	9.07
516.164	9.06
516.364	9.06
516.563	8.98
516.762	9.05
516.961	9.12
517.16	9.12
517.359	9.2
517.559	9.19
517.758	9.27
517.957	9.37
518.156	9.43
518.355	9.48
518.554	9.45
518.753	9.49
518.952	9.53
519.151	9.5
519.35	9.59
519.549	9.55
519.748	9.6
519.947	9.61
520.146	9.51
520.345	9.5
520.544	9.58
520.743	9.69
520.942	9.72
521.141	9.74
521.339	9.82
521.538	9.84
521.737	9.91
521.936	10.01
522.135	9.96
522.333	10.07
522.532	10.1
522.731	10.03
522.93	10.07
523.129	10.05
523.327	10.05
523.526	10.03
523.725	9.97
523.923	9.98
524.122	9.97
524.321	10.05
524.519	10.01
524.718	10.06
524.917	10.09
525.115	10.07
525.314	10.12
525.512	10.13
525.711	10.12
525.909	10.22
526.108	10.25
526.306	10.27
526.505	10.34
526.703	10.38
526.902	10.41
527.1	10.4
527.299	10.42
527.497	10.43
527.696	10.42
527.894	10.47
528.092	10.49
528.291	10.5
528.489	10.47
528.688	10.44
528.886	10.48
529.084	10.48
529.283	10.53
529.481	10.56
529.679	10.57
529.877	10.6
530.076	10.59
530.274	10.54
530.472	10.51
530.67	10.61
530.869	10.63
531.067	10.6
531.265	10.64
531.463	10.68
531.661	10.72
531.859	10.78
532.057	10.75
532.255	10.81
532.454	10.86
532.652	10.93
532.85	10.96
533.048	11.03
533.246	11.08
533.444	11.07
533.642	11.06
533.84	11.02
534.038	11.01
534.236	11.07
534.434	11.05
534.632	11.15
534.83	11.14
535.027	11.1
535.225	11.12
535.423	11.13
535.621	11.17
535.819	11.23
536.017	11.32
536.215	11.34
536.412	11.39
536.61	11.48
536.808	11.47
537.006	11.54
537.203	11.66
537.401	11.76
537.599	11.94
537.797	11.96
537.994	12.09
538.192	12.26
538.39	12.43
538.587	12.65
538.785	12.73
538.983	12.96
539.18	13.15
539.378	13.27
539.575	13.33
539.773	13.43
539.97	13.63
540.168	13.72
540.366	13.77
540.563	13.86
540.761	13.93
540.958	14.02
541.155	14.07
541.353	14.11
541.55	14.2
541.748	14.27
541.945	14.29
542.143	14.35
542.34	14.43
542.537	14.52
542.735	14.6
542.932	14.66
543.129	14.78
543.327	14.94
543.524	15.18
543.721	15.41
543.919	15.77
544.116	16.11
544.313	16.47
544.51	16.91
544.708	17.35
544.905	17.86
545.102	18.28
545.299	18.7
545.496	18.96
545.693	19.16
545.891	19.22
546.088	19.11
546.285	19.06
546.482	18.86
546.679	18.57
546.876	18.37
547.073	17.9
547.27	17.6
547.467	17.27
547.664	16.93
547.861	16.68
548.058	16.35
548.255	16.1
548.452	15.93
548.649	15.79
548.846	15.69
549.043	15.64
549.24	15.71
549.437	15.55
549.633	15.44
549.83	15.37
550.027	15.24
550.224	15.31
550.421	15.34
550.618	15.17
550.814	15.08
551.011	14.89
551.208	14.51
551.405	14.49
551.601	14.37
551.798	14.23
551.995	14.17
552.191	14
552.388	13.9
552.585	13.75
552.781	13.61
552.978	13.54
553.175	13.52
553.371	13.57
553.568	13.43
553.764	13.46
553.961	13.54
554.157	13.53
554.354	13.49
554.55	13.41
554.747	13.39
554.943	13.35
555.14	13.41
555.336	13.34
555.533	13.4
555.729	13.3
555.926	13.31
556.122	13.23
556.318	13.08
556.515	13.18
556.711	13.22
556.907	13.28
557.104	13.38
557.3	13.34
557.496	13.36
557.693	13.44
557.889	13.5
558.085	13.45
558.281	13.39
558.478	13.2
558.674	13.14
558.87	13.06
559.066	13.09
559.262	13.17
559.459	13.15
559.655	13.21
559.851	12.95
560.047	12.99
560.243	12.85
560.439	12.82
560.635	13.06
560.831	13.03
561.027	13.13
561.223	13.07
561.419	12.91
561.615	12.83
561.811	12.84
562.007	12.99
562.203	12.68
562.399	12.85
562.595	12.91
562.791	12.9
562.987	12.88
563.183	12.72
563.379	12.61
563.575	12.71
563.771	12.82
563.966	12.84
564.162	12.75
564.358	12.84
564.554	12.84
564.75	12.94
564.945	12.95
565.141	13.01
565.337	13.09
565.533	13.14
565.728	13.18
565.924	13.15
566.12	13.19
566.315	13.19
566.511	13.25
566.707	13.15
566.902	12.97
567.098	12.89
567.293	12.9
567.489	12.94
567.684	13.01
567.88	12.93
568.076	12.89
568.271	12.79
568.467	12.83
568.662	12.85
568.858	13.01
569.053	13.11
569.248	13.26
569.444	13.2
569.639	13.16
569.835	13.21
570.03	13.21
570.225	13.28
570.421	13.32
570.616	13.32
570.812	13.27
571.007	13.24
571.202	13.18
571.397	13.07
571.593	13.15
571.788	13.09
571.983	13.14
572.178	13.18
572.374	13.18
572.569	13.1
572.764	13.1
572.959	13.06
573.154	13.13
573.35	13.25
573.545	13.32
573.74	13.24
573.935	13.18
574.13	13.16
574.325	13.24
574.52	13.25
574.715	13.45
574.91	13.64
575.105	14.05
575.3	14.22
575.495	14.4
575.69	14.59
575.885	14.93
576.08	15.22
576.275	15.37
576.47	15.51
576.665	15.7
576.86	15.89
577.055	15.93
577.25	15.97
577.444	15.97
577.639	16.12
577.834	16.3
578.029	16.36
578.224	16.49
578.418	16.79
578.613	16.85
578.808	16.81
579.003	16.73
579.197	16.8
579.392	16.69
579.587	16.8
579.781	16.89
579.976	16.69
580.171	16.68
580.365	16.7
580.56	16.43
580.755	16.52
580.949	16.65
581.144	16.52
581.338	16.55
581.533	16.72
581.727	16.67
581.922	16.62
582.116	16.81
582.311	16.69
582.505	16.72
582.7	16.64
582.894	16.59
583.089	16.62
583.283	16.64
583.478	16.69
583.672	16.65
583.866	16.67
584.061	16.57
584.255	16.5
584.449	16.62
584.644	16.62
584.838	16.97
585.032	17
585.226	16.97
585.421	17.2
585.615	17.36
585.809	17.53
586.003	17.71
586.198	17.84
586.392	18.08
586.586	18.28
586.78	18.36
586.974	18.35
587.168	18.32
587.363	18.35
587.557	18.13
587.751	17.91
587.945	17.68
588.139	17.46
588.333	17.29
588.527	17.08
588.721	16.92
588.915	16.81
589.109	16.54
589.303	16.45
589.497	16.41
589.691	16.63
589.885	16.68
590.079	16.59
590.273	16.41
590.466	16.63
590.66	16.61
590.854	16.52
591.048	16.66
591.242	16.9
591.436	17.08
591.629	17.3
591.823	17.37
592.017	17.51
592.211	17.8
592.404	18.18
592.598	17.89
592.792	17.93
592.986	17.9
593.179	17.96
593.373	17.85
593.567	17.74
593.76	17.61
593.954	17.46
594.147	17.37
594.341	17.19
594.535	16.97
594.728	16.75
594.922	16.66
595.115	16.61
595.309	16.39
595.502	16.26
595.696	16.2
595.889	16.14
596.083	16.04
596.276	16.08
596.47	16
596.663	16.05
596.856	16.28
597.05	16.35
597.243	16.4
597.437	16.52
597.63	16.58
597.823	16.77
598.017	16.87
598.21	17.1
598.403	17.02
598.596	17.2
598.79	17.31
598.983	17.27
599.176	17.17
599.369	17.08
599.563	17.06
599.756	17.03
599.949	16.75
600.142	16.59
600.335	16.35
600.528	16.16
600.722	16.07
600.915	15.94
601.108	15.69
601.301	15.76
601.494	15.83
601.687	15.83
601.88	15.7
602.073	15.66
602.266	15.68
602.459	15.57
602.652	15.78
602.845	15.67
603.038	15.7
603.231	16.03
603.424	15.83
603.617	15.8
603.809	15.69
604.002	15.73
604.195	15.77
604.388	15.81
604.581	15.91
604.774	15.8
604.966	15.92
605.159	15.92
605.352	15.74
605.545	15.94
605.737	16.12
605.93	16.29
606.123	16.56
606.316	16.72
606.508	16.87
606.701	17.18
606.894	17.56
607.086	17.83
607.279	18.15
607.471	18.71
607.664	19.17
607.857	19.8
608.049	20.36
608.242	21.07
608.434	22.4
608.627	23.79
608.819	25.33
609.012	27.27
609.204	29.55
609.397	31.87
609.589	34.41
609.782	37.12
609.974	39.68
610.166	42.47
610.359	45.18
610.551	47.46
610.743	49.58
610.936	51.49
611.128	52.7
611.32	53.39
611.513	53.8
611.705	53.51
611.897	53.07
612.09	52.4
612.282	51.6
612.474	50.05
612.666	48.79
612.858	47.41
613.051	46.08
613.243	44.86
613.435	43.66
613.627	42.23
613.819	41.26
614.011	40.17
614.203	38.89
614.395	37.54
614.588	36.84
614.78	35.63
614.972	34.2
615.164	32.66
615.356	31.6
615.548	30.49
615.74	29.69
615.932	28.56
616.124	27.54
616.315	26.87
616.507	25.98
616.699	25.08
616.891	24.25
617.083	23.83
617.275	23.32
617.467	22.61
617.659	22.04
617.85	21.54
618.042	21.41
618.234	20.95
618.426	20.72
618.618	20.54
618.809	20.17
619.001	19.95
619.193	19.81
619.384	19.75
619.576	19.85
619.768	19.97
619.959	20.17
620.151	20.2
620.343	20.51
620.534	20.41
620.726	20.65
620.917	21.03
621.109	21.27
621.301	21.34
621.492	21.45
621.684	21.32
621.875	21.7
622.067	21.68
622.258	21.71
622.45	21.59
622.641	21.54
622.832	21.44
623.024	21.54
623.215	21.53
623.407	21.63
623.598	21.63
623.789	21.66
623.981	21.5
624.172	21.56
624.363	21.54
624.555	21.64
624.746	21.81
624.937	21.72
625.129	21.44
625.32	21.52
625.511	21.3
625.702	21.28
625.893	21.26
626.085	21.16
626.276	21.02
626.467	21.13
626.658	21.04
626.849	20.87
627.04	20.89
627.231	20.82
627.422	20.89
627.614	20.97
627.805	21.03
627.996	21.22
628.187	21.42
628.378	21.62
628.569	21.78
628.76	22.07
628.951	22.5
629.142	22.85
629.332	23.4
629.523	23.56
629.714	23.85
629.905	24.13
630.096	24.63
630.287	24.75
630.478	25.11
630.669	25.1
630.859	24.95
631.05	24.7
631.241	24.56
631.432	23.95
631.623	23.7
631.813	23.38
632.004	22.95
632.195	22.2
632.385	21.49
632.576	20.73
632.767	20.18
632.957	19.73
633.148	19.47
633.339	18.86
633.529	18.89
633.72	18.72
633.91	18.48
634.101	18.25
634.292	18.04
634.482	17.88
634.673	17.65
634.863	17.62
635.054	17.64
635.244	17.34
635.435	17.68
635.625	17.42
635.815	17.02
636.006	17.12
636.196	16.82
636.387	16.72
636.577	16.9
636.767	16.82
636.958	16.81
637.148	16.74
637.338	16.67
637.529	16.63
637.719	16.49
637.909	16.57
638.099	16.53
638.29	16.58
638.48	16.46
638.67	16.42
638.86	16.5
639.05	16.35
639.241	16.1
639.431	16.32
639.621	15.9
639.811	16.39
640.001	16.42
640.191	16.14
640.381	16.04
640.571	16.02
640.761	15.95
640.951	16.2
641.141	16.23
641.331	16.73
641.521	16.71
641.711	16.84
641.901	16.47
642.091	16.8
642.281	17.07
642.471	17.46
642.661	17.62
642.851	18.04
643.041	18.01
643.231	18.27
643.42	18.39
643.61	18.45
643.8	18.43
643.99	18.47
644.18	18.12
644.369	18.01
644.559	18.06
644.749	18.14
644.939	18.03
645.128	18.09
645.318	17.8
645.508	17.79
645.697	17.75
645.887	17.55
646.076	17.36
646.266	17.26
646.456	17.42
646.645	17.57
646.835	17.6
647.024	17.46
647.214	17.7
647.403	17.86
647.593	17.48
647.782	17.84
647.972	18.07
648.161	18.65
648.351	19.02
648.54	19.29
648.73	19.24
648.919	19.5
649.108	19.39
649.298	19.27
649.487	19.48
649.677	19.57
649.866	19.4
650.055	19.57
650.244	19.54
650.434	19.67
650.623	19.51
650.812	19.92
651.002	19.84
651.191	20
651.38	19.85
651.569	19.7
651.758	19.88
651.947	19.94
652.137	20.03
652.326	19.96
652.515	19.64
652.704	19.42
652.893	18.92
653.082	18.69
653.271	18.47
653.46	18.56
653.649	18.52
653.838	18.61
654.027	18.46
654.216	17.99
654.405	17.83
654.594	17.79
654.783	17.67
654.972	17.62
655.161	17.64
655.35	17.78
655.539	17.69
655.728	17.52
655.916	16.9
656.105	16.91
656.294	17.33
656.483	17.46
656.672	17.66
656.86	17.83
657.049	18.08
657.238	18.08
657.427	17.9
657.615	17.68
657.804	17.99
657.993	18.55
658.181	18.46
658.37	18.47
658.559	18.53
658.747	18.47
658.936	18.79
659.125	18.61
659.313	18.76
659.502	19.05
659.69	19.13
659.879	18.96
660.067	18.77
660.256	18.81
660.444	18.73
660.633	18.52
660.821	18.55
661.01	18.34
661.198	18.36
661.387	18.39
661.575	18.17
661.763	18.29
661.952	18.43
662.14	18.6
662.328	18.69
662.517	18.98
662.705	19.19
662.893	19.5
663.082	19.48
663.27	19.52
663.458	19.01
663.646	19.23
663.834	19.26
664.023	19.16
664.211	18.91
664.399	19.15
664.587	18.87
664.775	18.63
664.963	18.12
665.152	18.09
665.34	18.01
665.528	18.65
665.716	18.82
665.904	18.53
666.092	18.49
666.28	18.64
666.468	18.25
666.656	18.35
666.844	18.57
667.032	18.62
667.22	19.04
667.408	19.2
667.596	18.96
667.784	18.79
667.971	18.74
668.159	18.45
668.347	18.4
668.535	18.36
668.723	18.69
668.911	18.62
669.098	18.59
669.286	18.33
669.474	18.26
669.662	18.63
669.849	18.88
670.037	19.5
670.225	20.05
670.413	20.02
670.6	20.19
670.788	19.89
670.976	19.7
671.163	19.96
671.351	19.72
671.538	19.55
671.726	19.33
671.913	19.12
672.101	18.82
672.289	18.51
672.476	18.48
672.664	18.49
672.851	18.31
673.039	18.82
673.226	18.8
673.413	18.88
673.601	18.87
673.788	18.68
673.976	18.65
674.163	18.88
674.35	19.06
674.538	19.22
674.725	19.03
674.912	19.32
675.1	19.36
675.287	19.44
675.474	19.35
675.662	19.72
675.849	20.12
676.036	19.8
676.223	20.05
676.411	19.73
676.598	19.8
676.785	20.02
676.972	19.88
677.159	19.87
677.346	19.53
677.533	19.88
677.721	19.73
677.908	19.4
678.095	19.58
678.282	19.59
678.469	19.73
678.656	19.24
678.843	19.41
679.03	19.76
679.217	19.48
679.404	19.85
679.591	19.55
679.778	19.81
679.964	19.81
680.151	20.05
680.338	19.88
680.525	19.65
680.712	19.98
680.899	19.88
681.086	19.54
681.272	19.64
681.459	19.42
681.646	19.52
681.833	19.2
682.02	19.58
682.206	19.4
682.393	19.24
682.58	19.44
682.766	19.75
682.953	19.59
683.14	19.7
683.326	19.53
683.513	19.65
683.7	19.64
683.886	19.07
684.073	18.66
684.259	18.64
684.446	18.56
684.632	18.56
684.819	18.1
685.005	18.5
685.192	18.61
685.378	18.91
685.565	19.19
685.751	19.31
685.938	20.38
686.124	20.55
686.31	20.78
686.497	21.54
686.683	22.12
686.87	22.36
687.056	22.42
687.242	22.27
687.429	22.15
687.615	22.11
687.801	22.32
687.987	22.09
688.174	21.93
688.36	21.8
688.546	21.06
688.732	21
688.918	20.84
689.105	20.52
689.291	20.4
689.477	20.18
689.663	19.81
689.849	19.53
690.035	19.62
690.221	19.4
690.407	19.3
690.593	19.55
690.779	19.01
690.965	19.25
691.151	19.4
691.337	19.67
691.523	19.82
691.709	20.28
691.895	20.38
692.081	20.04
692.267	20.34
692.453	20.71
692.639	20.54
692.825	20.96
693.011	21
693.196	20.99
693.382	20.63
693.568	20.83
693.754	20.92
693.94	20.87
694.125	21.4
694.311	21.81
694.497	21.2
694.682	21.34
694.868	20.95
695.054	20.96
695.239	20.96
695.425	20.97
695.611	20.52
695.796	20.15
695.982	19.81
696.168	19.2
696.353	18.8
696.539	18.8
696.724	18.72
696.91	18.78
697.095	18.59
697.281	18.31
697.466	18.4
697.652	18.6
697.837	18.53
698.023	18.51
698.208	18.46
698.393	18.39
698.579	18.53
698.764	18.6
698.949	18.71
699.135	18.82
699.32	19.08
699.505	19.19
699.691	19.27
699.876	19.41
700.061	19.61
700.246	20.03
700.432	20.08
700.617	20.13
700.802	20.21
700.987	20.28
701.172	19.89
701.358	19.59
701.543	18.97
701.728	19.25
701.913	19.05
702.098	19.54
702.283	19.21
702.468	19.15
702.653	19.17
702.838	18.89
703.023	19.27
703.208	19.69
703.393	20.03
703.578	21.33
703.763	21.27
703.948	21.69
704.133	21.64
704.318	22.89
704.503	23.87
704.688	24.8
704.873	25.51
705.057	25.82
705.242	26.94
705.427	27.75
705.612	27.64
705.797	28.38
705.981	29.1
706.166	29.83
706.351	30.13
706.536	30.49
706.72	30.81
706.905	31.44
707.09	31.87
707.274	31.62
707.459	31.4
707.644	32.57
707.828	32.91
708.013	33.44
708.197	33.35
708.382	33.14
708.567	33.32
708.751	32.91
708.936	32.04
709.12	31.62
709.305	31.71
709.489	31.76
709.673	30.77
709.858	30.07
710.042	29.28
710.227	29.25
710.411	28.87
710.596	28.64
710.78	28.49
710.964	29.43
711.149	29.27
711.333	29.3
711.517	29.18
711.702	29.31
711.886	29.26
712.07	28.93
712.254	28.32
712.438	28.03
712.623	27.26
712.807	26.92
712.991	25.87
713.175	25.43
713.359	24.62
713.544	24.49
713.728	23.75
713.912	23.11
714.096	22.76
714.28	22.2
714.464	21.77
714.648	21.59
714.832	21.24
715.016	21
715.2	20.76
715.384	20.72
715.568	20.49
715.752	20.29
715.936	20.11
716.12	19.72
716.304	20.16
716.488	20.06
716.671	19.57
716.855	19.38
717.039	19.49
717.223	19.43
717.407	19.28
717.59	19.32
717.774	18.88
717.958	18.85
718.142	19.39
718.325	18.41
718.509	18.33
718.693	18.54
718.877	18.92
719.06	18.45
719.244	18.86
719.428	18.62
719.611	18.06
719.795	18.86
719.978	19.34
720.162	19.44
720.345	20.3
720.529	21.04
720.713	21.19
720.896	20.78
721.08	20.68
721.263	20.86
721.446	20.83
721.63	20.81
721.813	21.07
721.997	20.39
722.18	19.51
722.364	19.26
722.547	18.39
722.73	18.03
722.914	18.22
723.097	18.58
723.28	17.98
723.464	18.23
723.647	17.92
723.83	17.33
724.013	17.26
724.197	18.02
724.38	17.71
724.563	18.12
724.746	20
724.929	20.4
725.112	20.13
725.296	20.29
725.479	20.27
725.662	20.69
725.845	20.64
726.028	20.82
726.211	20.65
726.394	21.13
726.577	20.5
726.76	19.41
726.943	19.37
727.126	19.93
727.309	19.93
727.492	19.85
727.675	19.51
727.858	20.11
728.041	20.07
728.224	19.93
728.407	19.29
728.589	20.22
728.772	19.66
728.955	19.13
729.138	18.78
729.321	18.56
729.503	19.04
729.686	19.51
729.869	19.16
730.052	19.14
730.234	18.69
730.417	19.23
730.6	18.3
730.782	18.41
730.965	18.82
731.148	19.14
731.33	19.09
731.513	18.77
731.695	18.55
731.878	18.09
732.061	18.61
732.243	19.14
732.426	19.26
732.608	19.46
732.791	19.36
732.973	18.94
733.156	19.03
733.338	19.21
733.52	19.03
733.703	19.14
733.885	19.84
734.068	19.84
734.25	19.3
734.432	19.35
734.615	19.66
734.797	19.67
734.979	20.69
735.162	20.52
735.344	20.64
735.526	21.2
735.708	21.63
735.891	21.44
736.073	21.13
736.255	21.97
736.437	22.06
736.619	22.26
736.802	23.02
736.984	22.59
737.166	22.26
737.348	21.76
737.53	21.2
737.712	20.79
737.894	20.8
738.076	21
738.258	21.13
738.44	21.3
738.622	21.82
738.804	21.36
738.986	21.33
739.168	21.47
739.35	21.33
739.532	21.88
739.714	22.2
739.896	22.37
740.078	22.66
740.259	22.3
740.441	22.02
740.623	21.76
740.805	21.53
740.987	22.05
741.168	21.72
741.35	22.58
741.532	21.78
741.714	21.74
741.895	21.86
742.077	21.79
742.259	21.79
742.44	22.16
742.622	21.76
742.804	22.21
742.985	21.63
743.167	21.82
743.348	21.69
743.53	22.12
743.711	21.9
743.893	22.64
744.075	22.79
744.256	23.66
744.438	23.3
744.619	23.59
744.8	23.58
744.982	23.59
745.163	23.2
745.345	23.01
745.526	23.09
745.707	23
745.889	21.01
746.07	20.98
746.252	20.91
746.433	21.04
746.614	20.56
746.795	20.48
746.977	20.54
747.158	21.85
747.339	22.24
747.52	22.48
747.702	22.36
747.883	23.26
748.064	23
748.245	21.3
748.426	21.14
748.607	20.82
748.788	20.56
748.97	20.16
749.151	19.19
749.332	19.26
749.513	18.97
749.694	19.13
749.875	18.67
750.056	19.31
750.237	20.64
750.418	21.62
750.599	22.1
750.78	22.5
750.96	23.45
751.141	23.48
751.322	23.34
751.503	24.09
751.684	24.23
751.865	24.52
752.046	23.91
752.226	24.21
752.407	23.27
752.588	22.9
752.769	22.8
752.949	22.09
753.13	22.13
753.311	22.57
753.492	22.42
753.672	22.85
753.853	22.57
754.034	22.83
754.214	21.58
754.395	21.74
754.575	22.4
754.756	22.99
754.937	22.82
755.117	23.33
755.298	22.18
755.478	21.74
755.659	21.12
755.839	21.49
756.02	20.53
756.2	21.6
756.381	20.64
756.561	20.67
756.741	19.87
756.922	19.98
757.102	19.4
757.283	19.68
757.463	20.48
757.643	20.13
757.823	19.71
758.004	20.11
758.184	18.8
758.364	19.09
758.545	19.24
758.725	18.11
758.905	18.32
759.085	18.51
759.265	17.73
759.446	16.17
759.626	17.09
759.806	17.19
759.986	16.32
760.166	16.7
760.346	16.08
760.526	15.04
760.706	16.33
760.886	16.32
761.066	16.14
761.246	17.12
761.426	17.61
761.606	16.67
761.786	16.8
761.966	16.91
762.146	17.24
762.326	18.56
762.506	18.55
762.686	18.52
762.866	17.79
763.046	17.72
763.225	17.76
763.405	17.52
763.585	18.35
763.765	18.1
763.945	18.39
764.124	18.63
764.304	18.38
764.484	18.73
764.664	18.15
764.843	18.82
765.023	19.32
765.203	18.82
765.382	18.91
765.562	18.62
765.741	19.35
765.921	20.14
766.101	20.16
766.28	19.77
766.46	20.05
766.639	21.01
766.819	21.38
766.998	21.05
767.178	21.26
767.357	21.9
767.537	21.79
767.716	22
767.896	20.93
768.075	20.64
768.254	21.2
768.434	21.22
768.613	20.44
768.792	19.15
768.972	19.33
769.151	19.51
769.33	19.02
769.51	19.03
769.689	18.92
769.868	20.5
770.047	20.46
770.226	20.6
770.406	20.18
770.585	20.93
770.764	21.63
770.943	21.63
771.122	22.47
771.301	22.82
771.48	21.99
771.66	21.09
771.839	20.79
772.018	21.42
772.197	21.67
772.376	22
772.555	21.9
772.734	21.99
772.913	22.4
773.092	24.03
773.271	24.72
773.449	25.11
773.628	25.64
773.807	24.41
773.986	23.77
774.165	23.29
774.344	22.98
774.523	23.31
774.701	23.16
774.88	23.42
775.059	21.57
775.238	21.23
775.417	21.36
775.595	22.6
775.774	23.79
775.953	24.46
776.131	23.26
776.31	23.12
776.489	21.73
776.667	21.97
776.846	20.39
777.025	20.01
777.203	19.51
777.382	20.34
777.56	18.35
777.739	18.69
777.917	17.71
778.096	18.92
778.274	19.49
778.453	19.95
778.631	19.44
778.81	20.26
778.988	20.95
779.166	20.93
779.345	21.48
779.523	21.48
779.702	21.34
779.88	21.69
780.058	21.09
780.237	20.19
780.415	21.44
780.593	21.19
780.771	21.19
780.95	20.33
781.128	21.68
781.306	20.3
781.484	21.63
781.662	20.09
781.841	20.12
782.019	21.52
782.197	23.51
782.375	22.57
782.553	22.25
782.731	21.62
782.909	21.71
783.087	20.13
783.265	20.69
783.443	20.08
783.621	20.87
783.799	20.57
783.977	20.27
784.155	18.68
784.333	19.31
784.511	21.24
784.689	21.5
784.867	21.06
785.045	22.99
785.223	22.84
785.4	22.44
785.578	21.82
785.756	22.54
785.934	22.39
786.112	22.34
786.289	21.57
786.467	22.67
786.645	23.25
786.823	24.05
787	22.05
787.178	20.5
787.356	20.72
787.533	21.86
787.711	21.95
787.889	22.01
788.066	21.75
788.244	21.38
788.421	18.99
788.599	19.31
788.776	18.87
788.954	20.08
789.131	21.26
789.309	20.9
789.486	20.71
789.664	20.66
789.841	19.61
790.019	18.78
790.196	20.12
790.373	20.39
790.551	20.41
790.728	21.72
790.906	22.74
791.083	19.99
791.26	20.05
791.437	19.41
791.615	17.98
791.792	19.41
791.969	21.52
792.146	20.7
792.324	20.85
792.501	20.16
792.678	18.41
792.855	15.9
793.032	18.59
793.209	18.05
793.387	17.53
793.564	16.62
793.741	16.4
793.918	16.05
794.095	16.23
794.272	15.7
794.449	16.04
794.626	16.28
794.803	16.94
794.98	17.3
795.157	18.16
795.334	18.46
795.511	20.37
795.688	19.13
795.864	18.04
796.041	16.52
796.218	16.99
796.395	15.66
796.572	15.88
796.749	15.06
796.925	14.07
797.102	14.79
797.279	14.59
797.456	15.1
797.632	14.5
797.809	16.02
797.986	18.24
798.162	18.27
798.339	19.53
798.516	19.93
798.692	21.32
798.869	23.16
799.046	21.91
799.222	22.95
799.399	22.82
799.575	23.1
799.752	21.98
799.928	20.91
800.105	20.78
800.281	19.31
800.458	19.99
800.634	19.68
800.811	20.08
800.987	19.56
801.163	19.83
801.34	18.01
801.516	19.65
801.692	18.63
801.869	18.47
802.045	18.77
802.221	20.07
802.398	19.7
802.574	18.99
802.75	18.3
802.926	19.83
803.103	18.7
803.279	19.83
803.455	18.57
803.631	19.4
803.807	18.91
803.983	19.05
804.16	19.76
804.336	16.87
804.512	16.28
804.688	15.35
804.864	16.08
805.04	15.72
805.216	16.3
805.392	14.8
805.568	13.81
805.744	15.1
805.92	13.14
806.096	13.4
806.272	11.86
806.448	11.87
806.623	11.07
806.799	8.75
806.975	9.16
807.151	6.13
807.327	8.39
807.503	9.71
807.678	9.43
807.854	10.58
808.03	7.64
808.206	10.84
808.381	10.42
808.557	12.45
808.733	12.71
808.908	12.8
809.084	14.28
809.26	12.7
809.435	12.8
809.611	12.77
809.787	13.91
809.962	16.73
810.138	16.01
810.313	16.66
810.489	16.46
810.664	17.8
810.84	15.99
811.015	14.61
811.191	15.56
811.366	15.06
811.542	14.7
811.717	13.78
811.892	12.05
812.068	11.73
812.243	11.22
812.419	10.1
812.594	9.24
812.769	10.32
812.944	9.65
813.12	8.87
813.295	9.86
813.47	9.86
813.645	7.13
813.821	7.11
813.996	7.9
814.171	7.83
814.346	8.29
814.521	7.64
814.697	8.67
814.872	10.29
815.047	11.09
815.222	11.49
815.397	8.35
815.572	11.19
815.747	11.72
815.922	9.63
816.097	11.84
816.272	11.18
816.447	10.78
816.622	10.6
816.797	14.1
816.972	12.1
817.147	11.46
817.322	13.11
817.496	11.16
817.671	11.52
817.846	12.96
818.021	10.59
818.196	9.44
818.371	10.12
818.545	12.35
818.72	9.85
818.895	12.08
819.069	10.2
819.244	11.75
819.419	14.76
819.594	13.57
819.768	14.98
819.943	15.27
820.117	16.98
820.292	17.24
820.467	18.03
820.641	17.53
820.816	17.56
820.99	18.33
821.165	18.36
821.339	17.8
821.514	17.89
821.688	17.78
821.863	17.87
822.037	17.68
822.212	17.4
822.386	16.64
822.56	16.7
822.735	16.75
822.909	16.74
823.084	16.56
823.258	16.12
823.432	16.25
823.606	16.35
823.781	16.26
823.955	16.44
824.129	16.58
824.303	16.8
824.478	16.79
824.652	16.69
824.826	16.51
825	16.68
825.174	17.36
825.348	16.88
825.523	16.58
825.697	16.18
825.871	15.86
826.045	16.31
826.219	16.04
826.393	16.94
826.567	16.99
826.741	16.98
826.915	16.9
827.089	17.45
827.263	17.84
827.437	16.84
827.611	17.59
827.784	17.16
827.958	16.23
828.132	15.63
828.306	14.74
828.48	14.23
828.654	13.46
828.827	12.33
829.001	10.8
829.175	10.34
829.349	11.84
829.522	10.22
829.696	10.04
829.87	10.65
830.044	11.94
830.217	11.96
830.391	10.2
830.565	11.3
830.738	12.38
830.912	13.62
831.085	11.12
831.259	8.87
831.432	9.81
831.606	10.36
831.779	11.31
831.953	9.87
832.126	8.75
832.3	10.84
832.473	11.26
832.647	13.84
832.82	14.6
832.994	15.63
833.167	15.96
833.34	15.93
833.514	15.61
833.687	14.34
833.86	15.55
834.034	16.35
834.207	16.69
834.38	17.04
834.553	15.21
834.727	14.63
834.9	15.22
835.073	16.12
835.246	15.41
835.419	15.43
835.593	16.14
835.766	15.83
835.939	15.66
836.112	16.6
836.285	16.04
836.458	17.66
836.631	17.32
836.804	16.98
836.977	16.38
837.15	19.97
837.323	21.03
837.496	22.42
837.669	19.55
837.842	23.05
838.015	21.23
838.188	21.57
838.361	17.93
838.533	18.24
838.706	18.19
838.879	16.36
839.052	13.95
839.225	12.63
839.398	9.76
839.57	12
839.743	4.6
839.916	7.09
840.088	10.05
840.261	13.53
840.434	13.73
840.607	14.87
840.779	16.05
840.952	15.28
841.124	15.47
841.297	14.65
841.47	14.64
841.642	17.65
841.815	15.89
841.987	13.01
842.16	12.16
842.332	12.41
842.505	10.25
842.677	11.76
842.85	9.26
843.022	9.7
843.194	13.77
843.367	17.22
843.539	15.15
843.712	13.96
843.884	11.3
844.056	10.36
844.229	13.51
844.401	21.49
844.573	21.45
844.745	22.24
844.918	17.49
845.09	16.19
845.262	12.48
845.434	16.84
845.606	19.88
845.779	22.1
845.951	23.31
846.123	18.16
846.295	8.84
846.467	6.95
846.639	6.73
846.811	15.53
846.983	15.83
847.155	19.36
847.327	13.95
847.499	11.58
847.671	7.85
847.843	6.52
848.015	5.32
848.187	6.13
848.359	8.39
848.531	9
848.703	5.84
848.875	1.7
849.047	0.63
849.218	1.99
849.39	-2.66
849.562	3.19
849.734	-0.46
849.905	-1.76
850.077	-0.32
850.249	-1.87
850.421	-0.42
850.592	-0.7
850.764	4.55
850.936	-0
851.107	1.35
851.279	1.86
851.451	-4.08
851.622	1.64
851.794	4.45
851.965	4.35
852.137	-4.4
852.308	-4.91
852.48	-4.09
852.651	-4.46
852.823	-0.04
852.994	-2.06
853.166	0.99
853.337	7.72
853.509	11.75
853.68	8.7
853.851	9.74
854.023	18.08
854.194	18.54
854.365	18.34
854.537	15.2
854.708	11.57
854.879	16.34
855.05	20.16
855.222	15.26
855.393	17.34
855.564	29.12
855.735	27.15
855.906	23.5
856.078	21.93
856.249	14.73
856.42	11.65
856.591	12.64
856.762	11.35
856.933	8.6
857.104	11.66
857.275	2.91
857.446	-6.82
857.617	-1.29
857.788	2.92
857.959	14.11
858.13	18.7
858.301	24.99
858.472	29.03
858.643	27.09
858.814	26.66
858.985	21.77
859.155	27.06
859.326	29.54
859.497	25.94
859.668	23.64
859.839	16.58
860.009	16.48
860.18	3.45
860.351	0.45
860.522	9.11
860.692	7.3
860.863	16.86
861.034	6.29
861.204	-7.6
861.375	-11.93
861.546	-5.28
861.716	-4.43
861.887	-0.05
862.057	16.61
862.228	15.62
862.398	13.24
862.569	18.48
862.739	8.42
862.91	10.74
863.08	20.64
863.251	27.13
863.421	23.34
863.592	27.46
863.762	20.8
863.932	15.02
864.103	18.05
864.273	14.17
864.443	8.5
864.614	11.34
864.784	16.67
864.954	14.89
865.125	4.37
865.295	6.94
865.465	-2.85
865.635	-1.07
865.805	1.82
865.976	1.6
866.146	2.95
866.316	6.08
866.486	-0.69
866.656	0.35
866.826	-3.17
866.996	6.4
867.166	2.22
867.336	15.1
867.506	17.53
867.676	16.91
867.846	14.8
868.016	10.74
868.186	5.69
868.356	7.05
868.526	-2.33
868.696	7.06
868.866	13.33
869.036	15.79
869.206	11.55
869.376	11.53
869.545	9
869.715	13.01
869.885	14.93
870.055	15.74
870.224	16.88
870.394	15.46
870.564	11.99
870.734	6.75
870.903	0.48
871.073	-2.84
871.243	-13.51
871.412	-2.39
871.582	-1.87
871.751	-3.61
871.921	-0.3
872.091	-2.59
872.26	5.85
872.43	12.45
872.599	11.55
872.769	15.82
872.938	20.51
873.108	28.48
873.277	14.92
873.446	11.14
873.616	11.85
873.785	20.48
873.955	30.26
874.124	24.85
874.293	12.41
874.463	19.09
874.632	18.08
874.801	8.21
874.971	1.05
875.14	3.23
875.309	5.24
875.478	3.03
875.647	-9.55
875.817	-17.17
875.986	-12.28
876.155	-10.35
876.324	-32.22
876.493	-35.84
876.662	-33.54
876.831	-35.64
877	-32.5
877.17	-25.04
877.339	-21.87
877.508	-13.9
877.677	0.43
877.846	1.4
878.015	4.35
878.184	18.09
878.352	18.63
878.521	20.67
878.69	25.15
878.859	29.21
879.028	22.59
879.197	20.78
879.366	15.76
879.534	12.8
879.703	11.35
879.872	11.65
880.041	10.05
880.21	7.83
880.378	8.12
880.547	7.47
880.716	6.3
880.884	8.71
881.053	10.1
881.222	12.87
881.39	13.15
881.559	11.94
881.727	11.34
881.896	10.78
882.065	11.71
882.233	11.85
882.402	11.94
882.57	11.71
882.739	12
882.907	12.15
883.076	10.86
883.244	10.26
883.412	10.85
883.581	11.78
883.749	11.56
883.918	11.24
884.086	11.54
884.254	11.56
884.423	11.01
884.591	9.54
884.759	7.85
884.927	7.28
885.096	8.45
885.264	8.92
885.432	8.5
885.6	8.61
885.769	8.85
885.937	8.11
886.105	6.41
886.273	7.13
886.441	9.34
886.609	8.58
886.777	9.11
886.945	6.28
887.113	2.86
887.281	0.32
887.449	-0.89
887.617	-1.71
887.785	-7.91
887.953	-8.02
888.121	-11.75
888.289	-15.68
888.457	-12.2
888.625	-7.59
888.793	-7.52
888.961	-5.34
889.129	-14.15
889.296	-15.1
889.464	-17.68
889.632	-9.7
889.8	-11.7
889.967	-8.22
890.135	-7.85
