Data from 2938849__Reflection_02.txt Node
Date: Wed Mar 11 13:25:30 EDT 2015
User: robert
Spectrometer: USB4E03002
Autoset integration time: false
Trigger mode: 4
Integration Time (sec): 1.000000E-1
Scans to average: 10
Electric dark correction enabled: false
Nonlinearity correction enabled: false
Boxcar width: 5
Stray light correction enabled: false
XAxis mode: Wavelengths
Stop averaging: false
Number of Pixels in Spectrum: 3648
>>>>>Begin Spectral Data<<<<<
177.575	-51.85
177.794	-35.42
178.014	-46.58
178.233	-119.12
178.452	-121.9
178.672	-35.06
178.891	-44.96
179.11	-36.17
179.33	-68.16
179.549	-74.69
179.768	-200.48
179.987	-191.78
180.207	-126.38
180.426	-98.65
180.645	-96.61
180.864	-40.51
181.084	-102.13
181.303	-685.71
181.522	-232.74
181.741	-197.04
181.96	-273.76
182.179	-587.93
182.398	-469.41
182.618	686.81
182.837	1192.31
183.056	1665.96
183.275	318.93
183.494	312.2
183.713	402.42
183.932	229.91
184.151	228.05
184.37	203.4
184.589	388.74
184.808	466.42
185.027	-930.95
185.246	-122.22
185.465	-27.31
185.684	36.4
185.903	-7.67
186.122	-0.42
186.341	-2.72
186.56	7.62
186.779	-16.09
186.998	8.38
187.216	36.24
187.435	30.3
187.654	15.24
187.873	15.29
188.092	-16.1
188.311	6.26
188.53	19.58
188.748	21.58
188.967	29.22
189.186	36.94
189.405	33.92
189.623	22.51
189.842	23.97
190.061	34.92
190.28	38.39
190.498	41.51
190.717	34.82
190.936	24.03
191.154	26.48
191.373	3.71
191.592	5.1
191.81	-3.07
192.029	11.4
192.248	35.4
192.466	-37.94
192.685	-83
192.904	-69.44
193.122	-47.56
193.341	-211.89
193.559	-224.67
193.778	-253.09
193.996	-210.45
194.215	-192.68
194.433	-119.74
194.652	-117.94
194.87	-134.25
195.089	-116.99
195.307	-124.84
195.526	-180.25
195.744	-56.66
195.963	-36.57
196.181	-24.95
196.399	-25.84
196.618	-23.25
196.836	-15.3
197.055	1.42
197.273	21.44
197.491	25.25
197.71	22.85
197.928	19.74
198.146	11.87
198.365	-16.03
198.583	-8
198.801	-13.39
199.019	-19.65
199.238	-36.37
199.456	-56.32
199.674	-63.47
199.892	-24.47
200.111	-19.98
200.329	-34.18
200.547	-41.39
200.765	-32.39
200.983	-84.86
201.202	-57.53
201.42	-22.78
201.638	-15.89
201.856	-13.81
202.074	-41.02
202.292	-70.72
202.51	-84.02
202.728	-99.03
202.946	-99.36
203.165	-125.74
203.383	-85
203.601	-115.27
203.819	-185.02
204.037	-186.69
204.255	-157.3
204.473	-136.58
204.691	-113.51
204.909	-140.24
205.127	-143.46
205.345	-173.88
205.562	-99.82
205.78	-110
205.998	-186.68
206.216	-176.83
206.434	-94.29
206.652	-46.69
206.87	-34.36
207.088	-25.61
207.306	-17.97
207.523	-4.55
207.741	0.44
207.959	-15.58
208.177	-19.5
208.395	-15.53
208.612	-14.75
208.83	-16.77
209.048	-18.1
209.266	-5.5
209.483	-21.58
209.701	-26.6
209.919	-21.59
210.136	-50.23
210.354	9.49
210.572	30.74
210.79	23.68
211.007	28.12
211.225	8.89
211.442	9.15
211.66	-8.54
211.878	20.1
212.095	45.12
212.313	38.37
212.53	46.55
212.748	22.23
212.966	8.52
213.183	8.6
213.401	3.2
213.618	-2.21
213.836	0.07
214.053	0.82
214.271	-6.2
214.488	-21.44
214.705	-32.32
214.923	-48.64
215.14	-72.63
215.358	-63.44
215.575	-50.63
215.793	-58.33
216.01	-68.7
216.227	-72.63
216.445	-56.28
216.662	-55.15
216.879	-57.35
217.097	-35.68
217.314	-26.02
217.531	-17.64
217.749	-23.02
217.966	-24.22
218.183	-9.3
218.4	-13
218.618	-9.3
218.835	-11.63
219.052	-10.04
219.269	-5.69
219.487	-11.79
219.704	-15.38
219.921	-8.04
220.138	3.9
220.355	6.31
220.572	-1.46
220.79	5.54
221.007	4.99
221.224	-1.73
221.441	-0.8
221.658	3.57
221.875	4.99
222.092	10.16
222.309	8.76
222.526	1.32
222.743	-4.07
222.96	-7.63
223.177	-8.67
223.394	-11.86
223.611	-12.33
223.828	-7.58
224.045	-8.47
224.262	-6.39
224.479	-7.2
224.696	-6.47
224.913	-1.46
225.13	3.6
225.347	0.17
225.564	-1.33
225.781	-0.62
225.997	1.07
226.214	0.72
226.431	0.99
226.648	0.95
226.865	2.6
227.082	3.66
227.298	2.66
227.515	2.11
227.732	4.1
227.949	4.89
228.165	4.47
228.382	4.86
228.599	4.65
228.816	5.21
229.032	5.05
229.249	4.48
229.466	3.64
229.682	3.21
229.899	3.72
230.116	3.89
230.332	3.42
230.549	3.64
230.765	2.75
230.982	2.24
231.199	1.09
231.415	0.25
231.632	0.39
231.848	-0.52
232.065	0.88
232.281	-0.13
232.498	-1.05
232.714	-1.88
232.931	-1.52
233.147	-0.59
233.364	0.3
233.58	0.5
233.797	1.96
234.013	2.05
234.23	3.2
234.446	2.89
234.662	2.28
234.879	2.55
235.095	3.66
235.312	4.47
235.528	3.95
235.744	4.19
235.961	3.32
236.177	3.36
236.393	1.9
236.61	1.14
236.826	2.66
237.042	4.13
237.258	3.19
237.475	2.7
237.691	0.8
237.907	2.33
238.123	0.98
238.339	2.87
238.556	1.43
238.772	2.53
238.988	3.72
239.204	3.48
239.42	3.38
239.636	3.66
239.853	4.42
240.069	4.16
240.285	3.92
240.501	5.16
240.717	5.16
240.933	5.2
241.149	4.8
241.365	4.54
241.581	4.05
241.797	3.89
242.013	4.49
242.229	4.73
242.445	4.99
242.661	4.51
242.877	4.03
243.093	3.88
243.309	3.59
243.525	3.82
243.741	4.15
243.957	3.84
244.173	3.43
244.388	3.21
244.604	2.17
244.82	2.06
245.036	2.63
245.252	2.46
245.468	3.14
245.683	4.48
245.899	4.38
246.115	4.57
246.331	4.87
246.547	5.28
246.762	5.17
246.978	5.64
247.194	5.58
247.409	5.79
247.625	6.07
247.841	5.57
248.057	5.55
248.272	5.68
248.488	5.3
248.703	5.41
248.919	5.05
249.135	5.17
249.35	4.71
249.566	4.48
249.782	4.33
249.997	4.26
250.213	4.63
250.428	4.09
250.644	3.4
250.859	3.35
251.075	3.13
251.29	3.93
251.506	3.87
251.721	4.26
251.937	5.05
252.152	4.58
252.368	4.84
252.583	4.82
252.798	4.13
253.014	4.95
253.229	5.68
253.445	5.41
253.66	5.1
253.875	5.38
254.091	4.8
254.306	4.44
254.521	4.17
254.737	3.84
254.952	3.58
255.167	4.3
255.383	3.77
255.598	3.12
255.813	3.76
256.028	3.2
256.244	2.57
256.459	2.98
256.674	2.9
256.889	3.02
257.104	2.19
257.32	2.43
257.535	1.73
257.75	2.22
257.965	2.39
258.18	2.14
258.395	3.01
258.61	3.23
258.826	3.27
259.041	3.28
259.256	3.26
259.471	3.5
259.686	3.45
259.901	3.66
260.116	3.59
260.331	3.5
260.546	3.66
260.761	3.29
260.976	3.31
261.191	2.95
261.406	2.88
261.621	2.96
261.836	2.87
262.05	2.4
262.265	2.3
262.48	2.01
262.695	1.74
262.91	1.3
263.125	1.23
263.34	0.91
263.555	0.97
263.769	0.55
263.984	0.05
264.199	0.17
264.414	0.95
264.629	0.75
264.843	0.8
265.058	0.94
265.273	0.85
265.488	0.68
265.702	0.63
265.917	1.73
266.132	1.54
266.346	1.98
266.561	2
266.776	2.65
266.99	2.75
267.205	2.41
267.42	2.61
267.634	2.63
267.849	2.84
268.063	2.79
268.278	2.34
268.492	3.06
268.707	2.69
268.922	2.43
269.136	1.81
269.351	2.01
269.565	2.69
269.78	2.45
269.994	2.24
270.209	2.5
270.423	2.52
270.637	2.65
270.852	2.44
271.066	3.03
271.281	3.01
271.495	3.09
271.709	2.74
271.924	2.65
272.138	2.77
272.353	3.06
272.567	2.77
272.781	2.72
272.996	2.46
273.21	2.4
273.424	2.48
273.638	2.45
273.853	2.39
274.067	3.02
274.281	3.36
274.495	3.54
274.71	3.55
274.924	3.6
275.138	4.01
275.352	4.7
275.566	4.91
275.781	4.5
275.995	4.53
276.209	4.26
276.423	4.01
276.637	3.25
276.851	3.41
277.065	3.54
277.279	3.44
277.493	3.26
277.707	3.03
277.921	2.86
278.135	2.7
278.349	2.81
278.563	2.76
278.777	2.91
278.991	3.35
279.205	2.58
279.419	2.21
279.633	2.61
279.847	2.9
280.061	3.19
280.275	3.3
280.489	3.42
280.703	3.67
280.917	3.89
281.131	3.51
281.344	3.52
281.558	3.93
281.772	4.11
281.986	4.04
282.2	4.09
282.414	3.44
282.627	3.47
282.841	3.46
283.055	3.26
283.269	3.43
283.482	3.74
283.696	3.63
283.91	3.39
284.123	3.3
284.337	3.22
284.551	2.95
284.764	3.34
284.978	3.33
285.192	3.44
285.405	3.29
285.619	3.16
285.833	2.98
286.046	2.97
286.26	3.36
286.473	3.4
286.687	3.23
286.9	3.68
287.114	3.63
287.327	3.46
287.541	3.53
287.754	3.9
287.968	3.77
288.181	4.15
288.395	4.21
288.608	3.81
288.822	3.84
289.035	4.09
289.248	3.71
289.462	3.79
289.675	3.98
289.889	3.81
290.102	3.92
290.315	4.22
290.529	4.24
290.742	4.29
290.955	4.37
291.169	4.47
291.382	4.43
291.595	4.38
291.808	4.27
292.022	4.07
292.235	3.95
292.448	3.66
292.661	3.72
292.875	3.26
293.088	3.19
293.301	3.22
293.514	3.08
293.727	3.14
293.94	3.42
294.153	3.1
294.367	3.53
294.58	3.92
294.793	3.92
295.006	3.65
295.219	3.89
295.432	4.06
295.645	4.27
295.858	4.57
296.071	4.54
296.284	4.38
296.497	4.47
296.71	4.47
296.923	4.31
297.136	4.39
297.349	4.6
297.562	4.67
297.775	4.58
297.988	4.62
298.201	4.46
298.414	4.52
298.626	4.66
298.839	4.95
299.052	5.02
299.265	5.17
299.478	5.29
299.691	5.22
299.903	5.14
300.116	4.93
300.329	4.85
300.542	4.93
300.755	5.09
300.967	5.07
301.18	5.14
301.393	4.74
301.605	5.09
301.818	4.94
302.031	5.3
302.243	5.57
302.456	6.14
302.669	6.16
302.881	6.29
303.094	6.3
303.307	6.48
303.519	6.3
303.732	6.71
303.944	6.4
304.157	6.55
304.37	6.3
304.582	5.94
304.795	5.91
305.007	5.75
305.22	5.72
305.432	5.63
305.645	5.58
305.857	5.68
306.069	5.59
306.282	5.44
306.494	5.45
306.707	5.39
306.919	5.84
307.132	5.62
307.344	6.06
307.556	5.76
307.769	5.87
307.981	5.91
308.193	6.01
308.406	6
308.618	6.29
308.83	6.42
309.043	6.6
309.255	6.59
309.467	6.84
309.679	6.63
309.892	6.82
310.104	7.2
310.316	7.32
310.528	7.23
310.74	7.44
310.953	7.21
311.165	7.12
311.377	7.21
311.589	7.06
311.801	6.85
312.013	6.93
312.225	7.02
312.437	6.6
312.649	6.46
312.862	6.77
313.074	6.97
313.286	7.06
313.498	7.35
313.71	7.21
313.922	7.18
314.134	7.58
314.346	7.48
314.558	7.26
314.77	7.02
314.982	6.92
315.193	6.8
315.405	6.29
315.617	6.46
315.829	6.3
316.041	6.28
316.253	6.35
316.465	6.18
316.677	6.42
316.888	6.64
317.1	6.88
317.312	7
317.524	6.91
317.736	6.7
317.947	7.12
318.159	7.08
318.371	6.8
318.583	6.84
318.794	6.75
319.006	6.66
319.218	6.86
319.43	6.84
319.641	6.85
319.853	6.41
320.064	6.56
320.276	6.02
320.488	6.17
320.699	6.53
320.911	6.87
321.123	7.08
321.334	7.19
321.546	7.43
321.757	7.53
321.969	7.76
322.18	8.38
322.392	9.06
322.603	8.82
322.815	8.89
323.026	8.89
323.238	8.58
323.449	8.28
323.661	8.43
323.872	8.39
324.083	8.53
324.295	8.48
324.506	8.28
324.718	7.71
324.929	8.32
325.14	8.25
325.352	8.32
325.563	8.68
325.774	8.76
325.986	8.5
326.197	8.32
326.408	8.37
326.62	8.23
326.831	8.53
327.042	8.96
327.253	8.77
327.464	8.94
327.676	9
327.887	8.65
328.098	8.94
328.309	9.28
328.52	9.19
328.732	9.14
328.943	9.4
329.154	9.64
329.365	9.78
329.576	10.18
329.787	9.81
329.998	9.68
330.209	10.11
330.42	10.18
330.631	10.07
330.842	10.4
331.053	10.4
331.264	10.14
331.475	10.2
331.686	9.7
331.897	9.63
332.108	9.64
332.319	9.59
332.53	9.53
332.741	9.49
332.952	9.31
333.163	9.22
333.374	9.35
333.585	9.43
333.795	9.58
334.006	9.75
334.217	9.58
334.428	9.73
334.639	9.91
334.849	9.75
335.06	9.23
335.271	9.52
335.482	9.77
335.692	9.66
335.903	9.57
336.114	9.24
336.325	9.22
336.535	9.44
336.746	9.6
336.957	9.71
337.167	9.93
337.378	10.37
337.589	10.52
337.799	10.26
338.01	10.29
338.22	10.55
338.431	10.56
338.642	10.56
338.852	10.38
339.063	9.99
339.273	9.75
339.484	9.36
339.694	9.4
339.905	9.23
340.115	9.23
340.326	9.32
340.536	9.23
340.746	9.31
340.957	9.49
341.167	9.28
341.378	9.53
341.588	9.58
341.799	10.17
342.009	10.24
342.219	9.97
342.43	10.22
342.64	10.23
342.85	9.81
343.061	9.85
343.271	9.57
343.481	9.52
343.691	9.56
343.902	9.98
344.112	9.69
344.322	9.64
344.532	9.88
344.743	9.52
344.953	9.57
345.163	9.82
345.373	9.78
345.583	9.83
345.793	10.06
346.004	10.06
346.214	9.51
346.424	9.43
346.634	9.41
346.844	9.2
347.054	9.15
347.264	9.1
347.474	8.96
347.684	9.03
347.894	9
348.104	8.78
348.314	8.73
348.524	8.94
348.734	9.02
348.944	9
349.154	9.17
349.364	9.43
349.574	9.33
349.784	9.7
349.994	9.47
350.204	9.53
350.413	9.66
350.623	9.49
350.833	9.43
351.043	9.28
351.253	9.15
351.463	9.2
351.672	8.93
351.882	9.21
352.092	9.15
352.302	9.06
352.511	9.18
352.721	9.1
352.931	9.29
353.141	9.21
353.35	9.08
353.56	9.09
353.77	8.93
353.979	9.12
354.189	8.9
354.399	8.61
354.608	8.85
354.818	8.88
355.027	8.9
355.237	8.67
355.447	8.91
355.656	9.27
355.866	9.07
356.075	9.14
356.285	9.4
356.494	9.62
356.704	9.98
356.913	10.1
357.123	9.82
357.332	9.96
357.542	10.23
357.751	10.19
357.96	10.09
358.17	10.25
358.379	10.25
358.589	9.87
358.798	9.81
359.007	9.52
359.217	9.33
359.426	9.54
359.635	9.52
359.845	9.37
360.054	9.28
360.263	9.34
360.472	9.53
360.682	9.49
360.891	9.56
361.1	9.42
361.309	9.54
361.519	9.46
361.728	9.31
361.937	9.44
362.146	9.41
362.355	9.45
362.564	9.24
362.774	9.17
362.983	9.03
363.192	9.14
363.401	9.23
363.61	9.22
363.819	9.2
364.028	9.26
364.237	9.07
364.446	9.35
364.655	9.24
364.864	9.26
365.073	9.06
365.282	9.08
365.491	9.05
365.7	8.94
365.909	8.82
366.118	8.63
366.327	8.71
366.536	8.76
366.745	8.39
366.954	8.55
367.162	8.77
367.371	8.82
367.58	8.74
367.789	8.73
367.998	8.71
368.207	8.53
368.415	8.63
368.624	8.59
368.833	8.4
369.042	8.45
369.25	8.25
369.459	8.02
369.668	8.13
369.877	8.34
370.085	8.17
370.294	8.24
370.503	8.56
370.711	8.37
370.92	8.34
371.129	8.34
371.337	8.19
371.546	8.12
371.754	8.08
371.963	7.96
372.171	7.95
372.38	7.87
372.589	7.71
372.797	7.36
373.006	7.47
373.214	7.56
373.423	7.51
373.631	7.53
373.84	7.69
374.048	7.68
374.256	7.58
374.465	7.35
374.673	7.42
374.882	7.46
375.09	7.52
375.298	7.3
375.507	6.99
375.715	6.83
375.923	6.68
376.132	6.53
376.34	6.48
376.548	6.44
376.757	6.58
376.965	6.41
377.173	6.58
377.381	6.58
377.59	6.75
377.798	6.86
378.006	6.94
378.214	7.2
378.423	7.14
378.631	7.18
378.839	7.17
379.047	7.04
379.255	7.13
379.463	6.95
379.671	6.94
379.879	6.73
380.088	6.84
380.296	6.85
380.504	6.93
380.712	7.14
380.92	7.11
381.128	7.19
381.336	7.18
381.544	7.48
381.752	7.28
381.96	7.32
382.168	7.5
382.376	7.1
382.584	7.07
382.791	6.88
382.999	6.55
383.207	6.64
383.415	6.37
383.623	6.2
383.831	5.93
384.039	6.09
384.247	5.8
384.454	5.86
384.662	5.94
384.87	6.07
385.078	6.06
385.285	6.12
385.493	5.91
385.701	6.01
385.909	6.15
386.116	6.03
386.324	6.02
386.532	6.2
386.739	6.14
386.947	6.07
387.155	5.96
387.362	5.93
387.57	5.74
387.778	5.76
387.985	5.69
388.193	5.7
388.4	5.56
388.608	5.33
388.816	5.37
389.023	5.24
389.231	5.17
389.438	5.04
389.646	4.92
389.853	5.05
390.061	5.08
390.268	5.07
390.475	5.02
390.683	5.27
390.89	5.47
391.098	5.3
391.305	5.31
391.512	5.31
391.72	5.38
391.927	5.18
392.135	5.22
392.342	5.09
392.549	5.1
392.756	5.05
392.964	4.82
393.171	4.78
393.378	4.78
393.586	4.78
393.793	4.82
394	4.76
394.207	4.89
394.414	4.86
394.622	4.72
394.829	4.71
395.036	4.66
395.243	4.82
395.45	4.59
395.657	4.64
395.864	4.7
396.072	4.63
396.279	4.49
396.486	4.52
396.693	4.4
396.9	4.6
397.107	4.51
397.314	4.64
397.521	4.4
397.728	4.43
397.935	4.38
398.142	4.29
398.349	4.39
398.556	4.46
398.763	4.35
398.97	4.46
399.177	4.44
399.383	4.45
399.59	4.38
399.797	4.52
400.004	4.63
400.211	4.68
400.418	4.69
400.625	4.82
400.831	4.84
401.038	4.96
401.245	4.97
401.452	4.78
401.658	4.86
401.865	4.82
402.072	4.8
402.279	4.74
402.485	4.75
402.692	4.52
402.899	4.33
403.105	4.38
403.312	4.34
403.519	4.43
403.725	4.52
403.932	4.3
404.138	4.13
404.345	4.11
404.552	4.05
404.758	3.92
404.965	4.12
405.171	4.19
405.378	4.13
405.584	4.17
405.791	4.14
405.997	4.2
406.204	4.22
406.41	4.33
406.617	4.29
406.823	4.26
407.029	4.35
407.236	4.2
407.442	4.15
407.649	4.05
407.855	4.03
408.061	3.75
408.268	3.69
408.474	3.74
408.68	3.82
408.887	3.64
409.093	3.7
409.299	3.69
409.505	3.71
409.712	3.65
409.918	3.7
410.124	3.68
410.33	3.77
410.537	3.75
410.743	3.9
410.949	3.84
411.155	3.9
411.361	3.78
411.567	3.85
411.773	3.9
411.98	4.09
412.186	4.15
412.392	4.13
412.598	4.23
412.804	4.23
413.01	4.1
413.216	4.11
413.422	4.22
413.628	4.21
413.834	4.08
414.04	3.99
414.246	3.85
414.452	3.99
414.658	3.96
414.864	3.87
415.07	3.83
415.275	3.93
415.481	3.96
415.687	3.89
415.893	3.95
416.099	3.81
416.305	3.78
416.511	3.74
416.716	3.44
416.922	3.45
417.128	3.48
417.334	3.63
417.539	3.66
417.745	3.67
417.951	3.75
418.157	3.73
418.362	3.98
418.568	4.02
418.774	4.04
418.979	4.1
419.185	4.08
419.391	4.09
419.596	4.05
419.802	3.95
420.008	3.92
420.213	3.3
420.419	3.29
420.624	3.1
420.83	3.11
421.035	3.04
421.241	3.05
421.446	3.05
421.652	3.03
421.857	2.97
422.063	3.02
422.268	3.02
422.474	3.55
422.679	3.65
422.885	3.74
423.09	3.8
423.295	3.86
423.501	3.82
423.706	3.81
423.911	3.82
424.117	3.83
424.322	3.84
424.527	3.93
424.733	3.98
424.938	3.95
425.143	3.93
425.349	3.84
425.554	3.83
425.759	3.91
425.964	3.91
426.169	3.93
426.375	3.9
426.58	3.84
426.785	3.74
426.99	3.71
427.195	3.69
427.4	3.68
427.605	3.67
427.811	3.66
428.016	3.63
428.221	3.65
428.426	3.6
428.631	3.68
428.836	3.7
429.041	3.68
429.246	3.67
429.451	3.71
429.656	3.77
429.861	3.81
430.066	3.77
430.271	3.75
430.476	3.81
430.681	3.65
430.886	3.58
431.09	3.54
431.295	3.48
431.5	3.44
431.705	3.29
431.91	3.22
432.115	3.24
432.32	3.29
432.524	3.38
432.729	3.3
432.934	3.41
433.139	3.44
433.343	3.46
433.548	3.48
433.753	3.47
433.958	3.55
434.162	3.68
434.367	3.63
434.572	3.67
434.776	3.64
434.981	3.71
435.186	3.77
435.39	3.82
435.595	3.82
435.799	3.86
436.004	3.94
436.209	3.98
436.413	3.81
436.618	3.9
436.822	3.92
437.027	3.87
437.231	3.82
437.436	3.89
437.64	3.88
437.845	3.87
438.049	3.88
438.253	3.9
438.458	3.78
438.662	3.86
438.867	3.77
439.071	3.77
439.275	3.88
439.48	3.93
439.684	3.86
439.888	3.76
440.093	3.76
440.297	3.8
440.501	3.75
440.706	3.78
440.91	3.76
441.114	3.84
441.318	3.76
441.523	3.67
441.727	3.66
441.931	3.63
442.135	3.69
442.339	3.71
442.543	3.63
442.748	3.54
442.952	3.49
443.156	3.44
443.36	3.32
443.564	3.32
443.768	3.39
443.972	3.35
444.176	3.42
444.38	3.39
444.584	3.39
444.788	3.33
444.992	3.37
445.196	3.43
445.4	3.37
445.604	3.46
445.808	3.52
446.012	3.47
446.216	3.41
446.42	3.35
446.624	3.36
446.828	3.29
447.032	3.34
447.235	3.33
447.439	3.31
447.643	3.38
447.847	3.41
448.051	3.35
448.254	3.33
448.458	3.36
448.662	3.35
448.866	3.39
449.069	3.5
449.273	3.49
449.477	3.48
449.681	3.51
449.884	3.46
450.088	3.38
450.292	3.42
450.495	3.46
450.699	3.48
450.902	3.54
451.106	3.51
451.31	3.46
451.513	3.55
451.717	3.56
451.92	3.57
452.124	3.66
452.327	3.64
452.531	3.64
452.734	3.49
452.938	3.55
453.141	3.43
453.345	3.43
453.548	3.45
453.752	3.35
453.955	3.3
454.158	3.29
454.362	3.27
454.565	3.25
454.769	3.27
454.972	3.43
455.175	3.36
455.379	3.39
455.582	3.34
455.785	3.27
455.988	3.28
456.192	3.36
456.395	3.37
456.598	3.38
456.801	3.39
457.005	3.42
457.208	3.44
457.411	3.42
457.614	3.56
457.817	3.59
458.021	3.7
458.224	3.75
458.427	3.73
458.63	3.65
458.833	3.63
459.036	3.6
459.239	3.47
459.442	3.44
459.645	3.41
459.848	3.38
460.051	3.4
460.254	3.29
460.457	3.21
460.66	3.17
460.863	3.24
461.066	3.23
461.269	3.22
461.472	3.27
461.675	3.18
461.878	3.2
462.081	3.07
462.284	3.09
462.486	3.13
462.689	3.25
462.892	3.25
463.095	3.13
463.298	3.13
463.5	3.19
463.703	3.21
463.906	3.25
464.109	3.22
464.311	3.17
464.514	3.07
464.717	2.97
464.92	2.87
465.122	2.99
465.325	3.12
465.528	3.05
465.73	3.07
465.933	3.07
466.135	3.02
466.338	3.07
466.541	3.14
466.743	3.2
466.946	3.33
467.148	3.42
467.351	3.45
467.553	3.38
467.756	3.45
467.958	3.5
468.161	3.51
468.363	3.55
468.566	3.57
468.768	3.54
468.971	3.5
469.173	3.47
469.375	3.34
469.578	3.22
469.78	3.29
469.983	3.27
470.185	3.17
470.387	3.14
470.59	3.16
470.792	3.21
470.994	3.31
471.196	3.3
471.399	3.34
471.601	3.4
471.803	3.45
472.005	3.45
472.208	3.46
472.41	3.51
472.612	3.52
472.814	3.57
473.016	3.61
473.218	3.49
473.421	3.52
473.623	3.48
473.825	3.51
474.027	3.47
474.229	3.42
474.431	3.44
474.633	3.41
474.835	3.49
475.037	3.48
475.239	3.45
475.441	3.57
475.643	3.64
475.845	3.72
476.047	3.68
476.249	3.74
476.451	3.81
476.653	3.79
476.855	3.78
477.057	3.68
477.258	3.77
477.46	3.75
477.662	3.73
477.864	3.68
478.066	3.69
478.268	3.75
478.469	3.69
478.671	3.62
478.873	3.6
479.075	3.59
479.276	3.67
479.478	3.53
479.68	3.5
479.882	3.55
480.083	3.57
480.285	3.53
480.487	3.43
480.688	3.49
480.89	3.52
481.091	3.52
481.293	3.52
481.495	3.53
481.696	3.6
481.898	3.59
482.099	3.63
482.301	3.59
482.502	3.59
482.704	3.65
482.905	3.65
483.107	3.64
483.308	3.68
483.51	3.66
483.711	3.63
483.913	3.64
484.114	3.64
484.315	3.6
484.517	3.6
484.718	3.6
484.92	3.57
485.121	3.56
485.322	3.52
485.524	3.47
485.725	3.48
485.926	3.48
486.127	3.43
486.329	3.41
486.53	3.43
486.731	3.45
486.932	3.42
487.134	3.41
487.335	3.43
487.536	3.46
487.737	3.47
487.938	3.46
488.139	3.43
488.341	3.45
488.542	3.51
488.743	3.51
488.944	3.52
489.145	3.59
489.346	3.62
489.547	3.62
489.748	3.63
489.949	3.65
490.15	3.69
490.351	3.75
490.552	3.76
490.753	3.73
490.954	3.73
491.155	3.72
491.356	3.71
491.557	3.72
491.758	3.71
491.959	3.69
492.159	3.69
492.36	3.67
492.561	3.64
492.762	3.64
492.963	3.64
493.164	3.66
493.364	3.7
493.565	3.7
493.766	3.63
493.967	3.63
494.167	3.66
494.368	3.66
494.569	3.67
494.769	3.76
494.97	3.78
495.171	3.78
495.371	3.8
495.572	3.79
495.773	3.79
495.973	3.88
496.174	3.86
496.375	3.92
496.575	4
496.776	4.02
496.976	4.02
497.177	4.04
497.377	4.07
497.578	4.02
497.778	4
497.979	3.96
498.179	3.95
498.38	3.97
498.58	3.92
498.78	3.9
498.981	3.79
499.181	3.67
499.382	3.73
499.582	3.74
499.782	3.8
499.983	3.79
500.183	3.86
500.383	3.81
500.584	3.86
500.784	3.91
500.984	3.9
501.184	4.09
501.385	4.22
501.585	4.25
501.785	4.26
501.985	4.21
502.185	4.27
502.386	4.24
502.586	4.36
502.786	4.37
502.986	4.35
503.186	4.4
503.386	4.44
503.586	4.52
503.786	4.53
503.987	4.57
504.187	4.61
504.387	4.65
504.587	4.67
504.787	4.75
504.987	4.85
505.187	4.91
505.387	4.98
505.587	4.95
505.786	4.89
505.986	4.95
506.186	4.99
506.386	5.09
506.586	5.16
506.786	5.26
506.986	5.15
507.186	5.17
507.386	5.27
507.585	5.33
507.785	5.39
507.985	5.5
508.185	5.46
508.384	5.57
508.584	5.61
508.784	5.63
508.984	5.76
509.183	5.94
509.383	5.94
509.583	5.93
509.782	6.01
509.982	6.07
510.182	6.1
510.381	6.21
510.581	6.25
510.781	6.27
510.98	6.27
511.18	6.28
511.379	6.26
511.579	6.32
511.778	6.41
511.978	6.42
512.177	6.49
512.377	6.61
512.576	6.63
512.776	6.65
512.975	6.83
513.175	6.99
513.374	7.06
513.573	7.1
513.773	7.13
513.972	7.22
514.172	7.28
514.371	7.34
514.57	7.37
514.77	7.46
514.969	7.53
515.168	7.56
515.367	7.56
515.567	7.62
515.766	7.75
515.965	7.89
516.164	7.92
516.364	8
516.563	8.09
516.762	8.23
516.961	8.27
517.16	8.34
517.359	8.45
517.559	8.54
517.758	8.56
517.957	8.65
518.156	8.7
518.355	8.74
518.554	8.84
518.753	8.84
518.952	8.83
519.151	8.92
519.35	9.03
519.549	8.99
519.748	9.02
519.947	9.14
520.146	9.17
520.345	9.27
520.544	9.38
520.743	9.45
520.942	9.59
521.141	9.71
521.339	9.77
521.538	9.84
521.737	10.04
521.936	10.16
522.135	10.21
522.333	10.32
522.532	10.39
522.731	10.46
522.93	10.53
523.129	10.62
523.327	10.81
523.526	10.85
523.725	10.88
523.923	10.87
524.122	10.95
524.321	11.09
524.519	11.15
524.718	11.22
524.917	11.3
525.115	11.37
525.314	11.46
525.512	11.49
525.711	11.57
525.909	11.66
526.108	11.83
526.306	11.92
526.505	12.03
526.703	12.12
526.902	12.21
527.1	12.28
527.299	12.33
527.497	12.39
527.696	12.42
527.894	12.49
528.092	12.56
528.291	12.57
528.489	12.62
528.688	12.65
528.886	12.68
529.084	12.71
529.283	12.74
529.481	12.79
529.679	12.84
529.877	12.89
530.076	12.92
530.274	12.94
530.472	12.96
530.67	13.04
530.869	13.06
531.067	13.13
531.265	13.18
531.463	13.31
531.661	13.4
531.859	13.51
532.057	13.64
532.255	13.78
532.454	13.89
532.652	13.97
532.85	14.01
533.048	14.08
533.246	14.12
533.444	14.19
533.642	14.19
533.84	14.2
534.038	14.21
534.236	14.17
534.434	14.19
534.632	14.23
534.83	14.25
535.027	14.27
535.225	14.34
535.423	14.38
535.621	14.45
535.819	14.57
536.017	14.7
536.215	14.68
536.412	14.77
536.61	14.78
536.808	14.85
537.006	14.87
537.203	14.93
537.401	14.91
537.599	14.96
537.797	14.97
537.994	15
538.192	14.99
538.39	15.15
538.587	15.17
538.785	15.26
538.983	15.33
539.18	15.46
539.378	15.52
539.575	15.61
539.773	15.77
539.97	15.9
540.168	15.89
540.366	15.9
540.563	15.91
540.761	16
540.958	16.04
541.155	16.03
541.353	16.04
541.55	16.05
541.748	16.1
541.945	16.08
542.143	16.02
542.34	16.05
542.537	16.11
542.735	16.15
542.932	16.18
543.129	16.22
543.327	16.21
543.524	16.26
543.721	16.31
543.919	16.35
544.116	16.4
544.313	16.55
544.51	16.62
544.708	16.64
544.905	16.73
545.102	16.7
545.299	16.63
545.496	16.79
545.693	16.77
545.891	16.8
546.088	16.81
546.285	16.8
546.482	16.82
546.679	16.86
546.876	16.87
547.073	16.89
547.27	16.9
547.467	16.97
547.664	16.94
547.861	17.06
548.058	17.08
548.255	17.16
548.452	17.23
548.649	17.21
548.846	17.18
549.043	17.2
549.24	17.16
549.437	17.24
549.633	17.34
549.83	17.26
550.027	17.27
550.224	17.3
550.421	17.2
550.618	17.21
550.814	17.2
551.011	17.25
551.208	17.37
551.405	17.34
551.601	17.38
551.798	17.37
551.995	17.5
552.191	17.54
552.388	17.61
552.585	17.64
552.781	17.7
552.978	17.73
553.175	17.85
553.371	17.83
553.568	17.97
553.764	17.93
553.961	17.91
554.157	17.97
554.354	17.95
554.55	17.98
554.747	18.03
554.943	18.12
555.14	18.14
555.336	18.08
555.533	18.19
555.729	18.13
555.926	18.08
556.122	18.13
556.318	18.11
556.515	18.2
556.711	18.21
556.907	18.28
557.104	18.18
557.3	18.21
557.496	18.14
557.693	18.07
557.889	18.22
558.085	18.41
558.281	18.63
558.478	18.63
558.674	18.68
558.87	18.68
559.066	18.69
559.262	18.82
559.459	18.94
559.655	19.08
559.851	19.18
560.047	19
560.243	19.09
560.439	19
560.635	19.02
560.831	19
561.027	19.11
561.223	19.11
561.419	18.97
561.615	18.95
561.811	18.99
562.007	18.85
562.203	18.87
562.399	18.85
562.595	18.93
562.791	19.03
562.987	18.96
563.183	18.87
563.379	18.81
563.575	18.82
563.771	18.74
563.966	18.77
564.162	18.88
564.358	19.03
564.554	19.06
564.75	19
564.945	18.94
565.141	18.97
565.337	18.92
565.533	19.1
565.728	19.26
565.924	19.3
566.12	19.24
566.315	19.24
566.511	19.29
566.707	19.09
566.902	19.12
567.098	19.17
567.293	19.17
567.489	19.26
567.684	19.2
567.88	19.27
568.076	19.38
568.271	19.47
568.467	19.5
568.662	19.47
568.858	19.64
569.053	19.69
569.248	19.71
569.444	19.85
569.639	19.84
569.835	19.79
570.03	19.75
570.225	19.71
570.421	19.75
570.616	19.69
570.812	19.63
571.007	19.69
571.202	19.7
571.397	19.6
571.593	19.62
571.788	19.7
571.983	19.82
572.178	19.83
572.374	19.87
572.569	19.85
572.764	19.85
572.959	19.91
573.154	19.91
573.35	19.95
573.545	20.09
573.74	20.11
573.935	20.14
574.13	20.16
574.325	20.08
574.52	20.03
574.715	20.02
574.91	20.21
575.105	20.26
575.3	20.25
575.495	20.18
575.69	20.17
575.885	20.06
576.08	20.03
576.275	20.02
576.47	20.02
576.665	20.1
576.86	20.13
577.055	20.06
577.25	20
577.444	20.01
577.639	20.06
577.834	20.09
578.029	20.17
578.224	20.11
578.418	20.03
578.613	20.14
578.808	20.09
579.003	20.17
579.197	20.26
579.392	20.34
579.587	20.37
579.781	20.48
579.976	20.45
580.171	20.63
580.365	20.73
580.56	20.89
580.755	20.92
580.949	20.95
581.144	20.76
581.338	20.76
581.533	20.7
581.727	20.78
581.922	20.76
582.116	20.82
582.311	20.67
582.505	20.59
582.7	20.51
582.894	20.49
583.089	20.52
583.283	20.66
583.478	20.56
583.672	20.71
583.866	20.54
584.061	20.53
584.255	20.48
584.449	20.45
584.644	20.48
584.838	20.44
585.032	20.34
585.226	20.29
585.421	20.18
585.615	20.26
585.809	20.24
586.003	20.39
586.198	20.34
586.392	20.42
586.586	20.52
586.78	20.56
586.974	20.71
587.168	20.76
587.363	20.78
587.557	20.93
587.751	20.94
587.945	20.98
588.139	21.02
588.333	20.96
588.527	20.94
588.721	20.89
588.915	20.98
589.109	20.89
589.303	21.03
589.497	21.01
589.691	21.02
589.885	20.94
590.079	20.82
590.273	20.78
590.466	20.84
590.66	20.77
590.854	20.85
591.048	20.87
591.242	20.86
591.436	20.82
591.629	20.93
591.823	21.04
592.017	21.24
592.211	21.41
592.404	21.41
592.598	21.45
592.792	21.47
592.986	21.28
593.179	21.21
593.373	21.27
593.567	21.22
593.76	21.19
593.954	21.07
594.147	20.95
594.341	20.82
594.535	20.79
594.728	20.78
594.922	20.94
595.115	21.1
595.309	21.22
595.502	21.27
595.696	21.27
595.889	21.18
596.083	21.2
596.276	21.15
596.47	21.22
596.663	21.21
596.856	21.17
597.05	21.07
597.243	21.03
597.437	21.04
597.63	20.96
597.823	20.85
598.017	20.88
598.21	20.88
598.403	20.9
598.596	20.78
598.79	20.84
598.983	20.89
599.176	21.01
599.369	21.08
599.563	20.94
599.756	20.96
599.949	21.24
600.142	21.32
600.335	21.25
600.528	21.21
600.722	21.25
600.915	21.24
601.108	21.17
601.301	21.16
601.494	21.14
601.687	21.31
601.88	21.3
602.073	21.12
602.266	21.13
602.459	21.09
602.652	21.14
602.845	21.24
603.038	21.31
603.231	21.45
603.424	21.42
603.617	21.41
603.809	21.39
604.002	21.4
604.195	21.44
604.388	21.41
604.581	21.62
604.774	21.65
604.966	21.65
605.159	21.57
605.352	21.59
605.545	21.61
605.737	21.49
605.93	21.45
606.123	21.43
606.316	21.44
606.508	21.45
606.701	21.39
606.894	21.55
607.086	21.59
607.279	21.65
607.471	21.67
607.664	21.71
607.857	21.87
608.049	21.96
608.242	22.07
608.434	22.12
608.627	22.34
608.819	22.32
609.012	22.21
609.204	22.31
609.397	22.41
609.589	22.46
609.782	22.52
609.974	22.59
610.166	22.65
610.359	22.72
610.551	22.94
610.743	22.97
610.936	23
611.128	23.04
611.32	22.98
611.513	23
611.705	23.05
611.897	23
612.09	22.97
612.282	22.78
612.474	22.75
612.666	22.58
612.858	22.39
613.051	22.4
613.243	22.37
613.435	22.32
613.627	22.3
613.819	22.3
614.011	22.3
614.203	22.25
614.395	22.42
614.588	22.33
614.78	22.39
614.972	22.32
615.164	22.26
615.356	22.22
615.548	22.25
615.74	22.22
615.932	22
616.124	21.99
616.315	22.22
616.507	22.4
616.699	22.32
616.891	22.19
617.083	22.42
617.275	22.45
617.467	22.43
617.659	22.56
617.85	22.62
618.042	22.71
618.234	22.58
618.426	22.31
618.618	22.11
618.809	22.22
619.001	22.29
619.193	22.16
619.384	22.24
619.576	22.41
619.768	22.3
619.959	22.34
620.151	22.38
620.343	22.43
620.534	22.43
620.726	22.49
620.917	22.48
621.109	22.41
621.301	22.42
621.492	22.37
621.684	22.27
621.875	22.3
622.067	22.19
622.258	22.08
622.45	22.17
622.641	22.11
622.832	21.94
623.024	22.08
623.215	22.13
623.407	22
623.598	21.81
623.789	21.86
623.981	21.75
624.172	21.66
624.363	21.76
624.555	21.73
624.746	21.94
624.937	22.04
625.129	21.94
625.32	22.01
625.511	21.99
625.702	22.23
625.893	22.25
626.085	22.36
626.276	22.59
626.467	22.52
626.658	22.56
626.849	22.55
627.04	22.55
627.231	22.47
627.422	22.56
627.614	22.67
627.805	22.61
627.996	22.52
628.187	22.54
628.378	22.59
628.569	22.64
628.76	22.57
628.951	22.52
629.142	22.43
629.332	22.45
629.523	22.41
629.714	22.45
629.905	22.49
630.096	22.56
630.287	22.57
630.478	22.41
630.669	22.37
630.859	22.37
631.05	22.49
631.241	22.73
631.432	22.81
631.623	22.7
631.813	22.82
632.004	22.84
632.195	22.92
632.385	22.73
632.576	22.78
632.767	22.88
632.957	22.83
633.148	22.65
633.339	22.41
633.529	22.47
633.72	22.52
633.91	22.25
634.101	22.25
634.292	22.2
634.482	22.41
634.673	22.32
634.863	22.19
635.054	22.37
635.244	22.55
635.435	22.77
635.625	22.63
635.815	22.47
636.006	22.52
636.196	22.43
636.387	22.41
636.577	22.33
636.767	22.21
636.958	22.16
637.148	22.14
637.338	22.12
637.529	22.09
637.719	22.09
637.909	22.29
638.099	22.34
638.29	22.26
638.48	22.35
638.67	22.28
638.86	22.25
639.05	22.38
639.241	22.31
639.431	22.22
639.621	22.07
639.811	22.01
640.001	22.02
640.191	22.17
640.381	22.44
640.571	22.4
640.761	22.53
640.951	22.67
641.141	22.62
641.331	22.7
641.521	22.85
641.711	23.04
641.901	23.22
642.091	23.43
642.281	23.25
642.471	23.27
642.661	23.33
642.851	23.41
643.041	23.57
643.231	23.66
643.42	23.67
643.61	23.58
643.8	23.48
643.99	23.35
644.18	23.01
644.369	23.32
644.559	23.27
644.749	23.28
644.939	23.08
645.128	23.12
645.318	23.06
645.508	23.04
645.697	22.84
645.887	22.73
646.076	22.94
646.266	22.96
646.456	22.67
646.645	22.56
646.835	22.41
647.024	22.42
647.214	22.2
647.403	22.16
647.593	22.14
647.782	22.22
647.972	22.31
648.161	22.18
648.351	22.29
648.54	22.25
648.73	22.39
648.919	22.59
649.108	22.83
649.298	22.85
649.487	22.99
649.677	22.94
649.866	23.02
650.055	23.13
650.244	23.1
650.434	23.12
650.623	23.16
650.812	23.06
651.002	22.97
651.191	22.71
651.38	22.6
651.569	22.53
651.758	22.66
651.947	22.74
652.137	22.7
652.326	22.86
652.515	22.76
652.704	22.76
652.893	22.73
653.082	22.88
653.271	22.88
653.46	23.02
653.649	23.22
653.838	23.33
654.027	23.11
654.216	22.95
654.405	22.8
654.594	22.74
654.783	22.89
654.972	23.04
655.161	22.93
655.35	22.96
655.539	23.21
655.728	22.92
655.916	22.8
656.105	22.89
656.294	23.1
656.483	23.26
656.672	23.4
656.86	23.18
657.049	23.05
657.238	23.06
657.427	23.26
657.615	22.96
657.804	23.01
657.993	23.04
658.181	23.17
658.37	23.21
658.559	23.21
658.747	23.29
658.936	23.35
659.125	23.19
659.313	23.04
659.502	22.83
659.69	23.07
659.879	23.14
660.067	23.13
660.256	23.15
660.444	23.07
660.633	22.97
660.821	22.84
661.01	22.94
661.198	23.16
661.387	23.32
661.575	23.45
661.763	23.2
661.952	23.06
662.14	22.98
662.328	22.87
662.517	23.06
662.705	22.97
662.893	23.04
663.082	23.23
663.27	23.3
663.458	23.45
663.646	23.38
663.834	23.5
664.023	23.77
664.211	23.66
664.399	23.78
664.587	23.45
664.775	23.71
664.963	23.62
665.152	23.28
665.34	23.31
665.528	23.28
665.716	23.22
665.904	23.3
666.092	23.28
666.28	23.3
666.468	23.06
666.656	23.11
666.844	22.97
667.032	22.97
667.22	23.3
667.408	23.24
667.596	23.16
667.784	23.16
667.971	23.14
668.159	22.97
668.347	23.05
668.535	23.22
668.723	23.42
668.911	23.48
669.098	23.43
669.286	23.23
669.474	23.34
669.662	23.48
669.849	23.57
670.037	23.47
670.225	23.64
670.413	23.58
670.6	23.38
670.788	23.16
670.976	23.33
671.163	23.32
671.351	23.31
671.538	23.31
671.726	23.25
671.913	23.42
672.101	23.48
672.289	23.44
672.476	23.61
672.664	23.69
672.851	23.97
673.039	23.69
673.226	23.74
673.413	23.85
673.601	23.69
673.788	23.38
673.976	23.17
674.163	23.38
674.35	23.4
674.538	23.36
674.725	23.34
674.912	23.19
675.1	23.3
675.287	23.39
675.474	23.45
675.662	23.55
675.849	23.8
676.036	23.81
676.223	23.65
676.411	24.01
676.598	24.17
676.785	24.11
676.972	24.23
677.159	24.26
677.346	24.52
677.533	24.54
677.721	24.67
677.908	24.69
678.095	24.78
678.282	24.78
678.469	24.58
678.656	24.76
678.843	24.8
679.03	24.56
679.217	24.46
679.404	24.08
679.591	24.18
679.778	24.11
679.964	23.99
680.151	23.86
680.338	24
680.525	23.81
680.712	23.49
680.899	23.65
681.086	24.06
681.272	24.27
681.459	24.45
681.646	24.33
681.833	24.48
682.02	24.46
682.206	24.59
682.393	24.47
682.58	24.56
682.766	24.62
682.953	24.52
683.14	24.25
683.326	24.14
683.513	24.3
683.7	24.24
683.886	23.73
684.073	23.75
684.259	23.86
684.446	23.72
684.632	23.81
684.819	23.67
685.005	23.84
685.192	24.14
685.378	24.2
685.565	24.14
685.751	24.03
685.938	24.16
686.124	24.21
686.31	23.97
686.497	24.12
686.683	24
686.87	24.14
687.056	24.14
687.242	23.89
687.429	23.83
687.615	23.87
687.801	23.81
687.987	24.11
688.174	23.95
688.36	24.35
688.546	24.27
688.732	24.36
688.918	24.2
689.105	24.52
689.291	24.47
689.477	24.45
689.663	24.41
689.849	24.56
690.035	24.4
690.221	24.52
690.407	24.25
690.593	24.22
690.779	24.34
690.965	24.42
691.151	23.82
691.337	23.71
691.523	23.56
691.709	23.38
691.895	23.66
692.081	23.63
692.267	23.75
692.453	23.8
692.639	23.6
692.825	23.32
693.011	23.41
693.196	23.57
693.382	23.76
693.568	24.46
693.754	24.59
693.94	24.47
694.125	24.57
694.311	24.91
694.497	24.88
694.682	25.36
694.868	25.6
695.054	25.9
695.239	25.95
695.425	25.87
695.611	25.34
695.796	25.17
695.982	25.14
696.168	24.99
696.353	24.73
696.539	24.74
696.724	24.87
696.91	24.89
697.095	24.72
697.281	24.77
697.466	24.6
697.652	24.64
697.837	24.78
698.023	24.77
698.208	24.82
698.393	24.87
698.579	24.74
698.764	24.54
698.949	24.45
699.135	24.18
699.32	24.28
699.505	24.51
699.691	24.59
699.876	24.62
700.061	24.81
700.246	24.76
700.432	24.56
700.617	24.79
700.802	24.77
700.987	24.59
701.172	24.96
701.358	24.78
701.543	24.82
701.728	24.98
701.913	25.12
702.098	24.76
702.283	25.01
702.468	25.25
702.653	25.04
702.838	25.1
703.023	25.23
703.208	25.03
703.393	24.94
703.578	24.84
703.763	24.58
703.948	24.22
704.133	24.46
704.318	24.55
704.503	24.6
704.688	24.92
704.873	25.14
705.057	25.28
705.242	25.58
705.427	25.87
705.612	26.02
705.797	25.6
705.981	25.63
706.166	25.55
706.351	25.22
706.536	25.48
706.72	25.35
706.905	25.4
707.09	25.56
707.274	25.46
707.459	25.18
707.644	25.14
707.828	25.77
708.013	26.13
708.197	25.91
708.382	26.18
708.567	26.1
708.751	26.33
708.936	26.05
709.12	25.93
709.305	25.93
709.489	26.33
709.673	26.25
709.858	26.15
710.042	25.96
710.227	26.28
710.411	25.95
710.596	25.75
710.78	25.64
710.964	25.7
711.149	25.65
711.333	25.44
711.517	25.19
711.702	25.14
711.886	25.19
712.07	25.26
712.254	24.96
712.438	25.37
712.623	25.36
712.807	25.24
712.991	25.08
713.175	25.06
713.359	25.16
713.544	25.13
713.728	25.1
713.912	24.87
714.096	25.12
714.28	25.12
714.464	24.95
714.648	24.86
714.832	24.83
715.016	24.92
715.2	24.93
715.384	24.91
715.568	24.95
715.752	25.14
715.936	25.1
716.12	24.76
716.304	24.65
716.488	24.74
716.671	24.57
716.855	24.44
717.039	24.5
717.223	24.64
717.407	24.6
717.59	24.53
717.774	24.16
717.958	24.2
718.142	24.05
718.325	24.63
718.509	24.64
718.693	24.64
718.877	24.59
719.06	24.55
719.244	24.6
719.428	24.44
719.611	24.39
719.795	24.52
719.978	24.72
720.162	24.62
720.345	24.36
720.529	24.29
720.713	24.35
720.896	24.6
721.08	24.56
721.263	24.08
721.446	24.14
721.63	24.19
721.813	24.09
721.997	23.78
722.18	23.58
722.364	23.66
722.547	23.11
722.73	23.41
722.914	23.39
723.097	23.24
723.28	23.61
723.464	23.62
723.647	23.52
723.83	23.54
724.013	23.82
724.197	23.95
724.38	24.26
724.563	24.49
724.746	24.54
724.929	24.72
725.112	25.07
725.296	25.17
725.479	25.38
725.662	25.93
725.845	25.85
726.028	25.7
726.211	26.25
726.394	25.61
726.577	25.85
726.76	25.81
726.943	25.79
727.126	25.57
727.309	25.28
727.492	25.5
727.675	25.17
727.858	25.4
728.041	25.62
728.224	25.36
728.407	25.57
728.589	25.43
728.772	25.29
728.955	25.23
729.138	25.37
729.321	25.37
729.503	24.98
729.686	25.15
729.869	25.22
730.052	25.12
730.234	25.1
730.417	25.06
730.6	24.94
730.782	24.86
730.965	24.89
731.148	25.01
731.33	25.4
731.513	25.29
731.695	25.12
731.878	24.97
732.061	24.99
732.243	25.11
732.426	25.34
732.608	25.32
732.791	25.16
732.973	25.1
733.156	24.91
733.338	24.85
733.52	25.17
733.703	24.79
733.885	24.97
734.068	25.11
734.25	25.03
734.432	24.77
734.615	24.78
734.797	25.06
734.979	25.01
735.162	25.09
735.344	24.9
735.526	24.85
735.708	25.1
735.891	25.11
736.073	25.05
736.255	24.77
736.437	25.11
736.619	25.57
736.802	25.81
736.984	25.56
737.166	25.42
737.348	25.49
737.53	25.51
737.712	25.51
737.894	25.37
738.076	24.96
738.258	25.32
738.44	25.21
738.622	24.56
738.804	24.51
738.986	24.25
739.168	24.54
739.35	24.41
739.532	24.52
739.714	24.41
739.896	24.59
740.078	24.87
740.259	24.72
740.441	24.54
740.623	24.94
740.805	24.95
740.987	25.87
741.168	26.18
741.35	25.92
741.532	26.01
741.714	25.94
741.895	25.53
742.077	25.63
742.259	25.83
742.44	25.8
742.622	25.62
742.804	25.81
742.985	25.43
743.167	24.76
743.348	24.87
743.53	24.63
743.711	25
743.893	25.5
744.075	25.16
744.256	24.88
744.438	24.73
744.619	25.32
744.8	24.86
744.982	25.3
745.163	25.61
745.345	26.07
745.526	26.42
745.707	26.39
745.889	25.78
746.07	26.03
746.252	26.55
746.433	27.2
746.614	26.63
746.795	27.17
746.977	26.62
747.158	27.34
747.339	27.46
747.52	27.03
747.702	27.15
747.883	27.51
748.064	27.42
748.245	27.2
748.426	26.45
748.607	26.67
748.788	26.1
748.97	26.19
749.151	25.43
749.332	25.51
749.513	25.44
749.694	25.72
749.875	25.69
750.056	25.71
750.237	25.86
750.418	26.13
750.599	25.83
750.78	26
750.96	26.28
751.141	25.94
751.322	26.15
751.503	26.65
751.684	26.72
751.865	26.79
752.046	26.66
752.226	26.44
752.407	26.4
752.588	26.36
752.769	26.48
752.949	25.83
753.13	25.37
753.311	24.52
753.492	24.08
753.672	23.94
753.853	24.23
754.034	24.53
754.214	24.91
754.395	25.07
754.575	25.41
754.756	25.34
754.937	25.59
755.117	26.62
755.298	26.79
755.478	27.74
755.659	27.63
755.839	27.69
756.02	27.62
756.2	26.97
756.381	27.12
756.561	26.82
756.741	27.34
756.922	27.72
757.102	27.7
757.283	27.39
757.463	26.77
757.643	26.96
757.823	26.87
758.004	26.21
758.184	26.23
758.364	25.89
758.545	25.84
758.725	24.61
758.905	24.16
759.085	23.88
759.265	24.26
759.446	23.77
759.626	23.07
759.806	22.56
759.986	22.82
760.166	23.57
760.346	23.07
760.526	23.4
760.706	24.14
760.886	23.91
761.066	24.01
761.246	23.77
761.426	24.24
761.606	23.99
761.786	23.92
761.966	23.95
762.146	23.36
762.326	23.36
762.506	23.26
762.686	23.04
762.866	23.47
763.046	23.3
763.225	23.63
763.405	23.56
763.585	24
763.765	24.45
763.945	24.52
764.124	24.51
764.304	24.85
764.484	25.16
764.664	25.46
764.843	25.54
765.023	25.79
765.203	25.56
765.382	25.59
765.562	25.19
765.741	24.86
765.921	24.97
766.101	25.14
766.28	25
766.46	25.16
766.639	25.31
766.819	25.71
766.998	25.62
767.178	26.02
767.357	26.21
767.537	26.59
767.716	26.67
767.896	26.22
768.075	26.6
768.254	27.14
768.434	26.58
768.613	26.28
768.792	25.19
768.972	24.79
769.151	24.16
769.33	23.99
769.51	24.03
769.689	23.73
769.868	24.19
770.047	23.81
770.226	22.98
770.406	23.02
770.585	22.95
770.764	23.23
770.943	23.96
771.122	24.51
771.301	24.59
771.48	24.84
771.66	24.97
771.839	25.02
772.018	25.38
772.197	25.81
772.376	26.07
772.555	25.98
772.734	26.07
772.913	25.48
773.092	25.77
773.271	26.28
773.449	25.62
773.628	25.98
773.807	25.65
773.986	25.43
774.165	25.75
774.344	25.69
774.523	26.08
774.701	25.77
774.88	26.4
775.059	25.91
775.238	25.32
775.417	26.34
775.595	26.4
775.774	26.84
775.953	26.58
776.131	26.59
776.31	26.59
776.489	26.16
776.667	26.64
776.846	26.84
777.025	27.5
777.203	27.08
777.382	26.22
777.56	25.7
777.739	25.85
777.917	26.21
778.096	26.92
778.274	27.01
778.453	27.96
778.631	28.35
778.81	27.82
778.988	27.03
779.166	28.16
779.345	28.93
779.523	29.33
779.702	28.34
779.88	27.98
780.058	26.56
780.237	26.12
780.415	25.33
780.593	25.38
780.771	25.98
780.95	26.85
781.128	25.7
781.306	26.18
781.484	26.15
781.662	26.37
781.841	26.88
782.019	26.22
782.197	26.4
782.375	26.6
782.553	26.52
782.731	25.95
782.909	25.48
783.087	25.84
783.265	25.38
783.443	25.31
783.621	25.74
783.799	26.25
783.977	27.5
784.155	27.8
784.333	27.47
784.511	27.36
784.689	26.51
784.867	25.96
785.045	26.8
785.223	26.49
785.4	25.64
785.578	25.23
785.756	24.77
785.934	24.49
786.112	25.17
786.289	24.69
786.467	24.73
786.645	25.67
786.823	26.16
787	25.28
787.178	25.79
787.356	26.58
787.533	27.39
787.711	27.34
787.889	27.27
788.066	26.31
788.244	26.26
788.421	26.38
788.599	26.56
788.776	26.08
788.954	26.38
789.131	25.52
789.309	25.71
789.486	25.59
789.664	25.49
789.841	26.24
790.019	26.27
790.196	26.49
790.373	26.82
790.551	26.81
790.728	27.84
790.906	28.2
791.083	28.06
791.26	27.89
791.437	27.95
791.615	28.67
791.792	27.93
791.969	27.98
792.146	27.73
792.324	26.62
792.501	26.77
792.678	26.08
792.855	25.98
793.032	26.8
793.209	26.36
793.387	25.99
793.564	24.18
793.741	24.49
793.918	24.45
794.095	25.58
794.272	26.86
794.449	26.49
794.626	25.85
794.803	25.93
794.98	25.19
795.157	25.17
795.334	26.74
795.511	27.51
795.688	27.39
795.864	27.23
796.041	25.98
796.218	24.44
796.395	24.68
796.572	24.89
796.749	24.52
796.925	24.89
797.102	25.56
797.279	24.23
797.456	24.28
797.632	24.17
797.809	24.11
797.986	25.12
798.162	25.51
798.339	25.12
798.516	25.38
798.692	25.89
798.869	26.23
799.046	26.21
799.222	25.91
799.399	25.47
799.575	25.41
799.752	26.19
799.928	26.08
800.105	26.29
800.281	26.22
800.458	25.77
800.634	24.72
800.811	24.52
800.987	23.78
801.163	23.58
801.34	24.7
801.516	24.94
801.692	24.58
801.869	24.32
802.045	24.17
802.221	24.85
802.398	25.68
802.574	26.54
802.75	25.85
802.926	27.15
803.103	28.39
803.279	26.84
803.455	27.13
803.631	27.02
803.807	27.5
803.983	28.39
804.16	28.41
804.336	29.4
804.512	29.71
804.688	29.65
804.864	29.37
805.04	28.85
805.216	29.26
805.392	29.03
805.568	28.74
805.744	26.47
805.92	26.29
806.096	25.37
806.272	24.57
806.448	24.02
806.623	25.23
806.799	24.39
806.975	23.76
807.151	24
807.327	24.29
807.503	23.63
807.678	25.75
807.854	24.41
808.03	24.25
808.206	23.75
808.381	23.08
808.557	22.34
808.733	22.9
808.908	23.65
809.084	23.19
809.26	24.19
809.435	24.65
809.611	23.87
809.787	24.95
809.962	25.13
810.138	25.3
810.313	25.8
810.489	25.95
810.664	25.65
810.84	25.71
811.015	27.19
811.191	26.08
811.366	25.75
811.542	26.3
811.717	25.5
811.892	25.97
812.068	26.06
812.243	26.18
812.419	25.56
812.594	25.67
812.769	25.27
812.944	23.33
813.12	21.89
813.295	22.71
813.47	22.88
813.645	23.46
813.821	23.29
813.996	22.75
814.171	21.19
814.346	22.22
814.521	21.07
814.697	19.93
814.872	20.42
815.047	21.9
815.222	23.16
815.397	21.84
815.572	21.4
815.747	21.43
815.922	20.95
816.097	22.26
816.272	21.85
816.447	22.6
816.622	23.85
816.797	24.51
816.972	24.69
817.147	23.62
817.322	24.39
817.496	24.47
817.671	24.3
817.846	24.04
818.021	23.3
818.196	22.85
818.371	22.92
818.545	22.25
818.72	22.15
818.895	21.61
819.069	20.92
819.244	21.77
819.419	21.73
819.594	22.59
819.768	23.66
819.943	24
820.117	25.13
820.292	25
820.467	25.66
820.641	25.37
820.816	25.09
820.99	25.24
821.165	25.14
821.339	24.89
821.514	24.75
821.688	24.66
821.863	24.62
822.037	24.48
822.212	24.31
822.386	24.26
822.56	24.28
822.735	24.38
822.909	24.33
823.084	24.2
823.258	24.26
823.432	24.2
823.606	24.06
823.781	24.11
823.955	24.3
824.129	24.4
824.303	24.22
824.478	24.43
824.652	24.25
824.826	24.37
825	24.84
825.174	24.46
825.348	24.33
825.523	24.42
825.697	24.55
825.871	23.54
826.045	23.5
826.219	23.61
826.393	23.8
826.567	23.76
826.741	23.78
826.915	23.35
827.089	24.3
827.263	23.99
827.437	24.25
827.611	24.27
827.784	24.36
827.958	24.46
828.132	24.51
828.306	23.95
828.48	24.32
828.654	23.97
828.827	23.41
829.001	23.03
829.175	23.37
829.349	23.31
829.522	23.44
829.696	23.37
829.87	23.6
830.044	22.69
830.217	23.5
830.391	23.48
830.565	23.99
830.738	25.52
830.912	25.14
831.085	24.65
831.259	24.83
831.432	22.38
831.606	24.07
831.779	23.92
831.953	24.46
832.126	24.73
832.3	24.37
832.473	24.63
832.647	23.69
832.82	23.88
832.994	25.04
833.167	24.88
833.34	25.6
833.514	26.24
833.687	25.53
833.86	26.16
834.034	25.23
834.207	25.52
834.38	25.23
834.553	25.12
834.727	25.13
834.9	23.88
835.073	23.75
835.246	23.47
835.419	22.1
835.593	22.53
835.766	22.09
835.939	23.02
836.112	22.53
836.285	22.2
836.458	22.1
836.631	22
836.804	22.69
836.977	22.34
837.15	22.68
837.323	23.75
837.496	24.3
837.669	23.09
837.842	21.51
838.015	21.62
838.188	21.85
838.361	22.78
838.533	23.02
838.706	24.78
838.879	25.49
839.052	27.4
839.225	27.33
839.398	26.69
839.57	27.53
839.743	28.62
839.916	27.94
840.088	29.48
840.261	27.66
840.434	28.62
840.607	27.87
840.779	26.77
840.952	26.85
841.124	26.33
841.297	26.37
841.47	27.76
841.642	27.27
841.815	26.75
841.987	24.41
842.16	25.02
842.332	24.76
842.505	23.97
842.677	24.55
842.85	22.54
843.022	23.23
843.194	21.5
843.367	19.04
843.539	19.09
843.712	19.57
843.884	20.49
844.056	20.75
844.229	18.65
844.401	18.62
844.573	21.33
844.745	21.75
844.918	19.61
845.09	22.32
845.262	24.63
845.434	22.72
845.606	21.57
845.779	24.25
845.951	24.93
846.123	25.97
846.295	24.51
846.467	22.26
846.639	20.28
846.811	19.84
846.983	20.82
847.155	20.15
847.327	17.75
847.499	20.47
847.671	17.24
847.843	18.8
848.015	17.4
848.187	17.35
848.359	18.44
848.531	21.82
848.703	20.27
848.875	15.42
849.047	12.62
849.218	13.14
849.39	14
849.562	11.96
849.734	13.81
849.905	13.44
850.077	15.24
850.249	15.54
850.421	12.98
850.592	15.29
850.764	16.18
850.936	17.13
851.107	17.78
851.279	16.35
851.451	18.95
851.622	15.45
851.794	17.61
851.965	20.79
852.137	17.93
852.308	17.52
852.48	18.15
852.651	20.42
852.823	23.19
852.994	23.92
853.166	25.27
853.337	29.02
853.509	29.75
853.68	30.19
853.851	27.02
854.023	27.23
854.194	27.87
854.365	28.16
854.537	29.8
854.708	28.87
854.879	30.41
855.05	27.65
855.222	24.55
855.393	23.98
855.564	22.31
855.735	17.96
855.906	18.63
856.078	20.41
856.249	14.05
856.42	14.1
856.591	15.51
856.762	17.61
856.933	18.49
857.104	15.31
857.275	13.69
857.446	14.03
857.617	15.5
857.788	12.99
857.959	11.48
858.13	15.61
858.301	13.92
858.472	10.69
858.643	8.46
858.814	7.98
858.985	9.98
859.155	10.97
859.326	11.98
859.497	16.5
859.668	19.94
859.839	18.89
860.009	22.27
860.18	20.07
860.351	19.66
860.522	17.83
860.692	17.27
860.863	17.91
861.034	21.67
861.204	21.38
861.375	20.84
861.546	19.09
861.716	21.09
861.887	22.9
862.057	26.67
862.228	27.53
862.398	26.06
862.569	25.65
862.739	24.61
862.91	21.75
863.08	21.78
863.251	17.49
863.421	16.82
863.592	12.05
863.762	8.94
863.932	7.72
864.103	7.57
864.273	10.99
864.443	15.08
864.614	15.53
864.784	11.5
864.954	8.87
865.125	11.88
865.295	13.28
865.465	16.27
865.635	14.56
865.805	9.54
865.976	12.01
866.146	11.69
866.316	7.62
866.486	7.95
866.656	9.23
866.826	14.69
866.996	13.2
867.166	16.66
867.336	11.03
867.506	9.73
867.676	15.66
867.846	12.04
868.016	15.37
868.186	17.42
868.356	16.13
868.526	22.42
868.696	19.91
868.866	20.62
869.036	16.65
869.206	22.04
869.376	26.34
869.545	25.77
869.715	25.59
869.885	23.96
870.055	25.4
870.224	21.57
870.394	14.58
870.564	15.26
870.734	13.96
870.903	15.19
871.073	16.05
871.243	7.33
871.412	3.51
871.582	7.41
871.751	3.44
871.921	0.24
872.091	6.68
872.26	7.7
872.43	9.58
872.599	11.25
872.769	11.23
872.938	13.4
873.108	17.74
873.277	19.73
873.446	17.59
873.616	20.17
873.785	21.14
873.955	19.98
874.124	23.98
874.293	21.59
874.463	23.72
874.632	22.25
874.801	24.85
874.971	22.63
875.14	21.55
875.309	25.27
875.478	26.7
875.647	26.25
875.817	26.55
875.986	24.74
876.155	23.8
876.324	24.24
876.493	24.98
876.662	18.2
876.831	22.32
877	23.34
877.17	24.17
877.339	22.62
877.508	22.81
877.677	22.09
877.846	22.98
878.015	21.85
878.184	18.98
878.352	19.75
878.521	18.77
878.69	18.46
878.859	18.87
879.028	16.61
879.197	16.44
879.366	17.15
879.534	16.08
879.703	16.28
879.872	19.4
880.041	21.83
880.21	20.91
880.378	22.42
880.547	21.75
880.716	22.22
880.884	22.94
881.053	23.12
881.222	23.9
881.39	24.2
881.559	23.54
881.727	23.42
881.896	23.07
882.065	24.17
882.233	23.61
882.402	23.55
882.57	23.5
882.739	23.03
882.907	23.13
883.076	22.59
883.244	22.64
883.412	22.46
883.581	22.36
883.749	22.29
883.918	21.11
884.086	20.98
884.254	21.11
884.423	20.64
884.591	20.85
884.759	20.25
884.927	20.24
885.096	20.1
885.264	20.54
885.432	19.64
885.6	18.1
885.769	18.65
885.937	20.35
886.105	19.99
886.273	20.27
886.441	18.74
886.609	20.89
886.777	20.41
886.945	19.1
887.113	20.32
887.281	20.71
887.449	22.32
887.617	24.35
887.785	21.42
887.953	22.24
888.121	20.18
888.289	20.71
888.457	17.55
888.625	16.65
888.793	14.27
888.961	12.7
889.129	16.42
889.296	14.46
889.464	9.38
889.632	11.65
889.8	8.56
889.967	10.23
890.135	9.7
