Data from 2938748__Reflection_01.txt Node
Date: Sun Mar 15 11:24:40 EDT 2015
User: robert
Spectrometer: USB4E03002
Autoset integration time: false
Trigger mode: 4
Integration Time (sec): 1.000000E-1
Scans to average: 10
Electric dark correction enabled: false
Nonlinearity correction enabled: false
Boxcar width: 5
Stray light correction enabled: false
XAxis mode: Wavelengths
Stop averaging: false
Number of Pixels in Spectrum: 3648
>>>>>Begin Spectral Data<<<<<
177.575	423.89
177.794	375.21
178.014	330.09
178.233	319.83
178.452	305.95
178.672	281.85
178.891	264.18
179.11	257.47
179.33	231.45
179.549	226.76
179.768	222.18
179.987	209.93
180.207	207.36
180.426	202.68
180.645	197.47
180.864	194.15
181.084	188.97
181.303	187.82
181.522	180.41
181.741	183.06
181.96	173.55
182.179	183.9
182.398	182.14
182.618	174.59
182.837	183.52
183.056	178.55
183.275	171.59
183.494	173.84
183.713	173.75
183.932	173.25
184.151	182.96
184.37	193.8
184.589	184.87
184.808	192.46
185.027	198.3
185.246	181.44
185.465	190
185.684	191.9
185.903	191.94
186.122	183.55
186.341	189.98
186.56	182.62
186.779	171.01
186.998	171.83
187.216	169.37
187.435	173.84
187.654	177.68
187.873	176.68
188.092	181.26
188.311	187.33
188.53	204.19
188.748	207.99
188.967	196.26
189.186	208.46
189.405	206.33
189.623	208.88
189.842	202.83
190.061	217.84
190.28	204.21
190.498	200.33
190.717	203.68
190.936	191.29
191.154	173.8
191.373	182.11
191.592	182.02
191.81	180.27
192.029	179.99
192.248	174.04
192.466	174.2
192.685	173.13
192.904	175.61
193.122	174.67
193.341	178.53
193.559	198.41
193.778	200.8
193.996	194.83
194.215	200.51
194.433	196.25
194.652	201.45
194.87	194.01
195.089	201.43
195.307	198.93
195.526	186.75
195.744	187.96
195.963	174.26
196.181	163.93
196.399	164.53
196.618	161.39
196.836	156.05
197.055	157.34
197.273	158.56
197.491	160.66
197.71	160.07
197.928	166.58
198.146	162.97
198.365	163.51
198.583	167.85
198.801	168.83
199.019	176.14
199.238	197.7
199.456	193.01
199.674	189.32
199.892	190.6
200.111	200.09
200.329	201.5
200.547	197.75
200.765	207
200.983	213.43
201.202	196.47
201.42	193.9
201.638	176.66
201.856	181.97
202.074	177.63
202.292	169.85
202.51	166.03
202.728	161.75
202.946	168.09
203.165	164.78
203.383	157.02
203.601	164.9
203.819	169.52
204.037	175.84
204.255	176.14
204.473	176.71
204.691	187.63
204.909	184.36
205.127	189.95
205.345	171.81
205.562	163.15
205.78	175.12
205.998	176.82
206.216	177.73
206.434	187.33
206.652	186.69
206.87	191.54
207.088	183.78
207.306	183.23
207.523	184.75
207.741	188.75
207.959	196.36
208.177	186.68
208.395	183.04
208.612	180.35
208.83	165.42
209.048	164.91
209.266	160.8
209.483	156.02
209.701	156.95
209.919	154.86
210.136	156.09
210.354	168.33
210.572	167.16
210.79	178.3
211.007	176.25
211.225	173.57
211.442	169.4
211.66	174.96
211.878	179.62
212.095	189.7
212.313	181.34
212.53	187.39
212.748	170.08
212.966	156.27
213.183	142.42
213.401	138.1
213.618	145.06
213.836	146.62
214.053	143.76
214.271	150.33
214.488	156.11
214.705	156.68
214.923	162.61
215.14	154.13
215.358	166.69
215.575	169.66
215.793	169.5
216.01	161.62
216.227	162
216.445	167.8
216.662	158.34
216.879	148.3
217.097	148.96
217.314	137.8
217.531	144.29
217.749	140.9
217.966	141.01
218.183	141.5
218.4	143.54
218.618	139.89
218.835	137.56
219.052	137.84
219.269	138.64
219.487	135.26
219.704	135.86
219.921	132.29
220.138	130.86
220.355	128.41
220.572	126.98
220.79	126.18
221.007	122.7
221.224	121.32
221.441	118.29
221.658	117
221.875	118.4
222.092	119.51
222.309	121.79
222.526	116.16
222.743	117.95
222.96	112.19
223.177	110.81
223.394	110.82
223.611	106.29
223.828	108.64
224.045	109.05
224.262	111.58
224.479	109.69
224.696	106.94
224.913	106.5
225.13	101.19
225.347	103.3
225.564	98.58
225.781	95.02
225.997	91.88
226.214	86.93
226.431	80.66
226.648	73.93
226.865	64.9
227.082	58.99
227.298	54.8
227.515	50.53
227.732	46.38
227.949	42.69
228.165	39.52
228.382	37.32
228.599	34.14
228.816	32.9
229.032	31.13
229.249	31.4
229.466	31.04
229.682	30.13
229.899	29.99
230.116	30.16
230.332	30.72
230.549	31.15
230.765	32.51
230.982	34.95
231.199	37.1
231.415	40.02
231.632	41.98
231.848	43.36
232.065	45.49
232.281	46.98
232.498	46.11
232.714	46.85
232.931	50.27
233.147	50.42
233.364	50.71
233.58	48.05
233.797	47.01
234.013	46.16
234.23	45.77
234.446	44.94
234.662	44.74
234.879	45.33
235.095	45.09
235.312	42.86
235.528	43.72
235.744	43.21
235.961	44.09
236.177	43.76
236.393	44.81
236.61	45.57
236.826	45.87
237.042	45.98
237.258	47.09
237.475	48.12
237.691	48.05
237.907	45.82
238.123	46.09
238.339	46.06
238.556	46.15
238.772	45.28
238.988	44.06
239.204	44.53
239.42	43.33
239.636	39.97
239.853	38.51
240.069	38.37
240.285	37.66
240.501	34.48
240.717	32.78
240.933	30.08
241.149	28.49
241.365	26.3
241.581	24.44
241.797	23.27
242.013	22.54
242.229	21.18
242.445	19.88
242.661	19.16
242.877	19.85
243.093	19.61
243.309	20.55
243.525	20.77
243.741	21.97
243.957	22.8
244.173	23.1
244.388	24.19
244.604	24.56
244.82	24.47
245.036	23.99
245.252	22.78
245.468	21.97
245.683	20.44
245.899	18.81
246.115	17.24
246.331	16.13
246.547	15.19
246.762	14.45
246.978	14.27
247.194	13.96
247.409	13.67
247.625	13.43
247.841	12.85
248.057	12.83
248.272	13.04
248.488	13.29
248.703	13.6
248.919	14.06
249.135	14.26
249.35	15.04
249.566	16.11
249.782	16.88
249.997	18.46
250.213	20.29
250.428	21.07
250.644	22.4
250.859	23.17
251.075	23.07
251.29	22.23
251.506	23.02
251.721	21.76
251.937	21.16
252.152	20.98
252.368	20.37
252.583	20.25
252.798	20.48
253.014	19.93
253.229	19.84
253.445	21.07
253.66	23.03
253.875	22.84
254.091	24.15
254.306	25.34
254.521	26.67
254.737	26.49
254.952	26.32
255.167	25.76
255.383	26.01
255.598	26.82
255.813	25.91
256.028	26.73
256.244	26.97
256.459	27.23
256.674	26.79
256.889	25.79
257.104	25.55
257.32	25.73
257.535	24.69
257.75	23.51
257.965	21.72
258.18	19.75
258.395	17.54
258.61	15.62
258.826	14.24
259.041	13.3
259.256	12.2
259.471	11.62
259.686	10.64
259.901	10.33
260.116	9.85
260.331	9.86
260.546	9.93
260.761	9.74
260.976	10.48
261.191	10.74
261.406	11.3
261.621	12.65
261.836	13.44
262.05	14.55
262.265	15.79
262.48	17.31
262.695	18.15
262.91	19.07
263.125	20.64
263.34	20.85
263.555	21.75
263.769	22.08
263.984	21.36
264.199	21.12
264.414	21.32
264.629	21.03
264.843	20.22
265.058	20.51
265.273	20.2
265.488	19.07
265.702	19.06
265.917	18.31
266.132	18.16
266.346	17.64
266.561	17.59
266.776	17.05
266.99	16.72
267.205	17.03
267.42	16.42
267.634	16.56
267.849	16.59
268.063	16.34
268.278	16.7
268.492	16.41
268.707	16.87
268.922	16.93
269.136	16.86
269.351	17.34
269.565	17.18
269.78	17.27
269.994	17.08
270.209	16.62
270.423	16.2
270.637	15.81
270.852	15.37
271.066	14.55
271.281	13.91
271.495	13.43
271.709	12.7
271.924	12.37
272.138	12.15
272.353	12.41
272.567	12.81
272.781	12.69
272.996	12.53
273.21	12.73
273.424	12.85
273.638	13.51
273.853	14.26
274.067	14.71
274.281	14.89
274.495	15.14
274.71	15.05
274.924	15.03
275.138	15.39
275.352	15.19
275.566	15.01
275.781	15.86
275.995	15.35
276.209	15.61
276.423	15.62
276.637	15.63
276.851	15.79
277.065	15.41
277.279	15.19
277.493	15.61
277.707	16.31
277.921	16.49
278.135	16.21
278.349	16.41
278.563	15.39
278.777	15.42
278.991	15.56
279.205	15.58
279.419	15.99
279.633	16.09
279.847	15.58
280.061	14.81
280.275	14.42
280.489	13.83
280.703	13.02
280.917	13.34
281.131	13.09
281.344	12.39
281.558	12.33
281.772	12.45
281.986	12.32
282.2	12.14
282.414	12.28
282.627	12.38
282.841	12.8
283.055	13.14
283.269	12.87
283.482	12.83
283.696	13.25
283.91	13.21
284.123	12.37
284.337	12.08
284.551	11.72
284.764	11.77
284.978	11.9
285.192	11.65
285.405	11.58
285.619	11.35
285.833	11.1
286.046	10.82
286.26	10.59
286.473	10.68
286.687	10.83
286.9	11.09
287.114	11.08
287.327	11.1
287.541	10.94
287.754	11.01
287.968	11.16
288.181	11.32
288.395	11.87
288.608	11.62
288.822	11.37
289.035	11.32
289.248	11.03
289.462	10.9
289.675	10.96
289.889	11.21
290.102	11.04
290.315	11.53
290.529	11.14
290.742	10.75
290.955	11.08
291.169	11.61
291.382	11.73
291.595	12.43
291.808	12.68
292.022	12.65
292.235	12.6
292.448	13.26
292.661	13.19
292.875	13.54
293.088	13.86
293.301	14.26
293.514	14.42
293.727	14.06
293.94	13.77
294.153	14.12
294.367	13.82
294.58	13.51
294.793	13.21
295.006	13.27
295.219	13.23
295.432	12.78
295.645	12.2
295.858	11.41
296.071	11.41
296.284	11.18
296.497	10.62
296.71	10.6
296.923	10.62
297.136	10.44
297.349	9.85
297.562	9.66
297.775	9.69
297.988	10.07
298.201	10.58
298.414	10.25
298.626	10.46
298.839	10.56
299.052	10.72
299.265	10.86
299.478	11
299.691	11.47
299.903	11.81
300.116	12.07
300.329	12.05
300.542	11.96
300.755	12.88
300.967	12.86
301.18	12.91
301.393	12.98
301.605	13.07
301.818	13.26
302.031	13.3
302.243	13.41
302.456	13.18
302.669	12.99
302.881	13.35
303.094	13.65
303.307	13.54
303.519	13.79
303.732	13.69
303.944	13.63
304.157	13.47
304.37	13.55
304.582	13.78
304.795	14.05
305.007	13.88
305.22	13.61
305.432	13.34
305.645	13.52
305.857	13.62
306.069	13.93
306.282	14.09
306.494	14.33
306.707	14.54
306.919	14.43
307.132	14.23
307.344	14.29
307.556	14.77
307.769	14.76
307.981	14.82
308.193	14.56
308.406	13.92
308.618	13.76
308.83	13.24
309.043	12.91
309.255	12.71
309.467	12.91
309.679	12.9
309.892	12.46
310.104	12.25
310.316	11.96
310.528	12.04
310.74	12.25
310.953	12.43
311.165	12.72
311.377	12.95
311.589	13.32
311.801	13.21
312.013	13.02
312.225	13.16
312.437	13.46
312.649	13.9
312.862	14.27
313.074	14.48
313.286	14.36
313.498	14.43
313.71	14.51
313.922	14.59
314.134	14.91
314.346	15.37
314.558	15.47
314.77	15.44
314.982	15.53
315.193	15.46
315.405	15.34
315.617	15.45
315.829	15.42
316.041	15.24
316.253	14.92
316.465	15.31
316.677	15.31
316.888	15.83
317.1	15.49
317.312	15.73
317.524	15.8
317.736	16.26
317.947	16.61
318.159	16.98
318.371	17.15
318.583	17.35
318.794	17.38
319.006	17.85
319.218	17.27
319.43	17.98
319.641	17.69
319.853	17.81
320.064	18.25
320.276	18.82
320.488	19.14
320.699	19.41
320.911	19.79
321.123	19.92
321.334	19.71
321.546	20.56
321.757	20.48
321.969	20.94
322.18	20.43
322.392	20.01
322.603	19.4
322.815	19.87
323.026	19.85
323.238	19.97
323.449	19.66
323.661	19.57
323.872	18.85
324.083	18.84
324.295	18.67
324.506	18.84
324.718	18.85
324.929	19.07
325.14	18.56
325.352	18.78
325.563	18.51
325.774	18.69
325.986	18.85
326.197	19.22
326.408	19.38
326.62	19.65
326.831	20.06
327.042	20.39
327.253	20.58
327.464	20.76
327.676	20.74
327.887	21.12
328.098	21.28
328.309	21.88
328.52	22.5
328.732	22.74
328.943	22.9
329.154	23.24
329.365	23.2
329.576	23.64
329.787	23.95
329.998	24.87
330.209	25.29
330.42	25.8
330.631	25.61
330.842	25.81
331.053	25.78
331.264	25.7
331.475	26.08
331.686	26.7
331.897	26.94
332.108	27.27
332.319	27.02
332.53	26.89
332.741	26.82
332.952	27.23
333.163	27.33
333.374	27.53
333.585	27.52
333.795	27.27
334.006	27.24
334.217	27.01
334.428	27.02
334.639	26.93
334.849	26.94
335.06	27.12
335.271	26.9
335.482	26.63
335.692	26.49
335.903	26.73
336.114	26.87
336.325	26.6
336.535	26.53
336.746	26.62
336.957	27.05
337.167	27.23
337.378	27.09
337.589	27.32
337.799	27.19
338.01	27.25
338.22	27.4
338.431	27.81
338.642	28.17
338.852	27.98
339.063	27.85
339.273	27.48
339.484	27.28
339.694	27.19
339.905	26.99
340.115	27.07
340.326	27.05
340.536	27.26
340.746	26.74
340.957	26.67
341.167	27.14
341.378	26.97
341.588	26.77
341.799	27.11
342.009	26.9
342.219	26.74
342.43	26.73
342.64	27.14
342.85	26.62
343.061	26.43
343.271	26.22
343.481	26.02
343.691	26.19
343.902	25.99
344.112	25.71
344.322	25.28
344.532	25.38
344.743	25.26
344.953	25.04
345.163	24.97
345.373	25
345.583	24.94
345.793	24.51
346.004	24.42
346.214	24.35
346.424	24.25
346.634	24.8
346.844	24.62
347.054	24.96
347.264	24.92
347.474	25.26
347.684	25.11
347.894	25.36
348.104	25.55
348.314	25.63
348.524	26.05
348.734	26.07
348.944	26.13
349.154	26.36
349.364	26.01
349.574	25.94
349.784	25.7
349.994	25.68
350.204	25.67
350.413	25.89
350.623	25.75
350.833	25.78
351.043	25.87
351.253	25.9
351.463	25.18
351.672	25.24
351.882	24.8
352.092	24.87
352.302	25.14
352.511	24.97
352.721	24.73
352.931	24.53
353.141	24.03
353.35	23.96
353.56	23.77
353.77	24.43
353.979	24.31
354.189	24.74
354.399	24.73
354.608	24.28
354.818	24.22
355.027	24.03
355.237	24.05
355.447	24.01
355.656	23.77
355.866	23.52
356.075	23.34
356.285	23.14
356.494	22.82
356.704	22.74
356.913	22.92
357.123	22.74
357.332	22.85
357.542	22.96
357.751	23.25
357.96	23.07
358.17	23.25
358.379	23.14
358.589	23.04
358.798	23.11
359.007	22.7
359.217	22.59
359.426	22.44
359.635	22.32
359.845	21.97
360.054	21.5
360.263	21.62
360.472	21.68
360.682	21.36
360.891	21.46
361.1	21.29
361.309	21.48
361.519	21.24
361.728	21.09
361.937	21.13
362.146	21.36
362.355	21.43
362.564	21.3
362.774	21.04
362.983	21.42
363.192	21.52
363.401	21.59
363.61	21.46
363.819	21.62
364.028	21.75
364.237	21.57
364.446	21.52
364.655	21.61
364.864	21.63
365.073	21.83
365.282	21.76
365.491	21.83
365.7	21.96
365.909	22.07
366.118	21.98
366.327	22.07
366.536	22.17
366.745	21.91
366.954	21.9
367.162	22.17
367.371	21.88
367.58	21.59
367.789	21.33
367.998	21.24
368.207	21.49
368.415	21.66
368.624	21.69
368.833	21.77
369.042	22.03
369.25	22.17
369.459	22.18
369.668	22.43
369.877	22.42
370.085	22.39
370.294	22.15
370.503	21.91
370.711	21.8
370.92	21.63
371.129	21.56
371.337	21.2
371.546	21.25
371.754	21.08
371.963	21.07
372.171	21.21
372.38	21.12
372.589	21.63
372.797	21.33
373.006	21.1
373.214	21.38
373.423	21.48
373.631	21.6
373.84	21.62
374.048	21.8
374.256	21.68
374.465	21.51
374.673	21.54
374.882	21.12
375.09	21.22
375.298	21.41
375.507	21.07
375.715	20.9
375.923	20.81
376.132	20.66
376.34	20.37
376.548	20.15
376.757	20.21
376.965	20.23
377.173	20.25
377.381	20.41
377.59	20.37
377.798	20.48
378.006	20.45
378.214	20.51
378.423	20.33
378.631	20.45
378.839	20.55
379.047	20.4
379.255	20.32
379.463	20.22
379.671	20.13
379.879	20.31
380.088	20.19
380.296	20.22
380.504	20.05
380.712	20.31
380.92	20.02
381.128	20.18
381.336	20.14
381.544	20.13
381.752	20.23
381.96	20.2
382.168	20.06
382.376	20.01
382.584	20.12
382.791	20.14
382.999	19.83
383.207	19.82
383.415	19.6
383.623	19.52
383.831	19.42
384.039	19.28
384.247	19.14
384.454	19.03
384.662	18.9
384.87	18.6
385.078	18.73
385.285	18.48
385.493	18.59
385.701	18.73
385.909	18.85
386.116	18.99
386.324	19
386.532	19.08
386.739	19.11
386.947	19.27
387.155	19.17
387.362	19.14
387.57	19.43
387.778	19.11
387.985	19.01
388.193	19.12
388.4	19.08
388.608	18.92
388.816	18.82
389.023	18.86
389.231	18.63
389.438	18.82
389.646	18.63
389.853	18.55
390.061	18.62
390.268	18.61
390.475	18.19
390.683	17.99
390.89	17.97
391.098	17.77
391.305	17.53
391.512	17.67
391.72	17.63
391.927	17.47
392.135	17.45
392.342	17.49
392.549	17.46
392.756	17.56
392.964	17.62
393.171	17.7
393.378	17.99
393.586	17.99
393.793	17.95
394	17.85
394.207	18.06
394.414	18.1
394.622	18.01
394.829	17.91
395.036	17.91
395.243	17.97
395.45	17.9
395.657	17.87
395.864	18.06
396.072	18.18
396.279	18.2
396.486	18.32
396.693	18.22
396.9	18.03
397.107	18.25
397.314	18.38
397.521	18.17
397.728	18.21
397.935	18.01
398.142	17.98
398.349	17.97
398.556	17.98
398.763	17.66
398.97	17.75
399.177	17.95
399.383	17.86
399.59	17.82
399.797	18
400.004	18.02
400.211	18.16
400.418	18.09
400.625	17.97
400.831	17.99
401.038	18.08
401.245	18.09
401.452	18.03
401.658	17.86
401.865	17.78
402.072	17.7
402.279	17.52
402.485	17.45
402.692	17.3
402.899	17.24
403.105	17.26
403.312	17.2
403.519	16.98
403.725	16.98
403.932	16.76
404.138	16.84
404.345	16.69
404.552	16.69
404.758	16.65
404.965	16.69
405.171	16.5
405.378	16.28
405.584	16.33
405.791	16.41
405.997	16.47
406.204	16.79
406.41	16.64
406.617	16.69
406.823	16.79
407.029	16.79
407.236	16.97
407.442	17.11
407.649	17.28
407.855	17.31
408.061	17.29
408.268	17.39
408.474	17.2
408.68	17.31
408.887	17.29
409.093	17.34
409.299	17.26
409.505	17.04
409.712	17.23
409.918	17.17
410.124	17.02
410.33	17.07
410.537	16.91
410.743	16.97
410.949	16.9
411.155	16.94
411.361	16.76
411.567	16.64
411.773	16.87
411.98	16.62
412.186	16.6
412.392	16.76
412.598	16.69
412.804	16.88
413.01	16.79
413.216	16.91
413.422	16.89
413.628	17.1
413.834	17.25
414.04	16.99
414.246	17.08
414.452	17.03
414.658	16.87
414.864	16.95
415.07	16.7
415.275	16.58
415.481	16.46
415.687	16.53
415.893	16.37
416.099	16.32
416.305	16.21
416.511	16.05
416.716	15.82
416.922	15.73
417.128	15.51
417.334	15.3
417.539	15.37
417.745	15.25
417.951	14.97
418.157	14.86
418.362	14.77
418.568	14.7
418.774	14.65
418.979	14.69
419.185	14.59
419.391	14.55
419.596	14.52
419.802	14.44
420.008	14.38
420.213	14.83
420.419	14.85
420.624	14.71
420.83	14.7
421.035	14.66
421.241	14.68
421.446	14.77
421.652	14.68
421.857	14.76
422.063	14.66
422.268	14.6
422.474	14.15
422.679	14.02
422.885	14.14
423.09	14.18
423.295	14.15
423.501	14.07
423.706	14
423.911	14.06
424.117	14.03
424.322	14.05
424.527	14.13
424.733	14.12
424.938	14.19
425.143	14.19
425.349	14.17
425.554	14.2
425.759	14.28
425.964	14.38
426.169	14.53
426.375	14.56
426.58	14.86
426.785	14.94
426.99	15.13
427.195	15.22
427.4	15.19
427.605	15.31
427.811	15.34
428.016	15.31
428.221	15.24
428.426	15.25
428.631	15.33
428.836	15.11
429.041	15.09
429.246	15.12
429.451	15.07
429.656	15.1
429.861	15.04
430.066	15.22
430.271	15.34
430.476	15.45
430.681	15.29
430.886	15.34
431.09	15.37
431.295	15.35
431.5	15.37
431.705	15.32
431.91	15.35
432.115	15.3
432.32	15.17
432.524	15.1
432.729	15.03
432.934	15.14
433.139	15.12
433.343	15.07
433.548	14.97
433.753	14.9
433.958	15
434.162	15.1
434.367	15.24
434.572	15.26
434.776	15.28
434.981	15.32
435.186	15.29
435.39	15.29
435.595	15.29
435.799	15.41
436.004	15.37
436.209	15.35
436.413	15.17
436.618	14.98
436.822	14.97
437.027	15.06
437.231	15.05
437.436	14.96
437.64	14.89
437.845	14.93
438.049	14.94
438.253	14.94
438.458	14.82
438.662	14.85
438.867	14.93
439.071	14.88
439.275	14.76
439.48	14.68
439.684	14.58
439.888	14.5
440.093	14.36
440.297	14.22
440.501	14.2
440.706	14.31
440.91	14.36
441.114	14.33
441.318	14.33
441.523	14.32
441.727	14.35
441.931	14.49
442.135	14.55
442.339	14.66
442.543	14.75
442.748	14.84
442.952	14.78
443.156	14.79
443.36	14.78
443.564	14.78
443.768	14.76
443.972	14.76
444.176	14.69
444.38	14.65
444.584	14.63
444.788	14.6
444.992	14.45
445.196	14.38
445.4	14.25
445.604	14.22
445.808	14.17
446.012	14.07
446.216	13.96
446.42	13.94
446.624	13.98
446.828	13.92
447.032	13.81
447.235	13.83
447.439	13.86
447.643	13.82
447.847	13.87
448.051	13.9
448.254	13.97
448.458	14.13
448.662	14.14
448.866	14.1
449.069	14.26
449.273	14.53
449.477	14.63
449.681	14.71
449.884	14.92
450.088	14.89
450.292	14.86
450.495	14.98
450.699	14.97
450.902	15.09
451.106	15.12
451.31	15.09
451.513	14.93
451.717	14.87
451.92	14.82
452.124	14.82
452.327	14.95
452.531	15.06
452.734	15.05
452.938	15.11
453.141	15.11
453.345	15.11
453.548	15.08
453.752	15.14
453.955	15.21
454.158	15.22
454.362	15.09
454.565	15.03
454.769	14.96
454.972	14.92
455.175	14.87
455.379	14.79
455.582	14.84
455.785	14.74
455.988	14.76
456.192	14.75
456.395	14.88
456.598	14.88
456.801	14.8
457.005	14.83
457.208	14.83
457.411	14.69
457.614	14.57
457.817	14.47
458.021	14.47
458.224	14.33
458.427	14.23
458.63	14.07
458.833	14.08
459.036	13.99
459.239	13.94
459.442	13.87
459.645	13.9
459.848	13.88
460.051	13.86
460.254	13.89
460.457	13.9
460.66	14
460.863	14.02
461.066	13.98
461.269	14.04
461.472	14.13
461.675	14.13
461.878	14.23
462.081	14.42
462.284	14.46
462.486	14.52
462.689	14.66
462.892	14.63
463.095	14.8
463.298	14.87
463.5	15.06
463.703	15.03
463.906	15.3
464.109	15.26
464.311	15.23
464.514	15.37
464.717	15.34
464.92	15.28
465.122	15.26
465.325	15.16
465.528	15.22
465.73	15.07
465.933	15.17
466.135	15.1
466.338	15.14
466.541	15.08
466.743	15.08
466.946	15.13
467.148	15.2
467.351	15.22
467.553	15.35
467.756	15.39
467.958	15.45
468.161	15.4
468.363	15.35
468.566	15.32
468.768	15.37
468.971	15.24
469.173	15.24
469.375	15.16
469.578	15
469.78	14.95
469.983	14.94
470.185	15.02
470.387	15.01
470.59	14.96
470.792	14.97
470.994	14.92
471.196	15
471.399	14.97
471.601	15.02
471.803	15.2
472.005	15.23
472.208	15.31
472.41	15.31
472.612	15.31
472.814	15.2
473.016	15.25
473.218	15.35
473.421	15.43
473.623	15.53
473.825	15.61
474.027	15.67
474.229	15.55
474.431	15.44
474.633	15.37
474.835	15.39
475.037	15.59
475.239	15.51
475.441	15.54
475.643	15.34
475.845	15.25
476.047	15.15
476.249	14.98
476.451	14.86
476.653	14.82
476.855	14.75
477.057	14.63
477.258	14.49
477.46	14.56
477.662	14.57
477.864	14.66
478.066	14.59
478.268	14.51
478.469	14.65
478.671	14.72
478.873	14.64
479.075	14.7
479.276	14.72
479.478	14.71
479.68	14.63
479.882	14.61
480.083	14.57
480.285	14.62
480.487	14.61
480.688	14.5
480.89	14.51
481.091	14.49
481.293	14.36
481.495	14.24
481.696	14.05
481.898	13.88
482.099	13.66
482.301	13.44
482.502	13.21
482.704	13.06
482.905	12.98
483.107	12.89
483.308	12.79
483.51	12.77
483.711	12.71
483.913	12.68
484.114	12.64
484.315	12.6
484.517	12.61
484.718	12.68
484.92	12.69
485.121	12.7
485.322	12.71
485.524	12.77
485.725	12.78
485.926	12.83
486.127	12.88
486.329	12.95
486.53	13.01
486.731	13.05
486.932	13.01
487.134	13.05
487.335	13.02
487.536	13
487.737	12.98
487.938	12.97
488.139	12.99
488.341	12.97
488.542	13
488.743	13.05
488.944	13.1
489.145	13.17
489.346	13.25
489.547	13.3
489.748	13.38
489.949	13.46
490.15	13.49
490.351	13.46
490.552	13.53
490.753	13.4
490.954	13.33
491.155	13.26
491.356	13.26
491.557	13.27
491.758	13.28
491.959	13.25
492.159	13.24
492.36	13.29
492.561	13.34
492.762	13.33
492.963	13.48
493.164	13.62
493.364	13.72
493.565	13.8
493.766	13.8
493.967	13.91
494.167	14.01
494.368	14.06
494.569	14.05
494.769	14.1
494.97	14.19
495.171	14.21
495.371	14.21
495.572	14.28
495.773	14.23
495.973	14.32
496.174	14.36
496.375	14.35
496.575	14.37
496.776	14.43
496.976	14.47
497.177	14.45
497.377	14.5
497.578	14.54
497.778	14.62
497.979	14.72
498.179	14.67
498.38	14.7
498.58	14.74
498.78	14.74
498.981	14.79
499.181	14.84
499.382	14.91
499.582	14.96
499.782	15.03
499.983	15.05
500.183	15.06
500.383	15.15
500.584	15.23
500.784	15.36
500.984	15.41
501.184	15.48
501.385	15.57
501.585	15.58
501.785	15.65
501.985	15.7
502.185	15.68
502.386	15.69
502.586	15.72
502.786	15.65
502.986	15.54
503.186	15.67
503.386	15.61
503.586	15.63
503.786	15.65
503.987	15.59
504.187	15.48
504.387	15.52
504.587	15.53
504.787	15.58
504.987	15.65
505.187	15.74
505.387	15.64
505.587	15.65
505.786	15.6
505.986	15.67
506.186	15.77
506.386	15.85
506.586	15.87
506.786	15.86
506.986	15.86
507.186	15.84
507.386	15.88
507.585	15.81
507.785	15.84
507.985	15.82
508.185	15.79
508.384	15.72
508.584	15.7
508.784	15.64
508.984	15.72
509.183	15.7
509.383	15.72
509.583	15.7
509.782	15.81
509.982	15.78
510.182	15.77
510.381	15.77
510.581	15.83
510.781	15.82
510.98	15.89
511.18	15.78
511.379	15.7
511.579	15.62
511.778	15.59
511.978	15.63
512.177	15.67
512.377	15.75
512.576	15.78
512.776	15.77
512.975	15.84
513.175	15.88
513.374	16.02
513.573	16.11
513.773	16.22
513.972	16.31
514.172	16.42
514.371	16.5
514.57	16.51
514.77	16.5
514.969	16.55
515.168	16.6
515.367	16.63
515.567	16.61
515.766	16.62
515.965	16.6
516.164	16.63
516.364	16.45
516.563	16.35
516.762	16.31
516.961	16.28
517.16	16.21
517.359	16.11
517.559	16.05
517.758	16.1
517.957	16.1
518.156	16.07
518.355	16
518.554	16.05
518.753	16.09
518.952	16.11
519.151	16.16
519.35	16.15
519.549	16.29
519.748	16.32
519.947	16.34
520.146	16.45
520.345	16.59
520.544	16.71
520.743	16.83
520.942	16.99
521.141	17.11
521.339	17.21
521.538	17.4
521.737	17.42
521.936	17.51
522.135	17.58
522.333	17.54
522.532	17.58
522.731	17.57
522.93	17.48
523.129	17.49
523.327	17.48
523.526	17.44
523.725	17.4
523.923	17.38
524.122	17.36
524.321	17.34
524.519	17.3
524.718	17.23
524.917	17.26
525.115	17.25
525.314	17.12
525.512	17.13
525.711	17.09
525.909	17.04
526.108	17.05
526.306	17.04
526.505	17.02
526.703	16.98
526.902	16.92
527.1	16.81
527.299	16.75
527.497	16.76
527.696	16.71
527.894	16.7
528.092	16.67
528.291	16.64
528.489	16.62
528.688	16.55
528.886	16.59
529.084	16.64
529.283	16.73
529.481	16.8
529.679	16.88
529.877	16.96
530.076	17.05
530.274	17.17
530.472	17.27
530.67	17.39
530.869	17.61
531.067	17.68
531.265	17.76
531.463	17.81
531.661	17.89
531.859	17.97
532.057	18.02
532.255	18.06
532.454	18.07
532.652	18.04
532.85	18.05
533.048	18.01
533.246	18.02
533.444	18.02
533.642	18.03
533.84	18.11
534.038	18.13
534.236	18.14
534.434	18.27
534.632	18.36
534.83	18.5
535.027	18.65
535.225	18.76
535.423	18.89
535.621	18.97
535.819	19.03
536.017	19.07
536.215	19.17
536.412	19.23
536.61	19.22
536.808	19.26
537.006	19.28
537.203	19.31
537.401	19.4
537.599	19.43
537.797	19.52
537.994	19.7
538.192	19.83
538.39	19.92
538.587	20.09
538.785	20.17
538.983	20.25
539.18	20.28
539.378	20.22
539.575	20.28
539.773	20.4
539.97	20.29
540.168	20.23
540.366	20.2
540.563	20.08
540.761	20.01
540.958	19.99
541.155	19.95
541.353	19.96
541.55	19.99
541.748	19.99
541.945	19.96
542.143	20.06
542.34	20.13
542.537	20.14
542.735	20.27
542.932	20.34
543.129	20.45
543.327	20.55
543.524	20.66
543.721	20.77
543.919	20.87
544.116	20.96
544.313	21.06
544.51	21.18
544.708	21.35
544.905	21.41
545.102	21.52
545.299	21.57
545.496	21.69
545.693	21.73
545.891	21.91
546.088	21.95
546.285	22.08
546.482	22.18
546.679	22.19
546.876	22.18
547.073	22.25
547.27	22.3
547.467	22.41
547.664	22.56
547.861	22.79
548.058	22.76
548.255	22.81
548.452	22.93
548.649	23.05
548.846	23.24
549.043	23.39
549.24	23.57
549.437	23.74
549.633	23.8
549.83	23.81
550.027	23.8
550.224	23.98
550.421	24.15
550.618	24.13
550.814	24.2
551.011	24.12
551.208	24.11
551.405	24.08
551.601	24.06
551.798	24.09
551.995	24.12
552.191	24.19
552.388	24.13
552.585	24.15
552.781	24.23
552.978	24.22
553.175	24.35
553.371	24.56
553.568	24.6
553.764	24.77
553.961	24.73
554.157	24.68
554.354	24.66
554.55	24.8
554.747	24.87
554.943	24.92
555.14	24.96
555.336	24.99
555.533	24.94
555.729	25.01
555.926	24.9
556.122	25.12
556.318	25.19
556.515	25.21
556.711	25.31
556.907	25.35
557.104	25.41
557.3	25.41
557.496	25.47
557.693	25.54
557.889	25.65
558.085	25.75
558.281	25.88
558.478	25.99
558.674	26.13
558.87	26.04
559.066	25.97
559.262	26.02
559.459	26.05
559.655	25.96
559.851	25.85
560.047	25.97
560.243	26.04
560.439	25.82
560.635	25.85
560.831	25.81
561.027	25.78
561.223	25.91
561.419	25.74
561.615	25.87
561.811	25.83
562.007	25.84
562.203	25.65
562.399	25.69
562.595	25.82
562.791	25.88
562.987	25.97
563.183	26.07
563.379	26.07
563.575	26.22
563.771	26.13
563.966	26.1
564.162	26.29
564.358	26.38
564.554	26.29
564.75	26.2
564.945	26.12
565.141	26.07
565.337	26.01
565.533	25.96
565.728	25.9
565.924	25.95
566.12	26
566.315	25.92
566.511	25.91
566.707	25.89
566.902	25.96
567.098	26.09
567.293	26.15
567.489	26.24
567.684	26.21
567.88	26.29
568.076	26.26
568.271	26.33
568.467	26.37
568.662	26.4
568.858	26.5
569.053	26.43
569.248	26.33
569.444	26.24
569.639	26.1
569.835	26.16
570.03	26.01
570.225	26.02
570.421	26.05
570.616	26.05
570.812	26.05
571.007	25.96
571.202	25.93
571.397	26.06
571.593	26.14
571.788	26.25
571.983	26.28
572.178	26.33
572.374	26.44
572.569	26.41
572.764	26.45
572.959	26.42
573.154	26.48
573.35	26.53
573.545	26.42
573.74	26.37
573.935	26.35
574.13	26.28
574.325	26.31
574.52	26.29
574.715	26.41
574.91	26.28
575.105	26.44
575.3	26.52
575.495	26.61
575.69	26.65
575.885	26.77
576.08	26.85
576.275	27.09
576.47	27.05
576.665	27.06
576.86	27.15
577.055	27.36
577.25	27.3
577.444	27.2
577.639	27.26
577.834	27.41
578.029	27.45
578.224	27.45
578.418	27.41
578.613	27.61
578.808	27.64
579.003	27.54
579.197	27.64
579.392	27.74
579.587	27.95
579.781	28.08
579.976	28.04
580.171	28.02
580.365	28.05
580.56	28.09
580.755	28.09
580.949	28.31
581.144	28.47
581.338	28.41
581.533	28.49
581.727	28.57
581.922	28.31
582.116	28.44
582.311	28.55
582.505	28.61
582.7	28.61
582.894	28.78
583.089	28.65
583.283	28.69
583.478	28.73
583.672	28.65
583.866	28.56
584.061	28.71
584.255	28.63
584.449	28.68
584.644	28.9
584.838	28.88
585.032	28.75
585.226	28.7
585.421	28.63
585.615	28.66
585.809	28.75
586.003	28.73
586.198	28.81
586.392	28.98
586.586	28.8
586.78	28.69
586.974	28.79
587.168	28.96
587.363	29.12
587.557	28.99
587.751	28.95
587.945	28.74
588.139	28.87
588.333	28.7
588.527	28.47
588.721	28.45
588.915	28.26
589.109	28.16
589.303	28.04
589.497	27.85
589.691	27.89
589.885	27.87
590.079	28.03
590.273	28.04
590.466	28.26
590.66	28.28
590.854	28.45
591.048	28.73
591.242	28.78
591.436	28.79
591.629	28.8
591.823	28.9
592.017	28.9
592.211	28.82
592.404	28.79
592.598	28.63
592.792	28.63
592.986	28.63
593.179	28.43
593.373	28.54
593.567	28.49
593.76	28.5
593.954	28.56
594.147	28.59
594.341	28.56
594.535	28.56
594.728	28.47
594.922	28.47
595.115	28.37
595.309	28.42
595.502	28.33
595.696	28.3
595.889	28.13
596.083	28.03
596.276	27.97
596.47	28.02
596.663	28
596.856	28.03
597.05	28.04
597.243	28.06
597.437	28.13
597.63	28.23
597.823	28.35
598.017	28.66
598.21	28.65
598.403	28.7
598.596	28.85
598.79	28.94
598.983	29.29
599.176	29.42
599.369	29.47
599.563	29.39
599.756	29.33
599.949	29.44
600.142	29.29
600.335	29.55
600.528	29.67
600.722	29.58
600.915	29.55
601.108	29.43
601.301	29.43
601.494	29.34
601.687	29.37
601.88	29.28
602.073	29.23
602.266	29.34
602.459	29.28
602.652	29.09
602.845	29.06
603.038	29
603.231	28.81
603.424	28.78
603.617	28.76
603.809	28.64
604.002	28.59
604.195	28.61
604.388	28.52
604.581	28.49
604.774	28.52
604.966	28.5
605.159	28.43
605.352	28.57
605.545	28.65
605.737	28.69
605.93	28.89
606.123	29
606.316	29.07
606.508	29.2
606.701	29.36
606.894	29.51
607.086	29.65
607.279	29.7
607.471	29.55
607.664	29.59
607.857	29.76
608.049	29.79
608.242	29.77
608.434	29.74
608.627	29.86
608.819	29.83
609.012	29.93
609.204	29.95
609.397	30.23
609.589	30.58
609.782	30.58
609.974	30.67
610.166	30.92
610.359	31.28
610.551	31.35
610.743	31.41
610.936	31.44
611.128	31.63
611.32	31.94
611.513	32.13
611.705	32.05
611.897	32.36
612.09	32.68
612.282	32.61
612.474	32.57
612.666	32.76
612.858	32.73
613.051	33.17
613.243	33.09
613.435	32.87
613.627	32.9
613.819	33.1
614.011	33.3
614.203	33.2
614.395	33.28
614.588	33.28
614.78	33.4
614.972	33.38
615.164	33.11
615.356	33.15
615.548	33.21
615.74	33.2
615.932	33.03
616.124	32.68
616.315	32.62
616.507	32.57
616.699	32.54
616.891	32.29
617.083	32.61
617.275	32.62
617.467	32.47
617.659	32.53
617.85	32.41
618.042	32.41
618.234	32.3
618.426	32.15
618.618	32.09
618.809	31.97
619.001	32.12
619.193	31.96
619.384	32.18
619.576	32.25
619.768	32.19
619.959	32.25
620.151	32.27
620.343	32.31
620.534	32.32
620.726	32.58
620.917	32.94
621.109	32.83
621.301	32.98
621.492	32.72
621.684	32.95
621.875	32.97
622.067	32.93
622.258	33.02
622.45	33.26
622.641	33.38
622.832	33.18
623.024	33.04
623.215	33.15
623.407	32.95
623.598	33.01
623.789	32.87
623.981	32.91
624.172	32.9
624.363	32.84
624.555	32.44
624.746	32.33
624.937	32.29
625.129	32.23
625.32	32.03
625.511	31.93
625.702	31.54
625.893	31.42
626.085	31.3
626.276	31.18
626.467	31.09
626.658	31.18
626.849	31.04
627.04	30.96
627.231	30.95
627.422	30.9
627.614	30.96
627.805	31.28
627.996	31.29
628.187	31.3
628.378	31.28
628.569	31.38
628.76	31.4
628.951	31.59
629.142	31.45
629.332	31.52
629.523	31.8
629.714	31.91
629.905	32.14
630.096	32.41
630.287	32.58
630.478	32.85
630.669	32.94
630.859	33.27
631.05	33.4
631.241	33.72
631.432	33.66
631.623	33.66
631.813	33.54
632.004	33.24
632.195	33.09
632.385	32.99
632.576	32.9
632.767	32.65
632.957	32.42
633.148	32.38
633.339	32.26
633.529	32.24
633.72	32.14
633.91	32.28
634.101	32.3
634.292	32.32
634.482	32.44
634.673	32.51
634.863	32.67
635.054	32.84
635.244	32.84
635.435	33
635.625	33.13
635.815	33.28
636.006	33.45
636.196	33.69
636.387	33.67
636.577	33.83
636.767	33.97
636.958	34.08
637.148	33.92
637.338	33.98
637.529	33.83
637.719	33.7
637.909	33.74
638.099	33.61
638.29	33.32
638.48	33.4
638.67	33.28
638.86	33.25
639.05	33.39
639.241	33.78
639.431	33.79
639.621	34.03
639.811	34.29
640.001	34.2
640.191	34.23
640.381	34.38
640.571	34.43
640.761	34.63
640.951	34.49
641.141	34.28
641.331	34.06
641.521	34.17
641.711	34.29
641.901	34.31
642.091	34.32
642.281	34.13
642.471	34.11
642.661	34.28
642.851	34.02
643.041	34.19
643.231	34.61
643.42	34.67
643.61	34.67
643.8	34.59
643.99	34.76
644.18	35.05
644.369	35.14
644.559	35.45
644.749	35.23
644.939	35.35
645.128	35.22
645.318	34.97
645.508	34.85
645.697	35
645.887	35.12
646.076	34.94
646.266	34.76
646.456	35.17
646.645	35.31
646.835	35.36
647.024	35.4
647.214	35.46
647.403	35.56
647.593	35.7
647.782	35.63
647.972	35.32
648.161	35.36
648.351	35.32
648.54	35.11
648.73	34.76
648.919	34.78
649.108	34.67
649.298	34.46
649.487	34.4
649.677	34.2
649.866	34.28
650.055	34.35
650.244	34.32
650.434	34.34
650.623	34.32
650.812	34.33
651.002	34.2
651.191	34.4
651.38	34.79
651.569	34.94
651.758	35.16
651.947	35.11
652.137	35.24
652.326	35.45
652.515	35.61
652.704	35.6
652.893	35.66
653.082	36.05
653.271	36.06
653.46	36.06
653.649	35.98
653.838	36.06
654.027	35.95
654.216	35.8
654.405	35.59
654.594	35.34
654.783	35.56
654.972	35.88
655.161	35.6
655.35	35.46
655.539	35.44
655.728	35.44
655.916	35.33
656.105	35.42
656.294	35.56
656.483	35.58
656.672	35.62
656.86	35.45
657.049	34.94
657.238	35.06
657.427	35.1
657.615	34.96
657.804	34.67
657.993	34.32
658.181	34.15
658.37	34.04
658.559	33.73
658.747	33.72
658.936	33.7
659.125	33.66
659.313	33.63
659.502	33.57
659.69	33.7
659.879	33.78
660.067	33.89
660.256	34.06
660.444	34.19
660.633	34.54
660.821	34.74
661.01	34.85
661.198	35.29
661.387	35.36
661.575	35.71
661.763	35.67
661.952	36.01
662.14	36.37
662.328	36.63
662.517	36.89
662.705	37.02
662.893	37.21
663.082	37.24
663.27	37.38
663.458	37.66
663.646	37.53
663.834	37.63
664.023	37.56
664.211	37.61
664.399	37.3
664.587	36.92
664.775	37.04
664.963	36.81
665.152	37
665.34	36.92
665.528	36.72
665.716	36.98
665.904	37.08
666.092	37.21
666.28	37.22
666.468	37.5
666.656	37.71
666.844	37.71
667.032	37.77
667.22	37.52
667.408	37.52
667.596	37.64
667.784	37.13
667.971	37.03
668.159	36.73
668.347	36.82
668.535	36.76
668.723	36.82
668.911	36.63
669.098	36.72
669.286	37.09
669.474	37.32
669.662	37.27
669.849	37.5
670.037	37.79
670.225	38.12
670.413	38.13
670.6	38.04
670.788	37.95
670.976	37.98
671.163	37.92
671.351	37.87
671.538	37.58
671.726	37.77
671.913	38.21
672.101	37.77
672.289	37.82
672.476	37.62
672.664	37.7
672.851	37.85
673.039	38.16
673.226	38.2
673.413	37.84
673.601	37.92
673.788	37.76
673.976	37.36
674.163	37.55
674.35	37.47
674.538	37.73
674.725	38.13
674.912	38.21
675.1	38.03
675.287	38.2
675.474	38.22
675.662	38.5
675.849	38.52
676.036	38.6
676.223	38.57
676.411	38.74
676.598	38.9
676.785	38.72
676.972	38.7
677.159	38.73
677.346	38.61
677.533	39.09
677.721	38.78
677.908	38.7
678.095	38.6
678.282	38.59
678.469	38.33
678.656	37.89
678.843	37.46
679.03	37.41
679.217	37.19
679.404	37.21
679.591	37.04
679.778	36.8
679.964	36.56
680.151	36.39
680.338	36.47
680.525	36.53
680.712	36.74
680.899	37.3
681.086	37.55
681.272	37.67
681.459	37.45
681.646	37.44
681.833	37.69
682.02	38.05
682.206	38.45
682.393	38.54
682.58	38.88
682.766	38.98
682.953	38.82
683.14	38.62
683.326	39.3
683.513	39.79
683.7	39.87
683.886	40.09
684.073	40.15
684.259	39.98
684.446	40.14
684.632	40.12
684.819	40.07
685.005	40.09
685.192	40.24
685.378	39.93
685.565	39.9
685.751	39.82
685.938	39.72
686.124	39.6
686.31	39.78
686.497	39.57
686.683	39.31
686.87	39.24
687.056	39.3
687.242	39.06
687.429	38.89
687.615	38.74
687.801	38.9
687.987	39.07
688.174	39.15
688.36	39.33
688.546	39.44
688.732	39.61
688.918	39.6
689.105	39.51
689.291	39.81
689.477	39.83
689.663	40.22
689.849	40.29
690.035	40.22
690.221	40.53
690.407	40.48
690.593	40.22
690.779	40.34
690.965	40.36
691.151	40.65
691.337	40.64
691.523	40.93
691.709	40.54
691.895	40.7
692.081	40.92
692.267	40.69
692.453	40.83
692.639	41.26
692.825	41.03
693.011	41.39
693.196	41.33
693.382	41.22
693.568	41.08
693.754	41.71
693.94	41.62
694.125	41.73
694.311	42.2
694.497	42.2
694.682	42.3
694.868	42.64
695.054	42.76
695.239	42.74
695.425	42.52
695.611	43.04
695.796	42.67
695.982	42.76
696.168	42.33
696.353	41.5
696.539	41.26
696.724	40.71
696.91	40.26
697.095	39.82
697.281	39.52
697.466	39.21
697.652	38.69
697.837	38.26
698.023	37.74
698.208	37.59
698.393	37.53
698.579	37.42
698.764	37.26
698.949	37.35
699.135	37.46
699.32	37.33
699.505	37.68
699.691	37.75
699.876	38.21
700.061	38.48
700.246	38.41
700.432	38.92
700.617	39.12
700.802	39.64
700.987	40.15
701.172	40.5
701.358	40.96
701.543	41.41
701.728	41.42
701.913	41.31
702.098	41.99
702.283	42.83
702.468	43.08
702.653	43.5
702.838	43.92
703.023	44.13
703.208	44.31
703.393	44.74
703.578	44.95
703.763	45.54
703.948	46.04
704.133	46.02
704.318	46.24
704.503	46.63
704.688	46.94
704.873	47.28
705.057	47.03
705.242	46.94
705.427	46.9
705.612	47.04
705.797	47.14
705.981	47.38
706.166	47.54
706.351	47.53
706.536	47.19
706.72	46.7
706.905	46.6
707.09	46.74
707.274	46.83
707.459	46.85
707.644	46.53
707.828	46.4
708.013	46.03
708.197	45.55
708.382	45.46
708.567	45.59
708.751	45.74
708.936	45.28
709.12	45.2
709.305	45.01
709.489	45.29
709.673	45.59
709.858	45.54
710.042	45.48
710.227	45.78
710.411	45.65
710.596	45.41
710.78	45.72
710.964	45.82
711.149	45.86
711.333	45.68
711.517	45.4
711.702	45.24
711.886	45.18
712.07	45.16
712.254	45.08
712.438	45.13
712.623	45.19
712.807	45.06
712.991	45.12
713.175	45.05
713.359	45.1
713.544	45.27
713.728	45.48
713.912	45.24
714.096	45.62
714.28	45.34
714.464	45.43
714.648	45.43
714.832	45.01
715.016	44.78
715.2	44.56
715.384	44.93
715.568	44.63
715.752	43.55
715.936	43.61
716.12	43.35
716.304	43.35
716.488	42.99
716.671	42.91
716.855	43.25
717.039	43.07
717.223	43.07
717.407	43
717.59	43.07
717.774	43.71
717.958	43.7
718.142	43.55
718.325	43.74
718.509	44.1
718.693	44.3
718.877	44.02
719.06	44.62
719.244	45.01
719.428	45.43
719.611	46.18
719.795	46.28
719.978	46.73
720.162	47.15
720.345	47.62
720.529	47.83
720.713	48.15
720.896	48.37
721.08	49.08
721.263	48.99
721.446	48.84
721.63	48.83
721.813	49.03
721.997	48.84
722.18	49.08
722.364	49.02
722.547	48.91
722.73	49.03
722.914	49.85
723.097	49.26
723.28	49.43
723.464	49.17
723.647	48.63
723.83	48.58
724.013	48.93
724.197	48.65
724.38	48.53
724.563	48.9
724.746	48.45
724.929	48.13
725.112	47.96
725.296	47.74
725.479	47.58
725.662	47.62
725.845	47.93
726.028	47.46
726.211	47.27
726.394	47.46
726.577	47.18
726.76	47.24
726.943	46.46
727.126	46.34
727.309	46.54
727.492	47.17
727.675	47.31
727.858	46.62
728.041	46.47
728.224	46.45
728.407	45.94
728.589	46.18
728.772	46.25
728.955	46.44
729.138	46.44
729.321	46.12
729.503	45.74
729.686	45.59
729.869	45.85
730.052	46.29
730.234	46.37
730.417	46.57
730.6	45.94
730.782	46.02
730.965	46.2
731.148	46.22
731.33	46.33
731.513	46.27
731.695	46.24
731.878	46.52
732.061	46.12
732.243	46.53
732.426	46.92
732.608	47.18
732.791	47.58
732.973	47.76
733.156	48.59
733.338	48.79
733.52	49.05
733.703	49.09
733.885	49.05
734.068	49.59
734.25	49.55
734.432	49.49
734.615	49.66
734.797	49.27
734.979	49.55
735.162	49.21
735.344	49.96
735.526	49.81
735.708	50.12
735.891	50.9
736.073	50.45
736.255	50.45
736.437	50.34
736.619	50.3
736.802	50.82
736.984	51.07
737.166	51.66
737.348	51.43
737.53	51.59
737.712	51.89
737.894	51.86
738.076	52.4
738.258	52.9
738.44	53.33
738.622	53.9
738.804	53.85
738.986	53.58
739.168	53.41
739.35	52.98
739.532	53.5
739.714	54.04
739.896	52.99
740.078	53.51
740.259	53.62
740.441	53.98
740.623	53.66
740.805	53.6
740.987	54.2
741.168	54.38
741.35	55.29
741.532	55.3
741.714	55.01
741.895	56.41
742.077	55.97
742.259	55.57
742.44	55.42
742.622	55.71
742.804	56.33
742.985	55.75
743.167	55.86
743.348	55.48
743.53	55.28
743.711	55.33
743.893	54.86
744.075	55.14
744.256	55.02
744.438	55.23
744.619	55.84
744.8	55.53
744.982	55.68
745.163	55.84
745.345	56.12
745.526	56.38
745.707	56.81
745.889	57.56
746.07	58.49
746.252	59.42
746.433	59.44
746.614	59.54
746.795	59.18
746.977	59.14
747.158	58.88
747.339	58.62
747.52	58.72
747.702	58.12
747.883	57.76
748.064	57.15
748.245	56.46
748.426	55.84
748.607	55.95
748.788	56.19
748.97	56.46
749.151	56.4
749.332	56.89
749.513	56.59
749.694	56.54
749.875	56.23
750.056	56.87
750.237	56.83
750.418	57.61
750.599	56.9
750.78	57.12
750.96	57.04
751.141	57.1
751.322	56.64
751.503	56.96
751.684	56.85
751.865	56.52
752.046	55.98
752.226	55.88
752.407	55.68
752.588	55.74
752.769	55.91
752.949	55.87
753.13	56.07
753.311	56.73
753.492	56.72
753.672	56.82
753.853	57.8
754.034	58.15
754.214	58.51
754.395	58.67
754.575	59.05
754.756	58.41
754.937	58.73
755.117	58.93
755.298	58.1
755.478	58.18
755.659	58.48
755.839	58.91
756.02	59.46
756.2	59.42
756.381	59.48
756.561	59.08
756.741	59.42
756.922	59.14
757.102	59.08
757.283	58.98
757.463	58.25
757.643	58.71
757.823	57.55
758.004	56.55
758.184	56.02
758.364	55.08
758.545	55
758.725	54.13
758.905	53.28
759.085	52.13
759.265	51.28
759.446	50.77
759.626	49.38
759.806	48.56
759.986	48.15
760.166	47.66
760.346	47.5
760.526	46.78
760.706	46.41
760.886	46.46
761.066	47.21
761.246	47.41
761.426	47.89
761.606	48.13
761.786	48.24
761.966	47.84
762.146	48.02
762.326	47.43
762.506	47.14
762.686	47.12
762.866	47.01
763.046	45.86
763.225	45.93
763.405	45.85
763.585	45.37
763.765	44.79
763.945	44.48
764.124	44.54
764.304	44.42
764.484	44.94
764.664	45.46
764.843	45.72
765.023	46.41
765.203	46.57
765.382	46.56
765.562	47.55
765.741	48.68
765.921	49.86
766.101	50.62
766.28	51.93
766.46	52.62
766.639	53.3
766.819	53.98
766.998	54.49
767.178	55.37
767.357	56.08
767.537	57.06
767.716	57.74
767.896	57.77
768.075	57.82
768.254	58.88
768.434	59.28
768.613	58.85
768.792	59.17
768.972	59.6
769.151	59.67
769.33	60.45
769.51	60.4
769.689	60.53
769.868	60.61
770.047	61.33
770.226	61.5
770.406	61.41
770.585	62.21
770.764	62.95
770.943	62.85
771.122	63.76
771.301	64.69
771.48	63.26
771.66	64.43
771.839	65.8
772.018	65.87
772.197	65.48
772.376	65.44
772.555	65.31
772.734	64.66
772.913	64.88
773.092	64.33
773.271	64.13
773.449	65.16
773.628	63.88
773.807	63.66
773.986	63.09
774.165	62.92
774.344	64.14
774.523	64.77
774.701	64.88
774.88	65.56
775.059	66.9
775.238	67.48
775.417	68.25
775.595	69.45
775.774	68.08
775.953	68.56
776.131	68.81
776.31	67.82
776.489	67.2
776.667	67.23
776.846	66.94
777.025	66.37
777.203	65.2
777.382	64.58
777.56	63.58
777.739	65.24
777.917	65.35
778.096	65.62
778.274	66.21
778.453	66.05
778.631	66.87
778.81	66.97
778.988	66.55
779.166	66.7
779.345	66.97
779.523	67.15
779.702	66.94
779.88	67.41
780.058	67.12
780.237	66.49
780.415	68.04
780.593	67.99
780.771	68.53
780.95	69.3
781.128	68.8
781.306	69.09
781.484	69.53
781.662	68.67
781.841	68.06
782.019	68.09
782.197	68.9
782.375	68.07
782.553	68.02
782.731	68.04
782.909	67.78
783.087	68.9
783.265	69.01
783.443	69.25
783.621	70.31
783.799	70.9
783.977	71.28
784.155	71.94
784.333	72.08
784.511	72.21
784.689	70.01
784.867	68.48
785.045	67.67
785.223	66.51
785.4	66.59
785.578	65.8
785.756	64.83
785.934	64.6
786.112	63.14
786.289	62.75
786.467	62.01
786.645	62.9
786.823	63.39
787	63.03
787.178	64.05
787.356	62.93
787.533	62.4
787.711	62.35
787.889	62.49
788.066	62.49
788.244	61.65
788.421	62.11
788.599	62.63
788.776	63.55
788.954	63.13
789.131	62.67
789.309	63.11
789.486	63.07
789.664	63.31
789.841	64.2
790.019	65.08
790.196	66.96
790.373	66.7
790.551	67.35
790.728	66.07
790.906	67.82
791.083	68.16
791.26	69.37
791.437	70.37
791.615	70.27
791.792	68.68
791.969	67.67
792.146	66.58
792.324	66.93
792.501	67.66
792.678	67.83
792.855	67.35
793.032	68.79
793.209	68.72
793.387	68.3
793.564	68.84
793.741	70.03
793.918	69.73
794.095	70.65
794.272	69.6
794.449	68.58
794.626	68.78
794.803	67.66
794.98	66.31
795.157	65.33
795.334	66.72
795.511	66.25
795.688	65.94
795.864	67.37
796.041	66.81
796.218	67.95
796.395	67.78
796.572	66.53
796.749	67.52
796.925	66.29
797.102	67.36
797.279	66.2
797.456	66.51
797.632	65.58
797.809	64.22
797.986	63.86
798.162	62.79
798.339	63.01
798.516	64.39
798.692	64.02
798.869	65.68
799.046	64.79
799.222	64.77
799.399	64.8
799.575	65.77
799.752	67.12
799.928	67.32
800.105	67.64
800.281	67.3
800.458	68.94
800.634	69.03
800.811	69.29
800.987	69.64
801.163	70.95
801.34	71.34
801.516	70.8
801.692	70.53
801.869	71.53
802.045	72.15
802.221	73.39
802.398	71.41
802.574	72.11
802.75	72.89
802.926	73.34
803.103	73.47
803.279	72.95
803.455	73.78
803.631	73.48
803.807	72.77
803.983	74.7
804.16	75.3
804.336	76.33
804.512	75.74
804.688	74.72
804.864	74.86
805.04	74.64
805.216	75.89
805.392	76.65
805.568	76.62
805.744	76.1
805.92	74
806.096	73.1
806.272	73.77
806.448	75.38
806.623	75.6
806.799	75.68
806.975	75.43
807.151	74.63
807.327	72.45
807.503	73.09
807.678	74.81
807.854	74.72
808.03	74.09
808.206	72.77
808.381	70.85
808.557	71.66
808.733	70.28
808.908	70.38
809.084	69.94
809.26	71.94
809.435	72.6
809.611	72.63
809.787	72.56
809.962	73.35
810.138	74.81
810.313	75.51
810.489	76.4
810.664	78.09
810.84	76.75
811.015	77.34
811.191	76.17
811.366	74.7
811.542	74.13
811.717	74.67
811.892	75.75
812.068	76.63
812.243	77.09
812.419	75.53
812.594	75.6
812.769	77.33
812.944	78.37
813.12	77.66
813.295	78.2
813.47	77.99
813.645	78.62
813.821	76.65
813.996	76.25
814.171	74.9
814.346	73.31
814.521	72.7
814.697	71.65
814.872	70.51
815.047	72.33
815.222	71.02
815.397	70.8
815.572	70.23
815.747	70.2
815.922	68.09
816.097	68.54
816.272	70.24
816.447	70.08
816.622	70.41
816.797	69.98
816.972	66.62
817.147	67.79
817.322	67.19
817.496	66.29
817.671	65.61
817.846	66.22
818.021	65.58
818.196	64.46
818.371	64.38
818.545	63.08
818.72	62.87
818.895	65.23
819.069	63.07
819.244	63.04
819.419	62.43
819.594	62
819.768	59.98
819.943	58.58
820.117	56.76
820.292	54.2
820.467	52.5
820.641	50.16
820.816	46.8
820.99	44.8
821.165	42.29
821.339	40.32
821.514	39.06
821.688	38.38
821.863	37.2
822.037	35.98
822.212	35.49
822.386	34.98
822.56	34.61
822.735	34.69
822.909	34.88
823.084	34.87
823.258	35.05
823.432	35.11
823.606	35.24
823.781	35.98
823.955	36.77
824.129	37.21
824.303	37.77
824.478	38.49
824.652	39.3
824.826	39.96
825	41.12
825.174	42.04
825.348	42.98
825.523	43.27
825.697	42.84
825.871	43.38
826.045	43.63
826.219	43.62
826.393	43.84
826.567	43.77
826.741	43.47
826.915	43.05
827.089	43.07
827.263	42.33
827.437	42.26
827.611	42.61
827.784	42.6
827.958	42.87
828.132	42.64
828.306	43.12
828.48	43.94
828.654	44.99
828.827	45.8
829.001	46.88
829.175	48.79
829.349	50.56
829.522	52.44
829.696	54.93
829.87	56.98
830.044	59.5
830.217	61.08
830.391	61.91
830.565	62.4
830.738	62.96
830.912	63.11
831.085	63.83
831.259	63.69
831.432	63.68
831.606	62.62
831.779	60.6
831.953	60
832.126	58.41
832.3	56.86
832.473	56.02
832.647	54.75
832.82	53.73
832.994	52.34
833.167	51.12
833.34	50.45
833.514	49.04
833.687	48.69
833.86	48.61
834.034	48.29
834.207	47.79
834.38	47.81
834.553	48.16
834.727	48.44
834.9	49.19
835.073	49.28
835.246	49.72
835.419	50.09
835.593	51.59
835.766	52.2
835.939	53.46
836.112	55.21
836.285	56.34
836.458	58.23
836.631	59.55
836.804	61.04
836.977	63.11
837.15	63.73
837.323	66.45
837.496	67.12
837.669	69.75
837.842	70.42
838.015	72.27
838.188	74.58
838.361	73.41
838.533	74.25
838.706	73.89
838.879	74.31
839.052	75.91
839.225	77.01
839.398	76.05
839.57	74.32
839.743	75.24
839.916	74.53
840.088	74.97
840.261	75.43
840.434	76.73
840.607	76.14
840.779	77.02
840.952	77.67
841.124	77.1
841.297	79.3
841.47	79.58
841.642	79.5
841.815	80.86
841.987	79.13
842.16	81.79
842.332	82.54
842.505	84.77
842.677	85.8
842.85	85.44
843.022	89.17
843.194	89.14
843.367	91.34
843.539	94.29
843.712	95.08
843.884	97.11
844.056	98.06
844.229	98.5
844.401	99.01
844.573	97.6
844.745	98.63
844.918	96.44
845.09	96.13
845.262	98.89
845.434	98.91
845.606	99.99
845.779	101.4
845.951	102.12
846.123	102.49
846.295	104.08
846.467	105.94
846.639	106.13
846.811	109.76
846.983	110.6
847.155	109.45
847.327	109.78
847.499	110.06
847.671	108.81
847.843	108.49
848.015	108.53
848.187	108.85
848.359	111.61
848.531	111.88
848.703	110.7
848.875	115.13
849.047	116.97
849.218	116.8
849.39	117.51
849.562	117.8
849.734	121.19
849.905	123.4
850.077	126.05
850.249	123.79
850.421	126.54
850.592	124.89
850.764	122.21
850.936	121.11
851.107	121
851.279	119.03
851.451	118.98
851.622	119.39
851.794	115.84
851.965	112.75
852.137	111.75
852.308	108.49
852.48	110.21
852.651	108.66
852.823	104.83
852.994	104.72
853.166	103.89
853.337	103.27
853.509	104.45
853.68	105.73
853.851	107.91
854.023	107.94
854.194	109.61
854.365	107.01
854.537	108.44
854.708	109.39
854.879	110.44
855.05	114.3
855.222	114.99
855.393	110.07
855.564	110.6
855.735	106.73
855.906	110.67
856.078	110.06
856.249	113.21
856.42	111.72
856.591	112.02
856.762	110.19
856.933	107.95
857.104	108.37
857.275	108.86
857.446	112.43
857.617	115.65
857.788	111.5
857.959	111.53
858.13	108.63
858.301	109.71
858.472	110.32
858.643	111.49
858.814	112.14
858.985	113.27
859.155	112.63
859.326	110.06
859.497	108.55
859.668	109.88
859.839	111.17
860.009	114.08
860.18	116.86
860.351	116.88
860.522	113.59
860.692	109.57
860.863	108.03
861.034	111.4
861.204	111.34
861.375	114.29
861.546	115.23
861.716	117.63
861.887	113.72
862.057	112.73
862.228	112.15
862.398	115.34
862.569	119.75
862.739	124.34
862.91	120.08
863.08	120.82
863.251	116.95
863.421	114.36
863.592	110.81
863.762	112.37
863.932	113.1
864.103	113.94
864.273	112.31
864.443	111.37
864.614	107.23
864.784	107.98
864.954	106.2
865.125	108.85
865.295	110.44
865.465	110.88
865.635	110.28
865.805	114.14
865.976	113.43
866.146	114.48
866.316	114.48
866.486	117.31
866.656	118.32
866.826	120.35
866.996	119.93
867.166	117.96
867.336	119.23
867.506	120.95
867.676	115.75
867.846	118.12
868.016	119.97
868.186	120.76
868.356	116.54
868.526	118.92
868.696	114.13
868.866	114.25
869.036	118.17
869.206	116.46
869.376	115.74
869.545	118.1
869.715	115.1
869.885	113.42
870.055	112.83
870.224	116.61
870.394	114.57
870.564	119.2
870.734	120.13
870.903	116.45
871.073	114.34
871.243	116.34
871.412	113.4
871.582	113.66
871.751	112.89
871.921	111.8
872.091	108.65
872.26	109.36
872.43	108.21
872.599	106.79
872.769	109.71
872.938	112.87
873.108	108.99
873.277	107.1
873.446	106.77
873.616	109.18
873.785	108.74
873.955	112.31
874.124	114.29
874.293	112.41
874.463	110.58
874.632	107.2
874.801	107.15
874.971	110.71
875.14	113.49
875.309	116.97
875.478	115.46
875.647	117.33
875.817	116.75
875.986	114.7
876.155	113.59
876.324	114.81
876.493	117.65
876.662	116.04
876.831	113.5
877	111.92
877.17	109.34
877.339	109.37
877.508	106.98
877.677	102.88
877.846	102.04
878.015	102.31
878.184	104.41
878.352	103.43
878.521	103.13
878.69	103.5
878.859	103.14
879.028	100.56
879.197	96.98
879.366	93.46
879.534	93.97
879.703	89.75
879.872	86.36
880.041	81.48
880.21	75.13
880.378	71.37
880.547	67.73
880.716	62.62
880.884	58.61
881.053	55.5
881.222	52.71
881.39	49.84
881.559	48.43
881.727	46.23
881.896	44.23
882.065	43.7
882.233	42.48
882.402	41.36
882.57	41.46
882.739	41.65
882.907	42.2
883.076	42.69
883.244	42.3
883.412	41.78
883.581	42.65
883.749	44.23
883.918	44.35
884.086	45.42
884.254	46.63
884.423	47.87
884.591	48.76
884.759	49.48
884.927	50.28
885.096	53.28
885.264	56.34
885.432	59.66
885.6	62.07
885.769	66.61
885.937	69.6
886.105	70.6
886.273	72.74
886.441	76.62
886.609	79.66
886.777	81.55
886.945	81.75
887.113	81.64
887.281	82.47
887.449	82.01
887.617	83.4
887.785	84.77
887.953	88.88
888.121	90.83
888.289	90.83
888.457	95.22
888.625	100.89
888.793	103.41
888.961	110.72
889.129	107.62
889.296	109.71
889.464	110.09
889.632	111.19
889.8	111.06
889.967	111.79
890.135	114.7
