Data from 2938827__Reflection_03.txt Node
Date: Thu Mar 12 13:26:35 EDT 2015
User: robert
Spectrometer: USB4E03002
Autoset integration time: false
Trigger mode: 4
Integration Time (sec): 1.000000E-1
Scans to average: 10
Electric dark correction enabled: false
Nonlinearity correction enabled: false
Boxcar width: 5
Stray light correction enabled: false
XAxis mode: Wavelengths
Stop averaging: false
Number of Pixels in Spectrum: 3648
>>>>>Begin Spectral Data<<<<<
177.575	-1121.32
177.794	-2602.67
178.014	-5206.98
178.233	-2105.22
178.452	-1881.21
178.672	-2005.7
178.891	-2690.16
179.11	-4102.44
179.33	5851.67
179.549	-3563.73
179.768	-2871.43
179.987	3104.24
180.207	1830.88
180.426	2291.62
180.645	1811.52
180.864	804.85
181.084	555.48
181.303	619.9
181.522	525.14
181.741	622.17
181.96	535.04
182.179	484.07
182.398	461.42
182.618	581.02
182.837	621.35
183.056	625.41
183.275	1084.1
183.494	2405.71
183.713	1420.73
183.932	4218.07
184.151	-3187.13
184.37	-4402.78
184.589	-1829.41
184.808	-1847.95
185.027	-7882.93
185.246	3989.16
185.465	2875
185.684	2009.94
185.903	1555.07
186.122	1506.44
186.341	862.02
186.56	508.76
186.779	630.15
186.998	575.87
187.216	581.03
187.435	685.47
187.654	687.67
187.873	597.58
188.092	555.38
188.311	560.75
188.53	486.12
188.748	550.6
188.967	691.02
189.186	535.89
189.405	536.12
189.623	663.51
189.842	495.39
190.061	548.65
190.28	529.27
190.498	438.9
190.717	450.68
190.936	605.76
191.154	727.17
191.373	809.42
191.592	679.57
191.81	733.97
192.029	605.45
192.248	1013.69
192.466	1357.31
192.685	2822.58
192.904	-8405.13
193.122	-20164.71
193.341	7677.78
193.559	3633.68
193.778	27007.69
193.996	-2941.18
194.215	-1588.26
194.433	-818.01
194.652	-985.11
194.87	-1483.69
195.089	-1214.59
195.307	-946.39
195.526	-724.35
195.744	-711.78
195.963	-752.37
196.181	-885.94
196.399	-974.78
196.618	-1889.27
196.836	-2233.79
197.055	-1597.49
197.273	-928.11
197.491	-1515.62
197.71	-2300.65
197.928	-2021.39
198.146	-3338.46
198.365	-3144.64
198.583	-37311.11
198.801	9868.57
199.019	3768.89
199.238	1622.94
199.456	1287.87
199.674	1186.21
199.892	1017.38
200.111	1748.94
200.329	728.87
200.547	609.78
200.765	626.22
200.983	695.9
201.202	671.87
201.42	1125.82
201.638	2212.88
201.856	2566.9
202.074	1555.34
202.292	1661.86
202.51	1041.56
202.728	2304.17
202.946	2472.15
203.165	2057.67
203.383	2037.57
203.601	1494.8
203.819	808.38
204.037	726.18
204.255	687.85
204.473	574.14
204.691	632.91
204.909	656.71
205.127	655.71
205.345	1155.12
205.562	1252.54
205.78	1607.48
205.998	1360.71
206.216	3111.01
206.434	2613.97
206.652	-3150
206.87	-2710.26
207.088	-1967.08
207.306	-2064.97
207.523	-3428
207.741	-8134.09
207.959	5559.38
208.177	2084.02
208.395	1626.67
208.612	1214.39
208.83	1276.25
209.048	644.05
209.266	676.29
209.483	563.47
209.701	429.3
209.919	375.19
210.136	327.96
210.354	335.48
210.572	378.03
210.79	585.88
211.007	487.55
211.225	493.87
211.442	435.8
211.66	424.67
211.878	405.52
212.095	486.75
212.313	521.94
212.53	516.16
212.748	450.88
212.966	503.72
213.183	396.48
213.401	464.1
213.618	416.83
213.836	522.7
214.053	613.87
214.271	724.52
214.488	878.49
214.705	799.24
214.923	747.58
215.14	1002.36
215.358	528.9
215.575	574.85
215.793	471.63
216.01	483.05
216.227	432.75
216.445	372.9
216.662	341.41
216.879	358.45
217.097	351.03
217.314	336.14
217.531	364.9
217.749	440.69
217.966	344.05
218.183	328.35
218.4	303.58
218.618	283.69
218.835	264.39
219.052	276.24
219.269	250.04
219.487	265.51
219.704	248.98
219.921	237.85
220.138	230.1
220.355	244.31
220.572	262.21
220.79	246.55
221.007	222.84
221.224	240.25
221.441	234.58
221.658	222.99
221.875	196.97
222.092	183.92
222.309	168.29
222.526	164.77
222.743	161.23
222.96	146.67
223.177	147.83
223.394	144.51
223.611	137.46
223.828	128.64
224.045	123.45
224.262	114.65
224.479	110.47
224.696	111.54
224.913	102.32
225.13	99.97
225.347	95.98
225.564	89.93
225.781	86.38
225.997	81.95
226.214	76.33
226.431	68.39
226.648	66.11
226.865	58.48
227.082	51.66
227.298	44.47
227.515	38.86
227.732	33.32
227.949	31.3
228.165	29.44
228.382	26.44
228.599	24.03
228.816	23.17
229.032	21.41
229.249	21.5
229.466	21.3
229.682	22
229.899	22.08
230.116	23.08
230.332	23.07
230.549	23.48
230.765	25.6
230.982	27.3
231.199	28.79
231.415	32.07
231.632	33.75
231.848	34.27
232.065	36.56
232.281	37.83
232.498	37.81
232.714	39.16
232.931	38.44
233.147	37.3
233.364	36.16
233.58	37.01
233.797	35.25
234.013	34.51
234.23	33.02
234.446	31.85
234.662	32.12
234.879	31.69
235.095	31.94
235.312	32.91
235.528	34.19
235.744	35.96
235.961	34.01
236.177	35.12
236.393	37.23
236.61	40.14
236.826	40.32
237.042	40.88
237.258	43.98
237.475	45.76
237.691	44.72
237.907	42.4
238.123	40.88
238.339	43.12
238.556	42.96
238.772	41.4
238.988	39.92
239.204	38.57
239.42	35.9
239.636	33.01
239.853	29.47
240.069	27.96
240.285	26.42
240.501	25.63
240.717	23.09
240.933	21.55
241.149	20.19
241.365	18.47
241.581	17.97
241.797	17.03
242.013	16.4
242.229	15.82
242.445	15.94
242.661	15.56
242.877	15.88
243.093	16.05
243.309	16.49
243.525	16.47
243.741	17.46
243.957	17.65
244.173	18.45
244.388	19.32
244.604	19.76
244.82	19.52
245.036	19.34
245.252	17.65
245.468	16.77
245.683	15.59
245.899	14.56
246.115	13.55
246.331	12.9
246.547	12.16
246.762	11.35
246.978	10.97
247.194	10.84
247.409	10.56
247.625	10.64
247.841	10.38
248.057	10.11
248.272	10.77
248.488	11.22
248.703	11.2
248.919	11.89
249.135	12.5
249.35	13.42
249.566	14.14
249.782	15.03
249.997	15.52
250.213	16.8
250.428	18.26
250.644	17.11
250.859	17.27
251.075	17.53
251.29	17.28
251.506	17.75
251.721	17.35
251.937	17.13
252.152	17.56
252.368	17.37
252.583	17.38
252.798	16.95
253.014	17.71
253.229	17.55
253.445	18.44
253.66	19.25
253.875	20.04
254.091	21.18
254.306	21.72
254.521	21.9
254.737	22.87
254.952	23.34
255.167	23.36
255.383	24.3
255.598	24.65
255.813	24.03
256.028	23.4
256.244	22.54
256.459	20.96
256.674	20.35
256.889	19.13
257.104	18.2
257.32	17.08
257.535	16.39
257.75	15.23
257.965	14.1
258.18	13.19
258.395	12.05
258.61	11.19
258.826	10.7
259.041	10.17
259.256	9.78
259.471	9.39
259.686	8.85
259.901	8.76
260.116	8.43
260.331	8.47
260.546	8.44
260.761	8.44
260.976	8.59
261.191	8.57
261.406	8.97
261.621	9.54
261.836	9.88
262.05	10.93
262.265	11.83
262.48	12.37
262.695	13.06
262.91	14.11
263.125	15.19
263.34	15.39
263.555	15.91
263.769	15.86
263.984	15.67
264.199	15.69
264.414	15.42
264.629	15.12
264.843	15.3
265.058	14.88
265.273	13.99
265.488	13.23
265.702	12.69
265.917	12.63
266.132	12.99
266.346	12.98
266.561	13.01
266.776	13.01
266.99	12.78
267.205	13.18
267.42	12.98
267.634	12.99
267.849	12.93
268.063	12.72
268.278	12.76
268.492	12.58
268.707	12.24
268.922	12.28
269.136	11.97
269.351	11.8
269.565	11.09
269.78	10.92
269.994	11.01
270.209	11.22
270.423	11.65
270.637	11.65
270.852	11.58
271.066	11.95
271.281	12.02
271.495	11.8
271.709	11.5
271.924	11.58
272.138	11.68
272.353	11.41
272.567	10.86
272.781	10.96
272.996	10.91
273.21	11.2
273.424	11.18
273.638	11.28
273.853	11.39
274.067	11.55
274.281	12.2
274.495	12.86
274.71	13
274.924	13.55
275.138	13.59
275.352	13.45
275.566	13.51
275.781	13.52
275.995	13.21
276.209	13.98
276.423	14.33
276.637	13.09
276.851	12.36
277.065	12.67
277.279	12.43
277.493	12.16
277.707	12.34
277.921	11.8
278.135	11.53
278.349	11.65
278.563	11.08
278.777	10.86
278.991	11.51
279.205	11.87
279.419	11.62
279.633	11.75
279.847	11.79
280.061	11.95
280.275	11.86
280.489	11.77
280.703	11.32
280.917	11.01
281.131	10.85
281.344	10.98
281.558	10.7
281.772	10.66
281.986	10.49
282.2	10.16
282.414	9.91
282.627	9.95
282.841	10.01
283.055	10.13
283.269	10.58
283.482	10.76
283.696	10.17
283.91	9.87
284.123	9.62
284.337	9.83
284.551	10.03
284.764	9.84
284.978	9.38
285.192	8.96
285.405	8.83
285.619	8.55
285.833	8.37
286.046	8.32
286.26	8.28
286.473	8.35
286.687	8.41
286.9	7.99
287.114	8.04
287.327	8.19
287.541	8.85
287.754	9.24
287.968	9.56
288.181	9.47
288.395	10.07
288.608	10.51
288.822	10.61
289.035	10.37
289.248	10.66
289.462	10.62
289.675	10.37
289.889	10.11
290.102	9.75
290.315	9.36
290.529	9.33
290.742	9.2
290.955	8.95
291.169	8.81
291.382	8.95
291.595	9.58
291.808	9.67
292.022	9.94
292.235	10.09
292.448	10.44
292.661	10.67
292.875	10.99
293.088	10.6
293.301	11.25
293.514	11.57
293.727	11.51
293.94	10.66
294.153	10.61
294.367	10.46
294.58	10.25
294.793	9.98
295.006	9.94
295.219	9.92
295.432	10.31
295.645	9.89
295.858	9.51
296.071	9.33
296.284	9.54
296.497	9.6
296.71	9.83
296.923	10.01
297.136	10.16
297.349	10.14
297.562	9.97
297.775	10.04
297.988	10.11
298.201	10.46
298.414	10.73
298.626	10.73
298.839	10.77
299.052	11.38
299.265	11.48
299.478	11.6
299.691	11.79
299.903	12.34
300.116	12.67
300.329	12.68
300.542	12.81
300.755	13.13
300.967	13.67
301.18	13.99
301.393	13.4
301.605	13.58
301.818	13.86
302.031	14.11
302.243	13.86
302.456	13.78
302.669	13.94
302.881	14.16
303.094	13.76
303.307	13.7
303.519	13.8
303.732	13.87
303.944	13.74
304.157	13.8
304.37	13.98
304.582	14.27
304.795	14.55
305.007	14.71
305.22	15.01
305.432	15.51
305.645	16.05
305.857	16.23
306.069	17.13
306.282	17.14
306.494	17.1
306.707	17.1
306.919	16.99
307.132	16.84
307.344	17.14
307.556	16.93
307.769	17.18
307.981	16.31
308.193	16.2
308.406	15.65
308.618	15.84
308.83	16
309.043	15.75
309.255	15.83
309.467	15.56
309.679	15.68
309.892	15.49
310.104	15.1
310.316	15.14
310.528	14.97
310.74	14.61
310.953	14.45
311.165	14.23
311.377	14.21
311.589	14.25
311.801	14.41
312.013	14.26
312.225	14.56
312.437	15.05
312.649	15.46
312.862	15.66
313.074	16.4
313.286	16.92
313.498	17.24
313.71	17.48
313.922	17.85
314.134	17.65
314.346	17.58
314.558	17.32
314.77	17.29
314.982	17.63
315.193	17.73
315.405	17.47
315.617	17.27
315.829	17.96
316.041	17.83
316.253	17.82
316.465	18.48
316.677	18.64
316.888	19.13
317.1	19.23
317.312	18.98
317.524	19.29
317.736	19.8
317.947	20.5
318.159	19.79
318.371	20.13
318.583	20.49
318.794	20.72
319.006	20.95
319.218	20.69
319.43	20.73
319.641	20.78
319.853	20.59
320.064	20.57
320.276	20.56
320.488	21.14
320.699	21.66
320.911	21.72
321.123	21.6
321.334	21.46
321.546	21.66
321.757	21.92
321.969	21.68
322.18	22.15
322.392	22.42
322.603	22.32
322.815	21.95
323.026	21.77
323.238	21.05
323.449	20.46
323.661	20.71
323.872	20.26
324.083	20.33
324.295	20.77
324.506	20.61
324.718	19.79
324.929	19.57
325.14	19.96
325.352	20.03
325.563	20.19
325.774	20.8
325.986	20.92
326.197	21.28
326.408	20.95
326.62	21.04
326.831	21.36
327.042	22.07
327.253	22.54
327.464	22.68
327.676	22.35
327.887	22.87
328.098	22.84
328.309	23.13
328.52	23.67
328.732	23.9
328.943	24.26
329.154	24.46
329.365	24.47
329.576	24.23
329.787	24.32
329.998	24.85
330.209	24.92
330.42	25.39
330.631	25.32
330.842	25.53
331.053	25.95
331.264	25.96
331.475	26.07
331.686	26.11
331.897	26.07
332.108	25.83
332.319	25.89
332.53	26.01
332.741	25.84
332.952	26.03
333.163	25.65
333.374	25.52
333.585	25.41
333.795	25.2
334.006	25.24
334.217	25.48
334.428	25.66
334.639	25.91
334.849	26.18
335.06	26.04
335.271	25.94
335.482	25.88
335.692	25.69
335.903	25.75
336.114	25.68
336.325	25.89
336.535	25.79
336.746	25.7
336.957	25.36
337.167	24.99
337.378	25.33
337.589	25.23
337.799	25.48
338.01	25.52
338.22	25.52
338.431	25.58
338.642	25.64
338.852	25.69
339.063	25.95
339.273	26.17
339.484	26.39
339.694	26.1
339.905	26.11
340.115	26.08
340.326	26.21
340.536	26.06
340.746	26.28
340.957	26.4
341.167	26.49
341.378	26.01
341.588	25.81
341.799	25.87
342.009	25.9
342.219	25.8
342.43	25.64
342.64	25.62
342.85	25.55
343.061	25.35
343.271	25.06
343.481	24.72
343.691	24.82
343.902	24.86
344.112	24.65
344.322	24.5
344.532	24.21
344.743	24.21
344.953	24.19
345.163	24.28
345.373	24.1
345.583	23.7
345.793	23.73
346.004	23.93
346.214	23.83
346.424	23.76
346.634	23.82
346.844	24.14
347.054	24.1
347.264	24.21
347.474	24
347.684	24.32
347.894	24.59
348.104	24.86
348.314	24.63
348.524	24.6
348.734	24.79
348.944	24.64
349.154	24.44
349.364	24.35
349.574	24.24
349.784	24.28
349.994	23.84
350.204	23.93
350.413	23.89
350.623	24.05
350.833	24.15
351.043	23.75
351.253	23.67
351.463	24
351.672	24.24
351.882	24.08
352.092	24.19
352.302	24.42
352.511	24.48
352.721	24.19
352.931	23.93
353.141	23.86
353.35	24.02
353.56	24.2
353.77	23.77
353.979	23.48
354.189	23.4
354.399	23.33
354.608	23.21
354.818	23.21
355.027	23.27
355.237	23.33
355.447	23.07
355.656	23.2
355.866	22.95
356.075	22.88
356.285	22.85
356.494	22.83
356.704	22.52
356.913	22.52
357.123	22.35
357.332	22.36
357.542	22.36
357.751	22.64
357.96	22.39
358.17	22.44
358.379	22.64
358.589	22.74
358.798	22.58
359.007	22.77
359.217	22.47
359.426	22.23
359.635	21.98
359.845	21.53
360.054	21.31
360.263	21.06
360.472	20.78
360.682	20.62
360.891	20.56
361.1	20.62
361.309	20.24
361.519	20.43
361.728	20.32
361.937	20.42
362.146	20.6
362.355	20.65
362.564	20.72
362.774	20.94
362.983	20.92
363.192	20.73
363.401	20.78
363.61	21.03
363.819	21.09
364.028	21.18
364.237	21.06
364.446	20.87
364.655	20.77
364.864	20.64
365.073	20.51
365.282	20.38
365.491	20.44
365.7	20.35
365.909	20.59
366.118	20.35
366.327	20.53
366.536	20.52
366.745	20.68
366.954	20.89
367.162	20.94
367.371	20.94
367.58	21.21
367.789	21.39
367.998	21.39
368.207	21.26
368.415	21.48
368.624	21.3
368.833	21.41
369.042	21.33
369.25	21.17
369.459	21.27
369.668	21.42
369.877	21.31
370.085	21.12
370.294	21.05
370.503	20.83
370.711	20.44
370.92	20.39
371.129	20.32
371.337	20.48
371.546	20.27
371.754	20.16
371.963	19.96
372.171	19.88
372.38	19.69
372.589	19.44
372.797	19.31
373.006	19.52
373.214	19.49
373.423	19.46
373.631	19.16
373.84	19.13
374.048	19.07
374.256	18.97
374.465	19.04
374.673	19.15
374.882	19.36
375.09	19.62
375.298	19.43
375.507	19.34
375.715	19.3
375.923	19.4
376.132	19.2
376.34	19.08
376.548	18.83
376.757	18.65
376.965	18.56
377.173	18.43
377.381	18.33
377.59	18.2
377.798	18.3
378.006	18.13
378.214	18.21
378.423	18.45
378.631	18.53
378.839	18.77
379.047	18.75
379.255	18.77
379.463	18.89
379.671	18.62
379.879	18.74
380.088	18.69
380.296	19.04
380.504	18.99
380.712	18.88
380.92	18.82
381.128	18.92
381.336	18.89
381.544	18.88
381.752	18.77
381.96	18.73
382.168	18.66
382.376	18.53
382.584	18.23
382.791	18
382.999	17.69
383.207	17.46
383.415	17.4
383.623	17.28
383.831	17.36
384.039	17.12
384.247	17.46
384.454	17.48
384.662	17.46
384.87	17.24
385.078	17.23
385.285	17.22
385.493	17.53
385.701	17.25
385.909	17.14
386.116	16.97
386.324	17.33
386.532	17.04
386.739	16.86
386.947	16.82
387.155	16.88
387.362	16.83
387.57	16.95
387.778	16.74
387.985	16.82
388.193	17.02
388.4	16.94
388.608	16.81
388.816	16.62
389.023	16.75
389.231	16.69
389.438	16.97
389.646	16.91
389.853	16.64
390.061	16.43
390.268	16.48
390.475	16.31
390.683	16.31
390.89	16.16
391.098	16.22
391.305	16.07
391.512	15.9
391.72	15.43
391.927	15.38
392.135	15.61
392.342	15.81
392.549	15.79
392.756	15.79
392.964	15.68
393.171	15.49
393.378	15.51
393.586	15.37
393.793	15.53
394	15.56
394.207	15.65
394.414	15.57
394.622	15.44
394.829	15.46
395.036	15.48
395.243	15.53
395.45	15.77
395.657	15.8
395.864	16.06
396.072	15.97
396.279	16.08
396.486	16.07
396.693	16.13
396.9	16.03
397.107	15.79
397.314	15.96
397.521	15.96
397.728	15.73
397.935	15.8
398.142	15.74
398.349	15.73
398.556	15.77
398.763	15.67
398.97	15.71
399.177	15.6
399.383	15.46
399.59	15.32
399.797	15.22
400.004	15.53
400.211	15.31
400.418	15.24
400.625	15.34
400.831	15.45
401.038	15.54
401.245	15.38
401.452	15.76
401.658	16.08
401.865	15.94
402.072	16.01
402.279	15.67
402.485	15.56
402.692	15.38
402.899	15.12
403.105	14.96
403.312	14.78
403.519	14.65
403.725	14.49
403.932	14.41
404.138	14.38
404.345	14.3
404.552	14.42
404.758	14.49
404.965	14.56
405.171	14.58
405.378	14.53
405.584	14.61
405.791	14.76
405.997	14.78
406.204	14.82
406.41	14.96
406.617	15.08
406.823	14.93
407.029	15.16
407.236	15.32
407.442	15.33
407.649	15.47
407.855	15.34
408.061	15.23
408.268	15.14
408.474	15.11
408.68	14.9
408.887	14.71
409.093	15
409.299	14.73
409.505	14.6
409.712	14.69
409.918	14.57
410.124	14.71
410.33	14.77
410.537	14.56
410.743	14.58
410.949	14.5
411.155	14.63
411.361	14.49
411.567	14.59
411.773	14.44
411.98	14.38
412.186	14.37
412.392	14.44
412.598	14.57
412.804	14.89
413.01	14.88
413.216	15.17
413.422	15.2
413.628	15.08
413.834	15.12
414.04	15.29
414.246	15.3
414.452	15.3
414.658	15.03
414.864	14.8
415.07	14.79
415.275	14.74
415.481	14.54
415.687	14.36
415.893	14.35
416.099	14.23
416.305	14.22
416.511	14.25
416.716	14.11
416.922	14.12
417.128	14.1
417.334	13.94
417.539	13.82
417.745	13.76
417.951	13.71
418.157	13.61
418.362	13.53
418.568	13.4
418.774	13.19
418.979	13.22
419.185	13.09
419.391	12.98
419.596	13.01
419.802	12.95
420.008	12.9
420.213	13.52
420.419	13.52
420.624	13.53
420.83	13.46
421.035	13.55
421.241	13.52
421.446	13.61
421.652	13.71
421.857	13.57
422.063	13.62
422.268	13.6
422.474	13.02
422.679	12.98
422.885	13
423.09	13.08
423.295	13.01
423.501	12.99
423.706	12.95
423.911	12.95
424.117	13.08
424.322	13.04
424.527	13.13
424.733	13.16
424.938	13.25
425.143	13.3
425.349	13.34
425.554	13.4
425.759	13.56
425.964	13.58
426.169	13.59
426.375	13.61
426.58	13.66
426.785	13.61
426.99	13.59
427.195	13.57
427.4	13.45
427.605	13.49
427.811	13.61
428.016	13.51
428.221	13.62
428.426	13.65
428.631	13.59
428.836	13.73
429.041	13.84
429.246	13.98
429.451	14.1
429.656	14.29
429.861	14.22
430.066	14.1
430.271	14.08
430.476	14.08
430.681	13.94
430.886	13.98
431.09	14.05
431.295	14
431.5	13.96
431.705	13.83
431.91	13.66
432.115	13.64
432.32	13.63
432.524	13.58
432.729	13.56
432.934	13.58
433.139	13.61
433.343	13.6
433.548	13.62
433.753	13.67
433.958	13.78
434.162	13.97
434.367	14.07
434.572	14.19
434.776	14.28
434.981	14.23
435.186	14.31
435.39	14.3
435.595	14.13
435.799	14.16
436.004	14.08
436.209	14.02
436.413	13.89
436.618	13.74
436.822	13.67
437.027	13.7
437.231	13.87
437.436	13.92
437.64	13.93
437.845	13.99
438.049	13.96
438.253	14.01
438.458	14.06
438.662	14.07
438.867	14.08
439.071	13.93
439.275	13.93
439.48	13.84
439.684	13.86
439.888	13.77
440.093	13.74
440.297	13.77
440.501	13.76
440.706	13.79
440.91	13.81
441.114	13.89
441.318	14.07
441.523	14.05
441.727	14.12
441.931	14.07
442.135	14.12
442.339	14.27
442.543	14.32
442.748	14.37
442.952	14.24
443.156	14.18
443.36	14.23
443.564	14.21
443.768	14.15
443.972	14.08
444.176	14.18
444.38	14.18
444.584	14.02
444.788	13.97
444.992	13.93
445.196	13.99
445.4	13.77
445.604	13.67
445.808	13.6
446.012	13.65
446.216	13.63
446.42	13.52
446.624	13.54
446.828	13.57
447.032	13.49
447.235	13.36
447.439	13.31
447.643	13.46
447.847	13.47
448.051	13.55
448.254	13.5
448.458	13.46
448.662	13.43
448.866	13.41
449.069	13.37
449.273	13.46
449.477	13.63
449.681	13.7
449.884	13.76
450.088	13.81
450.292	13.78
450.495	13.86
450.699	14.04
450.902	14.17
451.106	14.09
451.31	14.1
451.513	14.02
451.717	14
451.92	13.99
452.124	14.02
452.327	13.98
452.531	14.09
452.734	14.13
452.938	14.06
453.141	13.94
453.345	14.09
453.548	14.08
453.752	14.2
453.955	14.18
454.158	14.18
454.362	14.24
454.565	14.34
454.769	14.3
454.972	14.29
455.175	14.27
455.379	14.37
455.582	14.42
455.785	14.4
455.988	14.33
456.192	14.37
456.395	14.35
456.598	14.38
456.801	14.38
457.005	14.33
457.208	14.38
457.411	14.31
457.614	14.27
457.817	14.11
458.021	14.14
458.224	14.15
458.427	14.09
458.63	14.04
458.833	13.91
459.036	13.75
459.239	13.63
459.442	13.54
459.645	13.52
459.848	13.43
460.051	13.46
460.254	13.5
460.457	13.48
460.66	13.52
460.863	13.5
461.066	13.5
461.269	13.5
461.472	13.69
461.675	13.67
461.878	13.82
462.081	13.98
462.284	13.96
462.486	14
462.689	13.95
462.892	13.89
463.095	13.94
463.298	13.99
463.5	14.12
463.703	14.08
463.906	14.21
464.109	14.08
464.311	14.08
464.514	14.18
464.717	14.23
464.92	14.47
465.122	14.52
465.325	14.55
465.528	14.61
465.73	14.72
465.933	14.72
466.135	14.62
466.338	14.67
466.541	14.76
466.743	14.72
466.946	14.61
467.148	14.43
467.351	14.44
467.553	14.46
467.756	14.44
467.958	14.32
468.161	14.27
468.363	14.37
468.566	14.35
468.768	14.19
468.971	14.21
469.173	14.14
469.375	14.2
469.578	14.19
469.78	14.12
469.983	14.14
470.185	14.17
470.387	14.3
470.59	14.19
470.792	14.33
470.994	14.47
471.196	14.41
471.399	14.47
471.601	14.47
471.803	14.53
472.005	14.56
472.208	14.55
472.41	14.66
472.612	14.61
472.814	14.68
473.016	14.64
473.218	14.52
473.421	14.65
473.623	14.65
473.825	14.67
474.027	14.64
474.229	14.61
474.431	14.69
474.633	14.59
474.835	14.57
475.037	14.44
475.239	14.36
475.441	14.48
475.643	14.43
475.845	14.35
476.047	14.26
476.249	14.24
476.451	14.41
476.653	14.32
476.855	14.24
477.057	14.27
477.258	14.27
477.46	14.27
477.662	14.28
477.864	14.22
478.066	14.28
478.268	14.27
478.469	14.21
478.671	14.07
478.873	14.01
479.075	13.98
479.276	13.84
479.478	13.83
479.68	13.77
479.882	13.66
480.083	13.63
480.285	13.52
480.487	13.54
480.688	13.51
480.89	13.53
481.091	13.45
481.293	13.45
481.495	13.41
481.696	13.32
481.898	13.2
482.099	13.1
482.301	12.97
482.502	12.92
482.704	12.78
482.905	12.73
483.107	12.65
483.308	12.64
483.51	12.62
483.711	12.59
483.913	12.6
484.114	12.63
484.315	12.65
484.517	12.68
484.718	12.72
484.92	12.76
485.121	12.76
485.322	12.78
485.524	12.8
485.725	12.77
485.926	12.79
486.127	12.76
486.329	12.72
486.53	12.69
486.731	12.66
486.932	12.66
487.134	12.7
487.335	12.73
487.536	12.71
487.737	12.72
487.938	12.77
488.139	12.79
488.341	12.83
488.542	12.86
488.743	12.87
488.944	12.93
489.145	12.92
489.346	12.92
489.547	12.92
489.748	12.98
489.949	12.94
490.15	12.92
490.351	13
490.552	13.03
490.753	13.04
490.954	13.08
491.155	13.08
491.356	13.08
491.557	13.05
491.758	13.05
491.959	13.07
492.159	13.14
492.36	13.19
492.561	13.14
492.762	13.16
492.963	13.17
493.164	13.24
493.364	13.32
493.565	13.51
493.766	13.65
493.967	13.73
494.167	13.85
494.368	13.88
494.569	13.94
494.769	14
494.97	14.05
495.171	14.1
495.371	14.17
495.572	14.17
495.773	14.08
495.973	14.05
496.174	14.11
496.375	14.06
496.575	14.1
496.776	14.17
496.976	14.27
497.177	14.3
497.377	14.35
497.578	14.31
497.778	14.3
497.979	14.33
498.179	14.32
498.38	14.34
498.58	14.42
498.78	14.46
498.981	14.46
499.181	14.44
499.382	14.48
499.582	14.47
499.782	14.56
499.983	14.62
500.183	14.74
500.383	14.9
500.584	14.96
500.784	14.97
500.984	14.95
501.184	14.88
501.385	14.91
501.585	15.01
501.785	15.11
501.985	15.12
502.185	15.25
502.386	15.16
502.586	15.16
502.786	15.13
502.986	15.19
503.186	15.31
503.386	15.51
503.586	15.59
503.786	15.59
503.987	15.6
504.187	15.68
504.387	15.71
504.587	15.78
504.787	15.79
504.987	15.99
505.187	15.99
505.387	16.02
505.587	15.99
505.786	15.99
505.986	16.03
506.186	16.02
506.386	15.93
506.586	15.96
506.786	16.06
506.986	16.05
507.186	16
507.386	16.12
507.585	16.11
507.785	16.21
507.985	16.33
508.185	16.4
508.384	16.52
508.584	16.65
508.784	16.67
508.984	16.7
509.183	16.85
509.383	16.89
509.583	16.92
509.782	16.96
509.982	16.94
510.182	17.01
510.381	17.04
510.581	17.05
510.781	17.12
510.98	17.17
511.18	17.2
511.379	17.25
511.579	17.35
511.778	17.48
511.978	17.59
512.177	17.73
512.377	17.75
512.576	17.85
512.776	17.92
512.975	17.96
513.175	18.05
513.374	18.14
513.573	18.13
513.773	18.21
513.972	18.23
514.172	18.36
514.371	18.55
514.57	18.66
514.77	18.76
514.969	18.98
515.168	19.04
515.367	19.04
515.567	19.12
515.766	19.2
515.965	19.29
516.164	19.36
516.364	19.35
516.563	19.29
516.762	19.28
516.961	19.23
517.16	19.23
517.359	19.31
517.559	19.45
517.758	19.5
517.957	19.62
518.156	19.66
518.355	19.68
518.554	19.78
518.753	19.88
518.952	20.01
519.151	20.19
519.35	20.23
519.549	20.36
519.748	20.43
519.947	20.59
520.146	20.72
520.345	20.85
520.544	20.97
520.743	21.19
520.942	21.29
521.141	21.37
521.339	21.41
521.538	21.56
521.737	21.66
521.936	21.8
522.135	21.91
522.333	22.01
522.532	22.04
522.731	22.12
522.93	22.14
523.129	22.27
523.327	22.3
523.526	22.48
523.725	22.55
523.923	22.57
524.122	22.69
524.321	22.65
524.519	22.65
524.718	22.73
524.917	22.8
525.115	22.78
525.314	22.85
525.512	22.89
525.711	22.94
525.909	22.99
526.108	23.05
526.306	23.02
526.505	23.06
526.703	23.13
526.902	23.13
527.1	23.13
527.299	23.11
527.497	23.08
527.696	23.14
527.894	23.18
528.092	23.24
528.291	23.27
528.489	23.31
528.688	23.36
528.886	23.43
529.084	23.54
529.283	23.65
529.481	23.83
529.679	23.97
529.877	24.06
530.076	24.11
530.274	24.2
530.472	24.29
530.67	24.44
530.869	24.5
531.067	24.57
531.265	24.57
531.463	24.65
531.661	24.7
531.859	24.67
532.057	24.75
532.255	24.77
532.454	24.74
532.652	24.87
532.85	24.91
533.048	24.99
533.246	25.03
533.444	25.13
533.642	25.19
533.84	25.18
534.038	25.27
534.236	25.36
534.434	25.49
534.632	25.61
534.83	25.63
535.027	25.68
535.225	25.75
535.423	25.84
535.621	25.83
535.819	25.86
536.017	25.9
536.215	25.97
536.412	25.93
536.61	26.01
536.808	26.12
537.006	26.25
537.203	26.33
537.401	26.41
537.599	26.45
537.797	26.6
537.994	26.71
538.192	26.81
538.39	26.85
538.587	26.97
538.785	26.93
538.983	26.9
539.18	26.85
539.378	26.81
539.575	26.78
539.773	26.77
539.97	26.66
540.168	26.57
540.366	26.56
540.563	26.56
540.761	26.53
540.958	26.51
541.155	26.52
541.353	26.51
541.55	26.61
541.748	26.62
541.945	26.69
542.143	26.72
542.34	26.8
542.537	26.88
542.735	26.92
542.932	26.99
543.129	27.03
543.327	27.14
543.524	27.24
543.721	27.23
543.919	27.3
544.116	27.27
544.313	27.38
544.51	27.43
544.708	27.39
544.905	27.45
545.102	27.49
545.299	27.54
545.496	27.57
545.693	27.53
545.891	27.58
546.088	27.64
546.285	27.72
546.482	27.73
546.679	27.73
546.876	27.8
547.073	27.79
547.27	27.92
547.467	28.02
547.664	28
547.861	28.02
548.058	28.12
548.255	28.21
548.452	28.31
548.649	28.36
548.846	28.51
549.043	28.58
549.24	28.72
549.437	28.65
549.633	28.72
549.83	28.79
550.027	28.95
550.224	28.93
550.421	28.95
550.618	28.86
550.814	28.93
551.011	28.89
551.208	28.89
551.405	28.98
551.601	29.01
551.798	29.04
551.995	29.06
552.191	29.08
552.388	29.1
552.585	29.02
552.781	29.03
552.978	28.99
553.175	29.05
553.371	29.09
553.568	29.03
553.764	29.1
553.961	29.01
554.157	29.08
554.354	29
554.55	28.98
554.747	29.08
554.943	29.2
555.14	29.37
555.336	29.35
555.533	29.35
555.729	29.26
555.926	29.17
556.122	29.33
556.318	29.24
556.515	29.35
556.711	29.3
556.907	29.35
557.104	29.38
557.3	29.25
557.496	29.2
557.693	29.23
557.889	29.34
558.085	29.43
558.281	29.33
558.478	29.4
558.674	29.4
558.87	29.43
559.066	29.35
559.262	29.27
559.459	29.44
559.655	29.47
559.851	29.59
560.047	29.56
560.243	29.55
560.439	29.73
560.635	29.58
560.831	29.63
561.027	29.66
561.223	29.65
561.419	29.72
561.615	29.73
561.811	29.89
562.007	29.86
562.203	29.93
562.399	30.01
562.595	30.02
562.791	30.23
562.987	30.31
563.183	30.25
563.379	30.18
563.575	30.11
563.771	29.95
563.966	29.9
564.162	29.9
564.358	29.89
564.554	29.76
564.75	29.62
564.945	29.43
565.141	29.34
565.337	29.4
565.533	29.47
565.728	29.45
565.924	29.49
566.12	29.39
566.315	29.45
566.511	29.53
566.707	29.55
566.902	29.56
567.098	29.66
567.293	29.7
567.489	29.75
567.684	29.76
567.88	29.89
568.076	30.04
568.271	30.14
568.467	30.03
568.662	29.93
568.858	29.94
569.053	29.93
569.248	29.96
569.444	29.7
569.639	29.66
569.835	29.64
570.03	29.56
570.225	29.38
570.421	29.25
570.616	29.38
570.812	29.4
571.007	29.4
571.202	29.44
571.397	29.48
571.593	29.58
571.788	29.59
571.983	29.68
572.178	29.68
572.374	29.85
572.569	29.92
572.764	29.84
572.959	29.81
573.154	29.79
573.35	29.82
573.545	29.81
573.74	29.82
573.935	29.93
574.13	29.86
574.325	29.95
574.52	29.96
574.715	30.02
574.91	29.94
575.105	30
575.3	30.03
575.495	30.04
575.69	30.06
575.885	30.19
576.08	30.18
576.275	30.29
576.47	30.2
576.665	30.09
576.86	30.06
577.055	30.23
577.25	30.29
577.444	30.43
577.639	30.56
577.834	30.61
578.029	30.75
578.224	30.76
578.418	30.8
578.613	30.91
578.808	31.09
579.003	31.22
579.197	31.36
579.392	31.35
579.587	31.46
579.781	31.45
579.976	31.37
580.171	31.27
580.365	31.4
580.56	31.48
580.755	31.61
580.949	31.59
581.144	31.61
581.338	31.54
581.533	31.49
581.727	31.39
581.922	31.29
582.116	31.5
582.311	31.67
582.505	31.57
582.7	31.43
582.894	31.47
583.089	31.49
583.283	31.47
583.478	31.64
583.672	31.77
583.866	31.9
584.061	31.96
584.255	31.75
584.449	31.51
584.644	31.56
584.838	31.5
585.032	31.36
585.226	31.31
585.421	31.32
585.615	31.24
585.809	31.24
586.003	31.08
586.198	31.09
586.392	31.26
586.586	31.44
586.78	31.37
586.974	31.57
587.168	31.61
587.363	31.69
587.557	31.78
587.751	31.77
587.945	31.75
588.139	31.92
588.333	31.91
588.527	31.86
588.721	31.83
588.915	31.91
589.109	32.02
589.303	32.03
589.497	31.92
589.691	31.65
589.885	31.53
590.079	31.7
590.273	31.66
590.466	31.65
590.66	31.7
590.854	31.78
591.048	31.85
591.242	31.82
591.436	31.94
591.629	32.04
591.823	32.42
592.017	32.58
592.211	32.4
592.404	32.34
592.598	32.46
592.792	32.42
592.986	32.31
593.179	32.11
593.373	32.01
593.567	31.99
593.76	31.88
593.954	31.66
594.147	31.68
594.341	31.63
594.535	31.76
594.728	31.69
594.922	31.72
595.115	31.67
595.309	31.71
595.502	31.89
595.696	31.9
595.889	31.99
596.083	31.97
596.276	31.91
596.47	31.95
596.663	31.85
596.856	31.93
597.05	31.97
597.243	32.12
597.437	32.18
597.63	32.05
597.823	32.1
598.017	32.25
598.21	32.39
598.403	32.4
598.596	32.46
598.79	32.59
598.983	32.56
599.176	32.6
599.369	32.73
599.563	32.72
599.756	32.82
599.949	32.82
600.142	32.76
600.335	32.97
600.528	33.17
600.722	33.26
600.915	33.35
601.108	33.52
601.301	33.53
601.494	33.52
601.687	33.62
601.88	33.5
602.073	33.11
602.266	33.08
602.459	32.83
602.652	32.54
602.845	32.49
603.038	32.41
603.231	32.32
603.424	32.27
603.617	32.02
603.809	31.9
604.002	31.97
604.195	32.25
604.388	32.14
604.581	32.29
604.774	32.53
604.966	32.57
605.159	32.5
605.352	32.44
605.545	32.48
605.737	32.74
605.93	32.94
606.123	33.08
606.316	33.09
606.508	33.19
606.701	33.23
606.894	33.24
607.086	33.35
607.279	33.44
607.471	33.73
607.664	33.72
607.857	33.63
608.049	33.55
608.242	33.56
608.434	33.73
608.627	33.96
608.819	34.04
609.012	34.09
609.204	34.3
609.397	34.68
609.589	34.97
609.782	35.35
609.974	35.78
610.166	36.14
610.359	36.56
610.551	36.85
610.743	37.19
610.936	37.55
611.128	37.87
611.32	38.04
611.513	38.12
611.705	38.12
611.897	38.2
612.09	38.12
612.282	38.13
612.474	37.94
612.666	37.92
612.858	38
613.051	37.64
613.243	37.68
613.435	37.46
613.627	37.31
613.819	37.1
614.011	37.2
614.203	37.16
614.395	37.04
614.588	37
614.78	36.85
614.972	36.52
615.164	36.67
615.356	36.48
615.548	36.39
615.74	36.34
615.932	36.21
616.124	35.92
616.315	35.71
616.507	35.63
616.699	35.43
616.891	35.49
617.083	35.56
617.275	35.36
617.467	35.33
617.659	35.4
617.85	35.52
618.042	35.48
618.234	35.47
618.426	35.66
618.618	35.65
618.809	35.61
619.001	35.49
619.193	35.39
619.384	35.49
619.576	35.78
619.768	35.69
619.959	35.54
620.151	35.74
620.343	35.66
620.534	35.47
620.726	35.58
620.917	35.87
621.109	35.8
621.301	35.64
621.492	35.64
621.684	35.47
621.875	35.66
622.067	35.6
622.258	35.54
622.45	35.71
622.641	35.78
622.832	35.79
623.024	35.63
623.215	35.69
623.407	35.8
623.598	35.73
623.789	35.61
623.981	35.5
624.172	35.48
624.363	35.47
624.555	35.37
624.746	35.44
624.937	35.48
625.129	35.48
625.32	35.25
625.511	35.21
625.702	35.1
625.893	35.02
626.085	34.95
626.276	34.95
626.467	35.02
626.658	35.11
626.849	35.03
627.04	34.9
627.231	34.79
627.422	35.08
627.614	34.98
627.805	35.06
627.996	35.28
628.187	35.34
628.378	35.52
628.569	35.41
628.76	35.46
628.951	35.49
629.142	35.5
629.332	35.62
629.523	35.55
629.714	35.72
629.905	35.99
630.096	35.94
630.287	36.12
630.478	36.04
630.669	36.06
630.859	36.05
631.05	36.29
631.241	36.4
631.432	36.45
631.623	36.35
631.813	36.34
632.004	36.12
632.195	35.97
632.385	35.72
632.576	35.75
632.767	35.79
632.957	35.84
633.148	35.76
633.339	35.81
633.529	35.82
633.72	35.84
633.91	35.64
634.101	35.69
634.292	35.67
634.482	35.68
634.673	35.69
634.863	35.8
635.054	35.71
635.244	35.6
635.435	35.48
635.625	35.42
635.815	35.68
636.006	35.96
636.196	35.88
636.387	36.01
636.577	36.23
636.767	36.23
636.958	36.15
637.148	36.29
637.338	36.33
637.529	36.39
637.719	36.43
637.909	36.27
638.099	36.15
638.29	36.26
638.48	36.3
638.67	36.16
638.86	36.17
639.05	36.16
639.241	36.09
639.431	36.04
639.621	36.06
639.811	36.06
640.001	35.97
640.191	36.07
640.381	35.98
640.571	35.87
640.761	36.01
640.951	35.98
641.141	35.86
641.331	35.8
641.521	36.25
641.711	36.25
641.901	36.3
642.091	36.67
642.281	36.49
642.471	36.58
642.661	36.67
642.851	36.43
643.041	36.41
643.231	36.39
643.42	36.57
643.61	36.21
643.8	36.23
643.99	36.05
644.18	35.96
644.369	36.17
644.559	36.23
644.749	36.19
644.939	36.35
645.128	36.3
645.318	36.58
645.508	36.5
645.697	36.64
645.887	36.72
646.076	37.02
646.266	36.83
646.456	36.95
646.645	37.16
646.835	37.17
647.024	37.35
647.214	37.46
647.403	37.58
647.593	37.57
647.782	37.42
647.972	37.19
648.161	37.16
648.351	37.35
648.54	37.12
648.73	37.1
648.919	37.13
649.108	37.11
649.298	37.17
649.487	37.25
649.677	37.25
649.866	37.45
650.055	37.67
650.244	37.8
650.434	37.65
650.623	37.64
650.812	37.52
651.002	37.45
651.191	37.19
651.38	37.31
651.569	36.96
651.758	36.96
651.947	36.8
652.137	36.85
652.326	36.77
652.515	36.92
652.704	37.09
652.893	37.14
653.082	37.37
653.271	37.49
653.46	37.27
653.649	37.41
653.838	37.44
654.027	37.41
654.216	37.49
654.405	37.66
654.594	37.49
654.783	37.52
654.972	37.53
655.161	37.34
655.35	37.35
655.539	37.65
655.728	37.76
655.916	37.96
656.105	38.1
656.294	38.05
656.483	37.58
656.672	37.57
656.86	37.39
657.049	37.14
657.238	37.08
657.427	36.99
657.615	36.88
657.804	36.75
657.993	36.44
658.181	36.48
658.37	36.48
658.559	36.56
658.747	36.61
658.936	36.72
659.125	36.55
659.313	36.59
659.502	36.65
659.69	36.68
659.879	36.68
660.067	36.85
660.256	36.73
660.444	36.74
660.633	37.04
660.821	36.99
661.01	37.14
661.198	37.4
661.387	37.58
661.575	37.66
661.763	37.72
661.952	37.96
662.14	37.96
662.328	37.95
662.517	38.15
662.705	37.94
662.893	37.92
663.082	37.99
663.27	38.36
663.458	38.42
663.646	38.68
663.834	38.63
664.023	38.48
664.211	38.71
664.399	38.81
664.587	38.9
664.775	39.01
664.963	39.25
665.152	39.17
665.34	39.17
665.528	39.12
665.716	39.12
665.904	39.14
666.092	39.49
666.28	39.67
666.468	39.85
666.656	39.8
666.844	40.12
667.032	40.25
667.22	40.15
667.408	40.13
667.596	40.3
667.784	40.19
667.971	40.33
668.159	39.95
668.347	39.69
668.535	39.6
668.723	39.51
668.911	39.39
669.098	39.04
669.286	39.11
669.474	39.17
669.662	39.09
669.849	39.18
670.037	39.13
670.225	39.36
670.413	39.36
670.6	39.3
670.788	39.39
670.976	39.46
671.163	39.75
671.351	40.01
671.538	39.71
671.726	39.87
671.913	39.74
672.101	39.75
672.289	39.63
672.476	39.7
672.664	40.23
672.851	40.18
673.039	39.93
673.226	39.92
673.413	39.81
673.601	40.05
673.788	40.02
673.976	40.08
674.163	40.03
674.35	40.23
674.538	40.19
674.725	40.01
674.912	40.03
675.1	40.23
675.287	40.22
675.474	40.08
675.662	40.1
675.849	39.99
676.036	40
676.223	40.21
676.411	40.12
676.598	39.81
676.785	39.75
676.972	39.82
677.159	39.57
677.346	39.63
677.533	39.65
677.721	39.54
677.908	39.63
678.095	39.8
678.282	39.52
678.469	39.25
678.656	39.27
678.843	39.1
679.03	38.89
679.217	39.05
679.404	39.06
679.591	38.67
679.778	38.74
679.964	38.89
680.151	38.55
680.338	38.64
680.525	38.92
680.712	39.04
680.899	38.92
681.086	38.84
681.272	38.73
681.459	38.78
681.646	39.13
681.833	39.39
682.02	39.2
682.206	39.31
682.393	39.59
682.58	39.61
682.766	39.72
682.953	40.34
683.14	40.83
683.326	41.19
683.513	41.63
683.7	41.82
683.886	41.3
684.073	41.36
684.259	41.74
684.446	41.27
684.632	41.42
684.819	41.3
685.005	41.05
685.192	41.04
685.378	41.02
685.565	40.55
685.751	40.48
685.938	40.8
686.124	40.95
686.31	40.89
686.497	41.08
686.683	40.75
686.87	41.07
687.056	40.68
687.242	40.33
687.429	40.25
687.615	40.22
687.801	40.4
687.987	40.51
688.174	40.36
688.36	40.28
688.546	40.27
688.732	40.56
688.918	40.55
689.105	40.54
689.291	40.54
689.477	40.46
689.663	40.83
689.849	41.13
690.035	40.93
690.221	41.05
690.407	41.3
690.593	41.33
690.779	41.15
690.965	40.87
691.151	41.38
691.337	41.55
691.523	41.61
691.709	41.48
691.895	41.53
692.081	41.76
692.267	41.7
692.453	41.71
692.639	41.85
692.825	42.09
693.011	42.25
693.196	41.92
693.382	42.06
693.568	42.69
693.754	42.76
693.94	42.43
694.125	42.69
694.311	42.76
694.497	42.67
694.682	42.82
694.868	42.74
695.054	42.92
695.239	43.31
695.425	43.12
695.611	42.71
695.796	42.32
695.982	42.1
696.168	41.92
696.353	41.66
696.539	41.35
696.724	41.03
696.91	40.89
697.095	40.73
697.281	40.4
697.466	40.26
697.652	40.19
697.837	40.3
698.023	40.19
698.208	39.97
698.393	40.02
698.579	40.21
698.764	40.23
698.949	40.39
699.135	40.6
699.32	40.41
699.505	40.64
699.691	40.36
699.876	40.41
700.061	40.76
700.246	40.97
700.432	41
700.617	40.98
700.802	41.11
700.987	41.19
701.172	41.41
701.358	41.94
701.543	41.89
701.728	42.37
701.913	42.67
702.098	42.72
702.283	42.72
702.468	43.17
702.653	43.76
702.838	44.04
703.023	44.27
703.208	43.58
703.393	43.34
703.578	43.81
703.763	44.17
703.948	44.08
704.133	44.28
704.318	44.53
704.503	44.24
704.688	43.72
704.873	43.82
705.057	43.84
705.242	44.34
705.427	44.91
705.612	45.13
705.797	45.04
705.981	45.68
706.166	45.62
706.351	45.48
706.536	45.87
706.72	46.14
706.905	46.19
707.09	46.28
707.274	46.46
707.459	46.47
707.644	46.43
707.828	46.68
708.013	46.05
708.197	46.06
708.382	46.23
708.567	46.29
708.751	46.22
708.936	45.8
709.12	45.86
709.305	45.82
709.489	45.83
709.673	45.27
709.858	44.85
710.042	44.87
710.227	44.73
710.411	44.77
710.596	44.61
710.78	44.7
710.964	44.59
711.149	44.57
711.333	44.65
711.517	44.27
711.702	44.54
711.886	44.56
712.07	44.88
712.254	45.17
712.438	45.27
712.623	45.15
712.807	45.35
712.991	45.62
713.175	45.62
713.359	45.21
713.544	45.26
713.728	45.12
713.912	44.94
714.096	44.53
714.28	44.4
714.464	44.25
714.648	44.12
714.832	43.95
715.016	43.8
715.2	43.19
715.384	43.28
715.568	43.5
715.752	43.44
715.936	43.42
716.12	43.2
716.304	43.19
716.488	43.1
716.671	43.35
716.855	43.41
717.039	43.94
717.223	44.34
717.407	44.15
717.59	44.19
717.774	44.51
717.958	44.56
718.142	45.04
718.325	45.03
718.509	45.35
718.693	45.56
718.877	45.26
719.06	44.96
719.244	44.91
719.428	45.59
719.611	45.84
719.795	45.83
719.978	46.62
720.162	46.69
720.345	46.5
720.529	46.76
720.713	46.69
720.896	46.35
721.08	46.78
721.263	46.81
721.446	46.58
721.63	46.14
721.813	46.02
721.997	45.59
722.18	44.8
722.364	44.92
722.547	44.43
722.73	44.1
722.914	44.76
723.097	44.51
723.28	44.42
723.464	44.19
723.647	44.45
723.83	44.76
724.013	45.46
724.197	46.41
724.38	46.61
724.563	46.3
724.746	46.55
724.929	46.87
725.112	46.96
725.296	47.19
725.479	47.63
725.662	47.34
725.845	47.29
726.028	46.46
726.211	46.3
726.394	46.13
726.577	46.37
726.76	46.3
726.943	46.03
727.126	45.64
727.309	45.28
727.492	44.92
727.675	45.08
727.858	44.67
728.041	44.78
728.224	44.84
728.407	44.86
728.589	45.3
728.772	45.3
728.955	44.74
729.138	44.98
729.321	45.09
729.503	45.64
729.686	45.38
729.869	45.8
730.052	45.6
730.234	45.64
730.417	45.72
730.6	45.09
730.782	45.16
730.965	45.76
731.148	46.22
731.33	46.16
731.513	46.08
731.695	46.42
731.878	46.49
732.061	46.82
732.243	46.56
732.426	46.39
732.608	47.24
732.791	47.32
732.973	47.3
733.156	46.87
733.338	47.09
733.52	46.99
733.703	46.85
733.885	46.77
734.068	46.9
734.25	47.61
734.432	47.64
734.615	47.07
734.797	47.04
734.979	47.29
735.162	47.32
735.344	47.17
735.526	46.87
735.708	47.17
735.891	47.2
736.073	46.44
736.255	46
736.437	46.37
736.619	46.54
736.802	46.56
736.984	46.18
737.166	46.32
737.348	46.84
737.53	47.12
737.712	46.87
737.894	47.21
738.076	47.83
738.258	47.81
738.44	47.61
738.622	48.06
738.804	47.72
738.986	48.01
739.168	47.91
739.35	47.79
739.532	47.99
739.714	48.21
739.896	47.69
740.078	47.94
740.259	47.87
740.441	48.16
740.623	47.88
740.805	48.23
740.987	48.71
741.168	48.86
741.35	49.82
741.532	49.86
741.714	49.72
741.895	49.99
742.077	50.19
742.259	50.59
742.44	50.86
742.622	51.45
742.804	52.11
742.985	51.93
743.167	52.05
743.348	51.28
743.53	51.48
743.711	51.54
743.893	52.36
744.075	51.72
744.256	51.77
744.438	52.05
744.619	51.31
744.8	51.28
744.982	51.24
745.163	51.21
745.345	51.52
745.526	51.1
745.707	51.92
745.889	51.24
746.07	51.51
746.252	51.62
746.433	51.64
746.614	51.7
746.795	51.82
746.977	51.98
747.158	52.6
747.339	52.58
747.52	52.47
747.702	52.01
747.883	52.66
748.064	52.71
748.245	51.79
748.426	50.88
748.607	51.14
748.788	50.67
748.97	50.6
749.151	50.16
749.332	49.87
749.513	50.23
749.694	50.78
749.875	50.58
750.056	50.51
750.237	50.58
750.418	51.39
750.599	51.3
750.78	51.79
750.96	51.51
751.141	51.7
751.322	51.9
751.503	51.86
751.684	52.06
751.865	51.81
752.046	52.52
752.226	53.33
752.407	53.76
752.588	53.53
752.769	53.33
752.949	53.06
753.13	52.79
753.311	53.17
753.492	53.29
753.672	52.68
753.853	52.12
754.034	51.73
754.214	51.72
754.395	50.87
754.575	52.06
754.756	52.79
754.937	53.81
755.117	53.77
755.298	53.9
755.478	53.83
755.659	53.38
755.839	54.33
756.02	54.58
756.2	54.54
756.381	54.42
756.561	53.74
756.741	52.29
756.922	51.55
757.102	52.06
757.283	51.73
757.463	51.43
757.643	53.25
757.823	52.94
758.004	52.23
758.184	51.97
758.364	52.7
758.545	52.35
758.725	52.31
758.905	51.88
759.085	51.62
759.265	51.18
759.446	51.64
759.626	50.12
759.806	49.27
759.986	49.66
760.166	49.85
760.346	49.33
760.526	49.76
760.706	49.69
760.886	50.3
761.066	49.83
761.246	49.74
761.426	48.62
761.606	47.61
761.786	47.62
761.966	47.63
762.146	46.88
762.326	46.85
762.506	45.88
762.686	45.53
762.866	44.97
763.046	44.34
763.225	44.03
763.405	43.73
763.585	43.75
763.765	43.44
763.945	43.07
764.124	43.55
764.304	43.36
764.484	43.84
764.664	44.17
764.843	44.8
765.023	45.83
765.203	46.25
765.382	46.97
765.562	47.61
765.741	48.35
765.921	49.28
766.101	49.24
766.28	49.65
766.46	49.9
766.639	50.34
766.819	50.23
766.998	49.67
767.178	49.82
767.357	50.34
767.537	50.36
767.716	50.54
767.896	50.04
768.075	49.87
768.254	49.56
768.434	49.51
768.613	49.72
768.792	50.36
768.972	51.82
769.151	52.28
769.33	52.52
769.51	53.37
769.689	54.4
769.868	54.89
770.047	56.42
770.226	56.75
770.406	56.13
770.585	56.78
770.764	55.92
770.943	54.76
771.122	54.84
771.301	55.69
771.48	56.11
771.66	56.49
771.839	56.82
772.018	55.9
772.197	56.54
772.376	57.98
772.555	57.72
772.734	57.79
772.913	57.94
773.092	57.7
773.271	56.94
773.449	56.05
773.628	55.56
773.807	55.28
773.986	55.46
774.165	54.62
774.344	54.02
774.523	52.58
774.701	53.66
774.88	53.8
775.059	53.69
775.238	54.34
775.417	55.02
775.595	55.8
775.774	56.58
775.953	56.6
776.131	57.41
776.31	57.96
776.489	58.94
776.667	58.22
776.846	58.39
777.025	58.18
777.203	57.56
777.382	57.78
777.56	57
777.739	55.9
777.917	56.42
778.096	56.86
778.274	56.02
778.453	56.8
778.631	57.11
778.81	57.16
778.988	57.73
779.166	58.07
779.345	57.89
779.523	56.95
779.702	58.05
779.88	57.91
780.058	57.66
780.237	57.93
780.415	58.46
780.593	58.45
780.771	59.99
780.95	60.21
781.128	60.04
781.306	59.53
781.484	60.42
781.662	59.99
781.841	60.83
782.019	60.57
782.197	61.26
782.375	60.63
782.553	60.74
782.731	58.94
782.909	58.8
783.087	59.17
783.265	60.2
783.443	60.68
783.621	60.76
783.799	60.65
783.977	61.14
784.155	61.23
784.333	62.17
784.511	62.29
784.689	62.97
784.867	64.69
785.045	64.86
785.223	65.37
785.4	64.2
785.578	64.19
785.756	63.38
785.934	63.58
786.112	63.55
786.289	62.55
786.467	61.66
786.645	61.26
786.823	59.74
787	59.87
787.178	59.09
787.356	59.27
787.533	58.87
787.711	58.35
787.889	57.1
788.066	56.58
788.244	55.86
788.421	56.29
788.599	57.03
788.776	57.2
788.954	56.24
789.131	56.79
789.309	56.37
789.486	55.5
789.664	56.36
789.841	57.03
790.019	57.14
790.196	58.1
790.373	57.74
790.551	58.08
790.728	58.4
790.906	59
791.083	57.55
791.26	57.54
791.437	59.11
791.615	58.29
791.792	58.39
791.969	58.22
792.146	57.9
792.324	58.43
792.501	57.88
792.678	57.99
792.855	58.22
793.032	58.01
793.209	58.86
793.387	58.06
793.564	58.7
793.741	59.11
793.918	59.99
794.095	60.5
794.272	60.73
794.449	60.53
794.626	59.33
794.803	58.04
794.98	58.6
795.157	58.88
795.334	59.52
795.511	59.09
795.688	59.45
795.864	58.43
796.041	58.06
796.218	58.49
796.395	59.34
796.572	59.51
796.749	60.04
796.925	60.03
797.102	60.44
797.279	60.63
797.456	60.84
797.632	58.74
797.809	59.63
797.986	59.65
798.162	58.78
798.339	57.52
798.516	56.97
798.692	58.1
798.869	58.17
799.046	58.24
799.222	58.96
799.399	57.37
799.575	58.82
799.752	57.92
799.928	57.98
800.105	58.31
800.281	58.48
800.458	59.56
800.634	59.62
800.811	59.4
800.987	59.72
801.163	58.35
801.34	60.42
801.516	61.63
801.692	62.11
801.869	62.11
802.045	62.29
802.221	63.15
802.398	62.4
802.574	62.25
802.75	62.43
802.926	62.12
803.103	63.47
803.279	62.16
803.455	61.7
803.631	62.92
803.807	64.2
803.983	64.82
804.16	64.43
804.336	66
804.512	65.93
804.688	67.3
804.864	67.35
805.04	66.58
805.216	68.6
805.392	68.17
805.568	69.75
805.744	67.44
805.92	67
806.096	66.74
806.272	68.98
806.448	70.08
806.623	70.47
806.799	69.02
806.975	68.54
807.151	67.61
807.327	67.87
807.503	65.78
807.678	66.34
807.854	64.67
808.03	64.49
808.206	61.96
808.381	60.33
808.557	60.46
808.733	61.63
808.908	61.64
809.084	62.81
809.26	61
809.435	60.57
809.611	59.79
809.787	60.62
809.962	62.11
810.138	62.71
810.313	63.4
810.489	63.68
810.664	62.83
810.84	62.37
811.015	62.56
811.191	63.75
811.366	65.16
811.542	67.5
811.717	66.37
811.892	67.22
812.068	67.7
812.243	67.45
812.419	67.04
812.594	67.7
812.769	66.9
812.944	66.08
813.12	66.39
813.295	64.91
813.47	63.64
813.645	66.36
813.821	64.84
813.996	63.64
814.171	64.15
814.346	62.17
814.521	62.7
814.697	65.41
814.872	66.23
815.047	66.76
815.222	67.66
815.397	68.21
815.572	67.67
815.747	68.5
815.922	67.74
816.097	67.64
816.272	69.13
816.447	68.21
816.622	67.55
816.797	67.62
816.972	66.15
817.147	65.36
817.322	65.98
817.496	65.48
817.671	64.4
817.846	65.91
818.021	64.01
818.196	63.58
818.371	62.91
818.545	62.69
818.72	60.72
818.895	59.77
819.069	59.23
819.244	56.35
819.419	54.75
819.594	54.09
819.768	52.43
819.943	51.87
820.117	48.97
820.292	47.48
820.467	45.03
820.641	43.24
820.816	41.84
820.99	39.71
821.165	38.85
821.339	37.59
821.514	36.59
821.688	35.56
821.863	35
822.037	34.93
822.212	34.75
822.386	34.66
822.56	34.57
822.735	34.79
822.909	35
823.084	35.23
823.258	35.73
823.432	36.06
823.606	36.41
823.781	36.78
823.955	37.31
824.129	37.73
824.303	38.56
824.478	38.74
824.652	39.02
824.826	39.25
825	39.77
825.174	40.1
825.348	40.06
825.523	40.38
825.697	40.77
825.871	40.62
826.045	40.74
826.219	39.91
826.393	40.57
826.567	40.81
826.741	40.99
826.915	40.2
827.089	40.31
827.263	40.43
827.437	40.68
827.611	40.92
827.784	41.43
827.958	41.53
828.132	42.36
828.306	42.88
828.48	43.66
828.654	44.33
828.827	45.22
829.001	45.93
829.175	46.74
829.349	48.67
829.522	49.18
829.696	49.89
829.87	51.79
830.044	53.36
830.217	54.24
830.391	54.19
830.565	55.32
830.738	57.33
830.912	57.56
831.085	58.62
831.259	58.2
831.432	58.18
831.606	58.48
831.779	57.33
831.953	55.42
832.126	54.38
832.3	53.7
832.473	53.86
832.647	52.16
832.82	50.46
832.994	49.34
833.167	47.72
833.34	47.91
833.514	47.1
833.687	45.97
833.86	45.71
834.034	45.56
834.207	45.63
834.38	45.49
834.553	45.97
834.727	47.34
834.9	48.15
835.073	48.52
835.246	48.97
835.419	49.64
835.593	51.27
835.766	52.59
835.939	54.69
836.112	55.56
836.285	56.47
836.458	57.67
836.631	58.17
836.804	59.54
836.977	61.36
837.15	62.65
837.323	64.44
837.496	65.43
837.669	67.16
837.842	66.82
838.015	68.33
838.188	69.02
838.361	70.26
838.533	71.6
838.706	73.03
838.879	73.64
839.052	74.09
839.225	73.99
839.398	72.06
839.57	70.54
839.743	69.04
839.916	69.09
840.088	71.42
840.261	69.96
840.434	69.1
840.607	66.96
840.779	67.23
840.952	66.14
841.124	66.9
841.297	69.49
841.47	69.3
841.642	72.35
841.815	74.62
841.987	72.88
842.16	74.91
842.332	77.47
842.505	79.94
842.677	81.05
842.85	82.8
843.022	82.42
843.194	81.4
843.367	82.44
843.539	83.33
843.712	82.18
843.884	82.92
844.056	87.31
844.229	87.45
844.401	88.67
844.573	89.91
844.745	92.89
844.918	95.79
845.09	98.11
845.262	102.92
845.434	100.02
845.606	93.88
845.779	95.77
845.951	92.59
846.123	90.97
846.295	87.92
846.467	86.77
846.639	86.52
846.811	84.75
846.983	85.88
847.155	85.61
847.327	87.81
847.499	93.4
847.671	93.89
847.843	92.08
848.015	95.81
848.187	99.98
848.359	106.14
848.531	105.01
848.703	107.88
848.875	106.5
849.047	102.12
849.218	103.81
849.39	104.58
849.562	104.22
849.734	104.45
849.905	99.44
850.077	99.19
850.249	95.36
850.421	97.51
850.592	97.23
850.764	96.39
850.936	101.41
851.107	104.96
851.279	106.49
851.451	107.27
851.622	110.3
851.794	123.08
851.965	118.67
852.137	120.71
852.308	121.23
852.48	126.73
852.651	128.85
852.823	130.54
852.994	122.62
853.166	123.58
853.337	127.4
853.509	124.71
853.68	119.26
853.851	122.09
854.023	119.71
854.194	117.99
854.365	110.3
854.537	112.19
854.708	113.18
854.879	119.96
855.05	119.97
855.222	118.13
855.393	123.27
855.564	123.62
855.735	121.42
855.906	126.17
856.078	124.26
856.249	128.8
856.42	128.55
856.591	123.39
856.762	121.39
856.933	120.92
857.104	121.84
857.275	117.26
857.446	118.89
857.617	129.38
857.788	121.83
857.959	123.05
858.13	123.8
858.301	123.69
858.472	123.97
858.643	125.7
858.814	127.09
858.985	125.39
859.155	131.4
859.326	129.09
859.497	126.98
859.668	129.2
859.839	132.47
860.009	127.5
860.18	129.99
860.351	133.02
860.522	127.32
860.692	129.39
860.863	133.88
861.034	135.75
861.204	141.12
861.375	138.54
861.546	136.81
861.716	130.05
861.887	135.76
862.057	136.89
862.228	137.85
862.398	136.04
862.569	133.47
862.739	131.69
862.91	127.6
863.08	124.69
863.251	125.19
863.421	130.2
863.592	137.6
863.762	135.64
863.932	134.91
864.103	132.85
864.273	130.62
864.443	127.11
864.614	123.42
864.784	127
864.954	126.31
865.125	123.42
865.295	126.72
865.465	125.99
865.635	124.56
865.805	124.71
865.976	125.67
866.146	124.94
866.316	124.51
866.486	126.03
866.656	126.96
866.826	129.13
866.996	126.46
867.166	125.76
867.336	124.56
867.506	126.86
867.676	123.78
867.846	130.13
868.016	134.35
868.186	140.25
868.356	144.92
868.526	141.32
868.696	137.86
868.866	147.72
869.036	147.43
869.206	150.23
869.376	147.15
869.545	153.91
869.715	157.33
869.885	161.31
870.055	156.31
870.224	158.05
870.394	159.46
870.564	159.5
870.734	146
870.903	147.8
871.073	142.58
871.243	141.98
871.412	142.79
871.582	135.58
871.751	138.86
871.921	136.34
872.091	133.93
872.26	128.47
872.43	122.53
872.599	130.8
872.769	118.7
872.938	118.05
873.108	118.93
873.277	113.56
873.446	109.93
873.616	107.07
873.785	107.95
873.955	101.6
874.124	106.38
874.293	109.05
874.463	108.03
874.632	112.38
874.801	112.96
874.971	112.6
875.14	115.84
875.309	122.83
875.478	119.14
875.647	123.68
875.817	122.63
875.986	123.45
876.155	125.02
876.324	121.51
876.493	128.23
876.662	129.25
876.831	125.95
877	126.52
877.17	122.69
877.339	121.39
877.508	118.95
877.677	122.34
877.846	120.8
878.015	120.82
878.184	119.92
878.352	115.68
878.521	115.17
878.69	118.61
878.859	112.81
879.028	109.31
879.197	107.48
879.366	105.98
879.534	104.38
879.703	94.38
879.872	85.14
880.041	77.26
880.21	72.01
880.378	66.72
880.547	62.47
880.716	57.77
880.884	53.42
881.053	49.76
881.222	47.71
881.39	45.01
881.559	44.29
881.727	44.04
881.896	43.53
882.065	42.3
882.233	42.25
882.402	41.65
882.57	41.64
882.739	41.8
882.907	42.53
883.076	41.98
883.244	41.92
883.412	42.53
883.581	42.58
883.749	43.17
883.918	44.66
884.086	45.17
884.254	47.11
884.423	48.64
884.591	49.86
884.759	51.01
884.927	53.14
885.096	54.59
885.264	57.42
885.432	61.35
885.6	63.66
885.769	65.28
885.937	68.95
886.105	69.69
886.273	73.82
886.441	77.64
886.609	81.66
886.777	81.64
886.945	86.28
887.113	88.75
887.281	87.96
887.449	93.78
887.617	97.18
887.785	96.57
887.953	100.68
888.121	99.98
888.289	104.46
888.457	104.67
888.625	108.57
888.793	115.74
888.961	116.99
889.129	120.65
889.296	119.42
889.464	122.49
889.632	125.49
889.8	127.25
889.967	131.56
890.135	127.76
