Data from 2938830__Reflection_01.txt Node
Date: Thu Mar 12 12:35:44 EDT 2015
User: robert
Spectrometer: USB4E03002
Autoset integration time: false
Trigger mode: 4
Integration Time (sec): 1.000000E-1
Scans to average: 10
Electric dark correction enabled: false
Nonlinearity correction enabled: false
Boxcar width: 5
Stray light correction enabled: false
XAxis mode: Wavelengths
Stop averaging: false
Number of Pixels in Spectrum: 3648
>>>>>Begin Spectral Data<<<<<
177.575	173.36
177.794	214.09
178.014	210.4
178.233	219.59
178.452	203.21
178.672	204.42
178.891	268.67
179.11	380.95
179.33	665.81
179.549	546.38
179.768	680.66
179.987	414.77
180.207	293.9
180.426	316.13
180.645	759.37
180.864	-4242.86
181.084	1653.73
181.303	356.15
181.522	357.86
181.741	302.69
181.96	270.93
182.179	357.79
182.398	468.94
182.618	448.74
182.837	930
183.056	225.79
183.275	213.7
183.494	228.62
183.713	345.58
183.932	240.11
184.151	182.58
184.37	186.73
184.589	159.19
184.808	162.68
185.027	186.81
185.246	172.77
185.465	157.16
185.684	168.75
185.903	132.13
186.122	101.49
186.341	108.13
186.56	132.56
186.779	173.91
186.998	200.18
187.216	225.88
187.435	225.8
187.654	228.71
187.873	406.32
188.092	272.37
188.311	280.48
188.53	400.94
188.748	361.38
188.967	317.6
189.186	240.08
189.405	220.43
189.623	183.92
189.842	170.15
190.061	171.87
190.28	140.13
190.498	151.2
190.717	165.02
190.936	126.76
191.154	108.52
191.373	112.79
191.592	151.76
191.81	163.15
192.029	225.47
192.248	407.35
192.466	257.64
192.685	396.65
192.904	417.33
193.122	279.94
193.341	236.02
193.559	212.62
193.778	136.8
193.996	127.52
194.215	103
194.433	93.3
194.652	85.24
194.87	103.45
195.089	86.19
195.307	72.68
195.526	97.78
195.744	118.35
195.963	142.18
196.181	306.82
196.399	550.56
196.618	773.19
196.836	-1589.39
197.055	1310.39
197.273	772.48
197.491	1093.83
197.71	619.21
197.928	412.38
198.146	286.7
198.365	221.21
198.583	147.72
198.801	111.63
199.019	116.19
199.238	101.68
199.456	111.4
199.674	120.63
199.892	112.52
200.111	102.26
200.329	107.69
200.547	120.73
200.765	137.63
200.983	127.26
201.202	167.03
201.42	160.23
201.638	168.55
201.856	132.64
202.074	138.09
202.292	159.79
202.51	570.92
202.728	185.04
202.946	182.34
203.165	131.8
203.383	178.85
203.601	133.87
203.819	114.5
204.037	87.7
204.255	105.08
204.473	91.98
204.691	74.46
204.909	63.55
205.127	78.48
205.345	64.11
205.562	77.01
205.78	67.02
205.998	70.79
206.216	78.54
206.434	76.53
206.652	98.54
206.87	96.4
207.088	116.38
207.306	123.78
207.523	150.25
207.741	150.69
207.959	158.43
208.177	136.34
208.395	117.8
208.612	124.88
208.83	147.42
209.048	119.29
209.266	143.65
209.483	140.38
209.701	128.66
209.919	133.77
210.136	145.94
210.354	169.23
210.572	160.72
210.79	175.47
211.007	168.04
211.225	140.7
211.442	181.4
211.66	146.64
211.878	123.94
212.095	128.88
212.313	99.81
212.53	93.52
212.748	75.72
212.966	78.65
213.183	77.56
213.401	71.97
213.618	71.07
213.836	69.36
214.053	67.16
214.271	76.2
214.488	72.34
214.705	86.34
214.923	86.45
215.14	114.8
215.358	119.76
215.575	112.54
215.793	91.26
216.01	90.99
216.227	77.23
216.445	63.08
216.662	63.49
216.879	67.79
217.097	70.89
217.314	85.47
217.531	84.67
217.749	78.46
217.966	80.3
218.183	100.59
218.4	114.46
218.618	110.38
218.835	116.51
219.052	107.94
219.269	106.59
219.487	100.64
219.704	84.62
219.921	72
220.138	83.74
220.355	85.15
220.572	76.8
220.79	69.34
221.007	57.04
221.224	55.22
221.441	58.51
221.658	59.91
221.875	56.49
222.092	51.46
222.309	49.16
222.526	40.02
222.743	35.9
222.96	37.09
223.177	39.28
223.394	38.59
223.611	36.74
223.828	34.5
224.045	31.01
224.262	31.68
224.479	33.66
224.696	34.29
224.913	33.54
225.13	38.04
225.347	37.57
225.564	31.28
225.781	30.59
225.997	28.69
226.214	28.86
226.431	27.67
226.648	25.33
226.865	23.6
227.082	21.59
227.298	16.92
227.515	12.26
227.732	11.16
227.949	11.37
228.165	10.62
228.382	10.22
228.599	9.76
228.816	7.68
229.032	7.79
229.249	7.67
229.466	7.46
229.682	8.76
229.899	9.43
230.116	9.66
230.332	9.36
230.549	9.62
230.765	9.85
230.982	10.51
231.199	11.21
231.415	10.89
231.632	11.7
231.848	13.14
232.065	13.12
232.281	14.12
232.498	13.36
232.714	15.24
232.931	14.73
233.147	13.82
233.364	10.96
233.58	12
233.797	10.08
234.013	9.65
234.23	8.89
234.446	9.88
234.662	10.29
234.879	10.64
235.095	10.58
235.312	11.93
235.528	12.79
235.744	13.37
235.961	14.64
236.177	16.66
236.393	16.98
236.61	16.1
236.826	17.6
237.042	14.92
237.258	15.44
237.475	14.56
237.691	12.22
237.907	10.31
238.123	9.68
238.339	10.75
238.556	12.49
238.772	11.78
238.988	13.58
239.204	11.8
239.42	12.57
239.636	10.61
239.853	8.89
240.069	9.22
240.285	10.04
240.501	10.02
240.717	9.41
240.933	7.61
241.149	7.84
241.365	7.16
241.581	7.11
241.797	7.13
242.013	7.5
242.229	7.82
242.445	8.13
242.661	8.23
242.877	8.76
243.093	8.15
243.309	8.71
243.525	8.53
243.741	8.39
243.957	7.82
244.173	7.97
244.388	7.69
244.604	7.65
244.82	7.61
245.036	7.56
245.252	7.45
245.468	7.37
245.683	6.62
245.899	6.45
246.115	6.21
246.331	6.52
246.547	6.45
246.762	6.34
246.978	6.56
247.194	6.5
247.409	6.27
247.625	5.93
247.841	6.06
248.057	6.16
248.272	6.12
248.488	6.27
248.703	6.33
248.919	7.02
249.135	7.23
249.35	7.11
249.566	6.9
249.782	7.28
249.997	8.16
250.213	7.65
250.428	7.37
250.644	7.47
250.859	8.68
251.075	8.34
251.29	7.32
251.506	7.4
251.721	7.34
251.937	7.69
252.152	7.07
252.368	6.78
252.583	7.19
252.798	7.5
253.014	7.87
253.229	6.81
253.445	7.26
253.66	8.06
253.875	8.16
254.091	8.09
254.306	8.08
254.521	8.99
254.737	9.08
254.952	8.77
255.167	10.07
255.383	10.23
255.598	10.51
255.813	9.95
256.028	8.28
256.244	8.69
256.459	7.88
256.674	7.44
256.889	7.5
257.104	8.26
257.32	8.74
257.535	7.69
257.75	6.52
257.965	6.31
258.18	6.34
258.395	6.11
258.61	5.74
258.826	5.83
259.041	5.64
259.256	5.42
259.471	5.12
259.686	4.69
259.901	4.87
260.116	4.9
260.331	4.71
260.546	4.81
260.761	4.89
260.976	4.95
261.191	4.85
261.406	5.21
261.621	5.55
261.836	5.66
262.05	6.26
262.265	5.7
262.48	6.3
262.695	6.96
262.91	6.81
263.125	7.53
263.34	7.52
263.555	7.72
263.769	7.36
263.984	6.71
264.199	6.38
264.414	6.17
264.629	7.21
264.843	6.81
265.058	6.44
265.273	6.69
265.488	5.96
265.702	6.22
265.917	6.02
266.132	6.31
266.346	6.07
266.561	5.93
266.776	5.36
266.99	5.16
267.205	5.15
267.42	4.79
267.634	4.47
267.849	4.64
268.063	4.34
268.278	4.39
268.492	4.58
268.707	4.53
268.922	4.4
269.136	4.68
269.351	5
269.565	5.41
269.78	5.63
269.994	5.29
270.209	5.38
270.423	5.11
270.637	5.39
270.852	4.87
271.066	4.73
271.281	5.25
271.495	5.33
271.709	5.1
271.924	4.3
272.138	4.25
272.353	4.28
272.567	4.15
272.781	4.28
272.996	4.31
273.21	4.86
273.424	5.24
273.638	4.76
273.853	4.39
274.067	4.11
274.281	4.71
274.495	4.94
274.71	5.84
274.924	5.72
275.138	5.94
275.352	5.31
275.566	4.57
275.781	4.06
275.995	4.53
276.209	4.96
276.423	5.18
276.637	4.85
276.851	4.51
277.065	3.94
277.279	4.01
277.493	3.69
277.707	4.42
277.921	4.59
278.135	4.6
278.349	4.1
278.563	4.84
278.777	4.67
278.991	4.9
279.205	5.03
279.419	4.88
279.633	4.89
279.847	4.95
280.061	4.75
280.275	4.66
280.489	4.96
280.703	5.17
280.917	4.51
281.131	4.93
281.344	4.84
281.558	5.29
281.772	5.38
281.986	5.62
282.2	5.1
282.414	5.25
282.627	5.36
282.841	5.28
283.055	5.26
283.269	5.21
283.482	4.8
283.696	4.61
283.91	4.24
284.123	4.51
284.337	4.46
284.551	4.74
284.764	4.39
284.978	4.37
285.192	4.14
285.405	3.92
285.619	4.21
285.833	4.26
286.046	4.41
286.26	4.39
286.473	3.99
286.687	3.58
286.9	3.83
287.114	4.13
287.327	4.26
287.541	4.48
287.754	4.83
287.968	4.92
288.181	5.26
288.395	5.03
288.608	5.07
288.822	5.44
289.035	5.82
289.248	5.63
289.462	5.37
289.675	5.11
289.889	5.46
290.102	5.35
290.315	5.06
290.529	4.76
290.742	4.87
290.955	4.92
291.169	4.45
291.382	4.82
291.595	5.07
291.808	5.38
292.022	5.52
292.235	5.32
292.448	5.24
292.661	5.41
292.875	5.73
293.088	6.03
293.301	6.19
293.514	6.21
293.727	6.28
293.94	6.16
294.153	6.09
294.367	6.23
294.58	6.42
294.793	6.76
295.006	6.77
295.219	6.45
295.432	6.33
295.645	6.25
295.858	6.56
296.071	6.39
296.284	6.49
296.497	6.43
296.71	6.26
296.923	6.09
297.136	6.01
297.349	5.93
297.562	6.15
297.775	6.18
297.988	6.35
298.201	6.4
298.414	6.4
298.626	6.32
298.839	6.45
299.052	6.74
299.265	7.03
299.478	6.85
299.691	7.03
299.903	7.15
300.116	7.25
300.329	7.34
300.542	7.32
300.755	7.71
300.967	8.07
301.18	8.22
301.393	8.25
301.605	8.02
301.818	8.2
302.031	7.91
302.243	8.13
302.456	7.95
302.669	7.92
302.881	8.43
303.094	8.09
303.307	7.96
303.519	7.71
303.732	7.42
303.944	7.69
304.157	7.36
304.37	7.48
304.582	7.43
304.795	7.95
305.007	7.68
305.22	7.45
305.432	7.53
305.645	8
305.857	8.28
306.069	8.6
306.282	8.84
306.494	9.53
306.707	9.69
306.919	9.52
307.132	9.32
307.344	9.15
307.556	9.16
307.769	8.84
307.981	8.4
308.193	8.06
308.406	8.17
308.618	7.99
308.83	7.84
309.043	7.63
309.255	7.6
309.467	7.43
309.679	7.92
309.892	7.92
310.104	8.24
310.316	8.23
310.528	8.6
310.74	8.52
310.953	8.77
311.165	8.76
311.377	9.01
311.589	9.15
311.801	9.17
312.013	8.88
312.225	9.02
312.437	9.03
312.649	9.19
312.862	9.18
313.074	9.32
313.286	9.25
313.498	9.24
313.71	9.48
313.922	9.79
314.134	10.18
314.346	10.72
314.558	10.86
314.77	10.96
314.982	11.07
315.193	10.73
315.405	10.65
315.617	10.43
315.829	10.82
316.041	10.84
316.253	10.38
316.465	10.35
316.677	10.45
316.888	10.47
317.1	10.42
317.312	10.31
317.524	10.61
317.736	10.5
317.947	10.66
318.159	10.61
318.371	10.47
318.583	10.74
318.794	10.55
319.006	10.1
319.218	9.77
319.43	9.6
319.641	9.87
319.853	10.45
320.064	10.91
320.276	11.01
320.488	11.12
320.699	11.02
320.911	11.15
321.123	11.54
321.334	11.47
321.546	11.59
321.757	11.98
321.969	11.58
322.18	11.06
322.392	10.74
322.603	10.35
322.815	10.46
323.026	10.64
323.238	10.7
323.449	10.43
323.661	10.57
323.872	10.49
324.083	10.47
324.295	10.43
324.506	10.56
324.718	10.82
324.929	10.92
325.14	10.66
325.352	10.73
325.563	10.76
325.774	10.88
325.986	10.61
326.197	11.14
326.408	11.28
326.62	11.26
326.831	11.62
327.042	11.57
327.253	11.81
327.464	12.08
327.676	12.27
327.887	12.16
328.098	12.27
328.309	12.73
328.52	12.31
328.732	12.1
328.943	12.51
329.154	12.33
329.365	12.45
329.576	12.78
329.787	12.69
329.998	12.32
330.209	12.32
330.42	12.79
330.631	13.43
330.842	13.45
331.053	13.62
331.264	13.6
331.475	13.32
331.686	13.58
331.897	12.75
332.108	12.87
332.319	13.26
332.53	13.69
332.741	13.47
332.952	13.02
333.163	13.07
333.374	13.6
333.585	13.56
333.795	13.79
334.006	13.75
334.217	14.65
334.428	14.3
334.639	14.06
334.849	13.76
335.06	13.48
335.271	13.3
335.482	13.26
335.692	12.9
335.903	12.88
336.114	12.97
336.325	12.89
336.535	12.54
336.746	12.93
336.957	13.04
337.167	13.05
337.378	13.42
337.589	13.66
337.799	13.63
338.01	13.68
338.22	13.75
338.431	13.62
338.642	13.5
338.852	13.78
339.063	13.63
339.273	13.98
339.484	13.97
339.694	13.68
339.905	13.54
340.115	13.53
340.326	13.35
340.536	13.31
340.746	13.16
340.957	13.04
341.167	12.6
341.378	12.85
341.588	12.52
341.799	12.45
342.009	12.8
342.219	12.73
342.43	12.73
342.64	13.03
342.85	13.13
343.061	13.15
343.271	13.46
343.481	13.7
343.691	13.36
343.902	13.05
344.112	13.14
344.322	13
344.532	13.34
344.743	13.39
344.953	13.2
345.163	13.09
345.373	12.94
345.583	12.75
345.793	12.62
346.004	12.78
346.214	12.7
346.424	12.64
346.634	12.39
346.844	12.47
347.054	12.7
347.264	12.54
347.474	12.41
347.684	12.58
347.894	12.39
348.104	12.33
348.314	12.05
348.524	12.26
348.734	12
348.944	12.29
349.154	11.8
349.364	11.13
349.574	10.99
349.784	10.94
349.994	10.89
350.204	11.3
350.413	11.25
350.623	11.37
350.833	11.57
351.043	11.73
351.253	11.67
351.463	11.67
351.672	12.08
351.882	12.4
352.092	12.42
352.302	12.38
352.511	12.35
352.721	12.25
352.931	12.25
353.141	11.99
353.35	12.07
353.56	12
353.77	12.17
353.979	11.99
354.189	11.78
354.399	11.81
354.608	11.98
354.818	11.95
355.027	12.13
355.237	12.28
355.447	12.47
355.656	12.52
355.866	12.49
356.075	12.41
356.285	12.51
356.494	12.28
356.704	12.12
356.913	11.96
357.123	11.65
357.332	11.56
357.542	11.65
357.751	11.7
357.96	11.62
358.17	11.47
358.379	11.37
358.589	11.36
358.798	11.49
359.007	11.67
359.217	11.62
359.426	11.82
359.635	11.85
359.845	11.44
360.054	11.4
360.263	11.4
360.472	11.48
360.682	11.61
360.891	11.52
361.1	11.57
361.309	11.55
361.519	11.53
361.728	11.29
361.937	11.34
362.146	11.39
362.355	11.24
362.564	11.2
362.774	11.29
362.983	11.12
363.192	11.19
363.401	10.97
363.61	11.03
363.819	11.31
364.028	11.67
364.237	11.6
364.446	11.69
364.655	11.6
364.864	11.47
365.073	11.29
365.282	11.29
365.491	11.43
365.7	11.49
365.909	11.44
366.118	11.34
366.327	10.94
366.536	10.95
366.745	10.9
366.954	10.87
367.162	11.11
367.371	11.06
367.58	10.94
367.789	10.66
367.998	11.03
368.207	10.84
368.415	10.53
368.624	10.49
368.833	10.49
369.042	10.4
369.25	10.46
369.459	10.51
369.668	10.38
369.877	10.58
370.085	10.69
370.294	10.35
370.503	10.3
370.711	10.36
370.92	10.45
371.129	10.53
371.337	10.52
371.546	10.67
371.754	10.43
371.963	10.35
372.171	10.2
372.38	10.05
372.589	10.22
372.797	10.27
373.006	10.21
373.214	10.24
373.423	10.11
373.631	10.01
373.84	10.1
374.048	10.12
374.256	10.22
374.465	10.1
374.673	10.31
374.882	10.22
375.09	10.11
375.298	10.18
375.507	9.9
375.715	9.85
375.923	9.89
376.132	9.42
376.34	9.21
376.548	9.21
376.757	9.37
376.965	9.16
377.173	9.04
377.381	8.99
377.59	8.86
377.798	9.09
378.006	8.81
378.214	8.8
378.423	8.88
378.631	9.14
378.839	8.92
379.047	8.82
379.255	8.57
379.463	8.36
379.671	8.37
379.879	8.3
380.088	8
380.296	8.3
380.504	8.34
380.712	8.24
380.92	7.98
381.128	8.28
381.336	7.98
381.544	8.04
381.752	8.03
381.96	7.88
382.168	7.8
382.376	7.81
382.584	7.68
382.791	7.6
382.999	7.66
383.207	7.69
383.415	7.67
383.623	7.89
383.831	7.86
384.039	7.99
384.247	8.05
384.454	8.06
384.662	8.18
384.87	8.18
385.078	8.04
385.285	8.08
385.493	7.88
385.701	7.76
385.909	7.62
386.116	7.72
386.324	7.44
386.532	7.35
386.739	7.53
386.947	7.31
387.155	7.35
387.362	7.28
387.57	7.33
387.778	7.58
387.985	7.47
388.193	7.55
388.4	7.59
388.608	7.9
388.816	8
389.023	7.79
389.231	8.14
389.438	8.21
389.646	8.46
389.853	8.12
390.061	7.91
390.268	8.11
390.475	8.15
390.683	8.06
390.89	7.91
391.098	7.78
391.305	7.71
391.512	7.45
391.72	7.09
391.927	6.93
392.135	7.22
392.342	7.22
392.549	6.93
392.756	6.76
392.964	6.69
393.171	6.55
393.378	6.55
393.586	6.61
393.793	6.55
394	6.7
394.207	6.7
394.414	6.65
394.622	6.59
394.829	6.52
395.036	6.67
395.243	6.56
395.45	6.7
395.657	6.76
395.864	6.65
396.072	6.82
396.279	6.86
396.486	6.66
396.693	6.52
396.9	6.57
397.107	6.81
397.314	6.76
397.521	6.89
397.728	6.87
397.935	6.81
398.142	6.89
398.349	6.82
398.556	6.67
398.763	6.88
398.97	6.78
399.177	6.64
399.383	6.46
399.59	6.26
399.797	6.25
400.004	6.03
400.211	5.9
400.418	5.86
400.625	5.63
400.831	5.71
401.038	5.62
401.245	5.73
401.452	5.82
401.658	5.86
401.865	5.85
402.072	5.71
402.279	5.95
402.485	6.21
402.692	6.31
402.899	6.41
403.105	6.38
403.312	6.31
403.519	6.2
403.725	6.23
403.932	6.3
404.138	6.24
404.345	6.28
404.552	6.2
404.758	6.12
404.965	5.99
405.171	5.89
405.378	5.78
405.584	5.79
405.791	5.84
405.997	5.76
406.204	5.56
406.41	5.72
406.617	5.53
406.823	5.31
407.029	5.46
407.236	5.42
407.442	5.47
407.649	5.57
407.855	5.51
408.061	5.42
408.268	5.36
408.474	5.48
408.68	5.39
408.887	5.59
409.093	5.79
409.299	5.44
409.505	5.48
409.712	5.56
409.918	5.61
410.124	5.62
410.33	5.68
410.537	5.82
410.743	5.72
410.949	5.77
411.155	5.72
411.361	5.54
411.567	5.65
411.773	5.49
411.98	5.36
412.186	5.11
412.392	5.24
412.598	5.31
412.804	5.21
413.01	5.22
413.216	5.26
413.422	5.33
413.628	5.39
413.834	5.47
414.04	5.71
414.246	5.73
414.452	6.01
414.658	5.83
414.864	5.71
415.07	5.73
415.275	5.81
415.481	5.6
415.687	5.65
415.893	5.78
416.099	5.7
416.305	5.53
416.511	5.52
416.716	5.37
416.922	5.48
417.128	5.5
417.334	5.49
417.539	5.34
417.745	5.4
417.951	5.15
418.157	5.09
418.362	5.17
418.568	5.2
418.774	5.27
418.979	5.2
419.185	5.15
419.391	5.13
419.596	5.04
419.802	5.13
420.008	5.12
420.213	5.86
420.419	5.88
420.624	5.77
420.83	5.72
421.035	5.61
421.241	5.64
421.446	5.64
421.652	5.51
421.857	5.64
422.063	5.63
422.268	5.6
422.474	5.01
422.679	4.91
422.885	4.92
423.09	4.88
423.295	4.93
423.501	4.96
423.706	4.87
423.911	4.93
424.117	4.79
424.322	4.84
424.527	4.86
424.733	4.83
424.938	4.85
425.143	4.85
425.349	4.95
425.554	4.86
425.759	4.84
425.964	4.89
426.169	4.94
426.375	4.99
426.58	4.88
426.785	4.86
426.99	4.84
427.195	4.93
427.4	4.93
427.605	4.86
427.811	4.94
428.016	4.94
428.221	5.02
428.426	5.06
428.631	5.08
428.836	5.17
429.041	5.35
429.246	5.38
429.451	5.37
429.656	5.33
429.861	5.48
430.066	5.53
430.271	5.35
430.476	5.23
430.681	5.14
430.886	5.18
431.09	5.09
431.295	4.91
431.5	4.94
431.705	5.03
431.91	5.03
432.115	4.83
432.32	4.73
432.524	4.83
432.729	4.91
432.934	4.98
433.139	4.91
433.343	5.06
433.548	5.11
433.753	5.09
433.958	4.95
434.162	4.9
434.367	4.93
434.572	4.98
434.776	5.09
434.981	5.02
435.186	5.03
435.39	5.15
435.595	4.98
435.799	4.92
436.004	4.95
436.209	4.88
436.413	4.95
436.618	5
436.822	5.03
437.027	4.93
437.231	5.05
437.436	5.03
437.64	5.05
437.845	5.08
438.049	5.1
438.253	5.14
438.458	5.19
438.662	5.21
438.867	5.19
439.071	5.27
439.275	5.29
439.48	5.15
439.684	5.15
439.888	5.09
440.093	5.14
440.297	5.17
440.501	5.13
440.706	5.2
440.91	5.2
441.114	5.2
441.318	5.14
441.523	5.13
441.727	5.14
441.931	5.14
442.135	5.09
442.339	4.99
442.543	4.97
442.748	4.97
442.952	4.8
443.156	4.77
443.36	4.81
443.564	4.86
443.768	4.88
443.972	5.01
444.176	5.05
444.38	5.05
444.584	5.15
444.788	5.15
444.992	5.2
445.196	5.28
445.4	5.29
445.604	5.28
445.808	5.23
446.012	5.2
446.216	5.18
446.42	5.15
446.624	5.16
446.828	5.17
447.032	5.2
447.235	5.14
447.439	5.14
447.643	5.2
447.847	5.21
448.051	5.19
448.254	5.22
448.458	5.19
448.662	5.19
448.866	5.2
449.069	5.17
449.273	5.12
449.477	5.2
449.681	5.21
449.884	5.1
450.088	5.1
450.292	5.09
450.495	5.09
450.699	5.07
450.902	4.96
451.106	4.89
451.31	4.96
451.513	4.96
451.717	4.87
451.92	4.92
452.124	4.99
452.327	4.89
452.531	4.94
452.734	4.98
452.938	5.01
453.141	5.15
453.345	5.23
453.548	5.15
453.752	5.18
453.955	5.17
454.158	5.2
454.362	5.23
454.565	5.27
454.769	5.28
454.972	5.21
455.175	5.21
455.379	5.15
455.582	5.13
455.785	5.13
455.988	5.06
456.192	5.03
456.395	5
456.598	5.06
456.801	5.05
457.005	5.03
457.208	5.03
457.411	5.01
457.614	5.01
457.817	5.08
458.021	5.16
458.224	5.19
458.427	5.2
458.63	5.11
458.833	4.96
459.036	4.92
459.239	4.93
459.442	5
459.645	4.98
459.848	4.93
460.051	4.87
460.254	4.79
460.457	4.73
460.66	4.74
460.863	4.74
461.066	4.74
461.269	4.78
461.472	4.72
461.675	4.72
461.878	4.71
462.081	4.81
462.284	4.84
462.486	4.83
462.689	4.88
462.892	4.88
463.095	4.9
463.298	5.01
463.5	5.1
463.703	5.28
463.906	5.2
464.109	5.25
464.311	5.21
464.514	5.23
464.717	5.28
464.92	5.26
465.122	5.29
465.325	5.35
465.528	5.34
465.73	5.2
465.933	5.19
466.135	5.16
466.338	5.2
466.541	5.21
466.743	5.19
466.946	5.14
467.148	5.28
467.351	5.17
467.553	5.21
467.756	5.19
467.958	5.2
468.161	5.14
468.363	5.2
468.566	5.13
468.768	5.14
468.971	5.1
469.173	5.22
469.375	5.18
469.578	5.42
469.78	5.31
469.983	5.35
470.185	5.5
470.387	5.47
470.59	5.39
470.792	5.5
470.994	5.54
471.196	5.65
471.399	5.56
471.601	5.42
471.803	5.38
472.005	5.45
472.208	5.56
472.41	5.46
472.612	5.45
472.814	5.4
473.016	5.19
473.218	5.23
473.421	5.18
473.623	5.26
473.825	5.36
474.027	5.29
474.229	5.29
474.431	5.21
474.633	5.18
474.835	5.23
475.037	5.38
475.239	5.53
475.441	5.46
475.643	5.48
475.845	5.31
476.047	5.33
476.249	5.23
476.451	5.15
476.653	5.24
476.855	5.34
477.057	5.18
477.258	5.09
477.46	5.12
477.662	5.19
477.864	5.23
478.066	5.36
478.268	5.28
478.469	5.32
478.671	5.4
478.873	5.29
479.075	5.29
479.276	5.37
479.478	5.46
479.68	5.42
479.882	5.31
480.083	5.24
480.285	5.13
480.487	5.2
480.688	5.22
480.89	5.19
481.091	5.18
481.293	5.14
481.495	5.13
481.696	5.04
481.898	4.98
482.099	4.97
482.301	4.91
482.502	4.96
482.704	4.91
482.905	4.86
483.107	4.85
483.308	4.81
483.51	4.79
483.711	4.78
483.913	4.76
484.114	4.76
484.315	4.76
484.517	4.78
484.718	4.77
484.92	4.77
485.121	4.75
485.322	4.74
485.524	4.78
485.725	4.79
485.926	4.78
486.127	4.81
486.329	4.82
486.53	4.8
486.731	4.77
486.932	4.75
487.134	4.71
487.335	4.76
487.536	4.75
487.737	4.71
487.938	4.7
488.139	4.7
488.341	4.7
488.542	4.69
488.743	4.69
488.944	4.71
489.145	4.73
489.346	4.77
489.547	4.74
489.748	4.73
489.949	4.77
490.15	4.8
490.351	4.77
490.552	4.8
490.753	4.83
490.954	4.83
491.155	4.84
491.356	4.83
491.557	4.85
491.758	4.93
491.959	4.96
492.159	4.93
492.36	4.9
492.561	4.95
492.762	4.94
492.963	4.94
493.164	4.96
493.364	5
493.565	5.02
493.766	5.06
493.967	5.02
494.167	4.99
494.368	5.01
494.569	5.06
494.769	5.06
494.97	5.1
495.171	5.14
495.371	5.19
495.572	5.23
495.773	5.23
495.973	5.22
496.174	5.3
496.375	5.35
496.575	5.5
496.776	5.46
496.976	5.51
497.177	5.49
497.377	5.42
497.578	5.45
497.778	5.45
497.979	5.53
498.179	5.52
498.38	5.42
498.58	5.41
498.78	5.39
498.981	5.5
499.181	5.49
499.382	5.52
499.582	5.58
499.782	5.66
499.983	5.65
500.183	5.64
500.383	5.67
500.584	5.75
500.784	5.82
500.984	5.76
501.184	5.72
501.385	5.81
501.585	5.82
501.785	5.89
501.985	5.84
502.185	5.86
502.386	5.83
502.586	5.87
502.786	5.95
502.986	6.04
503.186	6.09
503.386	6.2
503.586	6.26
503.786	6.32
503.987	6.39
504.187	6.41
504.387	6.44
504.587	6.51
504.787	6.5
504.987	6.48
505.187	6.61
505.387	6.68
505.587	6.71
505.786	6.74
505.986	6.84
506.186	6.84
506.386	6.91
506.586	6.99
506.786	7.1
506.986	7.23
507.186	7.37
507.386	7.3
507.585	7.38
507.785	7.35
507.985	7.34
508.185	7.35
508.384	7.42
508.584	7.54
508.784	7.58
508.984	7.71
509.183	7.74
509.383	7.8
509.583	7.79
509.782	7.8
509.982	7.95
510.182	8.04
510.381	8.05
510.581	8.12
510.781	8.18
510.98	8.29
511.18	8.33
511.379	8.37
511.579	8.42
511.778	8.6
511.978	8.65
512.177	8.74
512.377	8.87
512.576	8.96
512.776	9
512.975	9.08
513.175	9.14
513.374	9.15
513.573	9.3
513.773	9.34
513.972	9.39
514.172	9.54
514.371	9.6
514.57	9.66
514.77	9.77
514.969	10
515.168	10.05
515.367	10.2
515.567	10.37
515.766	10.52
515.965	10.62
516.164	10.79
516.364	10.95
516.563	11.07
516.762	11.24
516.961	11.4
517.16	11.34
517.359	11.49
517.559	11.59
517.758	11.68
517.957	11.72
518.156	11.76
518.355	11.78
518.554	11.8
518.753	11.85
518.952	11.88
519.151	12.03
519.35	12.23
519.549	12.31
519.748	12.33
519.947	12.41
520.146	12.55
520.345	12.79
520.544	12.87
520.743	13
520.942	13.17
521.141	13.36
521.339	13.36
521.538	13.41
521.737	13.48
521.936	13.66
522.135	13.8
522.333	13.92
522.532	13.98
522.731	14.2
522.93	14.36
523.129	14.47
523.327	14.54
523.526	14.71
523.725	14.88
523.923	15.07
524.122	15.2
524.321	15.29
524.519	15.35
524.718	15.48
524.917	15.63
525.115	15.74
525.314	15.88
525.512	16
525.711	16.09
525.909	16.23
526.108	16.31
526.306	16.48
526.505	16.69
526.703	16.88
526.902	17.04
527.1	17.12
527.299	17.25
527.497	17.34
527.696	17.43
527.894	17.59
528.092	17.67
528.291	17.73
528.489	17.75
528.688	17.77
528.886	17.82
529.084	17.91
529.283	17.97
529.481	18.06
529.679	18.17
529.877	18.24
530.076	18.24
530.274	18.3
530.472	18.44
530.67	18.61
530.869	18.73
531.067	18.91
531.265	19.01
531.463	19.18
531.661	19.27
531.859	19.34
532.057	19.46
532.255	19.61
532.454	19.73
532.652	19.86
532.85	19.95
533.048	20.06
533.246	20.13
533.444	20.19
533.642	20.28
533.84	20.35
534.038	20.51
534.236	20.61
534.434	20.7
534.632	20.76
534.83	20.87
535.027	20.96
535.225	21.06
535.423	21.19
535.621	21.3
535.819	21.34
536.017	21.51
536.215	21.56
536.412	21.68
536.61	21.77
536.808	21.89
537.006	21.94
537.203	22.04
537.401	22.11
537.599	22.14
537.797	22.26
537.994	22.51
538.192	22.53
538.39	22.65
538.587	22.88
538.785	23.03
538.983	23.24
539.18	23.4
539.378	23.6
539.575	23.75
539.773	24.01
539.97	24.12
540.168	24.17
540.366	24.26
540.563	24.37
540.761	24.39
540.958	24.4
541.155	24.47
541.353	24.58
541.55	24.65
541.748	24.73
541.945	24.74
542.143	24.79
542.34	24.88
542.537	24.98
542.735	25.04
542.932	25.14
543.129	25.29
543.327	25.4
543.524	25.55
543.721	25.79
543.919	26.01
544.116	26.23
544.313	26.42
544.51	26.67
544.708	26.94
544.905	27.17
545.102	27.49
545.299	27.74
545.496	27.93
545.693	27.95
545.891	27.89
546.088	27.81
546.285	27.84
546.482	27.82
546.679	27.75
546.876	27.73
547.073	27.73
547.27	27.53
547.467	27.49
547.664	27.36
547.861	27.37
548.058	27.35
548.255	27.44
548.452	27.49
548.649	27.51
548.846	27.56
549.043	27.46
549.24	27.44
549.437	27.48
549.633	27.38
549.83	27.46
550.027	27.49
550.224	27.51
550.421	27.45
550.618	27.25
550.814	27.29
551.011	27.18
551.208	27.24
551.405	27.17
551.601	27.17
551.798	27.18
551.995	27.06
552.191	26.99
552.388	26.96
552.585	26.99
552.781	26.98
552.978	27.01
553.175	26.94
553.371	26.89
553.568	27.04
553.764	27.07
553.961	27.14
554.157	27.22
554.354	27.19
554.55	27.2
554.747	27.21
554.943	27.27
555.14	27.26
555.336	27.38
555.533	27.43
555.729	27.3
555.926	27.29
556.122	27.3
556.318	27.47
556.515	27.58
556.711	27.65
556.907	27.58
557.104	27.64
557.3	27.56
557.496	27.6
557.693	27.61
557.889	27.68
558.085	27.72
558.281	27.78
558.478	27.68
558.674	27.61
558.87	27.58
559.066	27.73
559.262	27.77
559.459	27.92
559.655	27.91
559.851	28.02
560.047	28.09
560.243	28.08
560.439	28.15
560.635	28.16
560.831	28.24
561.027	28.34
561.223	28.39
561.419	28.51
561.615	28.33
561.811	28.43
562.007	28.42
562.203	28.46
562.399	28.49
562.595	28.36
562.791	28.41
562.987	28.42
563.183	28.36
563.379	28.36
563.575	28.19
563.771	28.35
563.966	28.31
564.162	28.28
564.358	28.23
564.554	28.23
564.75	28.3
564.945	28.39
565.141	28.43
565.337	28.46
565.533	28.42
565.728	28.52
565.924	28.59
566.12	28.67
566.315	28.63
566.511	28.63
566.707	28.62
566.902	28.64
567.098	28.65
567.293	28.61
567.489	28.64
567.684	28.65
567.88	28.61
568.076	28.56
568.271	28.56
568.467	28.51
568.662	28.6
568.858	28.7
569.053	28.7
569.248	28.58
569.444	28.65
569.639	28.61
569.835	28.68
570.03	28.74
570.225	28.81
570.421	28.72
570.616	28.72
570.812	28.57
571.007	28.57
571.202	28.59
571.397	28.61
571.593	28.54
571.788	28.62
571.983	28.6
572.178	28.68
572.374	28.66
572.569	28.8
572.764	28.94
572.959	29.03
573.154	29.02
573.35	29.07
573.545	29.07
573.74	29.19
573.935	29.22
574.13	29.27
574.325	29.33
574.52	29.3
574.715	29.33
574.91	29.45
575.105	29.54
575.3	29.52
575.495	29.66
575.69	29.88
575.885	30.01
576.08	30.04
576.275	30.13
576.47	30.19
576.665	30.49
576.86	30.43
577.055	30.57
577.25	30.58
577.444	30.79
577.639	30.79
577.834	30.73
578.029	30.79
578.224	30.96
578.418	30.96
578.613	30.99
578.808	30.81
579.003	30.88
579.197	30.77
579.392	30.92
579.587	30.76
579.781	30.74
579.976	30.77
580.171	30.66
580.365	30.62
580.56	30.69
580.755	30.87
580.949	31
581.144	31.02
581.338	30.97
581.533	30.95
581.727	31.04
581.922	31.1
582.116	31.28
582.311	31.41
582.505	31.36
582.7	31.32
582.894	31.15
583.089	30.96
583.283	30.95
583.478	31.18
583.672	31.17
583.866	31.26
584.061	31.28
584.255	31.1
584.449	31.02
584.644	31.05
584.838	31.16
585.032	31.23
585.226	31.52
585.421	31.68
585.615	31.64
585.809	31.77
586.003	31.84
586.198	31.84
586.392	32.09
586.586	32.24
586.78	32.22
586.974	32.19
587.168	32.2
587.363	32.21
587.557	32.02
587.751	31.93
587.945	31.88
588.139	31.85
588.333	31.88
588.527	31.68
588.721	31.64
588.915	31.65
589.109	31.58
589.303	31.4
589.497	31.23
589.691	31.25
589.885	31.26
590.079	31.23
590.273	31.21
590.466	31.3
590.66	31.45
590.854	31.6
591.048	31.76
591.242	31.78
591.436	31.94
591.629	32.05
591.823	32.17
592.017	32.36
592.211	32.3
592.404	32.45
592.598	32.43
592.792	32.44
592.986	32.43
593.179	32.21
593.373	32.23
593.567	32.13
593.76	32.22
593.954	32.27
594.147	31.92
594.341	31.88
594.535	31.75
594.728	31.65
594.922	31.51
595.115	31.34
595.309	31.36
595.502	31.35
595.696	31.42
595.889	31.4
596.083	31.43
596.276	31.58
596.47	31.66
596.663	31.71
596.856	31.73
597.05	31.84
597.243	32.05
597.437	32.1
597.63	32.23
597.823	32.22
598.017	32.24
598.21	32.25
598.403	32.19
598.596	32.23
598.79	32.21
598.983	32.27
599.176	32.22
599.369	32.07
599.563	32.2
599.756	32.13
599.949	32.11
600.142	32.08
600.335	31.98
600.528	32.29
600.722	32.31
600.915	32.23
601.108	32.28
601.301	32.26
601.494	32.19
601.687	32.22
601.88	32.33
602.073	32.45
602.266	32.4
602.459	32.5
602.652	32.37
602.845	32.3
603.038	32.46
603.231	32.44
603.424	32.39
603.617	32.4
603.809	32.28
604.002	32.12
604.195	32.05
604.388	32.05
604.581	32.01
604.774	31.95
604.966	31.85
605.159	31.75
605.352	31.69
605.545	31.8
605.737	31.68
605.93	31.77
606.123	31.97
606.316	32.07
606.508	32.09
606.701	32.17
606.894	32.4
607.086	32.68
607.279	32.87
607.471	33.01
607.664	33.11
607.857	33.55
608.049	33.74
608.242	34.04
608.434	34.59
608.627	35.16
608.819	35.73
609.012	36.54
609.204	37.35
609.397	38.28
609.589	39.14
609.782	40.3
609.974	41.44
610.166	42.67
610.359	43.57
610.551	44.38
610.743	45.13
610.936	46.02
611.128	46.48
611.32	46.91
611.513	46.82
611.705	46.99
611.897	46.71
612.09	46.16
612.282	45.43
612.474	44.95
612.666	44.36
612.858	43.92
613.051	43.05
613.243	42.45
613.435	41.86
613.627	41.5
613.819	40.99
614.011	40.56
614.203	40.22
614.395	39.95
614.588	39.64
614.78	39.12
614.972	38.94
615.164	38.56
615.356	38.07
615.548	37.62
615.74	37.32
615.932	37.03
616.124	36.69
616.315	36.31
616.507	35.9
616.699	35.69
616.891	35.55
617.083	35.17
617.275	34.98
617.467	34.77
617.659	34.69
617.85	34.56
618.042	34.29
618.234	34.27
618.426	34.21
618.618	34.23
618.809	33.97
619.001	34.06
619.193	33.99
619.384	34.08
619.576	34.27
619.768	34.22
619.959	34.27
620.151	34.47
620.343	34.29
620.534	34.4
620.726	34.58
620.917	34.92
621.109	34.77
621.301	34.86
621.492	35.04
621.684	34.98
621.875	35.09
622.067	35.03
622.258	35.07
622.45	35.32
622.641	35.23
622.832	35.11
623.024	34.98
623.215	35.21
623.407	35.29
623.598	35.12
623.789	34.98
623.981	34.92
624.172	34.93
624.363	34.84
624.555	34.69
624.746	34.66
624.937	34.61
625.129	34.51
625.32	34.33
625.511	34.12
625.702	34.15
625.893	34.2
626.085	34.11
626.276	34.17
626.467	34.18
626.658	34.29
626.849	34.32
627.04	34.27
627.231	34.19
627.422	34.2
627.614	34.28
627.805	34.41
627.996	34.49
628.187	34.69
628.378	34.81
628.569	34.96
628.76	34.97
628.951	35.13
629.142	35.3
629.332	35.39
629.523	35.47
629.714	35.7
629.905	35.7
630.096	35.72
630.287	35.66
630.478	35.62
630.669	35.35
630.859	35.37
631.05	35.34
631.241	35.3
631.432	35.42
631.623	35.48
631.813	35.41
632.004	35.16
632.195	34.99
632.385	34.83
632.576	34.65
632.767	34.61
632.957	34.36
633.148	34.11
633.339	33.96
633.529	34
633.72	33.79
633.91	33.59
634.101	33.53
634.292	33.36
634.482	33.32
634.673	33.27
634.863	33.28
635.054	33.32
635.244	33.32
635.435	33.31
635.625	33.1
635.815	33.21
636.006	32.98
636.196	32.95
636.387	33.12
636.577	33.18
636.767	33.33
636.958	33.18
637.148	33.16
637.338	33.21
637.529	33.16
637.719	33.17
637.909	33.18
638.099	33.36
638.29	33.48
638.48	33.47
638.67	33.55
638.86	33.54
639.05	33.69
639.241	33.64
639.431	33.53
639.621	33.46
639.811	33.32
640.001	33.02
640.191	33.03
640.381	32.98
640.571	32.91
640.761	32.76
640.951	32.49
641.141	32.68
641.331	32.68
641.521	33.12
641.711	33.32
641.901	33.49
642.091	33.8
642.281	33.83
642.471	33.98
642.661	34.29
642.851	34.47
643.041	34.57
643.231	34.31
643.42	34.32
643.61	34.07
643.8	33.88
643.99	34.14
644.18	34.06
644.369	33.86
644.559	33.72
644.749	33.46
644.939	33.28
645.128	33.2
645.318	33.27
645.508	33.11
645.697	33.03
645.887	33.19
646.076	33
646.266	32.99
646.456	33.28
646.645	33.35
646.835	33.58
647.024	33.8
647.214	34.02
647.403	33.93
647.593	34.09
647.782	34.04
647.972	34.14
648.161	34.3
648.351	34.24
648.54	34.2
648.73	34.25
648.919	34.21
649.108	34.16
649.298	34.25
649.487	34.62
649.677	34.88
649.866	35.04
650.055	35.14
650.244	34.98
650.434	35.08
650.623	35.25
650.812	35.21
651.002	35.16
651.191	35.11
651.38	34.93
651.569	34.92
651.758	34.89
651.947	34.95
652.137	34.79
652.326	34.75
652.515	34.62
652.704	34.25
652.893	34.13
653.082	34.13
653.271	33.93
653.46	33.92
653.649	33.62
653.838	33.61
654.027	33.47
654.216	33.66
654.405	33.56
654.594	33.83
654.783	34.12
654.972	34.14
655.161	33.99
655.35	34.19
655.539	34.22
655.728	34.32
655.916	34.06
656.105	34.01
656.294	33.85
656.483	33.91
656.672	33.75
656.86	33.64
657.049	33.79
657.238	33.76
657.427	33.79
657.615	33.63
657.804	33.48
657.993	33.5
658.181	33.47
658.37	33.44
658.559	33.51
658.747	33.45
658.936	33.38
659.125	33.36
659.313	33.31
659.502	33.32
659.69	33.53
659.879	33.75
660.067	33.77
660.256	34.03
660.444	34.36
660.633	34.46
660.821	34.49
661.01	34.7
661.198	34.69
661.387	34.95
661.575	35.12
661.763	34.96
661.952	34.81
662.14	34.9
662.328	34.94
662.517	34.52
662.705	34.41
662.893	34.36
663.082	34.4
663.27	34.58
663.458	34.51
663.646	34.35
663.834	34.69
664.023	34.97
664.211	35.1
664.399	34.94
664.587	34.81
664.775	34.86
664.963	35.16
665.152	35.1
665.34	35.07
665.528	35.07
665.716	35.05
665.904	34.95
666.092	34.9
666.28	35.04
666.468	34.87
666.656	35.2
666.844	35.21
667.032	35.15
667.22	35.01
667.408	34.86
667.596	34.99
667.784	35.03
667.971	34.85
668.159	34.71
668.347	34.53
668.535	34.72
668.723	34.61
668.911	34.44
669.098	34.26
669.286	34.32
669.474	34.42
669.662	34.44
669.849	34.68
670.037	34.68
670.225	35.03
670.413	35.22
670.6	35.04
670.788	35.12
670.976	35.27
671.163	35.34
671.351	35.36
671.538	35.25
671.726	35.14
671.913	34.87
672.101	34.8
672.289	34.46
672.476	34.11
672.664	34.3
672.851	34.08
673.039	34.22
673.226	34.16
673.413	34.04
673.601	34.11
673.788	34.16
673.976	34.07
674.163	34.24
674.35	34.21
674.538	34.56
674.725	34.79
674.912	34.79
675.1	34.54
675.287	34.98
675.474	35.04
675.662	35.38
675.849	35.36
676.036	35.58
676.223	35.41
676.411	35.38
676.598	35.05
676.785	34.99
676.972	35.16
677.159	35.33
677.346	35.15
677.533	35.26
677.721	34.97
677.908	34.89
678.095	34.82
678.282	34.8
678.469	34.84
678.656	35.08
678.843	34.81
679.03	34.71
679.217	34.81
679.404	34.66
679.591	34.43
679.778	34.34
679.964	34.21
680.151	34.08
680.338	34.11
680.525	34.34
680.712	34.26
680.899	34.43
681.086	34.54
681.272	34.36
681.459	34.47
681.646	34.59
681.833	34.47
682.02	34.53
682.206	34.69
682.393	34.66
682.58	34.29
682.766	34.46
682.953	34.48
683.14	34.17
683.326	34.64
683.513	34.65
683.7	34.85
683.886	35.19
684.073	35.31
684.259	35.11
684.446	35.32
684.632	35.57
684.819	35.41
685.005	35.3
685.192	35.64
685.378	35.18
685.565	35.28
685.751	35.31
685.938	35.43
686.124	35.5
686.31	35.6
686.497	35.48
686.683	35.41
686.87	35.44
687.056	35.31
687.242	35.24
687.429	35.18
687.615	34.8
687.801	34.51
687.987	34.63
688.174	34.64
688.36	34.73
688.546	35.09
688.732	35.24
688.918	35.22
689.105	35.37
689.291	35.63
689.477	35.76
689.663	36.15
689.849	36.28
690.035	35.82
690.221	35.93
690.407	36.08
690.593	35.7
690.779	35.68
690.965	35.64
691.151	35.66
691.337	35.56
691.523	35.49
691.709	35.16
691.895	35.36
692.081	35.43
692.267	35.32
692.453	35.21
692.639	35.44
692.825	35.48
693.011	35.39
693.196	35.41
693.382	35.5
693.568	35.71
693.754	35.93
693.94	36.04
694.125	36.1
694.311	36.34
694.497	36.38
694.682	36.38
694.868	36.37
695.054	36.6
695.239	36.6
695.425	36.22
695.611	36.22
695.796	36.23
695.982	35.95
696.168	35.99
696.353	35.74
696.539	35.22
696.724	35.04
696.91	34.99
697.095	34.81
697.281	34.61
697.466	34.91
697.652	34.71
697.837	34.58
698.023	34.38
698.208	34.25
698.393	34.1
698.579	34.15
698.764	34.25
698.949	34.17
699.135	34.15
699.32	34.19
699.505	34.17
699.691	34.33
699.876	34.32
700.061	34.47
700.246	34.42
700.432	34.72
700.617	35.15
700.802	35.06
700.987	35.06
701.172	35.03
701.358	35.38
701.543	35.03
701.728	34.72
701.913	35.02
702.098	35.1
702.283	35.33
702.468	35.22
702.653	34.91
702.838	35.17
703.023	35.3
703.208	35.38
703.393	35
703.578	35.33
703.763	35.77
703.948	35.65
704.133	35.89
704.318	36.06
704.503	36.07
704.688	36.49
704.873	36.54
705.057	36.86
705.242	37.28
705.427	37.74
705.612	38.19
705.797	38.43
705.981	39.08
706.166	39.29
706.351	39.45
706.536	39.92
706.72	40.06
706.905	40.13
707.09	40.19
707.274	40.17
707.459	40.06
707.644	39.79
707.828	40.02
708.013	39.49
708.197	39.58
708.382	39.41
708.567	39.34
708.751	39.01
708.936	39
709.12	38.96
709.305	38.91
709.489	38.46
709.673	38.54
709.858	38.13
710.042	38.15
710.227	37.8
710.411	37.95
710.596	37.71
710.78	37.86
710.964	38.09
711.149	38.02
711.333	38.19
711.517	38.35
711.702	38.08
711.886	37.82
712.07	38.02
712.254	38.06
712.438	37.6
712.623	37.47
712.807	37.41
712.991	36.75
713.175	36.46
713.359	35.95
713.544	36.06
713.728	35.89
713.912	35.67
714.096	35.13
714.28	34.81
714.464	35.2
714.648	34.99
714.832	34.64
715.016	34.49
715.2	34.27
715.384	34.29
715.568	34.19
715.752	34.15
715.936	34.35
716.12	34.56
716.304	34.84
716.488	34.51
716.671	34.37
716.855	34.79
717.039	35.17
717.223	35.25
717.407	35.18
717.59	35.22
717.774	35.31
717.958	35.2
718.142	34.72
718.325	34.56
718.509	34.57
718.693	35.11
718.877	34.49
719.06	34.31
719.244	34.53
719.428	34.72
719.611	34.97
719.795	35.13
719.978	35.22
720.162	35.99
720.345	36.12
720.529	36.01
720.713	36.23
720.896	36.73
721.08	37.37
721.263	37.07
721.446	36.69
721.63	36.51
721.813	36.32
721.997	36.14
722.18	35.82
722.364	35.7
722.547	35.7
722.73	35.25
722.914	34.9
723.097	34.29
723.28	34.43
723.464	34.76
723.647	34.69
723.83	34.89
724.013	35.29
724.197	35.66
724.38	35.36
724.563	35.61
724.746	35.55
724.929	35.86
725.112	35.6
725.296	35.86
725.479	35.77
725.662	35.74
725.845	35.62
726.028	35.2
726.211	35.11
726.394	35.48
726.577	35.41
726.76	35.21
726.943	35.12
727.126	35.46
727.309	35.59
727.492	35.81
727.675	35.83
727.858	35.96
728.041	36.11
728.224	35.45
728.407	35.39
728.589	35.19
728.772	35.24
728.955	35.36
729.138	35.28
729.321	34.61
729.503	34.58
729.686	34.53
729.869	34.38
730.052	34.49
730.234	34.52
730.417	34.32
730.6	34.78
730.782	34.83
730.965	34.64
731.148	34.67
731.33	35.18
731.513	35.05
731.695	35.46
731.878	35.53
732.061	35.56
732.243	36.06
732.426	36.24
732.608	35.88
732.791	36.2
732.973	36.17
733.156	36.36
733.338	36.22
733.52	36.25
733.703	35.47
733.885	35.45
734.068	35.35
734.25	35.2
734.432	35.66
734.615	36.07
734.797	36.08
734.979	36.12
735.162	35.47
735.344	35.72
735.526	35.61
735.708	36.16
735.891	36.36
736.073	36.54
736.255	36.58
736.437	35.93
736.619	35.74
736.802	35.83
736.984	35.83
737.166	36.91
737.348	36.49
737.53	37.12
737.712	37.29
737.894	36.8
738.076	36.96
738.258	37.01
738.44	36.94
738.622	36.85
738.804	36.54
738.986	36.4
739.168	36.28
739.35	36.34
739.532	36.25
739.714	35.59
739.896	35.77
740.078	35.32
740.259	35.31
740.441	35.33
740.623	35.19
740.805	35.39
740.987	35.89
741.168	35.73
741.35	35.93
741.532	35.84
741.714	36.56
741.895	36.88
742.077	36.61
742.259	36.51
742.44	37.02
742.622	37.21
742.804	37.22
742.985	36.78
743.167	36.69
743.348	36.73
743.53	37.19
743.711	37.38
743.893	37.09
744.075	38.31
744.256	38.54
744.438	37.97
744.619	38.39
744.8	38.39
744.982	38.46
745.163	38.31
745.345	38.23
745.526	38.06
745.707	37.7
745.889	38.28
746.07	37.12
746.252	37.06
746.433	37.13
746.614	37.16
746.795	36.8
746.977	36.4
747.158	37.04
747.339	36.95
747.52	36.52
747.702	36.61
747.883	36.69
748.064	37.87
748.245	37.33
748.426	37.58
748.607	37.18
748.788	37.38
748.97	37.94
749.151	37.13
749.332	37.31
749.513	37.44
749.694	37.17
749.875	36.76
750.056	36.79
750.237	37.3
750.418	37.08
750.599	37.05
750.78	37.45
750.96	37.04
751.141	37.37
751.322	37.15
751.503	37.44
751.684	37.51
751.865	38.1
752.046	37.69
752.226	37.4
752.407	37.94
752.588	37.75
752.769	37.41
752.949	37.77
753.13	37.66
753.311	38.06
753.492	37.81
753.672	37.95
753.853	36.83
754.034	36.95
754.214	37.19
754.395	37.07
754.575	36.98
754.756	37.28
754.937	37.6
755.117	37.66
755.298	37.43
755.478	36.97
755.659	37.09
755.839	37.51
756.02	37.01
756.2	36.48
756.381	35.97
756.561	35.77
756.741	36.06
756.922	36.06
757.102	36.14
757.283	36.03
757.463	36.68
757.643	35.98
757.823	35.46
758.004	35.28
758.184	35.12
758.364	35.43
758.545	35.58
758.725	35.04
758.905	33.53
759.085	33.21
759.265	33.31
759.446	32.31
759.626	32.84
759.806	33.11
759.986	33.07
760.166	33.37
760.346	32.8
760.526	32.63
760.706	32.91
760.886	33.99
761.066	34.13
761.246	33.84
761.426	33.77
761.606	33.08
761.786	33.87
761.966	33.99
762.146	34.23
762.326	34.96
762.506	35.22
762.686	34.7
762.866	34.78
763.046	34.49
763.225	34.7
763.405	34.58
763.585	35.14
763.765	34.05
763.945	34
764.124	33.92
764.304	33.78
764.484	33.31
764.664	33.4
764.843	33.51
765.023	33.99
765.203	33.59
765.382	34.02
765.562	33.5
765.741	34.08
765.921	34.23
766.101	34.36
766.28	34.24
766.46	35.01
766.639	35.13
766.819	34.79
766.998	34.62
767.178	35.02
767.357	35.01
767.537	35.76
767.716	36.14
767.896	36.06
768.075	35.33
768.254	35.47
768.434	35.47
768.613	35.09
768.792	34.93
768.972	34.55
769.151	34.31
769.33	34.89
769.51	34.91
769.689	34.63
769.868	34.49
770.047	35.18
770.226	34.86
770.406	35.32
770.585	35.33
770.764	35.34
770.943	36.35
771.122	36.34
771.301	35.12
771.48	34.63
771.66	35.22
771.839	35.48
772.018	36.07
772.197	36.82
772.376	35.71
772.555	36.14
772.734	36.54
772.913	34.92
773.092	34.77
773.271	35.22
773.449	35.28
773.628	35.18
773.807	35.64
773.986	35.62
774.165	35.7
774.344	36.59
774.523	37.4
774.701	37.95
774.88	38.91
775.059	39.29
775.238	40.01
775.417	39.7
775.595	40.07
775.774	39.43
775.953	39.2
776.131	38.67
776.31	38.21
776.489	37.88
776.667	38.07
776.846	37.56
777.025	37
777.203	36.79
777.382	37.39
777.56	36.38
777.739	37.72
777.917	37.25
778.096	37.59
778.274	38.3
778.453	38.81
778.631	38.96
778.81	40.16
778.988	40.94
779.166	40.79
779.345	41.15
779.523	41.6
779.702	41.13
779.88	42.19
780.058	42.42
780.237	41.79
780.415	41.06
780.593	40.43
780.771	39.97
780.95	40.55
781.128	40.08
781.306	39.48
781.484	40.06
781.662	38.57
781.841	38.41
782.019	38.01
782.197	38.24
782.375	38.48
782.553	38.43
782.731	38.6
782.909	38.31
783.087	38.92
783.265	38.44
783.443	36.82
783.621	37.82
783.799	37.57
783.977	37.66
784.155	37.35
784.333	36.29
784.511	36.51
784.689	37.22
784.867	37.55
785.045	37.91
785.223	38.5
785.4	39.05
785.578	38.92
785.756	39.19
785.934	38.86
786.112	39.43
786.289	40.57
786.467	39.74
786.645	38.13
786.823	37.46
787	37.34
787.178	37.11
787.356	37.81
787.533	38.06
787.711	37.47
787.889	37.53
788.066	36.88
788.244	36.38
788.421	36.76
788.599	36.46
788.776	35.74
788.954	35.56
789.131	36.45
789.309	35.97
789.486	35.47
789.664	35.41
789.841	35.88
790.019	36.57
790.196	36.86
790.373	36.47
790.551	37.88
790.728	38.81
790.906	40.22
791.083	40.48
791.26	41.26
791.437	41.2
791.615	41.23
791.792	40.7
791.969	40.25
792.146	39.69
792.324	40.22
792.501	39.5
792.678	40
792.855	38.97
793.032	38.39
793.209	38.37
793.387	39.34
793.564	39.89
793.741	40.23
793.918	40.71
794.095	41.01
794.272	40.99
794.449	41.33
794.626	41.9
794.803	42.17
794.98	41.61
795.157	40.86
795.334	40.45
795.511	39.47
795.688	38.34
795.864	37.63
796.041	37.64
796.218	37.32
796.395	37.32
796.572	36.32
796.749	35.7
796.925	35.35
797.102	35.43
797.279	35.21
797.456	35.57
797.632	37.14
797.809	36.79
797.986	36.74
798.162	36.28
798.339	35.36
798.516	34.69
798.692	34.49
798.869	35.8
799.046	34.89
799.222	35.11
799.399	35
799.575	34.05
799.752	34.09
799.928	33.84
800.105	34.31
800.281	35.76
800.458	36.64
800.634	36.25
800.811	35.59
800.987	37.25
801.163	37.19
801.34	37.95
801.516	38.44
801.692	39.36
801.869	40.14
802.045	40.67
802.221	39.43
802.398	38.21
802.574	38.67
802.75	38.09
802.926	38.06
803.103	38.86
803.279	38.46
803.455	38.36
803.631	38.26
803.807	37.68
803.983	38.81
804.16	38.89
804.336	39.47
804.512	39.46
804.688	39.46
804.864	39.28
805.04	39
805.216	39.02
805.392	39.52
805.568	39.31
805.744	39.28
805.92	37.24
806.096	38.35
806.272	39.65
806.448	40.22
806.623	41.66
806.799	41.22
806.975	40.76
807.151	39.24
807.327	39.77
807.503	39.53
807.678	40.01
807.854	41.65
808.03	40.75
808.206	39.11
808.381	39.52
808.557	37.83
808.733	39.42
808.908	38.82
809.084	40.66
809.26	38.87
809.435	38.95
809.611	38.86
809.787	38.18
809.962	38.8
810.138	40.45
810.313	39.47
810.489	40.41
810.664	39.57
810.84	40.01
811.015	40.21
811.191	40.63
811.366	41.47
811.542	42.97
811.717	42.29
811.892	41.81
812.068	40.78
812.243	40.87
812.419	41.3
812.594	40.11
812.769	39.75
812.944	38.84
813.12	39.51
813.295	39.22
813.47	37.9
813.645	38.56
813.821	39.09
813.996	38.33
814.171	38.84
814.346	37.18
814.521	37.82
814.697	37.88
814.872	38.61
815.047	37.98
815.222	36.8
815.397	36.6
815.572	35.97
815.747	35.77
815.922	36.97
816.097	36.27
816.272	37.64
816.447	37.11
816.622	37.27
816.797	36.5
816.972	36.36
817.147	37.36
817.322	37.46
817.496	37.6
817.671	37.53
817.846	37.21
818.021	37.13
818.196	36.57
818.371	37.57
818.545	38.53
818.72	37.65
818.895	37.85
819.069	37.62
819.244	37.12
819.419	37.59
819.594	36.96
819.768	35.66
819.943	36.05
820.117	35.41
820.292	34.31
820.467	32.97
820.641	33.06
820.816	32.04
820.99	31.33
821.165	30.79
821.339	30.47
821.514	30.6
821.688	30.88
821.863	30.41
822.037	30.49
822.212	30.31
822.386	30.31
822.56	30.4
822.735	30.3
822.909	30.32
823.084	30.42
823.258	30.2
823.432	30.14
823.606	30
823.781	30.09
823.955	30.17
824.129	30.36
824.303	30.54
824.478	30.43
824.652	30.85
824.826	31.15
825	31.45
825.174	31.73
825.348	31.59
825.523	31.86
825.697	31.85
825.871	31.96
826.045	31.59
826.219	31.44
826.393	31.57
826.567	31.38
826.741	31.02
826.915	30.54
827.089	30.6
827.263	30.49
827.437	30.12
827.611	30.89
827.784	30.55
827.958	30.72
828.132	30.56
828.306	30.48
828.48	30.42
828.654	30.66
828.827	30.86
829.001	30.58
829.175	30.95
829.349	30.84
829.522	29.72
829.696	30.92
829.87	31.63
830.044	32.01
830.217	31.86
830.391	32.69
830.565	32.69
830.738	33.07
830.912	34.08
831.085	34.6
831.259	36.75
831.432	36.58
831.606	35.67
831.779	35.37
831.953	36.91
832.126	37.21
832.3	35.73
832.473	35.58
832.647	35.54
832.82	35.37
832.994	34.51
833.167	33.2
833.34	33.85
833.514	33.16
833.687	32.9
833.86	32.2
834.034	31.98
834.207	33.19
834.38	32.58
834.553	32.83
834.727	32.8
834.9	33.1
835.073	33.59
835.246	33.55
835.419	34.1
835.593	34.43
835.766	33.62
835.939	34.45
836.112	33.95
836.285	34.19
836.458	34.11
836.631	34.69
836.804	35.33
836.977	35.35
837.15	35.91
837.323	35.97
837.496	36.05
837.669	38.66
837.842	38.56
838.015	39.11
838.188	40.93
838.361	41.11
838.533	40.59
838.706	40.5
838.879	41.09
839.052	39.98
839.225	40.64
839.398	39.64
839.57	37.94
839.743	37.64
839.916	37.48
840.088	37.08
840.261	38.79
840.434	37.48
840.607	38.55
840.779	39.94
840.952	41.46
841.124	40.19
841.297	42.37
841.47	42.23
841.642	42.03
841.815	42.34
841.987	42.51
842.16	39.72
842.332	42.36
842.505	41.53
842.677	41.99
842.85	40.61
843.022	43.45
843.194	42.55
843.367	43.24
843.539	44.54
843.712	43.01
843.884	45.97
844.056	49.01
844.229	47.69
844.401	46.74
844.573	44.95
844.745	45.16
844.918	41.93
845.09	42.38
845.262	42.76
845.434	43.18
845.606	45.74
845.779	43.89
845.951	42.53
846.123	43.45
846.295	41.81
846.467	44.53
846.639	46.3
846.811	47.72
846.983	48.94
847.155	51.24
847.327	51.16
847.499	51.84
847.671	52.8
847.843	53.11
848.015	51.38
848.187	53.39
848.359	52.02
848.531	50.48
848.703	49.42
848.875	47.99
849.047	47.32
849.218	46.86
849.39	46.94
849.562	43.67
849.734	43.16
849.905	42.94
850.077	43.26
850.249	43.13
850.421	43.27
850.592	46.66
850.764	47.18
850.936	47.39
851.107	46.75
851.279	48.61
851.451	49.8
851.622	49.11
851.794	48.06
851.965	52.67
852.137	50.26
852.308	52.11
852.48	47.79
852.651	45.44
852.823	45.69
852.994	43.4
853.166	41.27
853.337	41.96
853.509	43.26
853.68	47.71
853.851	43.9
854.023	46.26
854.194	44.55
854.365	45.44
854.537	46.42
854.708	45.88
854.879	48.26
855.05	47.81
855.222	45.26
855.393	48.66
855.564	47
855.735	48.6
855.906	47.43
856.078	48.41
856.249	53.82
856.42	54.96
856.591	51.56
856.762	53.04
856.933	53.94
857.104	58.11
857.275	58.89
857.446	59.31
857.617	56.84
857.788	59.71
857.959	54.88
858.13	51.26
858.301	48.91
858.472	51.25
858.643	50.55
858.814	48.64
858.985	47.87
859.155	45.96
859.326	45.8
859.497	47.07
859.668	46.28
859.839	53.68
860.009	54.89
860.18	52.42
860.351	51.79
860.522	53.75
860.692	55.86
860.863	58.13
861.034	57.85
861.204	58.65
861.375	57.98
861.546	57.93
861.716	52.63
861.887	51.07
862.057	57.43
862.228	61.12
862.398	61.19
862.569	59.73
862.739	59.93
862.91	59.65
863.08	56.42
863.251	57.36
863.421	59.67
863.592	61.44
863.762	65.91
863.932	65.6
864.103	65.16
864.273	63.05
864.443	65.54
864.614	57.69
864.784	58.7
864.954	60.18
865.125	58.54
865.295	53.13
865.465	51.97
865.635	48.58
865.805	44.75
865.976	43.72
866.146	42.98
866.316	42.48
866.486	43.5
866.656	43.41
866.826	46.39
866.996	48.76
867.166	49.13
867.336	50.87
867.506	54.96
867.676	58.64
867.846	55.45
868.016	54.54
868.186	50.57
868.356	53.7
868.526	50.77
868.696	50.19
868.866	50
869.036	56.02
869.206	55.33
869.376	53.39
869.545	51.72
869.715	52.89
869.885	53.09
870.055	57.04
870.224	61.52
870.394	63.65
870.564	62.36
870.734	63.11
870.903	56.67
871.073	56.92
871.243	56.85
871.412	56.91
871.582	57.52
871.751	61.46
871.921	58.78
872.091	54.68
872.26	54.34
872.43	52.26
872.599	49.63
872.769	52.27
872.938	54.68
873.108	52.17
873.277	50.31
873.446	49.46
873.616	48.76
873.785	48.38
873.955	47.36
874.124	47.17
874.293	51.25
874.463	51.59
874.632	50.73
874.801	52.56
874.971	54.6
875.14	54.33
875.309	55.07
875.478	53.56
875.647	57.53
875.817	58.02
875.986	57.84
876.155	53.26
876.324	50.92
876.493	50.62
876.662	49.17
876.831	47.59
877	48.09
877.17	48.41
877.339	50.34
877.508	45.54
877.677	49.29
877.846	48.1
878.015	48.62
878.184	50.89
878.352	49.3
878.521	44.38
878.69	44.17
878.859	44.47
879.028	44.34
879.197	42.1
879.366	43.11
879.534	39.08
879.703	38.71
879.872	38.95
880.041	38.64
880.21	37.66
880.378	36.91
880.547	35.35
880.716	35.07
880.884	34.16
881.053	32.69
881.222	31.56
881.39	30.81
881.559	30.03
881.727	30.04
881.896	29.61
882.065	29.63
882.233	29.46
882.402	29.01
882.57	29.02
882.739	28.28
882.907	28.71
883.076	29.34
883.244	29.37
883.412	29.6
883.581	29.2
883.749	29.1
883.918	28.96
884.086	28.83
884.254	28.98
884.423	29.58
884.591	30.21
884.759	30.25
884.927	30.18
885.096	30.93
885.264	30.36
885.432	30.29
885.6	31.08
885.769	31.37
885.937	32.06
886.105	36.04
886.273	34.96
886.441	36.48
886.609	35.95
886.777	36.35
886.945	36.35
887.113	38.23
887.281	37.87
887.449	38.97
887.617	39.28
887.785	42.26
887.953	36.53
888.121	37.19
888.289	37.8
888.457	36.77
888.625	38.51
888.793	39.83
888.961	41.69
889.129	46.04
889.296	47.42
889.464	48.56
889.632	46.88
889.8	51.33
889.967	50.79
890.135	52.04
