Data from 2938763__Reflection_02.txt Node
Date: Fri Mar 13 16:41:37 EDT 2015
User: robert
Spectrometer: USB4E03002
Autoset integration time: false
Trigger mode: 4
Integration Time (sec): 1.000000E-1
Scans to average: 10
Electric dark correction enabled: false
Nonlinearity correction enabled: false
Boxcar width: 5
Stray light correction enabled: false
XAxis mode: Wavelengths
Stop averaging: false
Number of Pixels in Spectrum: 3648
>>>>>Begin Spectral Data<<<<<
177.575	-856.25
177.794	-4576.92
178.014	-639.74
178.233	-359.74
178.452	-239.91
178.672	-173.02
178.891	-78.92
179.11	-62.35
179.33	-97.89
179.549	-233.33
179.768	-198.64
179.987	-208.4
180.207	-145.2
180.426	-201.29
180.645	-617.78
180.864	-2709.52
181.084	876.4
181.303	1006.9
181.522	349.12
181.741	501.37
181.96	697.87
182.179	360.62
182.398	311.57
182.618	248.54
182.837	188.53
183.056	266.02
183.275	305.86
183.494	206.09
183.713	164.11
183.932	150.52
184.151	147.51
184.37	137.43
184.589	103.34
184.808	125.25
185.027	125.08
185.246	110.19
185.465	97.94
185.684	108.02
185.903	171.75
186.122	208.52
186.341	265.6
186.56	1021.28
186.779	615.32
186.998	-236.32
187.216	-653.03
187.435	348.41
187.654	-2960
187.873	-334
188.092	8883.33
188.311	421.57
188.53	152
188.748	207.19
188.967	196.33
189.186	104.79
189.405	145.42
189.623	165.31
189.842	268.2
190.061	454.25
190.28	291.45
190.498	429.63
190.717	345.87
190.936	522.7
191.154	409.17
191.373	395.13
191.592	362.12
191.81	314.71
192.029	482
192.248	601.71
192.466	187.61
192.685	167.77
192.904	191.45
193.122	195.44
193.341	171.03
193.559	341.24
193.778	527.14
193.996	1729.63
194.215	-960.98
194.433	1324.14
194.652	-350.7
194.87	-92.39
195.089	-1731.58
195.307	698.21
195.526	-1805.88
195.744	507.92
195.963	218.18
196.181	133.68
196.399	155.78
196.618	199.16
196.836	192.24
197.055	173.15
197.273	216.6
197.491	243.88
197.71	173.83
197.928	161.73
198.146	162.05
198.365	155.04
198.583	173.22
198.801	152.54
199.019	139.63
199.238	174.97
199.456	164.64
199.674	146.54
199.892	138.44
200.111	172.81
200.329	170.87
200.547	185.22
200.765	252.97
200.983	282.62
201.202	318.39
201.42	281.22
201.638	186.21
201.856	241.36
202.074	196.64
202.292	226.36
202.51	156.13
202.728	172.28
202.946	141.67
203.165	142.15
203.383	123.69
203.601	88.78
203.819	128.75
204.037	158.79
204.255	131.06
204.473	96.66
204.691	106.11
204.909	101.98
205.127	104.7
205.345	132.5
205.562	131.94
205.78	162.86
205.998	190.95
206.216	241.18
206.434	165.23
206.652	206.2
206.87	398.23
207.088	321.35
207.306	1207.94
207.523	643.48
207.741	521.97
207.959	358.12
208.177	433.06
208.395	198.24
208.612	117.7
208.83	166.26
209.048	167.1
209.266	145.53
209.483	155.13
209.701	144.39
209.919	187.59
210.136	188.34
210.354	234.15
210.572	214.54
210.79	229.56
211.007	231.89
211.225	202.37
211.442	228.15
211.66	210.73
211.878	179.01
212.095	187.41
212.313	137.29
212.53	128.48
212.748	100.95
212.966	103.96
213.183	107.01
213.401	136.66
213.618	111.66
213.836	86.79
214.053	80.34
214.271	65.76
214.488	73.58
214.705	132.88
214.923	116.03
215.14	96.92
215.358	98.05
215.575	81.29
215.793	70.83
216.01	85
216.227	88.36
216.445	79.94
216.662	64.47
216.879	48.17
217.097	49.72
217.314	56.19
217.531	62.67
217.749	50.14
217.966	54.12
218.183	53.85
218.4	46.63
218.618	47.43
218.835	58.05
219.052	65.73
219.269	74.72
219.487	79.73
219.704	67.59
219.921	67.92
220.138	67.34
220.355	56
220.572	43.59
220.79	46.58
221.007	52.1
221.224	43.16
221.441	47.65
221.658	42.79
221.875	35.03
222.092	40.47
222.309	46.75
222.526	59.52
222.743	55.36
222.96	54.32
223.177	58.2
223.394	53.95
223.611	52.56
223.828	50.38
224.045	52.65
224.262	43.52
224.479	39.2
224.696	30.18
224.913	21.53
225.13	20.82
225.347	21.64
225.564	14.05
225.781	10.83
225.997	12.54
226.214	12.91
226.431	13.4
226.648	12.2
226.865	10.03
227.082	11.2
227.298	11.99
227.515	12.09
227.732	11.47
227.949	10.81
228.165	10.73
228.382	8.86
228.599	8.24
228.816	8.56
229.032	9.05
229.249	9.86
229.466	10.18
229.682	10.63
229.899	10.14
230.116	10.04
230.332	10.86
230.549	11.64
230.765	12.78
230.982	13.25
231.199	12.09
231.415	13.32
231.632	13.46
231.848	13.4
232.065	13.42
232.281	16.62
232.498	16.35
232.714	15.66
232.931	14.69
233.147	15.14
233.364	15.63
233.58	16.26
233.797	13.31
234.013	12.73
234.23	12.17
234.446	10.63
234.662	9.58
234.879	11.88
235.095	11.14
235.312	10.28
235.528	7.66
235.744	5.92
235.961	6.59
236.177	10.33
236.393	11.15
236.61	11.6
236.826	13.12
237.042	12.08
237.258	11.89
237.475	13.61
237.691	15.06
237.907	16.02
238.123	19.4
238.339	19.07
238.556	18.21
238.772	17.26
238.988	16.18
239.204	15.2
239.42	14.64
239.636	13.18
239.853	13.1
240.069	12.03
240.285	12.1
240.501	10.06
240.717	9.99
240.933	10.16
241.149	10.17
241.365	9.79
241.581	9.92
241.797	10.52
242.013	10.5
242.229	9.97
242.445	10.01
242.661	10.35
242.877	10.77
243.093	10.07
243.309	9.38
243.525	9.43
243.741	10.29
243.957	10.09
244.173	9.75
244.388	9.83
244.604	10.05
244.82	10.62
245.036	10.68
245.252	10.21
245.468	10.42
245.683	10.85
245.899	10.51
246.115	9.89
246.331	9.85
246.547	9.78
246.762	9.2
246.978	9.46
247.194	8.98
247.409	8.66
247.625	8.65
247.841	8.8
248.057	8.25
248.272	8.06
248.488	7.53
248.703	7.32
248.919	6.92
249.135	7.16
249.35	6.71
249.566	6.79
249.782	6.39
249.997	5.79
250.213	5.61
250.428	6.44
250.644	7.43
250.859	8.26
251.075	8.01
251.29	8.07
251.506	8.08
251.721	7.77
251.937	7.22
252.152	7.53
252.368	7.88
252.583	8.07
252.798	8.17
253.014	8.04
253.229	8.49
253.445	9.15
253.66	10.18
253.875	10.03
254.091	10.18
254.306	11.25
254.521	12.24
254.737	12.87
254.952	11.45
255.167	11.16
255.383	9.8
255.598	9.28
255.813	7.84
256.028	7.72
256.244	7.1
256.459	6.87
256.674	6.18
256.889	6.07
257.104	6
257.32	6.82
257.535	6.28
257.75	6.4
257.965	6.77
258.18	7.18
258.395	6.69
258.61	6.93
258.826	6.96
259.041	6.5
259.256	6.2
259.471	6.09
259.686	6.09
259.901	6.19
260.116	6.3
260.331	6.12
260.546	6.04
260.761	5.93
260.976	6.03
261.191	5.9
261.406	6.41
261.621	6.53
261.836	6.63
262.05	6.77
262.265	6.97
262.48	7.14
262.695	7.36
262.91	8.18
263.125	8.51
263.34	9.09
263.555	9.28
263.769	9.71
263.984	9.18
264.199	8.51
264.414	8.47
264.629	8.62
264.843	8.46
265.058	8.45
265.273	7.83
265.488	7.73
265.702	7.49
265.917	7.71
266.132	7.64
266.346	8.21
266.561	8.6
266.776	8.55
266.99	8.02
267.205	7.88
267.42	7.7
267.634	7.73
267.849	7.46
268.063	7.32
268.278	6.92
268.492	6.26
268.707	5.83
268.922	5.82
269.136	5.78
269.351	5.84
269.565	6.16
269.78	6.28
269.994	5.94
270.209	6.12
270.423	6.1
270.637	6.18
270.852	6.21
271.066	6.3
271.281	6.51
271.495	6.39
271.709	6.43
271.924	5.97
272.138	5.88
272.353	5.66
272.567	5.45
272.781	5.39
272.996	5.37
273.21	5.59
273.424	5.35
273.638	4.94
273.853	4.67
274.067	5.14
274.281	5.45
274.495	4.92
274.71	4.87
274.924	4.97
275.138	4.53
275.352	4.66
275.566	4.53
275.781	4.9
275.995	4.95
276.209	5.36
276.423	4.72
276.637	4.85
276.851	5.35
277.065	5.34
277.279	5.08
277.493	5.01
277.707	5.28
277.921	5.14
278.135	5.09
278.349	4.78
278.563	4.97
278.777	5.42
278.991	5.25
279.205	5.33
279.419	5.59
279.633	6.42
279.847	6.67
280.061	6.59
280.275	6.56
280.489	6.37
280.703	6.61
280.917	6.25
281.131	5.85
281.344	5.39
281.558	5.19
281.772	5.31
281.986	4.89
282.2	4.88
282.414	4.6
282.627	4.81
282.841	4.87
283.055	4.89
283.269	4.86
283.482	4.74
283.696	5.27
283.91	5.31
284.123	5.12
284.337	4.99
284.551	5.17
284.764	5.24
284.978	5.33
285.192	5.25
285.405	5.52
285.619	5.64
285.833	5.76
286.046	5.86
286.26	5.65
286.473	6.02
286.687	6.37
286.9	6.21
287.114	6.11
287.327	5.86
287.541	5.9
287.754	5.84
287.968	6.08
288.181	6.12
288.395	5.75
288.608	6.18
288.822	5.98
289.035	5.66
289.248	5.75
289.462	6.23
289.675	6.1
289.889	6.44
290.102	6.2
290.315	5.99
290.529	6.12
290.742	6.37
290.955	6.14
291.169	6.16
291.382	6.28
291.595	5.92
291.808	5.69
292.022	5.95
292.235	5.69
292.448	5.92
292.661	5.89
292.875	6.18
293.088	6.21
293.301	6.39
293.514	6.47
293.727	6.41
293.94	6.83
294.153	7.09
294.367	6.96
294.58	7.04
294.793	7.01
295.006	7.24
295.219	6.84
295.432	6.9
295.645	6.78
295.858	7.01
296.071	7.11
296.284	7.27
296.497	7.32
296.71	7.44
296.923	7.48
297.136	7.57
297.349	7.56
297.562	7.66
297.775	7.47
297.988	7.74
298.201	7.53
298.414	7.72
298.626	7.72
298.839	7.69
299.052	7.64
299.265	7.66
299.478	7.61
299.691	7.74
299.903	7.99
300.116	8.14
300.329	8.23
300.542	8.37
300.755	8.18
300.967	7.96
301.18	8.26
301.393	8.82
301.605	8.7
301.818	8.58
302.031	8.3
302.243	8.3
302.456	8.58
302.669	8.57
302.881	8.62
303.094	8.97
303.307	9.25
303.519	8.78
303.732	8.65
303.944	9
304.157	9.22
304.37	9.41
304.582	9.56
304.795	9.35
305.007	9.62
305.22	9.88
305.432	9.59
305.645	10.11
305.857	10.36
306.069	10.42
306.282	10.11
306.494	10.24
306.707	10.49
306.919	10.53
307.132	10.52
307.344	10.14
307.556	10.05
307.769	10.76
307.981	10.39
308.193	10.25
308.406	10.22
308.618	10.55
308.83	10.48
309.043	10.26
309.255	10.22
309.467	10.16
309.679	10.13
309.892	10.46
310.104	9.94
310.316	10.14
310.528	10.13
310.74	10.06
310.953	10.06
311.165	10.13
311.377	10.21
311.589	10.17
311.801	10.41
312.013	10.57
312.225	10.44
312.437	10.8
312.649	10.54
312.862	10.71
313.074	10.9
313.286	10.85
313.498	10.87
313.71	10.66
313.922	11.07
314.134	10.82
314.346	11.02
314.558	11.09
314.77	11.18
314.982	10.87
315.193	10.87
315.405	10.74
315.617	10.7
315.829	10.75
316.041	11.28
316.253	10.66
316.465	11.36
316.677	11.4
316.888	11.35
317.1	11.27
317.312	11.91
317.524	11.9
317.736	12.12
317.947	12.25
318.159	12.54
318.371	12.45
318.583	12.89
318.794	12.72
319.006	12.69
319.218	12.67
319.43	12.33
319.641	12.24
319.853	12.66
320.064	12.43
320.276	12.88
320.488	12.48
320.699	12.45
320.911	12.66
321.123	12.52
321.334	12.43
321.546	12.3
321.757	13.13
321.969	13.32
322.18	13.31
322.392	13.5
322.603	13.37
322.815	14.22
323.026	14.29
323.238	13.7
323.449	13.85
323.661	13.97
323.872	14.13
324.083	13.84
324.295	13.99
324.506	13.84
324.718	14.05
324.929	14.09
325.14	13.59
325.352	13.89
325.563	14.21
325.774	14.41
325.986	14.59
326.197	14.74
326.408	14.66
326.62	14.84
326.831	15.24
327.042	15.51
327.253	15.44
327.464	15.91
327.676	15.95
327.887	16.58
328.098	16.59
328.309	16.78
328.52	17
328.732	17.23
328.943	17.3
329.154	17.15
329.365	17.39
329.576	18.13
329.787	18.21
329.998	18.53
330.209	18.36
330.42	18.81
330.631	19.12
330.842	19.03
331.053	19.51
331.264	19.67
331.475	20.09
331.686	20.2
331.897	20.06
332.108	20.06
332.319	19.94
332.53	19.97
332.741	20.1
332.952	20.13
333.163	20.34
333.374	20.37
333.585	20.74
333.795	20.51
334.006	20.71
334.217	20.84
334.428	21.16
334.639	21.57
334.849	21.71
335.06	21.65
335.271	21.73
335.482	21.97
335.692	21.71
335.903	21.56
336.114	21.82
336.325	21.7
336.535	21.72
336.746	21.48
336.957	21.24
337.167	21.4
337.378	21.59
337.589	21.55
337.799	21.52
338.01	21.9
338.22	21.64
338.431	21.85
338.642	21.85
338.852	21.82
339.063	21.95
339.273	22.25
339.484	22.19
339.694	22.11
339.905	22
340.115	21.97
340.326	21.72
340.536	21.79
340.746	21.63
340.957	21.32
341.167	21.23
341.378	21.12
341.588	20.8
341.799	20.58
342.009	20.29
342.219	20.31
342.43	20.12
342.64	20.4
342.85	20.46
343.061	20.38
343.271	20.4
343.481	20.55
343.691	20.88
343.902	21.11
344.112	21.36
344.322	21.31
344.532	21.4
344.743	21.68
344.953	21.4
345.163	21.39
345.373	21.26
345.583	21.39
345.793	21.46
346.004	21.24
346.214	20.99
346.424	20.88
346.634	21.08
346.844	21.22
347.054	20.91
347.264	20.95
347.474	21.01
347.684	21.11
347.894	21.11
348.104	20.97
348.314	20.98
348.524	20.8
348.734	20.87
348.944	20.66
349.154	20.36
349.364	20.46
349.574	20.4
349.784	20.32
349.994	20.16
350.204	19.96
350.413	19.89
350.623	19.96
350.833	20.18
351.043	20.21
351.253	20.28
351.463	20.13
351.672	19.94
351.882	19.99
352.092	19.85
352.302	19.94
352.511	20.07
352.721	20.02
352.931	19.85
353.141	19.61
353.35	19.53
353.56	19.62
353.77	19.8
353.979	19.97
354.189	20.1
354.399	20.55
354.608	20.88
354.818	20.87
355.027	21.08
355.237	21.1
355.447	21.27
355.656	21.09
355.866	21
356.075	20.94
356.285	20.9
356.494	20.82
356.704	20.42
356.913	20.13
357.123	20.07
357.332	19.81
357.542	19.91
357.751	19.99
357.96	20.18
358.17	19.94
358.379	20.1
358.589	20.01
358.798	19.91
359.007	19.96
359.217	19.89
359.426	20.01
359.635	20.06
359.845	20
360.054	19.99
360.263	19.61
360.472	19.64
360.682	19.52
360.891	19.27
361.1	19.4
361.309	19.39
361.519	19.43
361.728	19.27
361.937	19.09
362.146	19.03
362.355	18.96
362.564	19.02
362.774	19.05
362.983	19.02
363.192	19.07
363.401	18.85
363.61	18.71
363.819	18.74
364.028	18.61
364.237	18.62
364.446	18.62
364.655	18.25
364.864	18.4
365.073	18.19
365.282	18.22
365.491	18.5
365.7	18.51
365.909	18.53
366.118	18.26
366.327	18.27
366.536	18.38
366.745	18.3
366.954	18.47
367.162	18.29
367.371	18.49
367.58	18.49
367.789	18.38
367.998	18.41
368.207	18.49
368.415	18.42
368.624	18.48
368.833	18.06
369.042	17.89
369.25	17.76
369.459	17.65
369.668	17.55
369.877	17.13
370.085	16.86
370.294	16.62
370.503	16.37
370.711	16.37
370.92	16.12
371.129	16.41
371.337	16.29
371.546	16.29
371.754	16.15
371.963	15.96
372.171	16.09
372.38	15.96
372.589	15.9
372.797	15.88
373.006	15.82
373.214	15.93
373.423	15.91
373.631	15.93
373.84	15.79
374.048	16
374.256	16.06
374.465	15.89
374.673	15.79
374.882	15.99
375.09	15.95
375.298	15.88
375.507	15.8
375.715	15.8
375.923	15.75
376.132	15.77
376.34	15.47
376.548	15.38
376.757	15.27
376.965	15.39
377.173	15.12
377.381	15.03
377.59	15.12
377.798	15.26
378.006	14.98
378.214	14.9
378.423	14.9
378.631	15
378.839	14.77
379.047	14.8
379.255	14.78
379.463	14.89
379.671	14.65
379.879	14.46
380.088	14
380.296	14.14
380.504	13.98
380.712	13.94
380.92	13.72
381.128	13.79
381.336	13.8
381.544	13.74
381.752	13.51
381.96	13.61
382.168	13.51
382.376	13.47
382.584	13.08
382.791	13.22
382.999	13.06
383.207	13.14
383.415	13.04
383.623	12.9
383.831	12.66
384.039	12.7
384.247	12.6
384.454	12.84
384.662	12.89
384.87	13.02
385.078	13.03
385.285	12.95
385.493	12.9
385.701	12.84
385.909	12.76
386.116	12.8
386.324	12.71
386.532	12.67
386.739	12.44
386.947	12.57
387.155	12.43
387.362	12.27
387.57	12.18
387.778	11.99
387.985	11.86
388.193	11.86
388.4	11.89
388.608	11.88
388.816	11.84
389.023	11.8
389.231	11.65
389.438	11.76
389.646	11.68
389.853	11.73
390.061	11.84
390.268	11.94
390.475	11.98
390.683	12.1
390.89	12.04
391.098	12.21
391.305	12
391.512	12.03
391.72	11.92
391.927	11.85
392.135	11.72
392.342	11.66
392.549	11.7
392.756	11.53
392.964	11.35
393.171	11.27
393.378	11.09
393.586	11.16
393.793	11.04
394	11.19
394.207	11.17
394.414	11.15
394.622	11.14
394.829	11.11
395.036	11.16
395.243	11.01
395.45	11.04
395.657	11.2
395.864	11.26
396.072	11.23
396.279	11.01
396.486	10.96
396.693	11.06
396.9	11.07
397.107	10.99
397.314	10.87
397.521	10.71
397.728	10.59
397.935	10.36
398.142	10.21
398.349	10.22
398.556	9.93
398.763	10.05
398.97	9.9
399.177	9.89
399.383	9.98
399.59	10
399.797	10.12
400.004	10.04
400.211	9.95
400.418	10.04
400.625	9.94
400.831	10.26
401.038	10
401.245	10.11
401.452	9.96
401.658	9.83
401.865	9.83
402.072	9.78
402.279	9.92
402.485	9.84
402.692	9.81
402.899	9.77
403.105	9.8
403.312	9.92
403.519	9.81
403.725	9.78
403.932	9.72
404.138	9.73
404.345	9.83
404.552	9.7
404.758	9.77
404.965	9.65
405.171	9.54
405.378	9.37
405.584	9.5
405.791	9.44
405.997	9.56
406.204	9.48
406.41	9.49
406.617	9.59
406.823	9.69
407.029	9.69
407.236	9.65
407.442	9.59
407.649	9.79
407.855	9.59
408.061	9.64
408.268	9.58
408.474	9.53
408.68	9.53
408.887	9.43
409.093	9.44
409.299	9.54
409.505	9.69
409.712	9.82
409.918	9.69
410.124	9.73
410.33	9.71
410.537	9.52
410.743	9.61
410.949	9.44
411.155	9.17
411.361	9.14
411.567	8.91
411.773	8.82
411.98	8.76
412.186	8.73
412.392	8.61
412.598	8.51
412.804	8.69
413.01	8.62
413.216	9
413.422	9.25
413.628	9.23
413.834	9.28
414.04	9.26
414.246	9.29
414.452	9.15
414.658	9
414.864	9.01
415.07	8.94
415.275	9
415.481	8.81
415.687	8.77
415.893	8.71
416.099	8.8
416.305	8.65
416.511	8.73
416.716	8.71
416.922	8.81
417.128	8.72
417.334	8.7
417.539	8.66
417.745	8.69
417.951	8.7
418.157	8.67
418.362	8.63
418.568	8.74
418.774	8.69
418.979	8.68
419.185	8.67
419.391	8.77
419.596	8.73
419.802	8.71
420.008	8.64
420.213	8.61
420.419	8.65
420.624	8.61
420.83	8.54
421.035	8.47
421.241	8.5
421.446	8.46
421.652	8.48
421.857	8.49
422.063	8.55
422.268	8.5
422.474	8.49
422.679	8.4
422.885	8.38
423.09	8.4
423.295	8.36
423.501	8.31
423.706	8.36
423.911	8.31
424.117	8.25
424.322	8.07
424.527	8.16
424.733	8.13
424.938	8.12
425.143	8
425.349	8.06
425.554	8.14
425.759	8.12
425.964	8.05
426.169	8.05
426.375	8.05
426.58	8.11
426.785	8.01
426.99	8.04
427.195	8.07
427.4	8.27
427.605	8.1
427.811	7.98
428.016	8.09
428.221	8.14
428.426	8.07
428.631	8.1
428.836	8.23
429.041	8.23
429.246	8.28
429.451	8.25
429.656	8.19
429.861	8.3
430.066	8.41
430.271	8.33
430.476	8.31
430.681	8.4
430.886	8.41
431.09	8.35
431.295	8.38
431.5	8.28
431.705	8.3
431.91	8.29
432.115	8.18
432.32	8.1
432.524	8.12
432.729	8.02
432.934	7.95
433.139	7.97
433.343	7.91
433.548	7.84
433.753	7.83
433.958	7.81
434.162	7.92
434.367	7.99
434.572	8
434.776	8.04
434.981	8.05
435.186	8.03
435.39	8.05
435.595	8.15
435.799	8.12
436.004	8.13
436.209	8.11
436.413	8.03
436.618	7.99
436.822	7.99
437.027	8.01
437.231	8.11
437.436	8.17
437.64	8.2
437.845	8.19
438.049	8.19
438.253	8.15
438.458	8.17
438.662	8.14
438.867	8.07
439.071	8.08
439.275	8.02
439.48	7.98
439.684	8.04
439.888	8.02
440.093	7.98
440.297	8.01
440.501	8.08
440.706	7.99
440.91	7.99
441.114	8.09
441.318	8.1
441.523	8.06
441.727	8.12
441.931	8.09
442.135	8.01
442.339	8.06
442.543	8.02
442.748	7.98
442.952	8.04
443.156	8.11
443.36	8.1
443.564	8.18
443.768	8.26
443.972	8.27
444.176	8.25
444.38	8.37
444.584	8.35
444.788	8.31
444.992	8.3
445.196	8.37
445.4	8.28
445.604	8.23
445.808	8.14
446.012	8.12
446.216	8.06
446.42	8
446.624	7.95
446.828	7.91
447.032	8.01
447.235	7.97
447.439	7.88
447.643	7.89
447.847	7.86
448.051	7.88
448.254	7.88
448.458	7.83
448.662	7.85
448.866	7.76
449.069	7.82
449.273	7.77
449.477	7.82
449.681	7.85
449.884	7.87
450.088	7.91
450.292	7.95
450.495	7.8
450.699	7.81
450.902	7.87
451.106	7.98
451.31	7.88
451.513	7.93
451.717	7.94
451.92	7.92
452.124	7.82
452.327	7.79
452.531	7.75
452.734	7.88
452.938	7.86
453.141	7.9
453.345	7.77
453.548	7.85
453.752	7.83
453.955	7.77
454.158	7.77
454.362	7.84
454.565	7.84
454.769	7.81
454.972	7.7
455.175	7.77
455.379	7.64
455.582	7.69
455.785	7.62
455.988	7.65
456.192	7.61
456.395	7.61
456.598	7.61
456.801	7.56
457.005	7.59
457.208	7.67
457.411	7.75
457.614	7.77
457.817	7.86
458.021	7.88
458.224	7.81
458.427	7.85
458.63	7.91
458.833	7.94
459.036	8.05
459.239	8.09
459.442	8.02
459.645	7.98
459.848	7.98
460.051	7.93
460.254	7.93
460.457	7.9
460.66	7.88
460.863	7.91
461.066	7.87
461.269	7.81
461.472	7.84
461.675	7.97
461.878	7.95
462.081	8.03
462.284	8.08
462.486	8
462.689	8.1
462.892	8.14
463.095	8.13
463.298	8.16
463.5	8.15
463.703	8.15
463.906	8.07
464.109	8.06
464.311	8.04
464.514	7.94
464.717	7.97
464.92	7.9
465.122	7.97
465.325	7.87
465.528	7.88
465.73	7.85
465.933	7.8
466.135	7.8
466.338	7.79
466.541	7.68
466.743	7.83
466.946	7.96
467.148	8.08
467.351	8.03
467.553	8
467.756	8.12
467.958	8.19
468.161	8.18
468.363	8.15
468.566	8.15
468.768	8.26
468.971	8.19
469.173	8.16
469.375	7.98
469.578	8.03
469.78	8.02
469.983	7.93
470.185	8
470.387	8.02
470.59	8.03
470.792	8.15
470.994	8.24
471.196	8.33
471.399	8.37
471.601	8.39
471.803	8.31
472.005	8.43
472.208	8.41
472.41	8.35
472.612	8.34
472.814	8.41
473.016	8.36
473.218	8.16
473.421	8.03
473.623	8.03
473.825	8.09
474.027	8.09
474.229	8.06
474.431	8.05
474.633	8.1
474.835	8.06
475.037	8.02
475.239	7.93
475.441	8
475.643	8.01
475.845	7.9
476.047	7.8
476.249	7.82
476.451	7.87
476.653	7.84
476.855	7.82
477.057	7.91
477.258	7.93
477.46	7.99
477.662	8.01
477.864	8.03
478.066	8.1
478.268	8.15
478.469	8.14
478.671	8.05
478.873	8.02
479.075	8.01
479.276	7.88
479.478	7.89
479.68	7.91
479.882	7.87
480.083	7.87
480.285	7.83
480.487	7.84
480.688	7.85
480.89	7.84
481.091	7.88
481.293	7.86
481.495	7.94
481.696	7.92
481.898	7.92
482.099	7.95
482.301	7.92
482.502	7.91
482.704	7.91
482.905	7.87
483.107	7.83
483.308	7.81
483.51	7.81
483.711	7.78
483.913	7.78
484.114	7.74
484.315	7.72
484.517	7.73
484.718	7.7
484.92	7.7
485.121	7.72
485.322	7.75
485.524	7.78
485.725	7.8
485.926	7.79
486.127	7.8
486.329	7.81
486.53	7.83
486.731	7.81
486.932	7.84
487.134	7.82
487.335	7.83
487.536	7.82
487.737	7.8
487.938	7.76
488.139	7.8
488.341	7.78
488.542	7.77
488.743	7.8
488.944	7.81
489.145	7.85
489.346	7.86
489.547	7.83
489.748	7.82
489.949	7.89
490.15	7.89
490.351	7.87
490.552	7.9
490.753	7.92
490.954	7.88
491.155	7.89
491.356	7.9
491.557	7.89
491.758	7.92
491.959	7.93
492.159	7.88
492.36	7.91
492.561	7.96
492.762	7.94
492.963	7.94
493.164	7.96
493.364	7.92
493.565	7.89
493.766	7.92
493.967	7.88
494.167	7.92
494.368	8.02
494.569	7.99
494.769	7.97
494.97	7.97
495.171	8
495.371	8.07
495.572	8.16
495.773	8.18
495.973	8.18
496.174	8.27
496.375	8.22
496.575	8.09
496.776	8.1
496.976	8.16
497.177	8.23
497.377	8.21
497.578	8.16
497.778	8.22
497.979	8.19
498.179	8.27
498.38	8.32
498.58	8.43
498.78	8.45
498.981	8.5
499.181	8.48
499.382	8.51
499.582	8.58
499.782	8.65
499.983	8.64
500.183	8.73
500.383	8.7
500.584	8.68
500.784	8.73
500.984	8.82
501.184	8.9
501.385	8.89
501.585	8.84
501.785	8.87
501.985	8.88
502.185	8.9
502.386	8.99
502.586	8.98
502.786	9.06
502.986	9.02
503.186	9.17
503.386	9.18
503.586	9.29
503.786	9.35
503.987	9.47
504.187	9.54
504.387	9.58
504.587	9.6
504.787	9.62
504.987	9.65
505.187	9.78
505.387	9.78
505.587	9.88
505.786	9.9
505.986	10.03
506.186	10.02
506.386	10.12
506.586	10.22
506.786	10.26
506.986	10.39
507.186	10.46
507.386	10.47
507.585	10.52
507.785	10.53
507.985	10.51
508.185	10.54
508.384	10.68
508.584	10.71
508.784	10.77
508.984	10.82
509.183	10.84
509.383	10.88
509.583	10.98
509.782	11.01
509.982	11.05
510.182	11.2
510.381	11.23
510.581	11.23
510.781	11.3
510.98	11.32
511.18	11.42
511.379	11.49
511.579	11.58
511.778	11.62
511.978	11.68
512.177	11.75
512.377	11.92
512.576	11.99
512.776	11.98
512.975	12
513.175	12.04
513.374	12.1
513.573	12.15
513.773	12.16
513.972	12.27
514.172	12.39
514.371	12.57
514.57	12.53
514.77	12.61
514.969	12.73
515.168	12.85
515.367	12.95
515.567	13.1
515.766	13.26
515.965	13.5
516.164	13.57
516.364	13.67
516.563	13.69
516.762	13.84
516.961	13.99
517.16	14.16
517.359	14.29
517.559	14.44
517.758	14.52
517.957	14.59
518.156	14.71
518.355	14.82
518.554	14.9
518.753	15.04
518.952	15.09
519.151	15.23
519.35	15.33
519.549	15.42
519.748	15.46
519.947	15.59
520.146	15.75
520.345	15.73
520.544	15.85
520.743	16.01
520.942	16.18
521.141	16.29
521.339	16.39
521.538	16.53
521.737	16.67
521.936	16.98
522.135	17.09
522.333	17.24
522.532	17.43
522.731	17.6
522.93	17.66
523.129	17.73
523.327	17.93
523.526	18.02
523.725	18.11
523.923	18.27
524.122	18.29
524.321	18.42
524.519	18.42
524.718	18.54
524.917	18.68
525.115	18.84
525.314	18.95
525.512	19.04
525.711	19.22
525.909	19.39
526.108	19.44
526.306	19.55
526.505	19.67
526.703	19.87
526.902	19.99
527.1	20.06
527.299	20.13
527.497	20.22
527.696	20.36
527.894	20.41
528.092	20.43
528.291	20.5
528.489	20.6
528.688	20.65
528.886	20.69
529.084	20.74
529.283	20.81
529.481	20.86
529.679	20.92
529.877	20.93
530.076	21.05
530.274	21.15
530.472	21.27
530.67	21.34
530.869	21.5
531.067	21.64
531.265	21.77
531.463	21.93
531.661	22.1
531.859	22.21
532.057	22.33
532.255	22.35
532.454	22.45
532.652	22.52
532.85	22.59
533.048	22.67
533.246	22.74
533.444	22.83
533.642	22.85
533.84	22.89
534.038	22.98
534.236	23.11
534.434	23.15
534.632	23.25
534.83	23.34
535.027	23.46
535.225	23.5
535.423	23.59
535.621	23.65
535.819	23.75
536.017	23.87
536.215	23.91
536.412	23.92
536.61	24.05
536.808	24.1
537.006	24.17
537.203	24.22
537.401	24.37
537.599	24.54
537.797	24.68
537.994	24.78
538.192	24.83
538.39	24.96
538.587	25.08
538.785	25.21
538.983	25.37
539.18	25.49
539.378	25.55
539.575	25.59
539.773	25.64
539.97	25.72
540.168	25.84
540.366	25.95
540.563	26.01
540.761	26.08
540.958	26.1
541.155	26.15
541.353	26.22
541.55	26.27
541.748	26.3
541.945	26.34
542.143	26.38
542.34	26.41
542.537	26.49
542.735	26.56
542.932	26.67
543.129	26.82
543.327	26.89
543.524	27.01
543.721	27.2
543.919	27.35
544.116	27.52
544.313	27.72
544.51	27.95
544.708	28.12
544.905	28.32
545.102	28.5
545.299	28.61
545.496	28.88
545.693	29
545.891	28.97
546.088	29.02
546.285	29.03
546.482	28.99
546.679	28.96
546.876	28.95
547.073	28.9
547.27	28.78
547.467	28.73
547.664	28.55
547.861	28.46
548.058	28.46
548.255	28.41
548.452	28.44
548.649	28.43
548.846	28.39
549.043	28.3
549.24	28.31
549.437	28.44
549.633	28.42
549.83	28.38
550.027	28.32
550.224	28.34
550.421	28.42
550.618	28.34
550.814	28.32
551.011	28.24
551.208	28.29
551.405	28.36
551.601	28.25
551.798	28.29
551.995	28.38
552.191	28.42
552.388	28.38
552.585	28.26
552.781	28.26
552.978	28.27
553.175	28.27
553.371	28.21
553.568	28.18
553.764	28.2
553.961	28.18
554.157	28.16
554.354	28.22
554.55	28.38
554.747	28.47
554.943	28.44
555.14	28.53
555.336	28.46
555.533	28.48
555.729	28.45
555.926	28.48
556.122	28.58
556.318	28.53
556.515	28.56
556.711	28.45
556.907	28.42
557.104	28.45
557.3	28.45
557.496	28.51
557.693	28.6
557.889	28.62
558.085	28.66
558.281	28.62
558.478	28.6
558.674	28.64
558.87	28.71
559.066	28.79
559.262	28.83
559.459	28.74
559.655	28.75
559.851	28.73
560.047	28.77
560.243	28.79
560.439	28.79
560.635	28.77
560.831	28.66
561.027	28.73
561.223	28.75
561.419	28.71
561.615	28.74
561.811	28.83
562.007	28.79
562.203	28.83
562.399	28.84
562.595	28.91
562.791	29.11
562.987	29.24
563.183	29.27
563.379	29.34
563.575	29.38
563.771	29.43
563.966	29.5
564.162	29.48
564.358	29.4
564.554	29.42
564.75	29.46
564.945	29.37
565.141	29.33
565.337	29.27
565.533	29.25
565.728	29.23
565.924	29.21
566.12	29.2
566.315	29.23
566.511	29.25
566.707	29.22
566.902	29.11
567.098	29.05
567.293	29.02
567.489	29.01
567.684	29
567.88	29.18
568.076	29.18
568.271	29.15
568.467	29.25
568.662	29.28
568.858	29.3
569.053	29.39
569.248	29.44
569.444	29.42
569.639	29.44
569.835	29.31
570.03	29.18
570.225	29.23
570.421	29.32
570.616	29.37
570.812	29.28
571.007	29.25
571.202	29.17
571.397	29.19
571.593	29.24
571.788	29.17
571.983	29.28
572.178	29.32
572.374	29.29
572.569	29.12
572.764	29.03
572.959	29.11
573.154	29.13
573.35	29.12
573.545	29.14
573.74	29.16
573.935	29.14
574.13	29.16
574.325	29.09
574.52	29.1
574.715	29.28
574.91	29.34
575.105	29.39
575.3	29.37
575.495	29.42
575.69	29.44
575.885	29.45
576.08	29.64
576.275	29.71
576.47	29.92
576.665	29.97
576.86	30.09
577.055	30.19
577.25	30.29
577.444	30.48
577.639	30.64
577.834	30.8
578.029	31.01
578.224	31.05
578.418	31.06
578.613	31.07
578.808	31.1
579.003	31
579.197	31.02
579.392	31.06
579.587	31.19
579.781	31.21
579.976	31.15
580.171	31.1
580.365	31.03
580.56	31.17
580.755	31.16
580.949	31.19
581.144	31.16
581.338	31.1
581.533	31.21
581.727	31.07
581.922	31.06
582.116	31.08
582.311	31.12
582.505	31.29
582.7	31.28
582.894	31.19
583.089	31.18
583.283	31.29
583.478	31.48
583.672	31.4
583.866	31.47
584.061	31.46
584.255	31.44
584.449	31.48
584.644	31.5
584.838	31.45
585.032	31.7
585.226	31.95
585.421	31.95
585.615	31.92
585.809	32
586.003	32.18
586.198	32.21
586.392	32.32
586.586	32.32
586.78	32.28
586.974	32.47
587.168	32.43
587.363	32.29
587.557	32.25
587.751	32.28
587.945	32.09
588.139	31.99
588.333	32
588.527	31.97
588.721	31.92
588.915	31.71
589.109	31.46
589.303	31.4
589.497	31.33
589.691	31.39
589.885	31.39
590.079	31.48
590.273	31.45
590.466	31.61
590.66	31.7
590.854	31.78
591.048	32.02
591.242	32.26
591.436	32.25
591.629	32.53
591.823	32.62
592.017	32.56
592.211	32.6
592.404	32.55
592.598	32.44
592.792	32.48
592.986	32.33
593.179	32.34
593.373	32.17
593.567	32.23
593.76	32.03
593.954	32.02
594.147	31.99
594.341	31.97
594.535	31.96
594.728	31.88
594.922	31.8
595.115	31.88
595.309	31.86
595.502	31.85
595.696	31.75
595.889	31.8
596.083	31.74
596.276	31.76
596.47	31.72
596.663	31.88
596.856	32.03
597.05	32.02
597.243	32.16
597.437	31.99
597.63	32.04
597.823	32.07
598.017	32.04
598.21	32.08
598.403	32.23
598.596	32.33
598.79	32.25
598.983	32.17
599.176	32.26
599.369	32.13
599.563	32.27
599.756	32.39
599.949	32.46
600.142	32.64
600.335	32.54
600.528	32.27
600.722	32.34
600.915	32.34
601.108	32.43
601.301	32.39
601.494	32.32
601.687	32.45
601.88	32.36
602.073	32.37
602.266	32.17
602.459	32.34
602.652	32.36
602.845	32.21
603.038	32.18
603.231	32.11
603.424	32.07
603.617	32.19
603.809	32.14
604.002	32.08
604.195	32.16
604.388	32.25
604.581	32.24
604.774	32.33
604.966	32.54
605.159	32.51
605.352	32.46
605.545	32.49
605.737	32.4
605.93	32.47
606.123	32.51
606.316	32.53
606.508	32.41
606.701	32.59
606.894	32.7
607.086	32.69
607.279	32.8
607.471	33.06
607.664	33.22
607.857	33.5
608.049	33.67
608.242	34.01
608.434	34.49
608.627	35.14
608.819	35.55
609.012	36.18
609.204	36.88
609.397	37.73
609.589	38.6
609.782	39.53
609.974	40.48
610.166	41.51
610.359	42.51
610.551	43.26
610.743	43.9
610.936	44.51
611.128	45
611.32	45.34
611.513	45.47
611.705	45.39
611.897	45.19
612.09	44.94
612.282	44.54
612.474	44.08
612.666	43.47
612.858	43.05
613.051	42.54
613.243	41.99
613.435	41.49
613.627	41.17
613.819	40.9
614.011	40.56
614.203	40.26
614.395	39.79
614.588	39.41
614.78	39
614.972	38.83
615.164	38.52
615.356	38.27
615.548	38.05
615.74	37.72
615.932	37.32
616.124	37.04
616.315	36.66
616.507	36.47
616.699	36.15
616.891	36.05
617.083	35.62
617.275	35.52
617.467	35.21
617.659	34.91
617.85	34.64
618.042	34.48
618.234	34.47
618.426	34.51
618.618	34.56
618.809	34.67
619.001	34.56
619.193	34.71
619.384	34.65
619.576	34.69
619.768	34.93
619.959	35.01
620.151	35.02
620.343	35.02
620.534	34.87
620.726	34.79
620.917	35.04
621.109	35.11
621.301	35.1
621.492	34.79
621.684	35
621.875	35
622.067	35.09
622.258	35.12
622.45	35.14
622.641	35.22
622.832	35.25
623.024	34.89
623.215	34.96
623.407	34.85
623.598	35.26
623.789	35.07
623.981	35.06
624.172	35
624.363	35.05
624.555	35.04
624.746	35.08
624.937	35.05
625.129	35.08
625.32	35.05
625.511	35.12
625.702	34.76
625.893	34.77
626.085	34.67
626.276	34.58
626.467	34.47
626.658	34.41
626.849	34.39
627.04	34.45
627.231	34.42
627.422	34.34
627.614	34.21
627.805	34.38
627.996	34.52
628.187	34.49
628.378	34.65
628.569	34.78
628.76	34.91
628.951	35.19
629.142	35.24
629.332	35.29
629.523	35.42
629.714	35.64
629.905	35.74
630.096	35.74
630.287	36.08
630.478	36.11
630.669	36.13
630.859	36.12
631.05	35.78
631.241	35.67
631.432	35.57
631.623	35.55
631.813	35.49
632.004	35.41
632.195	35.03
632.385	34.49
632.576	34.25
632.767	34.21
632.957	34.07
633.148	34.14
633.339	34.05
633.529	34.03
633.72	33.97
633.91	33.95
634.101	33.61
634.292	33.85
634.482	33.98
634.673	33.91
634.863	33.84
635.054	33.66
635.244	33.32
635.435	33.35
635.625	33.49
635.815	33.53
636.006	33.28
636.196	33.46
636.387	33.34
636.577	33.6
636.767	33.72
636.958	33.81
637.148	34.1
637.338	34.39
637.529	34.16
637.719	34.15
637.909	34.17
638.099	34.33
638.29	34.45
638.48	34.35
638.67	34.04
638.86	34.13
639.05	33.96
639.241	34.07
639.431	34.05
639.621	34.13
639.811	34.19
640.001	34.36
640.191	34.46
640.381	34.6
640.571	34.84
640.761	34.94
640.951	34.86
641.141	34.81
641.331	34.38
641.521	34.4
641.711	34.61
641.901	34.6
642.091	34.35
642.281	34.39
642.471	34.4
642.661	34.51
642.851	34.53
643.041	34.66
643.231	34.81
643.42	35.05
643.61	34.9
643.8	34.72
643.99	34.59
644.18	34.64
644.369	34.46
644.559	34.33
644.749	34.1
644.939	34.26
645.128	34.02
645.318	34.1
645.508	34.09
645.697	34.31
645.887	34.34
646.076	34.37
646.266	34.36
646.456	34.39
646.645	34.35
646.835	34.51
647.024	34.39
647.214	34.4
647.403	34.31
647.593	34.5
647.782	34.35
647.972	34.36
648.161	34.33
648.351	34.3
648.54	34.39
648.73	34.42
648.919	34.34
649.108	34.35
649.298	34.6
649.487	34.64
649.677	34.73
649.866	34.97
650.055	34.99
650.244	34.94
650.434	35.23
650.623	35.27
650.812	35.31
651.002	35.36
651.191	35.45
651.38	35.29
651.569	35.34
651.758	35.32
651.947	35.04
652.137	35.26
652.326	35.38
652.515	35.07
652.704	34.91
652.893	34.84
653.082	34.72
653.271	34.72
653.46	34.68
653.649	34.58
653.838	34.46
654.027	34.77
654.216	34.68
654.405	34.63
654.594	34.69
654.783	34.53
654.972	34.49
655.161	34.46
655.35	34.31
655.539	34.48
655.728	34.64
655.916	34.75
656.105	34.62
656.294	34.59
656.483	34.89
656.672	35.03
656.86	35.3
657.049	35.39
657.238	35.43
657.427	35.36
657.615	35.47
657.804	35.41
657.993	35.09
658.181	35
658.37	34.95
658.559	34.65
658.747	34.56
658.936	34.4
659.125	34.29
659.313	34.22
659.502	34.32
659.69	34.09
659.879	34.13
660.067	34.19
660.256	34.22
660.444	34.23
660.633	34.38
660.821	34.46
661.01	34.69
661.198	34.77
661.387	34.76
661.575	34.69
661.763	34.93
661.952	34.67
662.14	34.95
662.328	35.33
662.517	35.41
662.705	35.29
662.893	35.39
663.082	35
663.27	35.34
663.458	35.75
663.646	36.01
663.834	36.06
664.023	36.15
664.211	36.32
664.399	35.83
664.587	35.69
664.775	35.9
664.963	35.78
665.152	36.29
665.34	36.38
665.528	35.95
665.716	35.89
665.904	35.77
666.092	35.83
666.28	35.39
666.468	35.43
666.656	35.48
666.844	35.42
667.032	35.51
667.22	35.44
667.408	34.96
667.596	35.12
667.784	34.98
667.971	35
668.159	35.23
668.347	35.43
668.535	35.69
668.723	35.77
668.911	35.76
669.098	35.44
669.286	35.45
669.474	35.58
669.662	35.62
669.849	35.76
670.037	35.64
670.225	35.58
670.413	35.52
670.6	35.45
670.788	35.52
670.976	35.56
671.163	35.77
671.351	35.73
671.538	35.53
671.726	35.31
671.913	35.33
672.101	35.61
672.289	35.57
672.476	35.67
672.664	35.52
672.851	35.46
673.039	35.42
673.226	35.69
673.413	35.58
673.601	35.76
673.788	36.26
673.976	35.78
674.163	35.54
674.35	35.54
674.538	35.52
674.725	35.84
674.912	35.96
675.1	36.08
675.287	35.9
675.474	36.07
675.662	36.43
675.849	36.32
676.036	36.61
676.223	36.62
676.411	36.97
676.598	36.77
676.785	36.47
676.972	36.34
677.159	36.17
677.346	36.21
677.533	36.06
677.721	35.82
677.908	35.62
678.095	35.6
678.282	35.65
678.469	35.28
678.656	35.39
678.843	35.44
679.03	35.4
679.217	35.51
679.404	35.43
679.591	35.44
679.778	35.34
679.964	35.26
680.151	35.35
680.338	35.26
680.525	35.23
680.712	35.28
680.899	35.31
681.086	35.38
681.272	35.16
681.459	35.03
681.646	35.08
681.833	35.27
682.02	35.41
682.206	35.31
682.393	35.35
682.58	35.44
682.766	35.43
682.953	35.37
683.14	35.37
683.326	35.74
683.513	35.9
683.7	36.1
683.886	35.83
684.073	35.82
684.259	36.15
684.446	36.33
684.632	36.52
684.819	36.52
685.005	36.62
685.192	36.73
685.378	36.58
685.565	36.63
685.751	36.51
685.938	36.61
686.124	36.59
686.31	36.34
686.497	36.21
686.683	36.06
686.87	35.85
687.056	35.5
687.242	35.18
687.429	35.02
687.615	34.9
687.801	34.91
687.987	34.78
688.174	34.62
688.36	34.68
688.546	34.67
688.732	34.68
688.918	34.75
689.105	35.13
689.291	35.28
689.477	35.51
689.663	35.73
689.849	35.71
690.035	36.09
690.221	36.45
690.407	36.75
690.593	36.92
690.779	36.88
690.965	36.91
691.151	37
691.337	37.44
691.523	37.41
691.709	37.35
691.895	37.33
692.081	37.36
692.267	37.49
692.453	37.45
692.639	37.4
692.825	37.39
693.011	37.52
693.196	37.43
693.382	37.08
693.568	36.94
693.754	37.01
693.94	37.19
694.125	36.77
694.311	36.41
694.497	36.2
694.682	35.8
694.868	35.65
695.054	35.77
695.239	35.74
695.425	35.58
695.611	35.86
695.796	35.73
695.982	35.6
696.168	35.3
696.353	35.39
696.539	35.4
696.724	35.83
696.91	36.13
697.095	35.89
697.281	35.72
697.466	35.77
697.652	35.42
697.837	35.16
698.023	35.06
698.208	35.47
698.393	35.45
698.579	35.36
698.764	35.07
698.949	34.69
699.135	34.89
699.32	34.89
699.505	34.94
699.691	35.02
699.876	35.25
700.061	35.37
700.246	35.26
700.432	34.95
700.617	35.05
700.802	35.1
700.987	35.26
701.172	35.17
701.358	35.34
701.543	35.47
701.728	35.47
701.913	35.11
702.098	34.94
702.283	35.25
702.468	35.69
702.653	35.7
702.838	35.86
703.023	36.06
703.208	36.11
703.393	36.26
703.578	36.24
703.763	36.54
703.948	36.94
704.133	37.48
704.318	37.02
704.503	37.22
704.688	37.84
704.873	38.41
705.057	38.9
705.242	39.31
705.427	39.35
705.612	39.69
705.797	40.13
705.981	40.38
706.166	40.43
706.351	41.2
706.536	41.09
706.72	40.79
706.905	40.6
707.09	40.41
707.274	40.41
707.459	40.35
707.644	40.34
707.828	40.13
708.013	40.47
708.197	40.17
708.382	39.66
708.567	39.78
708.751	40.01
708.936	39.87
709.12	39.93
709.305	39.8
709.489	40.09
709.673	40.05
709.858	39.83
710.042	39.86
710.227	40.12
710.411	40.39
710.596	40.39
710.78	39.99
710.964	40.09
711.149	40.06
711.333	39.81
711.517	39.54
711.702	39.53
711.886	39.56
712.07	39.07
712.254	39.06
712.438	38.81
712.623	38.4
712.807	38.37
712.991	38.32
713.175	37.95
713.359	38
713.544	37.94
713.728	37.67
713.912	37.46
714.096	37.58
714.28	37.14
714.464	36.69
714.648	36.95
714.832	36.76
715.016	36.83
715.2	37.05
715.384	36.72
715.568	36.36
715.752	35.98
715.936	35.87
716.12	35.56
716.304	35.7
716.488	35.91
716.671	35.66
716.855	35.57
717.039	35.27
717.223	35.12
717.407	35.37
717.59	35.68
717.774	36.16
717.958	36.46
718.142	36.41
718.325	35.94
718.509	36.02
718.693	36.11
718.877	36.6
719.06	36.46
719.244	36.49
719.428	36.69
719.611	36.47
719.795	36.4
719.978	35.98
720.162	36.11
720.345	36.53
720.529	37
720.713	36.95
720.896	36.63
721.08	36.61
721.263	36.67
721.446	36.55
721.63	36.77
721.813	36.86
721.997	37.17
722.18	37.24
722.364	37.01
722.547	37.09
722.73	37.11
722.914	37.56
723.097	37.49
723.28	37.64
723.464	37.29
723.647	36.79
723.83	36.96
724.013	36.97
724.197	37.32
724.38	37.78
724.563	37.57
724.746	37.92
724.929	37.78
725.112	37.74
725.296	37.63
725.479	37.86
725.662	37.99
725.845	37.37
726.028	37.12
726.211	36.75
726.394	36.51
726.577	35.81
726.76	35.5
726.943	35.08
727.126	35.18
727.309	34.64
727.492	34.56
727.675	34.84
727.858	34.82
728.041	34.89
728.224	35.04
728.407	34.58
728.589	34.84
728.772	35.02
728.955	35.68
729.138	36.02
729.321	36.73
729.503	36.73
729.686	36.59
729.869	36.97
730.052	36.9
730.234	37.1
730.417	37.63
730.6	37.9
730.782	37.67
730.965	37.21
731.148	37.15
731.33	36.76
731.513	36.59
731.695	36.47
731.878	36.58
732.061	36.66
732.243	36.62
732.426	36.18
732.608	35.89
732.791	36.12
732.973	36.04
733.156	35.91
733.338	36.25
733.52	36.45
733.703	36.72
733.885	36.12
734.068	35.93
734.25	35.86
734.432	36.14
734.615	36.68
734.797	36.73
734.979	36.7
735.162	36.49
735.344	36.11
735.526	35.79
735.708	35.58
735.891	36.39
736.073	36.83
736.255	36.34
736.437	36.62
736.619	36.25
736.802	35.62
736.984	36.05
737.166	36.23
737.348	36.18
737.53	37.17
737.712	37.55
737.894	37.19
738.076	36.61
738.258	37.18
738.44	36.98
738.622	36.82
738.804	37.42
738.986	37.45
739.168	37.74
739.35	37.93
739.532	37.31
739.714	37.38
739.896	37.16
740.078	38.22
740.259	38.1
740.441	38.23
740.623	38.57
740.805	38.58
740.987	38.51
741.168	38.29
741.35	38.49
741.532	38.63
741.714	38.75
741.895	38.6
742.077	38.04
742.259	37.79
742.44	37.48
742.622	37.41
742.804	37.32
742.985	36.71
743.167	37.01
743.348	36.28
743.53	36.76
743.711	36.16
743.893	37.13
744.075	37.02
744.256	37.15
744.438	37.21
744.619	37.22
744.8	37.34
744.982	38.38
745.163	38.51
745.345	39.27
745.526	38.57
745.707	38.7
745.889	38.17
746.07	38.36
746.252	38
746.433	38.33
746.614	38.33
746.795	38.83
746.977	38.62
747.158	38.32
747.339	38.28
747.52	38.57
747.702	38.56
747.883	38.11
748.064	38.34
748.245	38.47
748.426	39.04
748.607	38.65
748.788	38.28
748.97	37.86
749.151	37.84
749.332	38
749.513	38.47
749.694	38.7
749.875	38.87
750.056	38.26
750.237	38.42
750.418	38.07
750.599	38.04
750.78	38
750.96	38.26
751.141	38.54
751.322	38.27
751.503	38.2
751.684	38.4
751.865	38.57
752.046	38.85
752.226	39.02
752.407	39.26
752.588	39.85
752.769	40.02
752.949	39.14
753.13	39.32
753.311	39.26
753.492	39.28
753.672	39.03
753.853	39.71
754.034	39.67
754.214	40.06
754.395	39.46
754.575	38.73
754.756	38.63
754.937	39.49
755.117	39.54
755.298	39.73
755.478	38.77
755.659	39.05
755.839	38.43
756.02	38.38
756.2	37.53
756.381	37.36
756.561	37.83
756.741	37.65
756.922	37.56
757.102	36.88
757.283	36.4
757.463	36.5
757.643	36.44
757.823	36.12
758.004	36.21
758.184	36.05
758.364	36.42
758.545	36.35
758.725	36.39
758.905	36.33
759.085	36.28
759.265	36.16
759.446	35.6
759.626	35.73
759.806	35.37
759.986	35.49
760.166	35.98
760.346	35.78
760.526	36.47
760.706	36.32
760.886	35.96
761.066	36.01
761.246	36.32
761.426	36.92
761.606	36.51
761.786	37.2
761.966	36.83
762.146	36.53
762.326	36.79
762.506	35.94
762.686	35.51
762.866	35.71
763.046	35.72
763.225	35.35
763.405	35.4
763.585	35.36
763.765	34.97
763.945	35.11
764.124	35.15
764.304	34.46
764.484	34.96
764.664	35.6
764.843	35.56
765.023	35.72
765.203	35.88
765.382	35.86
765.562	36.18
765.741	36.3
765.921	36.54
766.101	36.87
766.28	38.15
766.46	38.02
766.639	36.96
766.819	37.28
766.998	37.63
767.178	38.36
767.357	38.82
767.537	38.17
767.716	38.72
767.896	38.72
768.075	38.67
768.254	37.61
768.434	38.57
768.613	39.86
768.792	39.61
768.972	39.04
769.151	39.38
769.33	39.09
769.51	40.39
769.689	40.4
769.868	40.74
770.047	41.63
770.226	42.19
770.406	41.88
770.585	42.12
770.764	42.43
770.943	43.03
771.122	42.44
771.301	43.23
771.48	42.94
771.66	43.44
771.839	43.56
772.018	43.27
772.197	43.71
772.376	42.8
772.555	42.89
772.734	42.7
772.913	41.85
773.092	42.66
773.271	41.41
773.449	41.6
773.628	41.09
773.807	40.8
773.986	40.01
774.165	39.82
774.344	40.49
774.523	40.18
774.701	40.62
774.88	42.4
775.059	42.48
775.238	42.59
775.417	41.89
775.595	41.71
775.774	41.88
775.953	42.38
776.131	42.62
776.31	42.47
776.489	41.71
776.667	41.74
776.846	40.6
777.025	39.25
777.203	40.1
777.382	40.96
777.56	41.4
777.739	40.82
777.917	40.52
778.096	40.57
778.274	40.6
778.453	41.6
778.631	41.41
778.81	41.06
778.988	41
779.166	40.79
779.345	40.16
779.523	39.79
779.702	40.39
779.88	41.49
780.058	41.11
780.237	41.2
780.415	40.18
780.593	39.84
780.771	40.34
780.95	41.57
781.128	41.64
781.306	41.8
781.484	41.81
781.662	40.72
781.841	40.1
782.019	39.33
782.197	39.56
782.375	39.63
782.553	39.49
782.731	39.9
782.909	38.74
783.087	39.82
783.265	39.67
783.443	39.4
783.621	40.54
783.799	40.75
783.977	41.3
784.155	41.1
784.333	41.41
784.511	41.94
784.689	41.22
784.867	41.47
785.045	41.11
785.223	40.98
785.4	40.74
785.578	41.14
785.756	40.35
785.934	39.99
786.112	40.32
786.289	40.1
786.467	38.64
786.645	38.73
786.823	38.66
787	37.74
787.178	37.59
787.356	38.1
787.533	36.74
787.711	36.93
787.889	38.06
788.066	37.1
788.244	37.65
788.421	38.05
788.599	38.03
788.776	37.79
788.954	37.71
789.131	36.79
789.309	36.73
789.486	37.31
789.664	37.22
789.841	36.32
790.019	37.22
790.196	36.77
790.373	36.71
790.551	37.41
790.728	38.76
790.906	38.88
791.083	39.78
791.26	40.33
791.437	40.08
791.615	39.06
791.792	39.03
791.969	38.2
792.146	38.41
792.324	39.93
792.501	39.49
792.678	38.95
792.855	38.57
793.032	39.37
793.209	39.05
793.387	39.91
793.564	41.62
793.741	42.3
793.918	43.1
794.095	43.51
794.272	42.22
794.449	43.2
794.626	42.23
794.803	42.92
794.98	42.39
795.157	41.98
795.334	41.49
795.511	41.29
795.688	40.52
795.864	39.04
796.041	39.02
796.218	39.93
796.395	38.91
796.572	39.94
796.749	39.38
796.925	39
797.102	39.18
797.279	40.04
797.456	39.64
797.632	40.29
797.809	41.23
797.986	41.38
798.162	41.02
798.339	40.64
798.516	40.08
798.692	41.07
798.869	41.35
799.046	41.88
799.222	40.81
799.399	40.49
799.575	40.07
799.752	40.91
799.928	40.16
800.105	40.5
800.281	41.07
800.458	40.91
800.634	40.41
800.811	40.56
800.987	40.59
801.163	40.16
801.34	41.24
801.516	42.21
801.692	40.69
801.869	41.05
802.045	40.3
802.221	39.36
802.398	39.96
802.574	40.1
802.75	40.12
802.926	39.23
803.103	40.01
803.279	39.42
803.455	39.16
803.631	39.95
803.807	39.3
803.983	39.69
804.16	39.58
804.336	38.39
804.512	38.24
804.688	37.89
804.864	38.45
805.04	38.03
805.216	36.83
805.392	37.08
805.568	36.29
805.744	36.4
805.92	36.51
806.096	37.97
806.272	39.37
806.448	39.15
806.623	39.06
806.799	38.21
806.975	39.2
807.151	39.99
807.327	39.7
807.503	39.56
807.678	40.75
807.854	40.66
808.03	39.44
808.206	38.86
808.381	39.06
808.557	40.6
808.733	42.6
808.908	41.55
809.084	41.87
809.26	40.74
809.435	41.27
809.611	40.33
809.787	39.71
809.962	39.71
810.138	39.38
810.313	37.51
810.489	36.25
810.664	36.1
810.84	35.86
811.015	35.69
811.191	35.8
811.366	36.43
811.542	37.11
811.717	37.12
811.892	38.27
812.068	38.8
812.243	39.33
812.419	40.07
812.594	38.38
812.769	38.57
812.944	38.51
813.12	39.27
813.295	38.57
813.47	37.24
813.645	36.78
813.821	35.42
813.996	35.58
814.171	36.73
814.346	36.21
814.521	36.92
814.697	37.18
814.872	36.98
815.047	36.72
815.222	36.63
815.397	37.11
815.572	39.18
815.747	40.25
815.922	39.82
816.097	40.84
816.272	41.5
816.447	41.89
816.622	42.03
816.797	43.37
816.972	42.29
817.147	43.89
817.322	44.66
817.496	43.39
817.671	43.67
817.846	42.82
818.021	42.38
818.196	41.03
818.371	39.64
818.545	38.64
818.72	38
818.895	38.06
819.069	36.93
819.244	34.94
819.419	35.01
819.594	34.92
819.768	35.5
819.943	34.17
820.117	33.74
820.292	34.93
820.467	34.81
820.641	33.92
820.816	33.58
820.99	33.16
821.165	33.11
821.339	32.84
821.514	32.07
821.688	32.25
821.863	32.11
822.037	32.07
822.212	31.52
822.386	31.51
822.56	31.66
822.735	31.68
822.909	31.78
823.084	32.03
823.258	31.85
823.432	32.02
823.606	31.73
823.781	31.47
823.955	31.65
824.129	31.64
824.303	31.77
824.478	32.09
824.652	32.32
824.826	32.23
825	32.18
825.174	32.75
825.348	32.5
825.523	32.91
825.697	33.62
825.871	33.82
826.045	34.19
826.219	33.99
826.393	33.54
826.567	33.69
826.741	33.96
826.915	33.88
827.089	33.84
827.263	34.44
827.437	34.2
827.611	34.24
827.784	34.08
827.958	33.81
828.132	33.49
828.306	33.75
828.48	33.1
828.654	33.16
828.827	32.87
829.001	32.85
829.175	32.95
829.349	33.15
829.522	33.32
829.696	34.19
829.87	35.61
830.044	36.63
830.217	37.02
830.391	37.78
830.565	38.3
830.738	40.01
830.912	40.3
831.085	39.21
831.259	40.37
831.432	40.18
831.606	39.18
831.779	38.17
831.953	38.28
832.126	37.59
832.3	36.93
832.473	36.08
832.647	36.56
832.82	36.46
832.994	36.73
833.167	36.29
833.34	35.6
833.514	35.32
833.687	34.56
833.86	33.88
834.034	33.9
834.207	34.52
834.38	34.5
834.553	33.05
834.727	33.35
834.9	33.76
835.073	33.34
835.246	34.89
835.419	35.04
835.593	35.76
835.766	36.09
835.939	36.41
836.112	36.59
836.285	36.17
836.458	37.1
836.631	36.14
836.804	36.1
836.977	36.22
837.15	35.31
837.323	35.54
837.496	36.95
837.669	37.12
837.842	38.19
838.015	37.98
838.188	38.68
838.361	39.01
838.533	38.37
838.706	37.09
838.879	38.22
839.052	38.48
839.225	40.63
839.398	40.15
839.57	40.76
839.743	38.96
839.916	40.21
840.088	41.18
840.261	40.56
840.434	42.99
840.607	44.13
840.779	43.67
840.952	42.65
841.124	40.46
841.297	40.64
841.47	41.46
841.642	42.56
841.815	41.81
841.987	41.85
842.16	43.64
842.332	41.91
842.505	42.42
842.677	42.18
842.85	43.88
843.022	44.72
843.194	43.44
843.367	45.51
843.539	42.57
843.712	44.02
843.884	44.56
844.056	45.25
844.229	44.57
844.401	44.27
844.573	45.36
844.745	44.88
844.918	46.51
845.09	44.79
845.262	40.03
845.434	43.03
845.606	41.47
845.779	40.18
845.951	40.21
846.123	42.29
846.295	42.19
846.467	40.79
846.639	41.65
846.811	41.36
846.983	42.76
847.155	45.7
847.327	43.89
847.499	45.2
847.671	47.46
847.843	48.2
848.015	49.36
848.187	52.68
848.359	54.41
848.531	54.08
848.703	53.18
848.875	51.71
849.047	50.95
849.218	52.47
849.39	52.3
849.562	51.71
849.734	54.43
849.905	52
850.077	48.43
850.249	47.76
850.421	43.7
850.592	48.61
850.764	50.78
850.936	51.89
851.107	54.05
851.279	52.87
851.451	53.56
851.622	47.53
851.794	49.74
851.965	54.07
852.137	53.18
852.308	53.99
852.48	47.91
852.651	47.89
852.823	48.3
852.994	43.3
853.166	44.58
853.337	44.78
853.509	46.61
853.68	46.16
853.851	45.95
854.023	43.71
854.194	45.09
854.365	47.91
854.537	49.68
854.708	52.06
854.879	55.73
855.05	55.54
855.222	55.59
855.393	57.89
855.564	54.48
855.735	49.07
855.906	52.76
856.078	52.7
856.249	52.01
856.42	50.07
856.591	46.74
856.762	48.23
856.933	48.59
857.104	47.21
857.275	44.26
857.446	48.37
857.617	51.64
857.788	49.03
857.959	50.23
858.13	48.15
858.301	49.15
858.472	52.25
858.643	50.06
858.814	50.05
858.985	51.24
859.155	53.8
859.326	53.32
859.497	54.07
859.668	55.88
859.839	61.33
860.009	59.21
860.18	64.56
860.351	64.88
860.522	64.78
860.692	64.46
860.863	64.51
861.034	65.24
861.204	63.47
861.375	61.6
861.546	60.45
861.716	54.95
861.887	54.98
862.057	48.28
862.228	44.39
862.398	42.59
862.569	43.61
862.739	41.07
862.91	41.54
863.08	41.92
863.251	43.93
863.421	38.93
863.592	39.16
863.762	43.03
863.932	43.29
864.103	44.3
864.273	46.19
864.443	48.06
864.614	47.86
864.784	43.46
864.954	42.93
865.125	44.96
865.295	56.1
865.465	51.95
865.635	49.11
865.805	50.51
865.976	47.48
866.146	45.19
866.316	44.33
866.486	47.73
866.656	52.56
866.826	55.08
866.996	56.03
867.166	57.57
867.336	63.1
867.506	66.99
867.676	66.06
867.846	70.24
868.016	76.55
868.186	73.83
868.356	73.51
868.526	71.16
868.696	71.18
868.866	62.42
869.036	50.99
869.206	46.59
869.376	42.99
869.545	48.44
869.715	46.16
869.885	42
870.055	42.02
870.224	39.07
870.394	44.14
870.564	39.84
870.734	42.25
870.903	48.7
871.073	48.26
871.243	51.15
871.412	48.05
871.582	47.75
871.751	51.31
871.921	51.24
872.091	52.61
872.26	45.96
872.43	49.7
872.599	47.76
872.769	51.5
872.938	54.68
873.108	49.97
873.277	50.2
873.446	48.5
873.616	44.4
873.785	48.82
873.955	46.07
874.124	46.56
874.293	47.49
874.463	46.68
874.632	41.89
874.801	37.81
874.971	42.95
875.14	44.42
875.309	42.77
875.478	41.96
875.647	39.92
875.817	45.33
875.986	45.66
876.155	44.87
876.324	49.41
876.493	50.33
876.662	51.26
876.831	53.69
877	50.88
877.17	55
877.339	58.14
877.508	55.35
877.677	50.54
877.846	50.37
878.015	47.69
878.184	44.65
878.352	43.82
878.521	47.53
878.69	43.14
878.859	44.38
879.028	44.59
879.197	43.53
879.366	44.04
879.534	43.75
879.703	42.07
879.872	45.89
880.041	46.18
880.21	42.64
880.378	41.03
880.547	39.12
880.716	36.33
880.884	34.53
881.053	33.63
881.222	32.81
881.39	32.83
881.559	33.4
881.727	31.8
881.896	31.57
882.065	31.36
882.233	30.98
882.402	31
882.57	30.94
882.739	30.96
882.907	30.96
883.076	30.82
883.244	30.52
883.412	29.95
883.581	29.92
883.749	29.58
883.918	29.76
884.086	29.97
884.254	29.75
884.423	30.56
884.591	31.5
884.759	31.28
884.927	32.3
885.096	33.35
885.264	34.53
885.432	36.22
885.6	37.57
885.769	38.45
885.937	39.98
886.105	41.99
886.273	44.61
886.441	44.47
886.609	45.86
886.777	47.11
886.945	47.34
887.113	46.62
887.281	44.5
887.449	44.4
887.617	45.65
887.785	45.42
887.953	45.69
888.121	42.69
888.289	42.7
888.457	43.74
888.625	43.16
888.793	42.87
888.961	44.35
889.129	45.02
889.296	48.3
889.464	50.1
889.632	49.34
889.8	48.55
889.967	50.75
890.135	51.39
