Data from 2938842__Reflection_01.txt Node
Date: Wed Mar 11 15:25:58 EDT 2015
User: robert
Spectrometer: USB4E03002
Autoset integration time: false
Trigger mode: 4
Integration Time (sec): 1.000000E-1
Scans to average: 10
Electric dark correction enabled: false
Nonlinearity correction enabled: false
Boxcar width: 5
Stray light correction enabled: false
XAxis mode: Wavelengths
Stop averaging: false
Number of Pixels in Spectrum: 3648
>>>>>Begin Spectral Data<<<<<
177.575	-144.44
177.794	-80.67
178.014	-104.93
178.233	-105.15
178.452	-367.74
178.672	-206.25
178.891	-455.77
179.11	2307.14
179.33	193.82
179.549	135.48
179.768	296.03
179.987	192.86
180.207	55.77
180.426	42.01
180.645	79.33
180.864	74.64
181.084	210.57
181.303	147.83
181.522	117.97
181.741	305
181.96	-85.14
182.179	-140.43
182.398	68
182.618	184.35
182.837	222.77
183.056	61.22
183.275	59.26
183.494	36.03
183.713	-52.24
183.932	116.5
184.151	51.88
184.37	-900
184.589	102.5
184.808	-52
185.027	-88.41
185.246	-121
185.465	-178.4
185.684	-129.1
185.903	-7.61
186.122	-26.84
186.341	-44.26
186.56	-22.92
186.779	-67.16
186.998	-57.26
187.216	-70.25
187.435	9.82
187.654	34.8
187.873	-8.28
188.092	-13.6
188.311	-99.19
188.53	-72.8
188.748	-43.04
188.967	-282.54
189.186	338.69
189.405	216.47
189.623	155.14
189.842	243.67
190.061	2296.15
190.28	380.42
190.498	210.87
190.717	230.35
190.936	165.98
191.154	179.07
191.373	296.13
191.592	-553.09
191.81	-395.54
192.029	-171.36
192.248	-241.61
192.466	-494.44
192.685	-93.6
192.904	-22.7
193.122	-7.02
193.341	-25.82
193.559	-28.96
193.778	-20.51
193.996	-30.98
194.215	-13.84
194.433	-5.93
194.652	-62.07
194.87	-107.32
195.089	-274.81
195.307	-4691.67
195.526	-432.54
195.744	-1067.39
195.963	2231.58
196.181	-265.36
196.399	-320.47
196.618	-142.13
196.836	-55.17
197.055	-2.88
197.273	7.36
197.491	20.8
197.71	51.29
197.928	64.25
198.146	38.85
198.365	49.2
198.583	94.66
198.801	138.12
199.019	42.31
199.238	10.08
199.456	2.22
199.674	-188.68
199.892	66.9
200.111	23.14
200.329	-79.5
200.547	-5.19
200.765	-43.47
200.983	-25.75
201.202	-45.42
201.42	-33.26
201.638	-57.87
201.856	-31.74
202.074	-73.58
202.292	-66.93
202.51	-50.48
202.728	-34.57
202.946	-99.3
203.165	-182.64
203.383	-147.43
203.601	-100
203.819	-19.3
204.037	38.41
204.255	-287.37
204.473	-87.69
204.691	-104.17
204.909	-28.01
205.127	-6.96
205.345	-10.95
205.562	7.44
205.78	16.75
205.998	13.9
206.216	8.03
206.434	-17.83
206.652	9.7
206.87	1.76
207.088	-31.3
207.306	-116.78
207.523	-145.77
207.741	-20.13
207.959	154.24
208.177	109.64
208.395	121.99
208.612	166.78
208.83	243.24
209.048	305.63
209.266	139.75
209.483	133.79
209.701	318.75
209.919	284
210.136	288.89
210.354	-1280
210.572	-527.03
210.79	-202.59
211.007	-3.21
211.225	-43.7
211.442	52.11
211.66	11.53
211.878	40.37
212.095	425.82
212.313	364.86
212.53	359.42
212.748	306.45
212.966	183.85
213.183	144.33
213.401	108.48
213.618	118.76
213.836	124.84
214.053	106.49
214.271	98.47
214.488	-33.19
214.705	-21.78
214.923	21.01
215.14	16.57
215.358	18.8
215.575	-10.84
215.793	-10
216.01	6.87
216.227	-13.01
216.445	-28.91
216.662	-13.88
216.879	0.38
217.097	-4.69
217.314	-15.47
217.531	-0.54
217.749	5.14
217.966	10.18
218.183	10.16
218.4	9.68
218.618	8.78
218.835	1.66
219.052	-7.29
219.269	-17.07
219.487	-8.26
219.704	-16.44
219.921	-28.29
220.138	-31.93
220.355	-25.49
220.572	-28.22
220.79	-30.78
221.007	-29.14
221.224	-21.84
221.441	-33.56
221.658	-28.84
221.875	-32.9
222.092	-30.51
222.309	-29.89
222.526	-23.34
222.743	-28.4
222.96	-27.28
223.177	-20.99
223.394	-12.7
223.611	-22.43
223.828	-10.69
224.045	-11.25
224.262	-6.73
224.479	-8.44
224.696	-2.12
224.913	-4.94
225.13	-7.95
225.347	-9.58
225.564	-13.25
225.781	-17.36
225.997	-9.32
226.214	-3.92
226.431	-3.72
226.648	-5.4
226.865	-3.44
227.082	-3.38
227.298	-3.61
227.515	-0.71
227.732	1.23
227.949	1.07
228.165	1.6
228.382	1.08
228.599	1.19
228.816	1.48
229.032	1.55
229.249	0.54
229.466	0.76
229.682	0.82
229.899	0.32
230.116	-0.72
230.332	-0.27
230.549	-0.7
230.765	-1.27
230.982	-4.36
231.199	-4.92
231.415	-3.85
231.632	-3.69
231.848	-6.19
232.065	-4.56
232.281	-5.07
232.498	-7.23
232.714	-7.62
232.931	-5.61
233.147	-3.69
233.364	-1.73
233.58	-1.4
233.797	-3.98
234.013	-2.63
234.23	-2.02
234.446	-3.24
234.662	-4.89
234.879	-4.03
235.095	-4.23
235.312	-5.08
235.528	-5.69
235.744	-5.58
235.961	-6.29
236.177	-5.9
236.393	-5.8
236.61	-5.06
236.826	-5.31
237.042	-4
237.258	-2.77
237.475	-3.67
237.691	-6.38
237.907	-6.3
238.123	-6.06
238.339	-6.68
238.556	-3.11
238.772	-3.2
238.988	-2.83
239.204	-3.23
239.42	-3.79
239.636	-3.35
239.853	-2.66
240.069	-1.57
240.285	-0.23
240.501	-1.03
240.717	1.48
240.933	0.71
241.149	0.18
241.365	1.01
241.581	1.66
241.797	2.16
242.013	2.67
242.229	2.52
242.445	3.32
242.661	2.61
242.877	3.31
243.093	2.23
243.309	2.05
243.525	2.19
243.741	1.79
243.957	1.47
244.173	1.97
244.388	1.81
244.604	2.42
244.82	1.92
245.036	2.89
245.252	2.81
245.468	3.28
245.683	3.22
245.899	3.89
246.115	3.58
246.331	3.55
246.547	3.7
246.762	3.75
246.978	3.63
247.194	3.57
247.409	3.23
247.625	3.33
247.841	3.21
248.057	3.26
248.272	3.2
248.488	3.4
248.703	3.62
248.919	3.38
249.135	2.68
249.35	2.52
249.566	2.3
249.782	1.97
249.997	0.95
250.213	0.94
250.428	0.7
250.644	0.25
250.859	0.51
251.075	0.12
251.29	-0.05
251.506	0.86
251.721	1.27
251.937	1.06
252.152	1.42
252.368	1.68
252.583	1.95
252.798	1.55
253.014	1.29
253.229	0.49
253.445	0.38
253.66	0.22
253.875	-0.24
254.091	-0.33
254.306	0.08
254.521	-0.59
254.737	-0.94
254.952	-2.32
255.167	-2.16
255.383	-1.26
255.598	-1.17
255.813	-0.87
256.028	-1
256.244	-0.6
256.459	-1.18
256.674	-1.48
256.889	-0.04
257.104	0.25
257.32	0.84
257.535	1.18
257.75	0.95
257.965	1.77
258.18	1.85
258.395	2.19
258.61	2.5
258.826	2.78
259.041	3.02
259.256	3.09
259.471	3.32
259.686	3.43
259.901	3.22
260.116	3.14
260.331	2.96
260.546	2.88
260.761	2.89
260.976	2.63
261.191	2.42
261.406	2.37
261.621	2.15
261.836	2.14
262.05	2.01
262.265	2.09
262.48	1.73
262.695	1.54
262.91	1.11
263.125	0.55
263.34	0.28
263.555	0.19
263.769	0.13
263.984	-0.32
264.199	-0.86
264.414	-0.89
264.629	-0.69
264.843	-0.13
265.058	0.13
265.273	0.57
265.488	0.57
265.702	0.86
265.917	1.08
266.132	0.67
266.346	0.47
266.561	0.77
266.776	0.92
266.99	1.23
267.205	0.87
267.42	0.64
267.634	0.67
267.849	1.18
268.063	1
268.278	1.16
268.492	1.1
268.707	1.13
268.922	1.14
269.136	0.84
269.351	0.66
269.565	1
269.78	1.01
269.994	0.96
270.209	1.14
270.423	1.13
270.637	1.02
270.852	1.27
271.066	1.57
271.281	1.49
271.495	1.69
271.709	1.66
271.924	1.58
272.138	1.6
272.353	1.74
272.567	1.61
272.781	1.82
272.996	1.96
273.21	1.76
273.424	1.73
273.638	1.49
273.853	1.35
274.067	1.12
274.281	1.46
274.495	1.38
274.71	0.78
274.924	0.76
275.138	0.79
275.352	0.63
275.566	0.92
275.781	0.86
275.995	1.26
276.209	1.05
276.423	1.17
276.637	0.77
276.851	0.72
277.065	1.19
277.279	0.66
277.493	0.72
277.707	0.42
277.921	0.42
278.135	-0.06
278.349	-0.01
278.563	0.25
278.777	-0.04
278.991	0.39
279.205	0.52
279.419	0.45
279.633	0.88
279.847	0.81
280.061	1.18
280.275	0.74
280.489	1.17
280.703	0.7
280.917	0.95
281.131	1.34
281.344	1.19
281.558	1.05
281.772	1.55
281.986	1.7
282.2	1.77
282.414	1.51
282.627	1.79
282.841	1.79
283.055	2.21
283.269	1.92
283.482	1.62
283.696	1.42
283.91	1.6
284.123	1.41
284.337	1.23
284.551	1.34
284.764	1.54
284.978	1.27
285.192	1.45
285.405	1.21
285.619	1.28
285.833	1.42
286.046	1.61
286.26	1.79
286.473	1.57
286.687	1.49
286.9	1.27
287.114	1.45
287.327	1.88
287.541	1.42
287.754	1.65
287.968	1.82
288.181	1.78
288.395	1.65
288.608	1.69
288.822	1.59
289.035	1.87
289.248	2.01
289.462	1.88
289.675	1.98
289.889	2.44
290.102	2.38
290.315	2.43
290.529	2.56
290.742	2.56
290.955	2.37
291.169	2.78
291.382	2.88
291.595	3.25
291.808	3.02
292.022	3.1
292.235	3.26
292.448	3.45
292.661	3.34
292.875	3.45
293.088	3.51
293.301	3.87
293.514	3.26
293.727	2.87
293.94	2.57
294.153	2.83
294.367	2.57
294.58	2.3
294.793	2.19
295.006	2.16
295.219	2.23
295.432	2.2
295.645	1.83
295.858	2.35
296.071	2.7
296.284	2.98
296.497	2.91
296.71	3.06
296.923	3.19
297.136	3.18
297.349	3.17
297.562	3.25
297.775	3.37
297.988	3.7
298.201	3.7
298.414	3.76
298.626	3.62
298.839	3.71
299.052	3.8
299.265	3.56
299.478	3.74
299.691	3.98
299.903	3.95
300.116	4.19
300.329	4.37
300.542	4.45
300.755	4.49
300.967	4.45
301.18	4.56
301.393	4.52
301.605	4.75
301.818	4.62
302.031	4.49
302.243	4.4
302.456	3.98
302.669	3.63
302.881	3.86
303.094	3.39
303.307	3.52
303.519	3.5
303.732	3.73
303.944	3.72
304.157	4.1
304.37	4.09
304.582	4.08
304.795	4.52
305.007	4.55
305.22	4.08
305.432	4.33
305.645	4.45
305.857	4.61
306.069	4.47
306.282	4.51
306.494	4.02
306.707	4.56
306.919	4.68
307.132	4.66
307.344	5.07
307.556	5.48
307.769	5.68
307.981	5.45
308.193	5.27
308.406	5.5
308.618	5.58
308.83	5.96
309.043	5.46
309.255	5.41
309.467	5.52
309.679	5.26
309.892	4.96
310.104	4.86
310.316	5
310.528	5.15
310.74	5.06
310.953	5
311.165	4.86
311.377	5.05
311.589	5.21
311.801	4.84
312.013	4.77
312.225	5.22
312.437	5.16
312.649	5.32
312.862	5.03
313.074	5.03
313.286	5.31
313.498	5.25
313.71	5.61
313.922	5.3
314.134	5.62
314.346	5.91
314.558	5.6
314.77	6.05
314.982	5.99
315.193	6.43
315.405	6.13
315.617	5.87
315.829	6.07
316.041	5.4
316.253	5.65
316.465	5.89
316.677	5.91
316.888	5.73
317.1	5.34
317.312	5.24
317.524	5.11
317.736	5.54
317.947	5.9
318.159	6.1
318.371	6.48
318.583	6.33
318.794	6.08
319.006	5.67
319.218	6.06
319.43	6.32
319.641	6.19
319.853	6.31
320.064	5.91
320.276	5.72
320.488	5.45
320.699	5.04
320.911	5.22
321.123	5.17
321.334	5.11
321.546	5.03
321.757	5.47
321.969	5.87
322.18	5.79
322.392	6.07
322.603	6.05
322.815	6.21
323.026	6.8
323.238	6.88
323.449	7.2
323.661	7.57
323.872	7.79
324.083	7.14
324.295	7.29
324.506	7.64
324.718	7.39
324.929	7.6
325.14	7.83
325.352	7.72
325.563	8.03
325.774	8.12
325.986	8.23
326.197	8.37
326.408	8.88
326.62	8.64
326.831	8.61
327.042	9.06
327.253	9.04
327.464	8.94
327.676	9.1
327.887	9.11
328.098	9.06
328.309	9.27
328.52	9.62
328.732	9.5
328.943	9.53
329.154	9.75
329.365	9.9
329.576	10.01
329.787	9.99
329.998	9.93
330.209	9.92
330.42	9.97
330.631	9.82
330.842	9.51
331.053	9.65
331.264	10.09
331.475	10.18
331.686	10.32
331.897	10.15
332.108	10.47
332.319	10.53
332.53	10.62
332.741	10.77
332.952	10.62
333.163	10.42
333.374	10.37
333.585	10.1
333.795	9.8
334.006	9.55
334.217	9.64
334.428	9.32
334.639	9.37
334.849	9.12
335.06	8.97
335.271	9.15
335.482	9.46
335.692	9.16
335.903	9.44
336.114	9.72
336.325	9.95
336.535	9.93
336.746	10.36
336.957	10.37
337.167	10.46
337.378	10.52
337.589	10.68
337.799	10.65
338.01	10.76
338.22	10.25
338.431	9.67
338.642	9.52
338.852	9.57
339.063	9.39
339.273	9.37
339.484	9.31
339.694	9.37
339.905	9.45
340.115	9.19
340.326	9.5
340.536	9.8
340.746	9.98
340.957	9.98
341.167	10.21
341.378	10.25
341.588	10.65
341.799	10.82
342.009	10.72
342.219	10.19
342.43	10.25
342.64	10.37
342.85	10.41
343.061	10.77
343.271	10.81
343.481	10.62
343.691	10.31
343.902	9.95
344.112	9.72
344.322	9.73
344.532	10.03
344.743	9.97
344.953	9.7
345.163	9.51
345.373	9.21
345.583	8.89
345.793	9.01
346.004	9.34
346.214	9.26
346.424	9.49
346.634	9.69
346.844	9.93
347.054	9.94
347.264	9.9
347.474	9.87
347.684	9.95
347.894	10.17
348.104	10.26
348.314	10.08
348.524	10.16
348.734	10.03
348.944	9.7
349.154	9.47
349.364	9.44
349.574	9.21
349.784	9.22
349.994	9.12
350.204	9.31
350.413	9.15
350.623	9.33
350.833	9.11
351.043	9.15
351.253	9.02
351.463	9.08
351.672	9.28
351.882	9.57
352.092	9.7
352.302	9.75
352.511	9.62
352.721	9.45
352.931	9.47
353.141	9.48
353.35	9.48
353.56	9.87
353.77	10.02
353.979	10.05
354.189	10.13
354.399	10.43
354.608	10.32
354.818	10.46
355.027	10.49
355.237	10.28
355.447	10.5
355.656	10.34
355.866	10.09
356.075	9.94
356.285	9.83
356.494	9.68
356.704	9.32
356.913	9.32
357.123	8.99
357.332	8.9
357.542	8.75
357.751	8.72
357.96	8.64
358.17	8.62
358.379	8.52
358.589	8.35
358.798	8.37
359.007	8.48
359.217	8.53
359.426	8.76
359.635	8.69
359.845	8.91
360.054	8.86
360.263	8.85
360.472	9.03
360.682	8.99
360.891	9.11
361.1	9.27
361.309	9.16
361.519	9
361.728	8.88
361.937	9.09
362.146	8.96
362.355	8.94
362.564	8.97
362.774	9.16
362.983	9.01
363.192	8.91
363.401	8.66
363.61	8.83
363.819	8.98
364.028	9.02
364.237	8.85
364.446	8.78
364.655	8.71
364.864	8.88
365.073	8.32
365.282	8.51
365.491	8.58
365.7	8.56
365.909	8.38
366.118	8.31
366.327	8.48
366.536	8.46
366.745	8.63
366.954	8.62
367.162	8.77
367.371	8.77
367.58	8.95
367.789	8.91
367.998	9.05
368.207	9.06
368.415	9.15
368.624	8.72
368.833	8.83
369.042	8.73
369.25	8.59
369.459	8.28
369.668	8.35
369.877	7.98
370.085	7.95
370.294	7.9
370.503	7.93
370.711	7.59
370.92	7.7
371.129	7.6
371.337	7.58
371.546	7.46
371.754	7.38
371.963	7.37
372.171	7.66
372.38	7.6
372.589	7.51
372.797	7.54
373.006	7.46
373.214	7.39
373.423	7.12
373.631	6.89
373.84	6.97
374.048	6.92
374.256	6.58
374.465	6.37
374.673	6.42
374.882	6.53
375.09	6.26
375.298	6.41
375.507	6.41
375.715	6.56
375.923	6.88
376.132	6.86
376.34	6.77
376.548	6.94
376.757	6.9
376.965	6.91
377.173	6.69
377.381	6.9
377.59	6.83
377.798	6.95
378.006	6.9
378.214	6.69
378.423	6.8
378.631	6.81
378.839	6.81
379.047	6.68
379.255	6.58
379.463	6.56
379.671	6.17
379.879	6.29
380.088	6.12
380.296	6.1
380.504	6.16
380.712	5.94
380.92	5.87
381.128	5.94
381.336	6.03
381.544	5.96
381.752	6.31
381.96	6.4
382.168	6.28
382.376	6.39
382.584	6.59
382.791	6.29
382.999	6.46
383.207	6.56
383.415	6.39
383.623	6.25
383.831	6.16
384.039	5.84
384.247	5.72
384.454	5.9
384.662	5.59
384.87	5.21
385.078	5.22
385.285	5.01
385.493	5.07
385.701	5.08
385.909	5.03
386.116	4.98
386.324	5.03
386.532	5.06
386.739	4.87
386.947	5.08
387.155	5.27
387.362	5.36
387.57	5.42
387.778	5.24
387.985	5.15
388.193	5.18
388.4	5.18
388.608	4.96
388.816	4.94
389.023	4.86
389.231	4.83
389.438	4.75
389.646	4.73
389.853	4.72
390.061	4.68
390.268	4.66
390.475	4.53
390.683	4.4
390.89	4.51
391.098	4.49
391.305	4.6
391.512	4.56
391.72	4.64
391.927	4.47
392.135	4.46
392.342	4.55
392.549	4.75
392.756	4.84
392.964	5
393.171	4.86
393.378	4.85
393.586	4.73
393.793	4.64
394	4.55
394.207	4.78
394.414	4.88
394.622	4.72
394.829	4.54
395.036	4.43
395.243	4.43
395.45	4.42
395.657	4.39
395.864	4.46
396.072	4.24
396.279	4.25
396.486	4.14
396.693	4.15
396.9	4.3
397.107	4.27
397.314	4.33
397.521	4.17
397.728	4.05
397.935	3.99
398.142	3.84
398.349	3.95
398.556	3.88
398.763	4.03
398.97	3.88
399.177	3.59
399.383	3.62
399.59	3.49
399.797	3.52
400.004	3.63
400.211	3.82
400.418	3.93
400.625	3.99
400.831	4.01
401.038	3.8
401.245	3.85
401.452	4.05
401.658	3.92
401.865	4.05
402.072	4.1
402.279	4.18
402.485	3.91
402.692	3.95
402.899	3.95
403.105	3.89
403.312	3.87
403.519	3.79
403.725	3.6
403.932	3.57
404.138	3.48
404.345	3.51
404.552	3.44
404.758	3.52
404.965	3.52
405.171	3.56
405.378	3.64
405.584	3.62
405.791	3.49
405.997	3.53
406.204	3.65
406.41	3.63
406.617	3.59
406.823	3.6
407.029	3.64
407.236	3.44
407.442	3.28
407.649	3.13
407.855	3.14
408.061	3.09
408.268	3.14
408.474	2.98
408.68	2.97
408.887	2.9
409.093	2.87
409.299	2.87
409.505	2.98
409.712	3.05
409.918	3.14
410.124	3.15
410.33	3.4
410.537	3.34
410.743	3.44
410.949	3.57
411.155	3.54
411.361	3.53
411.567	3.59
411.773	3.66
411.98	3.85
412.186	3.86
412.392	3.84
412.598	3.62
412.804	3.64
413.01	3.6
413.216	3.36
413.422	3.37
413.628	3.27
413.834	3.19
414.04	3.17
414.246	2.96
414.452	2.91
414.658	3.03
414.864	3.18
415.07	3.06
415.275	3.06
415.481	3.28
415.687	3.44
415.893	3.63
416.099	3.68
416.305	3.67
416.511	3.6
416.716	3.61
416.922	3.67
417.128	3.63
417.334	3.76
417.539	3.82
417.745	3.74
417.951	3.63
418.157	3.61
418.362	3.64
418.568	3.59
418.774	3.78
418.979	3.8
419.185	3.7
419.391	3.73
419.596	3.8
419.802	3.77
420.008	3.82
420.213	3.52
420.419	3.51
420.624	3.46
420.83	3.45
421.035	3.42
421.241	3.44
421.446	3.46
421.652	3.47
421.857	3.4
422.063	3.41
422.268	3.35
422.474	3.64
422.679	3.65
422.885	3.66
423.09	3.69
423.295	3.64
423.501	3.67
423.706	3.69
423.911	3.62
424.117	3.68
424.322	3.65
424.527	3.67
424.733	3.66
424.938	3.7
425.143	3.72
425.349	3.72
425.554	3.69
425.759	3.63
425.964	3.67
426.169	3.75
426.375	3.64
426.58	3.76
426.785	3.78
426.99	3.79
427.195	3.75
427.4	3.68
427.605	3.72
427.811	3.77
428.016	3.76
428.221	3.61
428.426	3.54
428.631	3.58
428.836	3.44
429.041	3.35
429.246	3.28
429.451	3.27
429.656	3.27
429.861	3.26
430.066	3.34
430.271	3.37
430.476	3.3
430.681	3.45
430.886	3.44
431.09	3.44
431.295	3.61
431.5	3.62
431.705	3.57
431.91	3.54
432.115	3.49
432.32	3.4
432.524	3.34
432.729	3.44
432.934	3.51
433.139	3.53
433.343	3.5
433.548	3.45
433.753	3.5
433.958	3.54
434.162	3.67
434.367	3.71
434.572	3.66
434.776	3.78
434.981	3.78
435.186	3.48
435.39	3.49
435.595	3.46
435.799	3.46
436.004	3.37
436.209	3.31
436.413	3.32
436.618	3.21
436.822	3.31
437.027	3.28
437.231	3.24
437.436	3.33
437.64	3.37
437.845	3.38
438.049	3.46
438.253	3.54
438.458	3.58
438.662	3.54
438.867	3.56
439.071	3.49
439.275	3.46
439.48	3.52
439.684	3.58
439.888	3.56
440.093	3.63
440.297	3.59
440.501	3.55
440.706	3.55
440.91	3.54
441.114	3.61
441.318	3.64
441.523	3.7
441.727	3.59
441.931	3.51
442.135	3.48
442.339	3.44
442.543	3.5
442.748	3.56
442.952	3.55
443.156	3.54
443.36	3.53
443.564	3.56
443.768	3.54
443.972	3.61
444.176	3.8
444.38	3.81
444.584	3.8
444.788	3.75
444.992	3.71
445.196	3.68
445.4	3.66
445.604	3.63
445.808	3.65
446.012	3.71
446.216	3.76
446.42	3.64
446.624	3.57
446.828	3.58
447.032	3.55
447.235	3.58
447.439	3.64
447.643	3.58
447.847	3.55
448.051	3.5
448.254	3.41
448.458	3.38
448.662	3.4
448.866	3.48
449.069	3.45
449.273	3.48
449.477	3.45
449.681	3.48
449.884	3.52
450.088	3.57
450.292	3.56
450.495	3.52
450.699	3.44
450.902	3.42
451.106	3.41
451.31	3.39
451.513	3.38
451.717	3.37
451.92	3.24
452.124	3.39
452.327	3.29
452.531	3.27
452.734	3.28
452.938	3.31
453.141	3.32
453.345	3.31
453.548	3.4
453.752	3.38
453.955	3.36
454.158	3.47
454.362	3.33
454.565	3.4
454.769	3.49
454.972	3.57
455.175	3.58
455.379	3.58
455.582	3.56
455.785	3.49
455.988	3.48
456.192	3.52
456.395	3.43
456.598	3.44
456.801	3.44
457.005	3.37
457.208	3.25
457.411	3.26
457.614	3.18
457.817	3.26
458.021	3.35
458.224	3.35
458.427	3.33
458.63	3.38
458.833	3.48
459.036	3.44
459.239	3.48
459.442	3.55
459.645	3.51
459.848	3.62
460.051	3.6
460.254	3.62
460.457	3.63
460.66	3.67
460.863	3.68
461.066	3.57
461.269	3.65
461.472	3.59
461.675	3.54
461.878	3.5
462.081	3.4
462.284	3.37
462.486	3.27
462.689	3.28
462.892	3.25
463.095	3.22
463.298	3.25
463.5	3.22
463.703	3.23
463.906	3.17
464.109	3.22
464.311	3.29
464.514	3.27
464.717	3.24
464.92	3.09
465.122	3.1
465.325	3.23
465.528	3.29
465.73	3.19
465.933	3.15
466.135	3.28
466.338	3.45
466.541	3.36
466.743	3.33
466.946	3.42
467.148	3.57
467.351	3.49
467.553	3.4
467.756	3.36
467.958	3.45
468.161	3.49
468.363	3.49
468.566	3.41
468.768	3.46
468.971	3.52
469.173	3.46
469.375	3.42
469.578	3.51
469.78	3.49
469.983	3.42
470.185	3.4
470.387	3.44
470.59	3.42
470.792	3.41
470.994	3.44
471.196	3.47
471.399	3.47
471.601	3.53
471.803	3.55
472.005	3.55
472.208	3.58
472.41	3.55
472.612	3.52
472.814	3.48
473.016	3.52
473.218	3.54
473.421	3.47
473.623	3.57
473.825	3.64
474.027	3.59
474.229	3.53
474.431	3.56
474.633	3.58
474.835	3.63
475.037	3.65
475.239	3.65
475.441	3.67
475.643	3.74
475.845	3.58
476.047	3.49
476.249	3.52
476.451	3.55
476.653	3.68
476.855	3.67
477.057	3.7
477.258	3.68
477.46	3.58
477.662	3.57
477.864	3.54
478.066	3.63
478.268	3.65
478.469	3.67
478.671	3.71
478.873	3.66
479.075	3.66
479.276	3.61
479.478	3.71
479.68	3.72
479.882	3.75
480.083	3.74
480.285	3.7
480.487	3.69
480.688	3.66
480.89	3.71
481.091	3.62
481.293	3.7
481.495	3.72
481.696	3.66
481.898	3.74
482.099	3.71
482.301	3.72
482.502	3.73
482.704	3.75
482.905	3.76
483.107	3.75
483.308	3.77
483.51	3.75
483.711	3.74
483.913	3.76
484.114	3.71
484.315	3.73
484.517	3.73
484.718	3.73
484.92	3.73
485.121	3.75
485.322	3.74
485.524	3.72
485.725	3.68
485.926	3.67
486.127	3.64
486.329	3.67
486.53	3.65
486.731	3.67
486.932	3.67
487.134	3.65
487.335	3.64
487.536	3.61
487.737	3.62
487.938	3.66
488.139	3.67
488.341	3.68
488.542	3.68
488.743	3.7
488.944	3.71
489.145	3.71
489.346	3.69
489.547	3.71
489.748	3.75
489.949	3.76
490.15	3.75
490.351	3.82
490.552	3.8
490.753	3.82
490.954	3.81
491.155	3.8
491.356	3.83
491.557	3.88
491.758	3.88
491.959	3.87
492.159	3.87
492.36	3.9
492.561	3.84
492.762	3.89
492.963	3.85
493.164	3.84
493.364	3.85
493.565	3.81
493.766	3.84
493.967	3.86
494.167	3.91
494.368	3.91
494.569	3.93
494.769	4.03
494.97	3.97
495.171	3.97
495.371	4.01
495.572	4
495.773	4.07
495.973	3.95
496.174	3.88
496.375	3.9
496.575	3.94
496.776	3.97
496.976	3.89
497.177	3.97
497.377	4.05
497.578	4.05
497.778	4.12
497.979	4.06
498.179	4.17
498.38	4.28
498.58	4.2
498.78	4.16
498.981	4.11
499.181	4.16
499.382	4.13
499.582	4.1
499.782	4.11
499.983	4.06
500.183	4.11
500.383	4.12
500.584	4.07
500.784	4.13
500.984	4.23
501.184	4.24
501.385	4.24
501.585	4.2
501.785	4.2
501.985	4.31
502.185	4.42
502.386	4.49
502.586	4.48
502.786	4.53
502.986	4.66
503.186	4.69
503.386	4.66
503.586	4.73
503.786	4.89
503.987	4.91
504.187	4.91
504.387	4.92
504.587	4.88
504.787	4.9
504.987	4.89
505.187	4.88
505.387	4.87
505.587	5.01
505.786	5.09
505.986	5.12
506.186	5.22
506.386	5.25
506.586	5.2
506.786	5.24
506.986	5.45
507.186	5.51
507.386	5.58
507.585	5.72
507.785	5.81
507.985	5.8
508.185	5.83
508.384	5.86
508.584	5.87
508.784	5.96
508.984	6.07
509.183	6
509.383	6.08
509.583	6.12
509.782	6.1
509.982	6.16
510.182	6.2
510.381	6.27
510.581	6.28
510.781	6.4
510.98	6.45
511.18	6.59
511.379	6.68
511.579	6.69
511.778	6.69
511.978	6.75
512.177	6.74
512.377	6.89
512.576	6.97
512.776	7.08
512.975	7.22
513.175	7.26
513.374	7.25
513.573	7.3
513.773	7.46
513.972	7.62
514.172	7.68
514.371	7.77
514.57	7.79
514.77	7.83
514.969	7.89
515.168	7.83
515.367	8
515.567	8.05
515.766	8.17
515.965	8.13
516.164	8.21
516.364	8.38
516.563	8.44
516.762	8.56
516.961	8.64
517.16	8.74
517.359	8.89
517.559	8.94
517.758	8.96
517.957	8.98
518.156	9.08
518.355	9.09
518.554	9.13
518.753	9.21
518.952	9.26
519.151	9.29
519.35	9.42
519.549	9.38
519.748	9.47
519.947	9.61
520.146	9.68
520.345	9.77
520.544	9.9
520.743	9.93
520.942	10.03
521.141	10.09
521.339	10.15
521.538	10.17
521.737	10.3
521.936	10.39
522.135	10.49
522.333	10.57
522.532	10.68
522.731	10.83
522.93	10.93
523.129	10.98
523.327	11.1
523.526	11.31
523.725	11.33
523.923	11.45
524.122	11.52
524.321	11.58
524.519	11.71
524.718	11.79
524.917	11.85
525.115	11.98
525.314	12.07
525.512	12.19
525.711	12.22
525.909	12.32
526.108	12.39
526.306	12.52
526.505	12.64
526.703	12.74
526.902	12.8
527.1	12.87
527.299	12.95
527.497	13.06
527.696	13.08
527.894	13.19
528.092	13.29
528.291	13.37
528.489	13.38
528.688	13.42
528.886	13.51
529.084	13.6
529.283	13.7
529.481	13.76
529.679	13.8
529.877	13.89
530.076	13.95
530.274	14.04
530.472	14.1
530.67	14.2
530.869	14.24
531.067	14.28
531.265	14.35
531.463	14.44
531.661	14.51
531.859	14.58
532.057	14.65
532.255	14.7
532.454	14.76
532.652	14.83
532.85	14.91
533.048	14.99
533.246	15.06
533.444	15.11
533.642	15.16
533.84	15.21
534.038	15.3
534.236	15.39
534.434	15.46
534.632	15.53
534.83	15.58
535.027	15.7
535.225	15.76
535.423	15.84
535.621	15.89
535.819	15.94
536.017	16.05
536.215	16.09
536.412	16.15
536.61	16.24
536.808	16.27
537.006	16.35
537.203	16.37
537.401	16.43
537.599	16.47
537.797	16.56
537.994	16.67
538.192	16.7
538.39	16.76
538.587	16.79
538.785	16.81
538.983	16.91
539.18	17.05
539.378	17.15
539.575	17.25
539.773	17.37
539.97	17.44
540.168	17.46
540.366	17.52
540.563	17.59
540.761	17.7
540.958	17.81
541.155	17.9
541.353	17.91
541.55	17.99
541.748	18.1
541.945	18.19
542.143	18.25
542.34	18.29
542.537	18.39
542.735	18.45
542.932	18.51
543.129	18.64
543.327	18.65
543.524	18.76
543.721	18.85
543.919	18.93
544.116	18.98
544.313	19.08
544.51	19.32
544.708	19.44
544.905	19.57
545.102	19.73
545.299	19.7
545.496	19.85
545.693	19.95
545.891	19.99
546.088	20.02
546.285	19.99
546.482	19.97
546.679	19.97
546.876	19.92
547.073	19.96
547.27	19.88
547.467	19.95
547.664	19.98
547.861	19.92
548.058	19.83
548.255	19.88
548.452	19.86
548.649	19.91
548.846	19.79
549.043	19.87
549.24	19.85
549.437	19.94
549.633	19.89
549.83	19.71
550.027	19.73
550.224	19.78
550.421	19.71
550.618	19.78
550.814	19.87
551.011	19.97
551.208	19.92
551.405	20
551.601	20.01
551.798	20.07
551.995	20.19
552.191	20.25
552.388	20.35
552.585	20.45
552.781	20.5
552.978	20.48
553.175	20.51
553.371	20.53
553.568	20.49
553.764	20.45
553.961	20.49
554.157	20.56
554.354	20.59
554.55	20.64
554.747	20.63
554.943	20.66
555.14	20.75
555.336	20.71
555.533	20.8
555.729	20.83
555.926	20.94
556.122	20.96
556.318	20.91
556.515	20.95
556.711	20.96
556.907	20.98
557.104	20.99
557.3	20.81
557.496	20.88
557.693	20.82
557.889	20.87
558.085	20.9
558.281	20.97
558.478	20.99
558.674	21.05
558.87	21.03
559.066	21.04
559.262	21.11
559.459	21.28
559.655	21.29
559.851	21.43
560.047	21.5
560.243	21.46
560.439	21.52
560.635	21.58
560.831	21.56
561.027	21.52
561.223	21.6
561.419	21.68
561.615	21.7
561.811	21.79
562.007	21.81
562.203	21.79
562.399	21.82
562.595	21.8
562.791	21.84
562.987	22.02
563.183	22.14
563.379	22.13
563.575	22.02
563.771	22.11
563.966	22.17
564.162	22.15
564.358	22.17
564.554	22.19
564.75	22.2
564.945	22.12
565.141	21.99
565.337	22.06
565.533	22.13
565.728	22.28
565.924	22.31
566.12	22.33
566.315	22.36
566.511	22.38
566.707	22.4
566.902	22.38
567.098	22.5
567.293	22.62
567.489	22.63
567.684	22.55
567.88	22.59
568.076	22.45
568.271	22.43
568.467	22.34
568.662	22.3
568.858	22.42
569.053	22.54
569.248	22.68
569.444	22.78
569.639	22.83
569.835	22.98
570.03	22.88
570.225	23
570.421	23.05
570.616	23.21
570.812	23.31
571.007	23.27
571.202	23.28
571.397	23.19
571.593	23.14
571.788	23.13
571.983	23.14
572.178	23.31
572.374	23.45
572.569	23.42
572.764	23.46
572.959	23.5
573.154	23.57
573.35	23.55
573.545	23.61
573.74	23.55
573.935	23.58
574.13	23.55
574.325	23.56
574.52	23.48
574.715	23.54
574.91	23.55
575.105	23.66
575.3	23.67
575.495	23.79
575.69	23.8
575.885	23.99
576.08	23.98
576.275	24.02
576.47	24.03
576.665	24.12
576.86	24.09
577.055	24.15
577.25	24.1
577.444	24.17
577.639	24.12
577.834	24.27
578.029	24.22
578.224	24.33
578.418	24.37
578.613	24.32
578.808	24.29
579.003	24.36
579.197	24.4
579.392	24.42
579.587	24.39
579.781	24.5
579.976	24.48
580.171	24.5
580.365	24.34
580.56	24.45
580.755	24.54
580.949	24.66
581.144	24.75
581.338	24.73
581.533	24.83
581.727	24.92
581.922	24.87
582.116	24.91
582.311	24.81
582.505	25.03
582.7	24.92
582.894	25.13
583.089	25.06
583.283	25.04
583.478	24.98
583.672	24.94
583.866	24.83
584.061	24.82
584.255	24.76
584.449	24.83
584.644	24.76
584.838	24.88
585.032	24.62
585.226	24.69
585.421	24.77
585.615	24.99
585.809	25.08
586.003	25.26
586.198	25.39
586.392	25.33
586.586	25.5
586.78	25.64
586.974	25.63
587.168	25.75
587.363	25.71
587.557	25.68
587.751	25.64
587.945	25.54
588.139	25.38
588.333	25.35
588.527	25.4
588.721	25.38
588.915	25.36
589.109	25.25
589.303	25.19
589.497	25.25
589.691	25.23
589.885	25.21
590.079	25.28
590.273	25.4
590.466	25.41
590.66	25.44
590.854	25.49
591.048	25.46
591.242	25.66
591.436	25.7
591.629	25.95
591.823	26.06
592.017	26.11
592.211	26.06
592.404	26.01
592.598	25.95
592.792	26.01
592.986	26.03
593.179	26.09
593.373	25.96
593.567	25.98
593.76	25.8
593.954	25.8
594.147	25.75
594.341	25.78
594.535	25.78
594.728	25.8
594.922	25.79
595.115	25.75
595.309	25.74
595.502	25.85
595.696	25.79
595.889	25.82
596.083	25.84
596.276	25.71
596.47	25.71
596.663	25.81
596.856	25.88
597.05	25.92
597.243	25.89
597.437	25.86
597.63	25.93
597.823	25.95
598.017	25.91
598.21	25.89
598.403	26.02
598.596	26.07
598.79	26.06
598.983	26.04
599.176	26.11
599.369	26.11
599.563	26.02
599.756	25.98
599.949	26.01
600.142	26
600.335	25.86
600.528	26.04
600.722	26.09
600.915	26.13
601.108	26.12
601.301	25.98
601.494	26.05
601.687	26.1
601.88	26.03
602.073	26.05
602.266	26.12
602.459	26.3
602.652	26.2
602.845	26.13
603.038	26.08
603.231	26.04
603.424	26.17
603.617	26.03
603.809	26.14
604.002	26.11
604.195	26.12
604.388	26.09
604.581	26.08
604.774	26.03
604.966	26.12
605.159	26.1
605.352	26.21
605.545	26.22
605.737	26.31
605.93	26.32
606.123	26.4
606.316	26.61
606.508	26.66
606.701	26.76
606.894	26.91
607.086	26.86
607.279	27.07
607.471	27.1
607.664	27.04
607.857	27.27
608.049	27.34
608.242	27.59
608.434	27.78
608.627	28.02
608.819	28.27
609.012	28.57
609.204	29.12
609.397	29.5
609.589	30.03
609.782	30.67
609.974	31.18
610.166	31.8
610.359	32.3
610.551	32.81
610.743	33.35
610.936	33.73
611.128	33.98
611.32	34.17
611.513	34.25
611.705	34.3
611.897	34.15
612.09	33.98
612.282	33.78
612.474	33.57
612.666	33.2
612.858	32.72
613.051	32.36
613.243	32
613.435	31.68
613.627	31.37
613.819	31.17
614.011	31.03
614.203	30.81
614.395	30.48
614.588	30.15
614.78	29.96
614.972	29.9
615.164	29.73
615.356	29.72
615.548	29.33
615.74	29.42
615.932	29.2
616.124	28.97
616.315	28.66
616.507	28.62
616.699	28.43
616.891	28.05
617.083	27.85
617.275	27.92
617.467	27.83
617.659	27.76
617.85	27.46
618.042	27.27
618.234	27.22
618.426	27.39
618.618	27.39
618.809	27.47
619.001	27.46
619.193	27.45
619.384	27.33
619.576	27.29
619.768	27.35
619.959	27.33
620.151	27.37
620.343	27.42
620.534	27.47
620.726	27.25
620.917	27.32
621.109	27.61
621.301	27.63
621.492	27.68
621.684	27.77
621.875	27.99
622.067	28.21
622.258	28.18
622.45	28.09
622.641	28.09
622.832	28.1
623.024	28.05
623.215	28.05
623.407	27.98
623.598	27.9
623.789	27.93
623.981	27.78
624.172	27.78
624.363	27.89
624.555	27.96
624.746	27.91
624.937	27.93
625.129	27.88
625.32	27.77
625.511	27.76
625.702	27.73
625.893	27.8
626.085	27.89
626.276	27.88
626.467	27.96
626.658	27.82
626.849	27.82
627.04	28.01
627.231	28.08
627.422	28.07
627.614	28.06
627.805	28.03
627.996	27.91
628.187	27.95
628.378	27.89
628.569	27.97
628.76	28.09
628.951	28.09
629.142	28.14
629.332	28.33
629.523	28.36
629.714	28.52
629.905	28.82
630.096	28.82
630.287	28.72
630.478	28.82
630.669	28.55
630.859	28.63
631.05	28.72
631.241	28.62
631.432	28.45
631.623	28.48
631.813	28.49
632.004	28.14
632.195	28.06
632.385	28.05
632.576	27.92
632.767	27.97
632.957	27.9
633.148	27.79
633.339	27.49
633.529	27.44
633.72	27.41
633.91	27.36
634.101	27.41
634.292	27.38
634.482	27.3
634.673	27.22
634.863	27.24
635.054	27.05
635.244	26.97
635.435	27.14
635.625	27.22
635.815	27.16
636.006	27.17
636.196	27.32
636.387	27.38
636.577	27.57
636.767	27.7
636.958	27.69
637.148	28.01
637.338	28.03
637.529	28.23
637.719	28.09
637.909	27.96
638.099	27.9
638.29	27.74
638.48	27.82
638.67	27.73
638.86	27.66
639.05	27.65
639.241	27.44
639.431	27.42
639.621	27.23
639.811	27.43
640.001	27.56
640.191	27.5
640.381	27.64
640.571	27.53
640.761	27.41
640.951	27.48
641.141	27.48
641.331	27.49
641.521	27.49
641.711	27.64
641.901	27.41
642.091	27.46
642.281	27.62
642.471	27.37
642.661	27.6
642.851	27.91
643.041	28
643.231	28.1
643.42	28.05
643.61	28.09
643.8	27.96
643.99	27.85
644.18	27.97
644.369	27.85
644.559	28.11
644.749	27.91
644.939	27.64
645.128	27.5
645.318	27.54
645.508	27.7
645.697	27.81
645.887	27.81
646.076	27.98
646.266	27.91
646.456	28.08
646.645	28.11
646.835	28.23
647.024	28.29
647.214	28.38
647.403	28.48
647.593	28.46
647.782	28.59
647.972	28.78
648.161	28.85
648.351	28.88
648.54	28.94
648.73	28.72
648.919	28.74
649.108	28.88
649.298	28.84
649.487	28.76
649.677	28.82
649.866	28.62
650.055	28.42
650.244	28.45
650.434	28.55
650.623	28.47
650.812	28.68
651.002	28.76
651.191	28.68
651.38	28.82
651.569	28.75
651.758	28.79
651.947	28.8
652.137	28.82
652.326	28.75
652.515	28.55
652.704	28.6
652.893	28.68
653.082	28.57
653.271	28.61
653.46	28.36
653.649	28.44
653.838	28.23
654.027	28.16
654.216	28.26
654.405	28.29
654.594	28.19
654.783	28.13
654.972	28.03
655.161	28.08
655.35	28.11
655.539	28.09
655.728	28.04
655.916	28.14
656.105	28.3
656.294	28.3
656.483	28.29
656.672	28.47
656.86	28.34
657.049	28.31
657.238	28.16
657.427	28.08
657.615	28.26
657.804	28.18
657.993	28.21
658.181	28.2
658.37	28.17
658.559	28.28
658.747	28.34
658.936	28.5
659.125	28.26
659.313	28.35
659.502	28.47
659.69	28.46
659.879	28.6
660.067	28.62
660.256	28.54
660.444	28.56
660.633	28.57
660.821	28.43
661.01	28.44
661.198	28.64
661.387	28.68
661.575	28.66
661.763	28.51
661.952	28.35
662.14	28.23
662.328	28.29
662.517	28.47
662.705	28.42
662.893	28.55
663.082	28.51
663.27	28.46
663.458	28.41
663.646	28.28
663.834	28.57
664.023	28.57
664.211	28.73
664.399	28.86
664.587	28.67
664.775	28.73
664.963	28.82
665.152	29.03
665.34	29.36
665.528	29.42
665.716	29.48
665.904	29.34
666.092	29.25
666.28	29.33
666.468	29.29
666.656	29.08
666.844	28.88
667.032	28.7
667.22	28.65
667.408	28.33
667.596	28.13
667.784	27.99
667.971	28.1
668.159	28.11
668.347	27.97
668.535	27.92
668.723	28.3
668.911	28.33
669.098	28.28
669.286	28.13
669.474	28.21
669.662	28.25
669.849	28.44
670.037	28.5
670.225	28.58
670.413	28.61
670.6	28.61
670.788	28.33
670.976	28.4
671.163	28.67
671.351	28.46
671.538	28.37
671.726	28.32
671.913	28.32
672.101	27.89
672.289	28.05
672.476	27.97
672.664	28.25
672.851	28.48
673.039	28.4
673.226	28.2
673.413	28.37
673.601	28.38
673.788	28.2
673.976	28.29
674.163	28.54
674.35	28.55
674.538	28.53
674.725	28.26
674.912	28.15
675.1	28.08
675.287	28.24
675.474	28.46
675.662	28.76
675.849	29.14
676.036	29.17
676.223	29.02
676.411	28.87
676.598	28.94
676.785	29.28
676.972	29.23
677.159	29.45
677.346	29.1
677.533	28.84
677.721	28.75
677.908	28.71
678.095	28.68
678.282	28.85
678.469	28.95
678.656	29.14
678.843	28.87
679.03	28.95
679.217	29.15
679.404	29.3
679.591	29.5
679.778	29.4
679.964	29.34
680.151	29.23
680.338	29.37
680.525	29.28
680.712	28.95
680.899	29.17
681.086	29.31
681.272	29.15
681.459	29.07
681.646	28.84
681.833	29.12
682.02	29.17
682.206	29.23
682.393	29.07
682.58	29.31
682.766	29.41
682.953	29.12
683.14	28.95
683.326	28.96
683.513	29.15
683.7	29.38
683.886	29.27
684.073	29.21
684.259	29.09
684.446	29.14
684.632	29.07
684.819	29.17
685.005	29.56
685.192	29.39
685.378	29.44
685.565	29.32
685.751	29.29
685.938	29.09
686.124	29.4
686.31	29.58
686.497	29.53
686.683	29.49
686.87	29.48
687.056	28.96
687.242	28.96
687.429	29.04
687.615	29.22
687.801	29.25
687.987	29.67
688.174	29.33
688.36	29.41
688.546	29.42
688.732	29.46
688.918	29.48
689.105	29.73
689.291	29.84
689.477	29.7
689.663	29.77
689.849	29.7
690.035	29.35
690.221	29.66
690.407	29.6
690.593	29.8
690.779	29.53
690.965	29.55
691.151	29.4
691.337	29.25
691.523	29.27
691.709	29.15
691.895	29.34
692.081	29.35
692.267	28.93
692.453	28.67
692.639	28.5
692.825	28.7
693.011	28.82
693.196	29.06
693.382	29.45
693.568	29.41
693.754	29.34
693.94	29.14
694.125	29.2
694.311	29.21
694.497	29.36
694.682	29.15
694.868	29.11
695.054	29.26
695.239	29.05
695.425	28.78
695.611	28.97
695.796	28.97
695.982	28.91
696.168	28.77
696.353	28.79
696.539	28.66
696.724	28.89
696.91	28.95
697.095	28.51
697.281	28.58
697.466	28.56
697.652	28.47
697.837	28.46
698.023	28.59
698.208	28.89
698.393	29.01
698.579	29.19
698.764	29.1
698.949	29.1
699.135	29.37
699.32	29.3
699.505	29.32
699.691	29.04
699.876	29.29
700.061	28.95
700.246	28.66
700.432	28.47
700.617	28.38
700.802	28.37
700.987	28.31
701.172	27.92
701.358	28.05
701.543	28.25
701.728	28.48
701.913	28.18
702.098	28.34
702.283	28.34
702.468	28.77
702.653	28.43
702.838	28.54
703.023	28.64
703.208	28.95
703.393	29.24
703.578	29.12
703.763	29.31
703.948	29.57
704.133	29.67
704.318	29.8
704.503	30.05
704.688	30.4
704.873	30.26
705.057	30.23
705.242	30.36
705.427	30.2
705.612	30.3
705.797	30.62
705.981	30.46
706.166	30.89
706.351	31.05
706.536	30.55
706.72	30.67
706.905	31.12
707.09	30.79
707.274	30.78
707.459	30.77
707.644	31.14
707.828	31.13
708.013	31.11
708.197	31.11
708.382	30.94
708.567	31.34
708.751	31
708.936	30.62
709.12	31.07
709.305	31.04
709.489	31.07
709.673	30.36
709.858	30.2
710.042	30.13
710.227	30.06
710.411	30.19
710.596	29.85
710.78	30.48
710.964	30.64
711.149	30.68
711.333	30.92
711.517	31.02
711.702	31.4
711.886	30.95
712.07	31.12
712.254	31.32
712.438	31.06
712.623	31.02
712.807	30.6
712.991	30.66
713.175	30.55
713.359	30.44
713.544	30.1
713.728	29.93
713.912	30.07
714.096	29.98
714.28	29.28
714.464	29
714.648	29.1
714.832	28.78
715.016	28.88
715.2	28.87
715.384	28.82
715.568	28.8
715.752	29
715.936	29.03
716.12	28.76
716.304	29.03
716.488	29.37
716.671	29.21
716.855	29.58
717.039	29.09
717.223	28.97
717.407	28.49
717.59	28.64
717.774	28.52
717.958	28.76
718.142	28.83
718.325	28.9
718.509	28.79
718.693	28.71
718.877	28.84
719.06	29.22
719.244	28.97
719.428	29.57
719.611	29.72
719.795	29.63
719.978	29.51
720.162	29.57
720.345	29.55
720.529	30.21
720.713	30.45
720.896	29.76
721.08	29.79
721.263	30.08
721.446	29.96
721.63	29.31
721.813	29.32
721.997	29.17
722.18	29.13
722.364	28.96
722.547	27.96
722.73	28.01
722.914	28.33
723.097	28.36
723.28	28.59
723.464	28.61
723.647	29.06
723.83	29.29
724.013	29.5
724.197	29.84
724.38	30.32
724.563	30.67
724.746	30.61
724.929	30.83
725.112	30.65
725.296	30.74
725.479	30.5
725.662	30.56
725.845	30.3
726.028	29.98
726.211	29.61
726.394	29.32
726.577	29.08
726.76	29.1
726.943	28.41
727.126	28.11
727.309	28.15
727.492	28.08
727.675	27.69
727.858	27.5
728.041	27.62
728.224	27.73
728.407	27.59
728.589	27.94
728.772	28.15
728.955	28.71
729.138	28.6
729.321	27.91
729.503	28.06
729.686	27.94
729.869	28.09
730.052	27.46
730.234	27.41
730.417	27.84
730.6	27.79
730.782	27.72
730.965	27.98
731.148	28.25
731.33	28.34
731.513	28.28
731.695	28.44
731.878	28.88
732.061	29.55
732.243	29.73
732.426	29.44
732.608	29.69
732.791	29.69
732.973	29.33
733.156	29.21
733.338	29.25
733.52	29.75
733.703	30.06
733.885	29.64
734.068	29.67
734.25	29.44
734.432	29.51
734.615	29.71
734.797	29.99
734.979	30.25
735.162	30.44
735.344	30.38
735.526	29.98
735.708	29.59
735.891	30.22
736.073	29.97
736.255	30.05
736.437	29.84
736.619	29.37
736.802	28.76
736.984	28.53
737.166	28.97
737.348	29.3
737.53	29.28
737.712	29.41
737.894	28.35
738.076	28.74
738.258	28.92
738.44	29.39
738.622	29.34
738.804	29.62
738.986	29.53
739.168	29.35
739.35	29.37
739.532	29.53
739.714	29.71
739.896	29.94
740.078	29.62
740.259	29.64
740.441	29.16
740.623	29.16
740.805	29.05
740.987	29.02
741.168	28.68
741.35	29.05
741.532	28.85
741.714	28.69
741.895	29.46
742.077	29.97
742.259	29.83
742.44	29.86
742.622	29.6
742.804	29.86
742.985	30.03
743.167	30.07
743.348	30
743.53	29.89
743.711	29.82
743.893	28.61
744.075	28.29
744.256	28.36
744.438	28.34
744.619	28.62
744.8	28.46
744.982	28.8
745.163	28.61
745.345	27.98
745.526	28.16
745.707	28.47
745.889	28.79
746.07	28.63
746.252	28.65
746.433	29.12
746.614	29.42
746.795	29.04
746.977	29.15
747.158	29.32
747.339	29.56
747.52	29.19
747.702	29.2
747.883	29.33
748.064	29.44
748.245	29.08
748.426	29.03
748.607	28.63
748.788	29.07
748.97	28.66
749.151	28.56
749.332	28.92
749.513	29.96
749.694	29.56
749.875	29.79
750.056	29.61
750.237	30.04
750.418	29.93
750.599	29.89
750.78	29.33
750.96	29.43
751.141	28.92
751.322	28.88
751.503	28.24
751.684	28.52
751.865	28.48
752.046	28.53
752.226	28.12
752.407	27.76
752.588	27.89
752.769	28.2
752.949	28.06
753.13	28.89
753.311	28.32
753.492	28.52
753.672	29
753.853	30.01
754.034	30.19
754.214	30.43
754.395	30.32
754.575	30.68
754.756	30.98
754.937	31.17
755.117	31.19
755.298	31.27
755.478	30.89
755.659	29.56
755.839	28.93
756.02	28.65
756.2	28.99
756.381	28.99
756.561	28.49
756.741	28.38
756.922	28.25
757.102	27.82
757.283	28.19
757.463	28.33
757.643	28.19
757.823	27.62
758.004	27.64
758.184	26.83
758.364	26.92
758.545	27.76
758.725	27.64
758.905	27.53
759.085	27.41
759.265	26.41
759.446	26.21
759.626	26.64
759.806	27.09
759.986	27.59
760.166	27.48
760.346	27.51
760.526	26.84
760.706	26.19
760.886	26.88
761.066	27.46
761.246	27.81
761.426	28.04
761.606	28.11
761.786	27.63
761.966	27.62
762.146	27.81
762.326	27.86
762.506	28.11
762.686	28.68
762.866	28.44
763.046	28.49
763.225	29.03
763.405	29.05
763.585	29.28
763.765	29.56
763.945	29.42
764.124	29.61
764.304	29.72
764.484	29.63
764.664	29.46
764.843	29.64
765.023	28.92
765.203	28.52
765.382	28.13
765.562	28.12
765.741	27.81
765.921	28.02
766.101	27.84
766.28	27.76
766.46	27.67
766.639	27.99
766.819	27.28
766.998	27.55
767.178	27.8
767.357	28.34
767.537	28.66
767.716	29.32
767.896	29.34
768.075	29.38
768.254	29.37
768.434	29.39
768.613	29.28
768.792	29.38
768.972	29.67
769.151	29.45
769.33	29.81
769.51	29.96
769.689	29.29
769.868	28.92
770.047	29.62
770.226	29.1
770.406	28.64
770.585	28.28
770.764	28.69
770.943	28.21
771.122	28.04
771.301	27.01
771.48	27.09
771.66	27.22
771.839	27.16
772.018	26.84
772.197	28.14
772.376	28.31
772.555	29.61
772.734	29.97
772.913	30.73
773.092	31.28
773.271	32.28
773.449	31.75
773.628	32.04
773.807	32
773.986	32.37
774.165	31.88
774.344	32.18
774.523	31.45
774.701	30.93
774.88	30.79
775.059	30.71
775.238	30.13
775.417	29.04
775.595	29.21
775.774	28.72
775.953	28.32
776.131	27.83
776.31	27.24
776.489	26.28
776.667	26.71
776.846	26.76
777.025	25.94
777.203	26.11
777.382	27.09
777.56	26.6
777.739	26.87
777.917	26.16
778.096	26.86
778.274	27.21
778.453	27.86
778.631	27.67
778.81	27.68
778.988	28.67
779.166	29.02
779.345	30.21
779.523	30.19
779.702	30.38
779.88	31.32
780.058	30.93
780.237	31.38
780.415	31.54
780.593	31.17
780.771	31.22
780.95	30.81
781.128	30.63
781.306	28.99
781.484	29.66
781.662	29.11
781.841	27.89
782.019	27.74
782.197	27.79
782.375	27.4
782.553	27.6
782.731	27.96
782.909	27.86
783.087	27.98
783.265	28.07
783.443	27.14
783.621	28.37
783.799	29.31
783.977	28.38
784.155	27.86
784.333	27.73
784.511	28.53
784.689	27.66
784.867	27.67
785.045	26.56
785.223	26.33
785.4	26.77
785.578	25.35
785.756	24.38
785.934	25.58
786.112	25.65
786.289	26.14
786.467	25.13
786.645	25.71
786.823	25.46
787	26.43
787.178	26.86
787.356	26.95
787.533	27.87
787.711	28.88
787.889	29.1
788.066	29.01
788.244	28.07
788.421	27.85
788.599	26.95
788.776	27.07
788.954	27.41
789.131	28.1
789.309	27.64
789.486	27.9
789.664	27.58
789.841	27.8
790.019	28.13
790.196	29.05
790.373	28.86
790.551	29.47
790.728	29.51
790.906	29.09
791.083	27.78
791.26	27.73
791.437	27.19
791.615	27.14
791.792	26.74
791.969	26.7
792.146	25.75
792.324	27.05
792.501	26.95
792.678	27.12
792.855	26.35
793.032	27.69
793.209	27.45
793.387	27
793.564	27.73
793.741	26.93
793.918	26.93
794.095	27.16
794.272	27.13
794.449	28.04
794.626	27.55
794.803	28
794.98	27.08
795.157	26.68
795.334	27.18
795.511	26.57
795.688	26.53
795.864	25.36
796.041	26.59
796.218	24.73
796.395	24.23
796.572	24.23
796.749	24.56
796.925	24.99
797.102	25.76
797.279	25.54
797.456	25.62
797.632	26.14
797.809	27.04
797.986	25.83
798.162	27.96
798.339	28.02
798.516	28.86
798.692	28.73
798.869	29.17
799.046	29.44
799.222	29.39
799.399	29.78
799.575	29.48
799.752	29.04
799.928	28.63
800.105	27.74
800.281	26.71
800.458	25.67
800.634	26.34
800.811	25.55
800.987	25.13
801.163	24.74
801.34	24.41
801.516	23.57
801.692	23.45
801.869	24.61
802.045	25.36
802.221	24.9
802.398	24.96
802.574	24.27
802.75	24.89
802.926	24.75
803.103	25.85
803.279	25.83
803.455	26.18
803.631	26.9
803.807	26.64
803.983	25.56
804.16	27
804.336	27.13
804.512	26.95
804.688	25.63
804.864	26.73
805.04	25.91
805.216	25.48
805.392	26.76
805.568	26.04
805.744	25.44
805.92	25.82
806.096	25.64
806.272	26.45
806.448	25.66
806.623	26.47
806.799	25.57
806.975	24.81
807.151	24.59
807.327	24.08
807.503	25.12
807.678	26.56
807.854	25.79
808.03	26.24
808.206	25.53
808.381	25.45
808.557	25.53
808.733	25.58
808.908	25.32
809.084	24.87
809.26	24.64
809.435	23.38
809.611	23.21
809.787	23.25
809.962	23.33
810.138	23.12
810.313	23.75
810.489	23.15
810.664	23.21
810.84	23.23
811.015	24.19
811.191	23.98
811.366	25.48
811.542	24.19
811.717	24.22
811.892	24.64
812.068	25.24
812.243	24.06
812.419	23.93
812.594	24.39
812.769	25.25
812.944	24.44
813.12	24.69
813.295	23.23
813.47	23.56
813.645	24.92
813.821	23.21
813.996	22.69
814.171	24.58
814.346	24.52
814.521	23.98
814.697	23.16
814.872	22.68
815.047	21.53
815.222	23.24
815.397	23.07
815.572	22.37
815.747	23.46
815.922	24.67
816.097	23.72
816.272	25.6
816.447	24.53
816.622	25.45
816.797	26.07
816.972	26.96
817.147	26.61
817.322	26.37
817.496	26.05
817.671	25.26
817.846	25.46
818.021	24.74
818.196	21.59
818.371	22.35
818.545	22.36
818.72	22.17
818.895	22.34
819.069	22.03
819.244	22.74
819.419	22.85
819.594	23.06
819.768	21.93
819.943	23.06
820.117	24.48
820.292	25.5
820.467	25.73
820.641	26.57
820.816	26.59
820.99	26.68
821.165	26.34
821.339	26.03
821.514	26.22
821.688	26.46
821.863	26.51
822.037	26.61
822.212	26.26
822.386	26.13
822.56	25.99
822.735	26.03
822.909	26.01
823.084	25.96
823.258	26.03
823.432	25.99
823.606	25.78
823.781	25.63
823.955	25.65
824.129	25.69
824.303	25.87
824.478	25.74
824.652	25.93
824.826	26.24
825	26.57
825.174	26.73
825.348	26.59
825.523	26.53
825.697	26.4
825.871	26.22
826.045	26.06
826.219	26.21
826.393	25.91
826.567	25.48
826.741	25.1
826.915	25.01
827.089	25.13
827.263	25.63
827.437	25.68
827.611	25.37
827.784	24.71
827.958	24.5
828.132	24.05
828.306	24.28
828.48	24.1
828.654	23.81
828.827	23.97
829.001	23.13
829.175	22.36
829.349	22.75
829.522	22.46
829.696	23.71
829.87	24.11
830.044	23.85
830.217	24.96
830.391	25.17
830.565	25.35
830.738	24.96
830.912	25.79
831.085	25.81
831.259	24.64
831.432	26.23
831.606	24.73
831.779	25.1
831.953	25.1
832.126	24.03
832.3	23.48
832.473	23.55
832.647	24.18
832.82	24.25
832.994	24.45
833.167	25.06
833.34	25.13
833.514	25.33
833.687	24.87
833.86	24.67
834.034	24.06
834.207	24.2
834.38	24.07
834.553	23.54
834.727	23.29
834.9	22.65
835.073	22.42
835.246	21.93
835.419	22.53
835.593	22.12
835.766	22.04
835.939	21.83
836.112	22.46
836.285	22.66
836.458	22.39
836.631	23.1
836.804	23.67
836.977	23.47
837.15	22.68
837.323	21.28
837.496	21.62
837.669	20.41
837.842	20.96
838.015	18.98
838.188	18.19
838.361	18.04
838.533	17.52
838.706	16.85
838.879	17.86
839.052	18.78
839.225	19.94
839.398	20.15
839.57	22.95
839.743	22.96
839.916	24.47
840.088	25.66
840.261	26.8
840.434	26.02
840.607	26.54
840.779	25.72
840.952	25.24
841.124	23.72
841.297	23.14
841.47	22.54
841.642	22.56
841.815	21.7
841.987	18.67
842.16	16.15
842.332	18.78
842.505	18.7
842.677	17.69
842.85	19.74
843.022	19.34
843.194	23.08
843.367	23.92
843.539	22.45
843.712	22.44
843.884	22.65
844.056	27.76
844.229	25.31
844.401	25.93
844.573	26.95
844.745	28.24
844.918	29.89
845.09	26.54
845.262	22.85
845.434	22.23
845.606	20.71
845.779	23.16
845.951	17.7
846.123	19.02
846.295	16.64
846.467	19.92
846.639	15.44
846.811	14.79
846.983	14.57
847.155	14.86
847.327	16.58
847.499	17.5
847.671	18.48
847.843	19.42
848.015	17.28
848.187	20.18
848.359	15.11
848.531	15.1
848.703	16.8
848.875	15.2
849.047	16.32
849.218	16.63
849.39	15.56
849.562	15.88
849.734	11.09
849.905	11.47
850.077	8.07
850.249	12.89
850.421	14.03
850.592	12.98
850.764	11.45
850.936	13.42
851.107	13.68
851.279	14.29
851.451	12.21
851.622	17.43
851.794	17.67
851.965	19.5
852.137	15.5
852.308	15.33
852.48	15.92
852.651	22.08
852.823	22.16
852.994	25.36
853.166	22.88
853.337	25.6
853.509	24.38
853.68	23.78
853.851	21.65
854.023	21.91
854.194	21.94
854.365	21.38
854.537	17.23
854.708	18.29
854.879	12.8
855.05	15.54
855.222	9.68
855.393	14.3
855.564	14.27
855.735	14.01
855.906	15.29
856.078	15.05
856.249	9.3
856.42	9.18
856.591	7.39
856.762	10.92
856.933	12.97
857.104	13.67
857.275	12.21
857.446	11.06
857.617	14.84
857.788	17.92
857.959	19.92
858.13	26.52
858.301	26.86
858.472	22.78
858.643	22.4
858.814	21.59
858.985	21.46
859.155	17.4
859.326	18.47
859.497	17.15
859.668	13.57
859.839	5.96
860.009	5.17
860.18	6.47
860.351	11.71
860.522	10.65
860.692	6.76
860.863	4.92
861.034	10.78
861.204	13.81
861.375	15.91
861.546	17.5
861.716	26.84
861.887	24.5
862.057	23.54
862.228	20.82
862.398	15.87
862.569	22.16
862.739	25.89
862.91	23.21
863.08	20.74
863.251	21.93
863.421	19.46
863.592	16.47
863.762	16.41
863.932	13.98
864.103	12.4
864.273	13.98
864.443	11.4
864.614	7.46
864.784	3.3
864.954	2.64
865.125	-0.3
865.295	1.03
865.465	0.84
865.635	3.83
865.805	8.27
865.976	13.6
866.146	16.77
866.316	13.55
866.486	18.35
866.656	23.22
866.826	26.32
866.996	27.53
867.166	28.2
867.336	29.35
867.506	30.33
867.676	25.91
867.846	23.3
868.016	23.07
868.186	24.45
868.356	21.06
868.526	19.35
868.696	16.81
868.866	13.91
869.036	15.58
869.206	11.59
869.376	12.17
869.545	15.06
869.715	15.55
869.885	13.53
870.055	11.4
870.224	7
870.394	4.8
870.564	3.19
870.734	6.31
870.903	3.32
871.073	5.67
871.243	1.99
871.412	2.1
871.582	4.13
871.751	6.08
871.921	5.47
872.091	10.04
872.26	10.04
872.43	10.79
872.599	8.51
872.769	11.53
872.938	13.12
873.108	15.56
873.277	12.07
873.446	13.14
873.616	13.56
873.785	19.01
873.955	15.38
874.124	16.87
874.293	18.3
874.463	19.05
874.632	19.05
874.801	18.94
874.971	20.49
875.14	21.53
875.309	19.02
875.478	20.22
875.647	17.93
875.817	19.85
875.986	17.82
876.155	16.36
876.324	15.81
876.493	16.05
876.662	14.32
876.831	14.17
877	13.56
877.17	11.4
877.339	8.96
877.508	11.24
877.677	11.89
877.846	15.13
878.015	18.03
878.184	19.04
878.352	16.82
878.521	17.52
878.69	15.33
878.859	19.13
879.028	20.65
879.197	21.28
879.366	22.55
879.534	22.14
879.703	21.95
879.872	21.66
880.041	20.02
880.21	19.97
880.378	21.5
880.547	23.14
880.716	22.15
880.884	21.57
881.053	20.96
881.222	20.37
881.39	20.79
881.559	20.61
881.727	20.67
881.896	21.62
882.065	22.06
882.233	22.23
882.402	21.9
882.57	22.13
882.739	22.11
882.907	23.38
883.076	23.54
883.244	23.42
883.412	23.91
883.581	23.98
883.749	23.6
883.918	23.21
884.086	21.6
884.254	21.32
884.423	21.44
884.591	21.76
884.759	19.66
884.927	18.9
885.096	19.35
885.264	18.21
885.432	17.95
885.6	16.9
885.769	15.3
885.937	17.16
886.105	15.69
886.273	14.38
886.441	13.93
886.609	15.47
886.777	14.78
886.945	13.65
887.113	13.13
887.281	12.47
887.449	15.09
887.617	18.77
887.785	17.37
887.953	15.57
888.121	15.47
888.289	12.52
888.457	11.89
888.625	13.83
888.793	10.95
888.961	10.3
889.129	9.9
889.296	9.72
889.464	7.41
889.632	9.21
889.8	13.2
889.967	12.58
890.135	18.28
