Data from 2938791__Reflection_05.txt Node
Date: Fri Mar 13 11:21:10 EDT 2015
User: robert
Spectrometer: USB4E03002
Autoset integration time: false
Trigger mode: 4
Integration Time (sec): 1.000000E-1
Scans to average: 10
Electric dark correction enabled: false
Nonlinearity correction enabled: false
Boxcar width: 5
Stray light correction enabled: false
XAxis mode: Wavelengths
Stop averaging: false
Number of Pixels in Spectrum: 3648
>>>>>Begin Spectral Data<<<<<
177.575	-817.5
177.794	-8457.14
178.014	-1166.09
178.233	-813.74
178.452	-543.51
178.672	-383.85
178.891	-393.26
179.11	-408.79
179.33	-372.31
179.549	-463.52
179.768	-507.83
179.987	-762.5
180.207	-496.09
180.426	-818.75
180.645	-1576.92
180.864	-6070.73
181.084	1755.22
181.303	2838.2
181.522	1402.26
181.741	3389.19
181.96	1388.07
182.179	620.44
182.398	552.98
182.618	434.99
182.837	469.59
183.056	346.47
183.275	335.09
183.494	420.3
183.713	377.28
183.932	382.41
184.151	362.58
184.37	397.92
184.589	492.9
184.808	587.58
185.027	597.32
185.246	638.3
185.465	2255.56
185.684	1177.12
185.903	1322.17
186.122	1516.2
186.341	5225.49
186.56	2300
186.779	3277.11
186.998	1582.18
187.216	-4165.63
187.435	-987.64
187.654	-1021.91
187.873	-1337.5
188.092	-3369.57
188.311	17815.38
188.53	-2823.46
188.748	7443.75
188.967	-1146.15
189.186	-1343.6
189.405	-660.24
189.623	-2239.22
189.842	5468.09
190.061	2003.08
190.28	2906.52
190.498	-1562.94
190.717	-1264.68
190.936	-976.3
191.154	-597.34
191.373	-1888.59
191.592	-1493.02
191.81	-1183.33
192.029	-1003.6
192.248	-954.62
192.466	-3569.01
192.685	-18528.57
192.904	-896.51
193.122	-4120
193.341	1007.2
193.559	597.78
193.778	610.31
193.996	511.43
194.215	559.58
194.433	532.44
194.652	472.84
194.87	896.4
195.089	715.95
195.307	378.88
195.526	421.68
195.744	469.43
195.963	381.44
196.181	351.71
196.399	382.17
196.618	331.93
196.836	370.82
197.055	421.08
197.273	448.49
197.491	485.71
197.71	486.34
197.928	696.47
198.146	727.33
198.365	6637.5
198.583	-3877.36
198.801	-1603.03
199.019	-1620.31
199.238	-4318
199.456	1527.52
199.674	777.93
199.892	645.07
200.111	975.11
200.329	943.04
200.547	817.67
200.765	596.04
200.983	586.3
201.202	552.67
201.42	694.13
201.638	681.71
201.856	1056.12
202.074	1242.04
202.292	-2996.77
202.51	12293.75
202.728	6782.76
202.946	-2529.87
203.165	-2502.5
203.383	3707.69
203.601	1619.26
203.819	3869.09
204.037	810.43
204.255	916.8
204.473	1138.25
204.691	613
204.909	534.36
205.127	513.75
205.345	547.07
205.562	649.68
205.78	836.44
205.998	789.36
206.216	501.24
206.434	810.65
206.652	496.52
206.87	503.37
207.088	469.1
207.306	687.17
207.523	598.67
207.741	498.94
207.959	472.09
208.177	663.12
208.395	708.27
208.612	978.46
208.83	688.11
209.048	771.92
209.266	970.56
209.483	902.81
209.701	931.76
209.919	1376.97
210.136	1083.86
210.354	928.09
210.572	645.5
210.79	491.57
211.007	508.13
211.225	606.01
211.442	634.94
211.66	449.24
211.878	497.72
212.095	-1237.3
212.313	-3426.6
212.53	-2088.67
212.748	-1479.02
212.966	-2654.7
213.183	-1800.6
213.401	-2689.29
213.618	5587.27
213.836	-18129.41
214.053	-10061.29
214.271	12003.85
214.488	302.56
214.705	305.73
214.923	255.17
215.14	261.88
215.358	292.89
215.575	328.66
215.793	313.5
216.01	490.22
216.227	466.49
216.445	488.15
216.662	546.65
216.879	724.93
217.097	605.07
217.314	572.22
217.531	385.23
217.749	328.49
217.966	285.99
218.183	250.47
218.4	227.91
218.618	229.96
218.835	200.42
219.052	196.55
219.269	177.19
219.487	178.3
219.704	190.79
219.921	193
220.138	199.14
220.355	191.84
220.572	182.8
220.79	158.27
221.007	152.96
221.224	160.49
221.441	148.97
221.658	137.04
221.875	130.66
222.092	120.92
222.309	115.1
222.526	106.57
222.743	105.3
222.96	102.68
223.177	108.31
223.394	95.81
223.611	92.64
223.828	90.72
224.045	100
224.262	95.05
224.479	91.71
224.696	90.5
224.913	89.76
225.13	84.19
225.347	78.72
225.564	73.14
225.781	70.19
225.997	66.2
226.214	59.61
226.431	50.58
226.648	47.28
226.865	43.35
227.082	38.41
227.298	32.03
227.515	28.77
227.732	25.19
227.949	23.7
228.165	21.8
228.382	21.02
228.599	21.19
228.816	20.4
229.032	19.94
229.249	18.45
229.466	17.97
229.682	18.63
229.899	19.46
230.116	19.51
230.332	19.39
230.549	19.73
230.765	19.59
230.982	19.51
231.199	20.35
231.415	20.68
231.632	23.28
231.848	23.82
232.065	24.12
232.281	23.05
232.498	23.55
232.714	23.66
232.931	24.68
233.147	26.81
233.364	27.1
233.58	28.45
233.797	28.32
234.013	27.56
234.23	27.41
234.446	26.34
234.662	26.77
234.879	28.52
235.095	28.5
235.312	29.46
235.528	29.04
235.744	29.38
235.961	28
236.177	28.24
236.393	29.16
236.61	30.18
236.826	30.11
237.042	30.71
237.258	30.88
237.475	30.81
237.691	30.67
237.907	30.87
238.123	30.06
238.339	30.46
238.556	30.92
238.772	29.2
238.988	27.98
239.204	27.62
239.42	27.04
239.636	25.56
239.853	24.9
240.069	23.38
240.285	21.82
240.501	20.05
240.717	19.27
240.933	17.21
241.149	16.36
241.365	15.31
241.581	15
241.797	13.56
242.013	12.6
242.229	12.46
242.445	11.79
242.661	11.77
242.877	11.92
243.093	11.71
243.309	11.69
243.525	11.76
243.741	12.37
243.957	12.73
244.173	13.74
244.388	14.87
244.604	15.05
244.82	16.07
245.036	15.23
245.252	14.77
245.468	14.29
245.683	14.14
245.899	13.26
246.115	12.07
246.331	11.02
246.547	10.68
246.762	9.97
246.978	9.59
247.194	9
247.409	9.01
247.625	8.83
247.841	8.25
248.057	8.21
248.272	8.03
248.488	8.27
248.703	8.51
248.919	8.57
249.135	8.92
249.35	9.53
249.566	10.21
249.782	10.61
249.997	10.94
250.213	12.17
250.428	12.49
250.644	13.44
250.859	13.46
251.075	12.97
251.29	13.63
251.506	13.36
251.721	12.43
251.937	12.29
252.152	12.23
252.368	12.18
252.583	12.5
252.798	12.32
253.014	12.96
253.229	13.48
253.445	14.06
253.66	13.47
253.875	13.58
254.091	14.81
254.306	15.31
254.521	16.84
254.737	18.54
254.952	17.49
255.167	18.05
255.383	17.12
255.598	16.75
255.813	17.59
256.028	17.72
256.244	17.09
256.459	16.76
256.674	15.56
256.889	13.93
257.104	13.31
257.32	13.69
257.535	12.38
257.75	11.76
257.965	11.47
258.18	10.55
258.395	9.93
258.61	9.56
258.826	8.84
259.041	8.97
259.256	8.48
259.471	7.97
259.686	7.57
259.901	7.49
260.116	7.41
260.331	7.22
260.546	7.41
260.761	7.23
260.976	7.31
261.191	7.02
261.406	6.81
261.621	7.19
261.836	7.11
262.05	7.68
262.265	8.06
262.48	8.21
262.695	8.47
262.91	8.69
263.125	8.9
263.34	8.96
263.555	10.28
263.769	10.55
263.984	10.55
264.199	11.16
264.414	10.57
264.629	10.6
264.843	11.12
265.058	11.19
265.273	10.55
265.488	10.53
265.702	10.49
265.917	9.8
266.132	9.7
266.346	9.6
266.561	9.6
266.776	9.69
266.99	9.8
267.205	9.68
267.42	9.42
267.634	9.13
267.849	9.28
268.063	9.64
268.278	9.61
268.492	9.54
268.707	9.5
268.922	8.95
269.136	9.05
269.351	8.32
269.565	8.12
269.78	8.14
269.994	8.11
270.209	8.04
270.423	7.33
270.637	7.24
270.852	6.8
271.066	6.29
271.281	6.67
271.495	6.52
271.709	6.56
271.924	6.25
272.138	6
272.353	5.99
272.567	5.87
272.781	6.1
272.996	5.89
273.21	6.33
273.424	6.61
273.638	6.38
273.853	6.42
274.067	6.67
274.281	7.15
274.495	7.25
274.71	7.87
274.924	8.21
275.138	8.31
275.352	8.52
275.566	8.83
275.781	8.98
275.995	9.57
276.209	9.84
276.423	9.84
276.637	10.06
276.851	10.34
277.065	9.73
277.279	9.33
277.493	9.32
277.707	9.62
277.921	9.33
278.135	8.96
278.349	8.29
278.563	8.11
278.777	8.4
278.991	7.95
279.205	8.24
279.419	8.91
279.633	9.12
279.847	9.09
280.061	9.1
280.275	8.32
280.489	8.51
280.703	8.43
280.917	7.91
281.131	7.89
281.344	7.77
281.558	7.5
281.772	7.48
281.986	7.63
282.2	7.61
282.414	7.52
282.627	8.07
282.841	8.15
283.055	8.38
283.269	9
283.482	8.44
283.696	8.53
283.91	8.37
284.123	7.59
284.337	7.12
284.551	6.93
284.764	6.56
284.978	6.06
285.192	5.9
285.405	5.83
285.619	5.47
285.833	5.67
286.046	5.62
286.26	5.48
286.473	5.75
286.687	5.82
286.9	5.83
287.114	6.05
287.327	6.42
287.541	6.59
287.754	6.74
287.968	6.91
288.181	6.85
288.395	6.82
288.608	7.16
288.822	7.27
289.035	6.98
289.248	6.87
289.462	6.5
289.675	6.28
289.889	6.22
290.102	5.76
290.315	5.56
290.529	5.76
290.742	5.75
290.955	5.75
291.169	5.83
291.382	6.26
291.595	6.1
291.808	6.44
292.022	6.91
292.235	7.3
292.448	7.79
292.661	8.04
292.875	8.17
293.088	8.25
293.301	8.11
293.514	8.07
293.727	7.97
293.94	8.3
294.153	8.35
294.367	7.95
294.58	7.36
294.793	7.28
295.006	6.87
295.219	6.39
295.432	6.36
295.645	6.3
295.858	5.88
296.071	5.82
296.284	5.96
296.497	5.56
296.71	5.6
296.923	5.67
297.136	5.67
297.349	5.88
297.562	6.2
297.775	6.01
297.988	6.24
298.201	6.52
298.414	6.51
298.626	6.32
298.839	6.5
299.052	6.54
299.265	6.78
299.478	6.83
299.691	6.87
299.903	7.08
300.116	7.4
300.329	7.21
300.542	7.34
300.755	7.34
300.967	7.56
301.18	7.74
301.393	7.62
301.605	7.81
301.818	7.78
302.031	7.88
302.243	7.42
302.456	7.33
302.669	7.67
302.881	7.43
303.094	7.97
303.307	7.57
303.519	7.7
303.732	8.25
303.944	7.81
304.157	7.85
304.37	7.61
304.582	7.98
304.795	8.22
305.007	8.08
305.22	8.26
305.432	7.76
305.645	8.29
305.857	8.41
306.069	8.36
306.282	8.66
306.494	8.74
306.707	9.13
306.919	9.23
307.132	9.36
307.344	9.18
307.556	9.3
307.769	9.6
307.981	9.24
308.193	8.96
308.406	8.64
308.618	8.41
308.83	8.4
309.043	8.09
309.255	7.73
309.467	7.29
309.679	7.22
309.892	7.21
310.104	7.14
310.316	7.31
310.528	7.33
310.74	7.41
310.953	7.18
311.165	7.2
311.377	7.61
311.589	7.77
311.801	8.09
312.013	8.05
312.225	8.01
312.437	7.82
312.649	7.93
312.862	7.89
313.074	7.93
313.286	8.49
313.498	8.8
313.71	8.49
313.922	8.48
314.134	8.43
314.346	8.43
314.558	8.79
314.77	9.14
314.982	9.35
315.193	9.68
315.405	9.88
315.617	9.86
315.829	9.93
316.041	10.38
316.253	10.41
316.465	10.77
316.677	11.23
316.888	11.07
317.1	11.4
317.312	11.31
317.524	11.55
317.736	11.8
317.947	12.49
318.159	12.16
318.371	12.07
318.583	12.55
318.794	12.39
319.006	12.28
319.218	12.49
319.43	12.35
319.641	12.4
319.853	11.99
320.064	12.29
320.276	11.86
320.488	12.56
320.699	12.46
320.911	12.67
321.123	13.08
321.334	12.99
321.546	13.34
321.757	13.79
321.969	14.24
322.18	14.66
322.392	14.35
322.603	14.57
322.815	13.99
323.026	14.36
323.238	14.05
323.449	13.41
323.661	13.89
323.872	13.57
324.083	13.11
324.295	12.56
324.506	12.67
324.718	12.39
324.929	12.42
325.14	12.72
325.352	12.54
325.563	13.13
325.774	13.56
325.986	13.56
326.197	13.59
326.408	13.96
326.62	14.47
326.831	14.3
327.042	14.88
327.253	15.22
327.464	15.38
327.676	15.46
327.887	15.12
328.098	15.52
328.309	15.56
328.52	15.85
328.732	15.7
328.943	15.86
329.154	16.39
329.365	16.61
329.576	16.42
329.787	16.85
329.998	17.72
330.209	18.24
330.42	18.22
330.631	18.48
330.842	18.7
331.053	19.42
331.264	19.31
331.475	19.25
331.686	19.03
331.897	19.14
332.108	18.95
332.319	18.53
332.53	18.34
332.741	18.22
332.952	18.41
333.163	18.64
333.374	18.55
333.585	18.74
333.795	18.98
334.006	19.01
334.217	19.1
334.428	19.01
334.639	19.48
334.849	19.24
335.06	19.49
335.271	19.63
335.482	19.55
335.692	19.25
335.903	19.17
336.114	18.68
336.325	18.78
336.535	18.49
336.746	18.62
336.957	18.36
337.167	18.54
337.378	18.72
337.589	18.44
337.799	18.08
338.01	18.24
338.22	18.39
338.431	19.02
338.642	19.16
338.852	19.33
339.063	19.26
339.273	19.13
339.484	18.89
339.694	18.66
339.905	18.51
340.115	18.79
340.326	18.7
340.536	18.36
340.746	18.09
340.957	18.19
341.167	18.19
341.378	18.33
341.588	18.34
341.799	18.66
342.009	18.66
342.219	18.71
342.43	18.46
342.64	18.6
342.85	18.84
343.061	19.01
343.271	18.93
343.481	19.07
343.691	18.91
343.902	19.02
344.112	19.07
344.322	18.72
344.532	18.92
344.743	18.68
344.953	18.57
345.163	18.6
345.373	18.15
345.583	18.08
345.793	18.11
346.004	18.23
346.214	17.92
346.424	17.81
346.634	18.33
346.844	18.17
347.054	18.64
347.264	18.73
347.474	18.49
347.684	18.83
347.894	18.55
348.104	18.24
348.314	17.81
348.524	17.76
348.734	17.69
348.944	17.55
349.154	17.51
349.364	17.64
349.574	17.39
349.784	17.52
349.994	17.44
350.204	17.79
350.413	17.99
350.623	18.43
350.833	18.59
351.043	18.72
351.253	18.55
351.463	18.74
351.672	18.64
351.882	18.79
352.092	18.68
352.302	18.37
352.511	18.39
352.721	18.31
352.931	17.96
353.141	17.9
353.35	17.92
353.56	18.01
353.77	18
353.979	17.68
354.189	17.41
354.399	17.62
354.608	17.94
354.818	17.7
355.027	17.66
355.237	17.44
355.447	17.59
355.656	17.15
355.866	17.05
356.075	17.09
356.285	17.23
356.494	17.61
356.704	17.44
356.913	17.52
357.123	17.57
357.332	17.47
357.542	17.67
357.751	17.46
357.96	17.71
358.17	17.51
358.379	17.37
358.589	17.43
358.798	17.2
359.007	17.4
359.217	17.2
359.426	16.95
359.635	17.03
359.845	16.98
360.054	16.88
360.263	16.81
360.472	16.9
360.682	16.55
360.891	16.37
361.1	16.18
361.309	15.82
361.519	15.88
361.728	15.79
361.937	15.69
362.146	15.56
362.355	15.57
362.564	15.65
362.774	15.52
362.983	15.56
363.192	15.59
363.401	15.61
363.61	15.78
363.819	15.68
364.028	15.97
364.237	16.07
364.446	16.15
364.655	16.15
364.864	15.97
365.073	16.12
365.282	16.34
365.491	16.28
365.7	16.26
365.909	16.04
366.118	16.17
366.327	16.09
366.536	16.02
366.745	16.01
366.954	16.23
367.162	16.36
367.371	16.27
367.58	16.39
367.789	16.45
367.998	16.66
368.207	16.78
368.415	16.52
368.624	16.45
368.833	16.43
369.042	16.59
369.25	16.58
369.459	16.5
369.668	16.51
369.877	16.17
370.085	16.05
370.294	16.01
370.503	16.17
370.711	16.33
370.92	16.15
371.129	16.18
371.337	15.99
371.546	15.91
371.754	15.94
371.963	15.68
372.171	15.78
372.38	16.02
372.589	15.79
372.797	15.6
373.006	15.58
373.214	15.53
373.423	15.2
373.631	15.24
373.84	15
374.048	14.91
374.256	15.27
374.465	15.25
374.673	15.02
374.882	15.34
375.09	15.37
375.298	15.13
375.507	15.28
375.715	15.47
375.923	15.32
376.132	15.31
376.34	15.16
376.548	14.85
376.757	14.99
376.965	15.11
377.173	14.83
377.381	14.61
377.59	15.07
377.798	15.01
378.006	14.86
378.214	14.63
378.423	14.67
378.631	14.82
378.839	14.99
379.047	14.74
379.255	14.68
379.463	14.9
379.671	15.03
379.879	14.61
380.088	14.48
380.296	14.51
380.504	14.77
380.712	14.63
380.92	14.6
381.128	14.56
381.336	14.53
381.544	14.28
381.752	13.98
381.96	14.05
382.168	13.87
382.376	13.93
382.584	13.95
382.791	14.06
382.999	14
383.207	13.66
383.415	13.66
383.623	13.56
383.831	13.45
384.039	13.54
384.247	13.7
384.454	14.02
384.662	14.04
384.87	13.92
385.078	13.82
385.285	13.83
385.493	14
385.701	13.85
385.909	13.79
386.116	14.01
386.324	13.8
386.532	13.5
386.739	13.44
386.947	13.55
387.155	13.8
387.362	13.71
387.57	13.83
387.778	13.72
387.985	13.82
388.193	13.95
388.4	13.81
388.608	14.09
388.816	14.06
389.023	13.9
389.231	13.69
389.438	13.43
389.646	13.59
389.853	13.51
390.061	13.44
390.268	13.4
390.475	13.14
390.683	13.22
390.89	13.02
391.098	13.04
391.305	13.12
391.512	12.99
391.72	13.03
391.927	12.84
392.135	12.9
392.342	12.98
392.549	13.02
392.756	13.06
392.964	12.84
393.171	13.04
393.378	13.06
393.586	12.82
393.793	12.78
394	12.7
394.207	12.82
394.414	12.75
394.622	12.64
394.829	12.6
395.036	12.65
395.243	12.9
395.45	12.68
395.657	12.6
395.864	12.77
396.072	12.91
396.279	13.12
396.486	13
396.693	13
396.9	13.08
397.107	13.03
397.314	13.13
397.521	13.06
397.728	13.12
397.935	13.05
398.142	12.91
398.349	12.99
398.556	12.94
398.763	12.86
398.97	12.78
399.177	12.8
399.383	12.78
399.59	12.81
399.797	12.95
400.004	12.97
400.211	13.16
400.418	13.24
400.625	13.22
400.831	13.19
401.038	13.31
401.245	13.32
401.452	13.29
401.658	13.27
401.865	13.31
402.072	13.2
402.279	13.21
402.485	12.94
402.692	12.88
402.899	12.86
403.105	12.96
403.312	12.9
403.519	12.81
403.725	12.91
403.932	12.79
404.138	12.65
404.345	12.5
404.552	12.35
404.758	12.5
404.965	12.35
405.171	12.18
405.378	12.02
405.584	12.07
405.791	12.12
405.997	12.05
406.204	12.3
406.41	12.31
406.617	12.53
406.823	12.62
407.029	12.63
407.236	12.91
407.442	13.11
407.649	13.12
407.855	13.19
408.061	13.3
408.268	13.34
408.474	13.27
408.68	13.22
408.887	13.18
409.093	13.23
409.299	13.44
409.505	13.28
409.712	13.11
409.918	13.12
410.124	12.98
410.33	12.87
410.537	12.7
410.743	12.71
410.949	12.75
411.155	12.58
411.361	12.51
411.567	12.29
411.773	12.39
411.98	12.51
412.186	12.48
412.392	12.62
412.598	12.67
412.804	12.69
413.01	12.54
413.216	12.69
413.422	12.69
413.628	12.79
413.834	12.76
414.04	12.61
414.246	12.63
414.452	12.59
414.658	12.48
414.864	12.35
415.07	12.48
415.275	12.55
415.481	12.47
415.687	12.33
415.893	12.1
416.099	12.12
416.305	12.25
416.511	12.24
416.716	12.12
416.922	12.08
417.128	12.1
417.334	11.97
417.539	11.94
417.745	11.71
417.951	11.84
418.157	11.98
418.362	11.88
418.568	11.79
418.774	11.71
418.979	11.85
419.185	11.8
419.391	11.76
419.596	11.71
419.802	11.61
420.008	11.75
420.213	12.4
420.419	12.35
420.624	12.33
420.83	12.34
421.035	12.27
421.241	12.23
421.446	12.19
421.652	12.15
421.857	12.16
422.063	12.13
422.268	12.03
422.474	11.38
422.679	11.37
422.885	11.37
423.09	11.34
423.295	11.31
423.501	11.28
423.706	11.38
423.911	11.41
424.117	11.47
424.322	11.49
424.527	11.55
424.733	11.59
424.938	11.56
425.143	11.55
425.349	11.58
425.554	11.67
425.759	11.75
425.964	11.66
426.169	11.76
426.375	11.79
426.58	11.93
426.785	11.94
426.99	11.96
427.195	12.02
427.4	12
427.605	12.06
427.811	12.12
428.016	12.03
428.221	12.3
428.426	12.26
428.631	12.32
428.836	12.29
429.041	12.29
429.246	12.23
429.451	12.26
429.656	12.42
429.861	12.51
430.066	12.46
430.271	12.51
430.476	12.44
430.681	12.52
430.886	12.39
431.09	12.41
431.295	12.45
431.5	12.56
431.705	12.49
431.91	12.52
432.115	12.42
432.32	12.51
432.524	12.46
432.729	12.45
432.934	12.36
433.139	12.38
433.343	12.4
433.548	12.37
433.753	12.4
433.958	12.35
434.162	12.32
434.367	12.4
434.572	12.37
434.776	12.38
434.981	12.36
435.186	12.38
435.39	12.49
435.595	12.45
435.799	12.47
436.004	12.41
436.209	12.54
436.413	12.57
436.618	12.43
436.822	12.39
437.027	12.36
437.231	12.3
437.436	12.41
437.64	12.39
437.845	12.4
438.049	12.49
438.253	12.49
438.458	12.47
438.662	12.47
438.867	12.52
439.071	12.54
439.275	12.48
439.48	12.48
439.684	12.36
439.888	12.35
440.093	12.33
440.297	12.19
440.501	12.2
440.706	12.14
440.91	12.09
441.114	12.05
441.318	12.09
441.523	12.18
441.727	12.22
441.931	12.3
442.135	12.33
442.339	12.32
442.543	12.51
442.748	12.48
442.952	12.64
443.156	12.57
443.36	12.63
443.564	12.61
443.768	12.7
443.972	12.66
444.176	12.59
444.38	12.52
444.584	12.59
444.788	12.47
444.992	12.44
445.196	12.33
445.4	12.35
445.604	12.36
445.808	12.35
446.012	12.27
446.216	12.25
446.42	12.29
446.624	12.27
446.828	12.17
447.032	12.18
447.235	12.19
447.439	12.23
447.643	12.32
447.847	12.24
448.051	12.27
448.254	12.27
448.458	12.3
448.662	12.32
448.866	12.37
449.069	12.5
449.273	12.53
449.477	12.52
449.681	12.54
449.884	12.54
450.088	12.72
450.292	12.7
450.495	12.68
450.699	12.7
450.902	12.62
451.106	12.59
451.31	12.63
451.513	12.59
451.717	12.58
451.92	12.54
452.124	12.51
452.327	12.39
452.531	12.36
452.734	12.38
452.938	12.4
453.141	12.47
453.345	12.58
453.548	12.55
453.752	12.56
453.955	12.73
454.158	12.71
454.362	12.76
454.565	12.8
454.769	12.9
454.972	12.91
455.175	12.95
455.379	12.98
455.582	12.88
455.785	12.83
455.988	12.9
456.192	12.81
456.395	12.79
456.598	12.85
456.801	12.84
457.005	12.81
457.208	12.88
457.411	12.84
457.614	12.74
457.817	12.68
458.021	12.63
458.224	12.58
458.427	12.53
458.63	12.54
458.833	12.41
459.036	12.35
459.239	12.28
459.442	12.24
459.645	12.15
459.848	12.17
460.051	12.22
460.254	12.24
460.457	12.21
460.66	12.26
460.863	12.28
461.066	12.37
461.269	12.39
461.472	12.55
461.675	12.48
461.878	12.65
462.081	12.75
462.284	12.77
462.486	12.76
462.689	12.69
462.892	12.74
463.095	12.71
463.298	12.67
463.5	12.77
463.703	12.65
463.906	12.78
464.109	12.69
464.311	12.63
464.514	12.65
464.717	12.76
464.92	12.97
465.122	13.02
465.325	13.14
465.528	13.14
465.73	13.11
465.933	13.14
466.135	13.05
466.338	13.02
466.541	12.96
466.743	12.93
466.946	12.91
467.148	12.79
467.351	12.75
467.553	12.77
467.756	12.76
467.958	12.69
468.161	12.75
468.363	12.84
468.566	12.86
468.768	12.98
468.971	12.99
469.173	13
469.375	13.09
469.578	13.2
469.78	13.13
469.983	13.21
470.185	13.25
470.387	13.27
470.59	13.25
470.792	13.31
470.994	13.33
471.196	13.4
471.399	13.43
471.601	13.39
471.803	13.21
472.005	13.17
472.208	13.09
472.41	13.12
472.612	13.11
472.814	13.16
473.016	13.2
473.218	13.21
473.421	13.11
473.623	13.03
473.825	13.1
474.027	13.18
474.229	13.17
474.431	13.24
474.633	13.24
474.835	13.2
475.037	13.15
475.239	13
475.441	12.91
475.643	12.93
475.845	12.87
476.047	12.74
476.249	12.66
476.451	12.61
476.653	12.58
476.855	12.63
477.057	12.58
477.258	12.51
477.46	12.51
477.662	12.5
477.864	12.53
478.066	12.69
478.268	12.74
478.469	12.81
478.671	12.89
478.873	12.88
479.075	12.84
479.276	12.85
479.478	13
479.68	13.01
479.882	13.02
480.083	12.93
480.285	12.84
480.487	12.83
480.688	12.76
480.89	12.74
481.091	12.72
481.293	12.69
481.495	12.59
481.696	12.46
481.898	12.37
482.099	12.31
482.301	12.24
482.502	12.19
482.704	12.1
482.905	12.08
483.107	12
483.308	11.96
483.51	11.88
483.711	11.88
483.913	11.85
484.114	11.89
484.315	11.87
484.517	11.86
484.718	11.82
484.92	11.84
485.121	11.82
485.322	11.85
485.524	11.85
485.725	11.9
485.926	11.92
486.127	11.93
486.329	11.88
486.53	11.87
486.731	11.89
486.932	11.92
487.134	11.9
487.335	11.86
487.536	11.83
487.737	11.84
487.938	11.83
488.139	11.83
488.341	11.86
488.542	11.85
488.743	11.87
488.944	11.88
489.145	11.89
489.346	11.93
489.547	12
489.748	12.04
489.949	12.07
490.15	12.07
490.351	12.08
490.552	12.06
490.753	12.07
490.954	12.07
491.155	12.09
491.356	12.13
491.557	12.16
491.758	12.21
491.959	12.2
492.159	12.17
492.36	12.16
492.561	12.19
492.762	12.21
492.963	12.3
493.164	12.3
493.364	12.31
493.565	12.32
493.766	12.33
493.967	12.33
494.167	12.4
494.368	12.46
494.569	12.57
494.769	12.61
494.97	12.69
495.171	12.75
495.371	12.86
495.572	12.87
495.773	12.85
495.973	12.9
496.174	12.88
496.375	12.78
496.575	12.77
496.776	12.88
496.976	12.88
497.177	12.85
497.377	12.76
497.578	12.79
497.778	12.8
497.979	12.86
498.179	12.85
498.38	12.93
498.58	13.12
498.78	13.17
498.981	13.1
499.181	13.07
499.382	13.09
499.582	13.17
499.782	13.16
499.983	13.23
500.183	13.29
500.383	13.29
500.584	13.26
500.784	13.24
500.984	13.26
501.184	13.29
501.385	13.37
501.585	13.43
501.785	13.45
501.985	13.5
502.185	13.51
502.386	13.53
502.586	13.55
502.786	13.59
502.986	13.63
503.186	13.67
503.386	13.77
503.586	13.76
503.786	13.81
503.987	13.78
504.187	13.79
504.387	13.84
504.587	13.82
504.787	13.88
504.987	13.86
505.187	13.9
505.387	13.9
505.587	13.96
505.786	13.95
505.986	13.94
506.186	13.99
506.386	14.05
506.586	14.08
506.786	14.05
506.986	14.08
507.186	14.13
507.386	14.08
507.585	14.14
507.785	14.08
507.985	14.16
508.185	14.18
508.384	14.23
508.584	14.21
508.784	14.13
508.984	14.3
509.183	14.31
509.383	14.27
509.583	14.34
509.782	14.31
509.982	14.29
510.182	14.32
510.381	14.35
510.581	14.35
510.781	14.44
510.98	14.59
511.18	14.51
511.379	14.58
511.579	14.69
511.778	14.67
511.978	14.71
512.177	14.82
512.377	14.85
512.576	14.94
512.776	14.94
512.975	14.93
513.175	14.98
513.374	15.1
513.573	15.1
513.773	15.19
513.972	15.32
514.172	15.44
514.371	15.48
514.57	15.61
514.77	15.66
514.969	15.74
515.168	15.79
515.367	15.83
515.567	15.91
515.766	16.02
515.965	16.01
516.164	15.9
516.364	15.87
516.563	15.8
516.762	15.72
516.961	15.69
517.16	15.7
517.359	15.69
517.559	15.68
517.758	15.61
517.957	15.55
518.156	15.6
518.355	15.63
518.554	15.63
518.753	15.73
518.952	15.83
519.151	15.86
519.35	15.9
519.549	15.96
519.748	15.98
519.947	16.1
520.146	16.19
520.345	16.2
520.544	16.34
520.743	16.44
520.942	16.46
521.141	16.48
521.339	16.62
521.538	16.63
521.737	16.76
521.936	16.87
522.135	16.85
522.333	16.96
522.532	17.11
522.731	17.13
522.93	17.14
523.129	17.26
523.327	17.29
523.526	17.27
523.725	17.36
523.923	17.3
524.122	17.36
524.321	17.4
524.519	17.35
524.718	17.27
524.917	17.27
525.115	17.28
525.314	17.25
525.512	17.3
525.711	17.3
525.909	17.38
526.108	17.45
526.306	17.38
526.505	17.38
526.703	17.41
526.902	17.42
527.1	17.4
527.299	17.45
527.497	17.45
527.696	17.41
527.894	17.43
528.092	17.39
528.291	17.37
528.489	17.42
528.688	17.43
528.886	17.46
529.084	17.47
529.283	17.53
529.481	17.53
529.679	17.58
529.877	17.63
530.076	17.65
530.274	17.72
530.472	17.84
530.67	17.9
530.869	17.97
531.067	18.04
531.265	18.18
531.463	18.23
531.661	18.31
531.859	18.34
532.057	18.43
532.255	18.44
532.454	18.47
532.652	18.4
532.85	18.41
533.048	18.47
533.246	18.49
533.444	18.51
533.642	18.56
533.84	18.58
534.038	18.63
534.236	18.61
534.434	18.69
534.632	18.74
534.83	18.86
535.027	18.93
535.225	18.95
535.423	19
535.621	19.02
535.819	19.04
536.017	19.1
536.215	19.12
536.412	19.18
536.61	19.17
536.808	19.21
537.006	19.22
537.203	19.26
537.401	19.42
537.599	19.5
537.797	19.56
537.994	19.67
538.192	19.72
538.39	19.79
538.587	19.88
538.785	19.95
538.983	19.99
539.18	19.97
539.378	20.01
539.575	19.91
539.773	19.89
539.97	19.85
540.168	19.9
540.366	19.88
540.563	19.87
540.761	19.87
540.958	19.83
541.155	19.86
541.353	19.93
541.55	19.87
541.748	19.86
541.945	19.83
542.143	19.87
542.34	19.88
542.537	19.94
542.735	19.96
542.932	20
543.129	20.19
543.327	20.25
543.524	20.37
543.721	20.58
543.919	20.74
544.116	20.92
544.313	21.14
544.51	21.25
544.708	21.33
544.905	21.56
545.102	21.74
545.299	21.72
545.496	21.77
545.693	21.78
545.891	21.81
546.088	21.89
546.285	21.86
546.482	21.76
546.679	21.74
546.876	21.78
547.073	21.66
547.27	21.52
547.467	21.53
547.664	21.55
547.861	21.49
548.058	21.49
548.255	21.36
548.452	21.42
548.649	21.46
548.846	21.43
549.043	21.47
549.24	21.64
549.437	21.69
549.633	21.74
549.83	21.91
550.027	22.02
550.224	21.92
550.421	21.9
550.618	21.8
550.814	21.75
551.011	21.79
551.208	21.8
551.405	21.66
551.601	21.77
551.798	21.65
551.995	21.52
552.191	21.46
552.388	21.53
552.585	21.58
552.781	21.63
552.978	21.64
553.175	21.59
553.371	21.66
553.568	21.63
553.764	21.43
553.961	21.44
554.157	21.39
554.354	21.45
554.55	21.45
554.747	21.52
554.943	21.59
555.14	21.61
555.336	21.7
555.533	21.58
555.729	21.68
555.926	21.81
556.122	21.97
556.318	22.13
556.515	22.07
556.711	22.05
556.907	21.96
557.104	21.95
557.3	22.05
557.496	22.05
557.693	22.1
557.889	22.22
558.085	22.3
558.281	22.34
558.478	22.24
558.674	22.11
558.87	22.17
559.066	22.16
559.262	22.31
559.459	22.15
559.655	22.26
559.851	22.26
560.047	22.12
560.243	22.03
560.439	21.87
560.635	21.97
560.831	22.14
561.027	22.12
561.223	22.15
561.419	22.03
561.615	22.11
561.811	22.13
562.007	22.1
562.203	22.21
562.399	22.24
562.595	22.22
562.791	22.26
562.987	22.31
563.183	22.29
563.379	22.29
563.575	22.32
563.771	22.41
563.966	22.19
564.162	22.15
564.358	22.01
564.554	22.03
564.75	21.98
564.945	21.85
565.141	21.75
565.337	21.66
565.533	21.67
565.728	21.57
565.924	21.56
566.12	21.67
566.315	21.58
566.511	21.64
566.707	21.6
566.902	21.66
567.098	21.73
567.293	21.75
567.489	21.89
567.684	21.9
567.88	21.75
568.076	21.72
568.271	21.66
568.467	21.82
568.662	21.75
568.858	21.89
569.053	21.96
569.248	21.93
569.444	21.87
569.639	21.78
569.835	21.73
570.03	21.97
570.225	21.88
570.421	21.91
570.616	21.85
570.812	21.83
571.007	21.77
571.202	21.68
571.397	21.64
571.593	21.57
571.788	21.64
571.983	21.76
572.178	21.73
572.374	21.71
572.569	21.78
572.764	21.89
572.959	22.01
573.154	21.99
573.35	22.03
573.545	22.07
573.74	22.22
573.935	22.26
574.13	22.11
574.325	22.11
574.52	22.25
574.715	22.3
574.91	22.31
575.105	22.33
575.3	22.34
575.495	22.38
575.69	22.37
575.885	22.43
576.08	22.42
576.275	22.6
576.47	22.7
576.665	22.79
576.86	22.58
577.055	22.58
577.25	22.63
577.444	22.77
577.639	22.92
577.834	23.05
578.029	23.11
578.224	23.16
578.418	23.22
578.613	23.28
578.808	23.29
579.003	23.56
579.197	23.6
579.392	23.51
579.587	23.48
579.781	23.4
579.976	23.39
580.171	23.39
580.365	23.52
580.56	23.55
580.755	23.54
580.949	23.5
581.144	23.49
581.338	23.43
581.533	23.59
581.727	23.69
581.922	23.7
582.116	23.79
582.311	23.84
582.505	23.62
582.7	23.68
582.894	23.66
583.089	23.81
583.283	23.77
583.478	23.84
583.672	23.88
583.866	23.86
584.061	23.92
584.255	23.85
584.449	23.84
584.644	24.07
584.838	24.22
585.032	24.18
585.226	24.24
585.421	24.38
585.615	24.46
585.809	24.44
586.003	24.37
586.198	24.41
586.392	24.48
586.586	24.56
586.78	24.55
586.974	24.37
587.168	24.4
587.363	24.31
587.557	24.19
587.751	24.16
587.945	23.99
588.139	24.1
588.333	23.95
588.527	23.95
588.721	23.84
588.915	23.68
589.109	23.65
589.303	23.45
589.497	23.29
589.691	23.23
589.885	23.06
590.079	23.23
590.273	23.06
590.466	23.26
590.66	23.23
590.854	23.4
591.048	23.42
591.242	23.44
591.436	23.7
591.629	23.94
591.823	24.06
592.017	24.36
592.211	24.3
592.404	24.35
592.598	24.19
592.792	24.27
592.986	24.24
593.179	24.22
593.373	24.24
593.567	24.17
593.76	24.05
593.954	23.97
594.147	23.77
594.341	23.71
594.535	23.78
594.728	23.83
594.922	23.77
595.115	23.64
595.309	23.65
595.502	23.53
595.696	23.5
595.889	23.36
596.083	23.32
596.276	23.24
596.47	23.46
596.663	23.35
596.856	23.32
597.05	23.27
597.243	23.26
597.437	23.32
597.63	23.54
597.823	23.57
598.017	23.72
598.21	23.74
598.403	23.93
598.596	23.85
598.79	24.03
598.983	24.15
599.176	24.27
599.369	24.36
599.563	24.38
599.756	24.25
599.949	24.16
600.142	24.19
600.335	24.4
600.528	24.4
600.722	24.44
600.915	24.56
601.108	24.59
601.301	24.57
601.494	24.55
601.687	24.4
601.88	24.33
602.073	24.39
602.266	24.32
602.459	24.14
602.652	23.98
602.845	23.74
603.038	23.53
603.231	23.53
603.424	23.51
603.617	23.38
603.809	23.39
604.002	23.35
604.195	23.38
604.388	23.5
604.581	23.45
604.774	23.39
604.966	23.49
605.159	23.65
605.352	23.62
605.545	23.7
605.737	23.89
605.93	24.07
606.123	24.31
606.316	24.48
606.508	24.64
606.701	24.8
606.894	25.22
607.086	25.32
607.279	25.38
607.471	25.49
607.664	25.51
607.857	25.71
608.049	25.91
608.242	25.95
608.434	26.08
608.627	26.27
608.819	26.63
609.012	27.06
609.204	27.65
609.397	28.3
609.589	29.03
609.782	29.86
609.974	30.65
610.166	31.48
610.359	32.26
610.551	33.06
610.743	33.68
610.936	34.33
611.128	34.7
611.32	35.07
611.513	35.15
611.705	35.14
611.897	34.82
612.09	34.65
612.282	34.32
612.474	34.06
612.666	33.76
612.858	33.41
613.051	33.06
613.243	32.47
613.435	32.06
613.627	31.75
613.819	31.54
614.011	31.69
614.203	31.36
614.395	30.93
614.588	30.71
614.78	30.5
614.972	30.16
615.164	29.94
615.356	29.9
615.548	29.59
615.74	29.4
615.932	29
616.124	28.57
616.315	28.32
616.507	28.3
616.699	27.9
616.891	27.61
617.083	27.62
617.275	27.49
617.467	27.41
617.659	27.49
617.85	27.3
618.042	27.26
618.234	27.14
618.426	27.08
618.618	26.95
618.809	27.17
619.001	27.2
619.193	27.17
619.384	27.25
619.576	27.56
619.768	27.43
619.959	27.61
620.151	27.62
620.343	27.62
620.534	27.72
620.726	27.78
620.917	27.69
621.109	27.73
621.301	27.87
621.492	27.76
621.684	27.51
621.875	27.54
622.067	27.32
622.258	27.52
622.45	27.57
622.641	27.43
622.832	27.56
623.024	27.69
623.215	27.58
623.407	27.24
623.598	27.37
623.789	27.36
623.981	27.33
624.172	27.45
624.363	27.34
624.555	27.15
624.746	27.18
624.937	27.11
625.129	26.86
625.32	26.87
625.511	26.97
625.702	26.8
625.893	26.8
626.085	26.74
626.276	26.69
626.467	26.57
626.658	26.59
626.849	26.53
627.04	26.4
627.231	26.58
627.422	26.53
627.614	26.53
627.805	26.53
627.996	26.54
628.187	26.6
628.378	26.51
628.569	26.77
628.76	26.98
628.951	27.18
629.142	27.37
629.332	27.49
629.523	27.62
629.714	27.76
629.905	28.17
630.096	28.27
630.287	28.21
630.478	28.35
630.669	28.36
630.859	28.35
631.05	28.21
631.241	28.13
631.432	27.84
631.623	27.65
631.813	27.46
632.004	27.01
632.195	26.59
632.385	26.68
632.576	26.6
632.767	26.4
632.957	26.41
633.148	26.31
633.339	26.07
633.529	26.02
633.72	25.94
633.91	25.93
634.101	26.1
634.292	26.39
634.482	26.34
634.673	26.35
634.863	26.36
635.054	26.07
635.244	26.06
635.435	26.23
635.625	26.34
635.815	26.34
636.006	26.53
636.196	26.26
636.387	26.14
636.577	26.18
636.767	26.33
636.958	26.41
637.148	26.56
637.338	26.57
637.529	26.72
637.719	26.81
637.909	27
638.099	26.82
638.29	27.13
638.48	27.43
638.67	27.38
638.86	27.24
639.05	27.1
639.241	27.32
639.431	27.23
639.621	27.14
639.811	27.1
640.001	27.3
640.191	27.28
640.381	27.25
640.571	27.28
640.761	27.31
640.951	27.61
641.141	27.6
641.331	27.52
641.521	27.68
641.711	27.73
641.901	27.75
642.091	27.71
642.281	27.95
642.471	28.03
642.661	28
642.851	28.1
643.041	27.88
643.231	28.01
643.42	28.13
643.61	28.26
643.8	28.4
643.99	28.56
644.18	28.5
644.369	28.48
644.559	28.28
644.749	28.19
644.939	28.18
645.128	28.19
645.318	28.02
645.508	28
645.697	27.67
645.887	27.73
646.076	27.54
646.266	27.59
646.456	27.6
646.645	27.49
646.835	27.48
647.024	27.42
647.214	27.45
647.403	27.78
647.593	27.59
647.782	28.12
647.972	27.97
648.161	28.05
648.351	28.22
648.54	28.18
648.73	28.37
648.919	28.34
649.108	28.39
649.298	28.59
649.487	28.39
649.677	28.56
649.866	28.31
650.055	28.53
650.244	28.58
650.434	28.29
650.623	28.34
650.812	28.4
651.002	28.45
651.191	28.59
651.38	28.46
651.569	28.5
651.758	28.33
651.947	28.33
652.137	28.23
652.326	28.19
652.515	28.21
652.704	28.01
652.893	27.96
653.082	27.89
653.271	27.6
653.46	27.58
653.649	27.64
653.838	27.65
654.027	27.74
654.216	27.68
654.405	27.66
654.594	27.71
654.783	27.73
654.972	27.69
655.161	27.67
655.35	27.66
655.539	27.61
655.728	27.64
655.916	27.77
656.105	27.79
656.294	27.84
656.483	27.66
656.672	27.76
656.86	28.04
657.049	28.06
657.238	28
657.427	28.11
657.615	28.06
657.804	27.88
657.993	27.7
658.181	27.41
658.37	27.21
658.559	27.36
658.747	27.27
658.936	27.09
659.125	26.43
659.313	26.55
659.502	26.68
659.69	26.73
659.879	26.84
660.067	26.91
660.256	27.06
660.444	27.11
660.633	27.12
660.821	27.15
661.01	27.39
661.198	28.13
661.387	28.04
661.575	28.01
661.763	28.15
661.952	28.15
662.14	28.36
662.328	28.41
662.517	28.6
662.705	28.65
662.893	28.86
663.082	28.72
663.27	28.84
663.458	28.88
663.646	29.09
663.834	29.35
664.023	29.44
664.211	29.45
664.399	29.73
664.587	29.55
664.775	29.35
664.963	29.36
665.152	29.37
665.34	29.17
665.528	29.53
665.716	29.46
665.904	29.05
666.092	29.3
666.28	29.29
666.468	29
666.656	29.2
666.844	29.48
667.032	29.26
667.22	29.25
667.408	29.73
667.596	29.58
667.784	29.6
667.971	29.67
668.159	29.45
668.347	29.55
668.535	29.61
668.723	29.57
668.911	29.43
669.098	29.62
669.286	29.76
669.474	29.28
669.662	29.46
669.849	29.25
670.037	29.27
670.225	29.34
670.413	29.32
670.6	29.5
670.788	29.43
670.976	29.52
671.163	29.32
671.351	29.5
671.538	30
671.726	29.8
671.913	29.82
672.101	29.86
672.289	29.81
672.476	29.55
672.664	29.53
672.851	29.86
673.039	30.02
673.226	30.09
673.413	29.66
673.601	29.48
673.788	29.95
673.976	30.03
674.163	30.09
674.35	30.4
674.538	30.5
674.725	30.85
674.912	30.75
675.1	30.53
675.287	30.72
675.474	30.94
675.662	30.84
675.849	30.75
676.036	30.79
676.223	30.74
676.411	30.63
676.598	30.82
676.785	30.36
676.972	30.29
677.159	30.4
677.346	30.3
677.533	30.35
677.721	30.29
677.908	29.88
678.095	29.81
678.282	29.71
678.469	29.44
678.656	29.31
678.843	29.24
679.03	29.11
679.217	29.01
679.404	29.03
679.591	28.67
679.778	28.62
679.964	28.46
680.151	28.36
680.338	28.33
680.525	28.33
680.712	28
680.899	28
681.086	27.95
681.272	27.86
681.459	27.81
681.646	28.34
681.833	28.55
682.02	28.64
682.206	28.79
682.393	29
682.58	28.96
682.766	29.46
682.953	29.56
683.14	29.65
683.326	30.08
683.513	30.27
683.7	29.94
683.886	29.95
684.073	30.11
684.259	30.22
684.446	30.39
684.632	30.73
684.819	30.67
685.005	30.95
685.192	31.22
685.378	31.12
685.565	30.81
685.751	31.01
685.938	30.83
686.124	30.81
686.31	30.78
686.497	30.58
686.683	30.32
686.87	30.24
687.056	30.03
687.242	29.97
687.429	29.88
687.615	29.98
687.801	29.84
687.987	29.94
688.174	30.21
688.36	30.3
688.546	30.56
688.732	30.49
688.918	30.77
689.105	31.04
689.291	30.9
689.477	31.04
689.663	31.13
689.849	31.16
690.035	31.28
690.221	31.3
690.407	31.21
690.593	31.17
690.779	31.23
690.965	30.9
691.151	30.73
691.337	31
691.523	31.12
691.709	31.43
691.895	31.73
692.081	31.58
692.267	31.46
692.453	31.61
692.639	31.58
692.825	31.69
693.011	31.96
693.196	32.21
693.382	31.94
693.568	31.76
693.754	31.86
693.94	31.8
694.125	31.86
694.311	31.85
694.497	31.85
694.682	31.58
694.868	31.77
695.054	31.77
695.239	31.55
695.425	31.82
695.611	32.02
695.796	31.73
695.982	31.29
696.168	31.27
696.353	30.96
696.539	30.58
696.724	30.31
696.91	30.09
697.095	29.75
697.281	29.49
697.466	29.28
697.652	28.92
697.837	28.55
698.023	28.72
698.208	28.31
698.393	28.28
698.579	28.36
698.764	28.45
698.949	28.33
699.135	28.31
699.32	28.29
699.505	28.14
699.691	28.14
699.876	28.3
700.061	28.27
700.246	28.69
700.432	28.97
700.617	28.86
700.802	28.98
700.987	29.33
701.172	29.58
701.358	30.21
701.543	30.55
701.728	30.99
701.913	31.22
702.098	31.57
702.283	31.79
702.468	31.89
702.653	32.52
702.838	32.9
703.023	33.13
703.208	33.4
703.393	33.63
703.578	33.72
703.763	33.99
703.948	34.24
704.133	34.41
704.318	34.44
704.503	34.52
704.688	34.81
704.873	35.23
705.057	35.3
705.242	36.01
705.427	35.84
705.612	35.91
705.797	36.23
705.981	36
706.166	36.57
706.351	36.75
706.536	36.68
706.72	36.41
706.905	36.32
707.09	36.41
707.274	36.01
707.459	35.96
707.644	36.27
707.828	35.7
708.013	36.18
708.197	35.64
708.382	35.85
708.567	36.29
708.751	36.37
708.936	36
709.12	35.98
709.305	35.81
709.489	35.72
709.673	35.58
709.858	35.35
710.042	35.35
710.227	35.2
710.411	34.99
710.596	34.74
710.78	34.9
710.964	35.07
711.149	35.09
711.333	35
711.517	35.01
711.702	35.13
711.886	35.34
712.07	34.99
712.254	35.1
712.438	34.71
712.623	34.99
712.807	34.72
712.991	34.92
713.175	34.33
713.359	34.3
713.544	34.16
713.728	34.06
713.912	34.02
714.096	33.64
714.28	33.15
714.464	33.37
714.648	33.02
714.832	32.9
715.016	32.71
715.2	33.02
715.384	32.77
715.568	32.8
715.752	32.85
715.936	32.57
716.12	32.73
716.304	33.16
716.488	33.21
716.671	33.29
716.855	33.22
717.039	33.06
717.223	32.89
717.407	32.78
717.59	32.94
717.774	32.7
717.958	33.18
718.142	33.21
718.325	33.1
718.509	32.75
718.693	32.32
718.877	32.17
719.06	31.97
719.244	32.43
719.428	33.17
719.611	33.08
719.795	32.9
719.978	33.13
720.162	33.52
720.345	33.51
720.529	34.08
720.713	34.43
720.896	34.62
721.08	35.26
721.263	35.42
721.446	35.04
721.63	34.9
721.813	35.64
721.997	35.52
722.18	35.79
722.364	36.2
722.547	36.17
722.73	36.49
722.914	36.63
723.097	35.96
723.28	35.66
723.464	36.13
723.647	36.53
723.83	35.72
724.013	35.37
724.197	35.1
724.38	34.65
724.563	34.59
724.746	34.27
724.929	34.45
725.112	34.79
725.296	34.47
725.479	33.95
725.662	33.91
725.845	34.2
726.028	34.05
726.211	33.81
726.394	33.77
726.577	34.01
726.76	33.87
726.943	33.37
727.126	32.81
727.309	33.08
727.492	33.15
727.675	33.15
727.858	33.5
728.041	33.62
728.224	33.53
728.407	33.89
728.589	33.4
728.772	33.47
728.955	33.93
729.138	34.28
729.321	34.01
729.503	34.01
729.686	33.4
729.869	32.68
730.052	32.67
730.234	32.83
730.417	33.17
730.6	33.38
730.782	33.35
730.965	33.11
731.148	33.24
731.33	33.56
731.513	33.41
731.695	33.73
731.878	33.92
732.061	34.15
732.243	33.95
732.426	33.28
732.608	33.62
732.791	33.98
732.973	34.05
733.156	34.22
733.338	33.85
733.52	34.19
733.703	34.11
733.885	34.35
734.068	34.06
734.25	35.09
734.432	35.48
734.615	35.28
734.797	35.14
734.979	34.96
735.162	35.14
735.344	35.57
735.526	35.97
735.708	36.68
735.891	36.76
736.073	37.03
736.255	36.55
736.437	36.01
736.619	36.05
736.802	36.4
736.984	36.75
737.166	37.19
737.348	37.17
737.53	36.74
737.712	36.29
737.894	36.23
738.076	36.34
738.258	36.23
738.44	36.83
738.622	36.94
738.804	36.35
738.986	36.68
739.168	35.93
739.35	36.42
739.532	36.89
739.714	36.95
739.896	36.79
740.078	36.79
740.259	36.87
740.441	36.66
740.623	37.01
740.805	37.66
740.987	37.25
741.168	37.83
741.35	37.59
741.532	37.43
741.714	37.61
741.895	38.06
742.077	38.31
742.259	38.6
742.44	38.96
742.622	38.51
742.804	38.31
742.985	39.03
743.167	38.87
743.348	38.71
743.53	39.01
743.711	38.93
743.893	38.71
744.075	38.61
744.256	38.84
744.438	39.08
744.619	39.95
744.8	40.37
744.982	40.28
745.163	40.37
745.345	41.04
745.526	41.09
745.707	41.16
745.889	41.87
746.07	42.12
746.252	42.21
746.433	42.1
746.614	41.16
746.795	40.84
746.977	40.86
747.158	40.68
747.339	40.6
747.52	40.48
747.702	40.97
747.883	40.49
748.064	40.13
748.245	39.65
748.426	39.73
748.607	40.54
748.788	40.14
748.97	40.21
749.151	40.37
749.332	39.84
749.513	39.89
749.694	39.65
749.875	40.54
750.056	40.79
750.237	41.55
750.418	41.76
750.599	41.25
750.78	41.91
750.96	42.01
751.141	41.97
751.322	42.57
751.503	42.15
751.684	41.64
751.865	40.8
752.046	40.35
752.226	39.55
752.407	38.76
752.588	38.82
752.769	38.73
752.949	38.53
753.13	39
753.311	38.4
753.492	39.11
753.672	40.03
753.853	40.47
754.034	41.42
754.214	42.35
754.395	43.22
754.575	43.47
754.756	43.92
754.937	43.93
755.117	43.2
755.298	43.97
755.478	43.77
755.659	43.49
755.839	43.93
756.02	43.92
756.2	43.04
756.381	42.09
756.561	41.75
756.741	41.55
756.922	41.73
757.102	42.07
757.283	41.95
757.463	42.47
757.643	42.48
757.823	41.23
758.004	40.31
758.184	40.69
758.364	41.17
758.545	40.4
758.725	39.54
758.905	38.69
759.085	38.11
759.265	37.44
759.446	36.79
759.626	36.18
759.806	37.3
759.986	37.87
760.166	37.16
760.346	36.79
760.526	36.72
760.706	36.96
760.886	36.81
761.066	37.15
761.246	36.95
761.426	36.21
761.606	36.43
761.786	35.41
761.966	34.09
762.146	33.26
762.326	33.11
762.506	32.97
762.686	32.72
762.866	32.24
763.046	31.94
763.225	31.97
763.405	31.75
763.585	31.34
763.765	31.38
763.945	31.49
764.124	31.78
764.304	31.74
764.484	32.19
764.664	32.79
764.843	33.41
765.023	33.59
765.203	33.58
765.382	34.15
765.562	34.63
765.741	34.9
765.921	36.09
766.101	37.02
766.28	37.23
766.46	37.68
766.639	37.67
766.819	38.16
766.998	38.42
767.178	39.1
767.357	39.61
767.537	40.21
767.716	41.15
767.896	40.79
768.075	40.87
768.254	41.44
768.434	42.03
768.613	42.12
768.792	42.09
768.972	42.78
769.151	43.02
769.33	43.03
769.51	42.97
769.689	42.31
769.868	42.89
770.047	42.79
770.226	42.64
770.406	42.24
770.585	42.82
770.764	43.24
770.943	43.15
771.122	43.36
771.301	43.84
771.48	43.7
771.66	44.09
771.839	43.81
772.018	44.17
772.197	44.75
772.376	44.82
772.555	45.43
772.734	45.95
772.913	46.04
773.092	45.61
773.271	46.04
773.449	46.73
773.628	47.28
773.807	47.69
773.986	48.16
774.165	48.8
774.344	48.46
774.523	47.92
774.701	47.85
774.88	47.84
775.059	48.38
775.238	47.39
775.417	46.91
775.595	46.27
775.774	46.6
775.953	46.33
776.131	45.84
776.31	45.93
776.489	45.34
776.667	45.63
776.846	45.31
777.025	44.53
777.203	44.63
777.382	44.25
777.56	44.5
777.739	43.66
777.917	43.52
778.096	43.79
778.274	44.12
778.453	44.12
778.631	44.06
778.81	43.91
778.988	44.04
779.166	44.75
779.345	45.03
779.523	45.08
779.702	45.93
779.88	46.3
780.058	46.81
780.237	47.68
780.415	48.9
780.593	47.43
780.771	48.28
780.95	48.41
781.128	49.49
781.306	50.01
781.484	49.65
781.662	48.99
781.841	48.92
782.019	47.61
782.197	46.61
782.375	45.8
782.553	47.06
782.731	47.62
782.909	49.1
783.087	48.21
783.265	47.57
783.443	48.42
783.621	49.42
783.799	49.68
783.977	50.32
784.155	50.88
784.333	51.44
784.511	51.33
784.689	51.24
784.867	51.03
785.045	50.71
785.223	51.46
785.4	51.34
785.578	50.47
785.756	50.76
785.934	50.22
786.112	50.02
786.289	49.27
786.467	49.14
786.645	48.68
786.823	47.98
787	47.17
787.178	46.24
787.356	45.56
787.533	45.33
787.711	44.2
787.889	43.47
788.066	43.15
788.244	43.22
788.421	42.42
788.599	41.23
788.776	41.5
788.954	42.15
789.131	42.1
789.309	42.05
789.486	42.74
789.664	44.16
789.841	44.77
790.019	45.05
790.196	45.55
790.373	46.27
790.551	47.99
790.728	48.07
790.906	48.06
791.083	50.24
791.26	51.35
791.437	50.97
791.615	50.45
791.792	51.13
791.969	51.34
792.146	50.81
792.324	50.58
792.501	49.87
792.678	50.26
792.855	50.34
793.032	49.48
793.209	49.18
793.387	48.63
793.564	48.87
793.741	48.51
793.918	47.89
794.095	47.09
794.272	47.64
794.449	47.73
794.626	46.87
794.803	46.65
794.98	46.96
795.157	46.21
795.334	47
795.511	46.06
795.688	45.62
795.864	45.64
796.041	46.73
796.218	46.97
796.395	46.17
796.572	47.01
796.749	47.36
796.925	46.13
797.102	46.14
797.279	46.68
797.456	46.64
797.632	47.49
797.809	46.98
797.986	46.63
798.162	47.34
798.339	47.24
798.516	46.31
798.692	45.58
798.869	46
799.046	46.4
799.222	45.88
799.399	45.79
799.575	45.82
799.752	47.21
799.928	48.44
800.105	46.95
800.281	47.34
800.458	48.51
800.634	48.61
800.811	48.59
800.987	48.67
801.163	48.16
801.34	48.92
801.516	48.68
801.692	48.18
801.869	47.65
802.045	48.9
802.221	49.1
802.398	48.25
802.574	47.77
802.75	48.57
802.926	49.24
803.103	50.1
803.279	49.98
803.455	49.65
803.631	49.73
803.807	49.92
803.983	49.96
804.16	51.66
804.336	50.84
804.512	52.5
804.688	51.58
804.864	51.62
805.04	52.03
805.216	51.17
805.392	52.21
805.568	52.3
805.744	52.07
805.92	50.86
806.096	50.34
806.272	50.88
806.448	51.2
806.623	51.4
806.799	50.27
806.975	49.83
807.151	50.5
807.327	50.69
807.503	51.82
807.678	52.7
807.854	51.84
808.03	51.41
808.206	53.11
808.381	52.44
808.557	53.87
808.733	54.52
808.908	55
809.084	55.17
809.26	55.64
809.435	56.69
809.611	55.83
809.787	57.76
809.962	57.87
810.138	56.85
810.313	57.41
810.489	56.19
810.664	55.74
810.84	54.63
811.015	54.69
811.191	53.79
811.366	53
811.542	53.45
811.717	53.02
811.892	53.24
812.068	53.76
812.243	53.82
812.419	55.06
812.594	55.07
812.769	56.71
812.944	56.87
813.12	55.6
813.295	55.02
813.47	54.26
813.645	52.35
813.821	52.27
813.996	51.33
814.171	50.45
814.346	49.11
814.521	50.11
814.697	50.09
814.872	50.12
815.047	51.31
815.222	50.47
815.397	49.87
815.572	51.43
815.747	49.75
815.922	48.11
816.097	47.91
816.272	47.97
816.447	48.07
816.622	47.62
816.797	46.87
816.972	46.65
817.147	46.61
817.322	46.34
817.496	45.42
817.671	46.36
817.846	48.3
818.021	47.13
818.196	46.07
818.371	45.35
818.545	44.7
818.72	44.25
818.895	44.6
819.069	42.82
819.244	41.98
819.419	41.81
819.594	40.79
819.768	39.35
819.943	39.01
820.117	38.02
820.292	36.84
820.467	35.73
820.641	34.75
820.816	32.84
820.99	31.85
821.165	30.61
821.339	29.59
821.514	28.84
821.688	28.17
821.863	27.78
822.037	27.46
822.212	26.67
822.386	26.24
822.56	26.13
822.735	26.05
822.909	26.15
823.084	26.24
823.258	26.27
823.432	26.36
823.606	26.41
823.781	26.26
823.955	26.43
824.129	26.88
824.303	27.02
824.478	26.94
824.652	27.42
824.826	27.59
825	27.79
825.174	28.54
825.348	28.83
825.523	29.36
825.697	30.09
825.871	29.82
826.045	30.2
826.219	30.59
826.393	31.08
826.567	31.03
826.741	31.19
826.915	31.33
827.089	31.05
827.263	30.82
827.437	30.47
827.611	30.85
827.784	31.2
827.958	30.94
828.132	31.33
828.306	31.06
828.48	31.45
828.654	32.27
828.827	33.34
829.001	33.69
829.175	35.48
829.349	36.91
829.522	37.9
829.696	39.1
829.87	40.88
830.044	42.21
830.217	43.83
830.391	44.48
830.565	44.11
830.738	44.23
830.912	45.47
831.085	44.76
831.259	45.91
831.432	44.48
831.606	43.89
831.779	43
831.953	42.45
832.126	41.78
832.3	40.69
832.473	40.09
832.647	38.96
832.82	38.1
832.994	37.8
833.167	37.32
833.34	37.38
833.514	37.13
833.687	36.85
833.86	35.3
834.034	34.85
834.207	35.13
834.38	35.23
834.553	35.55
834.727	35.56
834.9	35.77
835.073	35.63
835.246	35.61
835.419	36.75
835.593	37.87
835.766	38.68
835.939	40
836.112	40.57
836.285	41.34
836.458	42.54
836.631	43.97
836.804	44.5
836.977	46.17
837.15	47.86
837.323	48.43
837.496	49.49
837.669	51
837.842	51.34
838.015	52.67
838.188	55.15
838.361	56.5
838.533	57.26
838.706	57.09
838.879	55.77
839.052	55.1
839.225	55.76
839.398	55.51
839.57	56.76
839.743	58.63
839.916	58.55
840.088	53.85
840.261	53.49
840.434	55.4
840.607	56.58
840.779	56.58
840.952	58.02
841.124	56.94
841.297	56.55
841.47	58.91
841.642	58.63
841.815	59.23
841.987	64.3
842.16	66.33
842.332	66.61
842.505	67.81
842.677	68.35
842.85	69.33
843.022	72.12
843.194	75.01
843.367	75.11
843.539	76.34
843.712	77.72
843.884	76.61
844.056	74.88
844.229	72.51
844.401	72.7
844.573	79.24
844.745	79.3
844.918	78.07
845.09	78.42
845.262	79.18
845.434	80.93
845.606	81.39
845.779	82.95
845.951	83.76
846.123	82.73
846.295	82.26
846.467	79.49
846.639	80.06
846.811	80.52
846.983	81.62
847.155	79.23
847.327	79.09
847.499	80.25
847.671	83.58
847.843	85.81
848.015	91.84
848.187	92.06
848.359	88.83
848.531	90.87
848.703	92.2
848.875	93.26
849.047	93.34
849.218	91.17
849.39	90.72
849.562	89.18
849.734	88.24
849.905	85.14
850.077	85.01
850.249	89.22
850.421	88.97
850.592	89.14
850.764	88.46
850.936	87.84
851.107	90.18
851.279	91.86
851.451	93.24
851.622	95.49
851.794	97.24
851.965	101.05
852.137	102.4
852.308	102.65
852.48	103.42
852.651	100.91
852.823	102.13
852.994	101.49
853.166	99.83
853.337	101
853.509	96.46
853.68	99.14
853.851	95.99
854.023	95.26
854.194	90.52
854.365	87.78
854.537	91.03
854.708	89.41
854.879	91.06
855.05	93.39
855.222	89.76
855.393	93.65
855.564	91.02
855.735	97.28
855.906	98.18
856.078	100.78
856.249	101.45
856.42	97.32
856.591	102.09
856.762	101.05
856.933	97.76
857.104	99.54
857.275	99.87
857.446	94.8
857.617	92.02
857.788	89.87
857.959	89.51
858.13	91.02
858.301	92.85
858.472	87.71
858.643	86.43
858.814	90.27
858.985	93.87
859.155	96.03
859.326	102.1
859.497	102.56
859.668	103.13
859.839	106.8
860.009	105.79
860.18	103.37
860.351	106.25
860.522	111.28
860.692	108.02
860.863	101.25
861.034	97.64
861.204	101.38
861.375	99.65
861.546	101.66
861.716	101.13
861.887	102.04
862.057	103.27
862.228	103.42
862.398	101.68
862.569	101.5
862.739	106.53
862.91	108.65
863.08	103.16
863.251	101.79
863.421	103.08
863.592	100
863.762	99.92
863.932	103.77
864.103	107.45
864.273	106.74
864.443	104.74
864.614	102.08
864.784	98.4
864.954	100.21
865.125	99.72
865.295	95.59
865.465	100.03
865.635	102.66
865.805	100.05
865.976	94.94
866.146	95.84
866.316	101.47
866.486	103.96
866.656	104.87
866.826	107.69
866.996	113.67
867.166	116.14
867.336	113.93
867.506	114.32
867.676	115.64
867.846	122.16
868.016	120.25
868.186	108.85
868.356	104.7
868.526	105.25
868.696	107.99
868.866	102.95
869.036	104.43
869.206	104.58
869.376	100.69
869.545	100.44
869.715	99.29
869.885	100.15
870.055	110.72
870.224	111.88
870.394	110.79
870.564	102.47
870.734	104.42
870.903	104.68
871.073	106.9
871.243	107.99
871.412	106.89
871.582	107.59
871.751	108.26
871.921	102.94
872.091	102.42
872.26	102.85
872.43	105.74
872.599	100.89
872.769	102.49
872.938	101.46
873.108	101.02
873.277	97.44
873.446	95.05
873.616	95.77
873.785	101.13
873.955	100.78
874.124	100.42
874.293	98.02
874.463	99.09
874.632	95.42
874.801	95.51
874.971	97.18
875.14	103.68
875.309	102.12
875.478	107.29
875.647	97.88
875.817	103.25
875.986	98.03
876.155	99.42
876.324	97.58
876.493	98.67
876.662	97.04
876.831	96.45
877	93.19
877.17	94.01
877.339	88.79
877.508	90.67
877.677	86.83
877.846	90.2
878.015	87.71
878.184	89.62
878.352	84.4
878.521	84.88
878.69	81.76
878.859	83.4
879.028	79.12
879.197	77.1
879.366	75.07
879.534	70.82
879.703	68.37
879.872	61.33
880.041	57.63
880.21	56.07
880.378	52.09
880.547	49.22
880.716	44.44
880.884	43.02
881.053	40.64
881.222	38.51
881.39	36.22
881.559	34.09
881.727	32.6
881.896	31.99
882.065	31.54
882.233	30.6
882.402	29.57
882.57	30.27
882.739	29.77
882.907	29.57
883.076	29.67
883.244	30.25
883.412	30.89
883.581	32.63
883.749	33.13
883.918	33.25
884.086	34.31
884.254	36.1
884.423	36.07
884.591	37.54
884.759	37.96
884.927	39.49
885.096	40.39
885.264	41.85
885.432	43.7
885.6	45.4
885.769	48
885.937	48.8
886.105	52.21
886.273	54.5
886.441	58.81
886.609	63.88
886.777	66.42
886.945	70.92
887.113	76.67
887.281	74
887.449	76.67
887.617	80.7
887.785	85.12
887.953	84.51
888.121	84.96
888.289	84.42
888.457	86.58
888.625	90.55
888.793	92.37
888.961	90.31
889.129	100.06
889.296	100.84
889.464	97.81
889.632	99.31
889.8	99.25
889.967	105.82
890.135	111.03
