Data from 2938852__Reflection_02.txt Node
Date: Wed Mar 11 12:23:36 EDT 2015
User: robert
Spectrometer: USB4E03002
Autoset integration time: false
Trigger mode: 4
Integration Time (sec): 1.000000E-1
Scans to average: 10
Electric dark correction enabled: false
Nonlinearity correction enabled: false
Boxcar width: 5
Stray light correction enabled: false
XAxis mode: Wavelengths
Stop averaging: false
Number of Pixels in Spectrum: 3648
>>>>>Begin Spectral Data<<<<<
177.575	340.74
177.794	-333.33
178.014	-105.48
178.233	-325
178.452	-174.45
178.672	-28.35
178.891	-24.32
179.11	18.95
179.33	15.92
179.549	18.12
179.768	9.13
179.987	-42.92
180.207	7.87
180.426	62.33
180.645	87.71
180.864	62.97
181.084	7.98
181.303	69.05
181.522	-61.06
181.741	48.52
181.96	-6.38
182.179	-129.31
182.398	-9.41
182.618	216.48
182.837	504.62
183.056	659.57
183.275	129.64
183.494	138.21
183.713	255.76
183.932	155.27
184.151	208.78
184.37	164.97
184.589	247.02
184.808	415.33
185.027	-852.38
185.246	-206.67
185.465	-55.72
185.684	2.25
185.903	-26.6
186.122	5.3
186.341	12.97
186.56	-2.3
186.779	-40.14
186.998	-26.11
187.216	-11.76
187.435	-12.82
187.654	-35.87
187.873	-48.42
188.092	-63.19
188.311	-34.34
188.53	-17.46
188.748	-10.08
188.967	2.57
189.186	20.72
189.405	20.45
189.623	33.1
189.842	26.95
190.061	45.04
190.28	45.43
190.498	45.05
190.717	47.36
190.936	35.79
191.154	17.97
191.373	31.89
191.592	6.5
191.81	4.79
192.029	-20.71
192.248	-39.23
192.466	-104.82
192.685	-127
192.904	-117.71
193.122	-57.59
193.341	-206.29
193.559	-107.33
193.778	-286.42
193.996	-100.75
194.215	-97.56
194.433	-55.99
194.652	-35.2
194.87	-31.74
195.089	-17.41
195.307	-33.63
195.526	-126.23
195.744	-27.66
195.963	-53
196.181	-43.53
196.399	-49.81
196.618	-47.86
196.836	-23.68
197.055	-1.99
197.273	25.3
197.491	7.21
197.71	23.2
197.928	33.22
198.146	23.63
198.365	20.84
198.583	7.7
198.801	21.34
199.019	28.51
199.238	24.21
199.456	5
199.674	-30.56
199.892	8.87
200.111	-7.45
200.329	-0
200.547	-0.27
200.765	15.43
200.983	23.82
201.202	8.24
201.42	21.81
201.638	26.77
201.856	28.61
202.074	34.81
202.292	20.06
202.51	55.23
202.728	0.97
202.946	19.83
203.165	11.76
203.383	-2.27
203.601	4.83
203.819	-17.42
204.037	-37.41
204.255	-25.75
204.473	-40.59
204.691	-52.82
204.909	-76.02
205.127	-45.77
205.345	-107.81
205.562	-66.96
205.78	-56.72
205.998	-100
206.216	-142.68
206.434	-67.62
206.652	-53.17
206.87	-34.5
207.088	-13.39
207.306	-4.84
207.523	13.05
207.741	25.36
207.959	12.47
208.177	0.98
208.395	-13.47
208.612	4.72
208.83	-14.06
209.048	3.45
209.266	10.52
209.483	-22.22
209.701	-34.04
209.919	-47.54
210.136	-73.36
210.354	-40.4
210.572	-30.39
210.79	-37.12
211.007	-70.76
211.225	-62.2
211.442	-67.62
211.66	-126.57
211.878	-74.75
212.095	-41.87
212.313	-54.51
212.53	-44.36
212.748	-28.98
212.966	-25.03
213.183	-9.64
213.401	14.79
213.618	7.91
213.836	23
214.053	21.51
214.271	12.26
214.488	-3.32
214.705	-5.7
214.923	-14.74
215.14	-35.29
215.358	-33.39
215.575	-27.8
215.793	-56.73
216.01	-58.48
216.227	-67.43
216.445	-37.68
216.662	-36.25
216.879	-34.33
217.097	-22.64
217.314	-14.05
217.531	-5.84
217.749	-3.2
217.966	-3.31
218.183	14.38
218.4	17.25
218.618	12.58
218.835	9.87
219.052	13.96
219.269	24.25
219.487	19.06
219.704	24.51
219.921	20.4
220.138	11.92
220.355	17.18
220.572	14.95
220.79	19.46
221.007	19.65
221.224	4.47
221.441	0.3
221.658	0.34
221.875	-3.77
222.092	-4.58
222.309	-3.51
222.526	6.31
222.743	0.04
222.96	-5.4
223.177	-12.38
223.394	-14.8
223.611	-7.44
223.828	1.8
224.045	2.28
224.262	6.76
224.479	8.06
224.696	6.73
224.913	3.37
225.13	5.51
225.347	2.89
225.564	1.86
225.781	2.55
225.997	1.8
226.214	-1.19
226.431	0.31
226.648	-2.15
226.865	-3.1
227.082	-1.7
227.298	-0.74
227.515	-1.26
227.732	-0.11
227.949	0.7
228.165	1.53
228.382	1.36
228.599	1.94
228.816	1.83
229.032	2.83
229.249	2.57
229.466	2.44
229.682	2.16
229.899	2.68
230.116	2.96
230.332	3.4
230.549	2.97
230.765	3.06
230.982	2.49
231.199	1.67
231.415	0.78
231.632	0.9
231.848	0.22
232.065	-0.52
232.281	0.19
232.498	-0.1
232.714	-2.16
232.931	-1.61
233.147	-0.87
233.364	-0.43
233.58	-0.19
233.797	0.89
234.013	1.44
234.23	2.61
234.446	4.42
234.662	3.71
234.879	2.85
235.095	4.8
235.312	5.69
235.528	3.2
235.744	3.01
235.961	3.67
236.177	2.62
236.393	2.85
236.61	2.06
236.826	1.94
237.042	1.47
237.258	2.04
237.475	1.85
237.691	0.59
237.907	4.35
238.123	5.39
238.339	6.17
238.556	6.39
238.772	6.81
238.988	7.54
239.204	7.02
239.42	7.41
239.636	8.11
239.853	7.36
240.069	7.1
240.285	6.47
240.501	5.9
240.717	5.62
240.933	4.61
241.149	4.39
241.365	3.79
241.581	3.29
241.797	3.08
242.013	2.77
242.229	2.95
242.445	3.06
242.661	3.05
242.877	3.27
243.093	2.96
243.309	3.36
243.525	3.28
243.741	3.26
243.957	3.14
244.173	2.95
244.388	3.58
244.604	3.34
244.82	2.35
245.036	1.77
245.252	0.98
245.468	1.74
245.683	2.55
245.899	2.57
246.115	2.7
246.331	3.08
246.547	3.03
246.762	2.76
246.978	2.84
247.194	3.33
247.409	3.69
247.625	4.04
247.841	3.58
248.057	3.41
248.272	3.29
248.488	3.21
248.703	3.24
248.919	3.28
249.135	3.31
249.35	3.43
249.566	3.56
249.782	3.06
249.997	2.37
250.213	2.64
250.428	2.15
250.644	2.73
250.859	2.72
251.075	2.73
251.29	2.97
251.506	3.27
251.721	3.16
251.937	3.18
252.152	3.14
252.368	3.57
252.583	3.15
252.798	3.08
253.014	2.95
253.229	3.76
253.445	3.79
253.66	3.08
253.875	3.35
254.091	2.69
254.306	2.49
254.521	2.93
254.737	2.96
254.952	3.47
255.167	4.41
255.383	4.35
255.598	3.36
255.813	3.18
256.028	3.59
256.244	2.98
256.459	3.5
256.674	2.93
256.889	2.66
257.104	2.27
257.32	2.55
257.535	2.03
257.75	1.71
257.965	2.22
258.18	2.13
258.395	2.84
258.61	3.02
258.826	2.91
259.041	2.92
259.256	2.9
259.471	2.91
259.686	2.96
259.901	2.88
260.116	3.09
260.331	2.8
260.546	2.93
260.761	2.61
260.976	2.45
261.191	2.45
261.406	2.52
261.621	2.74
261.836	2.83
262.05	2.25
262.265	2.12
262.48	1.76
262.695	1.55
262.91	1.24
263.125	1.46
263.34	1.33
263.555	0.97
263.769	0.58
263.984	-0.37
264.199	-1.01
264.414	-0.44
264.629	-0.17
264.843	-0.18
265.058	0.28
265.273	0.19
265.488	-0.07
265.702	-0.32
265.917	0.64
266.132	0.66
266.346	1.26
266.561	1.93
266.776	2.27
266.99	2.55
267.205	2.19
267.42	2.21
267.634	2.43
267.849	2.44
268.063	2.64
268.278	2.33
268.492	2.98
268.707	3.05
268.922	2.67
269.136	2.49
269.351	2.29
269.565	2.66
269.78	2.59
269.994	2.42
270.209	2.51
270.423	2.87
270.637	2.76
270.852	2.57
271.066	2.56
271.281	2.57
271.495	2.48
271.709	2.16
271.924	2.44
272.138	2.23
272.353	2.11
272.567	2.23
272.781	2.11
272.996	1.85
273.21	1.91
273.424	2.1
273.638	2.07
273.853	2.42
274.067	2.81
274.281	2.74
274.495	3.14
274.71	3.05
274.924	3.1
275.138	3.44
275.352	4.11
275.566	3.95
275.781	3.25
275.995	3.36
276.209	3.1
276.423	2.96
276.637	2.4
276.851	2.4
277.065	2.48
277.279	2.55
277.493	2.23
277.707	2.06
277.921	2.1
278.135	2.54
278.349	2.81
278.563	2.25
278.777	2.77
278.991	3.22
279.205	2.82
279.419	3.13
279.633	3
279.847	3.11
280.061	2.96
280.275	2.95
280.489	2.79
280.703	2.56
280.917	3.26
281.131	3.06
281.344	3.03
281.558	3.28
281.772	2.98
281.986	3.04
282.2	2.85
282.414	2.97
282.627	2.94
282.841	3.09
283.055	3.44
283.269	3.31
283.482	3.09
283.696	3.11
283.91	3.09
284.123	3.2
284.337	3.22
284.551	3.29
284.764	3.01
284.978	2.9
285.192	2.85
285.405	2.52
285.619	2.38
285.833	2.56
286.046	2.73
286.26	2.77
286.473	2.86
286.687	2.64
286.9	2.85
287.114	3.02
287.327	3.19
287.541	3.19
287.754	3.48
287.968	3.49
288.181	3.7
288.395	3.31
288.608	3.3
288.822	3.19
289.035	3.05
289.248	2.68
289.462	2.78
289.675	2.67
289.889	2.66
290.102	2.55
290.315	2.61
290.529	2.6
290.742	2.75
290.955	2.7
291.169	2.73
291.382	3.15
291.595	3.31
291.808	3.52
292.022	3.94
292.235	3.61
292.448	3.57
292.661	3.27
292.875	2.98
293.088	3.14
293.301	3.01
293.514	3.18
293.727	3.17
293.94	3.32
294.153	2.98
294.367	2.69
294.58	3.23
294.793	3.16
295.006	3.38
295.219	3.3
295.432	3.37
295.645	3.52
295.858	3.48
296.071	3.39
296.284	3.34
296.497	3.34
296.71	3.34
296.923	3.47
297.136	3.54
297.349	3.38
297.562	3.5
297.775	3.48
297.988	3.53
298.201	3.58
298.414	3.52
298.626	3.58
298.839	3.75
299.052	3.86
299.265	3.42
299.478	3.5
299.691	3.75
299.903	3.64
300.116	3.6
300.329	3.63
300.542	3.69
300.755	4.06
300.967	3.9
301.18	4.08
301.393	3.9
301.605	4.52
301.818	4.52
302.031	5.04
302.243	5.3
302.456	5.41
302.669	5.51
302.881	5.27
303.094	5.17
303.307	5.32
303.519	5.15
303.732	5.38
303.944	4.81
304.157	4.79
304.37	4.36
304.582	4.33
304.795	4.16
305.007	3.76
305.22	4.14
305.432	4.03
305.645	3.96
305.857	3.97
306.069	3.66
306.282	3.9
306.494	3.8
306.707	3.89
306.919	3.95
307.132	4.08
307.344	4.59
307.556	4.21
307.769	4.29
307.981	4.28
308.193	4.37
308.406	4.77
308.618	5.03
308.83	5.21
309.043	5.04
309.255	4.78
309.467	4.74
309.679	4.66
309.892	4.78
310.104	5
310.316	5.06
310.528	5.1
310.74	5.11
310.953	4.97
311.165	4.94
311.377	5.23
311.589	5.32
311.801	5.48
312.013	5.55
312.225	5.63
312.437	5.55
312.649	5.6
312.862	5.55
313.074	5.63
313.286	5.78
313.498	6.02
313.71	6
313.922	5.86
314.134	5.92
314.346	5.55
314.558	5.46
314.77	5.21
314.982	5.34
315.193	5.11
315.405	4.63
315.617	4.67
315.829	4.3
316.041	4.07
316.253	4.17
316.465	3.67
316.677	3.89
316.888	4.19
317.1	4.34
317.312	3.9
317.524	4.15
317.736	4.51
317.947	4.33
318.159	4.3
318.371	4.35
318.583	4.61
318.794	5.14
319.006	5.53
319.218	5.3
319.43	5.22
319.641	5.65
319.853	5.31
320.064	5.28
320.276	5.18
320.488	5.32
320.699	5.51
320.911	5.82
321.123	5.71
321.334	5.3
321.546	5.56
321.757	5.64
321.969	5.7
322.18	6.54
322.392	6.86
322.603	6.78
322.815	6.83
323.026	6.58
323.238	5.99
323.449	5.98
323.661	6.37
323.872	6.24
324.083	6.3
324.295	6.31
324.506	5.73
324.718	5.49
324.929	5.85
325.14	5.9
325.352	6.23
325.563	6.63
325.774	6.56
325.986	6.19
326.197	6.23
326.408	6.21
326.62	5.94
326.831	6.26
327.042	6.39
327.253	6.38
327.464	6.21
327.676	6.21
327.887	6.34
328.098	6.74
328.309	6.76
328.52	6.92
328.732	6.91
328.943	7.48
329.154	7.64
329.365	7.53
329.576	7.45
329.787	7.62
329.998	7.48
330.209	7.59
330.42	7.44
330.631	7.65
330.842	7.32
331.053	7.22
331.264	6.81
331.475	6.97
331.686	7.13
331.897	7
332.108	6.94
332.319	7.11
332.53	7.26
332.741	6.9
332.952	6.57
333.163	6.67
333.374	7.07
333.585	7.15
333.795	7.02
334.006	6.79
334.217	6.86
334.428	7.16
334.639	7.11
334.849	6.67
335.06	6.91
335.271	7.04
335.482	7.4
335.692	7.24
335.903	7.16
336.114	7.31
336.325	7.53
336.535	7.66
336.746	7.58
336.957	7.45
337.167	7.63
337.378	7.68
337.589	7.9
337.799	7.54
338.01	7.48
338.22	7.49
338.431	7.18
338.642	6.93
338.852	6.86
339.063	6.85
339.273	6.82
339.484	6.78
339.694	6.8
339.905	7
340.115	7.31
340.326	7.27
340.536	7.49
340.746	7.72
340.957	7.69
341.167	7.73
341.378	7.83
341.588	7.87
341.799	8.05
342.009	8.19
342.219	7.85
342.43	7.76
342.64	8.02
342.85	7.78
343.061	7.82
343.271	7.96
343.481	7.85
343.691	7.92
343.902	8.15
344.112	7.88
344.322	7.72
344.532	7.88
344.743	7.77
344.953	7.72
345.163	7.73
345.373	7.75
345.583	7.64
345.793	7.68
346.004	7.56
346.214	7.24
346.424	7.17
346.634	7.35
346.844	7.58
347.054	7.55
347.264	7.22
347.474	7.34
347.684	7.37
347.894	7.5
348.104	7.72
348.314	7.19
348.524	7.18
348.734	7.33
348.944	7.32
349.154	7.1
349.364	7.11
349.574	7.46
349.784	7.52
349.994	6.93
350.204	7
350.413	6.89
350.623	7.41
350.833	7.51
351.043	7.11
351.253	6.78
351.463	7.01
351.672	6.97
351.882	6.97
352.092	6.95
352.302	7.03
352.511	6.94
352.721	6.92
352.931	7
353.141	6.79
353.35	6.89
353.56	6.99
353.77	6.78
353.979	6.91
354.189	6.95
354.399	6.82
354.608	7.39
354.818	7.51
355.027	7.56
355.237	7.37
355.447	7.6
355.656	7.97
355.866	7.69
356.075	7.63
356.285	7.7
356.494	7.62
356.704	7.84
356.913	7.85
357.123	7.62
357.332	7.57
357.542	7.47
357.751	7.25
357.96	7.25
358.17	7.44
358.379	7.31
358.589	6.96
358.798	7
359.007	6.73
359.217	6.47
359.426	6.62
359.635	6.67
359.845	6.77
360.054	6.92
360.263	6.92
360.472	6.95
360.682	6.9
360.891	7.19
361.1	7.19
361.309	7.26
361.519	7.29
361.728	7.24
361.937	7.12
362.146	7.13
362.355	7.19
362.564	7.06
362.774	7.16
362.983	7.22
363.192	7.11
363.401	7.09
363.61	7.06
363.819	6.86
364.028	7.04
364.237	7.1
364.446	7.33
364.655	7.46
364.864	7.46
365.073	7.41
365.282	7.41
365.491	7.45
365.7	7.34
365.909	7.35
366.118	7.35
366.327	7.18
366.536	7.24
366.745	6.7
366.954	6.64
367.162	6.91
367.371	6.65
367.58	6.78
367.789	7.02
367.998	7.03
368.207	7.02
368.415	7.09
368.624	7.19
368.833	7.13
369.042	7.45
369.25	7.2
369.459	6.92
369.668	7.44
369.877	7.35
370.085	7.04
370.294	7.02
370.503	7.02
370.711	6.93
370.92	6.76
371.129	6.83
371.337	6.78
371.546	6.91
371.754	6.91
371.963	6.67
372.171	6.63
372.38	6.66
372.589	6.5
372.797	6.47
373.006	6.6
373.214	6.81
373.423	6.74
373.631	6.85
373.84	6.77
374.048	6.84
374.256	6.89
374.465	6.8
374.673	6.86
374.882	6.99
375.09	6.92
375.298	6.72
375.507	6.54
375.715	6.42
375.923	6.07
376.132	6.11
376.34	6.07
376.548	5.95
376.757	6.09
376.965	5.97
377.173	6.13
377.381	6.2
377.59	6.32
377.798	6.34
378.006	6.35
378.214	6.69
378.423	6.58
378.631	6.49
378.839	6.45
379.047	6.33
379.255	6.32
379.463	6.32
379.671	6.32
379.879	6.31
380.088	6.32
380.296	6.24
380.504	6.31
380.712	6.56
380.92	6.53
381.128	6.31
381.336	6.49
381.544	6.71
381.752	6.48
381.96	6.42
382.168	6.35
382.376	6.19
382.584	6.3
382.791	6.02
382.999	5.65
383.207	5.76
383.415	5.95
383.623	5.77
383.831	5.58
384.039	5.78
384.247	5.61
384.454	5.83
384.662	5.87
384.87	5.72
385.078	5.8
385.285	5.86
385.493	5.71
385.701	5.73
385.909	5.92
386.116	5.86
386.324	5.83
386.532	6.1
386.739	5.98
386.947	5.98
387.155	6.2
387.362	6.11
387.57	6.1
387.778	6.16
387.985	6.21
388.193	6.16
388.4	6.03
388.608	5.85
388.816	5.67
389.023	5.53
389.231	5.37
389.438	5.24
389.646	5.27
389.853	5.26
390.061	5.28
390.268	5.16
390.475	5.08
390.683	5.27
390.89	5.38
391.098	5.34
391.305	5.31
391.512	5.35
391.72	5.37
391.927	5.25
392.135	5.35
392.342	5.33
392.549	5.28
392.756	5.26
392.964	5.27
393.171	5.1
393.378	5.03
393.586	5.11
393.793	5.11
394	5.07
394.207	5.26
394.414	5.26
394.622	5.24
394.829	5.27
395.036	5.23
395.243	5.23
395.45	5.35
395.657	5.51
395.864	5.54
396.072	5.58
396.279	5.59
396.486	5.5
396.693	5.47
396.9	5.53
397.107	5.49
397.314	5.53
397.521	5.41
397.728	5.23
397.935	5.17
398.142	5.1
398.349	5.21
398.556	5.09
398.763	4.96
398.97	4.97
399.177	4.96
399.383	5.02
399.59	5.05
399.797	5.07
400.004	5.2
400.211	5.27
400.418	5.32
400.625	5.31
400.831	5.46
401.038	5.4
401.245	5.35
401.452	5.24
401.658	5.26
401.865	5.17
402.072	5.09
402.279	5.04
402.485	4.92
402.692	4.93
402.899	4.86
403.105	4.85
403.312	5.02
403.519	5.11
403.725	5.12
403.932	5.12
404.138	5.07
404.345	5.21
404.552	5.16
404.758	5.17
404.965	5.14
405.171	5.09
405.378	5.11
405.584	5.01
405.791	4.93
405.997	5.02
406.204	4.91
406.41	5.03
406.617	4.86
406.823	4.95
407.029	5.03
407.236	5.09
407.442	5.11
407.649	4.91
407.855	4.96
408.061	4.81
408.268	4.73
408.474	4.8
408.68	4.77
408.887	4.72
409.093	4.76
409.299	4.66
409.505	4.55
409.712	4.56
409.918	4.73
410.124	4.82
410.33	5.01
410.537	4.99
410.743	5.01
410.949	5.04
411.155	5.12
411.361	5.06
411.567	5.18
411.773	5.29
411.98	5.33
412.186	5.28
412.392	5.14
412.598	5.27
412.804	5.2
413.01	5.22
413.216	5.21
413.422	5.2
413.628	5.12
413.834	5.01
414.04	4.85
414.246	4.85
414.452	4.9
414.658	4.93
414.864	4.77
415.07	4.93
415.275	5
415.481	4.98
415.687	5.06
415.893	5.18
416.099	5.16
416.305	5.28
416.511	5.28
416.716	5.17
416.922	5.23
417.128	5.25
417.334	5.17
417.539	5.14
417.745	5.21
417.951	5.26
418.157	5.14
418.362	5.22
418.568	5.18
418.774	5.22
418.979	5.16
419.185	5.15
419.391	5.19
419.596	5.26
419.802	5.25
420.008	5.16
420.213	5.11
420.419	5.12
420.624	5.1
420.83	5.05
421.035	4.97
421.241	5.08
421.446	5.08
421.652	5.07
421.857	5.01
422.063	4.97
422.268	4.97
422.474	4.97
422.679	5.07
422.885	5.06
423.09	5.1
423.295	5.13
423.501	5.07
423.706	4.98
423.911	4.95
424.117	4.96
424.322	5.05
424.527	5.1
424.733	5.13
424.938	5.07
425.143	4.97
425.349	4.97
425.554	4.94
425.759	4.94
425.964	4.99
426.169	4.99
426.375	4.91
426.58	4.78
426.785	4.74
426.99	4.72
427.195	4.76
427.4	4.79
427.605	4.8
427.811	4.89
428.016	4.97
428.221	4.96
428.426	4.98
428.631	5.17
428.836	5.31
429.041	5.33
429.246	5.35
429.451	5.35
429.656	5.52
429.861	5.55
430.066	5.46
430.271	5.42
430.476	5.51
430.681	5.36
430.886	5.32
431.09	5.13
431.295	5.06
431.5	4.99
431.705	5.01
431.91	4.88
432.115	4.91
432.32	5.01
432.524	5.04
432.729	4.96
432.934	5.03
433.139	4.95
433.343	5.19
433.548	5.2
433.753	5.19
433.958	5.18
434.162	5.19
434.367	5.13
434.572	5.13
434.776	5.1
434.981	5.17
435.186	5.17
435.39	5.29
435.595	5.21
435.799	5.22
436.004	5.26
436.209	5.17
436.413	5.23
436.618	5.24
436.822	5.18
437.027	5.18
437.231	5.18
437.436	5.25
437.64	5.2
437.845	5.1
438.049	5.12
438.253	5.07
438.458	5.09
438.662	5.09
438.867	5.08
439.071	5.1
439.275	5.1
439.48	5.13
439.684	5.04
439.888	4.97
440.093	5.01
440.297	5.02
440.501	5.05
440.706	5.05
440.91	5.08
441.114	5.1
441.318	5.06
441.523	5.12
441.727	5.13
441.931	5.21
442.135	5.23
442.339	5.17
442.543	5.12
442.748	5.05
442.952	5.01
443.156	4.93
443.36	4.92
443.564	4.99
443.768	5
443.972	4.92
444.176	4.91
444.38	4.92
444.584	4.95
444.788	4.96
444.992	5.03
445.196	5.11
445.4	5.07
445.604	5.15
445.808	5.13
446.012	5.11
446.216	5.13
446.42	5.15
446.624	5.15
446.828	5.15
447.032	5.16
447.235	5.15
447.439	5.14
447.643	5.19
447.847	5.1
448.051	5.06
448.254	5.02
448.458	5.02
448.662	5.01
448.866	5.09
449.069	5.14
449.273	5.15
449.477	5.14
449.681	5.1
449.884	5.07
450.088	5.19
450.292	5.3
450.495	5.32
450.699	5.36
450.902	5.38
451.106	5.31
451.31	5.32
451.513	5.37
451.717	5.37
451.92	5.31
452.124	5.45
452.327	5.28
452.531	5.19
452.734	5.09
452.938	5.01
453.141	4.95
453.345	4.93
453.548	4.96
453.752	4.82
453.955	4.73
454.158	4.87
454.362	4.78
454.565	4.88
454.769	4.86
454.972	4.93
455.175	4.99
455.379	4.93
455.582	4.98
455.785	4.86
455.988	5.01
456.192	5.2
456.395	5.12
456.598	5.05
456.801	5.04
457.005	5.11
457.208	5.21
457.411	5.14
457.614	5.29
457.817	5.29
458.021	5.38
458.224	5.27
458.427	5.2
458.63	5.13
458.833	5.16
459.036	5.17
459.239	5.12
459.442	5.09
459.645	5.09
459.848	5.07
460.051	5.04
460.254	4.97
460.457	4.99
460.66	5.01
460.863	5.06
461.066	5.09
461.269	5.04
461.472	5.1
461.675	5.01
461.878	4.96
462.081	4.9
462.284	4.89
462.486	4.93
462.689	5.02
462.892	4.95
463.095	4.93
463.298	4.95
463.5	5.04
463.703	5
463.906	5.05
464.109	5.04
464.311	5.03
464.514	5.05
464.717	4.93
464.92	4.85
465.122	4.9
465.325	4.98
465.528	4.87
465.73	4.89
465.933	4.88
466.135	4.86
466.338	4.96
466.541	4.95
466.743	4.94
466.946	5.07
467.148	5.15
467.351	5.24
467.553	5.2
467.756	5.29
467.958	5.28
468.161	5.23
468.363	5.25
468.566	5.27
468.768	5.31
468.971	5.3
469.173	5.24
469.375	5.13
469.578	5.02
469.78	5.06
469.983	5.06
470.185	4.93
470.387	4.95
470.59	4.98
470.792	5.04
470.994	5.04
471.196	5.05
471.399	5.08
471.601	5.16
471.803	5.03
472.005	5.01
472.208	5.06
472.41	5.12
472.612	5.08
472.814	5.14
473.016	5.05
473.218	4.96
473.421	4.99
473.623	4.9
473.825	4.9
474.027	5.06
474.229	5.01
474.431	4.94
474.633	4.94
474.835	5.01
475.037	4.97
475.239	5.1
475.441	5.14
475.643	5.11
475.845	5.24
476.047	5.14
476.249	5.14
476.451	5.23
476.653	5.29
476.855	5.22
477.057	5.17
477.258	5.12
477.46	5.01
477.662	5
477.864	4.97
478.066	4.98
478.268	5.01
478.469	5.01
478.671	4.91
478.873	4.83
479.075	4.87
479.276	4.96
479.478	4.98
479.68	4.92
479.882	4.97
480.083	4.97
480.285	4.95
480.487	4.93
480.688	4.93
480.89	4.94
481.091	4.95
481.293	4.96
481.495	4.92
481.696	4.93
481.898	4.96
482.099	4.99
482.301	5.04
482.502	5.04
482.704	5.08
482.905	5.09
483.107	5.11
483.308	5.12
483.51	5.12
483.711	5.11
483.913	5.12
484.114	5.11
484.315	5.1
484.517	5.06
484.718	5.03
484.92	4.99
485.121	4.95
485.322	4.92
485.524	4.89
485.725	4.87
485.926	4.87
486.127	4.83
486.329	4.85
486.53	4.82
486.731	4.86
486.932	4.9
487.134	4.88
487.335	4.92
487.536	4.94
487.737	4.94
487.938	4.95
488.139	4.93
488.341	4.92
488.542	4.94
488.743	4.97
488.944	4.95
489.145	4.91
489.346	4.95
489.547	4.97
489.748	5
489.949	4.98
490.15	5.02
490.351	5.06
490.552	5.06
490.753	5.05
490.954	5.04
491.155	5.06
491.356	5.07
491.557	5.08
491.758	5.07
491.959	5.03
492.159	5.05
492.36	5
492.561	4.99
492.762	4.98
492.963	4.96
493.164	4.98
493.364	4.98
493.565	5.03
493.766	5.02
493.967	5.02
494.167	4.99
494.368	5.02
494.569	5.11
494.769	5.17
494.97	5.26
495.171	5.29
495.371	5.27
495.572	5.28
495.773	5.23
495.973	5.24
496.174	5.25
496.375	5.31
496.575	5.31
496.776	5.26
496.976	5.29
497.177	5.25
497.377	5.28
497.578	5.25
497.778	5.23
497.979	5.21
498.179	5.19
498.38	5.19
498.58	5.17
498.78	5.18
498.981	5.19
499.181	5.06
499.382	5.14
499.582	5.11
499.782	5.09
499.983	5.09
500.183	5.19
500.383	5.24
500.584	5.29
500.784	5.27
500.984	5.29
501.184	5.29
501.385	5.42
501.585	5.43
501.785	5.44
501.985	5.52
502.185	5.57
502.386	5.58
502.586	5.56
502.786	5.56
502.986	5.58
503.186	5.56
503.386	5.7
503.586	5.71
503.786	5.71
503.987	5.79
504.187	5.75
504.387	5.78
504.587	5.73
504.787	5.84
504.987	5.94
505.187	5.98
505.387	5.97
505.587	5.88
505.786	5.87
505.986	5.83
506.186	5.79
506.386	5.88
506.586	5.89
506.786	5.96
506.986	5.86
507.186	5.78
507.386	5.83
507.585	5.93
507.785	6.01
507.985	6.06
508.185	6.08
508.384	6.23
508.584	6.29
508.784	6.31
508.984	6.39
509.183	6.56
509.383	6.58
509.583	6.55
509.782	6.61
509.982	6.58
510.182	6.64
510.381	6.7
510.581	6.65
510.781	6.62
510.98	6.66
511.18	6.64
511.379	6.6
511.579	6.67
511.778	6.77
511.978	6.76
512.177	6.78
512.377	6.78
512.576	6.8
512.776	6.8
512.975	6.89
513.175	6.93
513.374	7
513.573	6.99
513.773	6.96
513.972	6.97
514.172	6.96
514.371	7.06
514.57	7.06
514.77	7.1
514.969	7.13
515.168	7.12
515.367	7.15
515.567	7.22
515.766	7.31
515.965	7.38
516.164	7.45
516.364	7.48
516.563	7.57
516.762	7.68
516.961	7.78
517.16	7.89
517.359	7.96
517.559	8.01
517.758	7.97
517.957	8.02
518.156	8.09
518.355	8.1
518.554	8.16
518.753	8.14
518.952	8.15
519.151	8.19
519.35	8.19
519.549	8.18
519.748	8.2
519.947	8.33
520.146	8.34
520.345	8.36
520.544	8.42
520.743	8.5
520.942	8.62
521.141	8.65
521.339	8.68
521.538	8.7
521.737	8.82
521.936	8.76
522.135	8.75
522.333	8.77
522.532	8.81
522.731	8.83
522.93	8.85
523.129	8.77
523.327	8.87
523.526	8.98
523.725	8.98
523.923	8.95
524.122	9.14
524.321	9.21
524.519	9.28
524.718	9.35
524.917	9.43
525.115	9.44
525.314	9.51
525.512	9.52
525.711	9.45
525.909	9.55
526.108	9.65
526.306	9.63
526.505	9.72
526.703	9.78
526.902	9.82
527.1	9.88
527.299	9.95
527.497	10
527.696	10.02
527.894	10.11
528.092	10.2
528.291	10.24
528.489	10.27
528.688	10.25
528.886	10.26
529.084	10.27
529.283	10.26
529.481	10.31
529.679	10.33
529.877	10.38
530.076	10.39
530.274	10.36
530.472	10.36
530.67	10.44
530.869	10.45
531.067	10.51
531.265	10.61
531.463	10.75
531.661	10.77
531.859	10.88
532.057	10.92
532.255	11.02
532.454	11.11
532.652	11.16
532.85	11.19
533.048	11.29
533.246	11.3
533.444	11.31
533.642	11.31
533.84	11.35
534.038	11.35
534.236	11.37
534.434	11.37
534.632	11.39
534.83	11.42
535.027	11.48
535.225	11.52
535.423	11.6
535.621	11.65
535.819	11.75
536.017	11.81
536.215	11.78
536.412	11.86
536.61	11.86
536.808	11.94
537.006	11.97
537.203	12.02
537.401	11.99
537.599	11.99
537.797	12.04
537.994	12.08
538.192	12.11
538.39	12.28
538.587	12.35
538.785	12.42
538.983	12.49
539.18	12.59
539.378	12.6
539.575	12.7
539.773	12.85
539.97	12.91
540.168	12.9
540.366	12.97
540.563	12.95
540.761	13.02
540.958	13.05
541.155	13.03
541.353	13.04
541.55	13.1
541.748	13.15
541.945	13.13
542.143	13.12
542.34	13.16
542.537	13.18
542.735	13.25
542.932	13.26
543.129	13.28
543.327	13.29
543.524	13.31
543.721	13.3
543.919	13.32
544.116	13.38
544.313	13.41
544.51	13.46
544.708	13.5
544.905	13.55
545.102	13.55
545.299	13.59
545.496	13.75
545.693	13.77
545.891	13.84
546.088	13.87
546.285	13.93
546.482	13.96
546.679	14.01
546.876	14.03
547.073	14.05
547.27	14.11
547.467	14.15
547.664	14.1
547.861	14.15
548.058	14.21
548.255	14.29
548.452	14.24
548.649	14.34
548.846	14.29
549.043	14.29
549.24	14.31
549.437	14.37
549.633	14.44
549.83	14.54
550.027	14.63
550.224	14.63
550.421	14.71
550.618	14.72
550.814	14.71
551.011	14.82
551.208	14.88
551.405	14.94
551.601	14.89
551.798	14.87
551.995	14.89
552.191	14.98
552.388	14.95
552.585	14.93
552.781	15.09
552.978	15.1
553.175	15.09
553.371	15.19
553.568	15.22
553.764	15.25
553.961	15.31
554.157	15.38
554.354	15.34
554.55	15.41
554.747	15.33
554.943	15.4
555.14	15.34
555.336	15.38
555.533	15.38
555.729	15.47
555.926	15.39
556.122	15.41
556.318	15.34
556.515	15.43
556.711	15.41
556.907	15.47
557.104	15.43
557.3	15.57
557.496	15.57
557.693	15.6
557.889	15.59
558.085	15.82
558.281	16.02
558.478	16.15
558.674	16.12
558.87	16.23
559.066	16.35
559.262	16.42
559.459	16.57
559.655	16.7
559.851	16.7
560.047	16.63
560.243	16.67
560.439	16.55
560.635	16.48
560.831	16.47
561.027	16.55
561.223	16.6
561.419	16.63
561.615	16.6
561.811	16.56
562.007	16.63
562.203	16.68
562.399	16.73
562.595	16.79
562.791	16.85
562.987	16.89
563.183	16.8
563.379	16.78
563.575	16.68
563.771	16.59
563.966	16.62
564.162	16.55
564.358	16.56
564.554	16.56
564.75	16.58
564.945	16.66
565.141	16.77
565.337	16.88
565.533	16.96
565.728	17.01
565.924	17.14
566.12	17.13
566.315	17.15
566.511	17.17
566.707	17.17
566.902	17.2
567.098	17.24
567.293	17.21
567.489	17.16
567.684	17.13
567.88	17.09
568.076	17.1
568.271	17.22
568.467	17.23
568.662	17.35
568.858	17.41
569.053	17.49
569.248	17.4
569.444	17.44
569.639	17.59
569.835	17.67
570.03	17.8
570.225	17.86
570.421	17.87
570.616	17.96
570.812	17.94
571.007	18.01
571.202	17.94
571.397	18
571.593	18.1
571.788	18.01
571.983	18.03
572.178	18.01
572.374	17.94
572.569	18
572.764	18.03
572.959	17.98
573.154	17.87
573.35	17.97
573.545	18.04
573.74	17.98
573.935	18.01
574.13	17.96
574.325	18.08
574.52	18.16
574.715	18.09
574.91	18.13
575.105	18.35
575.3	18.48
575.495	18.43
575.69	18.42
575.885	18.41
576.08	18.51
576.275	18.61
576.47	18.53
576.665	18.47
576.86	18.46
577.055	18.4
577.25	18.25
577.444	18.09
577.639	18.16
577.834	18.28
578.029	18.2
578.224	18.08
578.418	18.07
578.613	18.18
578.808	18.15
579.003	18.28
579.197	18.29
579.392	18.36
579.587	18.51
579.781	18.53
579.976	18.29
580.171	18.47
580.365	18.55
580.56	18.48
580.755	18.46
580.949	18.52
581.144	18.37
581.338	18.32
581.533	18.23
581.727	18.24
581.922	18.29
582.116	18.42
582.311	18.33
582.505	18.4
582.7	18.41
582.894	18.34
583.089	18.41
583.283	18.53
583.478	18.64
583.672	18.75
583.866	18.59
584.061	18.56
584.255	18.5
584.449	18.47
584.644	18.51
584.838	18.57
585.032	18.58
585.226	18.62
585.421	18.56
585.615	18.59
585.809	18.62
586.003	18.87
586.198	18.82
586.392	18.94
586.586	19.09
586.78	19.03
586.974	19.18
587.168	19.07
587.363	18.96
587.557	19.06
587.751	19.08
587.945	19.11
588.139	19.01
588.333	19.07
588.527	19.13
588.721	19.05
588.915	19.09
589.109	19
589.303	19.27
589.497	19.34
589.691	19.38
589.885	19.32
590.079	19.32
590.273	19.37
590.466	19.31
590.66	19.26
590.854	19.3
591.048	19.19
591.242	19.19
591.436	19.11
591.629	19.1
591.823	19.15
592.017	19.26
592.211	19.35
592.404	19.37
592.598	19.47
592.792	19.39
592.986	19.37
593.179	19.38
593.373	19.36
593.567	19.41
593.76	19.52
593.954	19.52
594.147	19.56
594.341	19.51
594.535	19.52
594.728	19.54
594.922	19.64
595.115	19.77
595.309	19.86
595.502	19.9
595.696	19.84
595.889	19.7
596.083	19.65
596.276	19.57
596.47	19.46
596.663	19.44
596.856	19.4
597.05	19.39
597.243	19.34
597.437	19.47
597.63	19.45
597.823	19.5
598.017	19.64
598.21	19.73
598.403	19.83
598.596	19.93
598.79	20
598.983	20.02
599.176	20.14
599.369	20.14
599.563	19.99
599.756	20.05
599.949	20.04
600.142	20.02
600.335	19.89
600.528	19.85
600.722	19.94
600.915	19.89
601.108	19.82
601.301	19.73
601.494	19.83
601.687	19.83
601.88	19.82
602.073	19.72
602.266	19.75
602.459	19.78
602.652	19.75
602.845	19.69
603.038	19.69
603.231	19.66
603.424	19.71
603.617	19.65
603.809	19.69
604.002	19.68
604.195	19.74
604.388	19.72
604.581	19.77
604.774	19.79
604.966	19.76
605.159	19.86
605.352	19.9
605.545	19.98
605.737	19.99
605.93	19.99
606.123	20.03
606.316	20.09
606.508	20.01
606.701	20.03
606.894	20.1
607.086	20.24
607.279	20.14
607.471	20.31
607.664	20.18
607.857	20.2
608.049	20.21
608.242	20.12
608.434	20.14
608.627	20.24
608.819	20.12
609.012	20.1
609.204	20.13
609.397	20.22
609.589	20.04
609.782	20.07
609.974	20.06
610.166	19.98
610.359	20.03
610.551	20.11
610.743	20.13
610.936	20.13
611.128	20.1
611.32	19.99
611.513	19.93
611.705	19.94
611.897	19.85
612.09	19.82
612.282	19.92
612.474	19.86
612.666	19.67
612.858	19.48
613.051	19.43
613.243	19.41
613.435	19.26
613.627	19.38
613.819	19.51
614.011	19.77
614.203	19.8
614.395	19.71
614.588	19.74
614.78	19.9
614.972	19.93
615.164	20.08
615.356	20.18
615.548	20.46
615.74	20.42
615.932	20.29
616.124	20.17
616.315	20.19
616.507	20.47
616.699	20.37
616.891	20.23
617.083	20.49
617.275	20.5
617.467	20.4
617.659	20.51
617.85	20.41
618.042	20.43
618.234	20.32
618.426	20.46
618.618	20.26
618.809	20.43
619.001	20.58
619.193	20.49
619.384	20.65
619.576	20.76
619.768	20.68
619.959	20.66
620.151	20.83
620.343	20.99
620.534	20.89
620.726	20.97
620.917	20.93
621.109	20.86
621.301	20.8
621.492	20.53
621.684	20.37
621.875	20.13
622.067	20.18
622.258	20.07
622.45	20.15
622.641	20.05
622.832	19.87
623.024	20.03
623.215	20.08
623.407	20.08
623.598	20.11
623.789	20.16
623.981	20.28
624.172	20.25
624.363	20.25
624.555	20.04
624.746	20.14
624.937	20.35
625.129	20.32
625.32	20.38
625.511	20.48
625.702	20.47
625.893	20.49
626.085	20.33
626.276	20.42
626.467	20.55
626.658	20.76
626.849	20.84
627.04	20.68
627.231	20.66
627.422	20.71
627.614	20.78
627.805	21
627.996	21.05
628.187	21.24
628.378	21.31
628.569	21.16
628.76	21.06
628.951	21.07
629.142	21.26
629.332	21.19
629.523	21
629.714	20.85
629.905	20.79
630.096	20.6
630.287	20.72
630.478	20.52
630.669	20.46
630.859	20.48
631.05	20.37
631.241	20.4
631.432	20.48
631.623	20.43
631.813	20.43
632.004	20.44
632.195	20.55
632.385	20.41
632.576	20.54
632.767	20.7
632.957	20.8
633.148	20.7
633.339	20.48
633.529	20.51
633.72	20.73
633.91	20.76
634.101	20.56
634.292	20.74
634.482	20.84
634.673	20.93
634.863	20.8
635.054	20.76
635.244	20.89
635.435	21.11
635.625	21.07
635.815	20.95
636.006	20.95
636.196	21.07
636.387	20.97
636.577	21.02
636.767	20.87
636.958	21.04
637.148	20.84
637.338	20.94
637.529	20.84
637.719	20.83
637.909	20.83
638.099	20.94
638.29	20.98
638.48	21.02
638.67	20.92
638.86	20.92
639.05	20.92
639.241	20.97
639.431	20.98
639.621	20.94
639.811	20.94
640.001	21.03
640.191	20.93
640.381	20.98
640.571	20.92
640.761	20.93
640.951	20.99
641.141	20.96
641.331	21.02
641.521	20.97
641.711	21
641.901	21.07
642.091	21.21
642.281	21.26
642.471	21.26
642.661	21.3
642.851	21.36
643.041	21.41
643.231	21.33
643.42	21.58
643.61	21.79
643.8	21.85
643.99	21.77
644.18	21.56
644.369	21.59
644.559	21.7
644.749	21.88
644.939	21.77
645.128	21.66
645.318	21.82
645.508	21.82
645.697	21.49
645.887	21.54
646.076	21.64
646.266	21.61
646.456	21.46
646.645	21.21
646.835	20.97
647.024	21.05
647.214	21.26
647.403	21.11
647.593	20.98
647.782	20.92
647.972	20.88
648.161	20.82
648.351	21.06
648.54	21.11
648.73	21.29
648.919	21.31
649.108	21.44
649.298	21.4
649.487	21.51
649.677	21.59
649.866	21.63
650.055	21.78
650.244	21.75
650.434	21.61
650.623	21.78
650.812	21.78
651.002	21.8
651.191	21.59
651.38	21.28
651.569	21.28
651.758	21.38
651.947	21.49
652.137	21.4
652.326	21.49
652.515	21.36
652.704	21.41
652.893	21.5
653.082	21.71
653.271	21.69
653.46	22.09
653.649	22.27
653.838	22.12
654.027	22.03
654.216	22.04
654.405	21.93
654.594	21.9
654.783	21.79
654.972	21.96
655.161	22.06
655.35	22.2
655.539	22.07
655.728	21.83
655.916	21.88
656.105	22.01
656.294	21.98
656.483	22.09
656.672	22.09
656.86	21.99
657.049	21.89
657.238	21.63
657.427	21.65
657.615	21.65
657.804	21.72
657.993	21.86
658.181	21.86
658.37	21.89
658.559	22.07
658.747	22.32
658.936	22.42
659.125	22.38
659.313	22.47
659.502	22.44
659.69	22.5
659.879	22.43
660.067	22.29
660.256	22.29
660.444	22.04
660.633	21.59
660.821	21.48
661.01	21.46
661.198	21.44
661.387	21.37
661.575	21.42
661.763	21.32
661.952	21.31
662.14	21.5
662.328	21.51
662.517	21.74
662.705	22.03
662.893	22.04
663.082	22.28
663.27	22.5
663.458	22.54
663.646	22.39
663.834	22.41
664.023	22.46
664.211	22.27
664.399	22.25
664.587	22.37
664.775	22.64
664.963	22.58
665.152	22.18
665.34	21.85
665.528	21.99
665.716	21.97
665.904	22.1
666.092	22.22
666.28	22.11
666.468	22.17
666.656	22.19
666.844	22.08
667.032	22.41
667.22	22.56
667.408	22.44
667.596	22.38
667.784	22.63
667.971	22.78
668.159	22.52
668.347	22.45
668.535	22.32
668.723	22.38
668.911	22.38
669.098	21.97
669.286	21.7
669.474	22.01
669.662	22.26
669.849	22.06
670.037	21.94
670.225	22.05
670.413	22.29
670.6	22.33
670.788	21.95
670.976	21.9
671.163	22.14
671.351	22.43
671.538	22.31
671.726	21.97
671.913	21.82
672.101	21.64
672.289	21.81
672.476	21.76
672.664	21.7
672.851	21.9
673.039	21.79
673.226	21.6
673.413	21.53
673.601	21.41
673.788	21.31
673.976	21.51
674.163	21.69
674.35	21.82
674.538	21.8
674.725	22.04
674.912	21.94
675.1	22.11
675.287	22.22
675.474	22.24
675.662	22.61
675.849	22.82
676.036	23.03
676.223	22.94
676.411	22.77
676.598	22.99
676.785	22.75
676.972	23.03
677.159	23.05
677.346	23.15
677.533	23.27
677.721	23.29
677.908	23.46
678.095	23.5
678.282	23.39
678.469	23.59
678.656	23.46
678.843	23.36
679.03	23.39
679.217	23.37
679.404	23.26
679.591	23.34
679.778	23.26
679.964	23.05
680.151	22.85
680.338	23.07
680.525	22.71
680.712	22.56
680.899	22.87
681.086	22.85
681.272	22.89
681.459	22.85
681.646	22.81
681.833	22.89
682.02	22.85
682.206	22.86
682.393	22.88
682.58	23.12
682.766	23.37
682.953	23.36
683.14	23.52
683.326	23.32
683.513	23.46
683.7	23.44
683.886	23.15
684.073	23.28
684.259	23.42
684.446	23.24
684.632	23.31
684.819	23.41
685.005	23.31
685.192	23.07
685.378	23.32
685.565	23.3
685.751	23.45
685.938	23.67
686.124	23.7
686.31	23.57
686.497	23.78
686.683	23.81
686.87	23.69
687.056	23.75
687.242	23.72
687.429	23.58
687.615	23.79
687.801	23.68
687.987	23.37
688.174	23.27
688.36	23.41
688.546	23.19
688.732	23.08
688.918	22.98
689.105	23.25
689.291	23.38
689.477	23.31
689.663	23.18
689.849	23.24
690.035	23.34
690.221	23.28
690.407	23.45
690.593	23.61
690.779	23.54
690.965	23.5
691.151	22.89
691.337	23.01
691.523	23.12
691.709	23.3
691.895	23.24
692.081	23.56
692.267	23.82
692.453	23.61
692.639	23.55
692.825	23.64
693.011	23.74
693.196	24.13
693.382	24.04
693.568	24.31
693.754	24.17
693.94	24.24
694.125	23.9
694.311	23.64
694.497	23.62
694.682	23.79
694.868	23.98
695.054	24.03
695.239	24.13
695.425	24.06
695.611	24.01
695.796	24.03
695.982	24.13
696.168	24.25
696.353	24.53
696.539	24.3
696.724	24.41
696.91	24.47
697.095	24.32
697.281	24.33
697.466	24.14
697.652	24.18
697.837	23.98
698.023	23.82
698.208	23.91
698.393	23.94
698.579	24
698.764	23.88
698.949	23.81
699.135	23.78
699.32	23.75
699.505	23.95
699.691	23.92
699.876	24.05
700.061	24.15
700.246	24.16
700.432	24.03
700.617	24.3
700.802	24.18
700.987	24.21
701.172	23.98
701.358	23.87
701.543	24.01
701.728	23.97
701.913	24.04
702.098	23.81
702.283	23.99
702.468	24.4
702.653	24.46
702.838	24.54
703.023	24.48
703.208	25.04
703.393	25.14
703.578	25.05
703.763	25.18
703.948	25.21
704.133	26.06
704.318	26.16
704.503	25.95
704.688	25.81
704.873	25.99
705.057	26.23
705.242	26.55
705.427	26.55
705.612	26.77
705.797	26.56
705.981	26.72
706.166	26.36
706.351	26.03
706.536	25.96
706.72	26.25
706.905	26.06
707.09	26.03
707.274	25.92
707.459	26.16
707.644	25.78
707.828	26.3
708.013	26.72
708.197	26.52
708.382	26.75
708.567	26.9
708.751	26.88
708.936	26.98
709.12	26.93
709.305	26.97
709.489	26.88
709.673	27.2
709.858	27.13
710.042	26.55
710.227	26.77
710.411	26.58
710.596	26.44
710.78	26.37
710.964	26.44
711.149	26.54
711.333	26.33
711.517	26.64
711.702	26.59
711.886	26.26
712.07	26.48
712.254	26.24
712.438	26.18
712.623	26.36
712.807	26.24
712.991	26.12
713.175	25.93
713.359	26.2
713.544	25.87
713.728	25.84
713.912	25.87
714.096	26.03
714.28	26.25
714.464	26.18
714.648	26.18
714.832	26.06
715.016	26.41
715.2	26.53
715.384	26.12
715.568	26.14
715.752	26.09
715.936	25.8
716.12	25.22
716.304	24.71
716.488	24.88
716.671	24.49
716.855	24.71
717.039	24.48
717.223	24.27
717.407	24.47
717.59	24.23
717.774	24.37
717.958	24.55
718.142	24.6
718.325	24.99
718.509	24.95
718.693	25.3
718.877	25.02
719.06	24.87
719.244	24.85
719.428	24.69
719.611	24.93
719.795	24.28
719.978	24.58
720.162	24.66
720.345	24.92
720.529	25.05
720.713	25.29
720.896	25.52
721.08	25.5
721.263	25.55
721.446	25.58
721.63	25.67
721.813	25.83
721.997	25.91
722.18	26.18
722.364	25.76
722.547	25.78
722.73	25.56
722.914	25.46
723.097	25.42
723.28	25.67
723.464	25.97
723.647	26.16
723.83	26.39
724.013	26.33
724.197	26.03
724.38	26.24
724.563	26.03
724.746	25.73
724.929	26.3
725.112	26.29
725.296	26.74
725.479	26.7
725.662	26.52
725.845	26.6
726.028	26.52
726.211	26.8
726.394	26.86
726.577	27.2
726.76	27.66
726.943	27.03
727.126	27.11
727.309	26.46
727.492	26.49
727.675	26.55
727.858	26.37
728.041	26.58
728.224	26.22
728.407	26.1
728.589	25.99
728.772	25.51
728.955	25.81
729.138	25.83
729.321	25.84
729.503	25.62
729.686	25.54
729.869	25.69
730.052	25.55
730.234	25.78
730.417	25.83
730.6	25.45
730.782	25.58
730.965	25.48
731.148	25.94
731.33	26.14
731.513	26.04
731.695	25.96
731.878	25.82
732.061	25.98
732.243	26.08
732.426	25.96
732.608	26.25
732.791	26.4
732.973	26.44
733.156	26.01
733.338	25.94
733.52	26.32
733.703	26.33
733.885	26.69
734.068	26.5
734.25	26.43
734.432	27.09
734.615	27.5
734.797	27.33
734.979	27.41
735.162	27.73
735.344	27.98
735.526	27.99
735.708	27.97
735.891	27.76
736.073	27.77
736.255	27.8
736.437	27.12
736.619	26.79
736.802	27.06
736.984	26.56
737.166	26.45
737.348	26.21
737.53	26.18
737.712	26.29
737.894	26.31
738.076	26.34
738.258	26.78
738.44	27.12
738.622	26.8
738.804	26.92
738.986	27.25
739.168	27.21
739.35	27.05
739.532	27.02
739.714	27.35
739.896	27.29
740.078	27.19
740.259	26.83
740.441	26.56
740.623	26.82
740.805	26.98
740.987	27.67
741.168	28.05
741.35	27.95
741.532	27.98
741.714	27.43
741.895	27.59
742.077	27.86
742.259	28.05
742.44	28.43
742.622	28.32
742.804	28.21
742.985	27.69
743.167	26.99
743.348	27.42
743.53	27.66
743.711	27.96
743.893	27.97
744.075	27.66
744.256	27.25
744.438	26.66
744.619	26.94
744.8	26.86
744.982	27.2
745.163	27.98
745.345	28.04
745.526	28.4
745.707	28.58
745.889	28.35
746.07	28.59
746.252	29.14
746.433	29.73
746.614	30.11
746.795	30.29
746.977	29.66
747.158	29.76
747.339	29.66
747.52	28.98
747.702	29.02
747.883	29.46
748.064	29.35
748.245	29.4
748.426	29.31
748.607	28.05
748.788	27.8
748.97	28.42
749.151	27.91
749.332	28.07
749.513	27.75
749.694	27.92
749.875	27.7
750.056	28.13
750.237	27.94
750.418	27.73
750.599	27.89
750.78	28.15
750.96	27.91
751.141	27.95
751.322	28.32
751.503	28.66
751.684	28.81
751.865	28.95
752.046	28.75
752.226	28.67
752.407	29.18
752.588	30.11
752.769	29.94
752.949	29.9
753.13	29.19
753.311	29.18
753.492	29.14
753.672	28.76
753.853	28.89
754.034	28.46
754.214	29.27
754.395	29.02
754.575	28.76
754.756	28.72
754.937	28.48
755.117	29.54
755.298	28.79
755.478	29.25
755.659	28.78
755.839	28.49
756.02	28.94
756.2	27.81
756.381	27.88
756.561	27.97
756.741	28.28
756.922	28.55
757.102	28.54
757.283	28.47
757.463	28.95
757.643	29.53
757.823	30.24
758.004	29.49
758.184	29.7
758.364	29.35
758.545	28.93
758.725	27.95
758.905	27.58
759.085	27.18
759.265	27.57
759.446	26.74
759.626	26.05
759.806	24.47
759.986	24.82
760.166	25.19
760.346	25.01
760.526	25.11
760.706	25.62
760.886	26.01
761.066	25.77
761.246	25.79
761.426	26.12
761.606	26.48
761.786	27.58
761.966	27.25
762.146	27.14
762.326	27.17
762.506	26.93
762.686	26.88
762.866	26.45
763.046	26.96
763.225	27.07
763.405	26.86
763.585	26.59
763.765	26.43
763.945	26.7
764.124	26.37
764.304	26.83
764.484	27.17
764.664	27.3
764.843	27.67
765.023	27.42
765.203	27.51
765.382	27.54
765.562	27.75
765.741	27.9
765.921	28.26
766.101	28.52
766.28	28.36
766.46	28.59
766.639	28.57
766.819	28.44
766.998	28.32
767.178	27.98
767.357	28.12
767.537	28.45
767.716	28.42
767.896	28.42
768.075	28.82
768.254	29.03
768.434	28.68
768.613	28.61
768.792	28.26
768.972	28.21
769.151	27.94
769.33	28.03
769.51	27.86
769.689	27.55
769.868	27.34
770.047	27.37
770.226	27.06
770.406	26.92
770.585	27.18
770.764	27.7
770.943	27.85
771.122	28.22
771.301	28.79
771.48	28.89
771.66	29.67
771.839	29.3
772.018	29.47
772.197	29.4
772.376	30.31
772.555	30.54
772.734	31.37
772.913	31.76
773.092	32.55
773.271	32.1
773.449	32.4
773.628	31.98
773.807	32.95
773.986	32.72
774.165	32.64
774.344	32.75
774.523	31.88
774.701	31.43
774.88	31.06
775.059	31.22
775.238	32.13
775.417	31.99
775.595	31.96
775.774	31.14
775.953	30.95
776.131	31.31
776.31	30.45
776.489	29.98
776.667	29.21
776.846	29.72
777.025	28.72
777.203	27.66
777.382	27.1
777.56	27.37
777.739	28.19
777.917	27.79
778.096	27.79
778.274	28.27
778.453	29.54
778.631	30.11
778.81	29.89
778.988	29.92
779.166	30.81
779.345	31.48
779.523	31.46
779.702	30.6
779.88	31.35
780.058	30.98
780.237	31.07
780.415	31.07
780.593	31.43
780.771	31.19
780.95	32.11
781.128	31.41
781.306	31.76
781.484	31.9
781.662	32.05
781.841	31.85
782.019	31.15
782.197	31.09
782.375	31.22
782.553	30.4
782.731	30.51
782.909	29.51
783.087	29.76
783.265	30.27
783.443	30.86
783.621	30.95
783.799	31.63
783.977	33.15
784.155	32.72
784.333	33.42
784.511	33.82
784.689	32.87
784.867	32.9
785.045	32.71
785.223	31.86
785.4	30.69
785.578	30.99
785.756	30.71
785.934	29.72
786.112	30.68
786.289	29.24
786.467	29.44
786.645	30.87
786.823	30.84
787	30.97
787.178	31.27
787.356	31.08
787.533	31.64
787.711	31.08
787.889	31.49
788.066	30.7
788.244	30.29
788.421	29.97
788.599	30.17
788.776	30.44
788.954	30.26
789.131	29.66
789.309	29.93
789.486	29.35
789.664	30.23
789.841	30.48
790.019	30.22
790.196	30.92
790.373	31.95
790.551	31.54
790.728	31.94
790.906	31.48
791.083	30.38
791.26	30.27
791.437	30.44
791.615	29.57
791.792	29.61
791.969	30.12
792.146	30.67
792.324	29.89
792.501	29.89
792.678	30.43
792.855	30.68
793.032	32.42
793.209	33.62
793.387	32.76
793.564	32.85
793.741	32.97
793.918	32.27
794.095	32.34
794.272	32.3
794.449	31.8
794.626	30.45
794.803	30.7
794.98	30.97
795.157	29.66
795.334	30.99
795.511	31.25
795.688	31.05
795.864	30.76
796.041	31.66
796.218	30.3
796.395	30.93
796.572	31.19
796.749	31.69
796.925	30.87
797.102	31.58
797.279	30.87
797.456	29.86
797.632	29.91
797.809	30.09
797.986	29.83
798.162	30.36
798.339	30.75
798.516	31.17
798.692	30.47
798.869	30.65
799.046	30.43
799.222	30.42
799.399	31.56
799.575	30.74
799.752	32.37
799.928	30.91
800.105	32.36
800.281	32.71
800.458	31.62
800.634	31.66
800.811	32.08
800.987	31.48
801.163	31.81
801.34	30.98
801.516	30.91
801.692	30.17
801.869	29.72
802.045	29.58
802.221	29.6
802.398	30.53
802.574	30.18
802.75	30.19
802.926	30.95
803.103	30.89
803.279	31.14
803.455	32.78
803.631	31.54
803.807	33.03
803.983	31.99
804.16	31.94
804.336	32.31
804.512	34.78
804.688	34.28
804.864	33.97
805.04	33.5
805.216	32.78
805.392	32.79
805.568	33.21
805.744	31.49
805.92	31.76
806.096	29.87
806.272	28.55
806.448	25.47
806.623	25.85
806.799	25.33
806.975	26.18
807.151	26.64
807.327	25.81
807.503	25.96
807.678	28.23
807.854	28.31
808.03	29.18
808.206	29.61
808.381	30.37
808.557	31.58
808.733	31.82
808.908	30.92
809.084	31.16
809.26	31.03
809.435	32.46
809.611	31.24
809.787	31.19
809.962	31.03
810.138	31.66
810.313	31.93
810.489	31.05
810.664	31.23
810.84	30.57
811.015	31.58
811.191	31.89
811.366	30.53
811.542	29.99
811.717	29.48
811.892	29.18
812.068	29.3
812.243	29.62
812.419	29.48
812.594	29.44
812.769	31.05
812.944	29.24
813.12	27.91
813.295	29.04
813.47	28.62
813.645	29.34
813.821	30.3
813.996	30.57
814.171	29.23
814.346	27.71
814.521	27.68
814.697	27.07
814.872	27.15
815.047	28.77
815.222	28.39
815.397	29.05
815.572	28.53
815.747	27.5
815.922	26.96
816.097	27.19
816.272	28.81
816.447	28.71
816.622	27.33
816.797	27.76
816.972	26.1
817.147	25.24
817.322	26.21
817.496	26.52
817.671	27.17
817.846	26.22
818.021	27.01
818.196	26
818.371	25.6
818.545	26.68
818.72	26.82
818.895	27.42
819.069	26.74
819.244	26.2
819.419	26.2
819.594	26.29
819.768	26.8
819.943	26.06
820.117	26.07
820.292	26.14
820.467	26
820.641	26.02
820.816	25.93
820.99	26.31
821.165	26.01
821.339	25.67
821.514	25.67
821.688	25.38
821.863	25.39
822.037	25.17
822.212	25.08
822.386	25.17
822.56	25.23
822.735	25.24
822.909	24.96
823.084	24.95
823.258	24.81
823.432	24.77
823.606	24.94
823.781	25.13
823.955	25.47
824.129	25.7
824.303	25.72
824.478	25.61
824.652	25.34
824.826	25.61
825	26.02
825.174	26.42
825.348	26.23
825.523	25.86
825.697	25.82
825.871	25.49
826.045	25.29
826.219	25.18
826.393	25.61
826.567	26.19
826.741	26.37
826.915	26.23
827.089	26.45
827.263	26.25
827.437	26.6
827.611	26.55
827.784	26.6
827.958	26.75
828.132	26.84
828.306	26.53
828.48	26.7
828.654	26.52
828.827	26.04
829.001	25.86
829.175	25.85
829.349	25.95
829.522	26.25
829.696	26.03
829.87	26.3
830.044	25.94
830.217	26.57
830.391	26.38
830.565	27.04
830.738	27.6
830.912	27.76
831.085	28.27
831.259	27.99
831.432	28.59
831.606	29.4
831.779	28.41
831.953	28.27
832.126	27.49
832.3	27.09
832.473	26.61
832.647	26.61
832.82	26.41
832.994	26.82
833.167	27.32
833.34	26.59
833.514	26.88
833.687	26.69
833.86	27.45
834.034	27.22
834.207	27.74
834.38	28.03
834.553	27.92
834.727	28.25
834.9	27.97
835.073	27.55
835.246	26.67
835.419	26.11
835.593	25.83
835.766	24.59
835.939	24.72
836.112	23.93
836.285	23.39
836.458	24.03
836.631	23.21
836.804	22.78
836.977	22.43
837.15	23.62
837.323	24.48
837.496	26.14
837.669	26.66
837.842	26.82
838.015	27.69
838.188	28.01
838.361	27.57
838.533	27.26
838.706	29.15
838.879	30.2
839.052	31.48
839.225	31.16
839.398	31.01
839.57	31.94
839.743	32.84
839.916	31.73
840.088	33.53
840.261	31.92
840.434	33.32
840.607	32.07
840.779	30.86
840.952	29.09
841.124	28.3
841.297	28.5
841.47	28.53
841.642	27.98
841.815	28.16
841.987	26.13
842.16	28.2
842.332	27.79
842.505	29.09
842.677	31.13
842.85	32.24
843.022	32.8
843.194	32.79
843.367	31.88
843.539	31.43
843.712	32.32
843.884	30.32
844.056	28.57
844.229	28.91
844.401	28.07
844.573	30.7
844.745	32.61
844.918	31.28
845.09	30.33
845.262	33.05
845.434	31.93
845.606	31.29
845.779	37.4
845.951	39.55
846.123	40.4
846.295	35.93
846.467	32.92
846.639	32.28
846.811	36.42
846.983	36.47
847.155	36.32
847.327	37.23
847.499	39.96
847.671	34.92
847.843	33.23
848.015	32.34
848.187	35.86
848.359	36.4
848.531	38.69
848.703	35.93
848.875	34.91
849.047	30.75
849.218	28.69
849.39	26.32
849.562	28.47
849.734	33.79
849.905	34.12
850.077	36.22
850.249	36.6
850.421	32.58
850.592	31.9
850.764	33.88
850.936	36.15
851.107	39.21
851.279	40.42
851.451	40.06
851.622	37.58
851.794	38.03
851.965	37.48
852.137	35.88
852.308	33.07
852.48	35.29
852.651	35.54
852.823	36.38
852.994	33.66
853.166	31.51
853.337	30.76
853.509	28.53
853.68	29.16
853.851	28.06
854.023	27.12
854.194	30.33
854.365	30.7
854.537	29.96
854.708	29.21
854.879	30.73
855.05	29.83
855.222	29.35
855.393	32.64
855.564	28.17
855.735	27.47
855.906	28.63
856.078	30.65
856.249	24.61
856.42	24.39
856.591	25.79
856.762	25.55
856.933	24.58
857.104	24.93
857.275	23.17
857.446	25.25
857.617	24.8
857.788	22.69
857.959	19.48
858.13	23.17
858.301	22.87
858.472	21.76
858.643	20.95
858.814	25
858.985	24.03
859.155	24.38
859.326	24.43
859.497	26.65
859.668	27.83
859.839	29.06
860.009	29.98
860.18	29.2
860.351	32.45
860.522	32.66
860.692	30.68
860.863	33.42
861.034	33.42
861.204	34.38
861.375	33.73
861.546	33.59
861.716	33.43
861.887	34.76
862.057	36.79
862.228	34.06
862.398	34.27
862.569	31.15
862.739	30.83
862.91	29.17
863.08	28.55
863.251	24.53
863.421	23.13
863.592	22.07
863.762	19.53
863.932	20.25
864.103	16.08
864.273	15.85
864.443	19.69
864.614	15.11
864.784	14.97
864.954	14.94
865.125	18.85
865.295	22.74
865.465	22.79
865.635	23.98
865.805	19.46
865.976	22.89
866.146	24.91
866.316	27.22
866.486	26.94
866.656	24.49
866.826	28.5
866.996	29.4
867.166	30.5
867.336	28.02
867.506	27.54
867.676	30.15
867.846	31.16
868.016	30.85
868.186	28.98
868.356	32.31
868.526	34.49
868.696	32.2
868.866	30.39
869.036	24.79
869.206	27.47
869.376	28.55
869.545	31.89
869.715	30.25
869.885	31.39
870.055	35.19
870.224	33.32
870.394	31.93
870.564	31.74
870.734	33.15
870.903	39.06
871.073	40.86
871.243	36.82
871.412	31.96
871.582	29.85
871.751	25.79
871.921	18.98
872.091	18.11
872.26	16.25
872.43	16.43
872.599	15.17
872.769	13.55
872.938	10.28
873.108	14.69
873.277	16.17
873.446	17.08
873.616	19.45
873.785	23.03
873.955	25.38
874.124	27.9
874.293	28.53
874.463	29.8
874.632	27.89
874.801	29.22
874.971	26.58
875.14	23.58
875.309	25.09
875.478	25.15
875.647	24.8
875.817	25.98
875.986	22.33
876.155	19.67
876.324	19.08
876.493	22.65
876.662	23.65
876.831	26.74
877	32.88
877.17	31.32
877.339	30.41
877.508	28.15
877.677	26.46
877.846	31.03
878.015	34.93
878.184	34.67
878.352	31.96
878.521	31.58
878.69	29.97
878.859	28.81
879.028	30.17
879.197	28.83
879.366	29.89
879.534	30.16
879.703	28.93
879.872	26.7
880.041	25.64
880.21	26.14
880.378	24.97
880.547	24.45
880.716	24.13
880.884	23.32
881.053	23.36
881.222	23.36
881.39	22.95
881.559	22.66
881.727	22.92
881.896	23.21
882.065	23.67
882.233	23.42
882.402	23.67
882.57	24.04
882.739	24.6
882.907	24.14
883.076	23.88
883.244	24.02
883.412	23.38
883.581	23.33
883.749	23.34
883.918	22.46
884.086	22.68
884.254	22.74
884.423	21.82
884.591	21.39
884.759	22.69
884.927	22.97
885.096	22.53
885.264	23.52
885.432	23.65
885.6	22.87
885.769	22.4
885.937	22.23
886.105	21.21
886.273	21.84
886.441	21.44
886.609	20.74
886.777	20.58
886.945	21.6
887.113	23.62
887.281	22.91
887.449	24.8
887.617	28.72
887.785	28.07
887.953	29.78
888.121	28.06
888.289	26.11
888.457	25.73
888.625	26.69
888.793	27.89
888.961	26.54
889.129	29.94
889.296	30.52
889.464	27.87
889.632	30.9
889.8	30.33
889.967	34.67
890.135	41.15
