Data from 2938812__Reflection_03.txt Node
Date: Thu Mar 12 16:44:36 EDT 2015
User: robert
Spectrometer: USB4E03002
Autoset integration time: false
Trigger mode: 4
Integration Time (sec): 1.000000E-1
Scans to average: 10
Electric dark correction enabled: false
Nonlinearity correction enabled: false
Boxcar width: 5
Stray light correction enabled: false
XAxis mode: Wavelengths
Stop averaging: false
Number of Pixels in Spectrum: 3648
>>>>>Begin Spectral Data<<<<<
177.575	-53.33
177.794	-118.52
178.014	530.95
178.233	-838.1
178.452	-1550
178.672	519.23
178.891	-182.86
179.11	-325.93
179.33	-233.94
179.549	-434.78
179.768	-113.74
179.987	-10.54
180.207	-191.36
180.426	-1140
180.645	-431.33
180.864	-193.8
181.084	-1
181.303	37.84
181.522	49.21
181.741	110.4
181.96	61.54
182.179	-9.26
182.398	180.7
182.618	65.58
182.837	400
183.056	194.76
183.275	290.12
183.494	997.44
183.713	-22300
183.932	172.65
184.151	116.99
184.37	100
184.589	146.8
184.808	100
185.027	57.3
185.246	20.4
185.465	-31.27
185.684	-260.66
185.903	-237.4
186.122	-155.61
186.341	686.44
186.56	8340
186.779	112.23
186.998	51.91
187.216	38.67
187.435	3.61
187.654	0.49
187.873	-33.84
188.092	-115.18
188.311	-146.44
188.53	-106.75
188.748	-115.72
188.967	-72.27
189.186	-136.42
189.405	-191.89
189.623	-24.07
189.842	43.2
190.061	86.49
190.28	77.54
190.498	48.87
190.717	81.44
190.936	53.41
191.154	43.93
191.373	54.42
191.592	78.83
191.81	85.74
192.029	89.95
192.248	106.27
192.466	123.13
192.685	142.68
192.904	168.32
193.122	125.9
193.341	115.57
193.559	102.97
193.778	82.81
193.996	62.2
194.215	62.13
194.433	68.87
194.652	63.29
194.87	62.37
195.089	54.44
195.307	46.27
195.526	53.7
195.744	69.94
195.963	94.12
196.181	134.55
196.399	78.95
196.618	82.07
196.836	13.7
197.055	37.36
197.273	30.1
197.491	32
197.71	-14.29
197.928	-104.58
198.146	-78.36
198.365	0.34
198.583	-389.36
198.801	-156.39
199.019	-16.57
199.238	18.18
199.456	16.11
199.674	33.85
199.892	-60.53
200.111	-37.3
200.329	44.39
200.547	3.47
200.765	-5.51
200.983	60.96
201.202	26.32
201.42	-482.76
201.638	-22100
201.856	-73.08
202.074	180
202.292	143.75
202.51	60.43
202.728	108.21
202.946	250
203.165	166.24
203.383	153.47
203.601	204.43
203.819	232.82
204.037	241.41
204.255	127.12
204.473	127.97
204.691	132.89
204.909	182.45
205.127	203.09
205.345	165.25
205.562	162.18
205.78	237.98
205.998	276.56
206.216	264.42
206.434	257.06
206.652	-1539.13
206.87	-434.88
207.088	62.54
207.306	84.8
207.523	-24.73
207.741	160
207.959	83.97
208.177	61.56
208.395	50.64
208.612	26.12
208.83	33.53
209.048	40.21
209.266	41
209.483	40.48
209.701	34.75
209.919	15.82
210.136	16.62
210.354	5.32
210.572	2.13
210.79	-4.81
211.007	-4.51
211.225	-24.68
211.442	-21.05
211.66	-14.72
211.878	7.58
212.095	-76.34
212.313	-61.3
212.53	-57.78
212.748	-55.14
212.966	-44.95
213.183	-40.18
213.401	-40.26
213.618	-41.41
213.836	-48.63
214.053	-44.77
214.271	-63.6
214.488	27.55
214.705	16.85
214.923	14.7
215.14	34.35
215.358	28.57
215.575	23.35
215.793	25.48
216.01	19.08
216.227	7.51
216.445	-6.02
216.662	8.28
216.879	3
217.097	1.61
217.314	13.89
217.531	14.32
217.749	10.44
217.966	8.51
218.183	25.7
218.4	26.2
218.618	25.27
218.835	25.8
219.052	19.5
219.269	20.23
219.487	25.05
219.704	25.72
219.921	19.26
220.138	21.08
220.355	33.31
220.572	23.83
220.79	31.42
221.007	51.64
221.224	48.12
221.441	49
221.658	38.97
221.875	36.93
222.092	26.4
222.309	26.53
222.526	24.1
222.743	22.65
222.96	21.85
223.177	13.03
223.394	4.42
223.611	5.83
223.828	5.24
224.045	4.82
224.262	2.86
224.479	-1.03
224.696	-3.03
224.913	-5.54
225.13	-9.99
225.347	-6.82
225.564	-7.32
225.781	-6.15
225.997	-3.64
226.214	-3.38
226.431	-2.32
226.648	-0.25
226.865	3.96
227.082	3.9
227.298	4.73
227.515	5.71
227.732	5.15
227.949	6.22
228.165	6.5
228.382	6.33
228.599	6.61
228.816	6.16
229.032	6.01
229.249	6.24
229.466	5.88
229.682	5.17
229.899	4.83
230.116	4.4
230.332	3.56
230.549	2.35
230.765	1.73
230.982	2.06
231.199	1.76
231.415	1.52
231.632	0.19
231.848	0.39
232.065	0.8
232.281	0.57
232.498	1.62
232.714	2.12
232.931	2.55
233.147	2.85
233.364	2.28
233.58	2.88
233.797	2.97
234.013	3.5
234.23	3.48
234.446	3.27
234.662	4.05
234.879	1.82
235.095	2.22
235.312	2.48
235.528	3.94
235.744	4.31
235.961	4.8
236.177	3.61
236.393	3.86
236.61	4.29
236.826	4.47
237.042	3.21
237.258	4.5
237.475	4.33
237.691	5.33
237.907	4.54
238.123	3.81
238.339	5.11
238.556	5.29
238.772	3.65
238.988	3.19
239.204	3.14
239.42	3.44
239.636	3.63
239.853	4.57
240.069	3.79
240.285	2.59
240.501	2.15
240.717	2.4
240.933	2.72
241.149	2.95
241.365	3.62
241.581	3.76
241.797	3.63
242.013	4.27
242.229	4.2
242.445	4.78
242.661	5.16
242.877	4.92
243.093	4.77
243.309	4.8
243.525	5.19
243.741	4.72
243.957	4.58
244.173	4.49
244.388	3.58
244.604	2.33
244.82	1.51
245.036	2.47
245.252	3.4
245.468	3.52
245.683	3.41
245.899	3.3
246.115	3.26
246.331	3.4
246.547	3.63
246.762	3.75
246.978	4.21
247.194	4.34
247.409	3.97
247.625	3.8
247.841	4
248.057	3.95
248.272	4.02
248.488	4.21
248.703	4.22
248.919	3.96
249.135	3.87
249.35	3.48
249.566	3.12
249.782	2.38
249.997	2.9
250.213	1.78
250.428	2.72
250.644	2.86
250.859	2.92
251.075	2.44
251.29	2.61
251.506	2.94
251.721	3.26
251.937	3.41
252.152	4.29
252.368	3.66
252.583	3.91
252.798	3.47
253.014	3.34
253.229	3.39
253.445	3.74
253.66	4.41
253.875	4.29
254.091	4.5
254.306	3.77
254.521	2.61
254.737	2.63
254.952	2.12
255.167	1.57
255.383	2.3
255.598	2.66
255.813	2.78
256.028	1.24
256.244	2.26
256.459	2.22
256.674	3.44
256.889	3.5
257.104	3.23
257.32	3.37
257.535	3.67
257.75	2.22
257.965	1.25
258.18	1.53
258.395	2.08
258.61	1.72
258.826	1.47
259.041	1.4
259.256	1.6
259.471	1.93
259.686	2.01
259.901	2.2
260.116	2.47
260.331	2.89
260.546	2.91
260.761	2.99
260.976	3.25
261.191	3.3
261.406	3.54
261.621	3.86
261.836	3.86
262.05	4.17
262.265	4.17
262.48	4.59
262.695	4.3
262.91	4.67
263.125	4.4
263.34	3.81
263.555	3.55
263.769	3.24
263.984	3.4
264.199	3.75
264.414	3.34
264.629	3.05
264.843	2.76
265.058	2.43
265.273	1.81
265.488	2.32
265.702	2.47
265.917	2.82
266.132	2.58
266.346	2.24
266.561	1.33
266.776	1.62
266.99	1.75
267.205	1.86
267.42	2.2
267.634	2.29
267.849	2.16
268.063	1.95
268.278	2.17
268.492	2.15
268.707	1.91
268.922	2.06
269.136	1.87
269.351	1.95
269.565	2.04
269.78	2.17
269.994	2.48
270.209	2.31
270.423	2.36
270.637	2.09
270.852	2.44
271.066	2.65
271.281	2.95
271.495	2.92
271.709	2.58
271.924	2.25
272.138	1.96
272.353	1.84
272.567	1.73
272.781	2.07
272.996	2.32
273.21	2.49
273.424	2.48
273.638	2.28
273.853	2.59
274.067	2.76
274.281	3.31
274.495	3.49
274.71	3.01
274.924	3.32
275.138	3.18
275.352	3.18
275.566	2.55
275.781	2.52
275.995	2.85
276.209	2.31
276.423	2.25
276.637	1.75
276.851	2
277.065	2.34
277.279	2.32
277.493	2.23
277.707	2.36
277.921	2.28
278.135	2.17
278.349	2.16
278.563	3.06
278.777	3.34
278.991	3.44
279.205	3.38
279.419	3.49
279.633	3.42
279.847	2.74
280.061	2.71
280.275	3.19
280.489	3.46
280.703	2.71
280.917	1.79
281.131	1.64
281.344	2.16
281.558	1.61
281.772	1.41
281.986	1.3
282.2	1.64
282.414	1.53
282.627	1.44
282.841	1.37
283.055	1.94
283.269	1.94
283.482	1.7
283.696	1.53
283.91	1.86
284.123	2.37
284.337	2.34
284.551	2.2
284.764	2.64
284.978	2.46
285.192	2.39
285.405	2.26
285.619	2.49
285.833	2.7
286.046	2.51
286.26	2.52
286.473	2.32
286.687	2.3
286.9	2.72
287.114	2.17
287.327	2.2
287.541	2.37
287.754	2.63
287.968	2.84
288.181	2.82
288.395	2.72
288.608	2.98
288.822	2.95
289.035	3.15
289.248	2.9
289.462	3.17
289.675	3.24
289.889	3.3
290.102	2.94
290.315	2.69
290.529	2.59
290.742	2.72
290.955	2.77
291.169	2.86
291.382	2.86
291.595	2.76
291.808	2.94
292.022	3.06
292.235	2.9
292.448	3.22
292.661	3.51
292.875	4.21
293.088	4.37
293.301	4.32
293.514	3.94
293.727	3.94
293.94	4
294.153	3.89
294.367	4.14
294.58	4.26
294.793	4.47
295.006	4.42
295.219	3.83
295.432	3.78
295.645	3.88
295.858	4.15
296.071	4.18
296.284	4.43
296.497	4.39
296.71	4.25
296.923	4.33
297.136	4.25
297.349	4.09
297.562	4.17
297.775	4.54
297.988	4.64
298.201	4.63
298.414	4.85
298.626	4.63
298.839	4.81
299.052	4.63
299.265	4.75
299.478	4.75
299.691	4.95
299.903	4.97
300.116	4.67
300.329	4.43
300.542	4.51
300.755	4.36
300.967	4.55
301.18	4.54
301.393	4.68
301.605	4.33
301.818	4.21
302.031	4.37
302.243	4.67
302.456	4.78
302.669	4.83
302.881	4.75
303.094	4.96
303.307	5.18
303.519	5.17
303.732	5.4
303.944	5.45
304.157	5.74
304.37	5.51
304.582	5.42
304.795	5.39
305.007	5.55
305.22	6.09
305.432	5.93
305.645	5.95
305.857	6.19
306.069	6.2
306.282	5.97
306.494	5.91
306.707	6.04
306.919	6.26
307.132	6.72
307.344	6.73
307.556	5.95
307.769	6.25
307.981	6.48
308.193	6.18
308.406	6.06
308.618	6.7
308.83	6.6
309.043	6.61
309.255	6.75
309.467	6.33
309.679	6.47
309.892	7.05
310.104	7.35
310.316	7.34
310.528	7.45
310.74	7.69
310.953	7.64
311.165	8.17
311.377	8.45
311.589	8.61
311.801	8.78
312.013	8.86
312.225	8.76
312.437	8.75
312.649	8.74
312.862	8.9
313.074	8.99
313.286	8.79
313.498	8.71
313.71	8.94
313.922	8.94
314.134	8.97
314.346	8.95
314.558	9.24
314.77	8.88
314.982	9.21
315.193	9.34
315.405	9.44
315.617	9.96
315.829	9.9
316.041	9.71
316.253	9.6
316.465	10.35
316.677	10.49
316.888	10.3
317.1	10.4
317.312	10.47
317.524	11.21
317.736	11.74
317.947	11.49
318.159	11.59
318.371	11.9
318.583	11.98
318.794	11.63
319.006	11.79
319.218	12.22
319.43	12.81
319.641	12.88
319.853	12.38
320.064	11.92
320.276	12.39
320.488	12.78
320.699	12.97
320.911	13.31
321.123	13.66
321.334	13.73
321.546	14.38
321.757	14.28
321.969	14.2
322.18	14.38
322.392	14.27
322.603	14.28
322.815	14.53
323.026	15.07
323.238	15.18
323.449	15.47
323.661	15.26
323.872	14.99
324.083	15.44
324.295	15.64
324.506	15.81
324.718	16.2
324.929	16.41
325.14	16.42
325.352	16.23
325.563	16.62
325.774	16.46
325.986	17.43
326.197	17.68
326.408	17.98
326.62	18.43
326.831	18.34
327.042	18.92
327.253	19.35
327.464	19.47
327.676	19.73
327.887	20.04
328.098	20.4
328.309	20.29
328.52	20.77
328.732	21.09
328.943	21.3
329.154	22.08
329.365	22.23
329.576	22.63
329.787	23.02
329.998	23.81
330.209	23.79
330.42	24.5
330.631	25.21
330.842	25.3
331.053	25.53
331.264	25.82
331.475	25.92
331.686	26.42
331.897	26.42
332.108	26.58
332.319	26.54
332.53	26.83
332.741	26.75
332.952	26.77
333.163	27.34
333.374	27.55
333.585	27.77
333.795	28.16
334.006	28.61
334.217	29.01
334.428	29.05
334.639	29.41
334.849	29.93
335.06	29.99
335.271	30.18
335.482	30.03
335.692	29.94
335.903	30.27
336.114	30.41
336.325	29.87
336.535	29.96
336.746	30.02
336.957	29.95
337.167	29.77
337.378	30.21
337.589	30.38
337.799	30.17
338.01	30.2
338.22	29.89
338.431	29.56
338.642	29.8
338.852	29.41
339.063	29.77
339.273	29.66
339.484	29.57
339.694	29.5
339.905	29.42
340.115	29.59
340.326	29.7
340.536	29.68
340.746	30.18
340.957	30.43
341.167	30.66
341.378	31.03
341.588	31.17
341.799	31.24
342.009	31.2
342.219	31.08
342.43	31.12
342.64	31.17
342.85	31.38
343.061	31.28
343.271	31.12
343.481	31.39
343.691	30.69
343.902	30.56
344.112	30.75
344.322	30.46
344.532	30.06
344.743	30.04
344.953	29.97
345.163	29.9
345.373	29.96
345.583	29.98
345.793	29.7
346.004	29.96
346.214	30.23
346.424	30.25
346.634	30.61
346.844	30.84
347.054	31.05
347.264	31.11
347.474	30.97
347.684	30.66
347.894	30.39
348.104	30.8
348.314	30.84
348.524	30.46
348.734	30.18
348.944	29.63
349.154	29.52
349.364	29.28
349.574	28.99
349.784	29.39
349.994	29.5
350.204	29.52
350.413	29.12
350.623	28.88
350.833	28.56
351.043	28.25
351.253	28.6
351.463	28.72
351.672	28.72
351.882	28.81
352.092	28.39
352.302	28.28
352.511	28.24
352.721	27.98
352.931	28.21
353.141	28.44
353.35	28.38
353.56	28.11
353.77	28.16
353.979	28.04
354.189	28.21
354.399	28.56
354.608	28.65
354.818	28.74
355.027	28.7
355.237	28.7
355.447	28.84
355.656	29.22
355.866	29.53
356.075	29.33
356.285	29.55
356.494	29.57
356.704	29.35
356.913	29.42
357.123	29.32
357.332	29.38
357.542	29.14
357.751	29.18
357.96	29.05
358.17	28.89
358.379	29.06
358.589	28.68
358.798	28.72
359.007	28.7
359.217	28.66
359.426	28.81
359.635	29.1
359.845	29.06
360.054	28.9
360.263	28.9
360.472	28.83
360.682	28.59
360.891	28.73
361.1	28.51
361.309	28.63
361.519	28.3
361.728	28
361.937	27.81
362.146	27.9
362.355	27.66
362.564	27.65
362.774	27.44
362.983	27.53
363.192	27.34
363.401	27.3
363.61	27.1
363.819	27.29
364.028	27.54
364.237	27.64
364.446	27.81
364.655	28.02
364.864	27.82
365.073	28.14
365.282	28.35
365.491	28.56
365.7	28.29
365.909	28.24
366.118	28.19
366.327	28.05
366.536	27.85
366.745	27.63
366.954	27.73
367.162	27.7
367.371	27.56
367.58	27.26
367.789	27.06
367.998	27.12
368.207	27.14
368.415	26.97
368.624	26.99
368.833	27.19
369.042	26.76
369.25	26.94
369.459	26.89
369.668	26.54
369.877	26.5
370.085	26.59
370.294	26.68
370.503	26.76
370.711	26.88
370.92	26.79
371.129	26.6
371.337	26.82
371.546	26.57
371.754	26.63
371.963	26.73
372.171	26.83
372.38	26.84
372.589	26.82
372.797	26.76
373.006	26.74
373.214	26.9
373.423	26.57
373.631	26.63
373.84	26.55
374.048	26.54
374.256	26.73
374.465	26.67
374.673	26.55
374.882	26.67
375.09	26.67
375.298	26.78
375.507	26.62
375.715	27.01
375.923	27.03
376.132	26.92
376.34	26.83
376.548	26.68
376.757	26.8
376.965	26.83
377.173	26.92
377.381	26.81
377.59	26.83
377.798	26.93
378.006	26.91
378.214	26.97
378.423	27.14
378.631	27.32
378.839	27.22
379.047	27.16
379.255	27.19
379.463	27.21
379.671	27.44
379.879	27.21
380.088	27.21
380.296	27.04
380.504	27.05
380.712	26.88
380.92	26.64
381.128	27.02
381.336	27.01
381.544	27.03
381.752	26.8
381.96	26.69
382.168	26.93
382.376	26.8
382.584	26.92
382.791	26.81
382.999	27
383.207	27.31
383.415	27.31
383.623	27.3
383.831	27.57
384.039	27.48
384.247	27.4
384.454	27.29
384.662	27.34
384.87	27.18
385.078	27.31
385.285	27.21
385.493	27.13
385.701	26.91
385.909	26.69
386.116	26.37
386.324	26.44
386.532	26.56
386.739	26.51
386.947	26.69
387.155	26.92
387.362	27
387.57	27.08
387.778	27.28
387.985	27.31
388.193	27.38
388.4	27.37
388.608	27.47
388.816	27.42
389.023	27.39
389.231	27.24
389.438	27.22
389.646	26.93
389.853	26.92
390.061	26.71
390.268	26.83
390.475	27.01
390.683	27.01
390.89	26.84
391.098	26.9
391.305	27.09
391.512	27.26
391.72	26.92
391.927	27.06
392.135	27.05
392.342	26.98
392.549	26.97
392.756	27
392.964	27.02
393.171	27.23
393.378	27.03
393.586	27.02
393.793	26.87
394	27.3
394.207	27.51
394.414	27.56
394.622	27.55
394.829	27.71
395.036	27.47
395.243	27.57
395.45	27.65
395.657	27.85
395.864	27.76
396.072	27.89
396.279	27.84
396.486	27.66
396.693	27.67
396.9	27.92
397.107	27.68
397.314	27.94
397.521	27.92
397.728	27.76
397.935	28.04
398.142	27.92
398.349	28.09
398.556	28.07
398.763	28.12
398.97	28.29
399.177	28.26
399.383	28.53
399.59	28.43
399.797	28.51
400.004	28.8
400.211	28.45
400.418	28.76
400.625	28.62
400.831	28.65
401.038	28.62
401.245	28.58
401.452	28.5
401.658	28.42
401.865	28.5
402.072	28.76
402.279	28.53
402.485	28.69
402.692	28.52
402.899	28.69
403.105	28.93
403.312	29.07
403.519	29.15
403.725	29.25
403.932	29.32
404.138	29.4
404.345	29.16
404.552	29.33
404.758	29.21
404.965	29.54
405.171	29.3
405.378	29.12
405.584	29.13
405.791	29.04
405.997	29.1
406.204	29.07
406.41	29.13
406.617	29.27
406.823	29.24
407.029	29.41
407.236	29.11
407.442	29.25
407.649	29.36
407.855	29.37
408.061	29.58
408.268	29.58
408.474	29.63
408.68	29.57
408.887	29.48
409.093	29.48
409.299	29.53
409.505	29.57
409.712	29.53
409.918	29.32
410.124	29.26
410.33	29.12
410.537	29.02
410.743	29
410.949	29.13
411.155	29.11
411.361	29.12
411.567	28.94
411.773	29.04
411.98	29.1
412.186	29.23
412.392	29.18
412.598	29.17
412.804	29.13
413.01	29.11
413.216	29.1
413.422	29.34
413.628	29.47
413.834	29.54
414.04	29.65
414.246	29.88
414.452	29.83
414.658	29.92
414.864	29.87
415.07	29.86
415.275	29.7
415.481	29.73
415.687	29.56
415.893	29.43
416.099	29.56
416.305	29.72
416.511	29.84
416.716	30.09
416.922	30.12
417.128	30.29
417.334	30.66
417.539	30.86
417.745	30.85
417.951	30.95
418.157	31.01
418.362	31.04
418.568	30.76
418.774	30.69
418.979	30.59
419.185	30.63
419.391	30.65
419.596	30.53
419.802	30.51
420.008	30.56
420.213	29.85
420.419	29.88
420.624	29.83
420.83	30
421.035	29.9
421.241	29.98
421.446	30.05
421.652	30.1
421.857	30.22
422.063	30.37
422.268	30.48
422.474	31.16
422.679	31.2
422.885	31.49
423.09	31.58
423.295	31.74
423.501	31.76
423.706	31.76
423.911	31.61
424.117	31.65
424.322	31.59
424.527	31.39
424.733	31.46
424.938	31.49
425.143	31.32
425.349	31.28
425.554	31.26
425.759	31.18
425.964	31.14
426.169	31.31
426.375	31.16
426.58	31.2
426.785	31.34
426.99	31.27
427.195	31.41
427.4	31.38
427.605	31.47
427.811	31.56
428.016	31.66
428.221	31.83
428.426	31.79
428.631	31.81
428.836	31.81
429.041	31.97
429.246	32.08
429.451	32.04
429.656	32.19
429.861	32.12
430.066	32.14
430.271	32.12
430.476	32.14
430.681	32.21
430.886	32.32
431.09	32.31
431.295	32.25
431.5	32.22
431.705	32.19
431.91	32.16
432.115	32.25
432.32	32.26
432.524	32.42
432.729	32.5
432.934	32.63
433.139	32.62
433.343	32.66
433.548	32.77
433.753	32.83
433.958	32.92
434.162	33.02
434.367	33.11
434.572	33.19
434.776	33.19
434.981	33.24
435.186	33.21
435.39	33.33
435.595	33.54
435.799	33.57
436.004	33.63
436.209	33.7
436.413	33.7
436.618	33.58
436.822	33.5
437.027	33.48
437.231	33.39
437.436	33.4
437.64	33.36
437.845	33.28
438.049	33.31
438.253	33.29
438.458	33.3
438.662	33.31
438.867	33.36
439.071	33.36
439.275	33.54
439.48	33.62
439.684	33.62
439.888	33.63
440.093	33.62
440.297	33.62
440.501	33.77
440.706	33.72
440.91	33.75
441.114	33.85
441.318	33.86
441.523	33.72
441.727	33.75
441.931	33.79
442.135	33.92
442.339	33.91
442.543	33.85
442.748	33.75
442.952	33.86
443.156	33.84
443.36	33.86
443.564	34.06
443.768	34.22
443.972	34.11
444.176	34.23
444.38	34.21
444.584	34.24
444.788	34.29
444.992	34.32
445.196	34.22
445.4	34.27
445.604	34.24
445.808	34.14
446.012	34.08
446.216	34.16
446.42	34.02
446.624	33.95
446.828	33.96
447.032	33.95
447.235	34.01
447.439	34.03
447.643	34
447.847	33.93
448.051	33.94
448.254	33.93
448.458	33.88
448.662	33.99
448.866	34.03
449.069	33.94
449.273	33.87
449.477	33.73
449.681	33.72
449.884	33.72
450.088	33.76
450.292	33.81
450.495	33.88
450.699	33.97
450.902	33.88
451.106	33.87
451.31	33.97
451.513	33.99
451.717	33.99
451.92	34.08
452.124	34.05
452.327	34.11
452.531	34.02
452.734	34.05
452.938	34.01
453.141	34.05
453.345	34.07
453.548	34.15
453.752	34.19
453.955	34.25
454.158	34.26
454.362	34.11
454.565	34.12
454.769	34.2
454.972	34.13
455.175	34.19
455.379	34.21
455.582	34.19
455.785	34.09
455.988	34.17
456.192	34.23
456.395	34.17
456.598	34.31
456.801	34.18
457.005	34.17
457.208	34.2
457.411	33.99
457.614	34.01
457.817	34.11
458.021	34.21
458.224	34.14
458.427	34.04
458.63	34.05
458.833	34.1
459.036	34.26
459.239	34.21
459.442	34.25
459.645	34.32
459.848	34.27
460.051	34.27
460.254	34.25
460.457	34.26
460.66	34.22
460.863	34.17
461.066	34.11
461.269	34.02
461.472	34.07
461.675	34.03
461.878	34.02
462.081	34
462.284	33.92
462.486	33.92
462.689	33.97
462.892	34.05
463.095	34.11
463.298	34.24
463.5	34.21
463.703	34.11
463.906	33.97
464.109	34
464.311	34.09
464.514	34.19
464.717	34.18
464.92	34.1
465.122	34.14
465.325	34.09
465.528	34.07
465.73	34.09
465.933	34.21
466.135	34.29
466.338	34.24
466.541	34.23
466.743	34.12
466.946	34.13
467.148	34.29
467.351	34.27
467.553	34.35
467.756	34.36
467.958	34.34
468.161	34.24
468.363	34.19
468.566	34.23
468.768	34.25
468.971	34.31
469.173	34.31
469.375	34.12
469.578	34.18
469.78	34.17
469.983	34.17
470.185	34.17
470.387	34.22
470.59	34.3
470.792	34.31
470.994	34.2
471.196	34.26
471.399	34.24
471.601	34.38
471.803	34.41
472.005	34.4
472.208	34.35
472.41	34.46
472.612	34.49
472.814	34.46
473.016	34.47
473.218	34.59
473.421	34.48
473.623	34.4
473.825	34.24
474.027	34.26
474.229	34.25
474.431	34.19
474.633	34.17
474.835	34.08
475.037	34.17
475.239	34.27
475.441	34.2
475.643	34.28
475.845	34.4
476.047	34.56
476.249	34.47
476.451	34.46
476.653	34.51
476.855	34.44
477.057	34.54
477.258	34.45
477.46	34.33
477.662	34.28
477.864	34.21
478.066	34.21
478.268	34.14
478.469	34.22
478.671	34.24
478.873	34.3
479.075	34.19
479.276	34.22
479.478	34.33
479.68	34.36
479.882	34.5
480.083	34.49
480.285	34.38
480.487	34.4
480.688	34.36
480.89	34.39
481.091	34.38
481.293	34.48
481.495	34.51
481.696	34.38
481.898	34.45
482.099	34.4
482.301	34.43
482.502	34.38
482.704	34.39
482.905	34.34
483.107	34.4
483.308	34.39
483.51	34.3
483.711	34.3
483.913	34.34
484.114	34.25
484.315	34.22
484.517	34.17
484.718	34.2
484.92	34.17
485.121	34.15
485.322	34.05
485.524	34.01
485.725	34.09
485.926	34.03
486.127	34.06
486.329	34.15
486.53	34.24
486.731	34.27
486.932	34.28
487.134	34.36
487.335	34.36
487.536	34.4
487.737	34.4
487.938	34.41
488.139	34.42
488.341	34.44
488.542	34.41
488.743	34.38
488.944	34.39
489.145	34.39
489.346	34.34
489.547	34.41
489.748	34.45
489.949	34.49
490.15	34.49
490.351	34.51
490.552	34.45
490.753	34.51
490.954	34.54
491.155	34.48
491.356	34.49
491.557	34.48
491.758	34.48
491.959	34.46
492.159	34.45
492.36	34.45
492.561	34.49
492.762	34.5
492.963	34.47
493.164	34.41
493.364	34.38
493.565	34.34
493.766	34.38
493.967	34.39
494.167	34.35
494.368	34.36
494.569	34.45
494.769	34.37
494.97	34.39
495.171	34.42
495.371	34.55
495.572	34.72
495.773	34.89
495.973	34.9
496.174	34.91
496.375	34.94
496.575	34.97
496.776	34.84
496.976	34.9
497.177	35.02
497.377	34.97
497.578	34.93
497.778	34.94
497.979	34.93
498.179	34.87
498.38	34.88
498.58	34.85
498.78	34.85
498.981	34.92
499.181	34.95
499.382	34.73
499.582	34.81
499.782	34.78
499.983	34.77
500.183	34.79
500.383	34.82
500.584	34.78
500.784	34.88
500.984	34.92
501.184	34.97
501.385	35.01
501.585	35.23
501.785	35.2
501.985	35.19
502.185	35.19
502.386	35.28
502.586	35.36
502.786	35.4
502.986	35.36
503.186	35.4
503.386	35.35
503.586	35.3
503.786	35.27
503.987	35.29
504.187	35.36
504.387	35.44
504.587	35.29
504.787	35.28
504.987	35.33
505.187	35.37
505.387	35.34
505.587	35.33
505.786	35.41
505.986	35.42
506.186	35.43
506.386	35.53
506.586	35.45
506.786	35.55
506.986	35.69
507.186	35.66
507.386	35.68
507.585	35.71
507.785	35.75
507.985	35.76
508.185	35.72
508.384	35.78
508.584	35.71
508.784	35.8
508.984	35.89
509.183	35.8
509.383	35.79
509.583	35.76
509.782	35.9
509.982	35.87
510.182	35.93
510.381	35.97
510.581	35.99
510.781	36
510.98	36
511.18	35.91
511.379	35.84
511.579	35.88
511.778	35.88
511.978	35.64
512.177	35.65
512.377	35.56
512.576	35.61
512.776	35.66
512.975	35.7
513.175	35.69
513.374	35.72
513.573	35.8
513.773	35.75
513.972	35.75
514.172	35.82
514.371	35.93
514.57	35.97
514.77	35.95
514.969	35.85
515.168	35.85
515.367	35.84
515.567	35.87
515.766	35.9
515.965	35.91
516.164	36.02
516.364	36.07
516.563	36.04
516.762	36.07
516.961	36.02
517.16	36.01
517.359	35.94
517.559	35.89
517.758	35.91
517.957	35.98
518.156	36.07
518.355	36.06
518.554	36.03
518.753	36.05
518.952	35.93
519.151	35.9
519.35	35.94
519.549	35.98
519.748	36
519.947	36
520.146	35.99
520.345	36
520.544	35.95
520.743	35.99
520.942	35.98
521.141	36.01
521.339	36.12
521.538	35.96
521.737	36.05
521.936	36.12
522.135	36.07
522.333	36.03
522.532	36
522.731	36.01
522.93	36.04
523.129	36
523.327	36.04
523.526	36.02
523.725	36.2
523.923	36.12
524.122	36.13
524.321	36.13
524.519	36.18
524.718	36.2
524.917	36.26
525.115	36.22
525.314	36.32
525.512	36.34
525.711	36.33
525.909	36.32
526.108	36.31
526.306	36.29
526.505	36.26
526.703	36.22
526.902	36.27
527.1	36.28
527.299	36.31
527.497	36.29
527.696	36.26
527.894	36.23
528.092	36.2
528.291	36.21
528.489	36.2
528.688	36.2
528.886	36.18
529.084	36.11
529.283	36.06
529.481	35.99
529.679	35.91
529.877	35.88
530.076	35.85
530.274	35.82
530.472	35.73
530.67	35.75
530.869	35.74
531.067	35.77
531.265	35.9
531.463	35.92
531.661	36.01
531.859	36.09
532.057	36.17
532.255	36.25
532.454	36.29
532.652	36.38
532.85	36.32
533.048	36.33
533.246	36.31
533.444	36.26
533.642	36.24
533.84	36.21
534.038	36.21
534.236	36.23
534.434	36.21
534.632	36.21
534.83	36.25
535.027	36.22
535.225	36.19
535.423	36.2
535.621	36.25
535.819	36.25
536.017	36.31
536.215	36.29
536.412	36.24
536.61	36.26
536.808	36.24
537.006	36.21
537.203	36.31
537.401	36.43
537.599	36.51
537.797	36.42
537.994	36.45
538.192	36.41
538.39	36.41
538.587	36.52
538.785	36.55
538.983	36.65
539.18	36.74
539.378	36.84
539.575	36.85
539.773	36.86
539.97	36.95
540.168	37.04
540.366	37.07
540.563	37.1
540.761	37.09
540.958	37.08
541.155	37.1
541.353	37.08
541.55	37.05
541.748	37.03
541.945	37.05
542.143	36.97
542.34	36.96
542.537	36.98
542.735	36.95
542.932	36.91
543.129	36.9
543.327	36.85
543.524	36.86
543.721	36.9
543.919	36.97
544.116	37.03
544.313	37.21
544.51	37.26
544.708	37.42
544.905	37.57
545.102	37.74
545.299	37.85
545.496	38.02
545.693	38.03
545.891	37.99
546.088	37.96
546.285	37.98
546.482	37.82
546.679	37.85
546.876	37.73
547.073	37.71
547.27	37.69
547.467	37.68
547.664	37.54
547.861	37.51
548.058	37.6
548.255	37.54
548.452	37.27
548.649	37.23
548.846	37.02
549.043	36.95
549.24	36.88
549.437	36.68
549.633	36.61
549.83	36.58
550.027	36.58
550.224	36.41
550.421	36.55
550.618	36.64
550.814	36.76
551.011	36.88
551.208	36.88
551.405	36.95
551.601	37.07
551.798	37.03
551.995	36.97
552.191	37
552.388	36.97
552.585	36.86
552.781	36.93
552.978	36.75
553.175	36.6
553.371	36.56
553.568	36.3
553.764	36.23
553.961	36.17
554.157	36.09
554.354	35.95
554.55	35.96
554.747	35.91
554.943	35.8
555.14	35.92
555.336	35.96
555.533	36
555.729	36.07
555.926	36.13
556.122	36.26
556.318	36.4
556.515	36.46
556.711	36.55
556.907	36.6
557.104	36.7
557.3	36.63
557.496	36.56
557.693	36.49
557.889	36.59
558.085	36.55
558.281	36.53
558.478	36.37
558.674	36.34
558.87	36.27
559.066	36.26
559.262	36.11
559.459	36.19
559.655	36.28
559.851	36.39
560.047	36.42
560.243	36.49
560.439	36.43
560.635	36.59
560.831	36.65
561.027	36.68
561.223	36.79
561.419	36.87
561.615	36.95
561.811	36.96
562.007	36.85
562.203	36.95
562.399	36.82
562.595	36.82
562.791	36.69
562.987	36.62
563.183	36.7
563.379	36.54
563.575	36.61
563.771	36.59
563.966	36.45
564.162	36.51
564.358	36.51
564.554	36.5
564.75	36.56
564.945	36.72
565.141	36.72
565.337	36.64
565.533	36.71
565.728	36.7
565.924	36.69
566.12	36.84
566.315	36.73
566.511	36.58
566.707	36.61
566.902	36.54
567.098	36.45
567.293	36.48
567.489	36.57
567.684	36.51
567.88	36.45
568.076	36.42
568.271	36.36
568.467	36.55
568.662	36.65
568.858	36.71
569.053	36.72
569.248	36.66
569.444	36.59
569.639	36.64
569.835	36.59
570.03	36.52
570.225	36.44
570.421	36.51
570.616	36.47
570.812	36.49
571.007	36.48
571.202	36.48
571.397	36.5
571.593	36.67
571.788	36.53
571.983	36.63
572.178	36.66
572.374	36.76
572.569	36.71
572.764	36.8
572.959	36.77
573.154	36.73
573.35	36.82
573.545	36.88
573.74	36.86
573.935	36.94
574.13	37.03
574.325	37.14
574.52	37.2
574.715	37.23
574.91	37.07
575.105	37.12
575.3	37.16
575.495	37.13
575.69	37.21
575.885	37.08
576.08	37.04
576.275	37.03
576.47	36.94
576.665	36.86
576.86	36.9
577.055	36.97
577.25	36.93
577.444	37.11
577.639	37.19
577.834	37.19
578.029	37.37
578.224	37.35
578.418	37.29
578.613	37.46
578.808	37.54
579.003	37.59
579.197	37.64
579.392	37.81
579.587	37.61
579.781	37.66
579.976	37.7
580.171	37.71
580.365	37.91
580.56	37.86
580.755	37.73
580.949	37.75
581.144	37.64
581.338	37.74
581.533	37.8
581.727	37.89
581.922	37.89
582.116	37.91
582.311	38.03
582.505	37.92
582.7	38.02
582.894	38.17
583.089	38.45
583.283	38.52
583.478	38.3
583.672	38.23
583.866	38.22
584.061	38.26
584.255	38.27
584.449	38.19
584.644	38.15
584.838	38.2
585.032	38.19
585.226	38.07
585.421	38
585.615	38.29
585.809	38.32
586.003	38.48
586.198	38.39
586.392	38.47
586.586	38.4
586.78	38.54
586.974	38.51
587.168	38.49
587.363	38.31
587.557	38.41
587.751	38.3
587.945	38.28
588.139	38.25
588.333	38.2
588.527	38.23
588.721	38.36
588.915	38.27
589.109	38.4
589.303	38.4
589.497	38.38
589.691	38.49
589.885	38.5
590.079	38.62
590.273	38.58
590.466	38.72
590.66	38.59
590.854	38.54
591.048	38.73
591.242	38.6
591.436	38.65
591.629	38.87
591.823	38.85
592.017	38.85
592.211	38.83
592.404	38.92
592.598	38.75
592.792	38.69
592.986	38.71
593.179	38.63
593.373	38.55
593.567	38.47
593.76	38.36
593.954	38.21
594.147	38.23
594.341	38.07
594.535	38.08
594.728	38.28
594.922	38.48
595.115	38.34
595.309	38.36
595.502	38.34
595.696	38.33
595.889	38.26
596.083	38.32
596.276	38.37
596.47	38.33
596.663	38.3
596.856	38.22
597.05	38.25
597.243	38.25
597.437	38.2
597.63	38.34
597.823	38.41
598.017	38.47
598.21	38.49
598.403	38.27
598.596	38.39
598.79	38.39
598.983	38.49
599.176	38.33
599.369	38.55
599.563	38.55
599.756	38.56
599.949	38.65
600.142	38.78
600.335	39.05
600.528	39.35
600.722	39.44
600.915	39.37
601.108	39.3
601.301	39.09
601.494	38.87
601.687	38.89
601.88	38.9
602.073	38.87
602.266	38.86
602.459	38.71
602.652	38.68
602.845	38.68
603.038	38.66
603.231	38.65
603.424	38.75
603.617	38.71
603.809	38.78
604.002	38.79
604.195	38.74
604.388	38.69
604.581	38.49
604.774	38.38
604.966	38.39
605.159	38.53
605.352	38.61
605.545	38.67
605.737	38.89
605.93	38.92
606.123	38.92
606.316	38.94
606.508	39.06
606.701	39.43
606.894	39.72
607.086	39.91
607.279	40.05
607.471	40.18
607.664	40.57
607.857	40.69
608.049	40.79
608.242	41.03
608.434	41.59
608.627	41.97
608.819	42.68
609.012	43.22
609.204	43.89
609.397	44.62
609.589	45.41
609.782	46.22
609.974	47.16
610.166	48.17
610.359	49.27
610.551	49.95
610.743	50.76
610.936	51.13
611.128	51.68
611.32	51.68
611.513	51.85
611.705	51.9
611.897	51.74
612.09	51.42
612.282	51.06
612.474	50.43
612.666	49.86
612.858	49.4
613.051	49.08
613.243	48.55
613.435	48.31
613.627	47.71
613.819	47.17
614.011	46.68
614.203	46.17
614.395	45.65
614.588	45.32
614.78	45.16
614.972	44.78
615.164	44.14
615.356	43.62
615.548	43.43
615.74	43.15
615.932	42.68
616.124	42.33
616.315	42.26
616.507	42.11
616.699	41.8
616.891	41.52
617.083	41.3
617.275	41.09
617.467	41
617.659	40.75
617.85	40.6
618.042	40.74
618.234	40.66
618.426	40.58
618.618	40.59
618.809	40.55
619.001	40.58
619.193	40.32
619.384	40.5
619.576	40.36
619.768	40.49
619.959	40.57
620.151	40.48
620.343	40.72
620.534	40.91
620.726	40.69
620.917	40.76
621.109	40.77
621.301	41.12
621.492	41.14
621.684	41.31
621.875	41.18
622.067	41.3
622.258	41.37
622.45	41.18
622.641	41.08
622.832	41.32
623.024	41.46
623.215	41.18
623.407	40.99
623.598	40.96
623.789	40.99
623.981	41.06
624.172	41
624.363	40.98
624.555	41.05
624.746	41.01
624.937	40.95
625.129	40.87
625.32	41.3
625.511	41.38
625.702	41.48
625.893	41.51
626.085	41.45
626.276	41.32
626.467	41.45
626.658	41.52
626.849	41.53
627.04	41.47
627.231	41.33
627.422	41.19
627.614	41.17
627.805	41.13
627.996	41.17
628.187	41.22
628.378	41.32
628.569	41.29
628.76	41.31
628.951	41.47
629.142	41.79
629.332	42.02
629.523	42.07
629.714	42.18
629.905	42.35
630.096	42.39
630.287	42.53
630.478	42.65
630.669	42.52
630.859	42.58
631.05	42.31
631.241	42.22
631.432	42.1
631.623	41.78
631.813	41.7
632.004	41.48
632.195	41.4
632.385	41.11
632.576	40.96
632.767	41.06
632.957	40.9
633.148	40.82
633.339	40.65
633.529	40.56
633.72	40.66
633.91	40.58
634.101	40.44
634.292	40.19
634.482	40.21
634.673	40.29
634.863	40.57
635.054	40.5
635.244	40.35
635.435	40.17
635.625	40.23
635.815	40.35
636.006	40.25
636.196	40.28
636.387	40.51
636.577	40.64
636.767	40.42
636.958	40.11
637.148	40.06
637.338	40.4
637.529	40.62
637.719	40.65
637.909	40.62
638.099	40.66
638.29	40.78
638.48	40.65
638.67	40.67
638.86	40.97
639.05	40.89
639.241	40.65
639.431	40.26
639.621	40.17
639.811	40.15
640.001	40.11
640.191	40.09
640.381	40.09
640.571	40.26
640.761	40.24
640.951	40.03
641.141	40.1
641.331	40.24
641.521	40.57
641.711	40.76
641.901	41.02
642.091	41.08
642.281	40.98
642.471	40.91
642.661	40.82
642.851	40.69
643.041	40.62
643.231	40.49
643.42	40.7
643.61	40.75
643.8	40.57
643.99	40.27
644.18	40.16
644.369	40.29
644.559	40.17
644.749	40.38
644.939	40.46
645.128	40.5
645.318	40.65
645.508	40.62
645.697	40.52
645.887	40.38
646.076	40.28
646.266	40.39
646.456	40.43
646.645	40.76
646.835	40.33
647.024	40.55
647.214	40.79
647.403	40.9
647.593	41.07
647.782	41.22
647.972	41.45
648.161	41.49
648.351	41.5
648.54	41.64
648.73	41.75
648.919	42.14
649.108	42.16
649.298	42.11
649.487	42.11
649.677	42.05
649.866	41.97
650.055	41.91
650.244	42.13
650.434	42.21
650.623	42.07
650.812	42.09
651.002	42.1
651.191	41.96
651.38	41.89
651.569	41.85
651.758	41.93
651.947	42.08
652.137	42.07
652.326	41.95
652.515	42
652.704	42.09
652.893	42.02
653.082	42.07
653.271	42.26
653.46	42.33
653.649	42.26
653.838	42.22
654.027	42.13
654.216	42.15
654.405	42.23
654.594	42.23
654.783	42.14
654.972	41.88
655.161	41.73
655.35	41.49
655.539	41.48
655.728	41.5
655.916	41.41
656.105	41.21
656.294	41.22
656.483	41.17
656.672	41.11
656.86	41.12
657.049	41.37
657.238	41.35
657.427	41.5
657.615	41.55
657.804	41.59
657.993	41.67
658.181	42.01
658.37	42.16
658.559	42.26
658.747	42.15
658.936	42.12
659.125	42.18
659.313	42.2
659.502	41.99
659.69	41.9
659.879	41.99
660.067	41.79
660.256	41.64
660.444	41.58
660.633	41.68
660.821	41.94
661.01	42.19
661.198	42.14
661.387	42.36
661.575	42.3
661.763	42.59
661.952	42.61
662.14	42.95
662.328	43.08
662.517	43.13
662.705	42.91
662.893	42.7
663.082	42.6
663.27	42.56
663.458	42.36
663.646	42.97
663.834	42.9
664.023	43.06
664.211	42.96
664.399	42.95
664.587	42.91
664.775	43.01
664.963	43.21
665.152	43.17
665.34	42.97
665.528	43.03
665.716	42.61
665.904	42.48
666.092	42.29
666.28	42.34
666.468	42.45
666.656	42.41
666.844	42.32
667.032	42.31
667.22	42.79
667.408	43.03
667.596	43.25
667.784	43.42
667.971	43.35
668.159	43.21
668.347	43.3
668.535	43.04
668.723	43.31
668.911	43.29
669.098	43.03
669.286	42.57
669.474	42.51
669.662	42.36
669.849	42.33
670.037	42.6
670.225	42.91
670.413	43
670.6	43.18
670.788	43.21
670.976	43.19
671.163	43.26
671.351	43.45
671.538	43.61
671.726	43.58
671.913	43.55
672.101	43.39
672.289	43.12
672.476	42.95
672.664	42.98
672.851	43.01
673.039	43.46
673.226	43.8
673.413	43.79
673.601	43.59
673.788	43.79
673.976	43.79
674.163	43.96
674.35	44.14
674.538	43.99
674.725	43.95
674.912	43.71
675.1	43.58
675.287	43.56
675.474	43.5
675.662	43.89
675.849	44.08
676.036	44.32
676.223	43.99
676.411	43.97
676.598	44.01
676.785	43.9
676.972	43.81
677.159	43.54
677.346	43.5
677.533	43.39
677.721	43.14
677.908	42.86
678.095	42.8
678.282	43.03
678.469	42.96
678.656	43.16
678.843	43.11
679.03	43.51
679.217	43.62
679.404	43.33
679.591	43.35
679.778	43.52
679.964	43.37
680.151	43.06
680.338	43.05
680.525	43.17
680.712	43.12
680.899	43.17
681.086	42.96
681.272	42.83
681.459	43.04
681.646	43.19
681.833	43.12
682.02	43.39
682.206	44
682.393	44.17
682.58	44.22
682.766	44.23
682.953	44.44
683.14	44.23
683.326	44.59
683.513	44.8
683.7	44.64
683.886	44.75
684.073	44.64
684.259	44.23
684.446	44.12
684.632	44.38
684.819	44.21
685.005	44.23
685.192	44.72
685.378	44.67
685.565	44.54
685.751	44.77
685.938	44.35
686.124	44.55
686.31	44.88
686.497	44.9
686.683	44.67
686.87	44.98
687.056	45.01
687.242	44.73
687.429	44.83
687.615	44.6
687.801	44.59
687.987	44.85
688.174	44.68
688.36	44.4
688.546	44.55
688.732	44.38
688.918	44.25
689.105	44.27
689.291	44.35
689.477	44.41
689.663	44.74
689.849	44.75
690.035	44.96
690.221	45.13
690.407	45.15
690.593	44.94
690.779	45.21
690.965	45.25
691.151	45.67
691.337	45.7
691.523	45.59
691.709	45.65
691.895	45.49
692.081	45.29
692.267	44.97
692.453	45.05
692.639	45.09
692.825	45.22
693.011	45.54
693.196	45.3
693.382	45.46
693.568	45.36
693.754	45.12
693.94	45.29
694.125	45.4
694.311	45.66
694.497	46.19
694.682	46.26
694.868	46.25
695.054	45.96
695.239	45.97
695.425	45.76
695.611	45.81
695.796	45.94
695.982	45.87
696.168	46.09
696.353	46.57
696.539	46.18
696.724	45.95
696.91	45.96
697.095	46.29
697.281	45.98
697.466	46.11
697.652	46.27
697.837	46.39
698.023	46.31
698.208	46.14
698.393	45.87
698.579	46
698.764	46.18
698.949	45.98
699.135	45.81
699.32	45.95
699.505	45.88
699.691	45.79
699.876	45.79
700.061	45.96
700.246	46.12
700.432	45.96
700.617	46.02
700.802	45.93
700.987	45.85
701.172	46.04
701.358	46.09
701.543	46.29
701.728	46.2
701.913	46.35
702.098	46.46
702.283	46.59
702.468	46.91
702.653	46.64
702.838	47.12
703.023	47.54
703.208	47.71
703.393	47.82
703.578	47.56
703.763	47.98
703.948	48.19
704.133	48.45
704.318	48.49
704.503	48.5
704.688	49.12
704.873	49.25
705.057	49.63
705.242	49.95
705.427	50.18
705.612	50.79
705.797	50.94
705.981	51.16
706.166	51.29
706.351	51.82
706.536	52.09
706.72	52.04
706.905	52.72
707.09	53.11
707.274	52.77
707.459	52.88
707.644	52.67
707.828	52.58
708.013	52.17
708.197	52.14
708.382	52.19
708.567	52.28
708.751	51.9
708.936	51.13
709.12	50.85
709.305	50.67
709.489	50.5
709.673	50.81
709.858	50.89
710.042	50.76
710.227	50.56
710.411	50.14
710.596	50.15
710.78	50.56
710.964	50.43
711.149	50.67
711.333	50.99
711.517	51.03
711.702	50.76
711.886	50.66
712.07	50.82
712.254	50.95
712.438	50.7
712.623	50.6
712.807	50.42
712.991	50.87
713.175	50.66
713.359	50.31
713.544	50.79
713.728	50.72
713.912	50.89
714.096	51.07
714.28	50.95
714.464	50.93
714.648	50.75
714.832	50.48
715.016	50.16
715.2	49.4
715.384	49.45
715.568	48.9
715.752	48.81
715.936	48.52
716.12	48.27
716.304	48.07
716.488	48.08
716.671	47.84
716.855	47.9
717.039	47.8
717.223	48.45
717.407	48.26
717.59	48.13
717.774	48.23
717.958	48.22
718.142	48.54
718.325	48.16
718.509	48.31
718.693	48.35
718.877	48.25
719.06	48.03
719.244	47.44
719.428	47
719.611	47.52
719.795	47.48
719.978	47.54
720.162	47.37
720.345	47.9
720.529	48.12
720.713	48.36
720.896	48.83
721.08	48.97
721.263	49.55
721.446	50.62
721.63	50.31
721.813	50.53
721.997	50.72
722.18	51
722.364	51.51
722.547	50.86
722.73	51.24
722.914	51.11
723.097	51.66
723.28	51.19
723.464	50.62
723.647	50.46
723.83	50.18
724.013	49.86
724.197	49.95
724.38	49.27
724.563	49.53
724.746	49.18
724.929	49.56
725.112	49.52
725.296	49.78
725.479	50.09
725.662	50.48
725.845	50.94
726.028	51.24
726.211	51.05
726.394	51.36
726.577	51.33
726.76	51.11
726.943	50.7
727.126	50.93
727.309	51.01
727.492	51.23
727.675	50.83
727.858	50.95
728.041	50.87
728.224	50.95
728.407	51.14
728.589	51.7
728.772	52.09
728.955	52.14
729.138	51.46
729.321	51.93
729.503	51.59
729.686	52.09
729.869	51.81
730.052	51.84
730.234	51.64
730.417	51.53
730.6	51.45
730.782	51.78
730.965	51.96
731.148	52.41
731.33	51.99
731.513	51.85
731.695	51.66
731.878	51.61
732.061	51.55
732.243	51.54
732.426	51.47
732.608	51.44
732.791	51.32
732.973	51.64
733.156	51.58
733.338	51.88
733.52	52.13
733.703	51.98
733.885	51.7
734.068	51.85
734.25	52.02
734.432	52.39
734.615	52.36
734.797	51.88
734.979	51.27
735.162	51.01
735.344	50.92
735.526	51.07
735.708	51.61
735.891	51.66
736.073	51.93
736.255	51.82
736.437	51.56
736.619	51.07
736.802	51.07
736.984	50.98
737.166	51.48
737.348	51.43
737.53	51.45
737.712	51.35
737.894	51.75
738.076	51.6
738.258	51.52
738.44	51.97
738.622	52.44
738.804	53.27
738.986	53.5
739.168	53.42
739.35	53.6
739.532	53.79
739.714	53.68
739.896	54.24
740.078	54.43
740.259	54.89
740.441	54.12
740.623	54.08
740.805	53.61
740.987	53.98
741.168	54.07
741.35	54.82
741.532	54.4
741.714	53.87
741.895	53.13
742.077	53.68
742.259	53.47
742.44	54
742.622	54.17
742.804	54.1
742.985	53.91
743.167	54.5
743.348	54.28
743.53	54.38
743.711	54.81
743.893	55.46
744.075	54.79
744.256	54.96
744.438	55.01
744.619	54.96
744.8	55.37
744.982	55.15
745.163	54.35
745.345	53.7
745.526	54
745.707	54.58
745.889	54.5
746.07	54.63
746.252	54.61
746.433	54.98
746.614	55.42
746.795	55.58
746.977	56.17
747.158	56.53
747.339	56.26
747.52	55.73
747.702	55.25
747.883	54.63
748.064	54.89
748.245	54.92
748.426	54.72
748.607	54.37
748.788	53.93
748.97	53.9
749.151	53.5
749.332	53.69
749.513	54.34
749.694	55.05
749.875	55.27
750.056	55.23
750.237	55.12
750.418	55
750.599	55.25
750.78	55.26
750.96	55.28
751.141	55.58
751.322	55.99
751.503	55.41
751.684	55.09
751.865	56.02
752.046	55.65
752.226	55.52
752.407	55.82
752.588	56.51
752.769	55.96
752.949	55.65
753.13	55.55
753.311	54.91
753.492	56.32
753.672	55.56
753.853	55.09
754.034	55.93
754.214	56.23
754.395	55.68
754.575	55.03
754.756	55.73
754.937	56.5
755.117	56.4
755.298	57.2
755.478	56.46
755.659	57.13
755.839	57.6
756.02	56.77
756.2	57.15
756.381	58.31
756.561	58.37
756.741	58.2
756.922	57.35
757.102	57.92
757.283	56.99
757.463	56.81
757.643	57.28
757.823	57.17
758.004	56.86
758.184	55.85
758.364	55.2
758.545	55.61
758.725	55.46
758.905	56.13
759.085	55.9
759.265	55.91
759.446	56.15
759.626	55.55
759.806	55.2
759.986	55.83
760.166	56.64
760.346	56.7
760.526	55.84
760.706	56.12
760.886	56.27
761.066	55.65
761.246	56.34
761.426	56.37
761.606	56.42
761.786	56.16
761.966	55.4
762.146	55.04
762.326	55.4
762.506	55.53
762.686	55.33
762.866	55.12
763.046	55.35
763.225	55.19
763.405	55.06
763.585	54.89
763.765	54.67
763.945	54.91
764.124	54.73
764.304	54.14
764.484	54.22
764.664	54.51
764.843	54.17
765.023	54.78
765.203	54.52
765.382	54.88
765.562	54.92
765.741	55.33
765.921	56.05
766.101	56.45
766.28	56.85
766.46	57.09
766.639	57.28
766.819	57.73
766.998	57.24
767.178	57.67
767.357	57.05
767.537	57.18
767.716	57.13
767.896	56.54
768.075	55.88
768.254	55.67
768.434	54.71
768.613	54.51
768.792	54.75
768.972	55.13
769.151	55.22
769.33	55.9
769.51	56.4
769.689	57.14
769.868	57.6
770.047	58.79
770.226	58.89
770.406	60.16
770.585	59.91
770.764	59.31
770.943	59.65
771.122	60.02
771.301	59.78
771.48	60.06
771.66	59.81
771.839	59.36
772.018	58.45
772.197	58.5
772.376	58.22
772.555	58.84
772.734	59.06
772.913	57.91
773.092	56.58
773.271	56.53
773.449	56.22
773.628	55.78
773.807	55.56
773.986	56
774.165	57.49
774.344	57.43
774.523	57.08
774.701	57.15
774.88	57.66
775.059	58.48
775.238	58.43
775.417	58.21
775.595	58.75
775.774	59.29
775.953	60.46
776.131	59.63
776.31	59.6
776.489	59.61
776.667	60.07
776.846	60.04
777.025	59.97
777.203	59.84
777.382	60.62
777.56	60.63
777.739	60.73
777.917	59.96
778.096	59.42
778.274	59.5
778.453	60.02
778.631	59.75
778.81	60.66
778.988	61.43
779.166	62.28
779.345	62.51
779.523	61.77
779.702	60.86
779.88	61.26
780.058	61.74
780.237	62.86
780.415	62.69
780.593	62.36
780.771	62.42
780.95	62
781.128	61.04
781.306	60.23
781.484	61.19
781.662	61.68
781.841	61.2
782.019	61.03
782.197	60.76
782.375	60.41
782.553	60.34
782.731	59.58
782.909	60.53
783.087	61.35
783.265	60.52
783.443	59.98
783.621	60.39
783.799	59.83
783.977	60.35
784.155	60.19
784.333	59.98
784.511	60.3
784.689	59.85
784.867	59.52
785.045	60.01
785.223	60.92
785.4	61.07
785.578	60.77
785.756	60.63
785.934	59.93
786.112	59.45
786.289	59.44
786.467	60.27
786.645	60.88
786.823	59.64
787	58.32
787.178	58.64
787.356	56.91
787.533	56.3
787.711	57.07
787.889	57.54
788.066	56.22
788.244	56.95
788.421	57.1
788.599	56.91
788.776	57.74
788.954	57.9
789.131	57.51
789.309	59.26
789.486	60.52
789.664	60.66
789.841	59.94
790.019	61
790.196	60.97
790.373	60.03
790.551	60.05
790.728	59.72
790.906	59.59
791.083	59.65
791.26	59.3
791.437	58.74
791.615	58.87
791.792	59.2
791.969	60.18
792.146	59.91
792.324	60.27
792.501	59.73
792.678	59.81
792.855	60.29
793.032	59.2
793.209	59.29
793.387	59.9
793.564	60.09
793.741	61.45
793.918	61.03
794.095	60.75
794.272	61.38
794.449	61.53
794.626	61.45
794.803	61.62
794.98	62.94
795.157	63.15
795.334	62.98
795.511	62.54
795.688	61.42
795.864	61.41
796.041	60.91
796.218	60.65
796.395	61.31
796.572	60.49
796.749	59.36
796.925	59.21
797.102	59.13
797.279	59.12
797.456	58.49
797.632	58.7
797.809	58.59
797.986	59.62
798.162	58.23
798.339	57.6
798.516	59.66
798.692	61.07
798.869	61.98
799.046	61.56
799.222	62.12
799.399	62.87
799.575	63.7
799.752	63.62
799.928	62.11
800.105	63.9
800.281	63.76
800.458	61.74
800.634	61.17
800.811	60.53
800.987	61.2
801.163	60.47
801.34	60.34
801.516	58.87
801.692	59.35
801.869	60.75
802.045	59.21
802.221	59.12
802.398	59.11
802.574	58.06
802.75	57.63
802.926	57.57
803.103	57.94
803.279	58.39
803.455	58.65
803.631	58.39
803.807	58.59
803.983	59.59
804.16	61.33
804.336	62.89
804.512	65.02
804.688	65.16
804.864	65.78
805.04	65.56
805.216	64.5
805.392	64.43
805.568	63.48
805.744	62.28
805.92	63.5
806.096	62.75
806.272	60.87
806.448	60.47
806.623	60.52
806.799	59.25
806.975	58.13
807.151	58.66
807.327	58.59
807.503	58.88
807.678	59.3
807.854	58.97
808.03	58.76
808.206	60.31
808.381	59.53
808.557	59.45
808.733	60.36
808.908	61.85
809.084	62.43
809.26	63.38
809.435	62.58
809.611	63.28
809.787	63.29
809.962	63.15
810.138	61.57
810.313	62.4
810.489	61.45
810.664	61.63
810.84	61.48
811.015	59.88
811.191	59.93
811.366	61.6
811.542	60.95
811.717	61.79
811.892	61.99
812.068	62.84
812.243	62.23
812.419	63
812.594	62.22
812.769	60.65
812.944	61.13
813.12	60.36
813.295	59.59
813.47	58.93
813.645	57.57
813.821	57.43
813.996	57.33
814.171	57.66
814.346	57.97
814.521	58.6
814.697	59.59
814.872	61.75
815.047	60.73
815.222	60.83
815.397	60.92
815.572	59.95
815.747	58.34
815.922	56.97
816.097	57.94
816.272	57.52
816.447	57.25
816.622	57.49
816.797	55.19
816.972	56.3
817.147	58.11
817.322	57.81
817.496	57.63
817.671	58.82
817.846	60.36
818.021	58.25
818.196	58.04
818.371	58.21
818.545	58.73
818.72	59.78
818.895	59.53
819.069	57.93
819.244	58.46
819.419	59.17
819.594	58.99
819.768	59
819.943	59.83
820.117	60.23
820.292	59.87
820.467	59.13
820.641	59.6
820.816	59.57
820.99	59.36
821.165	59.11
821.339	58.83
821.514	58.92
821.688	58.58
821.863	58.5
822.037	58.29
822.212	58.37
822.386	58.09
822.56	57.73
822.735	57.66
822.909	57.46
823.084	57.46
823.258	57.23
823.432	57.04
823.606	57.06
823.781	57.15
823.955	57.04
824.129	57.01
824.303	57.47
824.478	57.12
824.652	56.89
824.826	56.89
825	57.01
825.174	57.57
825.348	57.43
825.523	57.72
825.697	57.84
825.871	58.21
826.045	58.2
826.219	57.51
826.393	58.16
826.567	58.26
826.741	58.54
826.915	58.31
827.089	57.98
827.263	58.16
827.437	57.72
827.611	57.47
827.784	57.75
827.958	57.51
828.132	57.78
828.306	57.72
828.48	57.97
828.654	57.54
828.827	57.98
829.001	57.79
829.175	57.81
829.349	58.43
829.522	58.46
829.696	56.99
829.87	57.1
830.044	57.05
830.217	57.73
830.391	57.04
830.565	58.07
830.738	58.03
830.912	58.45
831.085	58.43
831.259	59.51
831.432	59.21
831.606	61.32
831.779	61.12
831.953	61.19
832.126	59.41
832.3	59.59
832.473	58.49
832.647	58.96
832.82	59.5
832.994	59.6
833.167	58.08
833.34	58.41
833.514	57.07
833.687	56.87
833.86	56.67
834.034	56.68
834.207	56.49
834.38	57.35
834.553	56.19
834.727	56.11
834.9	56.48
835.073	57.09
835.246	56.74
835.419	57.2
835.593	57.77
835.766	58.02
835.939	58.4
836.112	58.82
836.285	58
836.458	60.73
836.631	61.25
836.804	60.29
836.977	59.46
837.15	59.77
837.323	60.32
837.496	59.74
837.669	59.54
837.842	60.31
838.015	59.74
838.188	58.81
838.361	56.26
838.533	54.59
838.706	54.75
838.879	56.09
839.052	55.56
839.225	55.4
839.398	55.24
839.57	55.03
839.743	54.38
839.916	56.51
840.088	55.55
840.261	55.96
840.434	56.57
840.607	57.07
840.779	56.72
840.952	57.25
841.124	58.25
841.297	58.12
841.47	59.18
841.642	58.37
841.815	57.47
841.987	60.47
842.16	60.75
842.332	59.63
842.505	59.29
842.677	57.2
842.85	57.58
843.022	56.3
843.194	56.01
843.367	56.71
843.539	59.72
843.712	57.92
843.884	59.13
844.056	57.71
844.229	57.02
844.401	58.75
844.573	59.22
844.745	57.99
844.918	57.41
845.09	58.93
845.262	55.97
845.434	54.54
845.606	57.88
845.779	56.96
845.951	57
846.123	59.63
846.295	57.51
846.467	59.11
846.639	59.63
846.811	61.33
846.983	63.45
847.155	65.9
847.327	67.78
847.499	63.5
847.671	62.49
847.843	61.36
848.015	62.35
848.187	61.04
848.359	62.1
848.531	60.18
848.703	61.73
848.875	59.9
849.047	59.51
849.218	59.12
849.39	59
849.562	61.48
849.734	63.77
849.905	67.93
850.077	70.31
850.249	69.63
850.421	75.71
850.592	74.79
850.764	76.62
850.936	77.19
851.107	75.31
851.279	73.83
851.451	73.62
851.622	74.56
851.794	69.35
851.965	70.85
852.137	71.44
852.308	69.63
852.48	67.82
852.651	62.62
852.823	64.7
852.994	64.11
853.166	66.96
853.337	65.46
853.509	63.84
853.68	61.65
853.851	58.74
854.023	57.24
854.194	55.48
854.365	57.97
854.537	60.17
854.708	57.1
854.879	60.77
855.05	63.04
855.222	61.95
855.393	63.39
855.564	65.08
855.735	67.93
855.906	72.03
856.078	73.14
856.249	69.45
856.42	68.36
856.591	68.11
856.762	68.15
856.933	67.02
857.104	70.29
857.275	68.21
857.446	69.98
857.617	65.44
857.788	64.42
857.959	63.81
858.13	70.21
858.301	69.96
858.472	72.96
858.643	68.07
858.814	67.24
858.985	62.97
859.155	62.26
859.326	64.41
859.497	70.58
859.668	68.35
859.839	67.85
860.009	59.04
860.18	61.37
860.351	59.74
860.522	60.33
860.692	60.42
860.863	63.72
861.034	63.57
861.204	58.43
861.375	54.92
861.546	62.29
861.716	64.29
861.887	68.02
862.057	67.72
862.228	65.84
862.398	69.98
862.569	71.55
862.739	69.12
862.91	67.41
863.08	71.29
863.251	72.01
863.421	66.53
863.592	65.74
863.762	63.36
863.932	62.87
864.103	62.39
864.273	61.82
864.443	60.52
864.614	60.83
864.784	62.32
864.954	64.71
865.125	65.96
865.295	64.89
865.465	65
865.635	64.96
865.805	66.68
865.976	64.91
866.146	64.77
866.316	62.75
866.486	63.39
866.656	63.05
866.826	54.21
866.996	50.04
867.166	53.64
867.336	56.16
867.506	62.89
867.676	61.6
867.846	62.67
868.016	60.46
868.186	63.05
868.356	63.77
868.526	66.41
868.696	74.5
868.866	80.52
869.036	76.45
869.206	72.45
869.376	67.95
869.545	73.03
869.715	75.61
869.885	71.64
870.055	70.75
870.224	69.97
870.394	66.43
870.564	70.28
870.734	67.98
870.903	69.41
871.073	71.98
871.243	73.95
871.412	69.75
871.582	71.71
871.751	73.59
871.921	72.29
872.091	72.66
872.26	73.06
872.43	65.18
872.599	64.26
872.769	62.64
872.938	59.27
873.108	57.45
873.277	55.23
873.446	52.92
873.616	55.04
873.785	54.61
873.955	52.47
874.124	52.24
874.293	49.76
874.463	49.74
874.632	47.52
874.801	48.4
874.971	50.07
875.14	53.73
875.309	53.12
875.478	52.8
875.647	53.27
875.817	50.93
875.986	50.91
876.155	54.57
876.324	54.99
876.493	60.34
876.662	60.05
876.831	57.61
877	55.33
877.17	56.29
877.339	57.84
877.508	56.18
877.677	59.24
877.846	60.56
878.015	62.56
878.184	63.49
878.352	57.8
878.521	56.42
878.69	58.12
878.859	58.22
879.028	59.43
879.197	55.6
879.366	56.44
879.534	56.01
879.703	54.72
879.872	54.73
880.041	51.69
880.21	53.82
880.378	53.37
880.547	52.8
880.716	53.38
880.884	53.38
881.053	53.61
881.222	53.4
881.39	52.96
881.559	52.45
881.727	52.22
881.896	53.01
882.065	52.42
882.233	53.81
882.402	54
882.57	53.02
882.739	52.47
882.907	52.33
883.076	52.32
883.244	52.08
883.412	52.41
883.581	51.49
883.749	51.28
883.918	52.18
884.086	50.83
884.254	50.56
884.423	50.46
884.591	50.63
884.759	51.1
884.927	50.99
885.096	50.01
885.264	48.73
885.432	50.48
885.6	49.35
885.769	48.59
885.937	48.59
886.105	49.26
886.273	49.68
886.441	50.89
886.609	51.13
886.777	52.6
886.945	54.49
887.113	58.55
887.281	56.68
887.449	60.31
887.617	59.54
887.785	58.13
887.953	57.49
888.121	58.82
888.289	54.24
888.457	57.75
888.625	56.57
888.793	59.95
888.961	56.04
889.129	57.08
889.296	52.81
889.464	53.11
889.632	55.52
889.8	53.34
889.967	51.67
890.135	59.44
