Data from 2938831__Reflection_01.txt Node
Date: Thu Mar 12 12:21:31 EDT 2015
User: robert
Spectrometer: USB4E03002
Autoset integration time: false
Trigger mode: 4
Integration Time (sec): 1.000000E-1
Scans to average: 10
Electric dark correction enabled: false
Nonlinearity correction enabled: false
Boxcar width: 5
Stray light correction enabled: false
XAxis mode: Wavelengths
Stop averaging: false
Number of Pixels in Spectrum: 3648
>>>>>Begin Spectral Data<<<<<
177.575	134.67
177.794	142.66
178.014	152.81
178.233	137.93
178.452	148.07
178.672	140.39
178.891	165.06
179.11	229.46
179.33	349.03
179.549	228.99
179.768	239.78
179.987	211.41
180.207	164.24
180.426	155.81
180.645	416.41
180.864	-1504.76
181.084	601.49
181.303	192.69
181.522	181.94
181.741	125.15
181.96	121.41
182.179	67.34
182.398	32.3
182.618	68.84
182.837	1.25
183.056	32.09
183.275	19.83
183.494	31.69
183.713	51.24
183.932	26.92
184.151	71.25
184.37	94.95
184.589	132.11
184.808	121.38
185.027	133.08
185.246	114.75
185.465	103.05
185.684	121.13
185.903	134.77
186.122	109.68
186.341	125.95
186.56	150.48
186.779	138.35
186.998	132.22
187.216	146.58
187.435	150.8
187.654	164.83
187.873	251.67
188.092	153.16
188.311	142.65
188.53	216.35
188.748	180.56
188.967	169.36
189.186	132.87
189.405	125.09
189.623	111.17
189.842	91.91
190.061	87.84
190.28	82.94
190.498	92.67
190.717	97.61
190.936	74.85
191.154	86.17
191.373	83.68
191.592	64.98
191.81	93.43
192.029	94.38
192.248	225
192.466	205.68
192.685	317.7
192.904	314.36
193.122	188.92
193.341	148.36
193.559	118.32
193.778	103.77
193.996	113.24
194.215	91.66
194.433	85.85
194.652	82.07
194.87	74.85
195.089	53.14
195.307	44.66
195.526	47.65
195.744	64.39
195.963	77.15
196.181	75.07
196.399	147.19
196.618	239.86
196.836	-386.36
197.055	235.06
197.273	20.18
197.491	198.77
197.71	176.82
197.928	70.48
198.146	64.54
198.365	47.09
198.583	65.94
198.801	51.25
199.019	58.17
199.238	57.92
199.456	85.85
199.674	106.32
199.892	80.02
200.111	68.43
200.329	84.86
200.547	105.85
200.765	123.37
200.983	98.52
201.202	102.4
201.42	86.8
201.638	62.14
201.856	53.08
202.074	52.36
202.292	41.8
202.51	-0
202.728	28.81
202.946	38.41
203.165	15.48
203.383	67.79
203.601	92.46
203.819	75.14
204.037	88.35
204.255	105.28
204.473	91.79
204.691	76.76
204.909	90.4
205.127	82
205.345	75.5
205.562	66.32
205.78	52.72
205.998	39.38
206.216	53.64
206.434	46.54
206.652	64.14
206.87	71.04
207.088	79.78
207.306	85.89
207.523	100.63
207.741	101.51
207.959	110.66
208.177	94.64
208.395	89.54
208.612	102.53
208.83	97.01
209.048	74.09
209.266	86.64
209.483	100.44
209.701	84.93
209.919	82.95
210.136	75.24
210.354	110.4
210.572	100.47
210.79	87.3
211.007	41.86
211.225	72.48
211.442	97.21
211.66	77.93
211.878	54.17
212.095	150.36
212.313	132.35
212.53	126.34
212.748	110.96
212.966	117.97
213.183	125.18
213.401	125.36
213.618	133.1
213.836	119.08
214.053	122.98
214.271	126.65
214.488	50.91
214.705	45.18
214.923	42.33
215.14	42.86
215.358	32.78
215.575	37.28
215.793	32.42
216.01	18.01
216.227	18.15
216.445	14.62
216.662	28.71
216.879	15.45
217.097	20.75
217.314	23.84
217.531	36.3
217.749	33.87
217.966	34.74
218.183	56.69
218.4	63.19
218.618	65.31
218.835	70.67
219.052	50.51
219.269	54
219.487	56.24
219.704	53.39
219.921	51.88
220.138	65.82
220.355	60.33
220.572	54.03
220.79	50.33
221.007	30.16
221.224	25.23
221.441	34.44
221.658	27.05
221.875	21.36
222.092	18.24
222.309	18.92
222.526	10.32
222.743	6.91
222.96	8.54
223.177	7.82
223.394	12.79
223.611	11.99
223.828	9.75
224.045	8.2
224.262	9.53
224.479	15.6
224.696	11.98
224.913	17.78
225.13	24.26
225.347	24.35
225.564	18.82
225.781	16.68
225.997	13.66
226.214	11.36
226.431	11.96
226.648	13.73
226.865	10.79
227.082	12.21
227.298	9.35
227.515	7.18
227.732	7.07
227.949	8.43
228.165	8.3
228.382	9.25
228.599	9.67
228.816	9.63
229.032	8.47
229.249	8.62
229.466	7.5
229.682	8.3
229.899	8.62
230.116	8.95
230.332	8.51
230.549	8.92
230.765	9.91
230.982	10.45
231.199	10.24
231.415	10.75
231.632	12.14
231.848	13.66
232.065	13.08
232.281	13.52
232.498	12.87
232.714	13.94
232.931	12.41
233.147	10.14
233.364	8.65
233.58	10.43
233.797	11.11
234.013	10
234.23	10.52
234.446	11.97
234.662	11.88
234.879	11.03
235.095	10.81
235.312	12.62
235.528	13.31
235.744	13.62
235.961	13.25
236.177	13.28
236.393	13.18
236.61	11.08
236.826	11.12
237.042	10.09
237.258	10.17
237.475	11.06
237.691	8.64
237.907	9.78
238.123	10.02
238.339	9.12
238.556	9.29
238.772	8.67
238.988	10.52
239.204	10.16
239.42	9.53
239.636	9.38
239.853	6.82
240.069	7.44
240.285	6.47
240.501	6.24
240.717	6.78
240.933	5.94
241.149	6.24
241.365	5.6
241.581	4.74
241.797	5.53
242.013	5.84
242.229	6.47
242.445	6.6
242.661	6.74
242.877	6.74
243.093	5.58
243.309	6.37
243.525	6.03
243.741	6.37
243.957	6.72
244.173	6.81
244.388	6.35
244.604	6.27
244.82	5.9
245.036	5.7
245.252	5.45
245.468	6.04
245.683	5.36
245.899	5.27
246.115	5.13
246.331	5.21
246.547	5.12
246.762	5.13
246.978	5.12
247.194	5.22
247.409	5.04
247.625	5.3
247.841	5.69
248.057	5.97
248.272	6.04
248.488	6.05
248.703	6.01
248.919	6.49
249.135	6.74
249.35	6.86
249.566	7.23
249.782	7.56
249.997	7.8
250.213	7.16
250.428	6.36
250.644	5.85
250.859	6.6
251.075	6.25
251.29	5.72
251.506	5.93
251.721	5.4
251.937	4.76
252.152	4.89
252.368	4.68
252.583	5.3
252.798	5.5
253.014	5.91
253.229	5.26
253.445	5.84
253.66	5.72
253.875	4.91
254.091	5.8
254.306	6.44
254.521	6.63
254.737	6.68
254.952	6.39
255.167	6.73
255.383	7.65
255.598	7.56
255.813	7.37
256.028	5.8
256.244	6.56
256.459	5.47
256.674	5.37
256.889	5.76
257.104	6.1
257.32	5.92
257.535	5.42
257.75	4.67
257.965	4.36
258.18	4.39
258.395	5.22
258.61	5.13
258.826	5.37
259.041	5.26
259.256	4.83
259.471	4.56
259.686	4.37
259.901	4.47
260.116	4.56
260.331	4.4
260.546	4.43
260.761	4.16
260.976	4.09
261.191	3.97
261.406	3.79
261.621	3.91
261.836	3.99
262.05	4.13
262.265	4.12
262.48	4.24
262.695	4.62
262.91	4.42
263.125	4.94
263.34	4.85
263.555	4.74
263.769	5.12
263.984	4.72
264.199	4.58
264.414	4.21
264.629	4.19
264.843	4.22
265.058	4.08
265.273	4.59
265.488	4.42
265.702	4.73
265.917	4.75
266.132	4.88
266.346	5.54
266.561	5.76
266.776	5.86
266.99	6.23
267.205	5.85
267.42	5.73
267.634	5.22
267.849	5.37
268.063	5.25
268.278	5.16
268.492	5.31
268.707	4.84
268.922	4.68
269.136	4.9
269.351	4.94
269.565	5.18
269.78	5.18
269.994	5.12
270.209	4.37
270.423	4.06
270.637	4.22
270.852	4.04
271.066	3.98
271.281	4.29
271.495	3.96
271.709	3.6
271.924	3.4
272.138	3.39
272.353	3.33
272.567	3.34
272.781	3.44
272.996	3.68
273.21	3.82
273.424	4.01
273.638	3.69
273.853	3.92
274.067	4.07
274.281	4.03
274.495	3.97
274.71	4.54
274.924	4.73
275.138	4.81
275.352	3.93
275.566	3.55
275.781	2.76
275.995	2.69
276.209	2.98
276.423	2.81
276.637	2.51
276.851	2.76
277.065	2.49
277.279	2.13
277.493	2.08
277.707	2.94
277.921	2.88
278.135	3.25
278.349	3.24
278.563	3.56
278.777	3.57
278.991	4.12
279.205	4.06
279.419	3.93
279.633	4.38
279.847	4.4
280.061	4.4
280.275	4.26
280.489	4.41
280.703	4.6
280.917	4.01
281.131	4.23
281.344	4.3
281.558	4.32
281.772	4.16
281.986	4.22
282.2	4.07
282.414	4.01
282.627	3.97
282.841	3.63
283.055	3.57
283.269	3.51
283.482	3.34
283.696	3.13
283.91	3.04
284.123	3.65
284.337	3.67
284.551	3.94
284.764	4.09
284.978	4.45
285.192	4.47
285.405	4.7
285.619	4.99
285.833	4.74
286.046	4.83
286.26	5.04
286.473	4.52
286.687	4.25
286.9	3.99
287.114	3.65
287.327	3.4
287.541	3.43
287.754	2.98
287.968	2.75
288.181	3.14
288.395	2.96
288.608	2.57
288.822	2.71
289.035	3.07
289.248	2.94
289.462	3.15
289.675	3.09
289.889	3.83
290.102	4.04
290.315	3.93
290.529	3.63
290.742	3.34
290.955	3.59
291.169	3.71
291.382	3.84
291.595	4.45
291.808	4.38
292.022	5.02
292.235	4.48
292.448	4.33
292.661	4.8
292.875	4.99
293.088	5.51
293.301	5.8
293.514	5.82
293.727	5.78
293.94	5.46
294.153	5.73
294.367	5.26
294.58	5.4
294.793	5.73
295.006	5.35
295.219	5.19
295.432	5.17
295.645	5.03
295.858	5.29
296.071	5.58
296.284	5.65
296.497	5.65
296.71	5.66
296.923	5.76
297.136	5.5
297.349	5.64
297.562	5.92
297.775	5.92
297.988	6.1
298.201	6.01
298.414	5.91
298.626	6.13
298.839	6.06
299.052	6.3
299.265	6.5
299.478	6.45
299.691	6.49
299.903	6.68
300.116	6.92
300.329	7.1
300.542	7.03
300.755	7.17
300.967	6.98
301.18	7.13
301.393	7.11
301.605	6.85
301.818	7.26
302.031	7.45
302.243	7.56
302.456	7.42
302.669	7.09
302.881	7.12
303.094	7.08
303.307	7.11
303.519	7.05
303.732	6.87
303.944	6.86
304.157	6.47
304.37	6.36
304.582	6.23
304.795	6.57
305.007	6.74
305.22	6.67
305.432	6.59
305.645	7.11
305.857	7.16
306.069	7.33
306.282	7.53
306.494	8.14
306.707	8.16
306.919	8.05
307.132	7.7
307.344	7.96
307.556	8.23
307.769	7.82
307.981	7.58
308.193	7.44
308.406	7.57
308.618	7.51
308.83	7.45
309.043	7.14
309.255	7.47
309.467	7.45
309.679	7.44
309.892	7.56
310.104	7.88
310.316	7.67
310.528	7.72
310.74	7.78
310.953	7.85
311.165	7.97
311.377	8.19
311.589	7.98
311.801	8.36
312.013	7.92
312.225	7.89
312.437	8.08
312.649	8.48
312.862	8.87
313.074	8.89
313.286	8.82
313.498	8.75
313.71	8.95
313.922	8.87
314.134	8.75
314.346	9.41
314.558	9.34
314.77	9.12
314.982	9.2
315.193	8.6
315.405	8.65
315.617	8.53
315.829	8.69
316.041	8.47
316.253	8.72
316.465	8.53
316.677	8.49
316.888	8.49
317.1	8.53
317.312	8.32
317.524	8.72
317.736	8.7
317.947	8.85
318.159	8.89
318.371	9.45
318.583	9.2
318.794	9.29
319.006	9.12
319.218	9.33
319.43	9.02
319.641	9.05
319.853	9.23
320.064	9.29
320.276	9.57
320.488	9.45
320.699	9.18
320.911	9.62
321.123	9.92
321.334	9.78
321.546	9.74
321.757	10.28
321.969	10.24
322.18	10.18
322.392	10.31
322.603	10.25
322.815	10.02
323.026	10.29
323.238	10.13
323.449	10.18
323.661	10.13
323.872	10.29
324.083	10.3
324.295	10.28
324.506	10.55
324.718	10.52
324.929	10.81
325.14	11.45
325.352	11.59
325.563	11.77
325.774	12.02
325.986	12.14
326.197	12.53
326.408	12.8
326.62	12.89
326.831	13.14
327.042	13.29
327.253	13.38
327.464	13.71
327.676	13.89
327.887	14.4
328.098	14.34
328.309	15.06
328.52	14.98
328.732	15.07
328.943	15.69
329.154	15.83
329.365	16.55
329.576	16.58
329.787	16.54
329.998	17.06
330.209	17.02
330.42	17.36
330.631	17.43
330.842	17.5
331.053	17.97
331.264	17.93
331.475	18.01
331.686	18.08
331.897	18.18
332.108	18.24
332.319	18.11
332.53	18.42
332.741	18.64
332.952	18.51
333.163	18.59
333.374	18.93
333.585	19.11
333.795	19.3
334.006	19.07
334.217	19.33
334.428	19.6
334.639	19.51
334.849	19.35
335.06	19.49
335.271	19.6
335.482	20.02
335.692	19.82
335.903	20.11
336.114	20.02
336.325	20.5
336.535	20.33
336.746	20.15
336.957	20.33
337.167	20.4
337.378	20.52
337.589	20.65
337.799	20.53
338.01	20.7
338.22	20.93
338.431	21
338.642	20.73
338.852	21.18
339.063	21.09
339.273	21.24
339.484	21.58
339.694	21.72
339.905	21.76
340.115	22.09
340.326	21.81
340.536	21.17
340.746	21.15
340.957	21.24
341.167	21.24
341.378	21.38
341.588	21.26
341.799	20.71
342.009	20.48
342.219	20.37
342.43	20.11
342.64	20.46
342.85	20.63
343.061	20.72
343.271	20.67
343.481	20.35
343.691	20.17
343.902	19.91
344.112	20.05
344.322	19.71
344.532	20.12
344.743	19.86
344.953	19.79
345.163	19.84
345.373	19.45
345.583	19.24
345.793	19.47
346.004	19.43
346.214	19.57
346.424	19.65
346.634	19.93
346.844	19.36
347.054	19.76
347.264	19.43
347.474	19.49
347.684	19.73
347.894	19.86
348.104	19.8
348.314	19.55
348.524	19.7
348.734	19.63
348.944	19.91
349.154	20.12
349.364	19.76
349.574	19.8
349.784	19.42
349.994	19.35
350.204	19.49
350.413	19.28
350.623	19.59
350.833	19.38
351.043	19.48
351.253	19.26
351.463	19.08
351.672	19.04
351.882	19.02
352.092	19.04
352.302	18.82
352.511	18.59
352.721	18.56
352.931	18.37
353.141	18.16
353.35	17.66
353.56	17.45
353.77	17.5
353.979	17.49
354.189	17.4
354.399	17.25
354.608	17.48
354.818	17.66
355.027	17.74
355.237	17.81
355.447	18.04
355.656	18.28
355.866	18.38
356.075	18.36
356.285	18.35
356.494	18.35
356.704	18.45
356.913	18.43
357.123	18.36
357.332	18.29
357.542	18.43
357.751	18.34
357.96	18.33
358.17	18.19
358.379	18.28
358.589	18.3
358.798	18.29
359.007	18.22
359.217	18.12
359.426	17.99
359.635	17.97
359.845	17.75
360.054	17.77
360.263	17.94
360.472	17.79
360.682	17.77
360.891	17.76
361.1	17.82
361.309	18.01
361.519	17.98
361.728	17.85
361.937	17.9
362.146	17.83
362.355	17.83
362.564	17.76
362.774	17.84
362.983	17.73
363.192	17.63
363.401	17.54
363.61	17.52
363.819	17.65
364.028	17.94
364.237	17.72
364.446	17.94
364.655	17.84
364.864	17.49
365.073	17.61
365.282	17.65
365.491	17.77
365.7	17.86
365.909	17.79
366.118	17.85
366.327	17.57
366.536	17.81
366.745	17.56
366.954	17.59
367.162	17.82
367.371	17.86
367.58	17.98
367.789	17.87
367.998	17.71
368.207	17.74
368.415	17.48
368.624	17.42
368.833	17.58
369.042	17.59
369.25	17.46
369.459	17.44
369.668	17.33
369.877	17.06
370.085	17.36
370.294	17.64
370.503	17.48
370.711	17.51
370.92	17.54
371.129	17.37
371.337	17.4
371.546	17.65
371.754	17.29
371.963	17.05
372.171	17.11
372.38	16.8
372.589	16.49
372.797	16.64
373.006	16.74
373.214	17.05
373.423	17.21
373.631	17.17
373.84	17.02
374.048	17.23
374.256	17.59
374.465	17.38
374.673	17.52
374.882	17.45
375.09	17.13
375.298	17.07
375.507	16.89
375.715	16.91
375.923	16.99
376.132	16.84
376.34	16.85
376.548	16.65
376.757	16.84
376.965	16.84
377.173	17.05
377.381	17.09
377.59	16.91
377.798	16.89
378.006	16.55
378.214	16.49
378.423	16.55
378.631	16.76
378.839	16.89
379.047	16.95
379.255	17.02
379.463	16.74
379.671	16.93
379.879	16.85
380.088	16.8
380.296	16.9
380.504	16.94
380.712	16.96
380.92	16.93
381.128	16.88
381.336	16.61
381.544	16.48
381.752	16.56
381.96	16.36
382.168	16.64
382.376	16.71
382.584	16.54
382.791	16.64
382.999	16.61
383.207	16.64
383.415	16.61
383.623	16.66
383.831	16.6
384.039	16.73
384.247	16.71
384.454	16.67
384.662	16.51
384.87	16.54
385.078	16.47
385.285	16.33
385.493	16.02
385.701	16.01
385.909	16.05
386.116	16.06
386.324	15.83
386.532	15.88
386.739	15.76
386.947	15.79
387.155	15.89
387.362	15.84
387.57	16.04
387.778	16.31
387.985	16.35
388.193	16.29
388.4	16.31
388.608	16.44
388.816	16.48
389.023	16.63
389.231	16.87
389.438	17.05
389.646	17.04
389.853	17.01
390.061	17.03
390.268	17.09
390.475	17.33
390.683	17.27
390.89	17.2
391.098	17.1
391.305	16.92
391.512	16.61
391.72	16.21
391.927	16.1
392.135	16.07
392.342	16.03
392.549	15.85
392.756	15.73
392.964	15.55
393.171	15.6
393.378	15.7
393.586	15.76
393.793	15.87
394	15.98
394.207	16.17
394.414	16.12
394.622	16.03
394.829	16.19
395.036	16.18
395.243	16.31
395.45	16.36
395.657	16.38
395.864	16.44
396.072	16.47
396.279	16.69
396.486	16.57
396.693	16.69
396.9	16.67
397.107	16.59
397.314	16.55
397.521	16.72
397.728	16.66
397.935	16.44
398.142	16.46
398.349	16.39
398.556	16.3
398.763	16.32
398.97	16.27
399.177	16.21
399.383	16.21
399.59	16.15
399.797	16.05
400.004	16.06
400.211	16.24
400.418	16.06
400.625	16.01
400.831	15.95
401.038	16.2
401.245	16.05
401.452	16.15
401.658	16.14
401.865	16.31
402.072	16.29
402.279	16.4
402.485	16.53
402.692	16.62
402.899	16.75
403.105	16.73
403.312	16.57
403.519	16.77
403.725	16.94
403.932	16.92
404.138	16.81
404.345	16.85
404.552	16.84
404.758	16.74
404.965	16.82
405.171	16.78
405.378	16.71
405.584	16.75
405.791	16.8
405.997	16.7
406.204	16.66
406.41	16.77
406.617	16.66
406.823	16.54
407.029	16.74
407.236	16.56
407.442	16.59
407.649	16.74
407.855	16.67
408.061	16.57
408.268	16.47
408.474	16.62
408.68	16.52
408.887	16.63
409.093	16.62
409.299	16.43
409.505	16.59
409.712	16.56
409.918	16.52
410.124	16.57
410.33	16.71
410.537	16.92
410.743	16.88
410.949	16.95
411.155	17.02
411.361	17.08
411.567	16.99
411.773	17.02
411.98	17.03
412.186	17.01
412.392	17
412.598	16.98
412.804	16.88
413.01	16.8
413.216	16.97
413.422	16.84
413.628	16.92
413.834	17.16
414.04	17.38
414.246	17.35
414.452	17.52
414.658	17.55
414.864	17.44
415.07	17.43
415.275	17.39
415.481	17.28
415.687	17.48
415.893	17.44
416.099	17.46
416.305	17.26
416.511	17.29
416.716	17.1
416.922	17.12
417.128	17.13
417.334	17.19
417.539	17.21
417.745	17.21
417.951	16.97
418.157	17
418.362	17.04
418.568	17.04
418.774	17.13
418.979	17.25
419.185	17.18
419.391	17.14
419.596	17.06
419.802	17.2
420.008	17.2
420.213	17.94
420.419	17.99
420.624	17.85
420.83	17.8
421.035	17.74
421.241	17.72
421.446	17.76
421.652	17.77
421.857	17.89
422.063	17.77
422.268	17.73
422.474	17.15
422.679	17.04
422.885	17.14
423.09	17.22
423.295	17.34
423.501	17.26
423.706	17.29
423.911	17.32
424.117	17.29
424.322	17.39
424.527	17.42
424.733	17.48
424.938	17.55
425.143	17.52
425.349	17.47
425.554	17.33
425.759	17.49
425.964	17.52
426.169	17.51
426.375	17.46
426.58	17.38
426.785	17.4
426.99	17.37
427.195	17.36
427.4	17.3
427.605	17.41
427.811	17.5
428.016	17.45
428.221	17.61
428.426	17.59
428.631	17.69
428.836	17.75
429.041	17.77
429.246	17.7
429.451	17.75
429.656	17.81
429.861	17.81
430.066	17.89
430.271	17.84
430.476	17.73
430.681	17.82
430.886	17.8
431.09	17.79
431.295	17.84
431.5	17.91
431.705	17.98
431.91	18
432.115	17.97
432.32	17.96
432.524	17.95
432.729	17.9
432.934	17.9
433.139	17.99
433.343	18.13
433.548	18.08
433.753	18.09
433.958	18.03
434.162	18.15
434.367	18.17
434.572	18.23
434.776	18.33
434.981	18.38
435.186	18.52
435.39	18.41
435.595	18.32
435.799	18.41
436.004	18.45
436.209	18.53
436.413	18.43
436.618	18.49
436.822	18.52
437.027	18.57
437.231	18.66
437.436	18.56
437.64	18.69
437.845	18.65
438.049	18.7
438.253	18.67
438.458	18.64
438.662	18.69
438.867	18.65
439.071	18.63
439.275	18.6
439.48	18.47
439.684	18.45
439.888	18.46
440.093	18.48
440.297	18.51
440.501	18.56
440.706	18.55
440.91	18.49
441.114	18.53
441.318	18.43
441.523	18.42
441.727	18.5
441.931	18.59
442.135	18.52
442.339	18.53
442.543	18.46
442.748	18.4
442.952	18.31
443.156	18.39
443.36	18.33
443.564	18.35
443.768	18.35
443.972	18.32
444.176	18.23
444.38	18.26
444.584	18.23
444.788	18.27
444.992	18.3
445.196	18.41
445.4	18.39
445.604	18.47
445.808	18.51
446.012	18.51
446.216	18.58
446.42	18.58
446.624	18.58
446.828	18.64
447.032	18.6
447.235	18.62
447.439	18.62
447.643	18.65
447.847	18.7
448.051	18.73
448.254	18.79
448.458	18.74
448.662	18.8
448.866	18.83
449.069	18.78
449.273	18.72
449.477	18.83
449.681	18.82
449.884	18.77
450.088	18.7
450.292	18.7
450.495	18.66
450.699	18.67
450.902	18.62
451.106	18.56
451.31	18.64
451.513	18.71
451.717	18.56
451.92	18.61
452.124	18.63
452.327	18.57
452.531	18.57
452.734	18.43
452.938	18.49
453.141	18.59
453.345	18.57
453.548	18.51
453.752	18.55
453.955	18.59
454.158	18.59
454.362	18.53
454.565	18.58
454.769	18.5
454.972	18.62
455.175	18.5
455.379	18.43
455.582	18.44
455.785	18.37
455.988	18.49
456.192	18.52
456.395	18.52
456.598	18.65
456.801	18.62
457.005	18.7
457.208	18.66
457.411	18.54
457.614	18.66
457.817	18.77
458.021	18.97
458.224	18.87
458.427	18.81
458.63	18.77
458.833	18.62
459.036	18.63
459.239	18.58
459.442	18.63
459.645	18.71
459.848	18.61
460.051	18.53
460.254	18.47
460.457	18.49
460.66	18.57
460.863	18.57
461.066	18.58
461.269	18.56
461.472	18.65
461.675	18.76
461.878	18.85
462.081	18.94
462.284	19.01
462.486	19
462.689	18.94
462.892	18.85
463.095	18.99
463.298	19.14
463.5	19.21
463.703	19.29
463.906	19.14
464.109	19.11
464.311	19.04
464.514	19.06
464.717	18.94
464.92	18.91
465.122	18.93
465.325	18.9
465.528	18.85
465.73	18.77
465.933	18.64
466.135	18.63
466.338	18.73
466.541	18.72
466.743	18.77
466.946	18.93
467.148	19.14
467.351	19.18
467.553	19.21
467.756	19.18
467.958	19.22
468.161	19.3
468.363	19.29
468.566	19.18
468.768	19.31
468.971	19.22
469.173	19.16
469.375	19.1
469.578	19.15
469.78	19.04
469.983	19.16
470.185	19.27
470.387	19.18
470.59	19.18
470.792	19.23
470.994	19.19
471.196	19.28
471.399	19.27
471.601	19.09
471.803	19.02
472.005	19.08
472.208	19.18
472.41	19.09
472.612	19.06
472.814	19.08
473.016	18.9
473.218	18.92
473.421	18.76
473.623	18.84
473.825	18.94
474.027	18.92
474.229	18.82
474.431	18.66
474.633	18.65
474.835	18.71
475.037	18.71
475.239	18.86
475.441	18.82
475.643	18.89
475.845	18.89
476.047	18.88
476.249	18.85
476.451	18.94
476.653	19.02
476.855	19.12
477.057	19.02
477.258	19.03
477.46	19.07
477.662	19.13
477.864	19.12
478.066	19.14
478.268	19.16
478.469	19.19
478.671	19.14
478.873	19.1
479.075	18.99
479.276	19.05
479.478	18.98
479.68	18.89
479.882	18.8
480.083	18.71
480.285	18.65
480.487	18.68
480.688	18.68
480.89	18.66
481.091	18.66
481.293	18.68
481.495	18.66
481.696	18.69
481.898	18.7
482.099	18.69
482.301	18.7
482.502	18.7
482.704	18.63
482.905	18.6
483.107	18.61
483.308	18.58
483.51	18.58
483.711	18.57
483.913	18.53
484.114	18.57
484.315	18.56
484.517	18.55
484.718	18.54
484.92	18.58
485.121	18.59
485.322	18.59
485.524	18.62
485.725	18.6
485.926	18.58
486.127	18.67
486.329	18.59
486.53	18.62
486.731	18.64
486.932	18.66
487.134	18.62
487.335	18.63
487.536	18.64
487.737	18.62
487.938	18.61
488.139	18.65
488.341	18.61
488.542	18.61
488.743	18.6
488.944	18.64
489.145	18.63
489.346	18.68
489.547	18.68
489.748	18.67
489.949	18.73
490.15	18.79
490.351	18.8
490.552	18.84
490.753	18.94
490.954	18.95
491.155	18.92
491.356	18.92
491.557	18.95
491.758	18.97
491.959	19.01
492.159	19
492.36	19.04
492.561	19.05
492.762	19.04
492.963	18.98
493.164	19.01
493.364	19.04
493.565	19.01
493.766	18.96
493.967	18.97
494.167	19.01
494.368	18.94
494.569	18.9
494.769	18.89
494.97	18.96
495.171	19.02
495.371	19.05
495.572	19.19
495.773	19.32
495.973	19.36
496.174	19.38
496.375	19.38
496.575	19.45
496.776	19.42
496.976	19.48
497.177	19.45
497.377	19.49
497.578	19.5
497.778	19.39
497.979	19.38
498.179	19.39
498.38	19.41
498.58	19.45
498.78	19.53
498.981	19.63
499.181	19.71
499.382	19.82
499.582	19.76
499.782	19.8
499.983	19.91
500.183	19.96
500.383	20.01
500.584	20.05
500.784	20.11
500.984	20.06
501.184	20.01
501.385	20.06
501.585	19.99
501.785	20.09
501.985	20.12
502.185	20.09
502.386	20.06
502.586	20.07
502.786	20.12
502.986	20.12
503.186	20.13
503.386	20.22
503.586	20.22
503.786	20.33
503.987	20.33
504.187	20.33
504.387	20.38
504.587	20.47
504.787	20.56
504.987	20.55
505.187	20.64
505.387	20.73
505.587	20.78
505.786	20.85
505.986	20.84
506.186	20.88
506.386	20.98
506.586	20.95
506.786	20.96
506.986	20.91
507.186	20.95
507.386	20.87
507.585	20.87
507.785	20.87
507.985	20.81
508.185	20.84
508.384	20.88
508.584	20.96
508.784	21.04
508.984	21.08
509.183	21.11
509.383	21.1
509.583	21.17
509.782	21.22
509.982	21.32
510.182	21.35
510.381	21.4
510.581	21.41
510.781	21.38
510.98	21.48
511.18	21.59
511.379	21.7
511.579	21.79
511.778	21.82
511.978	21.86
512.177	21.88
512.377	21.99
512.576	22.02
512.776	21.97
512.975	22.01
513.175	21.95
513.374	21.88
513.573	21.89
513.773	21.87
513.972	21.93
514.172	21.95
514.371	21.99
514.57	21.96
514.77	21.98
514.969	22.1
515.168	22.07
515.367	22.16
515.567	22.36
515.766	22.41
515.965	22.43
516.164	22.5
516.364	22.5
516.563	22.49
516.762	22.53
516.961	22.59
517.16	22.52
517.359	22.57
517.559	22.51
517.758	22.36
517.957	22.4
518.156	22.44
518.355	22.45
518.554	22.47
518.753	22.47
518.952	22.49
519.151	22.55
519.35	22.71
519.549	22.74
519.748	22.72
519.947	22.84
520.146	22.8
520.345	22.85
520.544	22.81
520.743	22.77
520.942	22.86
521.141	22.85
521.339	22.7
521.538	22.58
521.737	22.6
521.936	22.67
522.135	22.65
522.333	22.76
522.532	22.77
522.731	22.82
522.93	22.94
523.129	23
523.327	23.01
523.526	23.13
523.725	23.2
523.923	23.2
524.122	23.28
524.321	23.31
524.519	23.29
524.718	23.3
524.917	23.35
525.115	23.38
525.314	23.37
525.512	23.46
525.711	23.51
525.909	23.5
526.108	23.51
526.306	23.54
526.505	23.58
526.703	23.56
526.902	23.6
527.1	23.61
527.299	23.63
527.497	23.65
527.696	23.64
527.894	23.67
528.092	23.74
528.291	23.77
528.489	23.76
528.688	23.72
528.886	23.76
529.084	23.77
529.283	23.77
529.481	23.78
529.679	23.77
529.877	23.77
530.076	23.74
530.274	23.72
530.472	23.73
530.67	23.75
530.869	23.83
531.067	23.85
531.265	23.85
531.463	23.9
531.661	23.92
531.859	23.97
532.057	23.98
532.255	24.01
532.454	24.02
532.652	24.01
532.85	24.04
533.048	24.05
533.246	24.09
533.444	24.13
533.642	24.14
533.84	24.19
534.038	24.28
534.236	24.32
534.434	24.41
534.632	24.47
534.83	24.58
535.027	24.6
535.225	24.68
535.423	24.67
535.621	24.69
535.819	24.71
536.017	24.72
536.215	24.65
536.412	24.79
536.61	24.74
536.808	24.8
537.006	24.79
537.203	24.78
537.401	24.75
537.599	24.78
537.797	24.8
537.994	24.81
538.192	24.82
538.39	24.92
538.587	24.84
538.785	24.96
538.983	24.92
539.18	24.94
539.378	25.01
539.575	25.06
539.773	25.17
539.97	25.17
540.168	25.27
540.366	25.24
540.563	25.23
540.761	25.25
540.958	25.2
541.155	25.22
541.353	25.26
541.55	25.3
541.748	25.29
541.945	25.28
542.143	25.34
542.34	25.32
542.537	25.35
542.735	25.37
542.932	25.38
543.129	25.46
543.327	25.5
543.524	25.51
543.721	25.6
543.919	25.68
544.116	25.75
544.313	25.79
544.51	25.92
544.708	26.07
544.905	26.1
545.102	26.23
545.299	26.26
545.496	26.36
545.693	26.35
545.891	26.3
546.088	26.35
546.285	26.32
546.482	26.35
546.679	26.26
546.876	26.25
547.073	26.31
547.27	26.22
547.467	26.23
547.664	26.11
547.861	26.2
548.058	26.2
548.255	26.14
548.452	26.18
548.649	26.2
548.846	26.28
549.043	26.22
549.24	26.21
549.437	26.25
549.633	26.24
549.83	26.32
550.027	26.28
550.224	26.27
550.421	26.31
550.618	26.26
550.814	26.25
551.011	26.22
551.208	26.25
551.405	26.17
551.601	26.21
551.798	26.22
551.995	26.14
552.191	26.1
552.388	26.09
552.585	26.12
552.781	26.07
552.978	26.04
553.175	25.98
553.371	26.02
553.568	26.11
553.764	26.11
553.961	26.16
554.157	26.21
554.354	26.36
554.55	26.37
554.747	26.34
554.943	26.42
555.14	26.4
555.336	26.46
555.533	26.38
555.729	26.33
555.926	26.35
556.122	26.32
556.318	26.34
556.515	26.27
556.711	26.28
556.907	26.29
557.104	26.23
557.3	26.16
557.496	26.04
557.693	26.16
557.889	26.2
558.085	26.16
558.281	26.2
558.478	26.22
558.674	26.16
558.87	26.21
559.066	26.21
559.262	26.18
559.459	26.17
559.655	26.33
559.851	26.13
560.047	26.16
560.243	26.14
560.439	26.07
560.635	26.04
560.831	26.08
561.027	26.08
561.223	26.16
561.419	26.32
561.615	26.22
561.811	26.31
562.007	26.49
562.203	26.51
562.399	26.61
562.595	26.6
562.791	26.66
562.987	26.69
563.183	26.69
563.379	26.57
563.575	26.6
563.771	26.83
563.966	26.69
564.162	26.6
564.358	26.48
564.554	26.31
564.75	26.29
564.945	26.3
565.141	26.26
565.337	26.25
565.533	26.22
565.728	26.06
565.924	26.04
566.12	26.13
566.315	26.22
566.511	26.31
566.707	26.39
566.902	26.52
567.098	26.58
567.293	26.69
567.489	26.81
567.684	26.79
567.88	26.93
568.076	26.87
568.271	26.82
568.467	26.77
568.662	26.91
568.858	26.9
569.053	26.92
569.248	26.73
569.444	26.63
569.639	26.51
569.835	26.71
570.03	26.73
570.225	26.86
570.421	26.87
570.616	26.83
570.812	26.59
571.007	26.68
571.202	26.66
571.397	26.7
571.593	26.7
571.788	26.73
571.983	26.74
572.178	26.73
572.374	26.7
572.569	26.8
572.764	26.89
572.959	26.98
573.154	26.94
573.35	26.91
573.545	26.93
573.74	26.95
573.935	26.92
574.13	26.9
574.325	26.9
574.52	26.92
574.715	26.83
574.91	26.9
575.105	26.98
575.3	26.88
575.495	26.9
575.69	27.04
575.885	27.12
576.08	27.14
576.275	27.06
576.47	27.15
576.665	27.26
576.86	27.33
577.055	27.27
577.25	27.17
577.444	27.35
577.639	27.5
577.834	27.5
578.029	27.57
578.224	27.71
578.418	27.84
578.613	27.75
578.808	27.71
579.003	27.71
579.197	27.8
579.392	27.92
579.587	27.88
579.781	27.65
579.976	27.52
580.171	27.56
580.365	27.63
580.56	27.63
580.755	27.66
580.949	27.57
581.144	27.63
581.338	27.54
581.533	27.71
581.727	27.78
581.922	27.94
582.116	28.25
582.311	28.26
582.505	28.32
582.7	28.35
582.894	28.52
583.089	28.54
583.283	28.47
583.478	28.57
583.672	28.36
583.866	28.53
584.061	28.59
584.255	28.36
584.449	28.23
584.644	28.11
584.838	28.1
585.032	28.1
585.226	28.23
585.421	28.25
585.615	28.3
585.809	28.42
586.003	28.27
586.198	28.3
586.392	28.43
586.586	28.54
586.78	28.5
586.974	28.58
587.168	28.5
587.363	28.54
587.557	28.55
587.751	28.6
587.945	28.68
588.139	28.68
588.333	28.59
588.527	28.53
588.721	28.59
588.915	28.64
589.109	28.68
589.303	28.65
589.497	28.67
589.691	28.67
589.885	28.52
590.079	28.47
590.273	28.49
590.466	28.48
590.66	28.51
590.854	28.49
591.048	28.59
591.242	28.52
591.436	28.46
591.629	28.37
591.823	28.42
592.017	28.6
592.211	28.55
592.404	28.57
592.598	28.63
592.792	28.78
592.986	28.89
593.179	28.75
593.373	28.75
593.567	28.83
593.76	28.96
593.954	29.03
594.147	28.8
594.341	28.75
594.535	28.72
594.728	28.77
594.922	28.75
595.115	28.65
595.309	28.67
595.502	28.66
595.696	28.75
595.889	28.75
596.083	28.7
596.276	28.84
596.47	28.97
596.663	28.91
596.856	28.94
597.05	29
597.243	29.15
597.437	29.04
597.63	29.13
597.823	29.12
598.017	29.11
598.21	29.14
598.403	29.18
598.596	29.14
598.79	29.26
598.983	29.25
599.176	29.13
599.369	28.97
599.563	29.38
599.756	29.33
599.949	29.43
600.142	29.43
600.335	29.51
600.528	29.53
600.722	29.62
600.915	29.47
601.108	29.56
601.301	29.56
601.494	29.63
601.687	29.46
601.88	29.63
602.073	29.5
602.266	29.55
602.459	29.44
602.652	29.48
602.845	29.46
603.038	29.64
603.231	29.69
603.424	29.76
603.617	29.71
603.809	29.76
604.002	29.6
604.195	29.7
604.388	29.61
604.581	29.73
604.774	29.6
604.966	29.57
605.159	29.56
605.352	29.5
605.545	29.45
605.737	29.49
605.93	29.55
606.123	29.76
606.316	29.56
606.508	29.64
606.701	29.7
606.894	29.92
607.086	30.03
607.279	30.23
607.471	30.16
607.664	30.41
607.857	30.58
608.049	30.53
608.242	30.62
608.434	31.04
608.627	31.41
608.819	31.63
609.012	32.03
609.204	32.36
609.397	32.77
609.589	33.37
609.782	33.76
609.974	34.36
610.166	35.1
610.359	35.66
610.551	36.22
610.743	36.66
610.936	37.22
611.128	37.52
611.32	37.77
611.513	37.81
611.705	37.76
611.897	37.69
612.09	37.43
612.282	37.2
612.474	36.82
612.666	36.54
612.858	36.24
613.051	35.71
613.243	35.25
613.435	34.97
613.627	34.7
613.819	34.62
614.011	34.38
614.203	34.25
614.395	33.93
614.588	33.74
614.78	33.55
614.972	33.44
615.164	33.37
615.356	33.19
615.548	33
615.74	32.9
615.932	32.78
616.124	32.81
616.315	32.61
616.507	32.51
616.699	32.69
616.891	32.37
617.083	32.19
617.275	31.97
617.467	31.99
617.659	31.95
617.85	31.76
618.042	31.48
618.234	31.45
618.426	31.44
618.618	31.58
618.809	31.31
619.001	31.41
619.193	31.42
619.384	31.61
619.576	31.74
619.768	31.85
619.959	32.06
620.151	32.21
620.343	32.07
620.534	32.05
620.726	32.09
620.917	32.24
621.109	32.18
621.301	32.19
621.492	32
621.684	32.11
621.875	31.95
622.067	32.06
622.258	31.96
622.45	32.2
622.641	32.31
622.832	32.25
623.024	32.3
623.215	32.37
623.407	32.18
623.598	32.33
623.789	32.41
623.981	32.54
624.172	32.44
624.363	32.58
624.555	32.45
624.746	32.42
624.937	32.23
625.129	32.11
625.32	32.16
625.511	32.28
625.702	32.3
625.893	32
626.085	31.94
626.276	31.85
626.467	31.78
626.658	31.88
626.849	31.79
627.04	31.93
627.231	32.01
627.422	32.13
627.614	32.15
627.805	32.08
627.996	32.22
628.187	32.31
628.378	32.44
628.569	32.53
628.76	32.51
628.951	32.65
629.142	32.63
629.332	32.6
629.523	32.61
629.714	32.64
629.905	33.01
630.096	33.12
630.287	33.26
630.478	33.41
630.669	33.47
630.859	33.49
631.05	33.53
631.241	33.66
631.432	33.63
631.623	33.57
631.813	33.52
632.004	33.37
632.195	33.2
632.385	33.18
632.576	33.09
632.767	32.94
632.957	32.81
633.148	32.56
633.339	32.48
633.529	32.51
633.72	32.44
633.91	32.54
634.101	32.34
634.292	32.43
634.482	32.31
634.673	32.33
634.863	32.53
635.054	32.63
635.244	32.9
635.435	32.82
635.625	33.14
635.815	33.05
636.006	32.84
636.196	32.87
636.387	32.85
636.577	32.98
636.767	32.99
636.958	32.89
637.148	33.08
637.338	33.05
637.529	32.98
637.719	32.81
637.909	32.97
638.099	33.2
638.29	33.25
638.48	33.25
638.67	33.18
638.86	33.15
639.05	33.26
639.241	33.14
639.431	33.25
639.621	33.45
639.811	33.48
640.001	33.5
640.191	33.67
640.381	33.72
640.571	33.77
640.761	33.85
640.951	33.88
641.141	34.02
641.331	33.93
641.521	34.04
641.711	33.78
641.901	33.58
642.091	33.78
642.281	33.49
642.471	33.6
642.661	33.72
642.851	33.8
643.041	33.75
643.231	33.34
643.42	33.5
643.61	33.31
643.8	33.57
643.99	33.67
644.18	33.47
644.369	33.61
644.559	33.5
644.749	33.57
644.939	33.57
645.128	33.54
645.318	33.94
645.508	33.82
645.697	34.01
645.887	34.33
646.076	34.36
646.266	34.5
646.456	34.51
646.645	34.5
646.835	34.55
647.024	34.59
647.214	34.64
647.403	34.55
647.593	34.7
647.782	34.49
647.972	34.21
648.161	34.32
648.351	34.26
648.54	34.36
648.73	34.54
648.919	34.28
649.108	34.45
649.298	34.63
649.487	34.73
649.677	34.89
649.866	34.78
650.055	34.85
650.244	34.96
650.434	34.9
650.623	35.07
650.812	35.06
651.002	35.36
651.191	35.24
651.38	35.12
651.569	35.42
651.758	35.28
651.947	35.65
652.137	35.69
652.326	35.7
652.515	35.86
652.704	35.73
652.893	35.7
653.082	35.52
653.271	35.46
653.46	35.63
653.649	35.2
653.838	35.06
654.027	35.01
654.216	35.15
654.405	35.15
654.594	35.31
654.783	35.46
654.972	35.47
655.161	35.68
655.35	35.69
655.539	35.59
655.728	35.77
655.916	35.94
656.105	35.96
656.294	35.91
656.483	35.74
656.672	35.61
656.86	35.48
657.049	35.63
657.238	35.56
657.427	35.68
657.615	35.76
657.804	35.7
657.993	35.82
658.181	35.74
658.37	35.79
658.559	35.88
658.747	35.81
658.936	35.72
659.125	35.69
659.313	35.63
659.502	35.69
659.69	35.58
659.879	35.59
660.067	35.65
660.256	35.81
660.444	35.92
660.633	36.08
660.821	36.31
661.01	36.52
661.198	36.56
661.387	36.81
661.575	36.82
661.763	36.94
661.952	37.05
662.14	37.13
662.328	37.15
662.517	37.13
662.705	37.23
662.893	37.26
663.082	37.29
663.27	37.34
663.458	37.25
663.646	37.46
663.834	37.58
664.023	37.85
664.211	38
664.399	38.03
664.587	38.04
664.775	37.75
664.963	37.66
665.152	37.78
665.34	37.9
665.528	37.95
665.716	37.76
665.904	37.87
666.092	37.89
666.28	37.66
666.468	37.74
666.656	37.79
666.844	38.18
667.032	38.55
667.22	38.67
667.408	38.86
667.596	38.85
667.784	38.9
667.971	38.83
668.159	38.81
668.347	38.99
668.535	38.94
668.723	38.98
668.911	38.77
669.098	38.76
669.286	38.49
669.474	38.69
669.662	39.12
669.849	39.34
670.037	39.51
670.225	39.65
670.413	39.35
670.6	39.42
670.788	39.55
670.976	39.72
671.163	39.79
671.351	39.97
671.538	39.73
671.726	39.22
671.913	39.26
672.101	39.05
672.289	38.86
672.476	39.3
672.664	39.56
672.851	39.5
673.039	39.4
673.226	39.18
673.413	39.14
673.601	39.04
673.788	39.2
673.976	39.03
674.163	39.52
674.35	39.87
674.538	39.86
674.725	39.74
674.912	39.76
675.1	39.81
675.287	39.9
675.474	40.06
675.662	40.25
675.849	40.08
676.036	40.17
676.223	40.1
676.411	39.72
676.598	39.63
676.785	39.54
676.972	39.46
677.159	39.54
677.346	39.53
677.533	39.6
677.721	39.61
677.908	40.08
678.095	40.07
678.282	39.88
678.469	40.39
678.656	40.49
678.843	40.5
679.03	40.65
679.217	40.83
679.404	40.81
679.591	40.66
679.778	40.65
679.964	40.61
680.151	40.71
680.338	40.86
680.525	40.69
680.712	40.73
680.899	40.91
681.086	41.03
681.272	40.96
681.459	41
681.646	41.26
681.833	41.39
682.02	41.4
682.206	41.35
682.393	41.33
682.58	41.19
682.766	41.05
682.953	40.93
683.14	40.6
683.326	40.79
683.513	40.86
683.7	40.96
683.886	40.58
684.073	40.4
684.259	40.4
684.446	40.73
684.632	40.93
684.819	40.95
685.005	40.95
685.192	41.14
685.378	41.17
685.565	41.43
685.751	41.36
685.938	41.88
686.124	42.15
686.31	42.42
686.497	42.17
686.683	41.8
686.87	41.9
687.056	42.08
687.242	42.1
687.429	41.8
687.615	41.7
687.801	41.66
687.987	41.78
688.174	41.73
688.36	41.73
688.546	41.82
688.732	41.92
688.918	42.02
689.105	42.15
689.291	42.33
689.477	42.5
689.663	42.41
689.849	42.6
690.035	42.37
690.221	42.49
690.407	42.65
690.593	42.76
690.779	42.96
690.965	43.09
691.151	43.21
691.337	43.28
691.523	43.32
691.709	43.42
691.895	43.54
692.081	43.56
692.267	43.65
692.453	43.33
692.639	43.5
692.825	43.58
693.011	43.65
693.196	43.23
693.382	43.1
693.568	43.29
693.754	43.34
693.94	43.36
694.125	43.59
694.311	43.63
694.497	44
694.682	43.71
694.868	43.83
695.054	43.96
695.239	44.28
695.425	44.38
695.611	44.6
695.796	44.67
695.982	44.3
696.168	44.09
696.353	43.97
696.539	43.77
696.724	43.71
696.91	43.76
697.095	43.64
697.281	43.34
697.466	43.5
697.652	43.44
697.837	43.22
698.023	43.28
698.208	43.3
698.393	43.44
698.579	43.28
698.764	43.06
698.949	42.84
699.135	42.77
699.32	42.89
699.505	42.63
699.691	42.53
699.876	42.35
700.061	42.51
700.246	42.36
700.432	42.08
700.617	42.31
700.802	42.49
700.987	42.62
701.172	42.61
701.358	42.47
701.543	42.81
701.728	42.72
701.913	42.94
702.098	42.76
702.283	42.91
702.468	43.02
702.653	43.13
702.838	43.33
703.023	43.41
703.208	44.07
703.393	44.56
703.578	44.57
703.763	44.63
703.948	45.03
704.133	45.44
704.318	45.77
704.503	45.82
704.688	46.1
704.873	46.43
705.057	46.22
705.242	45.92
705.427	45.87
705.612	46.08
705.797	46.31
705.981	46.89
706.166	46.93
706.351	47.15
706.536	47.55
706.72	47.23
706.905	47.06
707.09	47.36
707.274	47.41
707.459	48.12
707.644	47.98
707.828	48.13
708.013	47.74
708.197	47.95
708.382	47.72
708.567	47.43
708.751	47.63
708.936	47.96
709.12	48.04
709.305	47.65
709.489	47
709.673	46.83
709.858	46.51
710.042	46.62
710.227	46.44
710.411	46.56
710.596	46.8
710.78	46.93
710.964	46.81
711.149	46.91
711.333	47.31
711.517	47.34
711.702	47.66
711.886	47.75
712.07	47.77
712.254	47.58
712.438	47.45
712.623	47.05
712.807	46.8
712.991	46.43
713.175	46.35
713.359	46.14
713.544	46.12
713.728	45.57
713.912	45.45
714.096	45.09
714.28	45.16
714.464	45.09
714.648	45.48
714.832	45.08
715.016	45.12
715.2	45.13
715.384	45.12
715.568	44.87
715.752	45.16
715.936	45.41
716.12	45.42
716.304	45.68
716.488	45.74
716.671	45.58
716.855	46.05
717.039	46.09
717.223	46.18
717.407	46.6
717.59	46.71
717.774	47.06
717.958	46.92
718.142	47.23
718.325	46.94
718.509	46.93
718.693	46.69
718.877	46.67
719.06	46.6
719.244	46.68
719.428	46.13
719.611	46.07
719.795	45.77
719.978	45.75
720.162	45.71
720.345	46.05
720.529	45.92
720.713	45.93
720.896	45.74
721.08	46.15
721.263	46.24
721.446	46.36
721.63	46.83
721.813	46.94
721.997	46.73
722.18	46.56
722.364	46.15
722.547	46.41
722.73	46.99
722.914	46.55
723.097	46.6
723.28	45.93
723.464	45.75
723.647	45.48
723.83	45.03
724.013	45.39
724.197	45.81
724.38	45.97
724.563	46.23
724.746	46.19
724.929	46.54
725.112	46.3
725.296	46.63
725.479	46.7
725.662	46.45
725.845	46.94
726.028	47.13
726.211	46.99
726.394	46.99
726.577	46.6
726.76	46.13
726.943	46.18
727.126	46.43
727.309	46.54
727.492	46.56
727.675	47.11
727.858	46.93
728.041	46.38
728.224	46.12
728.407	45.81
728.589	45.67
728.772	45.7
728.955	46.26
729.138	46.13
729.321	46.14
729.503	46.36
729.686	46.1
729.869	46.17
730.052	46.33
730.234	46.34
730.417	46.39
730.6	46.68
730.782	46.8
730.965	46.39
731.148	46.5
731.33	46.35
731.513	45.85
731.695	46.19
731.878	46.09
732.061	46.57
732.243	46.67
732.426	46.71
732.608	46.4
732.791	47.19
732.973	47.12
733.156	47.27
733.338	47.05
733.52	47.44
733.703	46.97
733.885	47.21
734.068	46.94
734.25	46.94
734.432	46.85
734.615	47.38
734.797	46.83
734.979	47.18
735.162	46.59
735.344	47.38
735.526	47.47
735.708	48.26
735.891	48.23
736.073	48.71
736.255	48.38
736.437	48.6
736.619	48.04
736.802	48.04
736.984	47.83
737.166	48.29
737.348	47.59
737.53	47.65
737.712	47.16
737.894	47.08
738.076	46.66
738.258	47.06
738.44	47.5
738.622	47.99
738.804	47.75
738.986	47.83
739.168	47.93
739.35	48.01
739.532	48.15
739.714	47.85
739.896	48.33
740.078	48.32
740.259	48.53
740.441	48.21
740.623	47.5
740.805	48.17
740.987	48.61
741.168	48.69
741.35	48.76
741.532	48.6
741.714	48.79
741.895	48.76
742.077	48.4
742.259	48.31
742.44	48.69
742.622	49.45
742.804	48.6
742.985	48.08
743.167	47.71
743.348	48.81
743.53	48.91
743.711	49.26
743.893	48.83
744.075	49.94
744.256	49.99
744.438	49.23
744.619	49.36
744.8	50.08
744.982	50.23
745.163	50.34
745.345	50.06
745.526	49.97
745.707	50.07
745.889	50.58
746.07	50.15
746.252	50.28
746.433	50.92
746.614	50.91
746.795	50.58
746.977	50.22
747.158	51.35
747.339	50.65
747.52	50.53
747.702	50.78
747.883	49.75
748.064	50.15
748.245	49.76
748.426	50.32
748.607	50.08
748.788	49.69
748.97	49.68
749.151	48.38
749.332	48.67
749.513	49.15
749.694	49.03
749.875	49.81
750.056	49.45
750.237	49.88
750.418	49
750.599	48.88
750.78	49.1
750.96	49.7
751.141	50.19
751.322	49.88
751.503	49.79
751.684	49.33
751.865	49.77
752.046	49.87
752.226	49.98
752.407	50.27
752.588	51.29
752.769	50.98
752.949	51.19
753.13	50.18
753.311	50.46
753.492	50.6
753.672	50.65
753.853	49.63
754.034	49.44
754.214	49.2
754.395	49.33
754.575	48.66
754.756	49.37
754.937	48.9
755.117	49.05
755.298	49.33
755.478	48.29
755.659	48.74
755.839	48.76
756.02	48.69
756.2	48.8
756.381	48.9
756.561	48.91
756.741	48.71
756.922	49.39
757.102	50.17
757.283	49.68
757.463	50.58
757.643	50.11
757.823	49.75
758.004	49.22
758.184	48.53
758.364	47.87
758.545	47.99
758.725	48.4
758.905	47.68
759.085	47.49
759.265	47.69
759.446	47.45
759.626	47.47
759.806	47.67
759.986	47.84
760.166	48.28
760.346	48.66
760.526	48.6
760.706	48.46
760.886	48.1
761.066	48.76
761.246	48.47
761.426	47.94
761.606	47.66
761.786	47.54
761.966	47.96
762.146	47.99
762.326	48.42
762.506	47.74
762.686	47.84
762.866	48.03
763.046	47.06
763.225	47.14
763.405	47.36
763.585	47.65
763.765	47.27
763.945	46.9
764.124	46.58
764.304	46.29
764.484	46.5
764.664	46.46
764.843	46.83
765.023	47.45
765.203	47.24
765.382	47.39
765.562	47.26
765.741	48.36
765.921	48.74
766.101	48.92
766.28	49.36
766.46	49.61
766.639	48.89
766.819	48.97
766.998	48.49
767.178	48.91
767.357	48.69
767.537	48.7
767.716	48.79
767.896	48.89
768.075	48.47
768.254	48.21
768.434	49.11
768.613	49.97
768.792	49.31
768.972	49.62
769.151	49.36
769.33	49.81
769.51	50.28
769.689	49.7
769.868	49.24
770.047	50.2
770.226	50.01
770.406	49.13
770.585	48.43
770.764	48.72
770.943	49.76
771.122	50.36
771.301	50
771.48	49.55
771.66	50.39
771.839	51.03
772.018	50.99
772.197	51.42
772.376	51.03
772.555	51.6
772.734	52.08
772.913	50.73
773.092	50.27
773.271	50.55
773.449	50.78
773.628	50.69
773.807	50.8
773.986	50.93
774.165	50
774.344	50.58
774.523	50.27
774.701	50.09
774.88	50.55
775.059	51.1
775.238	50.96
775.417	51.64
775.595	51.85
775.774	51.51
775.953	51.99
776.131	52.61
776.31	52.52
776.489	52.96
776.667	53.13
776.846	52.76
777.025	52.62
777.203	52.63
777.382	51.99
777.56	50.62
777.739	51.96
777.917	50.8
778.096	50.54
778.274	50.11
778.453	50.47
778.631	50.44
778.81	50.21
778.988	48.67
779.166	49.12
779.345	49.19
779.523	49.74
779.702	48.67
779.88	49.62
780.058	50.07
780.237	50.91
780.415	50
780.593	50.01
780.771	50.72
780.95	53.01
781.128	52.35
781.306	51.84
781.484	52.64
781.662	51.94
781.841	52.17
782.019	52.88
782.197	53.18
782.375	53.02
782.553	52.21
782.731	52.49
782.909	51.6
783.087	52.04
783.265	51.54
783.443	50.05
783.621	51.53
783.799	50.59
783.977	49.45
784.155	48.96
784.333	48.68
784.511	48.89
784.689	49.09
784.867	49.45
785.045	49.56
785.223	50.15
785.4	51.22
785.578	50.4
785.756	50.97
785.934	50.83
786.112	51.23
786.289	52.57
786.467	53.05
786.645	52.85
786.823	52.38
787	52.83
787.178	52.12
787.356	51.79
787.533	51.57
787.711	50.98
787.889	50.7
788.066	49.99
788.244	49.43
788.421	49.17
788.599	48.94
788.776	48.25
788.954	47.19
789.131	48.49
789.309	48.1
789.486	48.25
789.664	48.47
789.841	49.05
790.019	49.58
790.196	49.4
790.373	49
790.551	48.63
790.728	49.14
790.906	49.98
791.083	48.84
791.26	49.14
791.437	48.75
791.615	48.04
791.792	47.93
791.969	47.21
792.146	46.78
792.324	47.32
792.501	48.1
792.678	47.12
792.855	46.44
793.032	46.42
793.209	46.5
793.387	46.73
793.564	47.7
793.741	47.84
793.918	48.24
794.095	48.27
794.272	48.06
794.449	48.02
794.626	49.13
794.803	49.82
794.98	50.73
795.157	50.6
795.334	51.26
795.511	50.28
795.688	50.07
795.864	49.98
796.041	49.49
796.218	49.22
796.395	49.09
796.572	49.53
796.749	49.12
796.925	48.48
797.102	47.92
797.279	47.03
797.456	47.99
797.632	48.22
797.809	47.65
797.986	48.92
798.162	49.06
798.339	48.73
798.516	48.45
798.692	49.1
798.869	49.81
799.046	50.5
799.222	51.1
799.399	50.84
799.575	50.98
799.752	51.24
799.928	51.23
800.105	51.31
800.281	51.6
800.458	52.13
800.634	51.52
800.811	51
800.987	51.69
801.163	50.7
801.34	50.68
801.516	51.01
801.692	51.07
801.869	51.23
802.045	51.58
802.221	51.96
802.398	50.53
802.574	50.47
802.75	50.94
802.926	50.75
803.103	51.64
803.279	51.81
803.455	50.67
803.631	51.12
803.807	50.34
803.983	49.99
804.16	49.25
804.336	48.8
804.512	47.64
804.688	46.74
804.864	46.25
805.04	46.24
805.216	46.1
805.392	45.68
805.568	45.41
805.744	45.44
805.92	44.42
806.096	44.42
806.272	46.27
806.448	46.71
806.623	46.96
806.799	46.15
806.975	47.44
807.151	45.86
807.327	47.05
807.503	46.32
807.678	45.82
807.854	46.27
808.03	46.37
808.206	45.25
808.381	45.66
808.557	45.68
808.733	47.81
808.908	46.38
809.084	47.39
809.26	47.38
809.435	48.75
809.611	49.56
809.787	50.4
809.962	51.22
810.138	51.67
810.313	52.66
810.489	53.08
810.664	52.08
810.84	51.6
811.015	51.4
811.191	50.46
811.366	49.17
811.542	48.33
811.717	48.37
811.892	47.2
812.068	46.73
812.243	46.19
812.419	44.6
812.594	43.16
812.769	43.07
812.944	42.88
813.12	43.19
813.295	43.42
813.47	43.11
813.645	41.91
813.821	42.2
813.996	41.9
814.171	41.59
814.346	42.65
814.521	43.64
814.697	43.91
814.872	43.95
815.047	43.75
815.222	43.37
815.397	43.81
815.572	44.29
815.747	43.74
815.922	44.06
816.097	43.11
816.272	42.79
816.447	42.44
816.622	41.94
816.797	42.38
816.972	41.96
817.147	43.21
817.322	42.52
817.496	41.83
817.671	42.6
817.846	42.36
818.021	43.27
818.196	43.32
818.371	43.91
818.545	44.49
818.72	43.58
818.895	43.16
819.069	42.42
819.244	42.75
819.419	43.3
819.594	42.49
819.768	41.95
819.943	41.27
820.117	41.5
820.292	41.04
820.467	40.83
820.641	41.19
820.816	40.82
820.99	40.36
821.165	40.26
821.339	40.07
821.514	40.01
821.688	39.77
821.863	39.79
822.037	39.45
822.212	39.46
822.386	39.22
822.56	38.99
822.735	38.92
822.909	38.67
823.084	38.76
823.258	38.74
823.432	38.58
823.606	38.84
823.781	38.87
823.955	39.09
824.129	38.94
824.303	39.19
824.478	39.19
824.652	39.58
824.826	40.26
825	40.16
825.174	40.32
825.348	40.32
825.523	40.38
825.697	39.84
825.871	39.73
826.045	39.62
826.219	39.41
826.393	39.45
826.567	39.15
826.741	38.27
826.915	37.87
827.089	37.73
827.263	37.97
827.437	37.78
827.611	38.6
827.784	38.2
827.958	38.38
828.132	38.33
828.306	38.45
828.48	38.21
828.654	38.66
828.827	39.42
829.001	39.14
829.175	39.06
829.349	39.04
829.522	38.19
829.696	38.58
829.87	38.39
830.044	38.92
830.217	39.26
830.391	40.23
830.565	40.78
830.738	40.16
830.912	40.82
831.085	40.91
831.259	41.32
831.432	40.95
831.606	41.65
831.779	40.55
831.953	39.74
832.126	38.54
832.3	36.33
832.473	36.4
832.647	37.18
832.82	37.71
832.994	37
833.167	37.58
833.34	38.01
833.514	38.15
833.687	38.77
833.86	38.74
834.034	38.39
834.207	39.23
834.38	38.61
834.553	38.2
834.727	38.38
834.9	38.78
835.073	38.07
835.246	37.91
835.419	37.29
835.593	37.11
835.766	37.3
835.939	38.44
836.112	38.57
836.285	39.08
836.458	38.98
836.631	38.45
836.804	38.42
836.977	38.04
837.15	38.04
837.323	39.32
837.496	41
837.669	40.47
837.842	40.18
838.015	41.37
838.188	41.5
838.361	41.27
838.533	40.86
838.706	42.94
838.879	44.94
839.052	43.9
839.225	43.13
839.398	40.78
839.57	40.5
839.743	40.35
839.916	39.72
840.088	39.34
840.261	40.62
840.434	41.04
840.607	39.79
840.779	39.45
840.952	40.22
841.124	40.28
841.297	41.78
841.47	42.41
841.642	41.68
841.815	42.53
841.987	43.49
842.16	43.41
842.332	41.91
842.505	41.82
842.677	41.92
842.85	41.63
843.022	39.45
843.194	37.06
843.367	38.39
843.539	41.57
843.712	39.78
843.884	39.37
844.056	39.59
844.229	39.91
844.401	39.86
844.573	39.66
844.745	42.44
844.918	46.46
845.09	49.89
845.262	46.18
845.434	44.42
845.606	46.62
845.779	47.06
845.951	48.92
846.123	50.75
846.295	48.75
846.467	50.69
846.639	49.97
846.811	49.32
846.983	48.63
847.155	50.85
847.327	49.24
847.499	49.92
847.671	50.72
847.843	49.13
848.015	49.97
848.187	51.14
848.359	46.6
848.531	45.31
848.703	43.82
848.875	43.85
849.047	47.28
849.218	51.18
849.39	50.43
849.562	50.1
849.734	46.28
849.905	42.41
850.077	42.31
850.249	43.36
850.421	45.42
850.592	46.11
850.764	46.01
850.936	43.53
851.107	43.1
851.279	43.1
851.451	43.61
851.622	43.21
851.794	42.49
851.965	45.14
852.137	47.6
852.308	47.7
852.48	46.55
852.651	46.41
852.823	48.53
852.994	44.84
853.166	46.12
853.337	43.85
853.509	45.85
853.68	48.95
853.851	47.12
854.023	45.87
854.194	44.92
854.365	45.46
854.537	46.69
854.708	42.8
854.879	45.92
855.05	45.2
855.222	47.31
855.393	48
855.564	48.76
855.735	51.85
855.906	50.63
856.078	49.9
856.249	50.29
856.42	48.96
856.591	50.54
856.762	51.45
856.933	51.03
857.104	50.06
857.275	51.76
857.446	51.02
857.617	48.73
857.788	50.86
857.959	47.38
858.13	49.37
858.301	46.77
858.472	49.53
858.643	48.18
858.814	43.78
858.985	45.76
859.155	45.91
859.326	46.47
859.497	46.36
859.668	45.42
859.839	49.16
860.009	45.69
860.18	46.59
860.351	43.51
860.522	42.84
860.692	46.58
860.863	44.99
861.034	43.96
861.204	44.38
861.375	42.31
861.546	43.13
861.716	40.76
861.887	38.57
862.057	42.17
862.228	43.07
862.398	44.79
862.569	45.24
862.739	44.73
862.91	43.42
863.08	41.21
863.251	44.45
863.421	45.64
863.592	43.86
863.762	47.47
863.932	43.55
864.103	43.83
864.273	40.46
864.443	38.22
864.614	37.58
864.784	38.06
864.954	42.09
865.125	40.95
865.295	38.55
865.465	42
865.635	40.73
865.805	40.2
865.976	38.42
866.146	39.93
866.316	43.85
866.486	43.47
866.656	44.33
866.826	43.68
866.996	44.83
867.166	43.4
867.336	43.51
867.506	47.6
867.676	46.48
867.846	43.13
868.016	41.79
868.186	37.51
868.356	40.47
868.526	38.29
868.696	36.85
868.866	39.89
869.036	40.15
869.206	37.28
869.376	34.42
869.545	35.05
869.715	38
869.885	38.17
870.055	37.51
870.224	37.85
870.394	41.02
870.564	41.48
870.734	37.87
870.903	39.63
871.073	41.74
871.243	43.95
871.412	44.59
871.582	46.81
871.751	49.42
871.921	49.01
872.091	49.89
872.26	50.64
872.43	48.18
872.599	47.14
872.769	47.84
872.938	46.91
873.108	42.53
873.277	44.23
873.446	44.27
873.616	43.73
873.785	45.56
873.955	43.7
874.124	43.46
874.293	43.63
874.463	42.72
874.632	40.51
874.801	44.33
874.971	49.43
875.14	42.55
875.309	42.57
875.478	40.89
875.647	39.03
875.817	35.64
875.986	32.76
876.155	33.94
876.324	37.68
876.493	41.01
876.662	39.34
876.831	34.85
877	38.98
877.17	39.9
877.339	41.81
877.508	40.89
877.677	43.76
877.846	40.29
878.015	37.83
878.184	34.79
878.352	32.63
878.521	32.38
878.69	35.95
878.859	34.74
879.028	31.56
879.197	32.43
879.366	35
879.534	34.36
879.703	35.93
879.872	35.92
880.041	36.35
880.21	34.33
880.378	33.49
880.547	31.48
880.716	32.29
880.884	33.02
881.053	30.85
881.222	30.17
881.39	29.33
881.559	29.47
881.727	29.51
881.896	29.43
882.065	29.54
882.233	29.57
882.402	30.26
882.57	29.75
882.739	29.01
882.907	29.73
883.076	29.68
883.244	30.22
883.412	30.2
883.581	29.97
883.749	29.96
883.918	30.36
884.086	30.05
884.254	29.36
884.423	29.68
884.591	30.78
884.759	30.81
884.927	31.58
885.096	31.29
885.264	31.29
885.432	33.35
885.6	34.38
885.769	33.58
885.937	32.85
886.105	34.34
886.273	32.44
886.441	32.91
886.609	32.95
886.777	32.84
886.945	34.64
887.113	35.2
887.281	33.28
887.449	32.64
887.617	34.54
887.785	37.84
887.953	35.41
888.121	40.12
888.289	38.08
888.457	37.46
888.625	38.56
888.793	41.9
888.961	41.92
889.129	42.06
889.296	42
889.464	41.63
889.632	41.47
889.8	45.43
889.967	44.99
890.135	48.14
